Data from 2938466_Reflection_2.txt Node
Date: Wed Jun 17 13:49:01 EDT 2015
User: robert
Spectrometer: USB4E03002
Autoset integration time: false
Trigger mode: 4
Integration Time (sec): 1.000000E-1
Scans to average: 10
Electric dark correction enabled: true
Nonlinearity correction enabled: false
Boxcar width: 5
Stray light correction enabled: false
XAxis mode: Wavelengths
Stop averaging: false
Number of Pixels in Spectrum: 3648
>>>>>Begin Spectral Data<<<<<
177.575	-135.92
177.794	-266.81
178.014	-70.24
178.233	-131.84
178.452	164.7
178.672	332.5
178.891	-57.1
179.11	-216.93
179.33	2486.46
179.549	-5717.28
179.768	-360.98
179.987	-119.26
180.207	-661.81
180.426	-71.38
180.645	92.19
180.864	80.53
181.084	98.62
181.303	92.93
181.522	111.2
181.741	192.48
181.96	132.74
182.179	149.43
182.398	120.77
182.618	132.45
182.837	138.23
183.056	378.35
183.275	279.93
183.494	259.04
183.713	224.31
183.932	1040.9
184.151	356.41
184.37	243.66
184.589	155.23
184.808	137.85
185.027	329.54
185.246	195.86
185.465	158.19
185.684	134.88
185.903	161.64
186.122	85.85
186.341	82.29
186.56	75.82
186.779	125.01
186.998	130.69
187.216	104.69
187.435	87.78
187.654	101.64
187.873	98.41
188.092	115.79
188.311	104.18
188.53	118.87
188.748	124.36
188.967	134.25
189.186	123.5
189.405	158.05
189.623	78.35
189.842	95.59
190.061	-219.6
190.28	-4.85
190.498	-8.13
190.717	-390.07
190.936	-3.43
191.154	-26.25
191.373	-21.21
191.592	-93.38
191.81	0.13
192.029	26.11
192.248	-163.56
192.466	43.53
192.685	44.15
192.904	28.6
193.122	6
193.341	59.56
193.559	51.44
193.778	39.77
193.996	71.49
194.215	79
194.433	76.88
194.652	97.51
194.87	68.46
195.089	45.22
195.307	37.7
195.526	87.27
195.744	87
195.963	103.21
196.181	76.45
196.399	54.03
196.618	81.47
196.836	85.8
197.055	65.41
197.273	67.53
197.491	68.56
197.71	97.09
197.928	80.43
198.146	61.49
198.365	45.74
198.583	62.82
198.801	61.35
199.019	29.98
199.238	49.73
199.456	53.14
199.674	52.35
199.892	57.61
200.111	3.28
200.329	-12.13
200.547	37.64
200.765	32.11
200.983	35.68
201.202	41.74
201.42	56.88
201.638	41.63
201.856	19.35
202.074	31.27
202.292	34.36
202.51	49.83
202.728	46.4
202.946	45.34
203.165	34.88
203.383	34.37
203.601	38.63
203.819	56.85
204.037	60.22
204.255	63.96
204.473	50.77
204.691	43.12
204.909	51.94
205.127	57.93
205.345	38.11
205.562	59.58
205.78	75.68
205.998	65.76
206.216	56.8
206.434	51.55
206.652	62.22
206.87	59.64
207.088	55.48
207.306	37.62
207.523	39.22
207.741	51.6
207.959	29.94
208.177	20.31
208.395	33.63
208.612	22.38
208.83	13.01
209.048	0.77
209.266	5.06
209.483	18.54
209.701	44.55
209.919	34.16
210.136	46.87
210.354	50.74
210.572	53.03
210.79	41.21
211.007	56.43
211.225	60.63
211.442	74.72
211.66	74.62
211.878	59.63
212.095	50.03
212.313	65.52
212.53	58.19
212.748	47.9
212.966	23.05
213.183	22.97
213.401	14.42
213.618	17.9
213.836	24.85
214.053	36
214.271	41.36
214.488	28.51
214.705	25.07
214.923	12.66
215.14	19.26
215.358	44.38
215.575	55.64
215.793	61.95
216.01	61.84
216.227	54.47
216.445	57.09
216.662	53.89
216.879	57.65
217.097	46.17
217.314	42.24
217.531	28.33
217.749	20.74
217.966	-10.41
218.183	-35.6
218.4	-40.69
218.618	-40.45
218.835	-85.62
219.052	-49.1
219.269	-75.59
219.487	-45.53
219.704	-20.72
219.921	-1.6
220.138	-24.41
220.355	-7.85
220.572	1.85
220.79	9.96
221.007	18.48
221.224	26.87
221.441	24.06
221.658	27.53
221.875	30.2
222.092	32.79
222.309	38.29
222.526	48.86
222.743	46.4
222.96	46.8
223.177	47.46
223.394	45.25
223.611	40.23
223.828	40.81
224.045	38.33
224.262	29.89
224.479	25.38
224.696	25.27
224.913	23.34
225.13	21.51
225.347	17.99
225.564	15.85
225.781	15.09
225.997	15.19
226.214	15.59
226.431	14.04
226.648	15.9
226.865	15.46
227.082	15.77
227.298	15.49
227.515	15.51
227.732	16.07
227.949	15.98
228.165	15.47
228.382	14.61
228.599	12.88
228.816	14.07
229.032	14.14
229.249	14.27
229.466	13.9
229.682	13.66
229.899	14.89
230.116	14.76
230.332	14.46
230.549	14.78
230.765	17.08
230.982	18.47
231.199	19.12
231.415	17.76
231.632	19.82
231.848	19.24
232.065	19.59
232.281	16.51
232.498	15.06
232.714	14.33
232.931	13.31
233.147	13.1
233.364	11.88
233.58	11.77
233.797	11.93
234.013	9.85
234.23	7.68
234.446	8.68
234.662	9.48
234.879	8.57
235.095	8.28
235.312	9.75
235.528	8.23
235.744	7.29
235.961	7.13
236.177	4.76
236.393	5.79
236.61	6.76
236.826	4.87
237.042	6.72
237.258	10.04
237.475	10.68
237.691	10.99
237.907	9.56
238.123	9.98
238.339	11.08
238.556	15.25
238.772	14.28
238.988	12.97
239.204	11.77
239.42	11.66
239.636	11.46
239.853	11.97
240.069	11.86
240.285	11.97
240.501	12.49
240.717	12.03
240.933	10.67
241.149	11.3
241.365	12.59
241.581	13.52
241.797	13.63
242.013	13.3
242.229	13.16
242.445	13.19
242.661	13.49
242.877	14.55
243.093	13.93
243.309	14.28
243.525	13.39
243.741	11.98
243.957	10.77
244.173	10.29
244.388	9.99
244.604	9.61
244.82	9.39
245.036	9.56
245.252	8.68
245.468	8.53
245.683	8.92
245.899	9.55
246.115	9.6
246.331	9.77
246.547	9.62
246.762	9.91
246.978	10.03
247.194	10.38
247.409	10.54
247.625	10.61
247.841	10.84
248.057	10.43
248.272	9.38
248.488	10.01
248.703	10.31
248.919	10.12
249.135	9.57
249.35	9.88
249.566	9.83
249.782	9.19
249.997	9.6
250.213	9.71
250.428	9.21
250.644	9.36
250.859	8.87
251.075	8.11
251.29	8.47
251.506	7.98
251.721	7.9
251.937	7.08
252.152	7.46
252.368	7.75
252.583	8.02
252.798	7.96
253.014	8.38
253.229	8.86
253.445	8.79
253.66	8.41
253.875	9.49
254.091	10.13
254.306	10.44
254.521	9.99
254.737	8.69
254.952	8.48
255.167	7.75
255.383	8.19
255.598	7.4
255.813	7.78
256.028	8.08
256.244	7.36
256.459	6.16
256.674	6.08
256.889	6.15
257.104	6.3
257.32	6.48
257.535	6.74
257.75	6.55
257.965	6.59
258.18	6.59
258.395	6.41
258.61	6.62
258.826	7.01
259.041	7.12
259.256	7.47
259.471	7.49
259.686	7.42
259.901	7.74
260.116	7.79
260.331	8.21
260.546	7.93
260.761	7.94
260.976	8
261.191	7.73
261.406	8.04
261.621	7.34
261.836	7.42
262.05	7.83
262.265	7.89
262.48	7.51
262.695	6.63
262.91	7.81
263.125	7.61
263.34	7.57
263.555	7.06
263.769	6.8
263.984	6.71
264.199	7.21
264.414	6.64
264.629	6.59
264.843	6.58
265.058	6.3
265.273	5.75
265.488	5.72
265.702	6.1
265.917	6.55
266.132	6.49
266.346	6.42
266.561	6.23
266.776	6.78
266.99	6.43
267.205	6.2
267.42	6.18
267.634	6.57
267.849	6.71
268.063	6.46
268.278	7.18
268.492	6.64
268.707	6.93
268.922	6.38
269.136	5.99
269.351	5.7
269.565	6.27
269.78	6.45
269.994	6.4
270.209	6.51
270.423	6.48
270.637	5.91
270.852	6.39
271.066	6.48
271.281	6.79
271.495	6.4
271.709	6.86
271.924	6.45
272.138	6.44
272.353	6.57
272.567	6.36
272.781	5.87
272.996	6.27
273.21	5.98
273.424	5.53
273.638	5.49
273.853	6.06
274.067	5.88
274.281	6.12
274.495	6.18
274.71	5.96
274.924	6.1
275.138	6.67
275.352	5.35
275.566	5.23
275.781	5.71
275.995	5.85
276.209	5.3
276.423	5.11
276.637	4.67
276.851	4.51
277.065	4.38
277.279	4.63
277.493	4.48
277.707	5.82
277.921	5.89
278.135	5.39
278.349	5.27
278.563	5.51
278.777	5.24
278.991	5.39
279.205	5.99
279.419	5.9
279.633	6.32
279.847	6.62
280.061	6.07
280.275	6.12
280.489	6.19
280.703	6.12
280.917	6.36
281.131	7
281.344	6.91
281.558	6.46
281.772	6.78
281.986	6.32
282.2	6.08
282.414	6.08
282.627	6.2
282.841	6.1
283.055	6.04
283.269	6.01
283.482	6.05
283.696	6.31
283.91	6.27
284.123	6.08
284.337	6.05
284.551	6.17
284.764	6.49
284.978	6.42
285.192	6.66
285.405	6.9
285.619	6.64
285.833	6.22
286.046	5.83
286.26	6.4
286.473	6.7
286.687	6.57
286.9	6.72
287.114	6.42
287.327	6.11
287.541	5.62
287.754	5.63
287.968	5.28
288.181	5.32
288.395	6.07
288.608	5.81
288.822	5.24
289.035	5.3
289.248	5.14
289.462	4.95
289.675	5.2
289.889	5.41
290.102	4.92
290.315	5.24
290.529	5.66
290.742	5.16
290.955	5.2
291.169	5.57
291.382	6.01
291.595	6.27
291.808	6.49
292.022	6.22
292.235	6.13
292.448	6.77
292.661	6.99
292.875	6.69
293.088	6.91
293.301	6.5
293.514	6.18
293.727	6
293.94	5.84
294.153	5.88
294.367	5.76
294.58	5.93
294.793	5.61
295.006	5.97
295.219	6.23
295.432	6.08
295.645	6.35
295.858	6.73
296.071	6.49
296.284	6.3
296.497	6.45
296.71	6.92
296.923	7.43
297.136	7.36
297.349	7.39
297.562	7.35
297.775	7.46
297.988	7.54
298.201	7.2
298.414	7.59
298.626	7.71
298.839	7.57
299.052	6.94
299.265	5.96
299.478	6.35
299.691	6.41
299.903	6.1
300.116	6
300.329	5.23
300.542	5.44
300.755	5.19
300.967	5.58
301.18	5.87
301.393	6.18
301.605	6.53
301.818	6.56
302.031	6.27
302.243	6.47
302.456	6.75
302.669	7.22
302.881	7.11
303.094	6.89
303.307	6.78
303.519	7.07
303.732	7.37
303.944	7.2
304.157	6.78
304.37	6.18
304.582	6.27
304.795	6.07
305.007	6.52
305.22	6.7
305.432	7.04
305.645	6.51
305.857	5.99
306.069	6.45
306.282	6.39
306.494	6.74
306.707	7.32
306.919	7.05
307.132	6.93
307.344	6.66
307.556	6.91
307.769	6.96
307.981	7.2
308.193	7.13
308.406	6.09
308.618	6.67
308.83	6.6
309.043	6.28
309.255	6.52
309.467	6.26
309.679	6.08
309.892	5.83
310.104	5.44
310.316	5.43
310.528	5.51
310.74	5.95
310.953	5.58
311.165	5.4
311.377	5.71
311.589	5.54
311.801	6.15
312.013	6.3
312.225	6.31
312.437	6.67
312.649	6.82
312.862	6.81
313.074	6.9
313.286	6.66
313.498	6.73
313.71	6.76
313.922	6.51
314.134	6.31
314.346	6.13
314.558	6.28
314.77	6.66
314.982	6.39
315.193	6.28
315.405	6.48
315.617	6.93
315.829	7.51
316.041	7.49
316.253	7.74
316.465	7.48
316.677	7.84
316.888	7.93
317.1	7.66
317.312	7.97
317.524	8.35
317.736	8.13
317.947	8.23
318.159	7.77
318.371	7.62
318.583	7.84
318.794	7.82
319.006	7.77
319.218	7.4
319.43	7.48
319.641	7.45
319.853	7.14
320.064	7.12
320.276	6.97
320.488	6.91
320.699	6.88
320.911	6.71
321.123	6.78
321.334	6.97
321.546	7.08
321.757	6.68
321.969	6.84
322.18	6.65
322.392	6.7
322.603	6.79
322.815	6.95
323.026	7.27
323.238	7.11
323.449	6.95
323.661	6.74
323.872	6.77
324.083	7.15
324.295	6.92
324.506	7.35
324.718	7.45
324.929	7.96
325.14	8.18
325.352	8.11
325.563	8.44
325.774	9.08
325.986	9.58
326.197	9.74
326.408	9.6
326.62	9.52
326.831	9.43
327.042	9.29
327.253	8.76
327.464	8.58
327.676	8.59
327.887	8.15
328.098	7.96
328.309	7.69
328.52	7.77
328.732	7.84
328.943	8.03
329.154	7.93
329.365	8.18
329.576	7.93
329.787	8.13
329.998	8.2
330.209	8.78
330.42	8.7
330.631	8.36
330.842	8.35
331.053	8.17
331.264	8.25
331.475	8.07
331.686	7.97
331.897	8.12
332.108	7.89
332.319	7.71
332.53	7.76
332.741	7.66
332.952	7.74
333.163	7.39
333.374	7.31
333.585	7.39
333.795	7.91
334.006	8.05
334.217	8.25
334.428	8.39
334.639	8.02
334.849	7.8
335.06	7.84
335.271	7.8
335.482	7.79
335.692	8.1
335.903	7.9
336.114	7.43
336.325	7.39
336.535	7.4
336.746	7.04
336.957	7.36
337.167	7.53
337.378	7.49
337.589	7.52
337.799	7.56
338.01	7.81
338.22	7.76
338.431	8
338.642	7.71
338.852	7.7
339.063	7.94
339.273	8.02
339.484	7.99
339.694	7.73
339.905	7.84
340.115	8.75
340.326	8.68
340.536	8.94
340.746	8.57
340.957	8.57
341.167	8.29
341.378	8.16
341.588	8.01
341.799	8.03
342.009	8.29
342.219	7.98
342.43	7.38
342.64	7.08
342.85	7.08
343.061	6.96
343.271	7.03
343.481	7.32
343.691	7.24
343.902	7.11
344.112	6.67
344.322	6.78
344.532	7.07
344.743	6.7
344.953	6.91
345.163	6.69
345.373	7.01
345.583	7.05
345.793	6.93
346.004	7.25
346.214	7.43
346.424	7.92
346.634	7.61
346.844	7.76
347.054	8.27
347.264	8.09
347.474	8.26
347.684	8.2
347.894	8.23
348.104	8.28
348.314	8.24
348.524	8.11
348.734	7.7
348.944	8.02
349.154	7.79
349.364	7.3
349.574	6.98
349.784	6.61
349.994	6.58
350.204	6.65
350.413	6.91
350.623	6.79
350.833	6.92
351.043	7
351.253	6.73
351.463	6.33
351.672	6.44
351.882	6.67
352.092	6.94
352.302	7.1
352.511	6.61
352.721	6.38
352.931	6.54
353.141	6.15
353.35	6.2
353.56	6.3
353.77	6.42
353.979	6.27
354.189	6.02
354.399	5.82
354.608	5.56
354.818	5.63
355.027	5.44
355.237	5.26
355.447	5.34
355.656	5.4
355.866	5.39
356.075	5.71
356.285	5.96
356.494	6.06
356.704	6.11
356.913	6.14
357.123	6.38
357.332	6.49
357.542	6.52
357.751	6.85
357.96	6.55
358.17	6.48
358.379	6.25
358.589	6.31
358.798	6.39
359.007	6.21
359.217	6.18
359.426	6.07
359.635	5.91
359.845	5.9
360.054	5.75
360.263	5.91
360.472	5.83
360.682	5.94
360.891	5.82
361.1	5.91
361.309	6.03
361.519	6
361.728	6.01
361.937	6.09
362.146	6.03
362.355	5.92
362.564	5.68
362.774	5.73
362.983	5.72
363.192	5.55
363.401	5.29
363.61	5.28
363.819	5.56
364.028	5.38
364.237	5.27
364.446	5.22
364.655	5.34
364.864	5.61
365.073	5.6
365.282	5.59
365.491	5.69
365.7	5.68
365.909	5.69
366.118	5.8
366.327	5.8
366.536	6.09
366.745	6.45
366.954	6.4
367.162	6.26
367.371	6.37
367.58	6.37
367.789	6.31
367.998	5.99
368.207	5.95
368.415	5.66
368.624	5.7
368.833	5.6
369.042	5.02
369.25	5.11
369.459	5.46
369.668	5.25
369.877	5.27
370.085	5.31
370.294	5.58
370.503	5.38
370.711	5.57
370.92	5.71
371.129	5.45
371.337	5.75
371.546	5.59
371.754	5.58
371.963	5.72
372.171	5.64
372.38	5.71
372.589	6.04
372.797	6.35
373.006	6.12
373.214	6.36
373.423	6.43
373.631	6.5
373.84	6.43
374.048	6.27
374.256	6.28
374.465	6.25
374.673	6.15
374.882	5.92
375.09	5.54
375.298	5.35
375.507	5.09
375.715	5.2
375.923	5.22
376.132	5.29
376.34	4.99
376.548	5
376.757	5.05
376.965	5.18
377.173	5.16
377.381	5.37
377.59	5.57
377.798	5.78
378.006	5.78
378.214	5.54
378.423	5.46
378.631	5.61
378.839	5.42
379.047	5.26
379.255	5.11
379.463	5.03
379.671	5.02
379.879	4.99
380.088	4.92
380.296	4.8
380.504	4.83
380.712	5.08
380.92	5.09
381.128	5.3
381.336	5.32
381.544	5.21
381.752	5.14
381.96	4.96
382.168	4.97
382.376	4.81
382.584	4.81
382.791	4.75
382.999	4.75
383.207	4.59
383.415	4.43
383.623	4.54
383.831	4.63
384.039	4.9
384.247	5.22
384.454	5.06
384.662	4.97
384.87	4.99
385.078	5.07
385.285	4.85
385.493	5.14
385.701	5.19
385.909	5.23
386.116	5.45
386.324	5.06
386.532	4.66
386.739	4.79
386.947	4.93
387.155	5.01
387.362	5.09
387.57	5.18
387.778	5.14
387.985	5.18
388.193	4.96
388.4	4.6
388.608	4.82
388.816	4.88
389.023	4.9
389.231	4.64
389.438	4.71
389.646	4.74
389.853	4.57
390.061	4.25
390.268	4.38
390.475	4.41
390.683	4.42
390.89	4.39
391.098	4.6
391.305	4.6
391.512	4.62
391.72	4.58
391.927	4.39
392.135	4.3
392.342	4.62
392.549	4.54
392.756	4.62
392.964	4.69
393.171	4.77
393.378	4.57
393.586	4.56
393.793	4.68
394	4.37
394.207	4.53
394.414	4.59
394.622	4.49
394.829	4.37
395.036	4.18
395.243	4.05
395.45	4.05
395.657	4.16
395.864	4.17
396.072	4.18
396.279	4.33
396.486	4.21
396.693	4.45
396.9	4.34
397.107	4.33
397.314	4.53
397.521	4.57
397.728	4.62
397.935	4.86
398.142	4.79
398.349	4.7
398.556	4.82
398.763	4.9
398.97	4.79
399.177	5.08
399.383	5.22
399.59	5.15
399.797	5.29
400.004	5.23
400.211	5.11
400.418	5.1
400.625	5.17
400.831	4.76
401.038	4.69
401.245	4.81
401.452	4.67
401.658	4.55
401.865	4.37
402.072	4.18
402.279	4.18
402.485	4.11
402.692	4.24
402.899	4.29
403.105	4.54
403.312	4.49
403.519	4.36
403.725	4.27
403.932	4.18
404.138	4.3
404.345	4.52
404.552	4.38
404.758	4.39
404.965	4.18
405.171	4.14
405.378	4.27
405.584	4.34
405.791	4.32
405.997	4.44
406.204	4.6
406.41	4.71
406.617	4.61
406.823	4.88
407.029	4.96
407.236	5.29
407.442	5.22
407.649	5.15
407.855	4.97
408.061	4.88
408.268	4.72
408.474	4.51
408.68	4.36
408.887	4.47
409.093	4.24
409.299	4.19
409.505	4.07
409.712	4.22
409.918	4.17
410.124	4.13
410.33	4.06
410.537	4.1
410.743	4.11
410.949	4.14
411.155	3.93
411.361	3.86
411.567	3.78
411.773	3.59
411.98	3.5
412.186	3.46
412.392	3.65
412.598	3.84
412.804	3.77
413.01	3.95
413.216	3.87
413.422	4.05
413.628	4.1
413.834	4.01
414.04	4
414.246	3.85
414.452	3.86
414.658	3.76
414.864	3.63
415.07	3.69
415.275	3.6
415.481	3.58
415.687	3.38
415.893	3.3
416.099	3.24
416.305	3.21
416.511	3.42
416.716	3.41
416.922	3.48
417.128	3.53
417.334	3.51
417.539	3.5
417.745	3.53
417.951	3.62
418.157	3.67
418.362	3.64
418.568	3.58
418.774	3.43
418.979	3.49
419.185	3.47
419.391	3.43
419.596	3.45
419.802	3.42
420.008	3.39
420.213	3.28
420.419	3.24
420.624	3.27
420.83	3.31
421.035	3.32
421.241	3.24
421.446	3.23
421.652	3.26
421.857	3.17
422.063	3.19
422.268	3.19
422.474	3.27
422.679	3.34
422.885	3.34
423.09	3.34
423.295	3.29
423.501	3.27
423.706	3.27
423.911	3.28
424.117	3.41
424.322	3.42
424.527	3.37
424.733	3.4
424.938	3.41
425.143	3.41
425.349	3.4
425.554	3.46
425.759	3.5
425.964	3.47
426.169	3.49
426.375	3.39
426.58	3.48
426.785	3.57
426.99	3.56
427.195	3.51
427.4	3.52
427.605	3.52
427.811	3.5
428.016	3.5
428.221	3.49
428.426	3.43
428.631	3.39
428.836	3.38
429.041	3.39
429.246	3.26
429.451	3.27
429.656	3.34
429.861	3.37
430.066	3.48
430.271	3.53
430.476	3.62
430.681	3.71
430.886	3.65
431.09	3.56
431.295	3.58
431.5	3.54
431.705	3.44
431.91	3.53
432.115	3.47
432.32	3.37
432.524	3.32
432.729	3.25
432.934	3.21
433.139	3.3
433.343	3.33
433.548	3.36
433.753	3.46
433.958	3.39
434.162	3.27
434.367	3.31
434.572	3.33
434.776	3.26
434.981	3.16
435.186	3
435.39	3.01
435.595	3.05
435.799	2.89
436.004	2.94
436.209	3
436.413	3.06
436.618	3.01
436.822	3.04
437.027	3.1
437.231	3.22
437.436	3.27
437.64	3.35
437.845	3.24
438.049	3.36
438.253	3.35
438.458	3.3
438.662	3.24
438.867	3.34
439.071	3.4
439.275	3.35
439.48	3.29
439.684	3.29
439.888	3.16
440.093	3.28
440.297	3.18
440.501	3.16
440.706	3.29
440.91	3.34
441.114	3.3
441.318	3.17
441.523	3.18
441.727	3.24
441.931	3.37
442.135	3.32
442.339	3.19
442.543	3.29
442.748	3.27
442.952	3.21
443.156	3.22
443.36	3.21
443.564	3.24
443.768	3.2
443.972	3.17
444.176	3.08
444.38	3.09
444.584	3.02
444.788	3.03
444.992	2.99
445.196	3.03
445.4	3.04
445.604	2.96
445.808	2.98
446.012	3.05
446.216	3.05
446.42	3.04
446.624	3.08
446.828	3.16
447.032	3.16
447.235	3.2
447.439	3.15
447.643	3.16
447.847	3.27
448.051	3.35
448.254	3.35
448.458	3.35
448.662	3.39
448.866	3.35
449.069	3.31
449.273	3.26
449.477	3.3
449.681	3.26
449.884	3.2
450.088	3.17
450.292	3.19
450.495	3.05
450.699	3.07
450.902	3.05
451.106	3.14
451.31	3.15
451.513	3.18
451.717	3.16
451.92	3.12
452.124	3.04
452.327	3.12
452.531	3.09
452.734	3.12
452.938	3.12
453.141	3.17
453.345	3.07
453.548	3.01
453.752	3.03
453.955	3.04
454.158	2.99
454.362	3.05
454.565	3.02
454.769	3.01
454.972	3.17
455.175	3.2
455.379	3.19
455.582	3.22
455.785	3.32
455.988	3.29
456.192	3.16
456.395	3.29
456.598	3.29
456.801	3.24
457.005	3.14
457.208	3.02
457.411	2.98
457.614	2.91
457.817	2.88
458.021	2.81
458.224	2.87
458.427	2.89
458.63	2.86
458.833	2.87
459.036	2.91
459.239	2.89
459.442	2.83
459.645	2.82
459.848	2.82
460.051	2.84
460.254	2.99
460.457	3.02
460.66	3.14
460.863	3.14
461.066	3.13
461.269	3.05
461.472	3.22
461.675	3.26
461.878	3.33
462.081	3.42
462.284	3.43
462.486	3.22
462.689	3.05
462.892	3.02
463.095	3.04
463.298	3.03
463.5	3.08
463.703	2.93
463.906	3.06
464.109	2.99
464.311	2.93
464.514	2.96
464.717	3.15
464.92	3.23
465.122	3.17
465.325	3.19
465.528	3.16
465.73	3.21
465.933	3.09
466.135	3.04
466.338	3.06
466.541	3.07
466.743	3.06
466.946	3.01
467.148	2.98
467.351	2.98
467.553	2.92
467.756	3.01
467.958	2.94
468.161	3.13
468.363	3.1
468.566	3.1
468.768	3.13
468.971	3.11
469.173	3.13
469.375	3.07
469.578	3.08
469.78	3.19
469.983	3.16
470.185	3.25
470.387	3.26
470.59	3.41
470.792	3.34
470.994	3.35
471.196	3.31
471.399	3.15
471.601	3.28
471.803	3.32
472.005	3.28
472.208	3.24
472.41	3.15
472.612	3.11
472.814	2.98
473.016	3.13
473.218	3.16
473.421	3.29
473.623	3.48
473.825	3.42
474.027	3.39
474.229	3.33
474.431	3.33
474.633	3.43
474.835	3.37
475.037	3.4
475.239	3.25
475.441	3.21
475.643	3.08
475.845	3.01
476.047	2.95
476.249	2.92
476.451	2.9
476.653	2.9
476.855	2.79
477.057	2.84
477.258	2.77
477.46	2.72
477.662	2.67
477.864	2.7
478.066	2.68
478.268	2.7
478.469	2.76
478.671	2.76
478.873	2.83
479.075	2.83
479.276	2.8
479.478	2.87
479.68	3.06
479.882	3.09
480.083	3.02
480.285	3.07
480.487	3.02
480.688	2.97
480.89	2.96
481.091	2.88
481.293	2.89
481.495	2.9
481.696	2.91
481.898	2.84
482.099	2.84
482.301	2.87
482.502	2.84
482.704	2.85
482.905	2.84
483.107	2.86
483.308	2.87
483.51	2.88
483.711	2.87
483.913	2.83
484.114	2.87
484.315	2.86
484.517	2.85
484.718	2.87
484.92	2.88
485.121	2.88
485.322	2.86
485.524	2.85
485.725	2.86
485.926	2.84
486.127	2.9
486.329	2.88
486.53	2.88
486.731	2.85
486.932	2.86
487.134	2.86
487.335	2.87
487.536	2.91
487.737	2.96
487.938	2.94
488.139	2.93
488.341	2.87
488.542	2.86
488.743	2.88
488.944	2.92
489.145	2.91
489.346	2.94
489.547	2.96
489.748	2.91
489.949	2.89
490.15	2.91
490.351	2.96
490.552	3
490.753	3.02
490.954	3.02
491.155	3
491.356	2.97
491.557	2.97
491.758	2.99
491.959	3.05
492.159	3.05
492.36	3.02
492.561	3.02
492.762	3
492.963	3.03
493.164	3.05
493.364	3.14
493.565	3.13
493.766	3.15
493.967	3.12
494.167	3.08
494.368	3
494.569	3.08
494.769	3.05
494.97	3.09
495.171	3.07
495.371	3.12
495.572	3.08
495.773	3.13
495.973	3.08
496.174	3.12
496.375	3.16
496.575	3.23
496.776	3.22
496.976	3.28
497.177	3.29
497.377	3.27
497.578	3.26
497.778	3.22
497.979	3.25
498.179	3.25
498.38	3.15
498.58	3.09
498.78	3.09
498.981	3.11
499.181	3.03
499.382	3.03
499.582	2.98
499.782	3.02
499.983	3.11
500.183	3.13
500.383	3.18
500.584	3.21
500.784	3.21
500.984	3.27
501.184	3.15
501.385	3.16
501.585	3.16
501.785	3.22
501.985	3.16
502.185	3.13
502.386	3.11
502.586	3.08
502.786	3.18
502.986	3.19
503.186	3.18
503.386	3.2
503.586	3.22
503.786	3.16
503.987	3.23
504.187	3.23
504.387	3.28
504.587	3.31
504.787	3.33
504.987	3.28
505.187	3.31
505.387	3.35
505.587	3.48
505.786	3.51
505.986	3.55
506.186	3.5
506.386	3.55
506.586	3.55
506.786	3.54
506.986	3.6
507.186	3.61
507.386	3.7
507.585	3.72
507.785	3.74
507.985	3.71
508.185	3.78
508.384	3.82
508.584	3.84
508.784	3.8
508.984	3.8
509.183	3.8
509.383	3.8
509.583	3.8
509.782	3.8
509.982	3.71
510.182	3.73
510.381	3.75
510.581	3.69
510.781	3.72
510.98	3.75
511.18	3.8
511.379	3.76
511.579	3.75
511.778	3.69
511.978	3.57
512.177	3.66
512.377	3.71
512.576	3.66
512.776	3.67
512.975	3.68
513.175	3.7
513.374	3.62
513.573	3.68
513.773	3.74
513.972	3.8
514.172	3.9
514.371	3.93
514.57	3.96
514.77	3.98
514.969	4.03
515.168	4
515.367	4.07
515.567	4.2
515.766	4.19
515.965	4.21
516.164	4.21
516.364	4.22
516.563	4.2
516.762	4.16
516.961	4.21
517.16	4.19
517.359	4.2
517.559	4.18
517.758	4.18
517.957	4.19
518.156	4.23
518.355	4.25
518.554	4.23
518.753	4.21
518.952	4.22
519.151	4.17
519.35	4.26
519.549	4.25
519.748	4.25
519.947	4.18
520.146	4.17
520.345	4.12
520.544	4.06
520.743	4.1
520.942	4.15
521.141	4.16
521.339	4.27
521.538	4.31
521.737	4.27
521.936	4.33
522.135	4.35
522.333	4.32
522.532	4.34
522.731	4.37
522.93	4.4
523.129	4.35
523.327	4.31
523.526	4.3
523.725	4.29
523.923	4.32
524.122	4.35
524.321	4.37
524.519	4.42
524.718	4.43
524.917	4.5
525.115	4.49
525.314	4.52
525.512	4.53
525.711	4.57
525.909	4.59
526.108	4.65
526.306	4.62
526.505	4.61
526.703	4.64
526.902	4.64
527.1	4.63
527.299	4.61
527.497	4.6
527.696	4.64
527.894	4.6
528.092	4.6
528.291	4.59
528.489	4.61
528.688	4.62
528.886	4.62
529.084	4.6
529.283	4.6
529.481	4.66
529.679	4.74
529.877	4.77
530.076	4.79
530.274	4.81
530.472	4.83
530.67	4.89
530.869	4.93
531.067	4.9
531.265	4.96
531.463	5.04
531.661	5.03
531.859	5.04
532.057	5.07
532.255	5.11
532.454	5.1
532.652	5.14
532.85	5.12
533.048	5.17
533.246	5.2
533.444	5.24
533.642	5.23
533.84	5.29
534.038	5.28
534.236	5.32
534.434	5.38
534.632	5.39
534.83	5.44
535.027	5.51
535.225	5.46
535.423	5.53
535.621	5.56
535.819	5.61
536.017	5.54
536.215	5.6
536.412	5.62
536.61	5.62
536.808	5.65
537.006	5.64
537.203	5.63
537.401	5.68
537.599	5.76
537.797	5.84
537.994	5.79
538.192	5.93
538.39	5.98
538.587	5.98
538.785	6.05
538.983	6.07
539.18	6.03
539.378	6.04
539.575	6.09
539.773	6.08
539.97	6.03
540.168	6.06
540.366	6.06
540.563	6.05
540.761	6.07
540.958	6.11
541.155	6.11
541.353	6.12
541.55	6.13
541.748	6.13
541.945	6.16
542.143	6.22
542.34	6.25
542.537	6.27
542.735	6.28
542.932	6.32
543.129	6.24
543.327	6.32
543.524	6.46
543.721	6.59
543.919	6.66
544.116	6.66
544.313	6.71
544.51	6.76
544.708	6.79
544.905	6.83
545.102	6.88
545.299	6.94
545.496	7.01
545.693	7.02
545.891	6.99
546.088	6.95
546.285	7.03
546.482	7.1
546.679	7.13
546.876	7.15
547.073	7.16
547.27	7.1
547.467	7.18
547.664	7.22
547.861	7.24
548.058	7.33
548.255	7.45
548.452	7.44
548.649	7.53
548.846	7.5
549.043	7.57
549.24	7.71
549.437	7.86
549.633	7.96
549.83	7.95
550.027	7.99
550.224	8.09
550.421	8.16
550.618	8.2
550.814	8.27
551.011	8.37
551.208	8.4
551.405	8.4
551.601	8.5
551.798	8.47
551.995	8.49
552.191	8.58
552.388	8.41
552.585	8.44
552.781	8.55
552.978	8.52
553.175	8.58
553.371	8.63
553.568	8.64
553.764	8.64
553.961	8.71
554.157	8.82
554.354	8.85
554.55	9.12
554.747	9.1
554.943	9.06
555.14	9.09
555.336	9.05
555.533	9.14
555.729	9.28
555.926	9.28
556.122	9.34
556.318	9.36
556.515	9.29
556.711	9.23
556.907	9.34
557.104	9.43
557.3	9.47
557.496	9.57
557.693	9.66
557.889	9.63
558.085	9.68
558.281	9.76
558.478	9.77
558.674	9.88
558.87	10
559.066	10.04
559.262	10.11
559.459	10.06
559.655	10.21
559.851	10.25
560.047	10.32
560.243	10.44
560.439	10.46
560.635	10.57
560.831	10.7
561.027	10.71
561.223	10.8
561.419	10.82
561.615	11.03
561.811	11.17
562.007	11.25
562.203	11.38
562.399	11.38
562.595	11.44
562.791	11.57
562.987	11.61
563.183	11.8
563.379	11.81
563.575	11.89
563.771	11.93
563.966	11.97
564.162	12.05
564.358	12.14
564.554	12.22
564.75	12.37
564.945	12.45
565.141	12.47
565.337	12.44
565.533	12.64
565.728	12.7
565.924	12.67
566.12	12.69
566.315	12.79
566.511	12.74
566.707	12.86
566.902	12.84
567.098	12.74
567.293	12.96
567.489	13.07
567.684	13.02
567.88	13.13
568.076	13.28
568.271	13.33
568.467	13.35
568.662	13.52
568.858	13.51
569.053	13.65
569.248	13.87
569.444	13.83
569.639	13.89
569.835	14
570.03	14.18
570.225	14.22
570.421	14.31
570.616	14.41
570.812	14.48
571.007	14.56
571.202	14.62
571.397	14.65
571.593	14.71
571.788	14.75
571.983	14.76
572.178	14.76
572.374	14.89
572.569	14.93
572.764	14.95
572.959	15.01
573.154	15.15
573.35	15.26
573.545	15.42
573.74	15.53
573.935	15.57
574.13	15.7
574.325	15.74
574.52	15.8
574.715	15.8
574.91	15.91
575.105	15.95
575.3	15.94
575.495	15.96
575.69	15.89
575.885	15.96
576.08	15.97
576.275	16.05
576.47	16.08
576.665	16.2
576.86	16.24
577.055	16.26
577.25	16.49
577.444	16.62
577.639	16.65
577.834	16.76
578.029	16.76
578.224	16.91
578.418	16.9
578.613	17.03
578.808	17.06
579.003	17.28
579.197	17.33
579.392	17.25
579.587	17.34
579.781	17.53
579.976	17.67
580.171	17.69
580.365	17.78
580.56	17.9
580.755	17.94
580.949	17.92
581.144	17.91
581.338	17.89
581.533	17.98
581.727	18.18
581.922	18.2
582.116	18.1
582.311	18.21
582.505	18.31
582.7	18.41
582.894	18.46
583.089	18.51
583.283	18.65
583.478	18.84
583.672	18.8
583.866	18.8
584.061	18.79
584.255	18.86
584.449	18.93
584.644	19.1
584.838	19
585.032	18.99
585.226	19.14
585.421	19.21
585.615	19.22
585.809	19.41
586.003	19.34
586.198	19.39
586.392	19.55
586.586	19.69
586.78	19.65
586.974	19.78
587.168	19.86
587.363	19.94
587.557	19.9
587.751	19.98
587.945	19.93
588.139	20.01
588.333	20.16
588.527	20.19
588.721	20.29
588.915	20.23
589.109	20.23
589.303	20.23
589.497	20.26
589.691	20.35
589.885	20.36
590.079	20.37
590.273	20.53
590.466	20.57
590.66	20.61
590.854	20.6
591.048	20.68
591.242	20.9
591.436	20.95
591.629	20.95
591.823	21.04
592.017	21.2
592.211	21.37
592.404	21.28
592.598	21.26
592.792	21.26
592.986	21.35
593.179	21.5
593.373	21.5
593.567	21.63
593.76	21.68
593.954	21.83
594.147	21.87
594.341	21.86
594.535	22
594.728	22.06
594.922	22.09
595.115	22.12
595.309	22.07
595.502	22.15
595.696	22.23
595.889	22.19
596.083	22.19
596.276	22.11
596.47	22.2
596.663	22.16
596.856	22.2
597.05	22.23
597.243	22.24
597.437	22.28
597.63	22.29
597.823	22.19
598.017	22.35
598.21	22.29
598.403	22.39
598.596	22.4
598.79	22.59
598.983	22.61
599.176	22.79
599.369	22.87
599.563	22.98
599.756	22.94
599.949	23.04
600.142	23.06
600.335	23.15
600.528	23.17
600.722	23.19
600.915	23.1
601.108	23.28
601.301	23.29
601.494	23.21
601.687	23.28
601.88	23.25
602.073	23.36
602.266	23.34
602.459	23.33
602.652	23.34
602.845	23.36
603.038	23.3
603.231	23.27
603.424	23.29
603.617	23.35
603.809	23.31
604.002	23.39
604.195	23.4
604.388	23.42
604.581	23.54
604.774	23.65
604.966	23.72
605.159	23.82
605.352	23.82
605.545	23.76
605.737	23.91
605.93	23.99
606.123	24.03
606.316	24.05
606.508	24.18
606.701	24.27
606.894	24.22
607.086	24.23
607.279	24.32
607.471	24.25
607.664	24.43
607.857	24.47
608.049	24.58
608.242	24.61
608.434	24.61
608.627	24.65
608.819	24.7
609.012	24.86
609.204	24.9
609.397	24.89
609.589	24.92
609.782	24.98
609.974	24.98
610.166	25.03
610.359	25.07
610.551	25.2
610.743	25.35
610.936	25.26
611.128	25.19
611.32	25.34
611.513	25.28
611.705	25.44
611.897	25.37
612.09	25.49
612.282	25.47
612.474	25.47
612.666	25.48
612.858	25.47
613.051	25.73
613.243	25.65
613.435	25.47
613.627	25.53
613.819	25.54
614.011	25.57
614.203	25.42
614.395	25.39
614.588	25.51
614.78	25.52
614.972	25.4
615.164	25.16
615.356	25.42
615.548	25.44
615.74	25.59
615.932	25.81
616.124	25.71
616.315	25.88
616.507	25.99
616.699	25.85
616.891	25.8
617.083	25.88
617.275	25.98
617.467	26.02
617.659	26.06
617.85	26.11
618.042	26.18
618.234	26.33
618.426	26.27
618.618	26.33
618.809	26.53
619.001	26.58
619.193	26.69
619.384	26.61
619.576	26.63
619.768	26.63
619.959	26.58
620.151	26.54
620.343	26.61
620.534	26.73
620.726	26.54
620.917	26.6
621.109	26.7
621.301	26.61
621.492	26.84
621.684	26.84
621.875	26.81
622.067	26.85
622.258	26.71
622.45	26.66
622.641	26.5
622.832	26.69
623.024	26.57
623.215	26.52
623.407	26.51
623.598	26.51
623.789	26.67
623.981	26.82
624.172	26.85
624.363	26.92
624.555	27.2
624.746	27.27
624.937	27.16
625.129	27.25
625.32	27.31
625.511	27.48
625.702	27.31
625.893	27.15
626.085	27.21
626.276	27.28
626.467	27.27
626.658	27.13
626.849	27.13
627.04	27.35
627.231	27.47
627.422	27.54
627.614	27.48
627.805	27.61
627.996	27.9
628.187	27.99
628.378	27.99
628.569	28.16
628.76	28.19
628.951	28.26
629.142	28.12
629.332	27.99
629.523	27.9
629.714	27.91
629.905	27.87
630.096	27.61
630.287	27.62
630.478	27.58
630.669	27.59
630.859	27.58
631.05	27.64
631.241	27.69
631.432	27.79
631.623	27.93
631.813	27.8
632.004	27.93
632.195	27.99
632.385	27.87
632.576	28.06
632.767	28.11
632.957	28.13
633.148	28.12
633.339	28.2
633.529	28.21
633.72	28.23
633.91	28.49
634.101	28.39
634.292	28.46
634.482	28.63
634.673	28.52
634.863	28.42
635.054	28.49
635.244	28.52
635.435	28.53
635.625	28.39
635.815	28.49
636.006	28.37
636.196	28.43
636.387	28.3
636.577	28.26
636.767	28.27
636.958	28.08
637.148	28.06
637.338	28.11
637.529	28.1
637.719	28.24
637.909	28.33
638.099	28.31
638.29	28.69
638.48	28.86
638.67	28.85
638.86	28.92
639.05	29.14
639.241	29.08
639.431	28.99
639.621	29.3
639.811	29.3
640.001	28.97
640.191	29.11
640.381	28.87
640.571	28.8
640.761	28.74
640.951	28.65
641.141	28.72
641.331	28.95
641.521	28.92
641.711	28.78
641.901	28.91
642.091	29.09
642.281	28.9
642.471	28.77
642.661	28.68
642.851	29.03
643.041	29.34
643.231	29.3
643.42	29.23
643.61	29.31
643.8	29.26
643.99	29.19
644.18	29.38
644.369	29.58
644.559	29.77
644.749	30.09
644.939	30.08
645.128	29.93
645.318	29.94
645.508	29.96
645.697	30.17
645.887	30.24
646.076	30.29
646.266	30.23
646.456	30.31
646.645	30.41
646.835	30.45
647.024	30.42
647.214	30.66
647.403	30.74
647.593	30.64
647.782	30.56
647.972	30.44
648.161	30.46
648.351	30.47
648.54	30.28
648.73	30.17
648.919	30.17
649.108	30.03
649.298	30.11
649.487	30.1
649.677	30.41
649.866	30.54
650.055	30.75
650.244	30.83
650.434	30.77
650.623	30.95
650.812	30.91
651.002	30.98
651.191	31.15
651.38	30.9
651.569	31.02
651.758	30.84
651.947	30.87
652.137	30.79
652.326	31.08
652.515	31.05
652.704	31.19
652.893	31.43
653.082	31.46
653.271	31.53
653.46	31.6
653.649	31.63
653.838	31.89
654.027	31.83
654.216	31.87
654.405	31.56
654.594	31.82
654.783	31.79
654.972	31.78
655.161	31.85
655.35	31.8
655.539	31.78
655.728	31.8
655.916	31.84
656.105	31.88
656.294	32.05
656.483	32.1
656.672	32.17
656.86	32.13
657.049	32.15
657.238	32.24
657.427	32.21
657.615	32.29
657.804	32.33
657.993	32.34
658.181	32.44
658.37	32.39
658.559	32.54
658.747	32.46
658.936	32.52
659.125	32.19
659.313	32.09
659.502	32.04
659.69	32.06
659.879	32.07
660.067	31.8
660.256	31.85
660.444	32
660.633	31.85
660.821	31.74
661.01	31.73
661.198	32.28
661.387	32.4
661.575	32.47
661.763	32.47
661.952	32.42
662.14	32.63
662.328	32.33
662.517	32.19
662.705	32.34
662.893	32.61
663.082	32.81
663.27	32.65
663.458	32.69
663.646	32.59
663.834	32.65
664.023	32.71
664.211	32.64
664.399	32.79
664.587	32.79
664.775	32.72
664.963	32.62
665.152	32.43
665.34	32.46
665.528	32.37
665.716	32.61
665.904	32.76
666.092	32.86
666.28	32.84
666.468	33.1
666.656	33.35
666.844	33.45
667.032	33.75
667.22	33.95
667.408	33.89
667.596	34.04
667.784	33.94
667.971	34.04
668.159	34.23
668.347	34.29
668.535	34.19
668.723	34.06
668.911	34.07
669.098	33.72
669.286	33.53
669.474	33.85
669.662	33.9
669.849	34.23
670.037	34.21
670.225	33.88
670.413	34.18
670.6	34.32
670.788	34.33
670.976	34.31
671.163	34.53
671.351	34.65
671.538	34.42
671.726	34.34
671.913	34.01
672.101	34.05
672.289	34.21
672.476	33.8
672.664	33.87
672.851	33.69
673.039	33.79
673.226	33.66
673.413	33.63
673.601	33.76
673.788	33.65
673.976	33.87
674.163	33.95
674.35	33.78
674.538	33.97
674.725	33.43
674.912	33.87
675.1	34.07
675.287	34.31
675.474	34.18
675.662	34.15
675.849	34.31
676.036	34.33
676.223	34.42
676.411	34.62
676.598	34.75
676.785	35.32
676.972	35.25
677.159	35.17
677.346	35.15
677.533	35.58
677.721	35.4
677.908	35.65
678.095	35.7
678.282	35.44
678.469	35.64
678.656	35.79
678.843	35.65
679.03	35.66
679.217	35.64
679.404	35.69
679.591	35.51
679.778	35.68
679.964	35.46
680.151	35.37
680.338	35.32
680.525	35.47
680.712	35.26
680.899	35.42
681.086	35.29
681.272	35.11
681.459	34.95
681.646	34.95
681.833	35.13
682.02	35.16
682.206	35.16
682.393	35.13
682.58	34.81
682.766	34.83
682.953	34.51
683.14	34.73
683.326	35.39
683.513	35.6
683.7	35.9
683.886	35.8
684.073	35.67
684.259	35.82
684.446	36.15
684.632	36.22
684.819	36.62
685.005	36.67
685.192	36.55
685.378	36.07
685.565	36.03
685.751	35.88
685.938	36.06
686.124	36.33
686.31	36.6
686.497	36.67
686.683	36.83
686.87	36.31
687.056	36.51
687.242	36.48
687.429	36.54
687.615	36.66
687.801	36.51
687.987	36.48
688.174	36.22
688.36	36.21
688.546	36.13
688.732	35.97
688.918	36.2
689.105	36.25
689.291	36.37
689.477	36.39
689.663	36.27
689.849	36.46
690.035	36.51
690.221	36.43
690.407	36.27
690.593	36.28
690.779	36.49
690.965	36.37
691.151	36.4
691.337	36.14
691.523	36.27
691.709	36.29
691.895	36.2
692.081	36.08
692.267	36.52
692.453	36.6
692.639	36.49
692.825	36.22
693.011	36.51
693.196	36.17
693.382	36.42
693.568	36.03
693.754	36.2
693.94	36.46
694.125	36.41
694.311	36.39
694.497	36.27
694.682	36.18
694.868	36.51
695.054	36.35
695.239	36.6
695.425	36.39
695.611	36.85
695.796	36.71
695.982	36.59
696.168	36.73
696.353	36.73
696.539	36.78
696.724	37.02
696.91	36.87
697.095	37.02
697.281	36.94
697.466	37.19
697.652	37.09
697.837	37.37
698.023	37.38
698.208	37.3
698.393	37.35
698.579	37.15
698.764	37.15
698.949	37.18
699.135	37.11
699.32	37.35
699.505	37.2
699.691	37.08
699.876	36.77
700.061	36.71
700.246	36.65
700.432	36.41
700.617	36.49
700.802	36.12
700.987	36.24
701.172	36.6
701.358	36.56
701.543	36.58
701.728	36.25
701.913	36.03
702.098	36.12
702.283	36.44
702.468	36.68
702.653	36.92
702.838	37.37
703.023	37.28
703.208	36.97
703.393	37.03
703.578	37.29
703.763	37.86
703.948	38.38
704.133	38.18
704.318	37.92
704.503	38.29
704.688	38.54
704.873	38.04
705.057	37.98
705.242	37.85
705.427	37.2
705.612	37.15
705.797	36.99
705.981	36.9
706.166	37.06
706.351	37.44
706.536	37.11
706.72	36.76
706.905	37.12
707.09	37.45
707.274	37.66
707.459	38.11
707.644	38.44
707.828	38.52
708.013	38.22
708.197	38.37
708.382	38.27
708.567	38.03
708.751	37.92
708.936	38.19
709.12	37.99
709.305	37.58
709.489	37.67
709.673	37.16
709.858	37.41
710.042	37.51
710.227	37.44
710.411	37.4
710.596	37.6
710.78	37.56
710.964	37.32
711.149	37.24
711.333	37.69
711.517	37.39
711.702	37.64
711.886	37.16
712.07	37.46
712.254	37.51
712.438	37.48
712.623	37.35
712.807	37.51
712.991	37.72
713.175	38.07
713.359	37.89
713.544	38.24
713.728	38.36
713.912	38.74
714.096	38.73
714.28	38.44
714.464	38.16
714.648	38.3
714.832	38.39
715.016	38.17
715.2	37.81
715.384	38.04
715.568	38
715.752	37.62
715.936	37.61
716.12	37.47
716.304	37.89
716.488	38.14
716.671	38.16
716.855	38.46
717.039	38.36
717.223	38.41
717.407	38.11
717.59	37.99
717.774	38.44
717.958	38.51
718.142	38.49
718.325	38.24
718.509	38.27
718.693	38.37
718.877	38.18
719.06	38.65
719.244	39.18
719.428	39.09
719.611	39.41
719.795	39.23
719.978	39.11
720.162	38.95
720.345	39.54
720.529	39.53
720.713	39.2
720.896	39.51
721.08	39.04
721.263	39.02
721.446	39.41
721.63	39.53
721.813	39.69
721.997	39.67
722.18	39.94
722.364	39.34
722.547	39.53
722.73	39.91
722.914	39.63
723.097	39.6
723.28	39.24
723.464	39.17
723.647	39.13
723.83	39.12
724.013	39.2
724.197	39.14
724.38	39.3
724.563	39.3
724.746	38.81
724.929	38.81
725.112	38.83
725.296	38.72
725.479	38.81
725.662	38.89
725.845	38.92
726.028	38.95
726.211	39.31
726.394	39.51
726.577	39.13
726.76	39.36
726.943	39.53
727.126	39.55
727.309	40.25
727.492	40.48
727.675	40.16
727.858	39.83
728.041	40.04
728.224	39.71
728.407	39.54
728.589	40.04
728.772	39.89
728.955	39.94
729.138	40.01
729.321	39.35
729.503	39.32
729.686	39.48
729.869	39.54
730.052	39.41
730.234	39.4
730.417	39.05
730.6	38.73
730.782	38.87
730.965	38.3
731.148	38.74
731.33	38.92
731.513	38.54
731.695	38.53
731.878	38.77
732.061	38.7
732.243	38.84
732.426	39.41
732.608	39.61
732.791	39.69
732.973	39.83
733.156	39.44
733.338	39.28
733.52	39.26
733.703	39.17
733.885	38.69
734.068	38.46
734.25	38.54
734.432	38.2
734.615	38.28
734.797	38.33
734.979	38.56
735.162	38.88
735.344	38.56
735.526	38.82
735.708	38.54
735.891	39.18
736.073	39.75
736.255	39.29
736.437	39.51
736.619	39.38
736.802	39.2
736.984	38.99
737.166	38.88
737.348	38.84
737.53	39.2
737.712	39.73
737.894	39.49
738.076	39.5
738.258	39.82
738.44	39.47
738.622	39.63
738.804	40.16
738.986	40.28
739.168	40.59
739.35	41.02
739.532	40.7
739.714	40.5
739.896	40.34
740.078	39.4
740.259	40.02
740.441	40.72
740.623	40.48
740.805	40.42
740.987	40.16
741.168	39.6
741.35	39.64
741.532	39.62
741.714	39.42
741.895	39.35
742.077	39.95
742.259	39.31
742.44	38.71
742.622	38.78
742.804	38.96
742.985	39.43
743.167	38.96
743.348	38.81
743.53	39.22
743.711	39.49
743.893	39.23
744.075	39.1
744.256	39.12
744.438	39.42
744.619	39.41
744.8	38.69
744.982	38.14
745.163	38.71
745.345	38.72
745.526	38.29
745.707	39.1
745.889	39.77
746.07	39.87
746.252	39.79
746.433	39.51
746.614	39.55
746.795	40.14
746.977	40.76
747.158	40.99
747.339	40.79
747.52	40.89
747.702	40.22
747.883	39.92
748.064	40.24
748.245	40.53
748.426	40.94
748.607	41.79
748.788	41.77
748.97	42.05
749.151	42.1
749.332	42.8
749.513	43.24
749.694	42.74
749.875	43.14
750.056	42.57
750.237	42.18
750.418	41.57
750.599	40.42
750.78	39.53
750.96	39.3
751.141	39.63
751.322	39.26
751.503	38.73
751.684	39.12
751.865	38.61
752.046	39.48
752.226	40.2
752.407	40.38
752.588	40.36
752.769	40.77
752.949	40.95
753.13	40.96
753.311	41.23
753.492	41.55
753.672	41.69
753.853	42.24
754.034	41.71
754.214	41.66
754.395	41.39
754.575	42.28
754.756	42.59
754.937	41.84
755.117	41.73
755.298	41.3
755.478	40.35
755.659	40.56
755.839	40.7
756.02	40.93
756.2	40.43
756.381	41.16
756.561	40.98
756.741	41.23
756.922	41.83
757.102	41.33
757.283	41.82
757.463	41.82
757.643	41.24
757.823	40.78
758.004	40.96
758.184	40.33
758.364	39.96
758.545	39.87
758.725	39.04
758.905	38.68
759.085	38.76
759.265	38.23
759.446	38.61
759.626	39.03
759.806	39.96
759.986	39.34
760.166	39.74
760.346	39.85
760.526	40.07
760.706	40.76
760.886	41.34
761.066	41.57
761.246	41.64
761.426	41.42
761.606	41.12
761.786	40.62
761.966	40.95
762.146	41.3
762.326	40.9
762.506	40.81
762.686	40.39
762.866	40.52
763.046	40.53
763.225	40.65
763.405	41.03
763.585	41.29
763.765	41.08
763.945	40.77
764.124	40.73
764.304	41.11
764.484	40.79
764.664	40.8
764.843	40.45
765.023	40.36
765.203	40.52
765.382	40.38
765.562	40.14
765.741	40.29
765.921	40.91
766.101	40.67
766.28	41.14
766.46	41.13
766.639	41.46
766.819	41.39
766.998	41.57
767.178	41.29
767.357	41.61
767.537	41.52
767.716	41.48
767.896	41.06
768.075	41.14
768.254	40.53
768.434	40.61
768.613	40.96
768.792	40.66
768.972	40.94
769.151	40.33
769.33	40.2
769.51	40.68
769.689	41.31
769.868	41.74
770.047	42.4
770.226	42.36
770.406	42.27
770.585	41.75
770.764	42.6
770.943	42.07
771.122	43.12
771.301	43.12
771.48	42.81
771.66	41.92
771.839	41.99
772.018	41.43
772.197	40.58
772.376	41.11
772.555	41.62
772.734	41.21
772.913	41.03
773.092	40.84
773.271	40.26
773.449	39.75
773.628	40.1
773.807	39.94
773.986	40.17
774.165	41.59
774.344	41.79
774.523	41.75
774.701	41.94
774.88	42.2
775.059	41.79
775.238	41.87
775.417	42.18
775.595	42.37
775.774	42.71
775.953	42.87
776.131	42.67
776.31	42.18
776.489	42.12
776.667	41.52
776.846	41.51
777.025	41.29
777.203	42.75
777.382	43.82
777.56	43.65
777.739	42.73
777.917	42.36
778.096	41.67
778.274	41.79
778.453	41.4
778.631	42.21
778.81	41.15
778.988	41.44
779.166	40.57
779.345	39.67
779.523	39.72
779.702	40.24
779.88	40.01
780.058	40.38
780.237	40.82
780.415	41.08
780.593	40.55
780.771	41.41
780.95	41.88
781.128	41.25
781.306	40.47
781.484	40.86
781.662	40.18
781.841	38.83
782.019	39.28
782.197	38.79
782.375	38.22
782.553	38.66
782.731	38.77
782.909	38.62
783.087	39.16
783.265	40.08
783.443	40.5
783.621	40.67
783.799	42.32
783.977	43.13
784.155	43.38
784.333	44.04
784.511	43.52
784.689	43.23
784.867	43.9
785.045	43.52
785.223	43.22
785.4	42.66
785.578	43.32
785.756	42.48
785.934	41.36
786.112	41.58
786.289	40.94
786.467	41.79
786.645	42.31
786.823	40.82
787	40.47
787.178	40.66
787.356	40.67
787.533	40.55
787.711	41.29
787.889	41.46
788.066	41.11
788.244	41.57
788.421	41.27
788.599	41.49
788.776	42.2
788.954	42.57
789.131	41.98
789.309	41.78
789.486	41.15
789.664	41.16
789.841	40.91
790.019	41.2
790.196	40.38
790.373	40.14
790.551	40.18
790.728	39.56
790.906	40.2
791.083	40.23
791.26	39.8
791.437	40.73
791.615	40.55
791.792	41.07
791.969	40.59
792.146	41.51
792.324	40.58
792.501	40.06
792.678	41.57
792.855	41.77
793.032	42.11
793.209	43.43
793.387	43.17
793.564	43.2
793.741	42.43
793.918	42.41
794.095	42.14
794.272	42.79
794.449	43.49
794.626	42.77
794.803	42.18
794.98	42.59
795.157	41.56
795.334	41.68
795.511	41.68
795.688	42.04
795.864	42.05
796.041	41.9
796.218	42.37
796.395	41.62
796.572	42.53
796.749	43.2
796.925	42.64
797.102	42.9
797.279	42.65
797.456	43.3
797.632	42.99
797.809	43.31
797.986	43.86
798.162	44.03
798.339	44.15
798.516	43.08
798.692	41.82
798.869	42.7
799.046	43.17
799.222	43.13
799.399	42.28
799.575	42.36
799.752	42.07
799.928	41.68
800.105	41.38
800.281	41.46
800.458	41.54
800.634	42.43
800.811	41.68
800.987	41.43
801.163	42.21
801.34	42
801.516	41.77
801.692	40.74
801.869	40.41
802.045	40.73
802.221	40.82
802.398	40.81
802.574	40.52
802.75	40.14
802.926	39.13
803.103	38.08
803.279	38.55
803.455	38.94
803.631	39.61
803.807	40.5
803.983	39.4
804.16	39.07
804.336	39.51
804.512	40.49
804.688	41.8
804.864	42.56
805.04	41.84
805.216	42.14
805.392	42.11
805.568	43.02
805.744	42.75
805.92	43.14
806.096	43.13
806.272	42.51
806.448	41.41
806.623	40.65
806.799	41.11
806.975	42.67
807.151	43.08
807.327	43.23
807.503	42.47
807.678	43.21
807.854	44.21
808.03	44.47
808.206	44.72
808.381	44.8
808.557	45.24
808.733	45.17
808.908	45.19
809.084	44.85
809.26	44.35
809.435	42.53
809.611	41.37
809.787	40.36
809.962	40.8
810.138	41.18
810.313	41.14
810.489	40.51
810.664	39.26
810.84	37.94
811.015	37.09
811.191	37.65
811.366	38.72
811.542	39.5
811.717	39.29
811.892	38.98
812.068	39.58
812.243	40.28
812.419	41.68
812.594	41.14
812.769	42.11
812.944	41.58
813.12	41.57
813.295	42.44
813.47	41.78
813.645	43.1
813.821	43.7
813.996	44.25
814.171	44.58
814.346	44.41
814.521	45.52
814.697	45.71
814.872	45.86
815.047	46.21
815.222	47.28
815.397	47.24
815.572	47.32
815.747	46.24
815.922	45.43
816.097	44.82
816.272	44.72
816.447	45.09
816.622	44.91
816.797	46.81
816.972	46.8
817.147	46.11
817.322	46.28
817.496	45.33
817.671	45.62
817.846	45.85
818.021	46.18
818.196	46.17
818.371	45.69
818.545	46.26
818.72	45.16
818.895	44.21
819.069	44.05
819.244	44.31
819.419	44.86
819.594	44.64
819.768	43.89
819.943	44.37
820.117	44.56
820.292	44.27
820.467	44
820.641	43.78
820.816	43.95
820.99	44.05
821.165	43.86
821.339	43.87
821.514	44.24
821.688	44.23
821.863	43.91
822.037	43.48
822.212	43.51
822.386	43.18
822.56	43
822.735	42.98
822.909	42.88
823.084	42.76
823.258	42.55
823.432	42.11
823.606	42.02
823.781	42.15
823.955	42.57
824.129	42.68
824.303	43.03
824.478	43.42
824.652	43.54
824.826	43.87
825	43.89
825.174	43.9
825.348	43.84
825.523	43.64
825.697	43.37
825.871	42.88
826.045	42.88
826.219	43.05
826.393	42.84
826.567	42.78
826.741	42.51
826.915	42.67
827.089	42.92
827.263	43.03
827.437	43.29
827.611	43.23
827.784	43.21
827.958	43.04
828.132	42.41
828.306	42.95
828.48	42.51
828.654	42.34
828.827	41.83
829.001	41.37
829.175	41.81
829.349	41.96
829.522	42.27
829.696	41.83
829.87	42.67
830.044	42.98
830.217	42.49
830.391	42.54
830.565	42.5
830.738	43.85
830.912	44.4
831.085	43.9
831.259	44.09
831.432	42.94
831.606	44.24
831.779	42.65
831.953	43.16
832.126	43.25
832.3	43.57
832.473	43.79
832.647	42.62
832.82	42.26
832.994	41.73
833.167	41.5
833.34	41.41
833.514	41.21
833.687	41.21
833.86	41.46
834.034	41.03
834.207	41.3
834.38	40.96
834.553	41.25
834.727	40.66
834.9	41.08
835.073	41.35
835.246	41.99
835.419	41.7
835.593	43.12
835.766	42.78
835.939	43.32
836.112	43.25
836.285	43.12
836.458	43.51
836.631	44.18
836.804	44.16
836.977	44.89
837.15	44.97
837.323	45.06
837.496	43.63
837.669	41.73
837.842	42.7
838.015	43.33
838.188	42.39
838.361	42.16
838.533	43.79
838.706	43.17
838.879	39.61
839.052	38.92
839.225	39.38
839.398	39.72
839.57	41.7
839.743	41.8
839.916	41.91
840.088	43.86
840.261	43.48
840.434	40.97
840.607	41.3
840.779	44.04
840.952	45.49
841.124	45.48
841.297	45.22
841.47	43.54
841.642	41.7
841.815	40.14
841.987	39.43
842.16	39.49
842.332	41.49
842.505	41.22
842.677	41.65
842.85	40.65
843.022	40.2
843.194	41.14
843.367	41.53
843.539	42.61
843.712	42.26
843.884	42.02
844.056	40.6
844.229	40.55
844.401	41.72
844.573	40.68
844.745	40.83
844.918	40.53
845.09	40.67
845.262	45.17
845.434	44.49
845.606	47.15
845.779	50.44
845.951	50.37
846.123	48.48
846.295	51.08
846.467	50.54
846.639	51.53
846.811	55.58
846.983	53.19
847.155	51.82
847.327	52.59
847.499	49.54
847.671	47.61
847.843	51.43
848.015	51.36
848.187	49.93
848.359	51.24
848.531	51.94
848.703	49.4
848.875	50.15
849.047	47.65
849.218	48.92
849.39	53.41
849.562	52.43
849.734	52.52
849.905	53.62
850.077	55.07
850.249	53.02
850.421	49.03
850.592	47.51
850.764	48.02
850.936	46.58
851.107	44.99
851.279	44.76
851.451	44.66
851.622	40.27
851.794	43.63
851.965	40.29
852.137	41.19
852.308	44.54
852.48	46.44
852.651	47.15
852.823	49.65
852.994	48.28
853.166	46.83
853.337	47.1
853.509	49.25
853.68	49.7
853.851	52.26
854.023	55.54
854.194	54.96
854.365	55.18
854.537	54.47
854.708	55.76
854.879	57.79
855.05	54.83
855.222	57.41
855.393	59.25
855.564	56.46
855.735	55.74
855.906	50.8
856.078	49
856.249	47.49
856.42	46.45
856.591	44.18
856.762	43.45
856.933	47.99
857.104	44.4
857.275	44.27
857.446	44.68
857.617	42.21
857.788	43.55
857.959	45.95
858.13	45.86
858.301	46.54
858.472	46.68
858.643	44.88
858.814	42.15
858.985	41.54
859.155	43.19
859.326	44.18
859.497	43.65
859.668	42.91
859.839	41.1
860.009	42.99
860.18	42
860.351	42.41
860.522	46.28
860.692	50.52
860.863	50.75
861.034	48.55
861.204	47.58
861.375	49.81
861.546	47.31
861.716	53.41
861.887	48.2
862.057	46.28
862.228	47.67
862.398	47.7
862.569	46.01
862.739	51.97
862.91	50.45
863.08	48.22
863.251	50.17
863.421	49.71
863.592	43.6
863.762	45.67
863.932	50.17
864.103	48.38
864.273	46.25
864.443	47.25
864.614	42.04
864.784	45.71
864.954	49.03
865.125	50.17
865.295	49.77
865.465	49.22
865.635	49.7
865.805	47.66
865.976	46.43
866.146	47.16
866.316	43.13
866.486	40.34
866.656	41.09
866.826	41.07
866.996	37.52
867.166	41.38
867.336	43.89
867.506	47.24
867.676	45.81
867.846	47.89
868.016	45.05
868.186	48.98
868.356	50.17
868.526	44.1
868.696	41.02
868.866	42.37
869.036	44.96
869.206	42.47
869.376	40.91
869.545	42.83
869.715	42.7
869.885	42.12
870.055	42.44
870.224	49.37
870.394	52.42
870.564	54.31
870.734	49.34
870.903	46.52
871.073	51.4
871.243	52.71
871.412	51.13
871.582	51
871.751	58.67
871.921	54.98
872.091	48.99
872.26	48.85
872.43	47.5
872.599	50.2
872.769	51.26
872.938	42.82
873.108	45.2
873.277	47.03
873.446	48.92
873.616	45.66
873.785	48.71
873.955	47.96
874.124	45.52
874.293	43.68
874.463	45.15
874.632	42.57
874.801	44.91
874.971	43.39
875.14	44.76
875.309	44.14
875.478	48.3
875.647	46.07
875.817	45.42
875.986	49.82
876.155	55.79
876.324	55.65
876.493	57.46
876.662	57.03
876.831	55.2
877	52.78
877.17	53.29
877.339	48.77
877.508	47.89
877.677	50.83
877.846	48.35
878.015	43.83
878.184	43.33
878.352	43.98
878.521	44.97
878.69	44.62
878.859	46.17
879.028	45.71
879.197	47.17
879.366	46.37
879.534	46.63
879.703	46.74
879.872	49.16
880.041	48.72
880.21	48.48
880.378	47.56
880.547	47.5
880.716	46.74
880.884	46.19
881.053	44.9
881.222	45.03
881.39	44.52
881.559	44.49
881.727	43.92
881.896	43.45
882.065	43.23
882.233	43.49
882.402	43.52
882.57	43.88
882.739	42.91
882.907	43.66
883.076	43.34
883.244	42.31
883.412	42.4
883.581	42.5
883.749	42.45
883.918	42.17
884.086	42.18
884.254	41.9
884.423	40.89
884.591	42.5
884.759	41.37
884.927	42.04
885.096	43.62
885.264	43.68
885.432	44.51
885.6	44.97
885.769	45.43
885.937	45.9
886.105	47.04
886.273	48.93
886.441	48.71
886.609	51
886.777	50.43
886.945	50.88
887.113	50.71
887.281	48.03
887.449	46.81
887.617	46.45
887.785	45.11
887.953	44.34
888.121	42.49
888.289	40.79
888.457	38.37
888.625	41.08
888.793	40.46
888.961	39.39
889.129	42.33
889.296	43.33
889.464	44.45
889.632	45.02
889.8	44.53
889.967	44.79
890.135	46.28
