Data from 2938516_Reflection_2.txt Node
Date: Tue Jun 16 22:33:20 EDT 2015
User: robert
Spectrometer: USB4E03002
Autoset integration time: false
Trigger mode: 4
Integration Time (sec): 1.000000E-1
Scans to average: 10
Electric dark correction enabled: true
Nonlinearity correction enabled: false
Boxcar width: 5
Stray light correction enabled: false
XAxis mode: Wavelengths
Stop averaging: false
Number of Pixels in Spectrum: 3648
>>>>>Begin Spectral Data<<<<<
177.575	28.25
177.794	7.71
178.014	6.65
178.233	32.37
178.452	89.63
178.672	54.41
178.891	-80.72
179.11	54.55
179.33	-174.19
179.549	17.54
179.768	-50.48
179.987	-40.94
180.207	-65.11
180.426	-88.13
180.645	-1026.6
180.864	610.9
181.084	130.87
181.303	130.61
181.522	108.65
181.741	97.53
181.96	88.85
182.179	83.37
182.398	128.94
182.618	136.08
182.837	121.1
183.056	129.46
183.275	126.16
183.494	129.68
183.713	-23.39
183.932	-130.05
184.151	-276.88
184.37	-703.88
184.589	110.4
184.808	59.36
185.027	63.78
185.246	43.19
185.465	73.62
185.684	71.18
185.903	106.72
186.122	104.13
186.341	113.8
186.56	114.28
186.779	223.43
186.998	370.53
187.216	560.31
187.435	355.55
187.654	366.05
187.873	568.69
188.092	562.97
188.311	449.68
188.53	352.07
188.748	785.25
188.967	4550.54
189.186	101.36
189.405	98.69
189.623	68.89
189.842	44.85
190.061	56.81
190.28	80.85
190.498	95.2
190.717	69.31
190.936	89.62
191.154	87.23
191.373	98.68
191.592	106.03
191.81	94.09
192.029	129.68
192.248	189.1
192.466	196.72
192.685	157.06
192.904	149.05
193.122	168.47
193.341	32.34
193.559	15.9
193.778	97.4
193.996	87.43
194.215	50.06
194.433	6.18
194.652	-20.61
194.87	2.81
195.089	-142.82
195.307	-1.71
195.526	64.51
195.744	125.24
195.963	150.16
196.181	156.98
196.399	154.73
196.618	172.34
196.836	160.59
197.055	139.52
197.273	172.91
197.491	229.15
197.71	192.78
197.928	251.55
198.146	235.27
198.365	208.73
198.583	245.7
198.801	200.3
199.019	158.95
199.238	179.86
199.456	305.24
199.674	164.6
199.892	196.95
200.111	155.63
200.329	116.24
200.547	76.59
200.765	72.85
200.983	71.19
201.202	76.31
201.42	82.6
201.638	61.75
201.856	65.46
202.074	62.55
202.292	73.34
202.51	69.36
202.728	66.95
202.946	97.47
203.165	117.63
203.383	108.89
203.601	87.65
203.819	131.91
204.037	154.04
204.255	160.35
204.473	190.85
204.691	145.33
204.909	168.98
205.127	218.91
205.345	215.66
205.562	194.66
205.78	180.65
205.998	176.02
206.216	157.57
206.434	173.84
206.652	218.45
206.87	232.63
207.088	264.23
207.306	244.14
207.523	184.17
207.741	196.87
207.959	200.49
208.177	167.37
208.395	157.53
208.612	107
208.83	84.22
209.048	91.8
209.266	85.81
209.483	78.78
209.701	82.97
209.919	93.84
210.136	90.92
210.354	74.27
210.572	75.64
210.79	82.82
211.007	94.45
211.225	104.49
211.442	90.19
211.66	73.98
211.878	73.72
212.095	39.48
212.313	35.26
212.53	26.99
212.748	21.97
212.966	23.95
213.183	31.96
213.401	32.93
213.618	38
213.836	42.34
214.053	54.06
214.271	54.01
214.488	129.67
214.705	132.37
214.923	146.86
215.14	129.13
215.358	111.95
215.575	97.29
215.793	86
216.01	87.86
216.227	102.02
216.445	90.91
216.662	75.42
216.879	61.06
217.097	43.85
217.314	33.16
217.531	32.58
217.749	37.51
217.966	43.46
218.183	42.6
218.4	22.64
218.618	10.54
218.835	21.2
219.052	15.74
219.269	18.3
219.487	31.48
219.704	33.58
219.921	31.27
220.138	24.92
220.355	19.55
220.572	33.84
220.79	48.9
221.007	48.63
221.224	49.18
221.441	52.11
221.658	43.28
221.875	42.48
222.092	41.5
222.309	35.81
222.526	37.1
222.743	34.68
222.96	24.75
223.177	25.92
223.394	30.22
223.611	27.52
223.828	28.01
224.045	33.09
224.262	28.38
224.479	27.39
224.696	29.48
224.913	25.51
225.13	24.07
225.347	22.01
225.564	17.42
225.781	13.12
225.997	13.66
226.214	12.52
226.431	10.59
226.648	10.97
226.865	11.29
227.082	11.18
227.298	12.31
227.515	12.09
227.732	12.39
227.949	14.11
228.165	14.06
228.382	13.89
228.599	12.84
228.816	12.33
229.032	13.05
229.249	12.59
229.466	13.71
229.682	12.69
229.899	13.1
230.116	13.15
230.332	11.42
230.549	11.03
230.765	9.99
230.982	11.72
231.199	14.15
231.415	12.29
231.632	12.14
231.848	10.44
232.065	10.84
232.281	11.97
232.498	11.36
232.714	10.68
232.931	12.87
233.147	12.01
233.364	12.42
233.58	12.06
233.797	11.4
234.013	11.81
234.23	12.73
234.446	13.68
234.662	11.8
234.879	15.31
235.095	16.83
235.312	17.27
235.528	19.25
235.744	18.98
235.961	17.83
236.177	20.06
236.393	21.81
236.61	21.51
236.826	20.04
237.042	21.36
237.258	18.65
237.475	17.13
237.691	16.98
237.907	16.6
238.123	15.73
238.339	15.56
238.556	14.34
238.772	11.69
238.988	12.43
239.204	13.9
239.42	13.39
239.636	13.48
239.853	13.09
240.069	12.88
240.285	11.69
240.501	12.25
240.717	12.04
240.933	12.86
241.149	13.25
241.365	12.62
241.581	11.81
241.797	11.63
242.013	11.46
242.229	11.83
242.445	12.02
242.661	12.66
242.877	12.13
243.093	12.38
243.309	11.66
243.525	11.51
243.741	11.08
243.957	11.62
244.173	11.33
244.388	10.9
244.604	10.3
244.82	9.44
245.036	9.25
245.252	9.54
245.468	9.13
245.683	9.14
245.899	8.98
246.115	9.18
246.331	8.75
246.547	8.48
246.762	8.44
246.978	8.77
247.194	9.13
247.409	9.18
247.625	9
247.841	9.1
248.057	8.92
248.272	8.93
248.488	9.16
248.703	8.81
248.919	9.06
249.135	9.54
249.35	9.64
249.566	9.47
249.782	9.07
249.997	9.22
250.213	9.58
250.428	9.53
250.644	9.93
250.859	8.89
251.075	9.98
251.29	10.19
251.506	10.21
251.721	9.74
251.937	10.11
252.152	10.37
252.368	10.04
252.583	10.14
252.798	10.67
253.014	11.44
253.229	12.52
253.445	11.97
253.66	11.49
253.875	10.42
254.091	11.11
254.306	10.84
254.521	11
254.737	10.64
254.952	10.33
255.167	9.6
255.383	8.18
255.598	8.15
255.813	8.06
256.028	7.55
256.244	8.24
256.459	7.38
256.674	6.92
256.889	7.44
257.104	7.35
257.32	7.3
257.535	7.42
257.75	7.49
257.965	7.1
258.18	6.98
258.395	7.31
258.61	7.04
258.826	7.29
259.041	7.51
259.256	7.22
259.471	7.31
259.686	7.42
259.901	7.15
260.116	7.29
260.331	7.68
260.546	7.71
260.761	7.37
260.976	8.09
261.191	8.19
261.406	7.51
261.621	8.47
261.836	8.95
262.05	9.39
262.265	9.24
262.48	9.55
262.695	9.94
262.91	10.02
263.125	9.92
263.34	9.24
263.555	8.81
263.769	9.96
263.984	8.61
264.199	8.45
264.414	8.28
264.629	8.34
264.843	8.42
265.058	8.16
265.273	8.17
265.488	9.18
265.702	9.39
265.917	9.44
266.132	8.55
266.346	8.51
266.561	8.08
266.776	7.5
266.99	7.99
267.205	7.65
267.42	7.22
267.634	7.04
267.849	6.13
268.063	5.98
268.278	5.64
268.492	6.24
268.707	6.23
268.922	6.65
269.136	7.28
269.351	6.89
269.565	6.91
269.78	6.97
269.994	7.15
270.209	7.36
270.423	7.11
270.637	7.45
270.852	7.53
271.066	7.75
271.281	7.75
271.495	7.39
271.709	7.75
271.924	7.5
272.138	7.34
272.353	7.59
272.567	7.64
272.781	7.69
272.996	7.59
273.21	7.21
273.424	7.18
273.638	6.82
273.853	6.61
274.067	6.36
274.281	6.46
274.495	7.06
274.71	6.91
274.924	6.82
275.138	7.41
275.352	7.55
275.566	7.8
275.781	7.55
275.995	7.92
276.209	7.94
276.423	8.46
276.637	8.57
276.851	8.61
277.065	8.23
277.279	8.65
277.493	8.33
277.707	8.09
277.921	8.19
278.135	8.8
278.349	8.55
278.563	8.78
278.777	8.39
278.991	8.32
279.205	8.14
279.419	8.34
279.633	7.87
279.847	7.92
280.061	7.93
280.275	7.72
280.489	7.3
280.703	7.42
280.917	7.35
281.131	7.26
281.344	7.32
281.558	7.47
281.772	7.48
281.986	7.35
282.2	7.58
282.414	7.66
282.627	8.06
282.841	8.01
283.055	7.4
283.269	6.78
283.482	6.74
283.696	6.41
283.91	5.95
284.123	6
284.337	6.11
284.551	5.99
284.764	5.73
284.978	5.23
285.192	5.26
285.405	5.54
285.619	5.98
285.833	6.12
286.046	6.6
286.26	6.44
286.473	6.27
286.687	6.85
286.9	6.53
287.114	6.97
287.327	6.84
287.541	6.94
287.754	7.12
287.968	7.35
288.181	7
288.395	6.61
288.608	7.04
288.822	7.1
289.035	6.27
289.248	7.03
289.462	6.82
289.675	6.78
289.889	6.67
290.102	6.71
290.315	6.43
290.529	6.54
290.742	6.92
290.955	6.82
291.169	7.06
291.382	7.76
291.595	7.08
291.808	7.42
292.022	7.78
292.235	7.53
292.448	7.55
292.661	8.19
292.875	8.21
293.088	7.79
293.301	7.93
293.514	7.55
293.727	7.25
293.94	7.03
294.153	6.77
294.367	6.78
294.58	6.94
294.793	6.63
295.006	6.05
295.219	5.97
295.432	5.93
295.645	5.86
295.858	6.06
296.071	6.26
296.284	6.35
296.497	6.46
296.71	6.77
296.923	6.75
297.136	7.09
297.349	7.25
297.562	7.45
297.775	7.74
297.988	7.93
298.201	8.04
298.414	8.07
298.626	7.93
298.839	8.04
299.052	7.72
299.265	8.09
299.478	7.8
299.691	8.03
299.903	7.92
300.116	7.95
300.329	7.55
300.542	7.26
300.755	7.53
300.967	7.7
301.18	7.55
301.393	7.78
301.605	7.97
301.818	8.11
302.031	7.98
302.243	8.18
302.456	8.15
302.669	8.91
302.881	8.98
303.094	8.56
303.307	8.59
303.519	8.88
303.732	9.06
303.944	8.85
304.157	9.1
304.37	9.19
304.582	9.15
304.795	9.15
305.007	8.67
305.22	9
305.432	8.8
305.645	8.73
305.857	8.5
306.069	7.91
306.282	8.15
306.494	8.06
306.707	7.94
306.919	8.05
307.132	7.98
307.344	7.72
307.556	7.51
307.769	7.56
307.981	7.54
308.193	7.35
308.406	7.56
308.618	7.34
308.83	7.65
309.043	8.2
309.255	8.2
309.467	7.91
309.679	7.95
309.892	7.99
310.104	8.38
310.316	8.41
310.528	8.44
310.74	8.25
310.953	8.25
311.165	7.8
311.377	7.4
311.589	7.35
311.801	7.42
312.013	7.8
312.225	8.03
312.437	7.78
312.649	7.84
312.862	7.85
313.074	7.94
313.286	7.51
313.498	7.57
313.71	7.47
313.922	7.79
314.134	7.78
314.346	7.21
314.558	7.31
314.77	7.22
314.982	7.2
315.193	7.6
315.405	7.71
315.617	8.27
315.829	8.43
316.041	8.32
316.253	8.09
316.465	8.51
316.677	9.1
316.888	8.85
317.1	8.75
317.312	8.97
317.524	8.8
317.736	8.91
317.947	8.76
318.159	8.96
318.371	8.97
318.583	8.74
318.794	8.89
319.006	8.81
319.218	8.47
319.43	8.73
319.641	8.47
319.853	8.38
320.064	8.44
320.276	8.69
320.488	8.64
320.699	9.1
320.911	9.13
321.123	9.07
321.334	9.21
321.546	9.98
321.757	9.69
321.969	9.93
322.18	9.66
322.392	9.48
322.603	9.6
322.815	8.94
323.026	8.51
323.238	8.27
323.449	8.56
323.661	7.94
323.872	7.87
324.083	8.08
324.295	8.05
324.506	8.67
324.718	8.85
324.929	8.75
325.14	9.32
325.352	9.52
325.563	9.69
325.774	9.63
325.986	9.77
326.197	9.74
326.408	9.68
326.62	9.76
326.831	9.13
327.042	8.97
327.253	8.78
327.464	8.44
327.676	8.2
327.887	8.39
328.098	7.74
328.309	8.16
328.52	8.05
328.732	8.04
328.943	8.16
329.154	8.54
329.365	8.36
329.576	8.66
329.787	8.66
329.998	8.22
330.209	8.37
330.42	9.21
330.631	8.64
330.842	8.27
331.053	8.45
331.264	7.94
331.475	7.94
331.686	7.96
331.897	7.74
332.108	7.76
332.319	8.42
332.53	8.08
332.741	7.42
332.952	7.65
333.163	7.76
333.374	7.49
333.585	7.49
333.795	7.22
334.006	7.8
334.217	7.52
334.428	7.77
334.639	7.74
334.849	8
335.06	8.19
335.271	7.93
335.482	7.78
335.692	7.87
335.903	8.17
336.114	8.51
336.325	8.21
336.535	8.48
336.746	8.2
336.957	8.45
337.167	8.41
337.378	8.52
337.589	8.25
337.799	8.27
338.01	8.57
338.22	8.38
338.431	7.94
338.642	8.2
338.852	8.3
339.063	8.58
339.273	8.1
339.484	7.64
339.694	7.24
339.905	7.92
340.115	8.16
340.326	7.56
340.536	7.52
340.746	7.56
340.957	6.95
341.167	6.64
341.378	6.39
341.588	6.71
341.799	6.85
342.009	7.08
342.219	6.76
342.43	6.45
342.64	6.8
342.85	7.08
343.061	7.44
343.271	7.8
343.481	7.8
343.691	7.92
343.902	7.78
344.112	8.22
344.322	8.22
344.532	8.23
344.743	8.34
344.953	8.06
345.163	8.11
345.373	7.73
345.583	7.75
345.793	7.72
346.004	7.69
346.214	7.56
346.424	7.26
346.634	7.03
346.844	6.99
347.054	6.88
347.264	7.29
347.474	6.81
347.684	7.12
347.894	6.82
348.104	6.78
348.314	6.48
348.524	6.45
348.734	6.26
348.944	6.63
349.154	6.84
349.364	7.02
349.574	7.23
349.784	7.15
349.994	7.28
350.204	7.3
350.413	7.39
350.623	7.59
350.833	7.53
351.043	7.49
351.253	7.38
351.463	7.35
351.672	7.35
351.882	6.69
352.092	7.09
352.302	6.9
352.511	7.21
352.721	7.19
352.931	7.01
353.141	6.97
353.35	7.11
353.56	7.21
353.77	7.01
353.979	6.66
354.189	6.93
354.399	6.53
354.608	6.54
354.818	6.16
355.027	6.34
355.237	6.41
355.447	6.57
355.656	6.73
355.866	6.52
356.075	6.52
356.285	6.63
356.494	6.6
356.704	6.56
356.913	6.5
357.123	6.53
357.332	6.32
357.542	6.4
357.751	6.28
357.96	6.19
358.17	5.89
358.379	6.24
358.589	6.2
358.798	5.78
359.007	5.78
359.217	5.74
359.426	5.7
359.635	5.63
359.845	5.55
360.054	5.64
360.263	5.63
360.472	5.89
360.682	5.61
360.891	5.61
361.1	5.98
361.309	5.99
361.519	5.96
361.728	6.14
361.937	6.16
362.146	5.98
362.355	5.81
362.564	5.85
362.774	5.69
362.983	6.04
363.192	6.39
363.401	6.27
363.61	6.6
363.819	6.39
364.028	6.22
364.237	6.4
364.446	6.61
364.655	6.8
364.864	6.59
365.073	6.66
365.282	6.16
365.491	5.97
365.7	6.07
365.909	5.76
366.118	6
366.327	6
366.536	5.87
366.745	5.86
366.954	5.89
367.162	5.86
367.371	5.79
367.58	6.03
367.789	5.89
367.998	5.72
368.207	5.78
368.415	5.76
368.624	6.01
368.833	5.93
369.042	6.09
369.25	5.98
369.459	6.1
369.668	6.25
369.877	6.18
370.085	6.14
370.294	6.23
370.503	6.41
370.711	6.3
370.92	6.11
371.129	6.3
371.337	6.18
371.546	6.11
371.754	5.93
371.963	5.95
372.171	5.92
372.38	5.74
372.589	5.71
372.797	5.5
373.006	5.74
373.214	5.72
373.423	5.45
373.631	5.46
373.84	5.5
374.048	5.72
374.256	5.66
374.465	5.79
374.673	6.26
374.882	6.24
375.09	6.11
375.298	5.76
375.507	5.66
375.715	5.57
375.923	5.57
376.132	5.63
376.34	5.26
376.548	5.26
376.757	5.28
376.965	4.93
377.173	4.7
377.381	4.64
377.59	4.84
377.798	5
378.006	5.21
378.214	5.18
378.423	5.28
378.631	5.51
378.839	5.49
379.047	5.18
379.255	5.13
379.463	5.32
379.671	5.59
379.879	5.46
380.088	5.31
380.296	5.2
380.504	5.04
380.712	4.96
380.92	5.08
381.128	5.19
381.336	5.39
381.544	5.64
381.752	5.82
381.96	5.54
382.168	5.6
382.376	5.58
382.584	5.62
382.791	5.82
382.999	5.66
383.207	5.69
383.415	5.29
383.623	5.1
383.831	5.07
384.039	4.9
384.247	5.07
384.454	5.07
384.662	4.86
384.87	4.72
385.078	4.68
385.285	4.82
385.493	4.57
385.701	4.91
385.909	4.95
386.116	4.72
386.324	4.68
386.532	4.54
386.739	4.56
386.947	4.76
387.155	4.81
387.362	4.76
387.57	4.66
387.778	4.58
387.985	4.52
388.193	4.76
388.4	4.84
388.608	4.95
388.816	4.97
389.023	5.16
389.231	5.32
389.438	5.42
389.646	5.45
389.853	5.28
390.061	5.36
390.268	5.35
390.475	5.29
390.683	5.07
390.89	5
391.098	5.11
391.305	5.13
391.512	4.93
391.72	4.83
391.927	4.72
392.135	4.93
392.342	4.85
392.549	4.9
392.756	4.94
392.964	5.14
393.171	5.03
393.378	4.97
393.586	4.74
393.793	4.9
394	5.03
394.207	5.11
394.414	4.83
394.622	4.94
394.829	4.78
395.036	4.45
395.243	4.59
395.45	4.59
395.657	4.57
395.864	4.58
396.072	4.53
396.279	4.51
396.486	4.34
396.693	4.53
396.9	4.44
397.107	4.41
397.314	4.54
397.521	4.39
397.728	4.48
397.935	4.59
398.142	4.67
398.349	4.65
398.556	4.63
398.763	4.76
398.97	4.76
399.177	5.03
399.383	5.04
399.59	5.11
399.797	5.08
400.004	4.86
400.211	4.7
400.418	4.57
400.625	4.49
400.831	4.38
401.038	4.24
401.245	4.08
401.452	3.87
401.658	3.85
401.865	3.81
402.072	3.74
402.279	3.93
402.485	3.95
402.692	3.96
402.899	3.97
403.105	3.88
403.312	3.91
403.519	3.97
403.725	3.97
403.932	4.07
404.138	4.02
404.345	4.13
404.552	4.19
404.758	4.06
404.965	3.98
405.171	3.93
405.378	4.18
405.584	4.17
405.791	4.18
405.997	4.12
406.204	4.04
406.41	4.21
406.617	4.12
406.823	4.24
407.029	4.46
407.236	4.51
407.442	4.46
407.649	4.26
407.855	4.39
408.061	4.26
408.268	4.22
408.474	4.15
408.68	3.99
408.887	4.02
409.093	3.8
409.299	3.71
409.505	3.71
409.712	3.8
409.918	3.8
410.124	3.72
410.33	3.82
410.537	3.8
410.743	3.82
410.949	3.84
411.155	3.86
411.361	3.87
411.567	3.78
411.773	3.82
411.98	3.66
412.186	3.55
412.392	3.53
412.598	3.56
412.804	3.59
413.01	3.65
413.216	3.55
413.422	3.56
413.628	3.53
413.834	3.73
414.04	3.63
414.246	3.66
414.452	3.65
414.658	3.57
414.864	3.62
415.07	3.67
415.275	3.59
415.481	3.62
415.687	3.53
415.893	3.67
416.099	3.61
416.305	3.59
416.511	3.54
416.716	3.62
416.922	3.65
417.128	3.52
417.334	3.44
417.539	3.5
417.745	3.51
417.951	3.47
418.157	3.32
418.362	3.17
418.568	3.15
418.774	3.16
418.979	3.11
419.185	3.19
419.391	3.24
419.596	3.22
419.802	3.15
420.008	3.14
420.213	3.47
420.419	3.53
420.624	3.6
420.83	3.57
421.035	3.59
421.241	3.56
421.446	3.41
421.652	3.36
421.857	3.3
422.063	3.27
422.268	3.2
422.474	2.84
422.679	2.78
422.885	2.74
423.09	2.75
423.295	2.73
423.501	2.74
423.706	2.76
423.911	2.76
424.117	2.87
424.322	2.95
424.527	3.07
424.733	3.04
424.938	3.08
425.143	3.12
425.349	3.15
425.554	3.14
425.759	3.15
425.964	3.22
426.169	3.31
426.375	3.33
426.58	3.23
426.785	3.2
426.99	3.34
427.195	3.36
427.4	3.35
427.605	3.32
427.811	3.49
428.016	3.66
428.221	3.68
428.426	3.52
428.631	3.32
428.836	3.47
429.041	3.39
429.246	3.36
429.451	3.28
429.656	3.25
429.861	3.25
430.066	3.13
430.271	2.99
430.476	2.92
430.681	2.9
430.886	3.04
431.09	2.92
431.295	2.86
431.5	2.91
431.705	2.91
431.91	2.89
432.115	2.88
432.32	2.85
432.524	2.82
432.729	2.93
432.934	3.06
433.139	2.97
433.343	3.02
433.548	2.94
433.753	2.87
433.958	2.8
434.162	2.85
434.367	2.77
434.572	2.63
434.776	2.61
434.981	2.35
435.186	2.3
435.39	2.38
435.595	2.35
435.799	2.35
436.004	2.37
436.209	2.46
436.413	2.48
436.618	2.58
436.822	2.7
437.027	2.78
437.231	2.82
437.436	2.73
437.64	2.71
437.845	2.68
438.049	2.82
438.253	2.72
438.458	2.74
438.662	2.67
438.867	2.64
439.071	2.68
439.275	2.72
439.48	2.84
439.684	2.9
439.888	2.9
440.093	2.94
440.297	2.89
440.501	2.93
440.706	2.93
440.91	2.98
441.114	3.02
441.318	2.97
441.523	2.91
441.727	2.87
441.931	2.92
442.135	2.91
442.339	2.81
442.543	2.84
442.748	2.94
442.952	2.93
443.156	2.9
443.36	2.88
443.564	2.82
443.768	2.79
443.972	2.71
444.176	2.64
444.38	2.58
444.584	2.57
444.788	2.5
444.992	2.42
445.196	2.41
445.4	2.38
445.604	2.4
445.808	2.42
446.012	2.41
446.216	2.42
446.42	2.39
446.624	2.47
446.828	2.61
447.032	2.66
447.235	2.68
447.439	2.68
447.643	2.73
447.847	2.71
448.051	2.8
448.254	2.8
448.458	2.86
448.662	2.84
448.866	2.69
449.069	2.57
449.273	2.61
449.477	2.64
449.681	2.48
449.884	2.43
450.088	2.45
450.292	2.35
450.495	2.39
450.699	2.38
450.902	2.41
451.106	2.49
451.31	2.38
451.513	2.26
451.717	2.18
451.92	2.23
452.124	2.25
452.327	2.13
452.531	2.15
452.734	2.12
452.938	2.08
453.141	2.18
453.345	2.15
453.548	2.31
453.752	2.34
453.955	2.38
454.158	2.48
454.362	2.39
454.565	2.56
454.769	2.57
454.972	2.45
455.175	2.42
455.379	2.39
455.582	2.46
455.785	2.43
455.988	2.4
456.192	2.44
456.395	2.32
456.598	2.43
456.801	2.27
457.005	2.23
457.208	2.26
457.411	2.34
457.614	2.29
457.817	2.28
458.021	2.26
458.224	2.29
458.427	2.23
458.63	2.2
458.833	2.25
459.036	2.28
459.239	2.33
459.442	2.36
459.645	2.33
459.848	2.29
460.051	2.31
460.254	2.28
460.457	2.25
460.66	2.27
460.863	2.42
461.066	2.3
461.269	2.37
461.472	2.3
461.675	2.26
461.878	2.25
462.081	2.22
462.284	2.14
462.486	2.06
462.689	2
462.892	2.03
463.095	1.95
463.298	1.99
463.5	1.94
463.703	2.02
463.906	2.07
464.109	2.07
464.311	2.1
464.514	2.13
464.717	2.22
464.92	2.31
465.122	2.34
465.325	2.31
465.528	2.31
465.73	2.38
465.933	2.34
466.135	2.36
466.338	2.36
466.541	2.37
466.743	2.45
466.946	2.47
467.148	2.52
467.351	2.51
467.553	2.56
467.756	2.54
467.958	2.52
468.161	2.53
468.363	2.57
468.566	2.6
468.768	2.79
468.971	2.72
469.173	2.71
469.375	2.72
469.578	2.66
469.78	2.6
469.983	2.59
470.185	2.53
470.387	2.57
470.59	2.51
470.792	2.53
470.994	2.39
471.196	2.47
471.399	2.47
471.601	2.45
471.803	2.45
472.005	2.55
472.208	2.58
472.41	2.64
472.612	2.63
472.814	2.6
473.016	2.53
473.218	2.58
473.421	2.59
473.623	2.65
473.825	2.6
474.027	2.65
474.229	2.62
474.431	2.58
474.633	2.61
474.835	2.61
475.037	2.67
475.239	2.76
475.441	2.7
475.643	2.64
475.845	2.51
476.047	2.53
476.249	2.52
476.451	2.43
476.653	2.43
476.855	2.33
477.057	2.23
477.258	2.16
477.46	2.06
477.662	2.07
477.864	2.13
478.066	2.21
478.268	2.25
478.469	2.23
478.671	2.31
478.873	2.35
479.075	2.39
479.276	2.46
479.478	2.53
479.68	2.57
479.882	2.51
480.083	2.44
480.285	2.43
480.487	2.38
480.688	2.39
480.89	2.34
481.091	2.34
481.293	2.35
481.495	2.33
481.696	2.27
481.898	2.23
482.099	2.22
482.301	2.25
482.502	2.27
482.704	2.26
482.905	2.28
483.107	2.27
483.308	2.26
483.51	2.21
483.711	2.23
483.913	2.24
484.114	2.28
484.315	2.27
484.517	2.25
484.718	2.25
484.92	2.27
485.121	2.24
485.322	2.27
485.524	2.27
485.725	2.33
485.926	2.31
486.127	2.27
486.329	2.25
486.53	2.31
486.731	2.27
486.932	2.26
487.134	2.26
487.335	2.27
487.536	2.33
487.737	2.33
487.938	2.31
488.139	2.31
488.341	2.35
488.542	2.34
488.743	2.31
488.944	2.31
489.145	2.3
489.346	2.31
489.547	2.32
489.748	2.29
489.949	2.35
490.15	2.33
490.351	2.31
490.552	2.35
490.753	2.38
490.954	2.38
491.155	2.4
491.356	2.41
491.557	2.44
491.758	2.45
491.959	2.48
492.159	2.47
492.36	2.51
492.561	2.59
492.762	2.63
492.963	2.6
493.164	2.59
493.364	2.61
493.565	2.63
493.766	2.53
493.967	2.41
494.167	2.3
494.368	2.27
494.569	2.27
494.769	2.19
494.97	2.17
495.171	2.25
495.371	2.3
495.572	2.35
495.773	2.39
495.973	2.48
496.174	2.58
496.375	2.62
496.575	2.63
496.776	2.64
496.976	2.74
497.177	2.72
497.377	2.7
497.578	2.73
497.778	2.74
497.979	2.68
498.179	2.69
498.38	2.62
498.58	2.7
498.78	2.75
498.981	2.77
499.181	2.66
499.382	2.61
499.582	2.62
499.782	2.62
499.983	2.6
500.183	2.69
500.383	2.69
500.584	2.8
500.784	2.77
500.984	2.71
501.184	2.73
501.385	2.8
501.585	2.85
501.785	2.88
501.985	2.79
502.185	2.84
502.386	2.83
502.586	2.8
502.786	2.71
502.986	2.72
503.186	2.75
503.386	2.77
503.586	2.83
503.786	2.86
503.987	2.86
504.187	3
504.387	2.97
504.587	2.91
504.787	2.94
504.987	3.04
505.187	3
505.387	3.04
505.587	2.98
505.786	2.96
505.986	2.92
506.186	2.94
506.386	2.86
506.586	2.86
506.786	2.89
506.986	2.91
507.186	2.88
507.386	2.98
507.585	3.01
507.785	3.09
507.985	3.12
508.185	3.24
508.384	3.23
508.584	3.3
508.784	3.33
508.984	3.38
509.183	3.31
509.383	3.31
509.583	3.28
509.782	3.25
509.982	3.2
510.182	3.17
510.381	3.05
510.581	3.07
510.781	3.03
510.98	3.04
511.18	3
511.379	3.16
511.579	3.14
511.778	3.11
511.978	3.07
512.177	3.12
512.377	3.14
512.576	3.19
512.776	3.15
512.975	3.28
513.175	3.3
513.374	3.4
513.573	3.38
513.773	3.38
513.972	3.47
514.172	3.56
514.371	3.61
514.57	3.67
514.77	3.72
514.969	3.79
515.168	3.76
515.367	3.76
515.567	3.71
515.766	3.64
515.965	3.73
516.164	3.71
516.364	3.66
516.563	3.7
516.762	3.71
516.961	3.71
517.16	3.72
517.359	3.75
517.559	3.74
517.758	3.77
517.957	3.81
518.156	3.81
518.355	3.85
518.554	3.9
518.753	3.85
518.952	3.84
519.151	3.87
519.35	3.89
519.549	3.86
519.748	3.88
519.947	3.89
520.146	3.91
520.345	3.89
520.544	3.97
520.743	3.89
520.942	3.88
521.141	3.91
521.339	3.96
521.538	3.91
521.737	3.96
521.936	4.11
522.135	4.1
522.333	4.09
522.532	4.13
522.731	4.04
522.93	4.09
523.129	4.15
523.327	4.18
523.526	4.2
523.725	4.23
523.923	4.23
524.122	4.17
524.321	4.18
524.519	4.22
524.718	4.24
524.917	4.3
525.115	4.3
525.314	4.29
525.512	4.29
525.711	4.31
525.909	4.33
526.108	4.36
526.306	4.35
526.505	4.38
526.703	4.39
526.902	4.4
527.1	4.39
527.299	4.4
527.497	4.41
527.696	4.44
527.894	4.45
528.092	4.47
528.291	4.46
528.489	4.47
528.688	4.48
528.886	4.47
529.084	4.49
529.283	4.48
529.481	4.53
529.679	4.61
529.877	4.63
530.076	4.62
530.274	4.68
530.472	4.73
530.67	4.8
530.869	4.84
531.067	4.89
531.265	4.9
531.463	4.93
531.661	4.91
531.859	4.91
532.057	4.92
532.255	4.95
532.454	4.95
532.652	5.02
532.85	5.03
533.048	5.05
533.246	5.11
533.444	5.18
533.642	5.27
533.84	5.35
534.038	5.36
534.236	5.36
534.434	5.38
534.632	5.39
534.83	5.39
535.027	5.45
535.225	5.5
535.423	5.46
535.621	5.49
535.819	5.45
536.017	5.5
536.215	5.57
536.412	5.64
536.61	5.66
536.808	5.63
537.006	5.63
537.203	5.62
537.401	5.64
537.599	5.74
537.797	5.73
537.994	5.85
538.192	5.91
538.39	5.94
538.587	5.92
538.785	5.92
538.983	6.02
539.18	6.03
539.378	6.09
539.575	6.12
539.773	6.11
539.97	6.15
540.168	6.11
540.366	6.13
540.563	6.17
540.761	6.22
540.958	6.28
541.155	6.33
541.353	6.39
541.55	6.43
541.748	6.43
541.945	6.5
542.143	6.5
542.34	6.56
542.537	6.57
542.735	6.61
542.932	6.69
543.129	6.77
543.327	6.79
543.524	6.79
543.721	6.84
543.919	6.85
544.116	6.94
544.313	7.02
544.51	7.02
544.708	7.1
544.905	7.12
545.102	7.09
545.299	7.13
545.496	7.19
545.693	7.24
545.891	7.29
546.088	7.43
546.285	7.45
546.482	7.48
546.679	7.63
546.876	7.68
547.073	7.73
547.27	7.81
547.467	7.85
547.664	7.92
547.861	7.96
548.058	8
548.255	8.03
548.452	8.11
548.649	8.15
548.846	8.31
549.043	8.36
549.24	8.41
549.437	8.56
549.633	8.63
549.83	8.65
550.027	8.86
550.224	8.86
550.421	9.04
550.618	9.04
550.814	9.22
551.011	9.14
551.208	9.18
551.405	9.27
551.601	9.25
551.798	9.13
551.995	9.17
552.191	9.11
552.388	9.25
552.585	9.19
552.781	9.24
552.978	9.13
553.175	9.24
553.371	9.34
553.568	9.37
553.764	9.51
553.961	9.67
554.157	9.75
554.354	9.82
554.55	9.94
554.747	10.07
554.943	10.22
555.14	10.41
555.336	10.44
555.533	10.6
555.729	10.6
555.926	10.65
556.122	10.75
556.318	10.69
556.515	10.9
556.711	10.93
556.907	11
557.104	11.04
557.3	11.14
557.496	11.16
557.693	11.19
557.889	11.42
558.085	11.52
558.281	11.68
558.478	11.91
558.674	11.89
558.87	11.97
559.066	12.03
559.262	12.16
559.459	12.17
559.655	12.34
559.851	12.33
560.047	12.37
560.243	12.35
560.439	12.38
560.635	12.41
560.831	12.46
561.027	12.48
561.223	12.49
561.419	12.54
561.615	12.65
561.811	12.71
562.007	12.87
562.203	12.88
562.399	13.05
562.595	13.1
562.791	13.16
562.987	13.25
563.183	13.3
563.379	13.44
563.575	13.4
563.771	13.46
563.966	13.46
564.162	13.47
564.358	13.56
564.554	13.59
564.75	13.61
564.945	13.65
565.141	13.65
565.337	13.61
565.533	13.6
565.728	13.72
565.924	13.84
566.12	13.92
566.315	14.06
566.511	14.16
566.707	14.19
566.902	14.34
567.098	14.49
567.293	14.68
567.489	14.8
567.684	14.91
567.88	15.04
568.076	15.05
568.271	15.14
568.467	15.13
568.662	15.2
568.858	15.33
569.053	15.41
569.248	15.43
569.444	15.46
569.639	15.59
569.835	15.59
570.03	15.61
570.225	15.59
570.421	15.64
570.616	15.66
570.812	15.68
571.007	15.7
571.202	15.75
571.397	15.86
571.593	15.82
571.788	15.97
571.983	16.19
572.178	16.27
572.374	16.36
572.569	16.45
572.764	16.55
572.959	16.58
573.154	16.62
573.35	16.62
573.545	16.65
573.74	16.84
573.935	16.82
574.13	16.77
574.325	16.79
574.52	16.82
574.715	16.89
574.91	17.06
575.105	17.07
575.3	17.1
575.495	17.14
575.69	17.12
575.885	17.08
576.08	17.14
576.275	17.11
576.47	17.16
576.665	17.25
576.86	17.37
577.055	17.26
577.25	17.34
577.444	17.42
577.639	17.54
577.834	17.53
578.029	17.56
578.224	17.59
578.418	17.67
578.613	17.66
578.808	17.71
579.003	17.64
579.197	17.65
579.392	17.7
579.587	17.73
579.781	17.73
579.976	17.94
580.171	18.14
580.365	18.11
580.56	18.21
580.755	18.41
580.949	18.55
581.144	18.47
581.338	18.57
581.533	18.66
581.727	18.76
581.922	18.85
582.116	18.94
582.311	18.88
582.505	18.82
582.7	18.83
582.894	18.79
583.089	18.73
583.283	18.87
583.478	18.96
583.672	19.09
583.866	19.11
584.061	19.12
584.255	19.12
584.449	19.16
584.644	19.34
584.838	19.27
585.032	19.3
585.226	19.31
585.421	19.48
585.615	19.34
585.809	19.3
586.003	19.32
586.198	19.38
586.392	19.18
586.586	19.18
586.78	19.2
586.974	19.34
587.168	19.27
587.363	19.21
587.557	19.03
587.751	19.18
587.945	19.17
588.139	19.22
588.333	19.16
588.527	19.26
588.721	19.22
588.915	19.24
589.109	19.3
589.303	19.28
589.497	19.3
589.691	19.42
589.885	19.48
590.079	19.64
590.273	19.78
590.466	19.82
590.66	19.85
590.854	20.04
591.048	20.11
591.242	19.96
591.436	20.18
591.629	20.49
591.823	20.47
592.017	20.46
592.211	20.24
592.404	20.14
592.598	20.17
592.792	20.22
592.986	20.19
593.179	20.19
593.373	20.37
593.567	20.34
593.76	20.18
593.954	20.19
594.147	20.29
594.341	20.47
594.535	20.45
594.728	20.51
594.922	20.62
595.115	20.65
595.309	20.67
595.502	20.7
595.696	20.7
595.889	20.74
596.083	20.78
596.276	20.76
596.47	20.68
596.663	20.73
596.856	20.69
597.05	20.67
597.243	20.67
597.437	20.7
597.63	20.66
597.823	20.57
598.017	20.59
598.21	20.53
598.403	20.48
598.596	20.59
598.79	20.61
598.983	20.62
599.176	20.72
599.369	20.69
599.563	20.74
599.756	20.76
599.949	20.98
600.142	21.02
600.335	20.97
600.528	20.93
600.722	21.03
600.915	21.1
601.108	21.14
601.301	20.97
601.494	21.04
601.687	20.99
601.88	20.95
602.073	20.91
602.266	20.79
602.459	20.82
602.652	21.01
602.845	20.98
603.038	20.95
603.231	21.12
603.424	21.17
603.617	21.18
603.809	21.13
604.002	21.13
604.195	21.01
604.388	21.21
604.581	21.35
604.774	21.22
604.966	21.24
605.159	21.27
605.352	21.14
605.545	21.26
605.737	21.32
605.93	21.47
606.123	21.59
606.316	21.75
606.508	21.7
606.701	21.57
606.894	21.56
607.086	21.56
607.279	21.48
607.471	21.41
607.664	21.34
607.857	21.24
608.049	21.2
608.242	21.08
608.434	21.21
608.627	21.25
608.819	21.39
609.012	21.41
609.204	21.38
609.397	21.37
609.589	21.53
609.782	21.57
609.974	21.61
610.166	21.68
610.359	21.81
610.551	21.62
610.743	21.66
610.936	21.7
611.128	21.67
611.32	21.7
611.513	21.85
611.705	21.85
611.897	21.9
612.09	22
612.282	22.07
612.474	22.07
612.666	22.24
612.858	22.01
613.051	21.97
613.243	22.12
613.435	22.11
613.627	21.89
613.819	21.88
614.011	21.78
614.203	21.82
614.395	21.74
614.588	21.92
614.78	21.81
614.972	21.97
615.164	21.9
615.356	21.82
615.548	21.9
615.74	21.92
615.932	21.83
616.124	22.05
616.315	21.86
616.507	21.74
616.699	21.7
616.891	21.86
617.083	22.01
617.275	22.11
617.467	22.32
617.659	22.28
617.85	22.42
618.042	22.53
618.234	22.38
618.426	22.54
618.618	22.56
618.809	22.45
619.001	22.3
619.193	22.19
619.384	21.99
619.576	21.98
619.768	21.92
619.959	22.02
620.151	21.78
620.343	21.87
620.534	21.95
620.726	22
620.917	22.01
621.109	22.06
621.301	21.97
621.492	22.08
621.684	22.01
621.875	22.17
622.067	22.07
622.258	22.24
622.45	22.21
622.641	22
622.832	22.15
623.024	22.32
623.215	22.39
623.407	22.53
623.598	22.71
623.789	22.73
623.981	22.65
624.172	22.6
624.363	22.5
624.555	22.44
624.746	22.74
624.937	22.56
625.129	22.47
625.32	22.35
625.511	22.34
625.702	22.22
625.893	22.15
626.085	22.3
626.276	22.31
626.467	22.34
626.658	22.41
626.849	22.16
627.04	22.32
627.231	22.33
627.422	22.31
627.614	22.38
627.805	22.51
627.996	22.42
628.187	22.24
628.378	22.41
628.569	22.38
628.76	22.36
628.951	22.47
629.142	22.4
629.332	22.33
629.523	22.58
629.714	22.65
629.905	22.61
630.096	22.7
630.287	22.82
630.478	22.99
630.669	23.14
630.859	23.26
631.05	23.12
631.241	23.1
631.432	23.2
631.623	23.05
631.813	22.92
632.004	22.81
632.195	22.89
632.385	22.84
632.576	22.74
632.767	22.63
632.957	22.48
633.148	22.8
633.339	22.76
633.529	22.99
633.72	23.11
633.91	23.2
634.101	23.38
634.292	23.49
634.482	23.47
634.673	23.37
634.863	23.51
635.054	23.47
635.244	23.34
635.435	23.42
635.625	23.15
635.815	23.03
636.006	22.91
636.196	22.71
636.387	22.72
636.577	22.74
636.767	22.86
636.958	22.75
637.148	22.85
637.338	22.91
637.529	22.81
637.719	22.96
637.909	23.02
638.099	23.23
638.29	23.3
638.48	23.17
638.67	23.07
638.86	22.94
639.05	23.05
639.241	23.12
639.431	23.06
639.621	23.1
639.811	23.17
640.001	23.22
640.191	23.05
640.381	23.05
640.571	23.17
640.761	23.5
640.951	23.65
641.141	23.71
641.331	23.7
641.521	23.87
641.711	23.94
641.901	23.87
642.091	23.86
642.281	23.9
642.471	23.93
642.661	23.9
642.851	23.72
643.041	23.66
643.231	23.82
643.42	23.77
643.61	23.42
643.8	23.41
643.99	23.37
644.18	23.35
644.369	23.33
644.559	23.51
644.749	23.28
644.939	23.22
645.128	23.24
645.318	23.15
645.508	23.12
645.697	23.23
645.887	23.27
646.076	23.23
646.266	23.2
646.456	23.04
646.645	22.86
646.835	22.89
647.024	23.02
647.214	22.92
647.403	22.91
647.593	22.93
647.782	23.07
647.972	22.99
648.161	23.31
648.351	23.37
648.54	23.42
648.73	23.6
648.919	24.02
649.108	24.05
649.298	24.09
649.487	23.99
649.677	23.99
649.866	23.98
650.055	24.26
650.244	24.06
650.434	24.28
650.623	24.31
650.812	24.1
651.002	23.78
651.191	23.66
651.38	23.54
651.569	23.5
651.758	23.51
651.947	23.5
652.137	23.34
652.326	23.32
652.515	23.25
652.704	23.26
652.893	23.27
653.082	23.33
653.271	23.32
653.46	23.4
653.649	23.2
653.838	23.42
654.027	23.56
654.216	23.49
654.405	23.59
654.594	23.45
654.783	23.52
654.972	23.72
655.161	23.79
655.35	23.82
655.539	23.83
655.728	24.17
655.916	23.87
656.105	23.67
656.294	23.72
656.483	23.61
656.672	23.51
656.86	23.52
657.049	23.43
657.238	23.4
657.427	23.25
657.615	23.21
657.804	23.19
657.993	23.46
658.181	23.54
658.37	23.63
658.559	23.57
658.747	23.62
658.936	23.7
659.125	24
659.313	24.01
659.502	24.28
659.69	24.36
659.879	24.27
660.067	24.01
660.256	24.15
660.444	24.21
660.633	24.23
660.821	24.39
661.01	24.26
661.198	24.21
661.387	24.44
661.575	24.34
661.763	24.56
661.952	24.8
662.14	24.95
662.328	24.8
662.517	24.64
662.705	24.9
662.893	24.83
663.082	24.72
663.27	24.21
663.458	23.9
663.646	23.97
663.834	23.93
664.023	23.68
664.211	23.61
664.399	23.69
664.587	23.9
664.775	23.73
664.963	23.95
665.152	24.3
665.34	24.62
665.528	24.8
665.716	24.84
665.904	24.7
666.092	25.01
666.28	25.12
666.468	24.87
666.656	24.63
666.844	24.56
667.032	24.34
667.22	24.07
667.408	24.01
667.596	23.95
667.784	24.03
667.971	23.9
668.159	23.71
668.347	23.66
668.535	23.97
668.723	23.99
668.911	24.03
669.098	23.92
669.286	23.98
669.474	24.27
669.662	24.16
669.849	24.16
670.037	24.33
670.225	24.58
670.413	24.59
670.6	24.34
670.788	24.29
670.976	24.21
671.163	24.31
671.351	24.38
671.538	24.09
671.726	24.16
671.913	24.02
672.101	24.07
672.289	23.8
672.476	23.69
672.664	23.66
672.851	23.53
673.039	23.64
673.226	23.72
673.413	23.83
673.601	23.74
673.788	23.73
673.976	23.7
674.163	23.44
674.35	23.42
674.538	23.55
674.725	23.71
674.912	23.97
675.1	23.7
675.287	23.76
675.474	23.77
675.662	23.71
675.849	23.92
676.036	23.93
676.223	24.14
676.411	24.36
676.598	24.41
676.785	24.38
676.972	24.51
677.159	24.52
677.346	24.69
677.533	24.77
677.721	24.81
677.908	24.61
678.095	24.65
678.282	24.74
678.469	24.7
678.656	24.72
678.843	24.81
679.03	24.57
679.217	24.98
679.404	24.76
679.591	24.58
679.778	24.71
679.964	24.92
680.151	25.02
680.338	24.96
680.525	24.78
680.712	24.94
680.899	24.9
681.086	25.02
681.272	24.87
681.459	24.8
681.646	24.9
681.833	24.6
682.02	24.46
682.206	24.25
682.393	24.26
682.58	24.77
682.766	24.49
682.953	24.41
683.14	24.38
683.326	24.58
683.513	24.73
683.7	24.77
683.886	25.16
684.073	25.33
684.259	25.52
684.446	25.37
684.632	25.11
684.819	25.58
685.005	25.56
685.192	25.48
685.378	25.59
685.565	25.87
685.751	25.86
685.938	25.71
686.124	25.6
686.31	25.35
686.497	25.43
686.683	25.32
686.87	25.06
687.056	25.27
687.242	25.42
687.429	25.07
687.615	24.79
687.801	24.72
687.987	24.77
688.174	24.9
688.36	25.22
688.546	25.35
688.732	25.44
688.918	25.28
689.105	24.94
689.291	25.1
689.477	25.49
689.663	25.56
689.849	25.43
690.035	25.51
690.221	25.38
690.407	25.5
690.593	25.64
690.779	25.48
690.965	25.63
691.151	25.78
691.337	25.84
691.523	25.55
691.709	25.68
691.895	25.77
692.081	25.49
692.267	25.57
692.453	25.35
692.639	24.95
692.825	25.24
693.011	25.18
693.196	25.21
693.382	25.08
693.568	25.09
693.754	25.13
693.94	25.31
694.125	25.51
694.311	25.49
694.497	25.4
694.682	25.4
694.868	25.15
695.054	25.05
695.239	25.09
695.425	25.12
695.611	25.03
695.796	24.64
695.982	24.74
696.168	24.77
696.353	24.59
696.539	24.63
696.724	24.53
696.91	24.57
697.095	24.73
697.281	24.51
697.466	24.44
697.652	24.66
697.837	24.85
698.023	24.66
698.208	24.65
698.393	24.75
698.579	24.82
698.764	25.16
698.949	25.34
699.135	25.34
699.32	25.7
699.505	25.65
699.691	25.65
699.876	25.72
700.061	25.74
700.246	25.68
700.432	25.69
700.617	25.71
700.802	25.61
700.987	25.18
701.172	25.07
701.358	25.01
701.543	25.12
701.728	24.88
701.913	24.59
702.098	24.8
702.283	25.15
702.468	25.31
702.653	25.35
702.838	25.41
703.023	25.66
703.208	25.34
703.393	25.5
703.578	25.55
703.763	25.69
703.948	26.04
704.133	25.81
704.318	25.88
704.503	25.78
704.688	25.47
704.873	25.37
705.057	25.11
705.242	25.38
705.427	25.12
705.612	24.9
705.797	24.6
705.981	24.68
706.166	25.04
706.351	25
706.536	24.93
706.72	25.24
706.905	25.22
707.09	25.74
707.274	25.87
707.459	25.71
707.644	25.71
707.828	25.93
708.013	25.87
708.197	25.87
708.382	25.58
708.567	25.66
708.751	25.65
708.936	25.6
709.12	25.27
709.305	25.13
709.489	25.36
709.673	25.6
709.858	25.44
710.042	25.16
710.227	24.67
710.411	24.31
710.596	24.15
710.78	24.06
710.964	24.2
711.149	24.45
711.333	24.29
711.517	24.53
711.702	23.88
711.886	23.9
712.07	23.91
712.254	24.09
712.438	24.38
712.623	24.54
712.807	24.52
712.991	24.46
713.175	24.25
713.359	24.58
713.544	24.29
713.728	24.74
713.912	24.89
714.096	24.51
714.28	24.54
714.464	24.78
714.648	24.66
714.832	24.43
715.016	24.43
715.2	24.69
715.384	24.42
715.568	24.53
715.752	24.49
715.936	24.15
716.12	24.74
716.304	25.04
716.488	25.15
716.671	25.04
716.855	24.96
717.039	24.88
717.223	25.02
717.407	25.24
717.59	25.1
717.774	25.61
717.958	25.65
718.142	25.21
718.325	25.1
718.509	24.98
718.693	25.44
718.877	25.9
719.06	25.91
719.244	25.6
719.428	25.79
719.611	25.7
719.795	25.6
719.978	25.53
720.162	25.77
720.345	25.53
720.529	25.54
720.713	25.19
720.896	25.53
721.08	25.41
721.263	25.83
721.446	25.46
721.63	25.71
721.813	25.52
721.997	25.76
722.18	25.61
722.364	25.84
722.547	25.64
722.73	25.92
722.914	24.79
723.097	25
723.28	24.16
723.464	24.39
723.647	24.01
723.83	23.98
724.013	24.15
724.197	24.71
724.38	24.74
724.563	24.9
724.746	24.98
724.929	25.89
725.112	25.81
725.296	26.33
725.479	26.16
725.662	26.14
725.845	26.2
726.028	26.29
726.211	26.31
726.394	26.26
726.577	25.89
726.76	25.68
726.943	25.46
727.126	25.36
727.309	25.43
727.492	25.21
727.675	25.64
727.858	25.65
728.041	25.91
728.224	25.71
728.407	25.98
728.589	25.86
728.772	25.6
728.955	25.52
729.138	25.78
729.321	25.46
729.503	25.58
729.686	25.61
729.869	25.6
730.052	25.66
730.234	25.82
730.417	25.59
730.6	25.81
730.782	25.99
730.965	26.45
731.148	26.26
731.33	26.01
731.513	26.2
731.695	26
731.878	25.7
732.061	25.21
732.243	24.56
732.426	24.59
732.608	24.61
732.791	24.64
732.973	24.2
733.156	24.51
733.338	24.71
733.52	25.07
733.703	25.18
733.885	25.43
734.068	25.34
734.25	25.52
734.432	25.42
734.615	25.65
734.797	25.77
734.979	25.96
735.162	26.02
735.344	26.46
735.526	26.07
735.708	26.09
735.891	26.07
736.073	26.65
736.255	27.02
736.437	26.83
736.619	26.59
736.802	26.93
736.984	27.1
737.166	26.7
737.348	26.33
737.53	26.21
737.712	25.98
737.894	26.33
738.076	26.26
738.258	26.32
738.44	26.58
738.622	26.91
738.804	26.79
738.986	26.61
739.168	26.64
739.35	26.79
739.532	26.8
739.714	27.22
739.896	26.93
740.078	26.32
740.259	26.47
740.441	26.38
740.623	25.81
740.805	25.76
740.987	25.49
741.168	25.59
741.35	25.91
741.532	26.41
741.714	26.29
741.895	26.89
742.077	27.65
742.259	27.8
742.44	28.44
742.622	28.79
742.804	28.53
742.985	28.94
743.167	28.94
743.348	29.05
743.53	28.59
743.711	28.91
743.893	27.71
744.075	27.56
744.256	27.8
744.438	27.13
744.619	27.63
744.8	28.2
744.982	28.37
745.163	28.65
745.345	28.03
745.526	28.47
745.707	28
745.889	28.69
746.07	27.76
746.252	26.66
746.433	26.8
746.614	26.23
746.795	25.92
746.977	26.11
747.158	25.58
747.339	25.86
747.52	25.63
747.702	26.21
747.883	26.72
748.064	27.3
748.245	27.88
748.426	28.18
748.607	28.17
748.788	27.94
748.97	27.06
749.151	26.76
749.332	26.51
749.513	27.13
749.694	26.29
749.875	25.46
750.056	26.15
750.237	26.72
750.418	26.26
750.599	26.05
750.78	26.73
750.96	26.78
751.141	27.52
751.322	27.16
751.503	26.02
751.684	26.76
751.865	26.44
752.046	26.04
752.226	25.46
752.407	25.37
752.588	25.29
752.769	25.41
752.949	25.89
753.13	25.72
753.311	26.41
753.492	26.99
753.672	26.51
753.853	27.37
754.034	27.59
754.214	27.49
754.395	27.71
754.575	28.16
754.756	27.55
754.937	27.82
755.117	28.37
755.298	28.56
755.478	28.32
755.659	28.75
755.839	27.87
756.02	27.52
756.2	27.61
756.381	26.89
756.561	26.82
756.741	27.22
756.922	27.35
757.102	27.45
757.283	27.54
757.463	27.46
757.643	26.37
757.823	27.39
758.004	28.24
758.184	28.28
758.364	28.28
758.545	28.34
758.725	27.63
758.905	27.49
759.085	25.99
759.265	25.48
759.446	25.4
759.626	26.19
759.806	25.6
759.986	24.62
760.166	24.16
760.346	24.56
760.526	25.21
760.706	25.19
760.886	24.87
761.066	26.45
761.246	26.51
761.426	27.12
761.606	26.5
761.786	26.82
761.966	26.84
762.146	27.06
762.326	26.95
762.506	26.12
762.686	26.1
762.866	26.29
763.046	25.77
763.225	25.17
763.405	24.74
763.585	25.61
763.765	25.12
763.945	25.42
764.124	25.6
764.304	25.61
764.484	25.95
764.664	26.15
764.843	25.8
765.023	26
765.203	26.41
765.382	26.31
765.562	25.8
765.741	26.19
765.921	26.02
766.101	25.61
766.28	25.78
766.46	25.48
766.639	24.97
766.819	24.84
766.998	24.92
767.178	25.22
767.357	25.95
767.537	25.87
767.716	26.5
767.896	26.34
768.075	26.62
768.254	26.75
768.434	26.22
768.613	26.93
768.792	27.91
768.972	27.84
769.151	27.64
769.33	27.43
769.51	27.26
769.689	26.67
769.868	26.28
770.047	26.82
770.226	27.04
770.406	28.22
770.585	28.44
770.764	27.85
770.943	27.17
771.122	27.27
771.301	26.47
771.48	26.76
771.66	27.12
771.839	27.52
772.018	27.06
772.197	26.38
772.376	26.65
772.555	26.55
772.734	26.14
772.913	27.31
773.092	27.12
773.271	28.17
773.449	28.29
773.628	27.71
773.807	27.93
773.986	26.79
774.165	27.54
774.344	27.31
774.523	26.79
774.701	27.65
774.88	26.84
775.059	26.86
775.238	26.42
775.417	26.01
775.595	26.32
775.774	26.63
775.953	28.19
776.131	27.77
776.31	27.38
776.489	27.43
776.667	27.17
776.846	27.06
777.025	27.31
777.203	27.64
777.382	27.81
777.56	27.01
777.739	25.62
777.917	24.74
778.096	24.74
778.274	24.84
778.453	24.94
778.631	25.16
778.81	25.55
778.988	25.03
779.166	24.75
779.345	24.68
779.523	24.93
779.702	26.17
779.88	26.12
780.058	26.42
780.237	26.2
780.415	26.41
780.593	26.02
780.771	26.44
780.95	27.2
781.128	27.14
781.306	26.99
781.484	28.12
781.662	28.16
781.841	29.15
782.019	29.03
782.197	29.07
782.375	29.38
782.553	29.69
782.731	28.67
782.909	28.89
783.087	29.27
783.265	29.79
783.443	28.45
783.621	28.11
783.799	27.75
783.977	27.46
784.155	27.79
784.333	26.93
784.511	26.73
784.689	27.6
784.867	27.06
785.045	26.28
785.223	25.61
785.4	26.17
785.578	26.3
785.756	26.82
785.934	27.3
786.112	27.19
786.289	27.63
786.467	27.16
786.645	26.63
786.823	26.93
787	27.5
787.178	27.85
787.356	28.07
787.533	28.3
787.711	27.32
787.889	26.91
788.066	27.12
788.244	27.72
788.421	28
788.599	28.75
788.776	28.41
788.954	27.59
789.131	27.55
789.309	27.1
789.486	27.22
789.664	27.62
789.841	27.46
790.019	26.83
790.196	26.68
790.373	27.4
790.551	26.2
790.728	25.3
790.906	26.13
791.083	26.25
791.26	26.21
791.437	26.35
791.615	26.84
791.792	27.33
791.969	27.34
792.146	27.21
792.324	26.8
792.501	27.75
792.678	28.76
792.855	28.87
793.032	28.95
793.209	29.64
793.387	28.83
793.564	27.46
793.741	27
793.918	28.31
794.095	28.24
794.272	28.05
794.449	27.78
794.626	28.27
794.803	28.3
794.98	28.05
795.157	27.6
795.334	28.32
795.511	29.69
795.688	30.24
795.864	29.12
796.041	29.19
796.218	29.57
796.395	28.76
796.572	29.22
796.749	29.01
796.925	29.12
797.102	29.19
797.279	28.16
797.456	27.66
797.632	26.74
797.809	27.88
797.986	27.98
798.162	27.09
798.339	26.87
798.516	26.6
798.692	26.79
798.869	26.56
799.046	26.97
799.222	27.63
799.399	27.47
799.575	27.75
799.752	27.38
799.928	27.14
800.105	28.18
800.281	29.36
800.458	29.07
800.634	29.5
800.811	30.34
800.987	30.54
801.163	31.27
801.34	30.78
801.516	32.14
801.692	32.43
801.869	31.83
802.045	31.23
802.221	31.82
802.398	31.88
802.574	31.1
802.75	30.6
802.926	29.95
803.103	29.4
803.279	30.17
803.455	29.67
803.631	29.15
803.807	29.49
803.983	30.4
804.16	29.42
804.336	29.85
804.512	29.62
804.688	29.31
804.864	29.51
805.04	30.11
805.216	30.37
805.392	29.47
805.568	29.42
805.744	29.3
805.92	28.26
806.096	28.9
806.272	28.17
806.448	27.54
806.623	28.57
806.799	27.72
806.975	27.28
807.151	26.68
807.327	26.63
807.503	26.83
807.678	26.21
807.854	27.08
808.03	26.62
808.206	27.27
808.381	27.69
808.557	27.52
808.733	28.18
808.908	27.24
809.084	27.41
809.26	28.83
809.435	28.66
809.611	29.66
809.787	29.2
809.962	29.63
810.138	28.7
810.313	29.7
810.489	29.66
810.664	29.89
810.84	30.2
811.015	30.02
811.191	29.04
811.366	29.22
811.542	28.86
811.717	28.86
811.892	28.08
812.068	28.69
812.243	28.6
812.419	27.84
812.594	27.17
812.769	27.59
812.944	26.41
813.12	26.9
813.295	25.81
813.47	26.37
813.645	26.09
813.821	25.96
813.996	26.51
814.171	26.71
814.346	26.18
814.521	27.47
814.697	27.84
814.872	27.6
815.047	26.84
815.222	26.43
815.397	26.89
815.572	27.3
815.747	28.85
815.922	27.14
816.097	26.33
816.272	25.77
816.447	25.34
816.622	24.62
816.797	25.32
816.972	25.58
817.147	26.5
817.322	26.27
817.496	27.3
817.671	27.28
817.846	28.79
818.021	29.4
818.196	30.74
818.371	30.72
818.545	30.88
818.72	30.99
818.895	30.88
819.069	31.02
819.244	30.63
819.419	29.19
819.594	28.8
819.768	29.19
819.943	28.66
820.117	27.65
820.292	27.21
820.467	26.94
820.641	26.91
820.816	26.95
820.99	26.44
821.165	26.38
821.339	26.32
821.514	26.24
821.688	25.62
821.863	25.53
822.037	25.91
822.212	25.98
822.386	25.89
822.56	25.73
822.735	25.69
822.909	26
823.084	26.01
823.258	26.19
823.432	26.19
823.606	26.36
823.781	26.52
823.955	26.09
824.129	26.14
824.303	26.11
824.478	26.38
824.652	26.07
824.826	26.33
825	26.3
825.174	26.2
825.348	25.67
825.523	25.75
825.697	25.45
825.871	25.91
826.045	25.38
826.219	25.5
826.393	25.38
826.567	25.81
826.741	25.65
826.915	25.5
827.089	25.45
827.263	25.79
827.437	25.41
827.611	25.46
827.784	25.05
827.958	25.33
828.132	24.96
828.306	24.98
828.48	24.77
828.654	24.58
828.827	24.87
829.001	25.34
829.175	25.47
829.349	25.73
829.522	25.69
829.696	27.27
829.87	27.66
830.044	28.73
830.217	28.27
830.391	27.68
830.565	27.15
830.738	27.12
830.912	25.7
831.085	26.69
831.259	26.07
831.432	26.73
831.606	26.09
831.779	25.62
831.953	25.27
832.126	25.94
832.3	26.99
832.473	26.37
832.647	25.77
832.82	26.29
832.994	25.32
833.167	25.69
833.34	24.71
833.514	24.57
833.687	24.86
833.86	25.2
834.034	24.82
834.207	25.01
834.38	25.96
834.553	26.25
834.727	26.21
834.9	26.5
835.073	27.42
835.246	27.9
835.419	27.42
835.593	27.75
835.766	27.49
835.939	27.67
836.112	26.9
836.285	27.01
836.458	27.89
836.631	28.47
836.804	28.2
836.977	27.69
837.15	28.32
837.323	28.72
837.496	29.36
837.669	30.76
837.842	32.51
838.015	33.08
838.188	32.81
838.361	30.38
838.533	29.87
838.706	31.2
838.879	31.72
839.052	32.28
839.225	32.1
839.398	31.54
839.57	31.27
839.743	32.58
839.916	33.04
840.088	32.12
840.261	34.08
840.434	33.85
840.607	33.24
840.779	33.67
840.952	34.02
841.124	33.84
841.297	33.7
841.47	32.75
841.642	32
841.815	31
841.987	32.3
842.16	31.89
842.332	32.19
842.505	31.56
842.677	28.22
842.85	28.35
843.022	26.41
843.194	24.31
843.367	24.5
843.539	21.24
843.712	23.38
843.884	22.61
844.056	21.77
844.229	23.39
844.401	24.85
844.573	27.43
844.745	25.68
844.918	30.11
845.09	33.19
845.262	33.38
845.434	32.47
845.606	31.3
845.779	30.76
845.951	32.47
846.123	30.83
846.295	27.63
846.467	26.77
846.639	29.91
846.811	27.46
846.983	28.13
847.155	27.36
847.327	30.03
847.499	33.77
847.671	38.63
847.843	38.78
848.015	39.62
848.187	42.36
848.359	41.89
848.531	40.02
848.703	40.05
848.875	39.39
849.047	38.9
849.218	41.72
849.39	36.58
849.562	32.4
849.734	32.8
849.905	32.87
850.077	32.17
850.249	36.92
850.421	38.54
850.592	42.08
850.764	41.64
850.936	45.07
851.107	43.8
851.279	48.44
851.451	45.89
851.622	43.14
851.794	42.75
851.965	42.29
852.137	41.85
852.308	40.77
852.48	38.89
852.651	40.3
852.823	37.46
852.994	33
853.166	30.3
853.337	30.57
853.509	33.18
853.68	36.7
853.851	35.25
854.023	35.49
854.194	35.04
854.365	33.64
854.537	33.6
854.708	36.6
854.879	37.35
855.05	37.43
855.222	40.77
855.393	40.65
855.564	34.58
855.735	37.23
855.906	35.61
856.078	35.81
856.249	37.21
856.42	36.3
856.591	34.9
856.762	33.77
856.933	35.32
857.104	35.28
857.275	37.64
857.446	45.35
857.617	43.22
857.788	40.99
857.959	41.48
858.13	40.87
858.301	42.17
858.472	39.43
858.643	43.43
858.814	41.49
858.985	40.97
859.155	36.49
859.326	31.93
859.497	36.39
859.668	37.99
859.839	37.87
860.009	37.5
860.18	36.45
860.351	36.01
860.522	33.79
860.692	34.32
860.863	33.39
861.034	35.88
861.204	33.93
861.375	36.32
861.546	33.22
861.716	30.61
861.887	31.64
862.057	29.43
862.228	33.82
862.398	32.52
862.569	33.01
862.739	34.02
862.91	33.03
863.08	34.72
863.251	30.69
863.421	33.02
863.592	33.36
863.762	30.08
863.932	35.82
864.103	36.25
864.273	38.65
864.443	36.36
864.614	36.46
864.784	35.71
864.954	38.08
865.125	36.64
865.295	35.76
865.465	35.71
865.635	37.96
865.805	34.04
865.976	31.25
866.146	34.42
866.316	35.26
866.486	31.27
866.656	32.55
866.826	27.33
866.996	31.61
867.166	34.05
867.336	32.6
867.506	35.51
867.676	32.73
867.846	32.55
868.016	33.42
868.186	35.17
868.356	33.91
868.526	35.5
868.696	37.62
868.866	32.03
869.036	31.14
869.206	34.47
869.376	29.72
869.545	32.72
869.715	33.62
869.885	27.91
870.055	28.59
870.224	30.54
870.394	27.26
870.564	30.47
870.734	31.98
870.903	32.25
871.073	36.37
871.243	38.81
871.412	39.24
871.582	39.92
871.751	40.37
871.921	35.35
872.091	37.62
872.26	39.6
872.43	43.14
872.599	44.33
872.769	43.75
872.938	41.44
873.108	41.94
873.277	40.6
873.446	38.86
873.616	41.62
873.785	44.82
873.955	40.54
874.124	39.6
874.293	35.91
874.463	33.42
874.632	33.63
874.801	32.19
874.971	31.35
875.14	27.17
875.309	28.59
875.478	29.53
875.647	32.6
875.817	34.32
875.986	35.49
876.155	32.55
876.324	35.92
876.493	37.24
876.662	32.91
876.831	36.82
877	40.46
877.17	43.62
877.339	42.45
877.508	43.47
877.677	44.69
877.846	43.16
878.015	46.36
878.184	46.84
878.352	45.41
878.521	48.16
878.69	42.89
878.859	42.51
879.028	39.6
879.197	39.33
879.366	35.54
879.534	33.23
879.703	32.28
879.872	29.69
880.041	27.56
880.21	26.88
880.378	26.3
880.547	25.54
880.716	24.05
880.884	24.75
881.053	23.61
881.222	24.14
881.39	24.18
881.559	25.34
881.727	26.28
881.896	26.34
882.065	26.32
882.233	26.14
882.402	27.41
882.57	27.65
882.739	26.93
882.907	27.21
883.076	26.76
883.244	26.79
883.412	25.32
883.581	25.43
883.749	25.17
883.918	25.54
884.086	26.11
884.254	25.73
884.423	25.9
884.591	26.41
884.759	26.98
884.927	27.43
885.096	28.34
885.264	29.7
885.432	27.7
885.6	28.99
885.769	27.87
885.937	27.57
886.105	27.13
886.273	29.43
886.441	28.9
886.609	28.05
886.777	29.01
886.945	30.3
887.113	31.29
887.281	33.31
887.449	33.19
887.617	35.25
887.785	37.3
887.953	37.12
888.121	34.34
888.289	34.3
888.457	37.03
888.625	34.49
888.793	35
888.961	33.8
889.129	32.56
889.296	33.39
889.464	33.99
889.632	32.54
889.8	31.95
889.967	34.1
890.135	38.2
