Data from 2938542_Reflection_23-29-56-074.txt Node
Date: Mon Jun 15 23:29:56 EDT 2015
User: robert
Spectrometer: USB4E03002
Autoset integration time: false
Trigger mode: 4
Integration Time (sec): 1.000000E-1
Scans to average: 10
Electric dark correction enabled: true
Nonlinearity correction enabled: false
Boxcar width: 6
Stray light correction enabled: false
XAxis mode: Wavelengths
Stop averaging: false
Number of Pixels in Spectrum: 3648
>>>>>Begin Spectral Data<<<<<
177.575	75.75
177.794	91.3
178.014	93.57
178.233	57.53
178.452	-361.65
178.672	14.17
178.891	-220
179.11	-98.39
179.33	-59.14
179.549	-52.86
179.768	4.36
179.987	22.44
180.207	29.73
180.426	53.69
180.645	49.62
180.864	69.94
181.084	62.18
181.303	36.91
181.522	51.09
181.741	60.39
181.96	82.27
182.179	96.81
182.398	78.04
182.618	103.72
182.837	75.26
183.056	68
183.275	53.61
183.494	61.76
183.713	60.05
183.932	40.05
184.151	47.67
184.37	47.45
184.589	31.35
184.808	75.94
185.027	132.31
185.246	183.33
185.465	82.48
185.684	84.54
185.903	112.22
186.122	210.64
186.341	-205
186.56	-135.8
186.779	-620.51
186.998	256.34
187.216	-1065.38
187.435	-92.02
187.654	-276.7
187.873	-1123.81
188.092	-85.16
188.311	-191.27
188.53	-1537.5
188.748	1915
188.967	390
189.186	804.88
189.405	394.81
189.623	-651.92
189.842	-109.32
190.061	-2563.64
190.28	236.04
190.498	410.53
190.717	182.43
190.936	928.57
191.154	381.08
191.373	-1544.44
191.592	-459.26
191.81	-729.73
192.029	-819.35
192.248	-641.27
192.466	1275
192.685	341.78
192.904	471.07
193.122	-953.06
193.341	-1714.81
193.559	-226.29
193.778	-351.3
193.996	-124.43
194.215	-135.12
194.433	-90.66
194.652	-63.25
194.87	-42.61
195.089	-2.9
195.307	6.98
195.526	26.22
195.744	52.87
195.963	87.43
196.181	41.62
196.399	457.58
196.618	64.89
196.836	85.03
197.055	151.85
197.273	266.67
197.491	132.4
197.71	165.8
197.928	107.24
198.146	86.52
198.365	97.06
198.583	113.36
198.801	-7050
199.019	-195.79
199.238	-215.52
199.456	-443.75
199.674	-17.77
199.892	139.1
200.111	196.43
200.329	-1.28
200.547	-4.47
200.765	25
200.983	7.26
201.202	30.86
201.42	-74.48
201.638	-51.65
201.856	-81.67
202.074	-173.04
202.292	-113.97
202.51	-41.07
202.728	-87.45
202.946	-42.86
203.165	-17.19
203.383	-35.38
203.601	-14.78
203.819	-4.72
204.037	-45.05
204.255	-19.72
204.473	-45.71
204.691	-81.47
204.909	-27.59
205.127	-8.06
205.345	-37.04
205.562	-7.01
205.78	47.74
205.998	45.34
206.216	48.85
206.434	6.75
206.652	-8.27
206.87	72.86
207.088	53.03
207.306	49.45
207.523	72.71
207.741	92.51
207.959	75.26
208.177	109.85
208.395	64.52
208.612	42.42
208.83	61.08
209.048	93.89
209.266	104.78
209.483	108.17
209.701	84.23
209.919	179.23
210.136	94.86
210.354	76.34
210.572	86.86
210.79	66.96
211.007	26.92
211.225	32.32
211.442	32.46
211.66	16.84
211.878	-101.18
212.095	-129.74
212.313	-115.43
212.53	-104.74
212.748	-81.13
212.966	-104.86
213.183	-87.87
213.401	-69.64
213.618	-50.5
213.836	-48.26
214.053	-44.66
214.271	-63.23
214.488	-129.55
214.705	40.29
214.923	52.97
215.14	21.32
215.358	23.07
215.575	16.32
215.793	16.53
216.01	0.68
216.227	-19.44
216.445	-12.12
216.662	-6.69
216.879	-29.54
217.097	-14.84
217.314	-24.31
217.531	-20.09
217.749	-28.82
217.966	-19.14
218.183	-26.89
218.4	-26.94
218.618	-29.95
218.835	-43.4
219.052	-39.46
219.269	-50
219.487	-46.96
219.704	-4.9
219.921	-12.46
220.138	-3.1
220.355	-5.11
220.572	2.86
220.79	-2.85
221.007	0.23
221.224	-8.63
221.441	0.68
221.658	13.52
221.875	-0.77
222.092	-1.38
222.309	-0.09
222.526	-4.48
222.743	-6.06
222.96	-3.73
223.177	-0.12
223.394	-2.54
223.611	2.24
223.828	4.24
224.045	6.35
224.262	4.13
224.479	1.27
224.696	5.52
224.913	5.53
225.13	6.15
225.347	7.05
225.564	5.83
225.781	4.71
225.997	5.14
226.214	4.03
226.431	4.62
226.648	3.98
226.865	4.41
227.082	5.78
227.298	6.43
227.515	6.59
227.732	6.58
227.949	5.55
228.165	5.87
228.382	7.13
228.599	7.78
228.816	7.41
229.032	8.36
229.249	8.43
229.466	8.98
229.682	8.68
229.899	7.66
230.116	6.58
230.332	6.15
230.549	5.07
230.765	6.95
230.982	6.21
231.199	5.07
231.415	3.85
231.632	3.72
231.848	3.68
232.065	1.72
232.281	0.75
232.498	1.07
232.714	-1.06
232.931	1.15
233.147	0.53
233.364	0.65
233.58	0.26
233.797	0.89
234.013	0.09
234.23	1.21
234.446	0.55
234.662	-0.26
234.879	-0.02
235.095	0.45
235.312	1.17
235.528	2
235.744	0.71
235.961	1.04
236.177	2.63
236.393	1
236.61	0.48
236.826	2.95
237.042	3.01
237.258	2.55
237.475	3.07
237.691	2.88
237.907	3.22
238.123	3.52
238.339	5.56
238.556	6.5
238.772	6.07
238.988	5.12
239.204	5.93
239.42	6.08
239.636	5.45
239.853	6.82
240.069	6.99
240.285	6.98
240.501	7.35
240.717	7.4
240.933	7.84
241.149	7.22
241.365	7.65
241.581	8.5
241.797	8.64
242.013	8.56
242.229	8.81
242.445	9.2
242.661	8.13
242.877	8.15
243.093	8.38
243.309	8.26
243.525	7.89
243.741	6.55
243.957	6.65
244.173	6
244.388	6.05
244.604	6.31
244.82	6.15
245.036	5.66
245.252	5.56
245.468	5.52
245.683	5.65
245.899	5.37
246.115	5.34
246.331	5.45
246.547	5.73
246.762	5.95
246.978	5.73
247.194	5.79
247.409	5.96
247.625	5.7
247.841	6.29
248.057	6.11
248.272	6.15
248.488	5.99
248.703	6.39
248.919	6.47
249.135	5.89
249.35	6.09
249.566	5.65
249.782	6.54
249.997	6.43
250.213	5.92
250.428	6.44
250.644	5.69
250.859	5.8
251.075	5.97
251.29	6.04
251.506	5.76
251.721	5.87
251.937	6.82
252.152	7.35
252.368	7.53
252.583	6.79
252.798	6.05
253.014	6.12
253.229	5.51
253.445	6.39
253.66	6.75
253.875	6.93
254.091	6.88
254.306	6.48
254.521	6.65
254.737	5.3
254.952	4.82
255.167	4.55
255.383	3.95
255.598	4.8
255.813	4
256.028	5.08
256.244	4.41
256.459	3.99
256.674	4.31
256.889	4.26
257.104	4.15
257.32	4.54
257.535	4.75
257.75	4.35
257.965	4.23
258.18	4.73
258.395	4.56
258.61	4.89
258.826	4.68
259.041	4.7
259.256	4.95
259.471	4.61
259.686	4.67
259.901	4.78
260.116	4.56
260.331	4.76
260.546	5.05
260.761	5.36
260.976	5.14
261.191	4.83
261.406	4.65
261.621	4.52
261.836	4.78
262.05	4.57
262.265	4.83
262.48	4.71
262.695	5
262.91	4.23
263.125	3.56
263.34	3.56
263.555	3.19
263.769	3.17
263.984	3.76
264.199	3.56
264.414	3.47
264.629	3.37
264.843	3.66
265.058	3.67
265.273	3.2
265.488	3.31
265.702	3.41
265.917	3.79
266.132	3.99
266.346	4.32
266.561	4.33
266.776	4
266.99	4.28
267.205	4.31
267.42	3.92
267.634	3.86
267.849	4
268.063	4.75
268.278	4.39
268.492	4.81
268.707	4.62
268.922	4.14
269.136	4.53
269.351	4.7
269.565	4.49
269.78	4.54
269.994	4.28
270.209	4.34
270.423	4.06
270.637	4.07
270.852	3.81
271.066	4.11
271.281	4.18
271.495	4.39
271.709	4.7
271.924	4.5
272.138	4.35
272.353	4.84
272.567	4.58
272.781	4.51
272.996	4.71
273.21	4.71
273.424	4.35
273.638	4.56
273.853	4.8
274.067	4.13
274.281	3.97
274.495	3.6
274.71	3.09
274.924	2.48
275.138	2.14
275.352	2.45
275.566	2.89
275.781	2.63
275.995	2.79
276.209	2.51
276.423	2.16
276.637	1.62
276.851	2.33
277.065	2.33
277.279	2.89
277.493	3.4
277.707	3.65
277.921	3.71
278.135	3.57
278.349	3.59
278.563	3.87
278.777	3.4
278.991	3.95
279.205	4.3
279.419	4.35
279.633	3.94
279.847	4.09
280.061	4
280.275	3.88
280.489	4.16
280.703	4.3
280.917	4.53
281.131	4.77
281.344	4.83
281.558	5.36
281.772	5.29
281.986	5
282.2	5.14
282.414	5.35
282.627	5.05
282.841	5.17
283.055	5.28
283.269	5.24
283.482	5.03
283.696	4.94
283.91	4.44
284.123	4.55
284.337	4.43
284.551	4.32
284.764	4.21
284.978	3.98
285.192	3.69
285.405	4.01
285.619	3.97
285.833	3.78
286.046	4.17
286.26	4.34
286.473	4.52
286.687	5.09
286.9	5.33
287.114	5.38
287.327	5.48
287.541	5.76
287.754	6.14
287.968	6.35
288.181	6.13
288.395	6.12
288.608	6.19
288.822	5.48
289.035	5.57
289.248	5.33
289.462	4.96
289.675	4.61
289.889	4.43
290.102	4.57
290.315	4.28
290.529	4.08
290.742	3.95
290.955	4.06
291.169	3.65
291.382	3.71
291.595	3.93
291.808	3.94
292.022	4.1
292.235	4.22
292.448	4.54
292.661	4.66
292.875	4.72
293.088	5.01
293.301	5.09
293.514	5.31
293.727	5.26
293.94	5.52
294.153	5.41
294.367	5.54
294.58	5.42
294.793	5.53
295.006	5.69
295.219	5.34
295.432	5.26
295.645	5.06
295.858	4.91
296.071	4.97
296.284	5.13
296.497	5.15
296.71	5.32
296.923	5.28
297.136	5.39
297.349	5.42
297.562	5.27
297.775	5.21
297.988	5.75
298.201	5.96
298.414	6.11
298.626	6.22
298.839	6.21
299.052	5.94
299.265	5.8
299.478	5.74
299.691	5.83
299.903	5.85
300.116	6.12
300.329	5.97
300.542	6.08
300.755	5.94
300.967	5.79
301.18	5.85
301.393	5.92
301.605	6.04
301.818	6.28
302.031	6.42
302.243	6.06
302.456	6.02
302.669	5.92
302.881	5.83
303.094	5.96
303.307	5.64
303.519	5.72
303.732	5.69
303.944	5.5
304.157	5.58
304.37	5.48
304.582	5.54
304.795	5.74
305.007	5.72
305.22	5.66
305.432	5.68
305.645	5.29
305.857	5.64
306.069	5.92
306.282	5.59
306.494	6.08
306.707	6.33
306.919	6.24
307.132	6.45
307.344	6.35
307.556	6.26
307.769	6.15
307.981	6.38
308.193	6.51
308.406	6.85
308.618	6.63
308.83	6.38
309.043	6.55
309.255	6.79
309.467	6.89
309.679	7.23
309.892	7
310.104	7.24
310.316	7.54
310.528	8.17
310.74	8.11
310.953	8.4
311.165	8.53
311.377	8.58
311.589	9.01
311.801	8.69
312.013	8.38
312.225	7.95
312.437	8.07
312.649	8.12
312.862	7.99
313.074	7.84
313.286	7.38
313.498	7.36
313.71	7.07
313.922	6.89
314.134	7.07
314.346	6.89
314.558	7.11
314.77	7.09
314.982	7.51
315.193	6.89
315.405	6.9
315.617	6.65
315.829	6.52
316.041	6.72
316.253	6.91
316.465	6.66
316.677	6.72
316.888	6.68
317.1	6.94
317.312	7.11
317.524	7.21
317.736	7.07
317.947	7.56
318.159	7.79
318.371	8.45
318.583	8.58
318.794	8.69
319.006	9.07
319.218	9.55
319.43	9.41
319.641	9.68
319.853	9.57
320.064	9.65
320.276	9.71
320.488	9.86
320.699	9.84
320.911	9.96
321.123	9.79
321.334	9.76
321.546	9.34
321.757	8.58
321.969	8.46
322.18	8.73
322.392	8.93
322.603	8.94
322.815	8.97
323.026	8.67
323.238	8.51
323.449	8.59
323.661	8.92
323.872	8.85
324.083	8.99
324.295	9.4
324.506	10.05
324.718	10.19
324.929	10.07
325.14	9.59
325.352	9.79
325.563	10
325.774	10.51
325.986	10.95
326.197	11.08
326.408	10.83
326.62	11.03
326.831	11.33
327.042	11.81
327.253	12.11
327.464	11.97
327.676	12.26
327.887	12.4
328.098	12.53
328.309	12.62
328.52	12.66
328.732	12.94
328.943	12.93
329.154	13.26
329.365	13.51
329.576	13.15
329.787	12.96
329.998	12.98
330.209	13.1
330.42	13.03
330.631	13.7
330.842	13.96
331.053	14.11
331.264	14.06
331.475	14.13
331.686	14.4
331.897	14.14
332.108	13.98
332.319	14.43
332.53	14.47
332.741	14.34
332.952	14.33
333.163	14.42
333.374	14.52
333.585	14.58
333.795	14.13
334.006	14.22
334.217	14.09
334.428	14.21
334.639	14.55
334.849	14.25
335.06	14.17
335.271	14.28
335.482	14.03
335.692	14.63
335.903	14.76
336.114	14.56
336.325	14.32
336.535	14.71
336.746	14.64
336.957	14.75
337.167	14.51
337.378	14.65
337.589	14.93
337.799	15.07
338.01	15.34
338.22	15.25
338.431	14.85
338.642	15.12
338.852	15.28
339.063	15.3
339.273	15.44
339.484	15.79
339.694	15.95
339.905	16.11
340.115	15.91
340.326	15.73
340.536	15.61
340.746	15.39
340.957	15.66
341.167	15.9
341.378	15.88
341.588	15.75
341.799	15.82
342.009	15.73
342.219	15.69
342.43	15.32
342.64	15.27
342.85	15.12
343.061	15.15
343.271	15.02
343.481	14.92
343.691	15.02
343.902	15.05
344.112	14.8
344.322	14.84
344.532	14.86
344.743	14.71
344.953	14.5
345.163	14.78
345.373	14.7
345.583	14.74
345.793	15.38
346.004	15.67
346.214	16.05
346.424	15.99
346.634	15.81
346.844	15.99
347.054	15.81
347.264	15.91
347.474	15.89
347.684	15.92
347.894	15.89
348.104	16.03
348.314	16.2
348.524	15.6
348.734	15.78
348.944	15.17
349.154	15.18
349.364	15.36
349.574	15.23
349.784	15.25
349.994	15.15
350.204	15.38
350.413	15.44
350.623	15.43
350.833	15.27
351.043	15.22
351.253	15.26
351.463	14.86
351.672	15.09
351.882	15.1
352.092	14.67
352.302	14.83
352.511	14.71
352.721	14.78
352.931	14.69
353.141	14.57
353.35	14.34
353.56	14.37
353.77	14.44
353.979	14.53
354.189	14.47
354.399	14.49
354.608	14.5
354.818	14.83
355.027	14.77
355.237	14.94
355.447	14.82
355.656	14.7
355.866	14.8
356.075	14.84
356.285	14.82
356.494	14.83
356.704	14.57
356.913	14.68
357.123	14.77
357.332	14.79
357.542	14.66
357.751	14.59
357.96	14.5
358.17	14.54
358.379	14.59
358.589	14.56
358.798	14.45
359.007	14.44
359.217	14.17
359.426	14.43
359.635	14.52
359.845	14.54
360.054	14.31
360.263	14.24
360.472	14.11
360.682	14.05
360.891	13.91
361.1	14.03
361.309	14.04
361.519	14.06
361.728	14.17
361.937	14.44
362.146	14.38
362.355	14.24
362.564	14.02
362.774	14.04
362.983	14.14
363.192	14.3
363.401	14.42
363.61	14.81
363.819	14.67
364.028	14.45
364.237	14.53
364.446	14.35
364.655	14.28
364.864	14.24
365.073	14.17
365.282	14.18
365.491	14.33
365.7	14.26
365.909	14.1
366.118	13.82
366.327	13.57
366.536	13.46
366.745	13.69
366.954	13.85
367.162	13.89
367.371	13.85
367.58	13.67
367.789	13.55
367.998	13.54
368.207	13.48
368.415	13.7
368.624	13.74
368.833	13.94
369.042	13.85
369.25	13.85
369.459	13.84
369.668	13.48
369.877	13.58
370.085	13.4
370.294	13.46
370.503	13.72
370.711	13.66
370.92	13.85
371.129	13.57
371.337	13.44
371.546	13.44
371.754	13.49
371.963	13.49
372.171	13.26
372.38	13.27
372.589	13.21
372.797	13.17
373.006	13.05
373.214	13
373.423	13.2
373.631	13.05
373.84	13.28
374.048	13.26
374.256	13.3
374.465	13.34
374.673	13.35
374.882	13.44
375.09	13.48
375.298	13.42
375.507	13.32
375.715	13.5
375.923	13.23
376.132	13.08
376.34	13.03
376.548	12.83
376.757	12.82
376.965	12.69
377.173	12.48
377.381	12.36
377.59	12.22
377.798	12.15
378.006	12.06
378.214	12.03
378.423	11.96
378.631	11.91
378.839	11.89
379.047	11.72
379.255	11.79
379.463	11.79
379.671	11.84
379.879	11.79
380.088	11.95
380.296	12.01
380.504	12.01
380.712	11.91
380.92	11.89
381.128	11.75
381.336	11.74
381.544	11.48
381.752	11.57
381.96	11.46
382.168	11.29
382.376	11.13
382.584	11.27
382.791	11.06
382.999	11.08
383.207	11.1
383.415	11.34
383.623	11.46
383.831	11.55
384.039	11.69
384.247	11.78
384.454	11.72
384.662	11.69
384.87	11.88
385.078	11.91
385.285	11.74
385.493	11.81
385.701	11.76
385.909	11.7
386.116	11.47
386.324	11.56
386.532	11.5
386.739	11.55
386.947	11.6
387.155	11.48
387.362	11.44
387.57	11.41
387.778	11.38
387.985	11.34
388.193	11.36
388.4	11.31
388.608	11.32
388.816	11.35
389.023	11.16
389.231	11.15
389.438	10.92
389.646	10.98
389.853	10.96
390.061	10.95
390.268	10.9
390.475	10.8
390.683	10.88
390.89	10.85
391.098	10.79
391.305	10.76
391.512	10.85
391.72	10.85
391.927	10.78
392.135	10.82
392.342	10.82
392.549	10.87
392.756	10.84
392.964	10.93
393.171	11
393.378	10.97
393.586	10.83
393.793	10.85
394	10.84
394.207	10.62
394.414	10.52
394.622	10.51
394.829	10.53
395.036	10.47
395.243	10.44
395.45	10.43
395.657	10.31
395.864	10.25
396.072	10.24
396.279	10.42
396.486	10.28
396.693	10.37
396.9	10.51
397.107	10.66
397.314	10.65
397.521	10.64
397.728	10.67
397.935	10.73
398.142	10.77
398.349	10.74
398.556	10.81
398.763	10.73
398.97	10.6
399.177	10.71
399.383	10.65
399.59	10.47
399.797	10.55
400.004	10.72
400.211	10.75
400.418	10.66
400.625	10.57
400.831	10.58
401.038	10.43
401.245	10.34
401.452	10.36
401.658	10.32
401.865	10.34
402.072	10.35
402.279	10.41
402.485	10.18
402.692	10.06
402.899	10.09
403.105	9.87
403.312	9.9
403.519	9.87
403.725	9.94
403.932	10.15
404.138	10.21
404.345	10.23
404.552	10.18
404.758	10.14
404.965	10.04
405.171	10.19
405.378	10
405.584	9.99
405.791	10.18
405.997	10.19
406.204	10.15
406.41	10.23
406.617	10.11
406.823	9.85
407.029	9.88
407.236	9.92
407.442	9.97
407.649	9.97
407.855	9.8
408.061	9.98
408.268	9.89
408.474	9.78
408.68	9.78
408.887	9.8
409.093	9.68
409.299	9.6
409.505	9.76
409.712	9.82
409.918	9.78
410.124	9.67
410.33	9.66
410.537	9.76
410.743	9.65
410.949	9.65
411.155	9.72
411.361	9.66
411.567	9.52
411.773	9.48
411.98	9.55
412.186	9.6
412.392	9.45
412.598	9.52
412.804	9.59
413.01	9.66
413.216	9.57
413.422	9.59
413.628	9.49
413.834	9.47
414.04	9.46
414.246	9.57
414.452	9.62
414.658	9.44
414.864	9.35
415.07	9.4
415.275	9.32
415.481	9.28
415.687	9.3
415.893	9.21
416.099	9.17
416.305	9.23
416.511	9.18
416.716	9.14
416.922	9.07
417.128	9.12
417.334	9.22
417.539	9.25
417.745	9.19
417.951	9.24
418.157	9.25
418.362	9.17
418.568	9.19
418.774	9.19
418.979	9.09
419.185	9.09
419.391	9.03
419.596	9.01
419.802	9
420.008	8.97
420.213	8.86
420.419	8.84
420.624	8.77
420.83	8.75
421.035	8.74
421.241	8.77
421.446	8.78
421.652	8.84
421.857	8.78
422.063	8.82
422.268	8.82
422.474	8.75
422.679	8.75
422.885	8.75
423.09	8.7
423.295	8.69
423.501	8.68
423.706	8.66
423.911	8.59
424.117	8.48
424.322	8.43
424.527	8.45
424.733	8.35
424.938	8.32
425.143	8.41
425.349	8.37
425.554	8.48
425.759	8.51
425.964	8.44
426.169	8.37
426.375	8.3
426.58	8.28
426.785	8.4
426.99	8.35
427.195	8.36
427.4	8.56
427.605	8.6
427.811	8.49
428.016	8.52
428.221	8.37
428.426	8.28
428.631	8.32
428.836	8.24
429.041	8.3
429.246	8.29
429.451	8.31
429.656	8.34
429.861	8.41
430.066	8.25
430.271	8.24
430.476	8.16
430.681	8.1
430.886	8.2
431.09	8.2
431.295	8.17
431.5	8.25
431.705	8.29
431.91	8.37
432.115	8.35
432.32	8.41
432.524	8.35
432.729	8.42
432.934	8.39
433.139	8.45
433.343	8.4
433.548	8.3
433.753	8.44
433.958	8.41
434.162	8.36
434.367	8.36
434.572	8.3
434.776	8.33
434.981	8.24
435.186	8.24
435.39	8.19
435.595	8.16
435.799	8.08
436.004	8.09
436.209	8.22
436.413	8.18
436.618	8.26
436.822	8.3
437.027	8.29
437.231	8.23
437.436	8.19
437.64	8.27
437.845	8.28
438.049	8.36
438.253	8.36
438.458	8.39
438.662	8.44
438.867	8.43
439.071	8.32
439.275	8.32
439.48	8.34
439.684	8.31
439.888	8.4
440.093	8.41
440.297	8.41
440.501	8.4
440.706	8.46
440.91	8.47
441.114	8.56
441.318	8.55
441.523	8.58
441.727	8.67
441.931	8.65
442.135	8.62
442.339	8.67
442.543	8.68
442.748	8.67
442.952	8.65
443.156	8.69
443.36	8.52
443.564	8.5
443.768	8.44
443.972	8.47
444.176	8.4
444.38	8.42
444.584	8.31
444.788	8.28
444.992	8.24
445.196	8.22
445.4	8.19
445.604	8.13
445.808	8.04
446.012	8.04
446.216	7.99
446.42	7.95
446.624	7.86
446.828	7.87
447.032	7.79
447.235	7.89
447.439	7.86
447.643	7.81
447.847	7.75
448.051	7.72
448.254	7.74
448.458	7.76
448.662	7.76
448.866	7.74
449.069	7.81
449.273	7.8
449.477	7.78
449.681	7.82
449.884	7.83
450.088	7.95
450.292	8.06
450.495	8.13
450.699	8.2
450.902	8.22
451.106	8.25
451.31	8.27
451.513	8.32
451.717	8.26
451.92	8.24
452.124	8.24
452.327	8.19
452.531	8.31
452.734	8.17
452.938	8.14
453.141	8
453.345	7.89
453.548	7.82
453.752	7.8
453.955	7.71
454.158	7.67
454.362	7.69
454.565	7.72
454.769	7.78
454.972	7.88
455.175	7.8
455.379	7.81
455.582	7.82
455.785	7.99
455.988	8.08
456.192	8.08
456.395	8.09
456.598	8.14
456.801	8.19
457.005	8.08
457.208	8.02
457.411	7.93
457.614	7.89
457.817	7.85
458.021	7.82
458.224	7.81
458.427	7.75
458.63	7.74
458.833	7.77
459.036	7.74
459.239	7.75
459.442	7.79
459.645	7.85
459.848	7.93
460.051	8
460.254	8
460.457	7.95
460.66	8.06
460.863	8.05
461.066	8.08
461.269	8.02
461.472	8.01
461.675	8.05
461.878	8.01
462.081	7.98
462.284	7.93
462.486	7.87
462.689	7.8
462.892	7.75
463.095	7.9
463.298	7.87
463.5	7.87
463.703	7.83
463.906	7.96
464.109	7.93
464.311	8.02
464.514	8.11
464.717	8.11
464.92	8.29
465.122	8.35
465.325	8.37
465.528	8.42
465.73	8.27
465.933	8.19
466.135	8.25
466.338	8.3
466.541	8.26
466.743	8.21
466.946	8.06
467.148	8.07
467.351	8
467.553	7.9
467.756	7.86
467.958	7.83
468.161	7.85
468.363	7.94
468.566	7.94
468.768	7.83
468.971	7.79
469.173	7.74
469.375	7.83
469.578	7.9
469.78	7.95
469.983	8.03
470.185	8.12
470.387	8.19
470.59	8.21
470.792	8.19
470.994	8.12
471.196	8.23
471.399	8.37
471.601	8.36
471.803	8.4
472.005	8.45
472.208	8.42
472.41	8.44
472.612	8.39
472.814	8.4
473.016	8.35
473.218	8.35
473.421	8.38
473.623	8.41
473.825	8.38
474.027	8.34
474.229	8.4
474.431	8.41
474.633	8.34
474.835	8.36
475.037	8.38
475.239	8.37
475.441	8.42
475.643	8.44
475.845	8.43
476.047	8.41
476.249	8.45
476.451	8.49
476.653	8.52
476.855	8.52
477.057	8.5
477.258	8.52
477.46	8.54
477.662	8.41
477.864	8.44
478.066	8.34
478.268	8.31
478.469	8.35
478.671	8.33
478.873	8.35
479.075	8.34
479.276	8.33
479.478	8.26
479.68	8.32
479.882	8.32
480.083	8.29
480.285	8.32
480.487	8.31
480.688	8.35
480.89	8.36
481.091	8.34
481.293	8.34
481.495	8.28
481.696	8.25
481.898	8.21
482.099	8.22
482.301	8.19
482.502	8.18
482.704	8.17
482.905	8.15
483.107	8.14
483.308	8.11
483.51	8.1
483.711	8.11
483.913	8.1
484.114	8.15
484.315	8.17
484.517	8.19
484.718	8.22
484.92	8.23
485.121	8.25
485.322	8.28
485.524	8.28
485.725	8.27
485.926	8.29
486.127	8.27
486.329	8.24
486.53	8.21
486.731	8.18
486.932	8.14
487.134	8.14
487.335	8.13
487.536	8.14
487.737	8.15
487.938	8.14
488.139	8.17
488.341	8.2
488.542	8.19
488.743	8.26
488.944	8.3
489.145	8.39
489.346	8.43
489.547	8.48
489.748	8.46
489.949	8.5
490.15	8.5
490.351	8.48
490.552	8.48
490.753	8.48
490.954	8.47
491.155	8.5
491.356	8.47
491.557	8.43
491.758	8.37
491.959	8.37
492.159	8.33
492.36	8.38
492.561	8.36
492.762	8.36
492.963	8.41
493.164	8.44
493.364	8.41
493.565	8.45
493.766	8.48
493.967	8.49
494.167	8.6
494.368	8.68
494.569	8.69
494.769	8.77
494.97	8.77
495.171	8.74
495.371	8.81
495.572	8.8
495.773	8.85
495.973	8.91
496.174	8.92
496.375	8.91
496.575	8.97
496.776	8.97
496.976	8.98
497.177	9
497.377	9.04
497.578	9.08
497.778	9.11
497.979	9.12
498.179	9.21
498.38	9.23
498.58	9.32
498.78	9.35
498.981	9.41
499.181	9.41
499.382	9.44
499.582	9.45
499.782	9.47
499.983	9.47
500.183	9.46
500.383	9.45
500.584	9.46
500.784	9.47
500.984	9.45
501.184	9.45
501.385	9.48
501.585	9.49
501.785	9.52
501.985	9.57
502.185	9.58
502.386	9.64
502.586	9.63
502.786	9.67
502.986	9.85
503.186	9.87
503.386	9.81
503.586	9.92
503.786	9.95
503.987	10.02
504.187	10.03
504.387	10.13
504.587	10.15
504.787	10.25
504.987	10.26
505.187	10.34
505.387	10.35
505.587	10.34
505.786	10.4
505.986	10.48
506.186	10.5
506.386	10.54
506.586	10.56
506.786	10.65
506.986	10.65
507.186	10.65
507.386	10.62
507.585	10.61
507.785	10.64
507.985	10.67
508.185	10.71
508.384	10.72
508.584	10.83
508.784	10.79
508.984	10.83
509.183	10.88
509.383	10.82
509.583	10.88
509.782	10.98
509.982	11.06
510.182	11.22
510.381	11.23
510.581	11.35
510.781	11.36
510.98	11.46
511.18	11.47
511.379	11.55
511.579	11.63
511.778	11.63
511.978	11.75
512.177	11.77
512.377	11.8
512.576	11.85
512.776	11.84
512.975	11.98
513.175	12.01
513.374	12.13
513.573	12.14
513.773	12.23
513.972	12.24
514.172	12.24
514.371	12.42
514.57	12.47
514.77	12.53
514.969	12.58
515.168	12.63
515.367	12.7
515.567	12.73
515.766	12.77
515.965	12.77
516.164	12.79
516.364	12.77
516.563	12.88
516.762	12.9
516.961	12.9
517.16	12.95
517.359	12.97
517.559	13.02
517.758	13.03
517.957	13.06
518.156	13.06
518.355	13.09
518.554	13.13
518.753	13.18
518.952	13.28
519.151	13.25
519.35	13.28
519.549	13.35
519.748	13.37
519.947	13.44
520.146	13.48
520.345	13.55
520.544	13.68
520.743	13.78
520.942	13.92
521.141	14.04
521.339	14.07
521.538	14.08
521.737	14.21
521.936	14.31
522.135	14.32
522.333	14.38
522.532	14.49
522.731	14.56
522.93	14.63
523.129	14.65
523.327	14.69
523.526	14.71
523.725	14.75
523.923	14.86
524.122	14.94
524.321	14.97
524.519	15.04
524.718	15.08
524.917	15.13
525.115	15.22
525.314	15.22
525.512	15.3
525.711	15.34
525.909	15.39
526.108	15.44
526.306	15.53
526.505	15.55
526.703	15.58
526.902	15.6
527.1	15.62
527.299	15.61
527.497	15.62
527.696	15.59
527.894	15.6
528.092	15.59
528.291	15.58
528.489	15.59
528.688	15.56
528.886	15.53
529.084	15.54
529.283	15.58
529.481	15.65
529.679	15.73
529.877	15.81
530.076	15.96
530.274	16.06
530.472	16.16
530.67	16.28
530.869	16.36
531.067	16.45
531.265	16.55
531.463	16.61
531.661	16.67
531.859	16.67
532.057	16.66
532.255	16.65
532.454	16.66
532.652	16.6
532.85	16.65
533.048	16.66
533.246	16.67
533.444	16.7
533.642	16.71
533.84	16.8
534.038	16.83
534.236	16.88
534.434	16.95
534.632	17.03
534.83	17.08
535.027	17.18
535.225	17.21
535.423	17.22
535.621	17.33
535.819	17.34
536.017	17.41
536.215	17.44
536.412	17.37
536.61	17.39
536.808	17.44
537.006	17.53
537.203	17.59
537.401	17.69
537.599	17.76
537.797	17.88
537.994	18.01
538.192	18.03
538.39	18.14
538.587	18.21
538.785	18.29
538.983	18.4
539.18	18.44
539.378	18.5
539.575	18.46
539.773	18.46
539.97	18.44
540.168	18.46
540.366	18.42
540.563	18.41
540.761	18.43
540.958	18.46
541.155	18.48
541.353	18.49
541.55	18.46
541.748	18.5
541.945	18.46
542.143	18.48
542.34	18.51
542.537	18.61
542.735	18.67
542.932	18.82
543.129	18.9
543.327	18.98
543.524	19.04
543.721	19.12
543.919	19.21
544.116	19.32
544.313	19.38
544.51	19.5
544.708	19.6
544.905	19.68
545.102	19.69
545.299	19.72
545.496	19.71
545.693	19.72
545.891	19.75
546.088	19.71
546.285	19.75
546.482	19.72
546.679	19.75
546.876	19.75
547.073	19.81
547.27	19.88
547.467	19.91
547.664	19.94
547.861	19.95
548.058	19.99
548.255	20.04
548.452	20.03
548.649	20.14
548.846	20.1
549.043	20.31
549.24	20.36
549.437	20.35
549.633	20.42
549.83	20.48
550.027	20.6
550.224	20.71
550.421	20.81
550.618	20.93
550.814	20.98
551.011	20.98
551.208	21.08
551.405	21.16
551.601	21.11
551.798	21.15
551.995	21.3
552.191	21.3
552.388	21.25
552.585	21.23
552.781	21.21
552.978	21.2
553.175	21.22
553.371	21.26
553.568	21.43
553.764	21.38
553.961	21.36
554.157	21.42
554.354	21.48
554.55	21.51
554.747	21.6
554.943	21.71
555.14	21.72
555.336	21.79
555.533	21.86
555.729	22.01
555.926	22.08
556.122	22.06
556.318	22.21
556.515	22.31
556.711	22.34
556.907	22.51
557.104	22.58
557.3	22.6
557.496	22.63
557.693	22.81
557.889	22.94
558.085	22.98
558.281	22.91
558.478	22.99
558.674	23.12
558.87	23.22
559.066	23.34
559.262	23.53
559.459	23.51
559.655	23.67
559.851	23.79
560.047	23.77
560.243	23.82
560.439	23.84
560.635	23.95
560.831	24.06
561.027	24.07
561.223	24.09
561.419	24.17
561.615	24.27
561.811	24.33
562.007	24.44
562.203	24.48
562.399	24.51
562.595	24.76
562.791	24.91
562.987	25.03
563.183	25.15
563.379	25.19
563.575	25.34
563.771	25.46
563.966	25.45
564.162	25.49
564.358	25.48
564.554	25.48
564.75	25.49
564.945	25.51
565.141	25.46
565.337	25.49
565.533	25.43
565.728	25.43
565.924	25.48
566.12	25.5
566.315	25.59
566.511	25.76
566.707	25.78
566.902	25.91
567.098	26.04
567.293	26.07
567.489	26.19
567.684	26.33
567.88	26.42
568.076	26.56
568.271	26.73
568.467	26.87
568.662	26.97
568.858	27.04
569.053	26.97
569.248	27.02
569.444	27.04
569.639	27.05
569.835	27.2
570.03	27.35
570.225	27.38
570.421	27.34
570.616	27.37
570.812	27.33
571.007	27.41
571.202	27.47
571.397	27.51
571.593	27.6
571.788	27.65
571.983	27.68
572.178	27.76
572.374	27.77
572.569	27.72
572.764	27.82
572.959	27.92
573.154	27.98
573.35	28.02
573.545	27.96
573.74	28.01
573.935	28.03
574.13	28.04
574.325	28.09
574.52	28.22
574.715	28.18
574.91	28.27
575.105	28.36
575.3	28.3
575.495	28.37
575.69	28.35
575.885	28.38
576.08	28.46
576.275	28.52
576.47	28.58
576.665	28.69
576.86	28.81
577.055	28.78
577.25	28.88
577.444	28.87
577.639	28.75
577.834	28.93
578.029	28.96
578.224	29.07
578.418	29.24
578.613	29.25
578.808	29.3
579.003	29.33
579.197	29.4
579.392	29.42
579.587	29.54
579.781	29.61
579.976	29.58
580.171	29.67
580.365	29.66
580.56	29.7
580.755	29.74
580.949	29.69
581.144	29.75
581.338	29.79
581.533	29.85
581.727	29.9
581.922	29.93
582.116	29.84
582.311	29.92
582.505	30.07
582.7	30.18
582.894	30.4
583.089	30.42
583.283	30.43
583.478	30.5
583.672	30.64
583.866	30.66
584.061	30.74
584.255	30.69
584.449	30.75
584.644	30.83
584.838	30.87
585.032	30.79
585.226	30.83
585.421	30.73
585.615	30.78
585.809	30.87
586.003	30.98
586.198	30.94
586.392	30.95
586.586	30.95
586.78	31.01
586.974	31.09
587.168	31.07
587.363	31.09
587.557	31.12
587.751	31.11
587.945	31.14
588.139	31.28
588.333	31.24
588.527	31.11
588.721	31.06
588.915	31.09
589.109	31.1
589.303	31.11
589.497	31.14
589.691	31.16
589.885	31.16
590.079	31.29
590.273	31.31
590.466	31.31
590.66	31.27
590.854	31.46
591.048	31.7
591.242	31.78
591.436	31.82
591.629	31.77
591.823	31.87
592.017	31.89
592.211	31.89
592.404	31.98
592.598	31.96
592.792	32.03
592.986	32.03
593.179	31.98
593.373	31.97
593.567	31.98
593.76	32.02
593.954	32
594.147	32.12
594.341	32.22
594.535	32.26
594.728	32.39
594.922	32.31
595.115	32.35
595.309	32.47
595.502	32.55
595.696	32.59
595.889	32.61
596.083	32.52
596.276	32.58
596.47	32.65
596.663	32.63
596.856	32.6
597.05	32.6
597.243	32.51
597.437	32.48
597.63	32.52
597.823	32.45
598.017	32.51
598.21	32.57
598.403	32.57
598.596	32.53
598.79	32.52
598.983	32.5
599.176	32.63
599.369	32.61
599.563	32.5
599.756	32.65
599.949	32.88
600.142	32.88
600.335	32.95
600.528	32.88
600.722	32.78
600.915	32.85
601.108	32.94
601.301	33.02
601.494	33.23
601.687	33.22
601.88	33.21
602.073	33.38
602.266	33.55
602.459	33.62
602.652	33.68
602.845	33.67
603.038	33.7
603.231	33.83
603.424	33.72
603.617	33.78
603.809	33.72
604.002	33.72
604.195	33.8
604.388	33.79
604.581	33.68
604.774	33.54
604.966	33.35
605.159	33.22
605.352	33.33
605.545	33.42
605.737	33.35
605.93	33.63
606.123	33.67
606.316	33.8
606.508	33.76
606.701	33.51
606.894	33.76
607.086	33.91
607.279	33.87
607.471	34.06
607.664	34.24
607.857	34.1
608.049	34.1
608.242	34.15
608.434	33.96
608.627	33.9
608.819	33.88
609.012	33.86
609.204	33.96
609.397	33.86
609.589	33.8
609.782	33.9
609.974	33.83
610.166	33.69
610.359	33.74
610.551	33.7
610.743	33.65
610.936	33.69
611.128	33.73
611.32	33.64
611.513	33.65
611.705	33.78
611.897	33.88
612.09	33.99
612.282	33.94
612.474	34.04
612.666	34.3
612.858	34.35
613.051	34.23
613.243	34.37
613.435	34.39
613.627	34.36
613.819	34.42
614.011	34.35
614.203	34.25
614.395	34.13
614.588	34.09
614.78	34.06
614.972	34.06
615.164	33.88
615.356	33.95
615.548	34.03
615.74	34.18
615.932	34.2
616.124	34.27
616.315	34.45
616.507	34.5
616.699	34.67
616.891	34.61
617.083	34.57
617.275	34.7
617.467	34.8
617.659	34.89
617.85	34.78
618.042	34.8
618.234	34.53
618.426	34.52
618.618	34.5
618.809	34.4
619.001	34.23
619.193	34.18
619.384	34.25
619.576	34.18
619.768	34.09
619.959	33.9
620.151	33.89
620.343	33.99
620.534	34.09
620.726	34.29
620.917	34.39
621.109	34.45
621.301	34.48
621.492	34.75
621.684	34.76
621.875	34.8
622.067	34.93
622.258	35.04
622.45	35.18
622.641	35.19
622.832	35.18
623.024	35.19
623.215	35.17
623.407	35.18
623.598	35.1
623.789	35.14
623.981	35.03
624.172	34.99
624.363	35.11
624.555	35.21
624.746	35.17
624.937	35.07
625.129	35.12
625.32	35.13
625.511	35.1
625.702	35.07
625.893	35.08
626.085	35.27
626.276	35.18
626.467	35.24
626.658	35.23
626.849	35.2
627.04	35.1
627.231	35.06
627.422	35.19
627.614	35.19
627.805	35.12
627.996	35.03
628.187	35.03
628.378	34.91
628.569	34.87
628.76	34.98
628.951	34.9
629.142	35.15
629.332	35.11
629.523	35.08
629.714	35.28
629.905	35.16
630.096	35.13
630.287	35.18
630.478	35.17
630.669	35.27
630.859	35.46
631.05	35.38
631.241	35.36
631.432	35.54
631.623	35.5
631.813	35.4
632.004	35.5
632.195	35.35
632.385	35.41
632.576	35.45
632.767	35.46
632.957	35.48
633.148	35.37
633.339	35.18
633.529	35.1
633.72	35.17
633.91	35.1
634.101	34.99
634.292	34.91
634.482	34.84
634.673	34.78
634.863	34.63
635.054	34.57
635.244	34.52
635.435	34.71
635.625	34.77
635.815	34.96
636.006	35.19
636.196	35.08
636.387	35.18
636.577	35.21
636.767	35.41
636.958	35.36
637.148	35.43
637.338	35.57
637.529	35.57
637.719	35.68
637.909	35.67
638.099	35.74
638.29	35.72
638.48	35.77
638.67	35.89
638.86	35.67
639.05	35.53
639.241	35.63
639.431	35.62
639.621	35.7
639.811	35.63
640.001	35.67
640.191	35.65
640.381	35.65
640.571	35.64
640.761	35.49
640.951	35.25
641.141	35.12
641.331	35.34
641.521	35.62
641.711	35.57
641.901	35.7
642.091	35.67
642.281	35.8
642.471	35.89
642.661	35.8
642.851	35.73
643.041	35.79
643.231	35.93
643.42	36.01
643.61	36.04
643.8	36.05
643.99	35.92
644.18	36.02
644.369	36.14
644.559	36.04
644.749	35.95
644.939	35.91
645.128	35.92
645.318	35.95
645.508	35.9
645.697	35.97
645.887	36.29
646.076	36.37
646.266	36.37
646.456	36.4
646.645	36.23
646.835	36.13
647.024	36.34
647.214	36.45
647.403	36.62
647.593	36.79
647.782	36.83
647.972	36.77
648.161	36.7
648.351	36.52
648.54	36.43
648.73	36.42
648.919	36.42
649.108	36.52
649.298	36.65
649.487	36.77
649.677	36.82
649.866	36.53
650.055	36.55
650.244	36.48
650.434	36.59
650.623	36.71
650.812	36.67
651.002	36.79
651.191	36.8
651.38	36.63
651.569	36.77
651.758	36.62
651.947	36.55
652.137	36.62
652.326	36.85
652.515	36.92
652.704	36.94
652.893	36.9
653.082	36.89
653.271	37.02
653.46	36.97
653.649	36.9
653.838	37.02
654.027	37.01
654.216	37.06
654.405	37.01
654.594	36.93
654.783	36.88
654.972	36.71
655.161	36.66
655.35	36.67
655.539	36.75
655.728	36.81
655.916	36.8
656.105	36.98
656.294	37.18
656.483	37.15
656.672	37.24
656.86	37.34
657.049	37.45
657.238	37.66
657.427	37.9
657.615	37.91
657.804	37.91
657.993	37.84
658.181	37.76
658.37	37.76
658.559	37.65
658.747	37.56
658.936	37.58
659.125	37.56
659.313	37.47
659.502	37.37
659.69	37.34
659.879	37.14
660.067	37.31
660.256	37.4
660.444	37.51
660.633	37.37
660.821	37.22
661.01	37.13
661.198	37.27
661.387	37.2
661.575	37.28
661.763	37.18
661.952	37.22
662.14	37.05
662.328	37.32
662.517	37.34
662.705	37.23
662.893	37.09
663.082	37.1
663.27	37.41
663.458	37.43
663.646	37.22
663.834	37.22
664.023	37.08
664.211	37.03
664.399	36.98
664.587	36.81
664.775	36.67
664.963	36.75
665.152	36.85
665.34	36.56
665.528	36.75
665.716	36.76
665.904	36.86
666.092	36.94
666.28	36.87
666.468	36.98
666.656	37.28
666.844	37.59
667.032	37.63
667.22	37.51
667.408	37.31
667.596	37.42
667.784	37.92
667.971	37.63
668.159	37.59
668.347	37.67
668.535	37.81
668.723	38.02
668.911	38.02
669.098	37.92
669.286	37.83
669.474	37.88
669.662	37.91
669.849	37.84
670.037	37.78
670.225	37.7
670.413	38.01
670.6	38.04
670.788	37.85
670.976	37.78
671.163	37.65
671.351	37.75
671.538	37.67
671.726	37.53
671.913	37.75
672.101	37.61
672.289	37.77
672.476	37.93
672.664	37.89
672.851	37.83
673.039	37.88
673.226	38.33
673.413	38.33
673.601	38.15
673.788	38.25
673.976	38.38
674.163	38.23
674.35	38.01
674.538	37.88
674.725	37.85
674.912	37.5
675.1	37.46
675.287	37.46
675.474	37.44
675.662	37.19
675.849	37.34
676.036	37.55
676.223	37.17
676.411	37.11
676.598	37.15
676.785	37.27
676.972	37.53
677.159	37.54
677.346	37.6
677.533	37.6
677.721	37.65
677.908	37.69
678.095	37.89
678.282	37.77
678.469	37.6
678.656	37.78
678.843	38.01
679.03	38
679.217	38.07
679.404	37.91
679.591	37.89
679.778	37.93
679.964	37.99
680.151	37.77
680.338	37.89
680.525	37.58
680.712	37.42
680.899	37.65
681.086	37.44
681.272	37.19
681.459	37.51
681.646	37.39
681.833	37.61
682.02	37.59
682.206	37.51
682.393	37.43
682.58	37.64
682.766	37.41
682.953	37.62
683.14	37.74
683.326	37.68
683.513	37.83
683.7	37.92
683.886	37.74
684.073	37.77
684.259	37.67
684.446	37.71
684.632	37.89
684.819	37.9
685.005	37.91
685.192	38.01
685.378	37.97
685.565	38.03
685.751	37.95
685.938	37.98
686.124	37.75
686.31	37.68
686.497	37.7
686.683	37.69
686.87	37.67
687.056	37.73
687.242	37.88
687.429	37.91
687.615	38.01
687.801	38.15
687.987	37.95
688.174	38.11
688.36	38.1
688.546	38.31
688.732	38.2
688.918	38.15
689.105	38.22
689.291	38.4
689.477	38.31
689.663	38.25
689.849	38.27
690.035	38.17
690.221	37.91
690.407	37.87
690.593	37.82
690.779	37.86
690.965	37.93
691.151	38.19
691.337	38.47
691.523	38.73
691.709	38.58
691.895	38.49
692.081	38.39
692.267	38.69
692.453	38.65
692.639	38.67
692.825	38.85
693.011	39.08
693.196	38.94
693.382	38.74
693.568	38.35
693.754	38.17
693.94	37.94
694.125	37.97
694.311	38.13
694.497	37.98
694.682	37.79
694.868	37.92
695.054	37.94
695.239	37.93
695.425	37.64
695.611	37.73
695.796	37.92
695.982	38.44
696.168	38.55
696.353	38.68
696.539	38.86
696.724	38.65
696.91	38.7
697.095	38.4
697.281	38.26
697.466	38.49
697.652	38.59
697.837	38.68
698.023	38.8
698.208	38.64
698.393	38.5
698.579	38.31
698.764	38.26
698.949	38.07
699.135	38.28
699.32	38.4
699.505	38.48
699.691	38.36
699.876	38.28
700.061	38.17
700.246	38.14
700.432	37.96
700.617	37.89
700.802	37.88
700.987	38.33
701.172	38.14
701.358	38.13
701.543	37.88
701.728	37.55
701.913	37.72
702.098	37.88
702.283	37.58
702.468	37.44
702.653	37.43
702.838	37.56
703.023	37.46
703.208	37.43
703.393	36.91
703.578	37.21
703.763	37.05
703.948	37.17
704.133	37.3
704.318	37.37
704.503	37.26
704.688	37.31
704.873	37.55
705.057	37.42
705.242	37.43
705.427	37.83
705.612	37.61
705.797	37.77
705.981	37.43
706.166	37.6
706.351	37.42
706.536	37.55
706.72	37.33
706.905	37.57
707.09	37.68
707.274	37.56
707.459	37.82
707.644	37.72
707.828	37.43
708.013	37.54
708.197	37.51
708.382	37.51
708.567	37.67
708.751	37.78
708.936	37.45
709.12	37.8
709.305	37.54
709.489	37.37
709.673	37.46
709.858	37.31
710.042	37.36
710.227	37.44
710.411	37.71
710.596	37.36
710.78	37.68
710.964	37.78
711.149	37.98
711.333	38.07
711.517	37.99
711.702	38.15
711.886	38.22
712.07	38.07
712.254	38.11
712.438	38.13
712.623	38.3
712.807	38.28
712.991	38.53
713.175	38.24
713.359	38.08
713.544	38.12
713.728	38.44
713.912	38.55
714.096	38.5
714.28	38.4
714.464	38.5
714.648	38.3
714.832	38.35
715.016	38.19
715.2	37.8
715.384	37.93
715.568	37.88
715.752	37.69
715.936	37.42
716.12	37.26
716.304	37.13
716.488	36.96
716.671	37.39
716.855	37.53
717.039	37.31
717.223	36.84
717.407	36.66
717.59	36.88
717.774	36.69
717.958	36.64
718.142	36.61
718.325	36.52
718.509	36.52
718.693	36.66
718.877	36.8
719.06	36.41
719.244	36.14
719.428	36.26
719.611	36.84
719.795	36.86
719.978	36.87
720.162	36.72
720.345	37.07
720.529	37.3
720.713	37.46
720.896	37.74
721.08	37.67
721.263	37.71
721.446	37.83
721.63	38.29
721.813	38.31
721.997	37.99
722.18	38.34
722.364	38.19
722.547	38.5
722.73	38.34
722.914	38.16
723.097	38.17
723.28	37.89
723.464	37.86
723.647	37.9
723.83	37.81
724.013	37.26
724.197	37.02
724.38	37.22
724.563	37.26
724.746	37.74
724.929	37.61
725.112	37.5
725.296	37.64
725.479	37.53
725.662	37.34
725.845	37.4
726.028	37.61
726.211	37.82
726.394	38.14
726.577	38.28
726.76	38.35
726.943	38.13
727.126	37.91
727.309	38.09
727.492	38.24
727.675	38.18
727.858	38.26
728.041	38.7
728.224	38.38
728.407	38.25
728.589	38.4
728.772	38.22
728.955	38.36
729.138	38.3
729.321	38.62
729.503	38.36
729.686	38.21
729.869	38.4
730.052	38.32
730.234	38.46
730.417	38.32
730.6	38.22
730.782	38.28
730.965	38.4
731.148	38.26
731.33	38.54
731.513	38.48
731.695	38.14
731.878	38.44
732.061	38.77
732.243	38.9
732.426	39.3
732.608	39.02
732.791	39.11
732.973	39.45
733.156	39.54
733.338	39.21
733.52	39.44
733.703	39.46
733.885	39.79
734.068	39.99
734.25	39.72
734.432	39.47
734.615	39.05
734.797	38.38
734.979	38.14
735.162	37.99
735.344	37.93
735.526	37.6
735.708	37.67
735.891	37.48
736.073	37.04
736.255	36.61
736.437	36.35
736.619	36.73
736.802	36.64
736.984	36.53
737.166	36.94
737.348	37.27
737.53	37.53
737.712	37.43
737.894	37.65
738.076	37.17
738.258	37.61
738.44	37.73
738.622	37.62
738.804	38.03
738.986	37.78
739.168	37.7
739.35	37.75
739.532	37.58
739.714	37.76
739.896	37.68
740.078	38.01
740.259	37.91
740.441	38.43
740.623	38
740.805	38.44
740.987	38.53
741.168	38.28
741.35	38.25
741.532	38.18
741.714	38.27
741.895	38.25
742.077	38.5
742.259	38.36
742.44	37.98
742.622	37.93
742.804	37.61
742.985	37.85
743.167	37.33
743.348	37.6
743.53	37.45
743.711	38.2
743.893	38.42
744.075	38.58
744.256	38.81
744.438	38.37
744.619	38.24
744.8	38.11
744.982	37.63
745.163	37.75
745.345	37.84
745.526	38.4
745.707	38.58
745.889	38.56
746.07	37.5
746.252	37.5
746.433	37.08
746.614	37.38
746.795	37.22
746.977	37.51
747.158	37.46
747.339	37.63
747.52	37.66
747.702	37.66
747.883	37.79
748.064	37.03
748.245	37.31
748.426	37.87
748.607	38.11
748.788	37.99
748.97	37.2
749.151	37.56
749.332	37.23
749.513	37.87
749.694	38.78
749.875	38.45
750.056	38.06
750.237	37.89
750.418	37.85
750.599	37.64
750.78	37.47
750.96	36.92
751.141	37.38
751.322	38.12
751.503	38
751.684	37.98
751.865	37.53
752.046	36.66
752.226	36.97
752.407	37.05
752.588	36.67
752.769	37.02
752.949	37.72
753.13	37.53
753.311	37.81
753.492	37.97
753.672	37.57
753.853	37.88
754.034	37.64
754.214	37.76
754.395	37.9
754.575	37.82
754.756	37.77
754.937	38.07
755.117	38.4
755.298	38.2
755.478	37.8
755.659	37.54
755.839	37.17
756.02	37.23
756.2	36.57
756.381	36.88
756.561	37.31
756.741	37.49
756.922	37.55
757.102	38.09
757.283	37.78
757.463	37.76
757.643	37.63
757.823	38.3
758.004	38.56
758.184	39
758.364	38.68
758.545	38.8
758.725	38.87
758.905	37.91
759.085	38.19
759.265	38.03
759.446	37.5
759.626	37.63
759.806	37.93
759.986	37.66
760.166	37.63
760.346	37.37
760.526	37.48
760.706	37.83
760.886	38.42
761.066	38.13
761.246	38.39
761.426	37.89
761.606	38.06
761.786	38.27
761.966	38.16
762.146	37.8
762.326	38.44
762.506	38.45
762.686	38.74
762.866	38.54
763.046	38.58
763.225	38.12
763.405	38.06
763.585	38.12
763.765	38.3
763.945	38.23
764.124	38.3
764.304	38.74
764.484	38.72
764.664	38.11
764.843	37.8
765.023	37.52
765.203	37.44
765.382	37.4
765.562	37.36
765.741	37.52
765.921	37.75
766.101	37.69
766.28	38.55
766.46	38.55
766.639	37.94
766.819	37.72
766.998	37.93
767.178	38.55
767.357	38.55
767.537	38.31
767.716	38.12
767.896	38.64
768.075	38.51
768.254	38.34
768.434	38.55
768.613	37.25
768.792	36.9
768.972	37.12
769.151	37.07
769.33	36.95
769.51	36.63
769.689	36.84
769.868	37.77
770.047	37.65
770.226	37.67
770.406	38.07
770.585	38.24
770.764	38.14
770.943	38.54
771.122	39.17
771.301	39.02
771.48	39.35
771.66	39.19
771.839	38.51
772.018	39.01
772.197	38.46
772.376	38.53
772.555	37.84
772.734	37.09
772.913	37.27
773.092	37.34
773.271	37.8
773.449	37.21
773.628	37.45
773.807	37.35
773.986	37.59
774.165	38.38
774.344	37.27
774.523	37.08
774.701	37.47
774.88	37.65
775.059	37.85
775.238	37.34
775.417	37.48
775.595	37.03
775.774	37.59
775.953	37.02
776.131	37.43
776.31	36.96
776.489	37.19
776.667	37.63
776.846	36.95
777.025	36.3
777.203	36.37
777.382	37.04
777.56	36.23
777.739	36.41
777.917	36.53
778.096	36.42
778.274	37.29
778.453	37.31
778.631	37.76
778.81	37.73
778.988	37.65
779.166	38.42
779.345	38.58
779.523	38.4
779.702	38.19
779.88	38.35
780.058	38
780.237	38.14
780.415	37.92
780.593	37.36
780.771	37.94
780.95	37.42
781.128	36.36
781.306	36.45
781.484	36.03
781.662	36.59
781.841	36.78
782.019	36.4
782.197	37.35
782.375	36.9
782.553	36.27
782.731	36.42
782.909	36.95
783.087	37
783.265	38.22
783.443	39.3
783.621	39.35
783.799	39.29
783.977	38.74
784.155	39.38
784.333	39.52
784.511	39.38
784.689	40.78
784.867	40.17
785.045	40.44
785.223	40.12
785.4	39.42
785.578	38.75
785.756	38.32
785.934	38.61
786.112	37.97
786.289	38.47
786.467	38.13
786.645	37.89
786.823	37.75
787	36.99
787.178	37.53
787.356	36.9
787.533	37.05
787.711	36.13
787.889	36
788.066	36.02
788.244	36.44
788.421	37.49
788.599	37.12
788.776	37.01
788.954	37.36
789.131	37.45
789.309	37.19
789.486	37.4
789.664	37.51
789.841	37.21
790.019	38.45
790.196	37.62
790.373	38.05
790.551	37.05
790.728	37.29
790.906	37.77
791.083	38.37
791.26	38.29
791.437	37.78
791.615	37.37
791.792	37.56
791.969	37.47
792.146	37.97
792.324	37.98
792.501	38.41
792.678	37.44
792.855	38.26
793.032	37.65
793.209	37.28
793.387	35.94
793.564	35.96
793.741	36.42
793.918	37.42
794.095	37.78
794.272	37.25
794.449	37.37
794.626	37.27
794.803	38.23
794.98	38.63
795.157	38.54
795.334	39.68
795.511	40.13
795.688	40.83
795.864	40.97
796.041	40.74
796.218	40.43
796.395	40.48
796.572	40.76
796.749	39.42
796.925	39.96
797.102	39.57
797.279	40.17
797.456	39.36
797.632	38.42
797.809	38.45
797.986	37.76
798.162	37.86
798.339	37.79
798.516	37.32
798.692	37.28
798.869	37.03
799.046	38.13
799.222	37.28
799.399	37.05
799.575	36.63
799.752	37.7
799.928	38
800.105	37.39
800.281	36.96
800.458	36.47
800.634	36.38
800.811	36.77
800.987	36.1
801.163	37.28
801.34	36.65
801.516	36.99
801.692	37.23
801.869	37.34
802.045	36.17
802.221	36.38
802.398	37.18
802.574	38.36
802.75	37.85
802.926	38.24
803.103	38.24
803.279	38.57
803.455	38.01
803.631	37.97
803.807	36.79
803.983	35.85
804.16	35.82
804.336	36.08
804.512	35.61
804.688	34.51
804.864	34.45
805.04	35.42
805.216	35.38
805.392	35.43
805.568	35.15
805.744	35.02
805.92	35.16
806.096	35.86
806.272	37.1
806.448	36.32
806.623	35.58
806.799	35.29
806.975	35.63
807.151	35.89
807.327	34.84
807.503	34.45
807.678	35.55
807.854	35.51
808.03	36.41
808.206	36.08
808.381	36.18
808.557	35.76
808.733	36.99
808.908	38.06
809.084	38.85
809.26	39.06
809.435	38.52
809.611	40.15
809.787	41.24
809.962	39.22
810.138	39.6
810.313	39.96
810.489	41.21
810.664	40.19
810.84	40.51
811.015	40.91
811.191	41.62
811.366	40.98
811.542	40.91
811.717	41.6
811.892	41.09
812.068	40.92
812.243	42.51
812.419	41.99
812.594	40.87
812.769	40.99
812.944	41.55
813.12	41.14
813.295	40.65
813.47	40.74
813.645	41.1
813.821	41.04
813.996	40.82
814.171	40.24
814.346	39.11
814.521	38.35
814.697	37.73
814.872	38.56
815.047	37.35
815.222	36.9
815.397	38.24
815.572	38.05
815.747	37.84
815.922	37.85
816.097	37.6
816.272	37.66
816.447	38.84
816.622	38.4
816.797	39.37
816.972	41.07
817.147	39.45
817.322	38.88
817.496	41.29
817.671	39.99
817.846	39.25
818.021	38.77
818.196	38.84
818.371	40.15
818.545	39.84
818.72	39.02
818.895	39.96
819.069	38.55
819.244	37.41
819.419	37.96
819.594	38.57
819.768	37.05
819.943	36.63
820.117	37.28
820.292	37.49
820.467	37.07
820.641	36.25
820.816	36.19
820.99	36.43
821.165	36.58
821.339	36.98
821.514	37.39
821.688	37.59
821.863	37.71
822.037	37.84
822.212	37.91
822.386	37.63
822.56	37.71
822.735	37.74
822.909	37.63
823.084	37.74
823.258	37.59
823.432	37.11
823.606	36.82
823.781	36.61
823.955	36.28
824.129	36.3
824.303	36.4
824.478	36.29
824.652	36.47
824.826	35.97
825	36.08
825.174	36.39
825.348	36.08
825.523	36.08
825.697	36.45
825.871	36.75
826.045	36.65
826.219	36.79
826.393	36.13
826.567	35.69
826.741	35.66
826.915	35.22
827.089	35.34
827.263	35.42
827.437	35.29
827.611	35.48
827.784	35.43
827.958	35.39
828.132	35.3
828.306	35.13
828.48	35.05
828.654	35.66
828.827	35.28
829.001	35.39
829.175	35.62
829.349	35.44
829.522	34.93
829.696	35.95
829.87	35.24
830.044	35.42
830.217	35.02
830.391	34.8
830.565	34.87
830.738	35.09
830.912	34.49
831.085	35.58
831.259	35.3
831.432	35.72
831.606	36.43
831.779	36.71
831.953	36.55
832.126	37.61
832.3	37.46
832.473	37.88
832.647	38.08
832.82	38.77
832.994	38.57
833.167	38.9
833.34	38.81
833.514	38.75
833.687	38.62
833.86	38.5
834.034	37.97
834.207	37.7
834.38	37.64
834.553	38.1
834.727	38.03
834.9	37.56
835.073	37.36
835.246	37.03
835.419	37.09
835.593	36.8
835.766	37.57
835.939	36.78
836.112	36.93
836.285	38.02
836.458	37.93
836.631	37.81
836.804	36.87
836.977	37.15
837.15	37.5
837.323	35.86
837.496	34.45
837.669	33.72
837.842	34.29
838.015	33.48
838.188	34
838.361	33.86
838.533	33.01
838.706	33.67
838.879	34.32
839.052	35.86
839.225	35.95
839.398	35.42
839.57	37.28
839.743	39.87
839.916	39.85
840.088	37.9
840.261	39.05
840.434	40.51
840.607	41.02
840.779	41.19
840.952	40.16
841.124	38.83
841.297	38.07
841.47	38.28
841.642	39.75
841.815	39.6
841.987	37.9
842.16	38.29
842.332	41.49
842.505	39.18
842.677	38.12
842.85	37.14
843.022	37.74
843.194	39.67
843.367	43.06
843.539	43.23
843.712	42.85
843.884	41.63
844.056	41.1
844.229	42.06
844.401	41.66
844.573	39.5
844.745	38.61
844.918	38.16
845.09	38.46
845.262	37.55
845.434	34.67
845.606	31.23
845.779	29.25
845.951	33.41
846.123	31.73
846.295	33.05
846.467	34.11
846.639	35.21
846.811	34.78
846.983	38
847.155	37.6
847.327	39.78
847.499	38.91
847.671	38.19
847.843	37.3
848.015	37.99
848.187	35.49
848.359	37.52
848.531	34.87
848.703	29.91
848.875	29.18
849.047	29.3
849.218	30.33
849.39	31.12
849.562	27.67
849.734	31.04
849.905	33.75
850.077	34.68
850.249	33.98
850.421	32.17
850.592	32.04
850.764	35.97
850.936	40.03
851.107	37.05
851.279	39.47
851.451	35.35
851.622	37.39
851.794	39.23
851.965	36.55
852.137	35.64
852.308	35.66
852.48	37.27
852.651	39.5
852.823	36.12
852.994	32.49
853.166	34.08
853.337	35.92
853.509	32.49
853.68	36.49
853.851	37.77
854.023	36.23
854.194	35.49
854.365	35.01
854.537	34.57
854.708	37.2
854.879	40.46
855.05	43.83
855.222	45.12
855.393	41.37
855.564	43.78
855.735	46.26
855.906	44.5
856.078	39.82
856.249	38.21
856.42	43.65
856.591	41.16
856.762	39.45
856.933	37.19
857.104	34.39
857.275	32.56
857.446	35.21
857.617	37.66
857.788	35.51
857.959	33.89
858.13	34.66
858.301	36.37
858.472	36.17
858.643	33.99
858.814	32.5
858.985	33.96
859.155	34.5
859.326	32.93
859.497	34.52
859.668	32.76
859.839	30.66
860.009	31.88
860.18	32.05
860.351	33.52
860.522	35.45
860.692	39.68
860.863	42.79
861.034	44.02
861.204	45.33
861.375	45.3
861.546	45.49
861.716	46.23
861.887	47.43
862.057	48.62
862.228	48.26
862.398	45.01
862.569	41.47
862.739	34.16
862.91	32.53
863.08	31.13
863.251	32.84
863.421	30.37
863.592	29.54
863.762	28.42
863.932	29.48
864.103	29.26
864.273	30.95
864.443	30.32
864.614	34.68
864.784	33.97
864.954	40.09
865.125	36.68
865.295	32.83
865.465	35.2
865.635	37.27
865.805	37.74
865.976	40.79
866.146	41.06
866.316	42.97
866.486	41.99
866.656	39.21
866.826	38.21
866.996	42.69
867.166	39.68
867.336	41.38
867.506	40.35
867.676	36.26
867.846	32.57
868.016	32.75
868.186	27.04
868.356	28.98
868.526	28.24
868.696	29.99
868.866	33.6
869.036	36.61
869.206	32.79
869.376	33.42
869.545	33.3
869.715	36.49
869.885	36.67
870.055	40.68
870.224	43.92
870.394	45.98
870.564	40.18
870.734	36.87
870.903	35.36
871.073	37.93
871.243	39.52
871.412	43.38
871.582	45.11
871.751	46.32
871.921	44.66
872.091	44.87
872.26	42.91
872.43	37.78
872.599	37.65
872.769	38.85
872.938	41.01
873.108	39.1
873.277	33.35
873.446	32.84
873.616	32.94
873.785	33.66
873.955	31.37
874.124	33.7
874.293	35.52
874.463	37.01
874.632	39.45
874.801	40.53
874.971	39.86
875.14	38.1
875.309	38.97
875.478	42.4
875.647	38.84
875.817	37.99
875.986	36.83
876.155	35.87
876.324	33.79
876.493	32.08
876.662	32.7
876.831	28.63
877	23.74
877.17	23.58
877.339	23.93
877.508	28
877.677	28.72
877.846	31.16
878.015	28.83
878.184	28.08
878.352	31.51
878.521	27.21
878.69	28.98
878.859	27.81
879.028	28.95
879.197	32.32
879.366	33.55
879.534	33.72
879.703	34.07
879.872	32.91
880.041	32.39
880.21	33.03
880.378	33.69
880.547	33.66
880.716	35.39
880.884	36.09
881.053	35.96
881.222	36.66
881.39	36.75
881.559	36.71
881.727	36.94
881.896	36.93
882.065	36.98
882.233	37.34
882.402	37.51
882.57	37.41
882.739	37.49
882.907	37.2
883.076	36.43
883.244	36.67
883.412	36.62
883.581	36.35
883.749	36.27
883.918	35.52
884.086	35.35
884.254	35.61
884.423	34.75
884.591	34.78
884.759	34.33
884.927	33.32
885.096	32.51
885.264	33.2
885.432	33.06
885.6	32.8
885.769	32.92
885.937	33.32
886.105	35.28
886.273	32.91
886.441	33.71
886.609	33.37
886.777	33.73
886.945	32.19
887.113	33.69
887.281	34.35
887.449	32.15
887.617	31.25
887.785	30.39
887.953	30.52
888.121	30.14
888.289	29.6
888.457	32.14
888.625	29.04
888.793	27.51
888.961	28.42
889.129	31.42
889.296	30.92
889.464	31.91
889.632	33.6
889.8	34.02
889.967	34.12
890.135	33.93
