Data from 2938570_Reflection_3.txt Node
Date: Sun Jun 14 22:10:13 EDT 2015
User: robert
Spectrometer: USB4E03002
Autoset integration time: false
Trigger mode: 4
Integration Time (sec): 1.000000E-1
Scans to average: 10
Electric dark correction enabled: true
Nonlinearity correction enabled: false
Boxcar width: 5
Stray light correction enabled: false
XAxis mode: Wavelengths
Stop averaging: false
Number of Pixels in Spectrum: 3648
>>>>>Begin Spectral Data<<<<<
177.575	49.85
177.794	62.49
178.014	-12.55
178.233	-52.31
178.452	-503.39
178.672	-94825
178.891	-147.11
179.11	138.38
179.33	137.95
179.549	221.89
179.768	258.35
179.987	188.01
180.207	-77.31
180.426	-83.5
180.645	-126.78
180.864	-237.92
181.084	-318.51
181.303	-426.17
181.522	-1649.55
181.741	-471.6
181.96	-39486.36
182.179	11044.93
182.398	2070.92
182.618	468.42
182.837	256.84
183.056	144.11
183.275	175.85
183.494	121.86
183.713	95.47
183.932	113.99
184.151	89.89
184.37	102.57
184.589	108.47
184.808	112.56
185.027	124.17
185.246	142.51
185.465	199.67
185.684	231.77
185.903	614.09
186.122	-372.54
186.341	-2406.29
186.56	-391.57
186.779	-1450.38
186.998	14247.83
187.216	6193.13
187.435	830.91
187.654	712.42
187.873	324.26
188.092	177.97
188.311	132.33
188.53	132.88
188.748	124.74
188.967	97.6
189.186	84.43
189.405	122.28
189.623	115.41
189.842	105.21
190.061	99.47
190.28	143.31
190.498	151.06
190.717	-2608.38
190.936	348.71
191.154	227.56
191.373	201.52
191.592	312.06
191.81	249.99
192.029	350.06
192.248	329.72
192.466	262.6
192.685	235.47
192.904	296.08
193.122	174.31
193.341	136.54
193.559	133.67
193.778	143.6
193.996	103.28
194.215	89.41
194.433	76.29
194.652	96.84
194.87	82.55
195.089	82.65
195.307	86.08
195.526	68.1
195.744	103.01
195.963	126.57
196.181	110.27
196.399	80.05
196.618	107.62
196.836	248.63
197.055	269.41
197.273	-377.87
197.491	-1086.59
197.71	363.92
197.928	1916.67
198.146	-1105.63
198.365	-439.75
198.583	-571.57
198.801	874.19
199.019	506.83
199.238	291.91
199.456	209.47
199.674	268.97
199.892	234.59
200.111	295.13
200.329	244.85
200.547	235.39
200.765	213.41
200.983	256.86
201.202	309.22
201.42	300.07
201.638	475.99
201.856	522.99
202.074	296.73
202.292	636.13
202.51	476.62
202.728	657.81
202.946	1241.75
203.165	1345.79
203.383	355.9
203.601	726.71
203.819	1720.28
204.037	850.15
204.255	631.05
204.473	-1964.47
204.691	210.65
204.909	166.86
205.127	168.76
205.345	161.55
205.562	118.22
205.78	145.16
205.998	134.69
206.216	121.71
206.434	122.33
206.652	97.84
206.87	81.89
207.088	83.84
207.306	98.68
207.523	55.57
207.741	28.57
207.959	62.77
208.177	42.69
208.395	55.11
208.612	59.21
208.83	76.61
209.048	139.17
209.266	177.75
209.483	271.03
209.701	182.24
209.919	133.69
210.136	108.83
210.354	85.6
210.572	86.85
210.79	80.89
211.007	88.23
211.225	60.45
211.442	7.24
211.66	13.86
211.878	10.16
212.095	86.4
212.313	97.81
212.53	105.46
212.748	121.39
212.966	132.28
213.183	132.06
213.401	135.45
213.618	159.61
213.836	175.02
214.053	140.45
214.271	124.92
214.488	134.85
214.705	138.99
214.923	226.8
215.14	127.66
215.358	85.17
215.575	78
215.793	57.52
216.01	65.56
216.227	56.77
216.445	67.44
216.662	68.33
216.879	66.78
217.097	67.03
217.314	63.61
217.531	59.85
217.749	60.32
217.966	54.56
218.183	60.39
218.4	62.6
218.618	57.05
218.835	50.51
219.052	45.64
219.269	43.44
219.487	46.55
219.704	48.81
219.921	64.56
220.138	70.23
220.355	73.91
220.572	75.91
220.79	59.88
221.007	66.33
221.224	73.87
221.441	73.06
221.658	65.07
221.875	59.77
222.092	48.88
222.309	34.13
222.526	25.16
222.743	19.41
222.96	19.72
223.177	19.89
223.394	17.68
223.611	22.24
223.828	23.81
224.045	19.61
224.262	15.65
224.479	18.18
224.696	19.37
224.913	18.9
225.13	19.82
225.347	18.43
225.564	17.83
225.781	17.12
225.997	11.67
226.214	11.74
226.431	11.99
226.648	12.85
226.865	13.05
227.082	11.76
227.298	12.31
227.515	11.56
227.732	12.2
227.949	12.57
228.165	13.18
228.382	13.81
228.599	14.02
228.816	14.18
229.032	13.65
229.249	14.73
229.466	15.99
229.682	16.42
229.899	17.45
230.116	16.72
230.332	17.57
230.549	15.97
230.765	16.97
230.982	17.62
231.199	18.32
231.415	18.95
231.632	17.97
231.848	17.17
232.065	17.27
232.281	17.66
232.498	17.91
232.714	18.49
232.931	18.76
233.147	18.75
233.364	18.54
233.58	18.38
233.797	17.52
234.013	15.99
234.23	18.07
234.446	19.07
234.662	19.57
234.879	18.53
235.095	20.21
235.312	18.98
235.528	20.62
235.744	18.66
235.961	18.28
236.177	19.96
236.393	20.5
236.61	19.53
236.826	18.19
237.042	16.7
237.258	15.98
237.475	14.4
237.691	16.46
237.907	14.81
238.123	15.36
238.339	16.99
238.556	16.15
238.772	16.1
238.988	15.6
239.204	15.3
239.42	14.26
239.636	14.84
239.853	13.83
240.069	13.1
240.285	13.08
240.501	12.43
240.717	11.72
240.933	11.7
241.149	11.25
241.365	10.9
241.581	11.03
241.797	11.42
242.013	11.05
242.229	10.5
242.445	10.58
242.661	10.24
242.877	11.08
243.093	11.06
243.309	10.43
243.525	10.77
243.741	11.32
243.957	10.56
244.173	10.43
244.388	10.69
244.604	11.1
244.82	11.14
245.036	10.96
245.252	10.43
245.468	10.44
245.683	10.37
245.899	10.32
246.115	10.44
246.331	10.54
246.547	10.76
246.762	10.72
246.978	10.69
247.194	10.59
247.409	10.95
247.625	11.37
247.841	11.61
248.057	12.27
248.272	12.04
248.488	11.98
248.703	11.31
248.919	10.66
249.135	10.44
249.35	10.91
249.566	10.93
249.782	10.74
249.997	9.83
250.213	9.6
250.428	9.61
250.644	9.93
250.859	9.27
251.075	10.24
251.29	9.93
251.506	9.77
251.721	9.57
251.937	9
252.152	8.48
252.368	9.03
252.583	8.2
252.798	8.07
253.014	8.19
253.229	8.01
253.445	8.38
253.66	9.26
253.875	9.8
254.091	9.99
254.306	10.35
254.521	10.89
254.737	10.19
254.952	11.38
255.167	10.57
255.383	10.3
255.598	10.9
255.813	10.35
256.028	9.51
256.244	9.11
256.459	9.19
256.674	9.09
256.889	8.85
257.104	8.9
257.32	8.8
257.535	8.36
257.75	8.21
257.965	8.21
258.18	8.27
258.395	8.83
258.61	8.62
258.826	8.15
259.041	8.41
259.256	8.29
259.471	8.28
259.686	8.19
259.901	8.89
260.116	8.91
260.331	8.92
260.546	8.91
260.761	8.43
260.976	9.13
261.191	9.46
261.406	9.15
261.621	9.41
261.836	9.19
262.05	8.89
262.265	8.3
262.48	8.39
262.695	8.21
262.91	8.6
263.125	8.33
263.34	8.01
263.555	8.23
263.769	8.3
263.984	8.04
264.199	8.58
264.414	8.29
264.629	8.15
264.843	8.28
265.058	8.17
265.273	7.98
265.488	8.25
265.702	7.62
265.917	7.5
266.132	7.74
266.346	8.1
266.561	7.71
266.776	7.72
266.99	7.71
267.205	7.7
267.42	7.8
267.634	7.61
267.849	7.81
268.063	7.95
268.278	7.56
268.492	7.19
268.707	6.41
268.922	6.89
269.136	7.14
269.351	6.78
269.565	6.72
269.78	6.91
269.994	6.7
270.209	6.75
270.423	6.99
270.637	7.17
270.852	7.21
271.066	7.32
271.281	7.62
271.495	7.31
271.709	7.99
271.924	7.23
272.138	6.87
272.353	6.72
272.567	6.35
272.781	6.36
272.996	6.16
273.21	6.4
273.424	6.53
273.638	5.59
273.853	5.57
274.067	5.21
274.281	6.14
274.495	6.79
274.71	7
274.924	7.18
275.138	7.05
275.352	7.08
275.566	7.1
275.781	7.05
275.995	7.35
276.209	7.58
276.423	7.68
276.637	7.7
276.851	7.46
277.065	7.57
277.279	7.54
277.493	7.35
277.707	7.23
277.921	7.06
278.135	7.06
278.349	7.24
278.563	7.32
278.777	6.91
278.991	6.56
279.205	6.68
279.419	7.07
279.633	7.14
279.847	7.4
280.061	7.4
280.275	6.84
280.489	6.93
280.703	7.02
280.917	6.98
281.131	7.09
281.344	7.31
281.558	7.19
281.772	6.8
281.986	6.22
282.2	6.2
282.414	6.72
282.627	6.8
282.841	6.71
283.055	6.75
283.269	6.92
283.482	6.87
283.696	6.91
283.91	6.48
284.123	6.57
284.337	7.18
284.551	7.27
284.764	6.84
284.978	6.83
285.192	7.01
285.405	6.64
285.619	6.21
285.833	6.37
286.046	6.6
286.26	6.8
286.473	6.72
286.687	6.57
286.9	6.4
287.114	6.75
287.327	7.3
287.541	6.86
287.754	6.74
287.968	7.17
288.181	7.02
288.395	6.9
288.608	6.83
288.822	6.64
289.035	6.34
289.248	5.98
289.462	6.15
289.675	5.87
289.889	6.19
290.102	6.67
290.315	6.71
290.529	6.94
290.742	6.96
290.955	6.91
291.169	6.95
291.382	7.42
291.595	7.59
291.808	7.56
292.022	7.71
292.235	7.68
292.448	7.28
292.661	6.92
292.875	6.91
293.088	6.88
293.301	6.98
293.514	6.98
293.727	6.68
293.94	6.63
294.153	6.18
294.367	6.09
294.58	6.2
294.793	5.97
295.006	6.08
295.219	5.98
295.432	5.99
295.645	6.04
295.858	5.91
296.071	5.72
296.284	5.95
296.497	5.97
296.71	5.92
296.923	5.63
297.136	5.62
297.349	5.68
297.562	5.65
297.775	5.68
297.988	5.75
298.201	6.16
298.414	6.52
298.626	6.76
298.839	6.96
299.052	7.26
299.265	7.61
299.478	8.02
299.691	8.14
299.903	8.37
300.116	8.35
300.329	8.08
300.542	7.98
300.755	8.22
300.967	8.08
301.18	8.09
301.393	7.92
301.605	7.94
301.818	7.96
302.031	7.79
302.243	7.43
302.456	7.08
302.669	7.32
302.881	7.34
303.094	6.76
303.307	6.96
303.519	6.74
303.732	6.97
303.944	6.81
304.157	6.61
304.37	6.81
304.582	7.16
304.795	7.49
305.007	7.16
305.22	7.01
305.432	7.27
305.645	7.08
305.857	7.63
306.069	7.5
306.282	7.53
306.494	7.87
306.707	7.79
306.919	7.79
307.132	7.48
307.344	7.99
307.556	7.65
307.769	7.64
307.981	7.46
308.193	7.07
308.406	6.78
308.618	6.79
308.83	6.35
309.043	6.11
309.255	5.81
309.467	6.1
309.679	6.01
309.892	6.15
310.104	6.07
310.316	6.17
310.528	6.71
310.74	6.78
310.953	6.68
311.165	7.13
311.377	7.31
311.589	7.39
311.801	7.25
312.013	7.32
312.225	7.61
312.437	7.78
312.649	7.79
312.862	7.34
313.074	7.3
313.286	7.74
313.498	7.56
313.71	7.66
313.922	7.89
314.134	7.87
314.346	7.85
314.558	8.02
314.77	8.34
314.982	8.09
315.193	8.46
315.405	8.78
315.617	8.27
315.829	8.29
316.041	8.1
316.253	8.17
316.465	7.66
316.677	7.52
316.888	7.39
317.1	6.44
317.312	6.83
317.524	6.46
317.736	6.24
317.947	6.41
318.159	6.44
318.371	6.46
318.583	6.45
318.794	6.78
319.006	6.68
319.218	6.75
319.43	7.62
319.641	7.55
319.853	7.54
320.064	7.61
320.276	8
320.488	8
320.699	7.65
320.911	8
321.123	8.12
321.334	8.28
321.546	8.23
321.757	7.92
321.969	7.77
322.18	7.46
322.392	7.3
322.603	7.16
322.815	7.64
323.026	8.31
323.238	8.04
323.449	8.54
323.661	8.42
323.872	8.14
324.083	8.45
324.295	8.69
324.506	8.61
324.718	8.87
324.929	8.63
325.14	8.13
325.352	7.72
325.563	7.63
325.774	7.57
325.986	7.9
326.197	7.98
326.408	7.72
326.62	7.58
326.831	8.15
327.042	8.01
327.253	8.33
327.464	8.21
327.676	8.63
327.887	8.63
328.098	8.5
328.309	8
328.52	8.22
328.732	8.53
328.943	8.92
329.154	8.87
329.365	8.66
329.576	8.42
329.787	9.08
329.998	9.04
330.209	9.21
330.42	9.29
330.631	9.46
330.842	9.19
331.053	8.94
331.264	8.31
331.475	8.52
331.686	9.02
331.897	9.21
332.108	8.96
332.319	8.92
332.53	8.87
332.741	8.25
332.952	8.18
333.163	8.64
333.374	8.25
333.585	8.12
333.795	7.76
334.006	7.1
334.217	6.77
334.428	6.66
334.639	6.47
334.849	6.5
335.06	6.96
335.271	7.18
335.482	6.7
335.692	6.89
335.903	7.16
336.114	7.16
336.325	7.52
336.535	7.92
336.746	7.76
336.957	7.48
337.167	7.46
337.378	7.25
337.589	6.96
337.799	7.05
338.01	7.42
338.22	7.19
338.431	7.03
338.642	7.23
338.852	6.64
339.063	6.77
339.273	7.13
339.484	7.12
339.694	7.02
339.905	7.34
340.115	7.44
340.326	7.09
340.536	7.5
340.746	7.68
340.957	7.58
341.167	7.98
341.378	7.93
341.588	7.67
341.799	7.79
342.009	7.88
342.219	7.57
342.43	7.24
342.64	7.26
342.85	6.8
343.061	6.56
343.271	6.43
343.481	6.12
343.691	6.1
343.902	6.18
344.112	5.97
344.322	5.81
344.532	6.08
344.743	6.39
344.953	6.42
345.163	6.52
345.373	6.92
345.583	7.11
345.793	7.45
346.004	7.42
346.214	7.58
346.424	7.38
346.634	7.58
346.844	7.1
347.054	7.29
347.264	7.14
347.474	7.28
347.684	6.67
347.894	6.19
348.104	5.73
348.314	5.9
348.524	5.77
348.734	5.86
348.944	5.56
349.154	5.65
349.364	5.53
349.574	6.11
349.784	5.95
349.994	6.17
350.204	6.36
350.413	6.8
350.623	6.81
350.833	6.62
351.043	6.55
351.253	6.73
351.463	7.08
351.672	6.76
351.882	6.12
352.092	6.21
352.302	6.44
352.511	6.41
352.721	6.21
352.931	6.26
353.141	6.32
353.35	6.57
353.56	6.65
353.77	6.33
353.979	6.5
354.189	6.4
354.399	6.18
354.608	6.22
354.818	6.29
355.027	6.35
355.237	6.33
355.447	6.58
355.656	6.45
355.866	6.54
356.075	6.61
356.285	6.5
356.494	7.01
356.704	7.11
356.913	7.16
357.123	6.89
357.332	6.75
357.542	6.61
357.751	6.38
357.96	6.22
358.17	6.18
358.379	6.58
358.589	6.68
358.798	6.67
359.007	6.58
359.217	6.35
359.426	6.64
359.635	6.68
359.845	6.68
360.054	6.91
360.263	6.9
360.472	6.77
360.682	6.52
360.891	6.44
361.1	6.13
361.309	6.19
361.519	6.09
361.728	6.19
361.937	6.31
362.146	6.24
362.355	6.08
362.564	6.27
362.774	6.44
362.983	6.27
363.192	6.28
363.401	6.34
363.61	6.35
363.819	6.6
364.028	6.42
364.237	6.35
364.446	6.29
364.655	6.1
364.864	5.99
365.073	5.95
365.282	6.06
365.491	6
365.7	5.94
365.909	5.97
366.118	5.67
366.327	5.72
366.536	5.8
366.745	5.95
366.954	6.15
367.162	6.27
367.371	6.16
367.58	6.05
367.789	6.04
367.998	6.25
368.207	6.31
368.415	6.48
368.624	6.21
368.833	6.03
369.042	5.75
369.25	5.7
369.459	5.63
369.668	5.59
369.877	5.59
370.085	5.73
370.294	5.47
370.503	5.38
370.711	5.38
370.92	5.61
371.129	5.72
371.337	5.68
371.546	5.51
371.754	5.29
371.963	5.19
372.171	5.33
372.38	4.99
372.589	5.16
372.797	4.9
373.006	4.85
373.214	4.79
373.423	4.52
373.631	4.58
373.84	4.73
374.048	4.72
374.256	4.74
374.465	4.63
374.673	4.97
374.882	4.68
375.09	4.81
375.298	4.78
375.507	4.75
375.715	4.71
375.923	4.65
376.132	4.65
376.34	4.88
376.548	4.99
376.757	5.16
376.965	4.92
377.173	5.16
377.381	5.17
377.59	5.14
377.798	5.06
378.006	5.18
378.214	5.24
378.423	5.09
378.631	4.97
378.839	5.08
379.047	4.89
379.255	4.78
379.463	4.77
379.671	4.87
379.879	4.88
380.088	4.85
380.296	5.07
380.504	5.14
380.712	5.22
380.92	5.16
381.128	4.97
381.336	5.05
381.544	5.07
381.752	5.04
381.96	5.02
382.168	5.08
382.376	5.12
382.584	5.11
382.791	5.1
382.999	5.14
383.207	5.27
383.415	5.43
383.623	5.44
383.831	5.59
384.039	5.77
384.247	5.54
384.454	5.55
384.662	5.59
384.87	5.35
385.078	5.36
385.285	5.37
385.493	5.27
385.701	5.23
385.909	4.91
386.116	5.04
386.324	4.83
386.532	5.04
386.739	5.01
386.947	5.02
387.155	5.18
387.362	5.28
387.57	5.32
387.778	5.35
387.985	5.41
388.193	5.56
388.4	5.47
388.608	5.41
388.816	5.28
389.023	5.23
389.231	5.06
389.438	5.04
389.646	4.92
389.853	4.83
390.061	4.8
390.268	4.77
390.475	4.77
390.683	4.72
390.89	4.76
391.098	4.86
391.305	4.82
391.512	4.93
391.72	4.82
391.927	4.9
392.135	4.82
392.342	4.75
392.549	4.44
392.756	4.5
392.964	4.55
393.171	4.47
393.378	4.49
393.586	4.48
393.793	4.49
394	4.63
394.207	4.54
394.414	4.62
394.622	4.63
394.829	4.72
395.036	4.43
395.243	4.23
395.45	4.42
395.657	4.43
395.864	4.36
396.072	4.31
396.279	4.01
396.486	3.97
396.693	3.88
396.9	3.92
397.107	4.08
397.314	4.53
397.521	4.66
397.728	4.48
397.935	4.49
398.142	4.62
398.349	4.54
398.556	4.6
398.763	4.79
398.97	4.75
399.177	4.79
399.383	4.6
399.59	4.32
399.797	4.29
400.004	4.48
400.211	4.32
400.418	4.24
400.625	4.39
400.831	4.31
401.038	4.04
401.245	4.09
401.452	4.02
401.658	4.05
401.865	4.13
402.072	4
402.279	3.86
402.485	3.82
402.692	4
402.899	4.04
403.105	4.13
403.312	4.21
403.519	4.21
403.725	4.27
403.932	4.2
404.138	4.36
404.345	4.45
404.552	4.4
404.758	4.48
404.965	4.43
405.171	4.21
405.378	4.26
405.584	4.28
405.791	4.17
405.997	4.07
406.204	4.16
406.41	3.98
406.617	4.1
406.823	4.17
407.029	4.11
407.236	3.93
407.442	4.03
407.649	4.21
407.855	4.34
408.061	4.51
408.268	4.36
408.474	4.26
408.68	4.01
408.887	3.95
409.093	3.89
409.299	3.92
409.505	3.87
409.712	3.79
409.918	3.69
410.124	3.41
410.33	3.44
410.537	3.44
410.743	3.52
410.949	3.74
411.155	3.57
411.361	3.67
411.567	3.83
411.773	3.78
411.98	3.88
412.186	3.63
412.392	3.65
412.598	3.57
412.804	3.69
413.01	3.75
413.216	3.62
413.422	3.65
413.628	3.54
413.834	3.41
414.04	3.64
414.246	3.58
414.452	3.65
414.658	3.73
414.864	3.62
415.07	3.71
415.275	3.62
415.481	3.77
415.687	3.81
415.893	3.84
416.099	3.77
416.305	3.72
416.511	3.71
416.716	3.55
416.922	3.53
417.128	3.6
417.334	3.6
417.539	3.55
417.745	3.44
417.951	3.4
418.157	3.43
418.362	3.49
418.568	3.48
418.774	3.48
418.979	3.56
419.185	3.53
419.391	3.53
419.596	3.42
419.802	3.42
420.008	3.46
420.213	3.4
420.419	3.45
420.624	3.38
420.83	3.33
421.035	3.33
421.241	3.33
421.446	3.31
421.652	3.22
421.857	3.34
422.063	3.35
422.268	3.32
422.474	3.37
422.679	3.29
422.885	3.3
423.09	3.3
423.295	3.24
423.501	3.29
423.706	3.33
423.911	3.39
424.117	3.34
424.322	3.37
424.527	3.4
424.733	3.38
424.938	3.36
425.143	3.36
425.349	3.3
425.554	3.24
425.759	3.18
425.964	3.2
426.169	3.11
426.375	3.15
426.58	3.12
426.785	3.27
426.99	3.24
427.195	3.16
427.4	3.14
427.605	3.25
427.811	3.42
428.016	3.41
428.221	3.33
428.426	3.35
428.631	3.2
428.836	3.3
429.041	3.12
429.246	3.14
429.451	3.23
429.656	3.29
429.861	3.23
430.066	3.14
430.271	3.11
430.476	3.09
430.681	3.09
430.886	3.13
431.09	3.07
431.295	3
431.5	2.97
431.705	2.89
431.91	2.85
432.115	2.81
432.32	2.84
432.524	2.95
432.729	2.97
432.934	2.93
433.139	2.97
433.343	2.97
433.548	3.02
433.753	3.15
433.958	3.29
434.162	3.3
434.367	3.35
434.572	3.34
434.776	3.23
434.981	3.25
435.186	3.4
435.39	3.24
435.595	3.33
435.799	3.37
436.004	3.25
436.209	3.08
436.413	3.08
436.618	3
436.822	3
437.027	3.12
437.231	3.13
437.436	3.13
437.64	3.16
437.845	3.1
438.049	3.08
438.253	3.02
438.458	3.13
438.662	3.17
438.867	3.21
439.071	3.19
439.275	3.1
439.48	3.08
439.684	3.01
439.888	3.07
440.093	3.04
440.297	3.01
440.501	3.12
440.706	3.1
440.91	3.08
441.114	3.08
441.318	3.1
441.523	3.07
441.727	3.05
441.931	3
442.135	2.96
442.339	2.96
442.543	2.91
442.748	2.89
442.952	2.88
443.156	2.79
443.36	2.8
443.564	2.84
443.768	2.84
443.972	2.83
444.176	2.93
444.38	2.95
444.584	2.91
444.788	2.87
444.992	2.78
445.196	2.79
445.4	2.87
445.604	2.93
445.808	2.97
446.012	2.97
446.216	3
446.42	3.03
446.624	3.08
446.828	3.11
447.032	3.18
447.235	3.29
447.439	3.28
447.643	3.18
447.847	3.1
448.051	3.03
448.254	3.11
448.458	3.1
448.662	2.96
448.866	2.85
449.069	2.81
449.273	2.85
449.477	2.8
449.681	2.87
449.884	3.05
450.088	3.03
450.292	2.87
450.495	2.92
450.699	2.96
450.902	3.07
451.106	3.15
451.31	3.19
451.513	3.07
451.717	3.12
451.92	3.02
452.124	2.98
452.327	2.97
452.531	3.11
452.734	3.06
452.938	2.96
453.141	2.87
453.345	2.84
453.548	2.76
453.752	2.79
453.955	2.8
454.158	2.83
454.362	2.88
454.565	2.91
454.769	2.92
454.972	2.91
455.175	3.03
455.379	3.04
455.582	2.96
455.785	3.06
455.988	3.1
456.192	3.04
456.395	2.92
456.598	2.86
456.801	2.93
457.005	2.88
457.208	2.87
457.411	2.81
457.614	2.81
457.817	2.84
458.021	2.8
458.224	2.78
458.427	2.76
458.63	2.86
458.833	2.85
459.036	2.83
459.239	2.8
459.442	2.78
459.645	2.83
459.848	2.91
460.051	2.91
460.254	2.94
460.457	2.99
460.66	3.04
460.863	2.98
461.066	3.01
461.269	2.9
461.472	2.99
461.675	3.05
461.878	2.94
462.081	2.88
462.284	2.85
462.486	2.86
462.689	2.87
462.892	2.92
463.095	2.97
463.298	3.04
463.5	3.12
463.703	3.05
463.906	2.95
464.109	2.99
464.311	2.96
464.514	3.08
464.717	3.04
464.92	3.04
465.122	3
465.325	3.03
465.528	2.99
465.73	2.93
465.933	3
466.135	3
466.338	2.99
466.541	2.94
466.743	2.87
466.946	2.84
467.148	2.82
467.351	2.81
467.553	2.83
467.756	2.77
467.958	2.88
468.161	2.86
468.363	2.92
468.566	2.92
468.768	3.03
468.971	3.05
469.173	3.13
469.375	3.14
469.578	3.16
469.78	3.13
469.983	3.15
470.185	3.03
470.387	2.98
470.59	3
470.792	3.06
470.994	2.94
471.196	2.99
471.399	2.93
471.601	2.91
471.803	2.9
472.005	2.96
472.208	2.91
472.41	2.9
472.612	3.01
472.814	3.05
473.016	3.01
473.218	2.91
473.421	2.85
473.623	2.82
473.825	2.88
474.027	2.8
474.229	2.79
474.431	2.78
474.633	2.99
474.835	2.9
475.037	2.86
475.239	2.91
475.441	3.1
475.643	3.13
475.845	3.2
476.047	3.11
476.249	3.14
476.451	3.12
476.653	3.13
476.855	2.94
477.057	2.97
477.258	2.97
477.46	2.91
477.662	2.86
477.864	2.8
478.066	2.8
478.268	2.86
478.469	2.9
478.671	2.82
478.873	2.91
479.075	2.88
479.276	2.89
479.478	2.86
479.68	2.91
479.882	2.89
480.083	2.89
480.285	2.85
480.487	2.85
480.688	2.76
480.89	2.76
481.091	2.74
481.293	2.78
481.495	2.75
481.696	2.72
481.898	2.71
482.099	2.75
482.301	2.76
482.502	2.75
482.704	2.71
482.905	2.75
483.107	2.75
483.308	2.74
483.51	2.75
483.711	2.77
483.913	2.81
484.114	2.8
484.315	2.76
484.517	2.78
484.718	2.81
484.92	2.82
485.121	2.82
485.322	2.83
485.524	2.81
485.725	2.8
485.926	2.78
486.127	2.77
486.329	2.77
486.53	2.78
486.731	2.73
486.932	2.71
487.134	2.74
487.335	2.73
487.536	2.76
487.737	2.74
487.938	2.73
488.139	2.75
488.341	2.74
488.542	2.77
488.743	2.79
488.944	2.84
489.145	2.87
489.346	2.88
489.547	2.91
489.748	2.87
489.949	2.88
490.15	2.86
490.351	2.89
490.552	2.87
490.753	2.85
490.954	2.83
491.155	2.81
491.356	2.79
491.557	2.77
491.758	2.72
491.959	2.76
492.159	2.79
492.36	2.81
492.561	2.79
492.762	2.84
492.963	2.89
493.164	2.94
493.364	2.98
493.565	3.02
493.766	3.03
493.967	3.1
494.167	3.11
494.368	3.11
494.569	3.13
494.769	3.13
494.97	3.14
495.171	3.16
495.371	3.11
495.572	3.04
495.773	3.08
495.973	2.98
496.174	2.95
496.375	2.93
496.575	2.92
496.776	2.88
496.976	2.86
497.177	2.87
497.377	2.82
497.578	2.82
497.778	2.8
497.979	2.76
498.179	2.88
498.38	2.89
498.58	2.88
498.78	2.93
498.981	2.94
499.181	2.97
499.382	2.94
499.582	2.92
499.782	2.99
499.983	3.06
500.183	3.08
500.383	3.16
500.584	3.09
500.784	3.15
500.984	3.13
501.184	3.15
501.385	3.18
501.585	3.18
501.785	3.18
501.985	3.15
502.185	3.09
502.386	3.02
502.586	2.96
502.786	3.05
502.986	3.08
503.186	3.11
503.386	3.19
503.586	3.16
503.786	3.15
503.987	3.16
504.187	3.1
504.387	3.18
504.587	3.25
504.787	3.28
504.987	3.15
505.187	3.13
505.387	3.15
505.587	3.15
505.786	3.13
505.986	3.1
506.186	3.14
506.386	3.28
506.586	3.33
506.786	3.34
506.986	3.39
507.186	3.47
507.386	3.42
507.585	3.37
507.785	3.45
507.985	3.47
508.185	3.54
508.384	3.51
508.584	3.49
508.784	3.48
508.984	3.46
509.183	3.46
509.383	3.49
509.583	3.55
509.782	3.7
509.982	3.63
510.182	3.57
510.381	3.56
510.581	3.58
510.781	3.58
510.98	3.57
511.18	3.6
511.379	3.47
511.579	3.44
511.778	3.4
511.978	3.3
512.177	3.28
512.377	3.39
512.576	3.42
512.776	3.4
512.975	3.38
513.175	3.4
513.374	3.4
513.573	3.54
513.773	3.56
513.972	3.59
514.172	3.6
514.371	3.63
514.57	3.61
514.77	3.56
514.969	3.65
515.168	3.72
515.367	3.68
515.567	3.72
515.766	3.73
515.965	3.79
516.164	3.8
516.364	3.8
516.563	3.77
516.762	3.8
516.961	3.86
517.16	3.84
517.359	3.82
517.559	3.94
517.758	3.92
517.957	3.92
518.156	3.9
518.355	3.89
518.554	3.99
518.753	4.05
518.952	4
519.151	4.06
519.35	4.08
519.549	4.02
519.748	3.95
519.947	3.98
520.146	3.96
520.345	3.97
520.544	3.99
520.743	3.89
520.942	3.84
521.141	3.82
521.339	3.73
521.538	3.73
521.737	3.74
521.936	3.69
522.135	3.71
522.333	3.73
522.532	3.73
522.731	3.78
522.93	3.81
523.129	3.93
523.327	4.05
523.526	4.09
523.725	4.11
523.923	4.13
524.122	4.19
524.321	4.22
524.519	4.21
524.718	4.2
524.917	4.16
525.115	4.16
525.314	4.11
525.512	4.07
525.711	4.06
525.909	4.15
526.108	4.18
526.306	4.16
526.505	4.15
526.703	4.17
526.902	4.2
527.1	4.24
527.299	4.25
527.497	4.25
527.696	4.26
527.894	4.26
528.092	4.22
528.291	4.22
528.489	4.25
528.688	4.24
528.886	4.27
529.084	4.23
529.283	4.21
529.481	4.21
529.679	4.24
529.877	4.26
530.076	4.32
530.274	4.35
530.472	4.39
530.67	4.36
530.869	4.42
531.067	4.39
531.265	4.49
531.463	4.49
531.661	4.5
531.859	4.52
532.057	4.55
532.255	4.55
532.454	4.54
532.652	4.53
532.85	4.5
533.048	4.51
533.246	4.56
533.444	4.56
533.642	4.58
533.84	4.61
534.038	4.62
534.236	4.64
534.434	4.65
534.632	4.65
534.83	4.74
535.027	4.82
535.225	4.78
535.423	4.83
535.621	4.87
535.819	4.93
536.017	4.94
536.215	4.87
536.412	4.92
536.61	4.92
536.808	4.93
537.006	4.87
537.203	4.91
537.401	4.95
537.599	4.96
537.797	4.97
537.994	4.94
538.192	4.98
538.39	5.09
538.587	5.1
538.785	5.14
538.983	5.21
539.18	5.24
539.378	5.24
539.575	5.22
539.773	5.22
539.97	5.25
540.168	5.29
540.366	5.3
540.563	5.35
540.761	5.33
540.958	5.34
541.155	5.33
541.353	5.37
541.55	5.41
541.748	5.45
541.945	5.43
542.143	5.42
542.34	5.42
542.537	5.45
542.735	5.46
542.932	5.55
543.129	5.61
543.327	5.69
543.524	5.73
543.721	5.71
543.919	5.82
544.116	5.93
544.313	5.97
544.51	6.05
544.708	6.04
544.905	6.11
545.102	6.12
545.299	6.11
545.496	6.11
545.693	6.14
545.891	6.26
546.088	6.26
546.285	6.33
546.482	6.41
546.679	6.48
546.876	6.59
547.073	6.54
547.27	6.61
547.467	6.71
547.664	6.8
547.861	6.89
548.058	6.88
548.255	6.9
548.452	6.88
548.649	6.9
548.846	6.91
549.043	6.95
549.24	7.02
549.437	7.08
549.633	7
549.83	6.99
550.027	7.03
550.224	7.06
550.421	7.13
550.618	7.29
550.814	7.41
551.011	7.44
551.208	7.43
551.405	7.5
551.601	7.51
551.798	7.63
551.995	7.71
552.191	7.66
552.388	7.72
552.585	7.78
552.781	7.77
552.978	7.75
553.175	7.78
553.371	7.9
553.568	7.91
553.764	8.04
553.961	8.11
554.157	8.06
554.354	8.14
554.55	8.22
554.747	8.22
554.943	8.22
555.14	8.18
555.336	8.2
555.533	8.28
555.729	8.33
555.926	8.37
556.122	8.3
556.318	8.41
556.515	8.51
556.711	8.51
556.907	8.53
557.104	8.59
557.3	8.8
557.496	8.91
557.693	8.96
557.889	8.98
558.085	8.93
558.281	9.01
558.478	9.08
558.674	9.19
558.87	9.34
559.066	9.48
559.262	9.49
559.459	9.54
559.655	9.54
559.851	9.63
560.047	9.7
560.243	9.85
560.439	10
560.635	10.03
560.831	10.07
561.027	10.11
561.223	10.2
561.419	10.23
561.615	10.16
561.811	10.33
562.007	10.3
562.203	10.38
562.399	10.44
562.595	10.46
562.791	10.65
562.987	10.67
563.183	10.62
563.379	10.66
563.575	10.85
563.771	11.01
563.966	10.89
564.162	10.94
564.358	11.03
564.554	11.08
564.75	11.07
564.945	11.03
565.141	11.17
565.337	11.35
565.533	11.43
565.728	11.49
565.924	11.5
566.12	11.66
566.315	11.71
566.511	11.85
566.707	11.85
566.902	12.06
567.098	12.13
567.293	12.13
567.489	12.18
567.684	12.18
567.88	12.25
568.076	12.3
568.271	12.38
568.467	12.49
568.662	12.44
568.858	12.54
569.053	12.63
569.248	12.75
569.444	12.9
569.639	12.92
569.835	13.03
570.03	12.98
570.225	13.04
570.421	13.07
570.616	13.06
570.812	13.01
571.007	13.06
571.202	12.97
571.397	13
571.593	13
571.788	13
571.983	13.08
572.178	13.18
572.374	13.23
572.569	13.27
572.764	13.29
572.959	13.42
573.154	13.39
573.35	13.5
573.545	13.54
573.74	13.59
573.935	13.72
574.13	13.73
574.325	13.77
574.52	13.79
574.715	13.76
574.91	13.97
575.105	13.98
575.3	14.2
575.495	14.28
575.69	14.4
575.885	14.41
576.08	14.47
576.275	14.45
576.47	14.54
576.665	14.53
576.86	14.72
577.055	14.7
577.25	14.85
577.444	14.71
577.639	14.66
577.834	14.69
578.029	14.7
578.224	14.68
578.418	14.67
578.613	14.66
578.808	14.81
579.003	14.7
579.197	14.69
579.392	14.68
579.587	14.82
579.781	14.87
579.976	14.81
580.171	15.02
580.365	15.06
580.56	15.17
580.755	15.17
580.949	15.34
581.144	15.44
581.338	15.59
581.533	15.66
581.727	15.76
581.922	15.87
582.116	15.9
582.311	15.8
582.505	15.85
582.7	16.04
582.894	16.21
583.089	16.11
583.283	16.12
583.478	16.04
583.672	16.21
583.866	16.1
584.061	16.17
584.255	16.18
584.449	16.12
584.644	16.29
584.838	16.18
585.032	16.14
585.226	16.16
585.421	16.16
585.615	16.34
585.809	16.2
586.003	16.47
586.198	16.51
586.392	16.71
586.586	16.88
586.78	16.82
586.974	16.88
587.168	16.89
587.363	16.94
587.557	17.08
587.751	17.07
587.945	17.29
588.139	17.06
588.333	17.08
588.527	17.02
588.721	17.01
588.915	17.07
589.109	17.16
589.303	17.21
589.497	17.31
589.691	17.38
589.885	17.38
590.079	17.25
590.273	17.42
590.466	17.24
590.66	17.26
590.854	17.3
591.048	17.3
591.242	17.08
591.436	17.1
591.629	17.07
591.823	17.08
592.017	17.06
592.211	17.14
592.404	17.17
592.598	17.41
592.792	17.38
592.986	17.45
593.179	17.39
593.373	17.59
593.567	17.68
593.76	17.76
593.954	17.8
594.147	17.85
594.341	17.92
594.535	17.96
594.728	17.92
594.922	17.95
595.115	18
595.309	18.08
595.502	17.99
595.696	17.91
595.889	17.87
596.083	17.68
596.276	17.6
596.47	17.44
596.663	17.42
596.856	17.47
597.05	17.51
597.243	17.51
597.437	17.49
597.63	17.62
597.823	17.69
598.017	17.74
598.21	17.91
598.403	17.99
598.596	18.24
598.79	18.17
598.983	18.16
599.176	18.16
599.369	18.13
599.563	18.15
599.756	18.25
599.949	18.19
600.142	18.14
600.335	18.22
600.528	18.26
600.722	18.22
600.915	18.29
601.108	18.31
601.301	18.34
601.494	18.38
601.687	18.28
601.88	18.17
602.073	18.33
602.266	18.32
602.459	18.4
602.652	18.41
602.845	18.46
603.038	18.54
603.231	18.51
603.424	18.46
603.617	18.38
603.809	18.44
604.002	18.53
604.195	18.42
604.388	18.52
604.581	18.5
604.774	18.51
604.966	18.44
605.159	18.43
605.352	18.48
605.545	18.59
605.737	18.67
605.93	18.93
606.123	18.85
606.316	18.96
606.508	19.03
606.701	18.96
606.894	18.95
607.086	19.08
607.279	19.08
607.471	19.14
607.664	19.11
607.857	19.09
608.049	18.96
608.242	19.06
608.434	19.07
608.627	19.06
608.819	19.01
609.012	19.17
609.204	19.1
609.397	19.18
609.589	19.07
609.782	19.09
609.974	19.06
610.166	19.05
610.359	19.05
610.551	19.05
610.743	19.03
610.936	19.21
611.128	19.11
611.32	19.04
611.513	18.86
611.705	18.84
611.897	18.78
612.09	18.97
612.282	19.08
612.474	19.16
612.666	19.19
612.858	19.28
613.051	19.32
613.243	19.28
613.435	19.37
613.627	19.41
613.819	19.63
614.011	19.73
614.203	19.61
614.395	19.52
614.588	19.57
614.78	19.56
614.972	19.61
615.164	19.64
615.356	19.8
615.548	19.77
615.74	19.94
615.932	19.88
616.124	19.72
616.315	19.67
616.507	19.62
616.699	19.58
616.891	19.49
617.083	19.23
617.275	19.24
617.467	19.11
617.659	19.3
617.85	19.3
618.042	19.07
618.234	19.43
618.426	19.62
618.618	19.63
618.809	19.5
619.001	19.48
619.193	19.73
619.384	19.51
619.576	19.57
619.768	19.55
619.959	19.38
620.151	19.67
620.343	19.5
620.534	19.29
620.726	19.4
620.917	19.44
621.109	19.48
621.301	19.45
621.492	19.58
621.684	19.66
621.875	19.45
622.067	19.58
622.258	19.46
622.45	19.55
622.641	19.69
622.832	19.82
623.024	19.81
623.215	19.98
623.407	19.91
623.598	19.94
623.789	19.67
623.981	19.72
624.172	19.76
624.363	19.78
624.555	19.82
624.746	19.94
624.937	19.73
625.129	19.83
625.32	19.84
625.511	19.77
625.702	19.85
625.893	19.99
626.085	20.05
626.276	20.02
626.467	20.15
626.658	20.02
626.849	19.79
627.04	19.87
627.231	19.81
627.422	19.68
627.614	19.73
627.805	19.64
627.996	19.72
628.187	19.61
628.378	19.66
628.569	19.61
628.76	19.8
628.951	19.88
629.142	19.84
629.332	19.92
629.523	20.06
629.714	20.19
629.905	20.27
630.096	20.23
630.287	20.33
630.478	20.3
630.669	20.23
630.859	20.14
631.05	20.26
631.241	20.41
631.432	20.28
631.623	20.15
631.813	20.14
632.004	20.3
632.195	20.58
632.385	20.57
632.576	20.65
632.767	20.74
632.957	20.87
633.148	20.82
633.339	20.79
633.529	20.83
633.72	20.89
633.91	20.84
634.101	20.56
634.292	20.33
634.482	20.42
634.673	20.44
634.863	20.39
635.054	20.4
635.244	20.32
635.435	20.4
635.625	20.46
635.815	20.44
636.006	20.53
636.196	20.58
636.387	20.68
636.577	20.74
636.767	20.67
636.958	20.67
637.148	20.58
637.338	20.51
637.529	20.39
637.719	20.34
637.909	20.51
638.099	20.61
638.29	20.77
638.48	20.79
638.67	20.64
638.86	20.76
639.05	20.89
639.241	20.91
639.431	21.03
639.621	21.05
639.811	21.07
640.001	21.02
640.191	20.79
640.381	20.53
640.571	20.57
640.761	20.53
640.951	20.51
641.141	20.35
641.331	20.16
641.521	20.18
641.711	20.3
641.901	20.3
642.091	20.16
642.281	20.16
642.471	20.43
642.661	20.37
642.851	20.55
643.041	20.45
643.231	20.42
643.42	20.5
643.61	20.43
643.8	20.34
643.99	20.36
644.18	20.48
644.369	20.47
644.559	20.39
644.749	20.24
644.939	20.23
645.128	20.26
645.318	20.25
645.508	20.17
645.697	20.42
645.887	20.34
646.076	20.5
646.266	20.41
646.456	20.52
646.645	20.58
646.835	20.73
647.024	20.71
647.214	20.82
647.403	20.84
647.593	21.03
647.782	21.11
647.972	21.3
648.161	21.1
648.351	21.27
648.54	21.3
648.73	21.17
648.919	21.19
649.108	21.29
649.298	21.16
649.487	21.24
649.677	21.26
649.866	21.11
650.055	20.94
650.244	21.14
650.434	21.11
650.623	21.11
650.812	21.14
651.002	20.98
651.191	20.84
651.38	20.79
651.569	20.89
651.758	20.93
651.947	21.01
652.137	21.19
652.326	20.92
652.515	20.88
652.704	20.93
652.893	21
653.082	21.08
653.271	21.29
653.46	21.42
653.649	21.52
653.838	21.63
654.027	21.57
654.216	21.3
654.405	21.62
654.594	21.79
654.783	21.86
654.972	21.85
655.161	21.58
655.35	21.15
655.539	21.35
655.728	21.33
655.916	21.29
656.105	21.23
656.294	21.38
656.483	21.35
656.672	21.36
656.86	21.07
657.049	21.08
657.238	21.3
657.427	21.5
657.615	21.36
657.804	21.28
657.993	21.13
658.181	21.3
658.37	21.39
658.559	21.34
658.747	21.37
658.936	21.55
659.125	21.7
659.313	21.65
659.502	21.9
659.69	21.97
659.879	21.95
660.067	21.98
660.256	21.89
660.444	21.87
660.633	21.85
660.821	21.63
661.01	21.75
661.198	21.62
661.387	21.71
661.575	21.37
661.763	21.23
661.952	21.35
662.14	21.33
662.328	21.29
662.517	21.28
662.705	21.41
662.893	21.52
663.082	21.44
663.27	21.49
663.458	21.58
663.646	21.88
663.834	22.03
664.023	21.98
664.211	22.34
664.399	22.58
664.587	22.6
664.775	22.43
664.963	22.48
665.152	22.57
665.34	22.49
665.528	22.31
665.716	22.34
665.904	22.18
666.092	22.15
666.28	21.95
666.468	21.9
666.656	21.92
666.844	21.94
667.032	21.87
667.22	21.64
667.408	21.78
667.596	22.04
667.784	21.85
667.971	22.04
668.159	22.13
668.347	22.18
668.535	22.18
668.723	22.09
668.911	22.13
669.098	22.19
669.286	22.45
669.474	22.5
669.662	22.34
669.849	22.5
670.037	22.54
670.225	22.51
670.413	22.44
670.6	22.33
670.788	22.67
670.976	22.55
671.163	22.63
671.351	22.64
671.538	22.66
671.726	22.72
671.913	22.52
672.101	22.6
672.289	22.6
672.476	22.54
672.664	22.73
672.851	22.43
673.039	22.72
673.226	22.23
673.413	22.08
673.601	21.9
673.788	21.76
673.976	21.88
674.163	21.68
674.35	21.8
674.538	21.89
674.725	21.95
674.912	21.72
675.1	21.71
675.287	22.18
675.474	22.23
675.662	22.38
675.849	22.37
676.036	22.39
676.223	22.28
676.411	22.37
676.598	22.21
676.785	22.07
676.972	22.16
677.159	22.1
677.346	22.01
677.533	21.86
677.721	21.7
677.908	21.84
678.095	22.11
678.282	22.21
678.469	22.31
678.656	22.31
678.843	22.31
679.03	22.49
679.217	22.69
679.404	22.91
679.591	22.95
679.778	22.87
679.964	22.95
680.151	22.73
680.338	22.51
680.525	22.09
680.712	22.31
680.899	22.1
681.086	22.08
681.272	21.83
681.459	21.76
681.646	21.78
681.833	22.04
682.02	22.04
682.206	22.08
682.393	22.48
682.58	22.53
682.766	22.39
682.953	22.62
683.14	22.5
683.326	22.64
683.513	22.6
683.7	22.74
683.886	22.57
684.073	22.46
684.259	22.49
684.446	22.37
684.632	22.66
684.819	22.78
685.005	22.87
685.192	22.93
685.378	22.87
685.565	22.71
685.751	22.69
685.938	22.87
686.124	23.25
686.31	23.08
686.497	23.06
686.683	23.1
686.87	23.2
687.056	23.21
687.242	23.36
687.429	23.34
687.615	23.35
687.801	23.53
687.987	23.57
688.174	23.04
688.36	23.16
688.546	22.91
688.732	22.72
688.918	22.63
689.105	22.67
689.291	22.62
689.477	22.46
689.663	22.59
689.849	22.4
690.035	22.5
690.221	22.94
690.407	23.06
690.593	23.31
690.779	23.45
690.965	23.64
691.151	23.37
691.337	23.21
691.523	23.33
691.709	23.29
691.895	23.18
692.081	22.94
692.267	22.81
692.453	22.57
692.639	22.81
692.825	22.76
693.011	22.48
693.196	23.02
693.382	23.12
693.568	23.3
693.754	23.31
693.94	23.57
694.125	23.33
694.311	23.26
694.497	23.48
694.682	23.74
694.868	23.64
695.054	23.53
695.239	23.14
695.425	23.17
695.611	23
695.796	22.94
695.982	22.74
696.168	23.04
696.353	23.07
696.539	22.95
696.724	22.69
696.91	22.8
697.095	22.85
697.281	22.83
697.466	22.72
697.652	22.77
697.837	22.82
698.023	22.93
698.208	22.71
698.393	22.54
698.579	22.62
698.764	22.61
698.949	22.6
699.135	22.76
699.32	22.88
699.505	23.02
699.691	23.2
699.876	23.19
700.061	22.91
700.246	23.08
700.432	23.22
700.617	23.11
700.802	23.46
700.987	23.35
701.172	23.35
701.358	23.09
701.543	23.22
701.728	23.04
701.913	23.53
702.098	23.89
702.283	24.08
702.468	24.22
702.653	24.19
702.838	23.69
703.023	23.78
703.208	23.54
703.393	23.69
703.578	23.55
703.763	23.26
703.948	22.88
704.133	22.48
704.318	22.13
704.503	22.28
704.688	22.41
704.873	22.64
705.057	22.61
705.242	22.65
705.427	22.54
705.612	22.59
705.797	22.93
705.981	22.81
706.166	22.99
706.351	23.42
706.536	23.32
706.72	23.6
706.905	23.4
707.09	22.89
707.274	22.82
707.459	22.92
707.644	22.86
707.828	23.15
708.013	23.21
708.197	23.32
708.382	23.54
708.567	23.83
708.751	23.48
708.936	23.61
709.12	24.15
709.305	24.18
709.489	24.05
709.673	23.91
709.858	23.43
710.042	23.16
710.227	23.21
710.411	23.05
710.596	22.77
710.78	22.8
710.964	22.75
711.149	22.63
711.333	22.81
711.517	23.02
711.702	23.14
711.886	23.14
712.07	23.19
712.254	23.16
712.438	23.26
712.623	23.55
712.807	23.62
712.991	23.62
713.175	23.64
713.359	23.51
713.544	23.51
713.728	23.78
713.912	23.94
714.096	24.08
714.28	24.06
714.464	23.88
714.648	23.4
714.832	23.27
715.016	23.31
715.2	23.44
715.384	23.8
715.568	23.9
715.752	24.03
715.936	24.19
716.12	24.01
716.304	24.17
716.488	24.18
716.671	24.05
716.855	24.35
717.039	24.36
717.223	24.13
717.407	23.71
717.59	23.77
717.774	23.23
717.958	23.3
718.142	23.58
718.325	23.55
718.509	23.72
718.693	23.85
718.877	23.7
719.06	23.62
719.244	23.69
719.428	23.56
719.611	23.4
719.795	23.41
719.978	23.54
720.162	23.25
720.345	23.09
720.529	23.07
720.713	23.45
720.896	23.72
721.08	23.61
721.263	23.79
721.446	24.24
721.63	24.18
721.813	23.94
721.997	23.76
722.18	24.18
722.364	24.26
722.547	23.61
722.73	23.86
722.914	23.12
723.097	23.4
723.28	23.34
723.464	23.09
723.647	22.87
723.83	23.58
724.013	23.21
724.197	22.88
724.38	22.5
724.563	22.86
724.746	22.3
724.929	22.76
725.112	22.73
725.296	22.33
725.479	22.64
725.662	22.87
725.845	22.5
726.028	22.62
726.211	23.18
726.394	23.49
726.577	23.16
726.76	23.59
726.943	23.38
727.126	23.11
727.309	23.12
727.492	22.78
727.675	22.34
727.858	22.81
728.041	23.13
728.224	22.85
728.407	22.82
728.589	23.18
728.772	23.03
728.955	23.17
729.138	23.52
729.321	23.75
729.503	23.59
729.686	24.28
729.869	24.12
730.052	23.97
730.234	24.29
730.417	24.24
730.6	24.18
730.782	23.68
730.965	23.83
731.148	23.88
731.33	23.76
731.513	23.83
731.695	23.49
731.878	23.53
732.061	23.42
732.243	23
732.426	23
732.608	23.26
732.791	23.81
732.973	23.71
733.156	23.45
733.338	23.77
733.52	23.96
733.703	24.08
733.885	23.94
734.068	23.95
734.25	24.06
734.432	24.15
734.615	23.94
734.797	23.65
734.979	23.39
735.162	23.64
735.344	23.4
735.526	22.83
735.708	22.66
735.891	22.65
736.073	22.24
736.255	22.39
736.437	22.43
736.619	22.64
736.802	22.92
736.984	23.23
737.166	22.94
737.348	23.41
737.53	24.29
737.712	24.22
737.894	24.58
738.076	24.81
738.258	24.54
738.44	24.67
738.622	24.27
738.804	23.94
738.986	23.45
739.168	23.07
739.35	22.61
739.532	22.28
739.714	22.05
739.896	21.51
740.078	21.87
740.259	22.39
740.441	21.89
740.623	21.83
740.805	22.51
740.987	23.04
741.168	23.88
741.35	24.41
741.532	24.55
741.714	25.01
741.895	25.1
742.077	24.84
742.259	24.78
742.44	24.9
742.622	24.64
742.804	24.28
742.985	24.1
743.167	23.65
743.348	23.21
743.53	22.76
743.711	22.73
743.893	23.05
744.075	23.11
744.256	23.11
744.438	23.52
744.619	23.86
744.8	24.41
744.982	24.52
745.163	24.65
745.345	24.73
745.526	25.38
745.707	25.11
745.889	25.25
746.07	25.46
746.252	24.78
746.433	24.98
746.614	24.97
746.795	24.61
746.977	24.33
747.158	24.37
747.339	24.29
747.52	23.89
747.702	24.21
747.883	24.61
748.064	24.8
748.245	25.1
748.426	24.79
748.607	24.91
748.788	24.55
748.97	24.29
749.151	23.86
749.332	23.93
749.513	24.31
749.694	24.46
749.875	24.15
750.056	24.49
750.237	24.13
750.418	24.06
750.599	24.32
750.78	24.06
750.96	24.5
751.141	24.97
751.322	25.77
751.503	25.82
751.684	26.03
751.865	25.42
752.046	24.74
752.226	25.03
752.407	25.09
752.588	25.04
752.769	25.47
752.949	25.42
753.13	26.1
753.311	25.68
753.492	25.13
753.672	24.93
753.853	26.16
754.034	26.14
754.214	25.76
754.395	25.67
754.575	25.83
754.756	25.71
754.937	26.37
755.117	25.09
755.298	24.65
755.478	25.16
755.659	24.96
755.839	23.92
756.02	24.59
756.2	24.8
756.381	24.92
756.561	24.7
756.741	24.83
756.922	24.31
757.102	24.66
757.283	25.29
757.463	24.95
757.643	25.08
757.823	25.31
758.004	24.58
758.184	24.88
758.364	25.11
758.545	25.39
758.725	25.33
758.905	25.62
759.085	25.44
759.265	25.38
759.446	25.66
759.626	25.82
759.806	25.29
759.986	25.56
760.166	25.59
760.346	25.92
760.526	25.55
760.706	25.65
760.886	24.86
761.066	24.74
761.246	24.52
761.426	24.18
761.606	24.02
761.786	24.32
761.966	24.06
762.146	23.85
762.326	23.49
762.506	23.45
762.686	23.19
762.866	23.46
763.046	23.79
763.225	23.76
763.405	23.84
763.585	23.6
763.765	23.69
763.945	23.69
764.124	23.89
764.304	24.17
764.484	24.61
764.664	24.82
764.843	25.19
765.023	24.27
765.203	24.12
765.382	24.53
765.562	24.91
765.741	25
765.921	25.02
766.101	25.07
766.28	24.85
766.46	24.39
766.639	24.08
766.819	23.48
766.998	24.64
767.178	24.98
767.357	24.97
767.537	24.61
767.716	24.27
767.896	24.35
768.075	24.16
768.254	23.62
768.434	24
768.613	24.43
768.792	25.27
768.972	25.15
769.151	24.99
769.33	24.78
769.51	25.19
769.689	25.31
769.868	25.98
770.047	25.31
770.226	25.61
770.406	25.11
770.585	24.8
770.764	24.57
770.943	24.76
771.122	25.19
771.301	25.01
771.48	24.52
771.66	24.84
771.839	23.77
772.018	24.54
772.197	25.12
772.376	25.35
772.555	25.48
772.734	25.97
772.913	25.51
773.092	24.83
773.271	24.76
773.449	25.26
773.628	25.41
773.807	26.04
773.986	26.19
774.165	25.43
774.344	24.86
774.523	24.47
774.701	23.9
774.88	24.25
775.059	23.68
775.238	24.16
775.417	25.02
775.595	24.54
775.774	23.88
775.953	23.97
776.131	24.5
776.31	24.96
776.489	26.06
776.667	25.91
776.846	26.17
777.025	26.99
777.203	26.39
777.382	25.28
777.56	25.52
777.739	26.3
777.917	26.79
778.096	27.17
778.274	27.08
778.453	26.77
778.631	26.49
778.81	27.14
778.988	27.87
779.166	27.81
779.345	27.28
779.523	26.7
779.702	26.19
779.88	25.9
780.058	25.65
780.237	25.75
780.415	26.51
780.593	27.37
780.771	27.74
780.95	27.09
781.128	27.73
781.306	28.9
781.484	29.01
781.662	29.36
781.841	29.12
782.019	28.54
782.197	28.76
782.375	27.72
782.553	26.86
782.731	26.61
782.909	26.39
783.087	25.62
783.265	25.77
783.443	25.23
783.621	25.47
783.799	24.99
783.977	25.94
784.155	25.89
784.333	26.14
784.511	26.17
784.689	24.97
784.867	24.4
785.045	25.9
785.223	25.29
785.4	26.16
785.578	25.19
785.756	25.77
785.934	25.45
786.112	26.01
786.289	26.47
786.467	26.89
786.645	27.27
786.823	28.22
787	27.33
787.178	27.46
787.356	27.73
787.533	28.58
787.711	28.49
787.889	28.56
788.066	27.83
788.244	27.78
788.421	28.2
788.599	28.77
788.776	28.36
788.954	28.8
789.131	28.72
789.309	28.59
789.486	27.57
789.664	27.77
789.841	26.93
790.019	26.89
790.196	26.62
790.373	26.59
790.551	25.39
790.728	25.84
790.906	24.95
791.083	25.15
791.26	25.23
791.437	27.8
791.615	26.94
791.792	27.9
791.969	28.4
792.146	28.72
792.324	27.59
792.501	27.94
792.678	27.39
792.855	27.79
793.032	27.8
793.209	27.24
793.387	26.08
793.564	26.68
793.741	26.37
793.918	26.49
794.095	26.45
794.272	25.94
794.449	25.51
794.626	25.86
794.803	25.37
794.98	24.97
795.157	24.76
795.334	24.13
795.511	23.94
795.688	23.36
795.864	23.26
796.041	22.13
796.218	23.35
796.395	24.4
796.572	24.07
796.749	24.93
796.925	25.29
797.102	26.2
797.279	26.78
797.456	26.94
797.632	28.09
797.809	27.61
797.986	28.62
798.162	28.59
798.339	28.25
798.516	28.37
798.692	28.33
798.869	28.47
799.046	28.14
799.222	27.78
799.399	27.77
799.575	28
799.752	27.74
799.928	27.46
800.105	27.38
800.281	27.21
800.458	27.5
800.634	26.8
800.811	26.17
800.987	26.23
801.163	27.02
801.34	26.7
801.516	25.4
801.692	25.53
801.869	26.04
802.045	26.51
802.221	26.43
802.398	26.06
802.574	26.07
802.75	26.05
802.926	26.49
803.103	25.62
803.279	26.66
803.455	27.49
803.631	28.22
803.807	26.73
803.983	26.82
804.16	26.8
804.336	26.85
804.512	27.43
804.688	28.1
804.864	28.56
805.04	28.05
805.216	27.62
805.392	28.09
805.568	27.77
805.744	28.31
805.92	29.41
806.096	29.25
806.272	29.32
806.448	28.79
806.623	27.51
806.799	25.68
806.975	26.04
807.151	25.63
807.327	25.43
807.503	26
807.678	26.69
807.854	25.11
808.03	25.45
808.206	26.12
808.381	26.19
808.557	27.45
808.733	28.91
808.908	28.31
809.084	29.33
809.26	28.58
809.435	29.26
809.611	29.17
809.787	28.97
809.962	30.17
810.138	30.33
810.313	31.55
810.489	30.44
810.664	28.89
810.84	30.23
811.015	30.55
811.191	30.09
811.366	28.21
811.542	28.31
811.717	28.67
811.892	27.44
812.068	26.68
812.243	26.09
812.419	26.94
812.594	27.19
812.769	26.88
812.944	25.59
813.12	27.19
813.295	29.12
813.47	29.35
813.645	29.17
813.821	28.38
813.996	28
814.171	27.42
814.346	28.79
814.521	30.38
814.697	29.79
814.872	30.08
815.047	30.47
815.222	30.4
815.397	29.22
815.572	29.45
815.747	31.64
815.922	30.9
816.097	31.93
816.272	30.59
816.447	29.3
816.622	30.67
816.797	30.09
816.972	28.89
817.147	29.23
817.322	30.19
817.496	29.08
817.671	27.35
817.846	28.28
818.021	26.9
818.196	26.7
818.371	27.66
818.545	26.26
818.72	26.28
818.895	26.26
819.069	25.15
819.244	24.76
819.419	25.67
819.594	25.74
819.768	26.37
819.943	26.47
820.117	26.39
820.292	26.02
820.467	26.29
820.641	26.6
820.816	26.38
820.99	25.88
821.165	25.53
821.339	25.39
821.514	25.15
821.688	24.97
821.863	25.05
822.037	25
822.212	24.81
822.386	24.78
822.56	24.52
822.735	24.36
822.909	24.31
823.084	24.56
823.258	24.32
823.432	24.51
823.606	24.27
823.781	24.3
823.955	24.31
824.129	24.27
824.303	24.35
824.478	24.56
824.652	24.55
824.826	25.1
825	25.22
825.174	25.75
825.348	25.78
825.523	25.92
825.697	25.88
825.871	26.04
826.045	26.52
826.219	26.53
826.393	26.57
826.567	27.13
826.741	27.12
826.915	26.47
827.089	26.34
827.263	26.77
827.437	26.98
827.611	26.96
827.784	27.17
827.958	26.94
828.132	27.3
828.306	27.37
828.48	27.19
828.654	27.25
828.827	27.96
829.001	28.73
829.175	28.49
829.349	28.72
829.522	28.47
829.696	28.25
829.87	29.21
830.044	28.75
830.217	29
830.391	29
830.565	28.87
830.738	28.86
830.912	28.82
831.085	28.75
831.259	29.26
831.432	29
831.606	28.6
831.779	27.23
831.953	27.77
832.126	27.61
832.3	26.71
832.473	26.34
832.647	26.36
832.82	26.76
832.994	27.01
833.167	26.26
833.34	27.09
833.514	27.51
833.687	27.26
833.86	26.9
834.034	26.86
834.207	27.26
834.38	27.75
834.553	28.17
834.727	27.03
834.9	27.2
835.073	27.42
835.246	26.75
835.419	27.1
835.593	26.92
835.766	27.07
835.939	26.68
836.112	27.69
836.285	27.66
836.458	28.13
836.631	28.02
836.804	27.53
836.977	28.54
837.15	29.83
837.323	30.32
837.496	33.01
837.669	34.29
837.842	34.89
838.015	34.09
838.188	33.27
838.361	32.82
838.533	34.83
838.706	34.59
838.879	34.51
839.052	34.24
839.225	34.35
839.398	34.5
839.57	33.35
839.743	34.59
839.916	34.74
840.088	34.34
840.261	35.19
840.434	35.25
840.607	36.08
840.779	35.18
840.952	34.17
841.124	32.89
841.297	30.99
841.47	31.58
841.642	32.18
841.815	32.66
841.987	35.24
842.16	35.89
842.332	34.88
842.505	33.6
842.677	31.82
842.85	33.69
843.022	32.56
843.194	33.84
843.367	32.7
843.539	28.38
843.712	28.69
843.884	28.52
844.056	23.66
844.229	25.33
844.401	27.19
844.573	29.42
844.745	27.61
844.918	30.23
845.09	31.24
845.262	33.11
845.434	35.55
845.606	34.74
845.779	35.92
845.951	37.73
846.123	36.24
846.295	38.09
846.467	37.05
846.639	38.59
846.811	36.55
846.983	35.72
847.155	33.94
847.327	36.84
847.499	35.17
847.671	32.41
847.843	29.89
848.015	30.31
848.187	25.17
848.359	27.45
848.531	25.76
848.703	30.38
848.875	27.71
849.047	24.36
849.218	20.13
849.39	22.82
849.562	22.94
849.734	26.06
849.905	27.86
850.077	29.48
850.249	24.43
850.421	29.83
850.592	24.84
850.764	28.9
850.936	33.38
851.107	31.84
851.279	31.04
851.451	31.92
851.622	29.7
851.794	28.89
851.965	31.59
852.137	36.38
852.308	34.58
852.48	39.29
852.651	40.7
852.823	38.8
852.994	40.67
853.166	41.08
853.337	43.92
853.509	45.24
853.68	43.49
853.851	41.35
854.023	38.47
854.194	39.04
854.365	33.92
854.537	29.4
854.708	32.88
854.879	29.52
855.05	30.8
855.222	31.9
855.393	32.48
855.564	34.11
855.735	38.22
855.906	42.64
856.078	36.69
856.249	40.31
856.42	44.01
856.591	43.12
856.762	48.45
856.933	49
857.104	46.32
857.275	44.86
857.446	44.2
857.617	40.59
857.788	36.46
857.959	38.89
858.13	36.06
858.301	38.14
858.472	37.14
858.643	39.37
858.814	38.04
858.985	35.42
859.155	40.51
859.326	39.23
859.497	39.93
859.668	39.43
859.839	39.59
860.009	38.72
860.18	35.25
860.351	37.96
860.522	33.86
860.692	30.01
860.863	31.54
861.034	31.09
861.204	28.58
861.375	31.01
861.546	35.84
861.716	41.89
861.887	41.08
862.057	40.94
862.228	35.24
862.398	35.81
862.569	37.85
862.739	39.97
862.91	34.07
863.08	35.19
863.251	32.08
863.421	28.05
863.592	19.97
863.762	26.04
863.932	25.33
864.103	29.43
864.273	35.25
864.443	37.38
864.614	36.25
864.784	39.99
864.954	40.94
865.125	41.79
865.295	42.05
865.465	44.66
865.635	39.39
865.805	44.47
865.976	42.46
866.146	39.33
866.316	40.26
866.486	41.53
866.656	43.15
866.826	43.02
866.996	42.77
867.166	40.81
867.336	40.49
867.506	40.41
867.676	33.96
867.846	32.68
868.016	33.37
868.186	32.61
868.356	29.5
868.526	24.07
868.696	23.96
868.866	22.77
869.036	29.05
869.206	23.99
869.376	31.82
869.545	33.79
869.715	40.42
869.885	37.82
870.055	35.62
870.224	38.95
870.394	34.14
870.564	37.81
870.734	38.82
870.903	34.13
871.073	36.53
871.243	35.59
871.412	35.39
871.582	32.43
871.751	35.38
871.921	38.51
872.091	37.54
872.26	46.12
872.43	42.16
872.599	43.29
872.769	45.1
872.938	46.63
873.108	46.25
873.277	45.34
873.446	41.64
873.616	39.23
873.785	39.76
873.955	37.99
874.124	36.75
874.293	40.75
874.463	40.78
874.632	43.24
874.801	43.76
874.971	45.09
875.14	46.55
875.309	49.33
875.478	51.81
875.647	49.19
875.817	51.48
875.986	54.21
876.155	49.95
876.324	52.26
876.493	51.52
876.662	47.11
876.831	46.21
877	48.3
877.17	45.97
877.339	47.1
877.508	50.49
877.677	45.95
877.846	42.38
878.015	42.29
878.184	41.45
878.352	38.01
878.521	41.49
878.69	39.53
878.859	37.86
879.028	40.61
879.197	37.15
879.366	34.95
879.534	35.83
879.703	34.7
879.872	32.6
880.041	30.49
880.21	31.99
880.378	30.96
880.547	31.11
880.716	30.1
880.884	29.08
881.053	29.26
881.222	29.74
881.39	29.82
881.559	29.78
881.727	29.95
881.896	30.15
882.065	29.14
882.233	29.16
882.402	29.08
882.57	29.19
882.739	29.55
882.907	29.55
883.076	29.18
883.244	29.06
883.412	29.67
883.581	29.89
883.749	30.06
883.918	30.66
884.086	30.79
884.254	30.97
884.423	30.94
884.591	30.59
884.759	31.34
884.927	31.52
885.096	31.82
885.264	31.94
885.432	33.02
885.6	33.29
885.769	35.43
885.937	34.96
886.105	34.31
886.273	35.61
886.441	36.22
886.609	35.55
886.777	37.46
886.945	40.91
887.113	42.34
887.281	43.78
887.449	43.18
887.617	39.5
887.785	41.63
887.953	43.16
888.121	40.98
888.289	43.44
888.457	45.72
888.625	42.59
888.793	39.8
888.961	37.73
889.129	36.51
889.296	39.88
889.464	42.31
889.632	43.29
889.8	44.24
889.967	49.87
890.135	49.45
