Data from 2938480_Reflection_1.txt Node
Date: Wed Jun 17 01:14:18 EDT 2015
User: robert
Spectrometer: USB4E03002
Autoset integration time: false
Trigger mode: 4
Integration Time (sec): 1.000000E-1
Scans to average: 10
Electric dark correction enabled: true
Nonlinearity correction enabled: false
Boxcar width: 5
Stray light correction enabled: false
XAxis mode: Wavelengths
Stop averaging: false
Number of Pixels in Spectrum: 3648
>>>>>Begin Spectral Data<<<<<
177.575	-105.29
177.794	-117.11
178.014	-24.73
178.233	-32.82
178.452	23.94
178.672	77.29
178.891	207.95
179.11	-47.48
179.33	-82.14
179.549	-164.45
179.768	-120.13
179.987	-183.22
180.207	-193.6
180.426	-69.57
180.645	-58.19
180.864	-24.3
181.084	3.81
181.303	2.99
181.522	-11.78
181.741	-15.36
181.96	6.61
182.179	-15.04
182.398	8.01
182.618	28.44
182.837	-17.7
183.056	4208.33
183.275	22.39
183.494	52.28
183.713	41.48
183.932	43.38
184.151	50.99
184.37	77.84
184.589	38.64
184.808	34.05
185.027	64.26
185.246	59.01
185.465	34.9
185.684	77.31
185.903	404.44
186.122	-20.73
186.341	-104.98
186.56	295.18
186.779	6562.12
186.998	388.32
187.216	314.19
187.435	406.71
187.654	131.93
187.873	235.43
188.092	156.67
188.311	-115.32
188.53	-5.83
188.748	-343.16
188.967	-378.04
189.186	465.4
189.405	597.54
189.623	330.68
189.842	464.35
190.061	236.86
190.28	231.09
190.498	228.59
190.717	-415.68
190.936	156.08
191.154	49.71
191.373	-15.85
191.592	-238.85
191.81	327.17
192.029	53.89
192.248	-276.83
192.466	-262.46
192.685	38.11
192.904	44.77
193.122	46.78
193.341	62.6
193.559	101.39
193.778	100.7
193.996	96.61
194.215	91.52
194.433	79
194.652	90.46
194.87	87.14
195.089	96.2
195.307	117.14
195.526	104.01
195.744	103.18
195.963	81.68
196.181	67.7
196.399	66.31
196.618	59.27
196.836	50.61
197.055	46.45
197.273	19.38
197.491	-35.03
197.71	2.1
197.928	-22.17
198.146	-50.17
198.365	-2707.89
198.583	-54.6
198.801	235.52
199.019	-22.11
199.238	-76.06
199.456	1.53
199.674	1.3
199.892	53.11
200.111	65.25
200.329	131.12
200.547	273.93
200.765	284.05
200.983	166.28
201.202	139.97
201.42	404.05
201.638	498.85
201.856	157.62
202.074	228.59
202.292	151.57
202.51	115.32
202.728	95.41
202.946	81.4
203.165	71.68
203.383	60.74
203.601	78.42
203.819	48.1
204.037	39.91
204.255	29.09
204.473	-671.13
204.691	325.16
204.909	146.45
205.127	123.91
205.345	113.71
205.562	121.72
205.78	72.22
205.998	133.51
206.216	191.45
206.434	133.93
206.652	47.85
206.87	17.85
207.088	9.33
207.306	-19.13
207.523	24.97
207.741	57.09
207.959	-45.78
208.177	-78.57
208.395	-302.81
208.612	-455.33
208.83	-7158.49
209.048	254.07
209.266	162.22
209.483	131.23
209.701	200.63
209.919	224.39
210.136	169.11
210.354	-481.97
210.572	35.49
210.79	99.24
211.007	-12.74
211.225	-184.29
211.442	-91.03
211.66	-64.13
211.878	79.61
212.095	375.98
212.313	-102.49
212.53	-89.37
212.748	-37.52
212.966	-170.96
213.183	-218.47
213.401	-953.08
213.618	-417.53
213.836	-130.36
214.053	-163.95
214.271	-361.17
214.488	-116.83
214.705	-106.65
214.923	-66.47
215.14	-55.54
215.358	-44.97
215.575	-59.87
215.793	-8.57
216.01	-17.86
216.227	-115.36
216.445	-91.36
216.662	-6.98
216.879	8.16
217.097	21.24
217.314	44.17
217.531	55.23
217.749	50.25
217.966	27.49
218.183	28.67
218.4	47.06
218.618	16.27
218.835	34.9
219.052	18.93
219.269	14.52
219.487	26.38
219.704	14.69
219.921	7.36
220.138	13.01
220.355	25.56
220.572	13.57
220.79	-2.79
221.007	1.9
221.224	1.13
221.441	-0.86
221.658	2.89
221.875	-0.95
222.092	1.29
222.309	-1.98
222.526	3.1
222.743	11.97
222.96	20.49
223.177	23.31
223.394	25.58
223.611	22.5
223.828	23.65
224.045	22.32
224.262	19.9
224.479	19.54
224.696	19.01
224.913	14.15
225.13	12.43
225.347	10.32
225.564	8.64
225.781	8.14
225.997	6.51
226.214	8.13
226.431	8.25
226.648	7.92
226.865	7.7
227.082	7.85
227.298	9.36
227.515	8.22
227.732	8.75
227.949	9.49
228.165	8.94
228.382	9.61
228.599	8.23
228.816	7.84
229.032	7.59
229.249	6.88
229.466	7.45
229.682	6.3
229.899	7.58
230.116	7.93
230.332	9.16
230.549	9.51
230.765	10.84
230.982	12.71
231.199	13.11
231.415	15.56
231.632	16.58
231.848	17.65
232.065	17.26
232.281	15.81
232.498	14.09
232.714	12.49
232.931	12.9
233.147	11.67
233.364	10.94
233.58	11.55
233.797	10.08
234.013	8.07
234.23	6.4
234.446	7.53
234.662	7.81
234.879	8.86
235.095	9.75
235.312	9.1
235.528	10.16
235.744	8.98
235.961	8.55
236.177	9.07
236.393	11.08
236.61	12.77
236.826	13.69
237.042	13.33
237.258	13.7
237.475	14.25
237.691	14
237.907	12.22
238.123	11.77
238.339	11.2
238.556	9.98
238.772	11.37
238.988	9.81
239.204	10.62
239.42	11.93
239.636	11.13
239.853	10.73
240.069	11.01
240.285	10.84
240.501	11.66
240.717	11.89
240.933	12.06
241.149	11.99
241.365	11.3
241.581	11.19
241.797	10.84
242.013	10.82
242.229	11.13
242.445	10.5
242.661	10.59
242.877	10.16
243.093	9.76
243.309	9.62
243.525	9.5
243.741	10.4
243.957	9.31
244.173	9.92
244.388	10.11
244.604	9.87
244.82	9.83
245.036	9.97
245.252	9.58
245.468	9.74
245.683	9.47
245.899	9.45
246.115	9.29
246.331	9.48
246.547	9.12
246.762	9.25
246.978	9.16
247.194	9.55
247.409	9.79
247.625	10.05
247.841	9.82
248.057	10.19
248.272	9.77
248.488	9.22
248.703	9.09
248.919	9.52
249.135	9.77
249.35	9.32
249.566	8.82
249.782	8.97
249.997	8.68
250.213	8.99
250.428	9.5
250.644	8.5
250.859	9.46
251.075	9.77
251.29	9.42
251.506	8.54
251.721	9.68
251.937	9.83
252.152	9.29
252.368	9.51
252.583	9.29
252.798	8.78
253.014	10.43
253.229	10.19
253.445	9.44
253.66	8.59
253.875	10.2
254.091	9
254.306	9.33
254.521	8.47
254.737	8.29
254.952	8.49
255.167	8.18
255.383	8.5
255.598	8.45
255.813	8.2
256.028	8.3
256.244	7.05
256.459	6.81
256.674	6.39
256.889	6.84
257.104	7.23
257.32	6.83
257.535	6.92
257.75	6.34
257.965	5.76
258.18	6.15
258.395	6.37
258.61	6.4
258.826	6.22
259.041	6.39
259.256	6.41
259.471	6.27
259.686	6.39
259.901	6.15
260.116	6.11
260.331	6.65
260.546	6.23
260.761	5.77
260.976	5.78
261.191	5.45
261.406	5.48
261.621	5.4
261.836	4.91
262.05	4.43
262.265	4.65
262.48	4.93
262.695	4.79
262.91	4.83
263.125	4.28
263.34	4.68
263.555	5.76
263.769	5.69
263.984	5.38
264.199	5.98
264.414	6.06
264.629	6.13
264.843	6.9
265.058	6.84
265.273	7.18
265.488	8.03
265.702	8.23
265.917	7.87
266.132	7.4
266.346	8.26
266.561	8.28
266.776	8.41
266.99	8.63
267.205	8.4
267.42	8.65
267.634	8.26
267.849	7.71
268.063	7.22
268.278	6.87
268.492	6.86
268.707	6.14
268.922	5.81
269.136	5.73
269.351	5.42
269.565	5.74
269.78	5.76
269.994	5.59
270.209	5.7
270.423	5.61
270.637	5.82
270.852	5.67
271.066	5.8
271.281	5.61
271.495	5.83
271.709	5.68
271.924	5.19
272.138	5.17
272.353	5.62
272.567	5.8
272.781	5.97
272.996	5.87
273.21	6.7
273.424	6.12
273.638	6.71
273.853	6.57
274.067	6.94
274.281	6.48
274.495	6.25
274.71	5.93
274.924	5.49
275.138	5.74
275.352	5.83
275.566	5.22
275.781	5.6
275.995	5.28
276.209	5.5
276.423	5.07
276.637	5.78
276.851	6.07
277.065	6.17
277.279	6.41
277.493	6.63
277.707	7.08
277.921	7.13
278.135	7.25
278.349	7.23
278.563	6.98
278.777	7.18
278.991	7.01
279.205	6.36
279.419	6.48
279.633	6.66
279.847	6.16
280.061	6.13
280.275	5.97
280.489	5.76
280.703	5.74
280.917	6.13
281.131	5.83
281.344	5.79
281.558	6.22
281.772	5.98
281.986	6.16
282.2	5.87
282.414	5.55
282.627	5.92
282.841	6.39
283.055	5.94
283.269	5.73
283.482	6.01
283.696	5.65
283.91	5.59
284.123	5.62
284.337	5.35
284.551	5.17
284.764	5.03
284.978	4.88
285.192	4.53
285.405	4.59
285.619	4.32
285.833	4.03
286.046	4.53
286.26	4.6
286.473	4.29
286.687	4.35
286.9	4.58
287.114	4.76
287.327	4.75
287.541	4.79
287.754	5.3
287.968	5.12
288.181	5.26
288.395	4.99
288.608	4.86
288.822	5.31
289.035	5.52
289.248	5.74
289.462	5.53
289.675	5.57
289.889	5.46
290.102	5.36
290.315	5.87
290.529	5.91
290.742	5.6
290.955	5.59
291.169	5.47
291.382	4.79
291.595	5.07
291.808	5.89
292.022	6.11
292.235	6.07
292.448	5.81
292.661	5.33
292.875	5.65
293.088	5.91
293.301	6.03
293.514	6.13
293.727	6.72
293.94	6.61
294.153	6.43
294.367	6.25
294.58	6.53
294.793	6.81
295.006	7.01
295.219	6.98
295.432	6.9
295.645	6.99
295.858	7.12
296.071	6.97
296.284	6.65
296.497	6.56
296.71	6.4
296.923	6.33
297.136	5.88
297.349	5.84
297.562	5.35
297.775	5.07
297.988	5.04
298.201	4.46
298.414	4.14
298.626	4.44
298.839	4.04
299.052	3.93
299.265	4.22
299.478	5.16
299.691	5.45
299.903	5.68
300.116	5.94
300.329	5.57
300.542	6.39
300.755	6.3
300.967	6.41
301.18	6.91
301.393	7.1
301.605	6.56
301.818	5.91
302.031	5.61
302.243	5.21
302.456	5.23
302.669	5.57
302.881	4.86
303.094	5.52
303.307	5.46
303.519	5.28
303.732	5.15
303.944	5.27
304.157	5.66
304.37	5.55
304.582	6.25
304.795	6.7
305.007	6.38
305.22	7.18
305.432	6.63
305.645	6.34
305.857	6.06
306.069	6.41
306.282	6.64
306.494	6.23
306.707	6.68
306.919	6.59
307.132	6.25
307.344	5.74
307.556	5.1
307.769	5.16
307.981	5.48
308.193	5.56
308.406	5.57
308.618	5
308.83	4.95
309.043	4.87
309.255	5.09
309.467	5.4
309.679	5.97
309.892	6.34
310.104	6.54
310.316	6.42
310.528	6.34
310.74	6.59
310.953	7.09
311.165	7.33
311.377	6.77
311.589	6.76
311.801	6.7
312.013	6.59
312.225	6.62
312.437	6.04
312.649	5.69
312.862	5.89
313.074	5.75
313.286	5.72
313.498	5.71
313.71	6.74
313.922	6.78
314.134	6.79
314.346	6.96
314.558	6.79
314.77	7.3
314.982	7.95
315.193	8.12
315.405	7.78
315.617	7.83
315.829	7.96
316.041	7.22
316.253	7
316.465	6.75
316.677	6.53
316.888	6.69
317.1	6.16
317.312	6.32
317.524	6.59
317.736	6.82
317.947	6.74
318.159	6.33
318.371	6.18
318.583	6.67
318.794	6.85
319.006	7.21
319.218	6.92
319.43	7.91
319.641	7.48
319.853	6.84
320.064	6.42
320.276	6.12
320.488	6.54
320.699	7.29
320.911	6.65
321.123	6.52
321.334	6.81
321.546	6.64
321.757	6.22
321.969	6.2
322.18	6.59
322.392	6.81
322.603	6.72
322.815	6.21
323.026	6.25
323.238	6.91
323.449	7.33
323.661	6.94
323.872	7.12
324.083	7.33
324.295	7.75
324.506	7.45
324.718	7.49
324.929	8.16
325.14	8.63
325.352	8.31
325.563	7.8
325.774	7.85
325.986	7.73
326.197	7.74
326.408	7.62
326.62	7.21
326.831	7.61
327.042	7.91
327.253	7.56
327.464	7.77
327.676	8.51
327.887	8.49
328.098	7.99
328.309	8.13
328.52	8.68
328.732	8.82
328.943	8.71
329.154	8.4
329.365	8.41
329.576	8.6
329.787	8.08
329.998	8.11
330.209	8.59
330.42	8.96
330.631	9.21
330.842	8.61
331.053	8.58
331.264	9.11
331.475	9.17
331.686	9.35
331.897	9.14
332.108	9.37
332.319	9.19
332.53	9.12
332.741	8.81
332.952	8.63
333.163	8.61
333.374	8.94
333.585	8.88
333.795	9.04
334.006	8.74
334.217	8.92
334.428	9.13
334.639	8.77
334.849	8.68
335.06	8.93
335.271	9.13
335.482	9.63
335.692	9.26
335.903	9.14
336.114	9.14
336.325	9.09
336.535	9.39
336.746	9.47
336.957	9.64
337.167	9.9
337.378	10.08
337.589	10.09
337.799	10.02
338.01	10.21
338.22	9.96
338.431	9.98
338.642	9.82
338.852	9.5
339.063	9.47
339.273	9.43
339.484	9.08
339.694	9.01
339.905	8.84
340.115	8.87
340.326	8.96
340.536	9.12
340.746	9.03
340.957	9.11
341.167	9.25
341.378	9.13
341.588	9.21
341.799	9.04
342.009	8.54
342.219	8.74
342.43	8.87
342.64	8.54
342.85	8.43
343.061	8.3
343.271	8.36
343.481	8.14
343.691	8.18
343.902	8.08
344.112	8.26
344.322	8.75
344.532	8.56
344.743	8.27
344.953	8.49
345.163	8.66
345.373	8.85
345.583	8.69
345.793	8.76
346.004	8.72
346.214	8.69
346.424	8.63
346.634	8.09
346.844	8.2
347.054	8.34
347.264	8.12
347.474	7.89
347.684	8.04
347.894	8.53
348.104	8.81
348.314	8.8
348.524	8.25
348.734	8.33
348.944	8.7
349.154	8.7
349.364	8.64
349.574	9.05
349.784	9.31
349.994	9.18
350.204	9.26
350.413	8.88
350.623	8.99
350.833	9.47
351.043	9.33
351.253	9.26
351.463	9.55
351.672	9.11
351.882	8.73
352.092	8.71
352.302	8.62
352.511	8.18
352.721	8.1
352.931	8.14
353.141	7.68
353.35	7.66
353.56	7.43
353.77	7.02
353.979	7.25
354.189	7.54
354.399	7.68
354.608	7.51
354.818	7.45
355.027	7.51
355.237	7.45
355.447	7.78
355.656	7.81
355.866	8.05
356.075	7.98
356.285	8.1
356.494	7.94
356.704	7.59
356.913	7.86
357.123	8.08
357.332	8.24
357.542	8.18
357.751	7.82
357.96	7.75
358.17	7.72
358.379	7.98
358.589	8.08
358.798	8.15
359.007	8.18
359.217	8.03
359.426	7.55
359.635	7.53
359.845	7.36
360.054	7.83
360.263	7.88
360.472	7.82
360.682	7.74
360.891	7.69
361.1	7.79
361.309	7.86
361.519	8.1
361.728	8.45
361.937	8.48
362.146	8.6
362.355	8.45
362.564	8.54
362.774	8.66
362.983	8.61
363.192	8.5
363.401	8.29
363.61	8.38
363.819	7.87
364.028	7.7
364.237	7.65
364.446	7.47
364.655	7.22
364.864	7.22
365.073	7.28
365.282	7.24
365.491	7.11
365.7	6.8
365.909	6.78
366.118	7.07
366.327	7.18
366.536	7.12
366.745	7.38
366.954	7.67
367.162	7.35
367.371	7.26
367.58	7.39
367.789	7.67
367.998	7.99
368.207	7.83
368.415	7.66
368.624	7.56
368.833	7.83
369.042	7.74
369.25	7.72
369.459	8.05
369.668	7.81
369.877	7.49
370.085	7.28
370.294	7.33
370.503	7.24
370.711	7.48
370.92	7.41
371.129	7.1
371.337	7.2
371.546	7.21
371.754	7.15
371.963	7.28
372.171	7.26
372.38	7.06
372.589	6.75
372.797	6.95
373.006	6.79
373.214	6.86
373.423	6.74
373.631	6.86
373.84	6.77
374.048	6.79
374.256	6.88
374.465	6.93
374.673	7.18
374.882	7.42
375.09	7.17
375.298	7.12
375.507	6.99
375.715	7.05
375.923	6.87
376.132	6.85
376.34	6.8
376.548	6.71
376.757	6.89
376.965	7.04
377.173	6.98
377.381	7.07
377.59	7.09
377.798	7.16
378.006	7.02
378.214	6.88
378.423	6.93
378.631	6.71
378.839	6.78
379.047	6.59
379.255	6.29
379.463	6.03
379.671	6.37
379.879	6.52
380.088	6.77
380.296	6.92
380.504	6.84
380.712	6.84
380.92	6.79
381.128	6.48
381.336	6.57
381.544	6.39
381.752	6.57
381.96	6.11
382.168	6.25
382.376	6.27
382.584	6.5
382.791	6.6
382.999	6.62
383.207	6.89
383.415	7.09
383.623	7.16
383.831	7.35
384.039	7.44
384.247	7.6
384.454	7.36
384.662	7.4
384.87	7.26
385.078	7.4
385.285	7.31
385.493	7.29
385.701	7.26
385.909	7.23
386.116	7.35
386.324	7.42
386.532	7.44
386.739	7.31
386.947	7.14
387.155	6.98
387.362	6.96
387.57	6.7
387.778	6.58
387.985	6.6
388.193	6.55
388.4	6.28
388.608	6.02
388.816	5.83
389.023	6.02
389.231	6.02
389.438	6.03
389.646	5.91
389.853	6.18
390.061	6.15
390.268	6.2
390.475	6.27
390.683	6.3
390.89	6.32
391.098	6.49
391.305	6.39
391.512	6.38
391.72	6.53
391.927	6.43
392.135	6.37
392.342	6.28
392.549	6.21
392.756	6.1
392.964	6.09
393.171	6.26
393.378	6.05
393.586	6.04
393.793	5.94
394	5.73
394.207	5.77
394.414	5.95
394.622	6.16
394.829	6.22
395.036	6.14
395.243	6.05
395.45	6.05
395.657	6.32
395.864	6.17
396.072	6.33
396.279	6.37
396.486	6.3
396.693	6.17
396.9	6.06
397.107	5.99
397.314	5.84
397.521	6.04
397.728	6.09
397.935	5.97
398.142	6.1
398.349	6
398.556	5.89
398.763	6.05
398.97	6.11
399.177	6.04
399.383	6.09
399.59	6.32
399.797	6.28
400.004	5.97
400.211	5.96
400.418	5.82
400.625	5.87
400.831	6.08
401.038	6.09
401.245	6.08
401.452	5.98
401.658	5.92
401.865	6.08
402.072	6.03
402.279	6.2
402.485	6.24
402.692	6.26
402.899	6.22
403.105	6.3
403.312	6.24
403.519	6.2
403.725	6.42
403.932	6.57
404.138	6.43
404.345	6.45
404.552	6.37
404.758	6.38
404.965	6.5
405.171	6.45
405.378	6.34
405.584	6.35
405.791	6.36
405.997	6.36
406.204	6.17
406.41	6.09
406.617	6.05
406.823	6
407.029	6.04
407.236	6
407.442	5.94
407.649	5.97
407.855	5.89
408.061	5.87
408.268	5.65
408.474	5.78
408.68	5.6
408.887	5.55
409.093	5.6
409.299	5.6
409.505	5.69
409.712	5.77
409.918	5.62
410.124	5.65
410.33	5.52
410.537	5.7
410.743	5.6
410.949	5.83
411.155	5.97
411.361	5.98
411.567	5.76
411.773	5.8
411.98	5.79
412.186	5.8
412.392	5.81
412.598	5.76
412.804	5.86
413.01	5.97
413.216	6.06
413.422	6.17
413.628	6.24
413.834	6.32
414.04	6.24
414.246	6.35
414.452	6.42
414.658	6.45
414.864	6.56
415.07	6.47
415.275	6.34
415.481	6.27
415.687	6.11
415.893	6.03
416.099	5.98
416.305	5.93
416.511	5.95
416.716	5.95
416.922	5.96
417.128	5.94
417.334	5.93
417.539	5.94
417.745	5.91
417.951	5.98
418.157	6.04
418.362	6.1
418.568	6.05
418.774	6.01
418.979	5.99
419.185	5.96
419.391	5.92
419.596	5.93
419.802	5.98
420.008	6.05
420.213	6.03
420.419	5.99
420.624	5.99
420.83	6
421.035	6.04
421.241	6.08
421.446	6.13
421.652	6.17
421.857	6.11
422.063	6.15
422.268	6.18
422.474	6.13
422.679	6.07
422.885	6.02
423.09	6.03
423.295	5.95
423.501	5.95
423.706	5.9
423.911	5.9
424.117	5.96
424.322	5.93
424.527	5.81
424.733	5.78
424.938	5.87
425.143	5.96
425.349	5.91
425.554	5.88
425.759	5.84
425.964	5.84
426.169	5.81
426.375	5.73
426.58	5.66
426.785	5.63
426.99	5.76
427.195	5.73
427.4	5.72
427.605	5.82
427.811	5.93
428.016	5.88
428.221	5.89
428.426	5.93
428.631	5.99
428.836	6.02
429.041	6.09
429.246	6.07
429.451	6.06
429.656	5.97
429.861	6.06
430.066	6.12
430.271	6.2
430.476	6.13
430.681	6.09
430.886	6.14
431.09	6.15
431.295	6.08
431.5	6.08
431.705	6.09
431.91	6.14
432.115	6.09
432.32	5.96
432.524	5.97
432.729	5.95
432.934	5.96
433.139	5.98
433.343	6.02
433.548	6.12
433.753	6.02
433.958	6.08
434.162	6.14
434.367	6.03
434.572	6.15
434.776	6.19
434.981	6.27
435.186	6.27
435.39	6.1
435.595	6.02
435.799	6.04
436.004	6.01
436.209	5.95
436.413	5.89
436.618	5.92
436.822	5.95
437.027	5.92
437.231	5.95
437.436	5.99
437.64	6.05
437.845	6
438.049	6.02
438.253	6.03
438.458	6
438.662	5.97
438.867	6.03
439.071	6.01
439.275	5.98
439.48	5.94
439.684	5.91
439.888	5.94
440.093	5.94
440.297	5.93
440.501	6.02
440.706	6.06
440.91	6.02
441.114	5.99
441.318	5.92
441.523	5.9
441.727	5.88
441.931	5.92
442.135	5.96
442.339	6.05
442.543	5.94
442.748	5.88
442.952	5.89
443.156	5.99
443.36	6
443.564	6.06
443.768	6.12
443.972	6.16
444.176	6.14
444.38	6.14
444.584	6.16
444.788	6.13
444.992	6.13
445.196	6.13
445.4	6.13
445.604	6.16
445.808	6.12
446.012	6.19
446.216	6.16
446.42	6.2
446.624	6.12
446.828	6.11
447.032	6.21
447.235	6.29
447.439	6.24
447.643	6.21
447.847	6.25
448.051	6.21
448.254	6.04
448.458	6.12
448.662	6.02
448.866	6.06
449.069	6.04
449.273	6
449.477	5.9
449.681	5.94
449.884	5.8
450.088	5.71
450.292	5.75
450.495	5.84
450.699	5.84
450.902	5.84
451.106	5.9
451.31	5.75
451.513	5.71
451.717	5.74
451.92	5.8
452.124	5.89
452.327	5.95
452.531	5.95
452.734	5.92
452.938	5.91
453.141	5.93
453.345	5.86
453.548	6.03
453.752	5.99
453.955	6.01
454.158	5.97
454.362	5.98
454.565	5.9
454.769	5.85
454.972	5.8
455.175	5.84
455.379	5.92
455.582	5.97
455.785	5.96
455.988	6.03
456.192	6.03
456.395	5.98
456.598	6.02
456.801	6.15
457.005	6.25
457.208	6.28
457.411	6.19
457.614	6.14
457.817	6.09
458.021	6.03
458.224	6.05
458.427	5.98
458.63	6.02
458.833	6.05
459.036	5.95
459.239	5.89
459.442	5.91
459.645	5.93
459.848	6.01
460.051	6.03
460.254	6.13
460.457	6.17
460.66	6.26
460.863	6.19
461.066	6.08
461.269	6.09
461.472	6.06
461.675	6.06
461.878	6.13
462.081	6
462.284	5.87
462.486	5.74
462.689	5.66
462.892	5.62
463.095	5.61
463.298	5.87
463.5	5.94
463.703	6.08
463.906	6
464.109	5.95
464.311	5.96
464.514	6.07
464.717	6.1
464.92	6.06
465.122	6.13
465.325	6.15
465.528	5.98
465.73	5.99
465.933	5.87
466.135	5.93
466.338	6.01
466.541	6.13
466.743	6.23
466.946	6.3
467.148	6.33
467.351	6.32
467.553	6.26
467.756	6.32
467.958	6.34
468.161	6.39
468.363	6.29
468.566	6.23
468.768	6.01
468.971	5.79
469.173	5.73
469.375	5.76
469.578	5.73
469.78	5.85
469.983	5.82
470.185	5.82
470.387	5.75
470.59	5.76
470.792	5.76
470.994	5.9
471.196	5.99
471.399	5.96
471.601	6
471.803	5.92
472.005	5.91
472.208	5.91
472.41	5.82
472.612	5.94
472.814	5.97
473.016	6.01
473.218	6.07
473.421	6.07
473.623	6.11
473.825	6.05
474.027	6.06
474.229	6.03
474.431	6.02
474.633	6.05
474.835	5.99
475.037	5.99
475.239	5.89
475.441	5.77
475.643	5.76
475.845	5.74
476.047	5.84
476.249	5.88
476.451	5.9
476.653	5.92
476.855	5.92
477.057	5.94
477.258	6.04
477.46	6.09
477.662	6.15
477.864	6.15
478.066	6.16
478.268	6.06
478.469	6.13
478.671	6.13
478.873	6.03
479.075	6
479.276	5.98
479.478	5.9
479.68	5.83
479.882	5.72
480.083	5.73
480.285	5.74
480.487	5.78
480.688	5.74
480.89	5.74
481.091	5.8
481.293	5.82
481.495	5.81
481.696	5.81
481.898	5.83
482.099	5.87
482.301	5.9
482.502	5.9
482.704	5.88
482.905	5.88
483.107	5.88
483.308	5.87
483.51	5.85
483.711	5.86
483.913	5.87
484.114	5.86
484.315	5.85
484.517	5.81
484.718	5.78
484.92	5.79
485.121	5.81
485.322	5.8
485.524	5.85
485.725	5.89
485.926	5.88
486.127	5.88
486.329	5.92
486.53	5.9
486.731	5.91
486.932	5.94
487.134	5.93
487.335	5.94
487.536	5.93
487.737	5.89
487.938	5.91
488.139	5.94
488.341	5.94
488.542	5.91
488.743	5.96
488.944	6.03
489.145	6.03
489.346	6.13
489.547	6.11
489.748	6.17
489.949	6.18
490.15	6.18
490.351	6.19
490.552	6.14
490.753	6.13
490.954	6.1
491.155	6.05
491.356	6.08
491.557	6.07
491.758	6.08
491.959	6.04
492.159	6.03
492.36	5.96
492.561	5.95
492.762	5.98
492.963	6.01
493.164	6.05
493.364	6.03
493.565	6.03
493.766	5.91
493.967	5.87
494.167	5.88
494.368	5.95
494.569	6.07
494.769	6.06
494.97	6.09
495.171	6.16
495.371	6.11
495.572	6.12
495.773	6.17
495.973	6.25
496.174	6.27
496.375	6.25
496.575	6.26
496.776	6.14
496.976	6.15
497.177	6.16
497.377	6.11
497.578	6.24
497.778	6.31
497.979	6.27
498.179	6.25
498.38	6.24
498.58	6.3
498.78	6.25
498.981	6.28
499.181	6.32
499.382	6.31
499.582	6.38
499.782	6.3
499.983	6.24
500.183	6.24
500.383	6.32
500.584	6.3
500.784	6.28
500.984	6.23
501.184	6.26
501.385	6.25
501.585	6.24
501.785	6.26
501.985	6.27
502.185	6.32
502.386	6.35
502.586	6.33
502.786	6.32
502.986	6.36
503.186	6.41
503.386	6.46
503.586	6.51
503.786	6.52
503.987	6.45
504.187	6.45
504.387	6.45
504.587	6.46
504.787	6.42
504.987	6.41
505.187	6.35
505.387	6.36
505.587	6.37
505.786	6.28
505.986	6.29
506.186	6.36
506.386	6.37
506.586	6.33
506.786	6.35
506.986	6.32
507.186	6.42
507.386	6.42
507.585	6.41
507.785	6.44
507.985	6.42
508.185	6.47
508.384	6.5
508.584	6.53
508.784	6.62
508.984	6.61
509.183	6.71
509.383	6.69
509.583	6.74
509.782	6.85
509.982	6.83
510.182	6.98
510.381	6.98
510.581	6.97
510.781	7.02
510.98	6.95
511.18	6.99
511.379	6.95
511.579	7.01
511.778	6.95
511.978	6.89
512.177	6.88
512.377	6.82
512.576	6.86
512.776	6.81
512.975	6.77
513.175	6.91
513.374	6.91
513.573	6.92
513.773	6.87
513.972	6.96
514.172	7.01
514.371	6.99
514.57	6.99
514.77	7.04
514.969	7.08
515.168	7.16
515.367	7.12
515.567	7.15
515.766	7.25
515.965	7.27
516.164	7.31
516.364	7.31
516.563	7.43
516.762	7.45
516.961	7.43
517.16	7.46
517.359	7.46
517.559	7.4
517.758	7.38
517.957	7.36
518.156	7.37
518.355	7.37
518.554	7.38
518.753	7.33
518.952	7.35
519.151	7.3
519.35	7.26
519.549	7.23
519.748	7.37
519.947	7.38
520.146	7.33
520.345	7.33
520.544	7.34
520.743	7.4
520.942	7.45
521.141	7.45
521.339	7.54
521.538	7.55
521.737	7.6
521.936	7.53
522.135	7.57
522.333	7.55
522.532	7.65
522.731	7.67
522.93	7.61
523.129	7.65
523.327	7.64
523.526	7.65
523.725	7.72
523.923	7.65
524.122	7.72
524.321	7.71
524.519	7.77
524.718	7.77
524.917	7.71
525.115	7.75
525.314	7.75
525.512	7.78
525.711	7.74
525.909	7.74
526.108	7.79
526.306	7.75
526.505	7.8
526.703	7.79
526.902	7.82
527.1	7.88
527.299	7.92
527.497	7.92
527.696	7.93
527.894	7.97
528.092	7.99
528.291	8.04
528.489	8.04
528.688	8.05
528.886	8.11
529.084	8.08
529.283	8.08
529.481	8.06
529.679	8.09
529.877	8.08
530.076	8.12
530.274	8.15
530.472	8.15
530.67	8.26
530.869	8.24
531.067	8.2
531.265	8.27
531.463	8.28
531.661	8.37
531.859	8.37
532.057	8.41
532.255	8.42
532.454	8.44
532.652	8.48
532.85	8.43
533.048	8.46
533.246	8.47
533.444	8.45
533.642	8.48
533.84	8.44
534.038	8.46
534.236	8.48
534.434	8.52
534.632	8.52
534.83	8.51
535.027	8.52
535.225	8.6
535.423	8.7
535.621	8.74
535.819	8.75
536.017	8.77
536.215	8.78
536.412	8.75
536.61	8.8
536.808	8.87
537.006	8.86
537.203	8.9
537.401	8.87
537.599	8.86
537.797	8.88
537.994	8.91
538.192	8.95
538.39	9.04
538.587	9.09
538.785	9.03
538.983	9
539.18	9.02
539.378	9.04
539.575	9.06
539.773	9.08
539.97	9.11
540.168	9.14
540.366	9.15
540.563	9.15
540.761	9.16
540.958	9.24
541.155	9.28
541.353	9.33
541.55	9.43
541.748	9.49
541.945	9.56
542.143	9.53
542.34	9.55
542.537	9.6
542.735	9.66
542.932	9.7
543.129	9.74
543.327	9.78
543.524	9.86
543.721	9.76
543.919	9.75
544.116	9.74
544.313	9.88
544.51	9.95
544.708	9.95
544.905	9.97
545.102	9.96
545.299	10.02
545.496	9.99
545.693	10.04
545.891	10.1
546.088	10.17
546.285	10.19
546.482	10.25
546.679	10.24
546.876	10.26
547.073	10.24
547.27	10.41
547.467	10.35
547.664	10.42
547.861	10.42
548.058	10.46
548.255	10.55
548.452	10.65
548.649	10.59
548.846	10.6
549.043	10.78
549.24	10.95
549.437	11.05
549.633	11.16
549.83	11.2
550.027	11.13
550.224	11.15
550.421	11.11
550.618	11.09
550.814	11.21
551.011	11.39
551.208	11.34
551.405	11.34
551.601	11.24
551.798	11.21
551.995	11.24
552.191	11.36
552.388	11.39
552.585	11.36
552.781	11.38
552.978	11.39
553.175	11.29
553.371	11.41
553.568	11.43
553.764	11.51
553.961	11.57
554.157	11.61
554.354	11.68
554.55	11.84
554.747	12.07
554.943	12.19
555.14	12.14
555.336	12.19
555.533	12.14
555.729	12.14
555.926	12.06
556.122	12.1
556.318	12.09
556.515	12.06
556.711	12.08
556.907	11.98
557.104	11.99
557.3	12.07
557.496	12.12
557.693	12.23
557.889	12.27
558.085	12.45
558.281	12.55
558.478	12.65
558.674	12.73
558.87	12.84
559.066	12.94
559.262	13.06
559.459	13.24
559.655	13.36
559.851	13.3
560.047	13.37
560.243	13.42
560.439	13.43
560.635	13.5
560.831	13.38
561.027	13.33
561.223	13.43
561.419	13.4
561.615	13.3
561.811	13.28
562.007	13.34
562.203	13.4
562.399	13.44
562.595	13.56
562.791	13.58
562.987	13.75
563.183	13.78
563.379	13.68
563.575	13.64
563.771	13.74
563.966	13.85
564.162	14.07
564.358	14.14
564.554	14.25
564.75	14.32
564.945	14.49
565.141	14.56
565.337	14.66
565.533	14.75
565.728	14.82
565.924	14.86
566.12	14.95
566.315	14.9
566.511	14.99
566.707	15.09
566.902	15.05
567.098	14.97
567.293	15.06
567.489	15.18
567.684	15.26
567.88	15.31
568.076	15.31
568.271	15.39
568.467	15.38
568.662	15.34
568.858	15.29
569.053	15.26
569.248	15.37
569.444	15.33
569.639	15.32
569.835	15.33
570.03	15.43
570.225	15.53
570.421	15.52
570.616	15.6
570.812	15.68
571.007	15.72
571.202	15.92
571.397	15.9
571.593	16
571.788	15.99
571.983	16.01
572.178	16.07
572.374	16.13
572.569	16.2
572.764	16.16
572.959	16.21
573.154	16.23
573.35	16.21
573.545	16.35
573.74	16.38
573.935	16.61
574.13	16.68
574.325	16.69
574.52	16.72
574.715	16.75
574.91	16.88
575.105	16.87
575.3	16.96
575.495	16.91
575.69	16.84
575.885	16.96
576.08	16.94
576.275	17.01
576.47	17.2
576.665	17.18
576.86	17.26
577.055	17.22
577.25	17.3
577.444	17.33
577.639	17.46
577.834	17.53
578.029	17.45
578.224	17.35
578.418	17.42
578.613	17.24
578.808	17.28
579.003	17.14
579.197	17.35
579.392	17.33
579.587	17.39
579.781	17.28
579.976	17.38
580.171	17.43
580.365	17.48
580.56	17.39
580.755	17.49
580.949	17.66
581.144	17.66
581.338	17.61
581.533	17.67
581.727	17.87
581.922	18.01
582.116	17.91
582.311	17.94
582.505	18.01
582.7	18.16
582.894	18.26
583.089	18.21
583.283	18.31
583.478	18.3
583.672	18.4
583.866	18.23
584.061	18.32
584.255	18.46
584.449	18.57
584.644	18.48
584.838	18.49
585.032	18.51
585.226	18.64
585.421	18.75
585.615	18.88
585.809	18.9
586.003	18.9
586.198	18.77
586.392	18.76
586.586	18.89
586.78	19.1
586.974	19.15
587.168	19.17
587.363	19.08
587.557	19.15
587.751	19.1
587.945	19.13
588.139	19.16
588.333	19.42
588.527	19.44
588.721	19.42
588.915	19.46
589.109	19.53
589.303	19.62
589.497	19.75
589.691	19.55
589.885	19.67
590.079	19.54
590.273	19.68
590.466	19.59
590.66	19.62
590.854	19.63
591.048	19.44
591.242	19.47
591.436	19.5
591.629	19.45
591.823	19.67
592.017	19.64
592.211	19.79
592.404	19.82
592.598	19.92
592.792	19.94
592.986	19.91
593.179	20.01
593.373	20.04
593.567	19.91
593.76	19.87
593.954	20.03
594.147	20.09
594.341	20.18
594.535	20.32
594.728	20.26
594.922	20.27
595.115	20.32
595.309	20.35
595.502	20.3
595.696	20.36
595.889	20.5
596.083	20.31
596.276	20.28
596.47	20.38
596.663	20.29
596.856	20.39
597.05	20.48
597.243	20.57
597.437	20.53
597.63	20.65
597.823	20.63
598.017	20.59
598.21	20.73
598.403	20.84
598.596	20.81
598.79	20.86
598.983	20.85
599.176	20.74
599.369	20.49
599.563	20.68
599.756	20.78
599.949	20.89
600.142	20.86
600.335	20.85
600.528	20.7
600.722	20.63
600.915	20.55
601.108	20.53
601.301	20.65
601.494	20.75
601.687	20.76
601.88	20.73
602.073	20.85
602.266	21.08
602.459	21.16
602.652	21.28
602.845	21.28
603.038	21.21
603.231	21.31
603.424	21.33
603.617	21.38
603.809	21.42
604.002	21.39
604.195	21.36
604.388	21.23
604.581	21.21
604.774	21.23
604.966	21.21
605.159	21.29
605.352	21.23
605.545	21.18
605.737	21.28
605.93	21.26
606.123	21.23
606.316	21.17
606.508	21.12
606.701	21.23
606.894	21.19
607.086	21.21
607.279	21.2
607.471	21.38
607.664	21.39
607.857	21.32
608.049	21.34
608.242	21.38
608.434	21.35
608.627	21.47
608.819	21.39
609.012	21.44
609.204	21.54
609.397	21.66
609.589	21.5
609.782	21.65
609.974	21.73
610.166	21.81
610.359	21.97
610.551	22.16
610.743	22.19
610.936	22.26
611.128	22.33
611.32	22.48
611.513	22.52
611.705	22.73
611.897	22.78
612.09	22.72
612.282	22.69
612.474	22.67
612.666	22.58
612.858	22.51
613.051	22.6
613.243	22.56
613.435	22.47
613.627	22.5
613.819	22.46
614.011	22.51
614.203	22.51
614.395	22.46
614.588	22.35
614.78	22.45
614.972	22.51
615.164	22.47
615.356	22.43
615.548	22.42
615.74	22.46
615.932	22.35
616.124	22.3
616.315	22.31
616.507	22.16
616.699	22.16
616.891	22.04
617.083	21.98
617.275	22.07
617.467	22.11
617.659	22.27
617.85	22.29
618.042	22.26
618.234	22.45
618.426	22.64
618.618	22.75
618.809	22.79
619.001	22.77
619.193	22.91
619.384	22.91
619.576	22.83
619.768	22.67
619.959	22.77
620.151	22.82
620.343	22.65
620.534	22.52
620.726	22.68
620.917	22.82
621.109	22.93
621.301	22.94
621.492	22.98
621.684	23.32
621.875	23.41
622.067	23.33
622.258	23.33
622.45	23.24
622.641	23.31
622.832	23.34
623.024	23.3
623.215	23.45
623.407	23.47
623.598	23.56
623.789	23.42
623.981	23.45
624.172	23.55
624.363	23.63
624.555	23.8
624.746	23.9
624.937	23.75
625.129	23.58
625.32	23.57
625.511	23.59
625.702	23.49
625.893	23.45
626.085	23.41
626.276	23.38
626.467	23.38
626.658	23.38
626.849	23.31
627.04	23.42
627.231	23.52
627.422	23.37
627.614	23.24
627.805	23.11
627.996	23.15
628.187	23.22
628.378	23.14
628.569	23.08
628.76	23.01
628.951	23.01
629.142	22.95
629.332	23
629.523	23.27
629.714	23.47
629.905	23.53
630.096	23.55
630.287	23.45
630.478	23.48
630.669	23.64
630.859	23.61
631.05	23.67
631.241	23.84
631.432	23.86
631.623	23.63
631.813	23.53
632.004	23.58
632.195	23.65
632.385	23.82
632.576	23.83
632.767	23.74
632.957	23.76
633.148	23.93
633.339	23.92
633.529	24.01
633.72	24.31
633.91	24.43
634.101	24.51
634.292	24.43
634.482	24.45
634.673	24.37
634.863	24.41
635.054	24.33
635.244	24.13
635.435	24.12
635.625	24.03
635.815	23.91
636.006	23.69
636.196	23.57
636.387	23.74
636.577	23.65
636.767	23.81
636.958	23.91
637.148	23.94
637.338	23.95
637.529	23.81
637.719	23.85
637.909	23.93
638.099	24.23
638.29	24.42
638.48	24.33
638.67	24.31
638.86	24.38
639.05	24.38
639.241	24.54
639.431	24.57
639.621	24.67
639.811	24.75
640.001	24.54
640.191	24.57
640.381	24.52
640.571	24.57
640.761	24.55
640.951	24.3
641.141	24.37
641.331	24.36
641.521	24.36
641.711	24.31
641.901	24.31
642.091	24.38
642.281	24.15
642.471	24.03
642.661	23.94
642.851	24.07
643.041	24.34
643.231	24.44
643.42	24.45
643.61	24.47
643.8	24.66
643.99	24.69
644.18	24.63
644.369	24.86
644.559	24.97
644.749	24.91
644.939	24.9
645.128	24.93
645.318	24.58
645.508	24.65
645.697	24.47
645.887	24.43
646.076	24.28
646.266	24.53
646.456	24.45
646.645	24.47
646.835	24.62
647.024	24.45
647.214	24.47
647.403	24.71
647.593	24.52
647.782	24.64
647.972	24.58
648.161	24.81
648.351	24.71
648.54	24.76
648.73	24.76
648.919	24.75
649.108	24.9
649.298	24.8
649.487	24.66
649.677	24.81
649.866	24.97
650.055	25.1
650.244	25.1
650.434	25.17
650.623	25.16
650.812	25.14
651.002	25.16
651.191	25.25
651.38	25.32
651.569	25.43
651.758	25.46
651.947	25.45
652.137	25.34
652.326	25.4
652.515	25.36
652.704	25.33
652.893	25.52
653.082	25.42
653.271	25.29
653.46	25.15
653.649	25.22
653.838	25.36
654.027	25.15
654.216	25.03
654.405	24.82
654.594	24.89
654.783	25.07
654.972	25.09
655.161	25.36
655.35	25.33
655.539	25.6
655.728	25.66
655.916	25.54
656.105	25.65
656.294	25.83
656.483	25.81
656.672	25.77
656.86	25.58
657.049	25.53
657.238	25.4
657.427	25.57
657.615	25.47
657.804	25.31
657.993	25.24
658.181	25.32
658.37	25.26
658.559	25.46
658.747	25.3
658.936	25.18
659.125	24.83
659.313	24.72
659.502	24.63
659.69	24.54
659.879	24.63
660.067	24.67
660.256	24.56
660.444	24.46
660.633	24.19
660.821	24.36
661.01	24.62
661.198	25.05
661.387	25.19
661.575	25.28
661.763	25.22
661.952	25.31
662.14	25.37
662.328	25.51
662.517	25.67
662.705	25.58
662.893	25.64
663.082	25.94
663.27	25.98
663.458	25.99
663.646	25.73
663.834	26.05
664.023	26.13
664.211	26.11
664.399	25.98
664.587	25.81
664.775	26.05
664.963	26.06
665.152	25.72
665.34	26.02
665.528	26.27
665.716	26.26
665.904	26.2
666.092	25.99
666.28	25.77
666.468	25.94
666.656	26.19
666.844	26.27
667.032	26.31
667.22	26.24
667.408	25.76
667.596	25.69
667.784	25.73
667.971	25.69
668.159	25.94
668.347	26.15
668.535	26.05
668.723	25.89
668.911	25.89
669.098	25.78
669.286	25.81
669.474	25.96
669.662	25.93
669.849	25.89
670.037	25.85
670.225	25.45
670.413	25.59
670.6	25.9
670.788	26.28
670.976	26.19
671.163	26.01
671.351	25.88
671.538	25.75
671.726	25.74
671.913	25.93
672.101	25.91
672.289	26.18
672.476	26.09
672.664	25.95
672.851	25.61
673.039	25.46
673.226	25.71
673.413	25.72
673.601	25.94
673.788	25.9
673.976	25.98
674.163	25.85
674.35	25.95
674.538	26.1
674.725	25.91
674.912	26.25
675.1	26.68
675.287	26.77
675.474	26.92
675.662	26.58
675.849	26.73
676.036	26.57
676.223	26.82
676.411	26.74
676.598	26.52
676.785	26.68
676.972	26.62
677.159	26.42
677.346	26.29
677.533	26.36
677.721	26.49
677.908	26.4
678.095	26.54
678.282	26.54
678.469	26.48
678.656	26.49
678.843	26.48
679.03	26.52
679.217	26.47
679.404	26.45
679.591	26.27
679.778	26.49
679.964	26.61
680.151	26.37
680.338	26.27
680.525	25.98
680.712	25.88
680.899	25.69
681.086	25.48
681.272	25.51
681.459	25.6
681.646	25.75
681.833	25.63
682.02	25.5
682.206	25.61
682.393	25.5
682.58	25.92
682.766	26.17
682.953	26.43
683.14	26.52
683.326	26.59
683.513	26.42
683.7	26.5
683.886	26.62
684.073	26.59
684.259	26.67
684.446	26.62
684.632	26.26
684.819	26.22
685.005	26.01
685.192	25.83
685.378	25.84
685.565	25.66
685.751	25.66
685.938	25.52
686.124	25.68
686.31	25.7
686.497	26.07
686.683	26.41
686.87	26.46
687.056	26.53
687.242	26.49
687.429	26.37
687.615	26.64
687.801	26.64
687.987	26.79
688.174	26.53
688.36	26.75
688.546	26.74
688.732	26.74
688.918	26.45
689.105	26.38
689.291	26.58
689.477	26.39
689.663	26.57
689.849	26.57
690.035	26.63
690.221	26.86
690.407	26.67
690.593	26.15
690.779	26.49
690.965	26.61
691.151	26.83
691.337	27.06
691.523	27.22
691.709	26.91
691.895	27.08
692.081	26.87
692.267	26.83
692.453	26.84
692.639	27.02
692.825	26.49
693.011	26.72
693.196	26.61
693.382	26.36
693.568	26.51
693.754	26.66
693.94	26.73
694.125	26.51
694.311	26.36
694.497	26.3
694.682	26.4
694.868	26.56
695.054	26.39
695.239	26.44
695.425	26.48
695.611	26.63
695.796	26.83
695.982	26.68
696.168	26.85
696.353	26.82
696.539	27.14
696.724	27.05
696.91	26.85
697.095	27.04
697.281	27.07
697.466	27.18
697.652	26.94
697.837	26.98
698.023	26.85
698.208	26.86
698.393	26.95
698.579	26.89
698.764	26.86
698.949	26.99
699.135	26.82
699.32	26.9
699.505	26.72
699.691	26.76
699.876	26.44
700.061	26.34
700.246	26.35
700.432	26.12
700.617	25.91
700.802	26.11
700.987	26.03
701.172	26.09
701.358	25.96
701.543	26.02
701.728	26.38
701.913	26.67
702.098	26.79
702.283	26.73
702.468	26.84
702.653	26.94
702.838	26.69
703.023	26.72
703.208	26.72
703.393	26.72
703.578	26.86
703.763	26.5
703.948	26.55
704.133	26.23
704.318	26.39
704.503	26.26
704.688	25.92
704.873	26.33
705.057	26.48
705.242	26.57
705.427	26.65
705.612	26.7
705.797	26.75
705.981	26.66
706.166	27.07
706.351	26.94
706.536	27.48
706.72	27.69
706.905	27.7
707.09	27.97
707.274	27.91
707.459	27.79
707.644	27.6
707.828	28.04
708.013	27.77
708.197	27.68
708.382	27.37
708.567	27.05
708.751	27.12
708.936	27.12
709.12	26.62
709.305	26.43
709.489	26.46
709.673	26.44
709.858	25.7
710.042	25.62
710.227	26.04
710.411	26.71
710.596	26.69
710.78	26.23
710.964	26.29
711.149	26.32
711.333	26.58
711.517	26.41
711.702	26.3
711.886	26.56
712.07	26.8
712.254	26.49
712.438	26.2
712.623	26.1
712.807	26.69
712.991	26.21
713.175	26.09
713.359	26.05
713.544	25.94
713.728	26.09
713.912	26.07
714.096	25.83
714.28	25.75
714.464	25.69
714.648	25.89
714.832	25.99
715.016	26.11
715.2	26.44
715.384	26.25
715.568	26.66
715.752	26.58
715.936	26.86
716.12	27.2
716.304	27.58
716.488	27.48
716.671	27.54
716.855	27.19
717.039	27.62
717.223	27.52
717.407	27.98
717.59	27.71
717.774	27.97
717.958	27.84
718.142	27.57
718.325	27.49
718.509	27.9
718.693	27.52
718.877	27.41
719.06	27.39
719.244	27.09
719.428	26.74
719.611	26.65
719.795	26.56
719.978	26.63
720.162	26.95
720.345	26.63
720.529	26.25
720.713	26.46
720.896	26.69
721.08	26.44
721.263	26.59
721.446	26.58
721.63	27.31
721.813	27.04
721.997	27.06
722.18	26.81
722.364	26.94
722.547	26.78
722.73	26.99
722.914	26.41
723.097	26.1
723.28	26.44
723.464	26.8
723.647	26.77
723.83	26.83
724.013	26.64
724.197	26.93
724.38	26.81
724.563	26.75
724.746	26.95
724.929	27.21
725.112	27.45
725.296	27.03
725.479	26.71
725.662	26.19
725.845	26.27
726.028	26.44
726.211	26.26
726.394	26.63
726.577	26.88
726.76	26.59
726.943	27.03
727.126	26.94
727.309	27.07
727.492	26.95
727.675	27.01
727.858	27.24
728.041	26.78
728.224	27.01
728.407	26.47
728.589	26.76
728.772	26.95
728.955	26.8
729.138	27.07
729.321	27.11
729.503	27.04
729.686	27.25
729.869	27.36
730.052	27.51
730.234	27.55
730.417	28.02
730.6	27.91
730.782	27.58
730.965	27.76
731.148	27.46
731.33	27.23
731.513	27.64
731.695	27.37
731.878	26.91
732.061	27.25
732.243	27.09
732.426	26.83
732.608	26.74
732.791	27.2
732.973	27.19
733.156	27.34
733.338	27.17
733.52	27.15
733.703	27.2
733.885	27.36
734.068	27.32
734.25	27.65
734.432	27.69
734.615	28.03
734.797	27.82
734.979	27.37
735.162	27.21
735.344	27.5
735.526	27.34
735.708	27.52
735.891	27.38
736.073	27.58
736.255	26.98
736.437	27.06
736.619	26.79
736.802	26.19
736.984	26.53
737.166	26.56
737.348	26.84
737.53	26.85
737.712	26.52
737.894	26.8
738.076	26.28
738.258	26.53
738.44	26.3
738.622	26.31
738.804	26.75
738.986	26.57
739.168	26.55
739.35	26.47
739.532	26.14
739.714	26.24
739.896	26.21
740.078	25.9
740.259	25.75
740.441	25.91
740.623	25.63
740.805	25.46
740.987	25.89
741.168	26.46
741.35	26.8
741.532	27.23
741.714	27.14
741.895	26.89
742.077	27.62
742.259	27.38
742.44	27.45
742.622	28.01
742.804	28.35
742.985	27.86
743.167	27.18
743.348	27.32
743.53	26.8
743.711	26.26
743.893	26.25
744.075	25.83
744.256	25.53
744.438	25.61
744.619	24.97
744.8	25.14
744.982	25.46
745.163	25.96
745.345	25.39
745.526	25.32
745.707	25.69
745.889	25.91
746.07	26.1
746.252	27.08
746.433	27.6
746.614	28.01
746.795	27.79
746.977	27.12
747.158	27.51
747.339	27.67
747.52	27.91
747.702	28.5
747.883	28.01
748.064	27.61
748.245	27.33
748.426	26.81
748.607	26.56
748.788	25.86
748.97	26.09
749.151	25.29
749.332	25.06
749.513	25.4
749.694	26.04
749.875	26.53
750.056	27.35
750.237	26.39
750.418	26.21
750.599	25.59
750.78	25.93
750.96	25.89
751.141	26.44
751.322	26.28
751.503	26.03
751.684	25.18
751.865	24.61
752.046	24.01
752.226	24.84
752.407	23.73
752.588	24.63
752.769	24.85
752.949	25.27
753.13	24.41
753.311	24.32
753.492	24.13
753.672	23.93
753.853	24.79
754.034	24.93
754.214	24.93
754.395	25.71
754.575	25.34
754.756	25.05
754.937	24.96
755.117	25.38
755.298	25.81
755.478	25.57
755.659	25.3
755.839	24.7
756.02	24.73
756.2	24.82
756.381	25.18
756.561	25.52
756.741	25.18
756.922	25.45
757.102	25.46
757.283	24.81
757.463	25.05
757.643	25.45
757.823	25.7
758.004	25.82
758.184	25.59
758.364	25.83
758.545	24.86
758.725	25.21
758.905	25.16
759.085	25.17
759.265	25.37
759.446	25.61
759.626	25.47
759.806	25.36
759.986	25.43
760.166	24.93
760.346	25.38
760.526	25.55
760.706	25.76
760.886	25.47
761.066	25.26
761.246	25.34
761.426	25.07
761.606	25.4
761.786	25.65
761.966	25.52
762.146	25.97
762.326	25.83
762.506	26.33
762.686	26.04
762.866	26.03
763.046	26.36
763.225	26.49
763.405	26.9
763.585	26.83
763.765	26.96
763.945	26.84
764.124	26.63
764.304	26.17
764.484	26.08
764.664	26.3
764.843	26.76
765.023	26.16
765.203	25.91
765.382	25.98
765.562	25.86
765.741	25.55
765.921	25.75
766.101	26.21
766.28	26.42
766.46	26.39
766.639	26.71
766.819	26.22
766.998	27.37
767.178	27.83
767.357	27.7
767.537	27.98
767.716	27.81
767.896	27.79
768.075	27.42
768.254	27.07
768.434	27.11
768.613	26.58
768.792	26.86
768.972	25.97
769.151	25.96
769.33	25.37
769.51	24.83
769.689	25.04
769.868	25.66
770.047	25.64
770.226	26.18
770.406	25.41
770.585	25.79
770.764	25.4
770.943	25.5
771.122	25.07
771.301	25.14
771.48	25.29
771.66	25.28
771.839	24.78
772.018	25.2
772.197	25.42
772.376	26.83
772.555	27.01
772.734	27.19
772.913	26.86
773.092	27.73
773.271	27.97
773.449	27.85
773.628	27.84
773.807	27.65
773.986	28
774.165	27.47
774.344	27.21
774.523	26.09
774.701	25.6
774.88	26.04
775.059	25.53
775.238	24.79
775.417	25.14
775.595	25.95
775.774	25.83
775.953	24.83
776.131	24.82
776.31	24.35
776.489	25.33
776.667	25.61
776.846	25.92
777.025	25.74
777.203	25.81
777.382	26.05
777.56	25.39
777.739	25.59
777.917	26.52
778.096	26.55
778.274	26.68
778.453	26.33
778.631	26.57
778.81	25.46
778.988	26.02
779.166	26.55
779.345	26.18
779.523	25.68
779.702	25.86
779.88	24.67
780.058	24.5
780.237	23.95
780.415	24.35
780.593	23.53
780.771	24.68
780.95	24.45
781.128	24.66
781.306	25.23
781.484	25.1
781.662	25.55
781.841	26.37
782.019	26.8
782.197	27.4
782.375	27.4
782.553	27.84
782.731	28.18
782.909	28.32
783.087	28.74
783.265	27.45
783.443	28.66
783.621	28.49
783.799	28.49
783.977	28.04
784.155	27.29
784.333	26.78
784.511	27.75
784.689	27.45
784.867	27.11
785.045	26.39
785.223	26.51
785.4	26.22
785.578	25.8
785.756	25.79
785.934	25.35
786.112	25.93
786.289	25.37
786.467	24.11
786.645	24.34
786.823	24.32
787	24.87
787.178	25.87
787.356	25.46
787.533	25.66
787.711	25.84
787.889	25.86
788.066	25.9
788.244	26.58
788.421	27.37
788.599	26.84
788.776	26.67
788.954	25.97
789.131	25.88
789.309	25.75
789.486	25.8
789.664	25.11
789.841	25.51
790.019	24.73
790.196	25.06
790.373	24.14
790.551	25.07
790.728	24.96
790.906	25.96
791.083	27.45
791.26	28.59
791.437	27.26
791.615	27.48
791.792	26.9
791.969	27.9
792.146	27.89
792.324	29.48
792.501	29.08
792.678	29.48
792.855	29.29
793.032	27.44
793.209	25.73
793.387	26.34
793.564	27.65
793.741	28.01
793.918	28.21
794.095	27.7
794.272	25.92
794.449	25.32
794.626	25.22
794.803	25.35
794.98	25.01
795.157	25.01
795.334	25.15
795.511	23.86
795.688	24.76
795.864	23.42
796.041	23.55
796.218	22.92
796.395	22.61
796.572	21.72
796.749	20.7
796.925	21.63
797.102	22.65
797.279	22.25
797.456	22.64
797.632	22.65
797.809	23.42
797.986	23.36
798.162	24.14
798.339	25
798.516	25.65
798.692	26.3
798.869	25.64
799.046	24.81
799.222	25.67
799.399	25.22
799.575	25.58
799.752	25.67
799.928	26.51
800.105	27.45
800.281	26.94
800.458	27.23
800.634	26.08
800.811	25.96
800.987	26.27
801.163	26.36
801.34	26.33
801.516	25.21
801.692	26.56
801.869	24.27
802.045	24.42
802.221	25.16
802.398	25.36
802.574	25.86
802.75	25.65
802.926	26.05
803.103	24.57
803.279	24.03
803.455	24.54
803.631	23.6
803.807	25.59
803.983	25.7
804.16	24.56
804.336	23.93
804.512	24.11
804.688	24.3
804.864	23.83
805.04	25
805.216	26.03
805.392	25.91
805.568	26.15
805.744	26.62
805.92	26.26
806.096	27.31
806.272	28.26
806.448	28.16
806.623	28.24
806.799	29.78
806.975	30.4
807.151	30.39
807.327	28.68
807.503	27.72
807.678	27.32
807.854	26.96
808.03	26.52
808.206	25.19
808.381	25.33
808.557	24.6
808.733	23.52
808.908	22.65
809.084	22.08
809.26	23.97
809.435	24.68
809.611	23.48
809.787	23.82
809.962	24.32
810.138	26.23
810.313	26.45
810.489	27.37
810.664	27.64
810.84	27.83
811.015	28.23
811.191	27.16
811.366	27.15
811.542	27.22
811.717	26.31
811.892	25.74
812.068	24.39
812.243	24.09
812.419	23.95
812.594	24.39
812.769	23.76
812.944	24.82
813.12	27.12
813.295	28.95
813.47	29.06
813.645	28.22
813.821	27.56
813.996	27.13
814.171	27.6
814.346	26.87
814.521	26.01
814.697	26.59
814.872	26.38
815.047	24.14
815.222	22.07
815.397	21.82
815.572	23.34
815.747	24.84
815.922	26.59
816.097	25.53
816.272	26.86
816.447	27.19
816.622	27.48
816.797	27.71
816.972	27.21
817.147	26.73
817.322	27.15
817.496	25.66
817.671	25
817.846	24.36
818.021	25.57
818.196	24.4
818.371	23.45
818.545	24.1
818.72	23.76
818.895	24.48
819.069	24.46
819.244	25.49
819.419	26.38
819.594	25.7
819.768	25.44
819.943	25.18
820.117	26.08
820.292	26.37
820.467	25.75
820.641	25.61
820.816	25.69
820.99	25.93
821.165	25.35
821.339	25.54
821.514	25.63
821.688	25.71
821.863	25.76
822.037	25.49
822.212	25.37
822.386	25.34
822.56	25.17
822.735	25.15
822.909	24.92
823.084	25.13
823.258	25.04
823.432	25.25
823.606	25.06
823.781	24.97
823.955	25.23
824.129	25.5
824.303	25.78
824.478	26.01
824.652	25.79
824.826	26.21
825	26.01
825.174	25.81
825.348	25.56
825.523	25.59
825.697	25.6
825.871	25.09
826.045	24.65
826.219	24.11
826.393	23.94
826.567	24.48
826.741	24.56
826.915	24.48
827.089	24.57
827.263	24.85
827.437	25.54
827.611	25.83
827.784	26.44
827.958	26.9
828.132	27.52
828.306	27.99
828.48	27.65
828.654	27.58
828.827	28.37
829.001	28.65
829.175	28.21
829.349	27.55
829.522	27.05
829.696	27.24
829.87	27.41
830.044	26.95
830.217	26.66
830.391	27.21
830.565	27.46
830.738	26.76
830.912	27.42
831.085	27.81
831.259	28.07
831.432	28.81
831.606	28.3
831.779	27.79
831.953	28.03
832.126	26.47
832.3	26.57
832.473	25.78
832.647	25.42
832.82	24.94
832.994	25.08
833.167	25.49
833.34	24.9
833.514	24.4
833.687	23.9
833.86	23.89
834.034	25.08
834.207	25.01
834.38	24.84
834.553	24.37
834.727	24.89
834.9	24.83
835.073	24.15
835.246	24.43
835.419	24.67
835.593	25.83
835.766	25.68
835.939	25.58
836.112	25.35
836.285	26.55
836.458	28.79
836.631	28.84
836.804	29.79
836.977	29.94
837.15	29.38
837.323	29.22
837.496	28.88
837.669	27.97
837.842	28.07
838.015	28.58
838.188	26.95
838.361	24.14
838.533	23.68
838.706	22.1
838.879	22.97
839.052	24.37
839.225	23.77
839.398	23.74
839.57	26.56
839.743	26.56
839.916	26.56
840.088	27.43
840.261	29.79
840.434	29.53
840.607	29.33
840.779	29.95
840.952	29.72
841.124	29.76
841.297	30.64
841.47	28.73
841.642	28.19
841.815	26.38
841.987	25.54
842.16	23.97
842.332	24.18
842.505	26.2
842.677	25.52
842.85	22.91
843.022	24.89
843.194	22.71
843.367	21.41
843.539	21.39
843.712	24.18
843.884	25.42
844.056	25.06
844.229	25.49
844.401	24.24
844.573	20.06
844.745	22.91
844.918	20.22
845.09	18.71
845.262	22.31
845.434	20.46
845.606	20.41
845.779	20.36
845.951	21.08
846.123	20.7
846.295	19.93
846.467	24.85
846.639	23.84
846.811	26.51
846.983	28.07
847.155	25.37
847.327	26.17
847.499	26.23
847.671	26.9
847.843	28.47
848.015	27.41
848.187	27.68
848.359	26.44
848.531	27.97
848.703	24.23
848.875	26.13
849.047	29.02
849.218	29.65
849.39	27.63
849.562	26.4
849.734	25.64
849.905	24.83
850.077	24.36
850.249	23.6
850.421	23.96
850.592	26.09
850.764	27.18
850.936	25.44
851.107	25.42
851.279	26.88
851.451	26.87
851.622	25.38
851.794	24.12
851.965	24.52
852.137	26.28
852.308	26.98
852.48	28.68
852.651	25.43
852.823	27.22
852.994	30.97
853.166	30.87
853.337	33.51
853.509	35.45
853.68	38.48
853.851	38.66
854.023	37.7
854.194	33.67
854.365	31.69
854.537	30.03
854.708	30.15
854.879	27.52
855.05	30.07
855.222	28.95
855.393	28.22
855.564	29.5
855.735	29.5
855.906	33.11
856.078	33.4
856.249	32.04
856.42	35.67
856.591	34.44
856.762	35.33
856.933	33.6
857.104	30.16
857.275	32.65
857.446	29.49
857.617	28.87
857.788	24.31
857.959	25.58
858.13	28.79
858.301	29.36
858.472	29.29
858.643	32.75
858.814	30.21
858.985	29.95
859.155	27.99
859.326	26.3
859.497	27.72
859.668	29.33
859.839	34.04
860.009	33.76
860.18	33.57
860.351	34.16
860.522	29.28
860.692	28.17
860.863	34.6
861.034	34.91
861.204	33.95
861.375	32.28
861.546	31.43
861.716	29.23
861.887	27.16
862.057	25.7
862.228	28.95
862.398	29.74
862.569	31.57
862.739	29.24
862.91	28.12
863.08	30.81
863.251	31.54
863.421	31.89
863.592	32.48
863.762	33.77
863.932	34.25
864.103	30.24
864.273	28.54
864.443	27.5
864.614	29.64
864.784	29.58
864.954	28.06
865.125	28.44
865.295	29.98
865.465	24.34
865.635	22.66
865.805	19.95
865.976	23.04
866.146	27.48
866.316	28.79
866.486	24.41
866.656	26.27
866.826	30.13
866.996	28.77
867.166	28.65
867.336	34.42
867.506	37.3
867.676	39.09
867.846	39.36
868.016	38.39
868.186	38.4
868.356	39.6
868.526	35.89
868.696	35.6
868.866	37.06
869.036	33.49
869.206	31.35
869.376	27.51
869.545	27.72
869.715	23.1
869.885	21.98
870.055	20.39
870.224	18.75
870.394	20
870.564	17.28
870.734	18.16
870.903	20.79
871.073	22.87
871.243	23.26
871.412	24.81
871.582	25.52
871.751	23.48
871.921	22.61
872.091	21.81
872.26	21.42
872.43	22.23
872.599	21.56
872.769	19.94
872.938	19.69
873.108	17.89
873.277	14.77
873.446	17.83
873.616	18.26
873.785	19.15
873.955	17.88
874.124	21.22
874.293	21.34
874.463	20.14
874.632	18.36
874.801	12.94
874.971	17.82
875.14	12.27
875.309	7.97
875.478	10.09
875.647	14.6
875.817	17.42
875.986	14.88
876.155	15.55
876.324	15.63
876.493	18.18
876.662	21.1
876.831	20.48
877	28.2
877.17	30
877.339	27.72
877.508	23.99
877.677	22.93
877.846	25.14
878.015	27.71
878.184	31.98
878.352	29.41
878.521	31.3
878.69	31.27
878.859	26.69
879.028	27.72
879.197	29.02
879.366	28.22
879.534	29.78
879.703	29.84
879.872	27.14
880.041	24.92
880.21	26.54
880.378	25.21
880.547	24.92
880.716	25.19
880.884	24.16
881.053	23.99
881.222	24.89
881.39	24.6
881.559	24.18
881.727	25.28
881.896	25.04
882.065	25.49
882.233	26.5
882.402	27.02
882.57	27.57
882.739	28.37
882.907	28.48
883.076	28.27
883.244	28.45
883.412	27.99
883.581	27.08
883.749	27.11
883.918	26.08
884.086	25.81
884.254	25.42
884.423	25.18
884.591	25.02
884.759	25.46
884.927	25.7
885.096	25.17
885.264	27.43
885.432	28.25
885.6	28.53
885.769	29.12
885.937	27.89
886.105	28.99
886.273	28.95
886.441	27.76
886.609	25.6
886.777	24.34
886.945	25.08
887.113	22.32
887.281	22.03
887.449	21.02
887.617	19.25
887.785	21.61
887.953	19.74
888.121	21.81
888.289	23.97
888.457	27.3
888.625	27.21
888.793	25.78
888.961	26.73
889.129	27.06
889.296	27.14
889.464	30.53
889.632	27.65
889.8	26.68
889.967	24.19
890.135	20.58
