Data from 2938536_Reflection_4.txt Node
Date: Mon Jun 15 23:48:53 EDT 2015
User: robert
Spectrometer: USB4E03002
Autoset integration time: false
Trigger mode: 4
Integration Time (sec): 1.000000E-1
Scans to average: 10
Electric dark correction enabled: true
Nonlinearity correction enabled: false
Boxcar width: 6
Stray light correction enabled: false
XAxis mode: Wavelengths
Stop averaging: false
Number of Pixels in Spectrum: 3648
>>>>>Begin Spectral Data<<<<<
177.575	-124.3
177.794	-129.73
178.014	-153.96
178.233	-158.03
178.452	-739.47
178.672	-57.22
178.891	220
179.11	-172.58
179.33	-209.68
179.549	-287.22
179.768	-320
179.987	-526.34
180.207	-236.49
180.426	-293.55
180.645	-263.91
180.864	-184.37
181.084	-184.21
181.303	-181.05
181.522	-161.23
181.741	-174.91
181.96	-174.59
182.179	-131.56
182.398	-125.28
182.618	-165.96
182.837	-97.27
183.056	-102.35
183.275	-23.2
183.494	-38.43
183.713	-91.91
183.932	-90.89
184.151	-204.65
184.37	-203.92
184.589	-103.24
184.808	-290.91
185.027	-560.77
185.246	-281.06
185.465	-233.04
185.684	-393.75
185.903	-427.78
186.122	-2768.09
186.341	6700
186.56	1506.17
186.779	3051.28
186.998	-561.27
187.216	3538.46
187.435	440.68
187.654	1007.77
187.873	4842.86
188.092	717.97
188.311	509.52
188.53	2645.83
188.748	-2450
188.967	-181.82
189.186	-1143.9
189.405	-832.47
189.623	1703.85
189.842	704.97
190.061	8581.82
190.28	-711.71
190.498	-1452.63
190.717	-1155.41
190.936	-7042.86
191.154	-2635.14
191.373	10355.56
191.592	4225.93
191.81	3694.59
192.029	1988.71
192.248	1941.27
192.466	-4162.5
192.685	-638.36
192.904	-822.31
193.122	2153.06
193.341	3674.07
193.559	429.08
193.778	759.74
193.996	372.99
194.215	483.28
194.433	440.06
194.652	503.97
194.87	780.11
195.089	420.58
195.307	411.34
195.526	299.1
195.744	350
195.963	890.16
196.181	951.45
196.399	5081.82
196.618	1115.27
196.836	-709.63
197.055	-549.07
197.273	-1008.33
197.491	-343.61
197.71	-602.59
197.928	-238.08
198.146	-233.93
198.365	-228.43
198.583	-388.66
198.801	26600
199.019	1173.68
199.238	1658.62
199.456	3350
199.674	570.56
199.892	682.05
200.111	3839.29
200.329	330.03
200.547	434.15
200.765	393.75
200.983	450
201.202	450
201.42	727.59
201.638	522.53
201.856	1311.67
202.074	740
202.292	560.89
202.51	442.86
202.728	388.63
202.946	242.6
203.165	247.29
203.383	275.16
203.601	238.48
203.819	188.76
204.037	206.08
204.255	162.37
204.473	230.16
204.691	194.55
204.909	131.38
205.127	135.25
205.345	147.35
205.562	198.48
205.78	435.48
205.998	235.37
206.216	204.89
206.434	203
206.652	241.6
206.87	228.6
207.088	228.5
207.306	251.64
207.523	269.49
207.741	384.06
207.959	306.45
208.177	327.04
208.395	259.48
208.612	227.99
208.83	320.43
209.048	320.14
209.266	312.17
209.483	284.41
209.701	424.11
209.919	997.69
210.136	421.89
210.354	419.09
210.572	395.38
210.79	430.09
211.007	347.65
211.225	346.84
211.442	292.76
211.66	236.81
211.878	137.61
212.095	145.54
212.313	135.39
212.53	121.9
212.748	87.89
212.966	95.14
213.183	85.06
213.401	89.93
213.618	105.81
213.836	91.21
214.053	118.2
214.271	131.83
214.488	199.62
214.705	291.65
214.923	239.67
215.14	223.88
215.358	146.39
215.575	165.15
215.793	149.17
216.01	137.95
216.227	132.03
216.445	107.31
216.662	109.61
216.879	118.9
217.097	110.26
217.314	113.18
217.531	108.39
217.749	131.87
217.966	109.28
218.183	110.69
218.4	108.25
218.618	101.28
218.835	90.32
219.052	87.52
219.269	96.08
219.487	111.39
219.704	90.84
219.921	85.9
220.138	76.57
220.355	86.4
220.572	77.19
220.79	86.96
221.007	82.27
221.224	76.73
221.441	85.46
221.658	90.09
221.875	84.83
222.092	75.7
222.309	69.37
222.526	64.64
222.743	63.62
222.96	57.85
223.177	51.85
223.394	53.23
223.611	48.6
223.828	51.07
224.045	53.72
224.262	48.08
224.479	43.53
224.696	40.39
224.913	37.3
225.13	35.12
225.347	32.6
225.564	29.56
225.781	28.82
225.997	25.31
226.214	22.85
226.431	22.83
226.648	21.33
226.865	19.92
227.082	19.64
227.298	19.78
227.515	19.28
227.732	19.39
227.949	17.82
228.165	18.69
228.382	19.53
228.599	18.88
228.816	18.74
229.032	20.05
229.249	19.96
229.466	20.43
229.682	20.95
229.899	20.99
230.116	20.46
230.332	20.49
230.549	20.72
230.765	22.56
230.982	21.34
231.199	21.85
231.415	22.38
231.632	21.79
231.848	20.11
232.065	19.25
232.281	18.98
232.498	19.9
232.714	19.19
232.931	19.38
233.147	19.48
233.364	17.53
233.58	17.29
233.797	16.66
234.013	15.11
234.23	15.68
234.446	16.43
234.662	17.51
234.879	18.06
235.095	18.63
235.312	19.29
235.528	17.45
235.744	17.52
235.961	16.8
236.177	20.42
236.393	19.68
236.61	19.31
236.826	19.62
237.042	19.48
237.258	20.36
237.475	18.43
237.691	17.63
237.907	17.3
238.123	16.02
238.339	18.17
238.556	19.19
238.772	19.45
238.988	17.83
239.204	18.38
239.42	18.41
239.636	17.75
239.853	17.26
240.069	16.46
240.285	16.48
240.501	16.77
240.717	16.65
240.933	17.03
241.149	16.43
241.365	15.92
241.581	15.74
241.797	15.23
242.013	15.18
242.229	15.38
242.445	15.55
242.661	15.53
242.877	15.92
243.093	15.97
243.309	15.06
243.525	14.07
243.741	12.98
243.957	12.66
244.173	12.24
244.388	12.46
244.604	12.6
244.82	11.68
245.036	11.03
245.252	10.79
245.468	10.74
245.683	10.33
245.899	10.36
246.115	10.35
246.331	10.36
246.547	10.13
246.762	10.27
246.978	10.17
247.194	10.24
247.409	9.97
247.625	10.31
247.841	11.29
248.057	11.19
248.272	10.64
248.488	10.05
248.703	10.43
248.919	9.81
249.135	9.56
249.35	9.88
249.566	10.12
249.782	10.32
249.997	9.56
250.213	9.87
250.428	9.73
250.644	9.2
250.859	9.17
251.075	9.95
251.29	10.96
251.506	10.58
251.721	10.81
251.937	11.48
252.152	12.2
252.368	12.45
252.583	12.38
252.798	12.39
253.014	11.86
253.229	12.65
253.445	12.86
253.66	13.52
253.875	13.24
254.091	12.82
254.306	11.73
254.521	12.47
254.737	11.06
254.952	10.45
255.167	9.29
255.383	8.64
255.598	9.78
255.813	10.21
256.028	9.68
256.244	8.89
256.459	8.23
256.674	8.12
256.889	7.87
257.104	7.92
257.32	7.89
257.535	8.2
257.75	7.78
257.965	7.65
258.18	8.16
258.395	7.65
258.61	7.63
258.826	7.47
259.041	7.39
259.256	7.48
259.471	7.29
259.686	7.28
259.901	7.12
260.116	6.99
260.331	6.82
260.546	7.11
260.761	7.35
260.976	6.95
261.191	7.13
261.406	6.93
261.621	7.02
261.836	7.33
262.05	7.6
262.265	7.68
262.48	7.61
262.695	8.07
262.91	8.04
263.125	8.32
263.34	7.98
263.555	7.64
263.769	7.25
263.984	7.56
264.199	7.49
264.414	7.36
264.629	7.14
264.843	7.56
265.058	7.99
265.273	7.64
265.488	7.97
265.702	7.98
265.917	8.29
266.132	8.86
266.346	9.11
266.561	9.27
266.776	8.77
266.99	9.05
267.205	8.85
267.42	8.82
267.634	8.51
267.849	8.61
268.063	9.13
268.278	8.25
268.492	8.49
268.707	8.43
268.922	7.78
269.136	8.12
269.351	7.92
269.565	7.56
269.78	7.63
269.994	7.76
270.209	7.53
270.423	7.4
270.637	6.96
270.852	6.82
271.066	7.31
271.281	7.43
271.495	7.34
271.709	7.53
271.924	7.51
272.138	7.78
272.353	8.49
272.567	8.41
272.781	8.02
272.996	8.6
273.21	8.59
273.424	8.95
273.638	9.44
273.853	9.52
274.067	9.36
274.281	8.98
274.495	8.95
274.71	8.4
274.924	8.02
275.138	7.64
275.352	7.44
275.566	8.15
275.781	7.84
275.995	7.85
276.209	7.88
276.423	7.33
276.637	6.78
276.851	6.63
277.065	6.84
277.279	6.9
277.493	7.2
277.707	7.91
277.921	8.09
278.135	7.83
278.349	7.53
278.563	7.48
278.777	7.56
278.991	7.01
279.205	7.35
279.419	7.78
279.633	7.89
279.847	7.99
280.061	7.97
280.275	7.83
280.489	7.35
280.703	7.35
280.917	7.4
281.131	7.97
281.344	8.13
281.558	7.77
281.772	7.75
281.986	7.38
282.2	7.34
282.414	7.24
282.627	7.01
282.841	7.04
283.055	6.86
283.269	7.17
283.482	6.82
283.696	7.03
283.91	6.16
284.123	6.12
284.337	6.17
284.551	6.25
284.764	6.27
284.978	5.89
285.192	5.84
285.405	6.24
285.619	6.09
285.833	6.24
286.046	6.02
286.26	6.11
286.473	6.31
286.687	6.93
286.9	7.07
287.114	7.18
287.327	7.43
287.541	7.62
287.754	8.27
287.968	8.2
288.181	7.79
288.395	7.72
288.608	7.64
288.822	7.29
289.035	7.39
289.248	7.09
289.462	7.16
289.675	6.95
289.889	6.83
290.102	6.75
290.315	6.83
290.529	6.46
290.742	6.44
290.955	6.84
291.169	6.83
291.382	7.04
291.595	7.47
291.808	7.2
292.022	7.36
292.235	6.98
292.448	6.92
292.661	7.47
292.875	7.33
293.088	7.66
293.301	7.69
293.514	7.72
293.727	7.51
293.94	7.66
294.153	7.29
294.367	6.93
294.58	7.1
294.793	7.21
295.006	7.4
295.219	7.42
295.432	7
295.645	7.07
295.858	6.57
296.071	6.58
296.284	6.79
296.497	6.51
296.71	6.58
296.923	6.87
297.136	7.24
297.349	7.11
297.562	6.97
297.775	7
297.988	7.39
298.201	7.58
298.414	7.58
298.626	7.58
298.839	7.6
299.052	7.64
299.265	7.75
299.478	7.41
299.691	7.05
299.903	7.2
300.116	7.65
300.329	7.19
300.542	6.86
300.755	6.69
300.967	6.55
301.18	6.47
301.393	6.73
301.605	6.8
301.818	6.48
302.031	6.59
302.243	6.84
302.456	6.89
302.669	6.99
302.881	7.01
303.094	7.46
303.307	7.4
303.519	7.34
303.732	7.21
303.944	7.4
304.157	7.42
304.37	7.27
304.582	7.49
304.795	7.87
305.007	7.94
305.22	7.96
305.432	7.43
305.645	6.97
305.857	7.04
306.069	7.23
306.282	7.11
306.494	7.51
306.707	7.43
306.919	6.97
307.132	7.13
307.344	6.92
307.556	6.54
307.769	6.29
307.981	6.29
308.193	6.34
308.406	6.55
308.618	6.33
308.83	6.23
309.043	6.25
309.255	6.07
309.467	6.28
309.679	6.7
309.892	6.5
310.104	6.69
310.316	6.59
310.528	6.83
310.74	7.04
310.953	7.24
311.165	7.3
311.377	7.31
311.589	7.84
311.801	7.47
312.013	7.82
312.225	7.7
312.437	8
312.649	8.12
312.862	8.18
313.074	8.51
313.286	8.29
313.498	8.16
313.71	8.28
313.922	8.33
314.134	8.58
314.346	8.26
314.558	8.81
314.77	8.81
314.982	8.77
315.193	8.4
315.405	8.31
315.617	8.04
315.829	7.71
316.041	7.55
316.253	7.84
316.465	7.24
316.677	7.14
316.888	7.25
317.1	7.37
317.312	7.06
317.524	6.93
317.736	7.18
317.947	7.25
318.159	7.5
318.371	7.56
318.583	7.64
318.794	8.29
319.006	8.24
319.218	8.28
319.43	8.19
319.641	7.64
319.853	7.61
320.064	7.72
320.276	7.53
320.488	7.56
320.699	7.83
320.911	8.01
321.123	8.35
321.334	8.47
321.546	7.82
321.757	7.35
321.969	7.79
322.18	7.49
322.392	8.02
322.603	8.1
322.815	8.13
323.026	7.71
323.238	7.65
323.449	7.54
323.661	7.5
323.872	7.58
324.083	7.67
324.295	7.77
324.506	7.89
324.718	7.43
324.929	7.45
325.14	7.21
325.352	7.12
325.563	6.94
325.774	7.35
325.986	7.28
326.197	7.19
326.408	6.93
326.62	6.7
326.831	6.73
327.042	7.16
327.253	7.32
327.464	7.73
327.676	8.3
327.887	8.2
328.098	8.23
328.309	8.42
328.52	8.45
328.732	8.32
328.943	8.06
329.154	8.24
329.365	7.93
329.576	7.87
329.787	7.39
329.998	7.41
330.209	7.17
330.42	6.86
330.631	6.99
330.842	7.03
331.053	7.25
331.264	7.23
331.475	7.44
331.686	7.74
331.897	7.61
332.108	8.11
332.319	8.15
332.53	8.16
332.741	8.43
332.952	8.08
333.163	7.95
333.374	8.2
333.585	7.98
333.795	7.59
334.006	7.61
334.217	7.51
334.428	7.72
334.639	7.58
334.849	7.13
335.06	6.81
335.271	6.99
335.482	6.77
335.692	7.43
335.903	7.88
336.114	7.7
336.325	8.06
336.535	8.69
336.746	8.86
336.957	9.19
337.167	9.06
337.378	9.68
337.589	9.91
337.799	10.37
338.01	10.28
338.22	9.85
338.431	9.64
338.642	9.49
338.852	9.43
339.063	9.35
339.273	9.02
339.484	9.06
339.694	8.88
339.905	8.63
340.115	8.25
340.326	8.2
340.536	8.02
340.746	8.23
340.957	8.71
341.167	8.82
341.378	8.7
341.588	8.5
341.799	8.16
342.009	7.9
342.219	7.5
342.43	7.32
342.64	7.19
342.85	6.97
343.061	7.32
343.271	7.27
343.481	7.21
343.691	6.81
343.902	6.75
344.112	6.84
344.322	6.94
344.532	7.03
344.743	7.07
344.953	7.12
345.163	7.23
345.373	7.29
345.583	7.38
345.793	7.16
346.004	7.24
346.214	7.39
346.424	7.58
346.634	7.54
346.844	7.06
347.054	7.12
347.264	7.41
347.474	7.31
347.684	7.4
347.894	7.37
348.104	7.38
348.314	7.4
348.524	7.22
348.734	7.43
348.944	7.18
349.154	7.23
349.364	7.38
349.574	7.71
349.784	7.55
349.994	7.29
350.204	7.54
350.413	7.38
350.623	7.33
350.833	7.16
351.043	7.07
351.253	6.89
351.463	6.41
351.672	6.51
351.882	6.36
352.092	6.02
352.302	6.04
352.511	5.93
352.721	5.85
352.931	5.85
353.141	5.96
353.35	5.8
353.56	6.13
353.77	6.13
353.979	6.4
354.189	6.32
354.399	6.17
354.608	6.35
354.818	6.74
355.027	6.52
355.237	6.6
355.447	6.58
355.656	6.22
355.866	6.16
356.075	6.22
356.285	6
356.494	6.01
356.704	6
356.913	6.16
357.123	6.26
357.332	6.24
357.542	5.92
357.751	6.25
357.96	6.36
358.17	6.35
358.379	6.52
358.589	6.42
358.798	6.2
359.007	6.11
359.217	6.07
359.426	6.21
359.635	6.27
359.845	6.2
360.054	6.14
360.263	6.1
360.472	5.9
360.682	5.79
360.891	5.65
361.1	5.83
361.309	5.9
361.519	6.1
361.728	6.29
361.937	6.26
362.146	6.07
362.355	6.02
362.564	5.85
362.774	5.72
362.983	5.64
363.192	5.63
363.401	5.65
363.61	6.37
363.819	6.06
364.028	5.84
364.237	5.78
364.446	5.62
364.655	5.76
364.864	5.84
365.073	5.87
365.282	5.88
365.491	6.22
365.7	6.39
365.909	6.25
366.118	6.28
366.327	5.84
366.536	6.04
366.745	6.29
366.954	6.34
367.162	6.24
367.371	6.27
367.58	5.96
367.789	5.93
367.998	6.12
368.207	5.91
368.415	6.02
368.624	6.23
368.833	6.23
369.042	5.97
369.25	5.96
369.459	6.01
369.668	5.88
369.877	5.92
370.085	5.71
370.294	5.87
370.503	5.87
370.711	5.76
370.92	5.78
371.129	5.58
371.337	5.4
371.546	5.66
371.754	5.84
371.963	5.76
372.171	5.63
372.38	5.61
372.589	5.87
372.797	5.89
373.006	6.01
373.214	6.09
373.423	6.2
373.631	6.15
373.84	6.39
374.048	6.5
374.256	6.14
374.465	6.12
374.673	5.87
374.882	5.96
375.09	5.88
375.298	5.88
375.507	5.92
375.715	5.54
375.923	5.48
376.132	5.41
376.34	5.49
376.548	5.29
376.757	5.41
376.965	5.55
377.173	5.56
377.381	5.9
377.59	5.75
377.798	5.64
378.006	5.46
378.214	5.33
378.423	5.5
378.631	5.27
378.839	5.39
379.047	5.33
379.255	5.44
379.463	5.24
379.671	5.19
379.879	5.09
380.088	4.93
380.296	4.96
380.504	5.34
380.712	5.22
380.92	5.39
381.128	5.34
381.336	5.36
381.544	5.2
381.752	5.3
381.96	5.13
382.168	5.18
382.376	5.17
382.584	5.24
382.791	5.44
382.999	5.42
383.207	5.15
383.415	5.38
383.623	5.3
383.831	5.34
384.039	5.5
384.247	5.6
384.454	5.28
384.662	5.32
384.87	5.22
385.078	5.08
385.285	5.15
385.493	4.87
385.701	4.88
385.909	5.03
386.116	4.95
386.324	5.02
386.532	5.22
386.739	5.15
386.947	5.03
387.155	5.11
387.362	5.19
387.57	5.13
387.778	5.07
387.985	4.94
388.193	5.11
388.4	5.19
388.608	5.21
388.816	5.19
389.023	5.03
389.231	4.87
389.438	4.79
389.646	4.76
389.853	4.76
390.061	4.72
390.268	4.75
390.475	4.88
390.683	4.82
390.89	4.74
391.098	4.6
391.305	4.51
391.512	4.63
391.72	4.72
391.927	4.69
392.135	4.62
392.342	4.62
392.549	4.64
392.756	4.56
392.964	4.67
393.171	4.59
393.378	4.66
393.586	4.69
393.793	4.72
394	4.69
394.207	4.47
394.414	4.37
394.622	4.25
394.829	4.36
395.036	4.52
395.243	4.56
395.45	4.57
395.657	4.45
395.864	4.5
396.072	4.42
396.279	4.34
396.486	4.33
396.693	4.19
396.9	4.46
397.107	4.69
397.314	4.86
397.521	4.79
397.728	4.62
397.935	4.6
398.142	4.63
398.349	4.57
398.556	4.69
398.763	4.68
398.97	4.72
399.177	4.66
399.383	4.81
399.59	4.66
399.797	4.54
400.004	4.76
400.211	4.76
400.418	4.72
400.625	4.63
400.831	4.52
401.038	4.56
401.245	4.35
401.452	4.2
401.658	4.28
401.865	4.36
402.072	4.26
402.279	4.15
402.485	3.99
402.692	3.74
402.899	3.76
403.105	3.66
403.312	3.72
403.519	3.7
403.725	3.8
403.932	3.9
404.138	4.14
404.345	3.98
404.552	4.08
404.758	4.07
404.965	4.06
405.171	4.22
405.378	4.28
405.584	4.34
405.791	4.5
405.997	4.48
406.204	4.61
406.41	4.47
406.617	4.44
406.823	4.32
407.029	4.36
407.236	4.24
407.442	4.43
407.649	4.26
407.855	4.15
408.061	4.08
408.268	4.14
408.474	4.15
408.68	4.32
408.887	4.22
409.093	4.29
409.299	4.26
409.505	4.27
409.712	4.27
409.918	4.19
410.124	4.1
410.33	4.24
410.537	4.26
410.743	4.29
410.949	4.19
411.155	4.11
411.361	3.84
411.567	3.87
411.773	3.81
411.98	3.89
412.186	3.92
412.392	3.92
412.598	3.95
412.804	4.06
413.01	4.12
413.216	4.23
413.422	4.28
413.628	4.3
413.834	4.22
414.04	4.14
414.246	4.12
414.452	4.19
414.658	4.08
414.864	3.99
415.07	4
415.275	4
415.481	3.9
415.687	3.77
415.893	3.63
416.099	3.66
416.305	3.64
416.511	3.7
416.716	3.73
416.922	3.82
417.128	3.85
417.334	3.92
417.539	3.93
417.745	3.92
417.951	3.91
418.157	3.88
418.362	3.93
418.568	3.94
418.774	3.75
418.979	3.64
419.185	3.61
419.391	3.65
419.596	3.55
419.802	3.51
420.008	3.01
420.213	2.97
420.419	2.93
420.624	2.88
420.83	2.88
421.035	2.88
421.241	2.88
421.446	2.98
421.652	3.03
421.857	2.93
422.063	2.87
422.268	2.88
422.474	2.81
422.679	3.27
422.885	3.24
423.09	3.23
423.295	3.25
423.501	3.23
423.706	3.2
423.911	3.19
424.117	3.17
424.322	3.12
424.527	3.19
424.733	3.18
424.938	3.11
425.143	3.17
425.349	3.14
425.554	3.21
425.759	3.26
425.964	3.23
426.169	3.25
426.375	3.2
426.58	3.17
426.785	3.24
426.99	3.3
427.195	3.32
427.4	3.42
427.605	3.58
427.811	3.66
428.016	3.66
428.221	3.54
428.426	3.45
428.631	3.42
428.836	3.46
429.041	3.45
429.246	3.46
429.451	3.39
429.656	3.34
429.861	3.42
430.066	3.38
430.271	3.19
430.476	3.05
430.681	3.06
430.886	3.13
431.09	3.17
431.295	3.24
431.5	3.26
431.705	3.3
431.91	3.35
432.115	3.29
432.32	3.25
432.524	3.24
432.729	3.19
432.934	3.29
433.139	3.34
433.343	3.28
433.548	3.16
433.753	3.2
433.958	3.13
434.162	3.04
434.367	3.16
434.572	3.06
434.776	3.17
434.981	3.15
435.186	3.14
435.39	3.19
435.595	3.03
435.799	3.03
436.004	3.01
436.209	3.09
436.413	3.05
436.618	3.07
436.822	3.12
437.027	3
437.231	2.94
437.436	2.85
437.64	2.93
437.845	2.92
438.049	2.91
438.253	3.02
438.458	3.01
438.662	3.06
438.867	3.14
439.071	3.07
439.275	3.12
439.48	3.1
439.684	3.09
439.888	3.21
440.093	3.25
440.297	3.24
440.501	3.21
440.706	3.3
440.91	3.27
441.114	3.29
441.318	3.26
441.523	3.19
441.727	3.24
441.931	3.21
442.135	3.1
442.339	3.19
442.543	3.15
442.748	3.14
442.952	3.14
443.156	3.16
443.36	3.11
443.564	3.1
443.768	2.99
443.972	3.09
444.176	3.15
444.38	3.13
444.584	3.08
444.788	3.16
444.992	3.14
445.196	3.1
445.4	3.03
445.604	3.01
445.808	3.02
446.012	2.9
446.216	2.92
446.42	2.98
446.624	2.85
446.828	2.78
447.032	2.82
447.235	2.81
447.439	2.79
447.643	2.72
447.847	2.72
448.051	2.86
448.254	2.93
448.458	2.87
448.662	2.93
448.866	2.84
449.069	2.82
449.273	2.88
449.477	2.79
449.681	2.68
449.884	2.75
450.088	2.81
450.292	2.85
450.495	2.84
450.699	2.79
450.902	2.71
451.106	2.77
451.31	2.87
451.513	2.93
451.717	3.05
451.92	3.09
452.124	3.08
452.327	3.14
452.531	3.15
452.734	3.16
452.938	3.2
453.141	3.11
453.345	3.15
453.548	3.15
453.752	3.15
453.955	2.99
454.158	2.96
454.362	2.9
454.565	2.84
454.769	2.95
454.972	2.93
455.175	2.92
455.379	2.85
455.582	2.73
455.785	2.83
455.988	2.8
456.192	2.68
456.395	2.63
456.598	2.68
456.801	2.72
457.005	2.71
457.208	2.63
457.411	2.56
457.614	2.61
457.817	2.55
458.021	2.55
458.224	2.53
458.427	2.57
458.63	2.57
458.833	2.68
459.036	2.72
459.239	2.77
459.442	2.78
459.645	2.77
459.848	2.86
460.051	2.95
460.254	2.96
460.457	3.07
460.66	3.15
460.863	3.26
461.066	3.24
461.269	3.32
461.472	3.21
461.675	3.16
461.878	3.09
462.081	3.1
462.284	3.13
462.486	3.1
462.689	3.1
462.892	3.11
463.095	3.08
463.298	3.01
463.5	3.02
463.703	2.95
463.906	2.96
464.109	3.02
464.311	3.16
464.514	3.3
464.717	3.31
464.92	3.32
465.122	3.32
465.325	3.3
465.528	3.29
465.73	3.16
465.933	3.2
466.135	3.14
466.338	3.18
466.541	3.14
466.743	3.03
466.946	2.8
467.148	2.68
467.351	2.67
467.553	2.59
467.756	2.55
467.958	2.46
468.161	2.44
468.363	2.53
468.566	2.41
468.768	2.45
468.971	2.45
469.173	2.32
469.375	2.43
469.578	2.56
469.78	2.67
469.983	2.67
470.185	2.71
470.387	2.75
470.59	2.85
470.792	2.84
470.994	2.7
471.196	2.78
471.399	2.76
471.601	2.73
471.803	2.78
472.005	2.86
472.208	2.75
472.41	2.66
472.612	2.63
472.814	2.65
473.016	2.71
473.218	2.66
473.421	2.74
473.623	2.82
473.825	2.81
474.027	2.8
474.229	2.9
474.431	2.95
474.633	2.99
474.835	3.11
475.037	3.22
475.239	3.26
475.441	3.29
475.643	3.19
475.845	3.23
476.047	3.23
476.249	3.26
476.451	3.34
476.653	3.39
476.855	3.29
477.057	3.22
477.258	3.08
477.46	3.09
477.662	2.98
477.864	2.91
478.066	2.82
478.268	2.88
478.469	2.77
478.671	2.69
478.873	2.69
479.075	2.55
479.276	2.52
479.478	2.52
479.68	2.63
479.882	2.64
480.083	2.59
480.285	2.59
480.487	2.6
480.688	2.66
480.89	2.63
481.091	2.67
481.293	2.68
481.495	2.64
481.696	2.64
481.898	2.61
482.099	2.59
482.301	2.55
482.502	2.53
482.704	2.54
482.905	2.52
483.107	2.5
483.308	2.45
483.51	2.44
483.711	2.44
483.913	2.43
484.114	2.45
484.315	2.47
484.517	2.51
484.718	2.55
484.92	2.56
485.121	2.61
485.322	2.61
485.524	2.62
485.725	2.63
485.926	2.66
486.127	2.65
486.329	2.63
486.53	2.62
486.731	2.62
486.932	2.6
487.134	2.57
487.335	2.53
487.536	2.56
487.737	2.55
487.938	2.56
488.139	2.57
488.341	2.6
488.542	2.59
488.743	2.63
488.944	2.65
489.145	2.69
489.346	2.71
489.547	2.76
489.748	2.8
489.949	2.81
490.15	2.78
490.351	2.8
490.552	2.78
490.753	2.8
490.954	2.78
491.155	2.81
491.356	2.8
491.557	2.74
491.758	2.7
491.959	2.7
492.159	2.69
492.36	2.68
492.561	2.68
492.762	2.71
492.963	2.7
493.164	2.69
493.364	2.68
493.565	2.74
493.766	2.79
493.967	2.74
494.167	2.85
494.368	2.86
494.569	2.88
494.769	2.9
494.97	2.92
495.171	2.96
495.371	2.99
495.572	2.98
495.773	3.04
495.973	3.06
496.174	3.04
496.375	3.04
496.575	3.15
496.776	3.18
496.976	3.2
497.177	3.17
497.377	3.18
497.578	3.08
497.778	3.06
497.979	3.14
498.179	3.21
498.38	3.22
498.58	3.31
498.78	3.35
498.981	3.39
499.181	3.35
499.382	3.32
499.582	3.44
499.782	3.46
499.983	3.44
500.183	3.51
500.383	3.51
500.584	3.49
500.784	3.52
500.984	3.48
501.184	3.42
501.385	3.42
501.585	3.38
501.785	3.41
501.985	3.51
502.185	3.42
502.386	3.39
502.586	3.47
502.786	3.52
502.986	3.6
503.186	3.51
503.386	3.41
503.586	3.48
503.786	3.5
503.987	3.47
504.187	3.46
504.387	3.48
504.587	3.44
504.787	3.56
504.987	3.67
505.187	3.62
505.387	3.6
505.587	3.59
505.786	3.67
505.986	3.77
506.186	3.77
506.386	3.83
506.586	3.86
506.786	3.91
506.986	3.89
507.186	3.86
507.386	3.77
507.585	3.67
507.785	3.7
507.985	3.81
508.185	3.84
508.384	3.77
508.584	3.74
508.784	3.67
508.984	3.68
509.183	3.65
509.383	3.61
509.583	3.7
509.782	3.81
509.982	3.87
510.182	3.94
510.381	3.96
510.581	3.91
510.781	3.92
510.98	4.02
511.18	4.08
511.379	4.11
511.579	4.18
511.778	4.22
511.978	4.27
512.177	4.23
512.377	4.11
512.576	4.1
512.776	4.1
512.975	4.12
513.175	4.1
513.374	4.17
513.573	4.13
513.773	4.18
513.972	4.27
514.172	4.23
514.371	4.36
514.57	4.4
514.77	4.36
514.969	4.48
515.168	4.53
515.367	4.55
515.567	4.51
515.766	4.57
515.965	4.52
516.164	4.56
516.364	4.45
516.563	4.46
516.762	4.47
516.961	4.44
517.16	4.47
517.359	4.52
517.559	4.49
517.758	4.49
517.957	4.57
518.156	4.62
518.355	4.65
518.554	4.63
518.753	4.66
518.952	4.81
519.151	4.82
519.35	4.81
519.549	4.86
519.748	4.92
519.947	4.93
520.146	4.99
520.345	5.04
520.544	5.13
520.743	5.17
520.942	5.14
521.141	5.25
521.339	5.22
521.538	5.15
521.737	5.17
521.936	5.23
522.135	5.23
522.333	5.12
522.532	5.19
522.731	5.29
522.93	5.29
523.129	5.22
523.327	5.21
523.526	5.3
523.725	5.26
523.923	5.36
524.122	5.4
524.321	5.44
524.519	5.48
524.718	5.52
524.917	5.52
525.115	5.53
525.314	5.5
525.512	5.49
525.711	5.51
525.909	5.48
526.108	5.47
526.306	5.5
526.505	5.47
526.703	5.47
526.902	5.44
527.1	5.43
527.299	5.41
527.497	5.45
527.696	5.47
527.894	5.48
528.092	5.5
528.291	5.54
528.489	5.6
528.688	5.61
528.886	5.65
529.084	5.69
529.283	5.73
529.481	5.78
529.679	5.82
529.877	5.87
530.076	5.94
530.274	5.96
530.472	6
530.67	6.01
530.869	6.02
531.067	6.05
531.265	6.08
531.463	6.12
531.661	6.17
531.859	6.21
532.057	6.25
532.255	6.25
532.454	6.26
532.652	6.26
532.85	6.31
533.048	6.37
533.246	6.4
533.444	6.45
533.642	6.5
533.84	6.54
534.038	6.52
534.236	6.54
534.434	6.53
534.632	6.58
534.83	6.61
535.027	6.66
535.225	6.7
535.423	6.7
535.621	6.73
535.819	6.76
536.017	6.77
536.215	6.78
536.412	6.8
536.61	6.85
536.808	6.88
537.006	6.95
537.203	7
537.401	7.06
537.599	7.12
537.797	7.16
537.994	7.23
538.192	7.22
538.39	7.25
538.587	7.26
538.785	7.27
538.983	7.28
539.18	7.24
539.378	7.29
539.575	7.26
539.773	7.24
539.97	7.24
540.168	7.25
540.366	7.23
540.563	7.22
540.761	7.24
540.958	7.32
541.155	7.35
541.353	7.38
541.55	7.37
541.748	7.42
541.945	7.44
542.143	7.5
542.34	7.56
542.537	7.68
542.735	7.74
542.932	7.83
543.129	7.93
543.327	8.04
543.524	8.01
543.721	8.13
543.919	8.22
544.116	8.38
544.313	8.49
544.51	8.58
544.708	8.65
544.905	8.7
545.102	8.68
545.299	8.72
545.496	8.75
545.693	8.77
545.891	8.74
546.088	8.82
546.285	8.81
546.482	8.83
546.679	8.82
546.876	8.88
547.073	8.95
547.27	8.97
547.467	9.07
547.664	9.15
547.861	9.25
548.058	9.31
548.255	9.33
548.452	9.44
548.649	9.53
548.846	9.5
549.043	9.63
549.24	9.67
549.437	9.63
549.633	9.66
549.83	9.76
550.027	9.81
550.224	9.86
550.421	9.87
550.618	9.98
550.814	10.07
551.011	10.06
551.208	10.1
551.405	10.2
551.601	10.22
551.798	10.29
551.995	10.39
552.191	10.4
552.388	10.37
552.585	10.28
552.781	10.33
552.978	10.36
553.175	10.39
553.371	10.31
553.568	10.54
553.764	10.41
553.961	10.48
554.157	10.48
554.354	10.55
554.55	10.55
554.747	10.58
554.943	10.71
555.14	10.86
555.336	10.9
555.533	10.94
555.729	11.09
555.926	11.33
556.122	11.18
556.318	11.45
556.515	11.48
556.711	11.52
556.907	11.62
557.104	11.72
557.3	11.81
557.496	11.84
557.693	12
557.889	12.07
558.085	12.25
558.281	12.14
558.478	12.13
558.674	12.19
558.87	12.25
559.066	12.3
559.262	12.4
559.459	12.31
559.655	12.4
559.851	12.41
560.047	12.46
560.243	12.45
560.439	12.55
560.635	12.5
560.831	12.59
561.027	12.6
561.223	12.62
561.419	12.67
561.615	12.83
561.811	12.93
562.007	13.06
562.203	13.12
562.399	13.17
562.595	13.31
562.791	13.37
562.987	13.28
563.183	13.31
563.379	13.36
563.575	13.5
563.771	13.68
563.966	13.7
564.162	13.68
564.358	13.71
564.554	13.73
564.75	13.74
564.945	13.79
565.141	13.74
565.337	13.79
565.533	13.85
565.728	13.89
565.924	13.93
566.12	13.92
566.315	14.04
566.511	14.16
566.707	14.16
566.902	14.28
567.098	14.36
567.293	14.38
567.489	14.37
567.684	14.5
567.88	14.58
568.076	14.71
568.271	14.73
568.467	14.79
568.662	14.87
568.858	14.78
569.053	14.71
569.248	14.82
569.444	14.75
569.639	14.78
569.835	14.87
570.03	14.92
570.225	14.93
570.421	14.9
570.616	14.89
570.812	14.96
571.007	15.06
571.202	15.13
571.397	15.21
571.593	15.28
571.788	15.29
571.983	15.34
572.178	15.49
572.374	15.51
572.569	15.69
572.764	15.65
572.959	15.65
573.154	15.7
573.35	15.71
573.545	15.64
573.74	15.7
573.935	15.65
574.13	15.62
574.325	15.69
574.52	15.78
574.715	15.6
574.91	15.67
575.105	15.66
575.3	15.75
575.495	15.83
575.69	15.9
575.885	15.97
576.08	16.04
576.275	16.05
576.47	16.17
576.665	16.3
576.86	16.34
577.055	16.3
577.25	16.43
577.444	16.48
577.639	16.41
577.834	16.54
578.029	16.53
578.224	16.58
578.418	16.66
578.613	16.7
578.808	16.69
579.003	16.81
579.197	16.74
579.392	16.79
579.587	16.87
579.781	17.03
579.976	17.1
580.171	17.21
580.365	17.23
580.56	17.3
580.755	17.32
580.949	17.29
581.144	17.35
581.338	17.43
581.533	17.35
581.727	17.4
581.922	17.44
582.116	17.45
582.311	17.4
582.505	17.33
582.7	17.38
582.894	17.3
583.089	17.32
583.283	17.36
583.478	17.45
583.672	17.51
583.866	17.49
584.061	17.65
584.255	17.75
584.449	17.8
584.644	17.7
584.838	17.73
585.032	17.78
585.226	17.71
585.421	17.84
585.615	17.94
585.809	18.07
586.003	18.16
586.198	18.08
586.392	18.09
586.586	17.95
586.78	17.9
586.974	17.9
587.168	18.09
587.363	18.08
587.557	18.12
587.751	18.27
587.945	18.3
588.139	18.4
588.333	18.36
588.527	18.24
588.721	18.39
588.915	18.45
589.109	18.58
589.303	18.62
589.497	18.67
589.691	18.66
589.885	18.68
590.079	18.68
590.273	18.71
590.466	18.56
590.66	18.49
590.854	18.38
591.048	18.42
591.242	18.37
591.436	18.42
591.629	18.38
591.823	18.47
592.017	18.43
592.211	18.45
592.404	18.52
592.598	18.56
592.792	18.54
592.986	18.67
593.179	18.66
593.373	18.88
593.567	18.97
593.76	18.96
593.954	18.96
594.147	18.94
594.341	19
594.535	19.05
594.728	19.05
594.922	19.09
595.115	19.05
595.309	19.12
595.502	19.19
595.696	19.25
595.889	19.13
596.083	19.17
596.276	19.24
596.47	19.22
596.663	19.31
596.856	19.25
597.05	19.23
597.243	19.17
597.437	19.16
597.63	19.3
597.823	19.29
598.017	19.27
598.21	19.4
598.403	19.6
598.596	19.52
598.79	19.66
598.983	19.71
599.176	19.86
599.369	19.91
599.563	19.96
599.756	20.22
599.949	20.25
600.142	20.18
600.335	20.23
600.528	20.3
600.722	20.23
600.915	20.29
601.108	20.3
601.301	20.21
601.494	20.4
601.687	20.3
601.88	20.35
602.073	20.33
602.266	20.19
602.459	20.2
602.652	20.26
602.845	20.16
603.038	20.1
603.231	20.07
603.424	19.97
603.617	20.13
603.809	20.15
604.002	20.15
604.195	20.19
604.388	20.17
604.581	20.2
604.774	20.18
604.966	20.13
605.159	20.08
605.352	20.23
605.545	20.21
605.737	20.31
605.93	20.27
606.123	20.15
606.316	20.09
606.508	20.02
606.701	19.94
606.894	19.99
607.086	20.07
607.279	20.05
607.471	20.14
607.664	20.24
607.857	20.32
608.049	20.44
608.242	20.3
608.434	20.42
608.627	20.39
608.819	20.45
609.012	20.38
609.204	20.39
609.397	20.41
609.589	20.45
609.782	20.66
609.974	20.74
610.166	20.73
610.359	20.56
610.551	20.55
610.743	20.75
610.936	20.67
611.128	20.8
611.32	20.67
611.513	20.71
611.705	20.84
611.897	20.83
612.09	20.91
612.282	20.79
612.474	20.81
612.666	20.91
612.858	21.01
613.051	20.99
613.243	21.03
613.435	21.16
613.627	21.19
613.819	21.73
614.011	21.79
614.203	21.82
614.395	21.8
614.588	21.69
614.78	21.75
614.972	21.76
615.164	21.65
615.356	21.5
615.548	21.67
615.74	21.59
615.932	21.51
616.124	21.48
616.315	21.23
616.507	21.27
616.699	21.23
616.891	21.25
617.083	21.36
617.275	21.36
617.467	21.41
617.659	21.58
617.85	21.75
618.042	21.78
618.234	21.76
618.426	21.9
618.618	21.86
618.809	21.79
619.001	21.74
619.193	21.77
619.384	21.9
619.576	21.87
619.768	21.69
619.959	21.56
620.151	21.51
620.343	21.49
620.534	21.51
620.726	21.52
620.917	21.4
621.109	21.43
621.301	21.58
621.492	21.7
621.684	21.65
621.875	21.61
622.067	21.71
622.258	22.05
622.45	22.17
622.641	22.35
622.832	22.45
623.024	22.36
623.215	22.39
623.407	22.4
623.598	22.31
623.789	22.21
623.981	22.13
624.172	22.12
624.363	22.14
624.555	22.07
624.746	21.88
624.937	21.85
625.129	21.7
625.32	21.56
625.511	21.59
625.702	21.58
625.893	21.6
626.085	21.71
626.276	21.69
626.467	21.78
626.658	21.81
626.849	21.74
627.04	21.76
627.231	21.74
627.422	21.71
627.614	21.75
627.805	21.76
627.996	21.63
628.187	21.59
628.378	21.76
628.569	21.75
628.76	21.8
628.951	21.57
629.142	21.68
629.332	21.63
629.523	21.57
629.714	21.71
629.905	21.6
630.096	21.5
630.287	21.57
630.478	21.64
630.669	21.85
630.859	21.75
631.05	21.74
631.241	21.81
631.432	22.03
631.623	21.94
631.813	21.92
632.004	21.87
632.195	21.78
632.385	21.87
632.576	21.88
632.767	21.83
632.957	21.96
633.148	21.75
633.339	21.63
633.529	21.53
633.72	21.47
633.91	21.44
634.101	21.41
634.292	21.42
634.482	21.61
634.673	21.69
634.863	21.85
635.054	21.76
635.244	21.77
635.435	21.67
635.625	21.75
635.815	21.89
636.006	22.14
636.196	22.19
636.387	22.19
636.577	22.19
636.767	22.33
636.958	22.33
637.148	22.25
637.338	22.03
637.529	22.16
637.719	22.3
637.909	22.28
638.099	22.26
638.29	22.26
638.48	22.24
638.67	22.5
638.86	22.52
639.05	22.64
639.241	22.62
639.431	22.47
639.621	22.68
639.811	22.86
640.001	22.91
640.191	22.76
640.381	22.95
640.571	22.84
640.761	22.65
640.951	22.57
641.141	22.19
641.331	22.11
641.521	22.09
641.711	22.16
641.901	22.28
642.091	22.09
642.281	22.08
642.471	22.2
642.661	22.51
642.851	22.33
643.041	22.55
643.231	22.66
643.42	22.56
643.61	22.79
643.8	22.76
643.99	22.79
644.18	22.66
644.369	22.78
644.559	22.95
644.749	22.98
644.939	22.79
645.128	22.33
645.318	22.54
645.508	22.57
645.697	22.51
645.887	22.82
646.076	22.92
646.266	23.13
646.456	23.3
646.645	23.25
646.835	22.99
647.024	23.18
647.214	23.22
647.403	23.32
647.593	23.71
647.782	23.72
647.972	23.77
648.161	23.84
648.351	23.61
648.54	23.45
648.73	23.32
648.919	23
649.108	23.23
649.298	23.44
649.487	23.2
649.677	23.1
649.866	23.16
650.055	23
650.244	22.82
650.434	22.71
650.623	22.64
650.812	22.63
651.002	22.68
651.191	22.78
651.38	22.99
651.569	22.93
651.758	22.91
651.947	23
652.137	22.95
652.326	22.99
652.515	23.23
652.704	23.34
652.893	23.42
653.082	23.61
653.271	23.78
653.46	23.68
653.649	23.8
653.838	23.83
654.027	23.87
654.216	23.94
654.405	23.94
654.594	24.11
654.783	23.75
654.972	23.7
655.161	23.64
655.35	23.63
655.539	23.63
655.728	23.66
655.916	23.62
656.105	23.71
656.294	23.58
656.483	23.5
656.672	23.36
656.86	23.28
657.049	23.25
657.238	23.49
657.427	23.54
657.615	23.51
657.804	23.45
657.993	23.37
658.181	23.23
658.37	23.23
658.559	23.1
658.747	23.09
658.936	22.94
659.125	22.99
659.313	23.05
659.502	23.07
659.69	23.15
659.879	23.18
660.067	23.22
660.256	23.3
660.444	23.3
660.633	23.45
660.821	23.44
661.01	23.27
661.198	23.08
661.387	23.28
661.575	23.46
661.763	23.51
661.952	23.53
662.14	23.48
662.328	23.36
662.517	23.35
662.705	23.25
662.893	23.55
663.082	23.44
663.27	23.57
663.458	23.77
663.646	24.11
663.834	24.04
664.023	23.86
664.211	23.82
664.399	23.69
664.587	23.54
664.775	23.39
664.963	23.48
665.152	23.84
665.34	23.63
665.528	23.87
665.716	24.06
665.904	24.14
666.092	24.21
666.28	24.26
666.468	24.5
666.656	24.63
666.844	24.92
667.032	24.99
667.22	25.16
667.408	25.2
667.596	24.91
667.784	25.06
667.971	24.9
668.159	24.76
668.347	24.6
668.535	24.51
668.723	24.53
668.911	24.25
669.098	24.07
669.286	23.86
669.474	23.95
669.662	23.92
669.849	23.81
670.037	24.03
670.225	23.77
670.413	23.91
670.6	23.94
670.788	24.02
670.976	24.03
671.163	23.99
671.351	24.28
671.538	24.18
671.726	24.21
671.913	24.15
672.101	23.82
672.289	23.71
672.476	23.42
672.664	23.49
672.851	23.41
673.039	23.59
673.226	23.65
673.413	23.81
673.601	23.76
673.788	23.57
673.976	23.4
674.163	23.29
674.35	23.26
674.538	23.65
674.725	23.63
674.912	23.56
675.1	23.42
675.287	23.14
675.474	22.94
675.662	22.99
675.849	23.06
676.036	23.08
676.223	22.99
676.411	23.44
676.598	23.68
676.785	23.78
676.972	23.73
677.159	23.95
677.346	24.03
677.533	24.27
677.721	24.63
677.908	24.69
678.095	24.78
678.282	24.34
678.469	24.41
678.656	24.55
678.843	24.52
679.03	24.47
679.217	24.19
679.404	24.08
679.591	24.19
679.778	24.26
679.964	24
680.151	23.67
680.338	23.66
680.525	23.56
680.712	23.88
680.899	24.08
681.086	24.02
681.272	23.94
681.459	23.99
681.646	24.37
681.833	24.45
682.02	24.26
682.206	24.31
682.393	24.4
682.58	24.7
682.766	24.63
682.953	24.55
683.14	24.97
683.326	24.97
683.513	25.17
683.7	24.99
683.886	24.7
684.073	24.75
684.259	25.02
684.446	25.23
684.632	25.33
684.819	25.55
685.005	25.44
685.192	25.7
685.378	25.86
685.565	25.47
685.751	25.26
685.938	25.15
686.124	25.28
686.31	25.5
686.497	25.47
686.683	25.1
686.87	24.89
687.056	24.68
687.242	24.59
687.429	24.64
687.615	24.68
687.801	24.54
687.987	24.38
688.174	24.52
688.36	24.44
688.546	24.73
688.732	24.71
688.918	24.6
689.105	24.94
689.291	25.22
689.477	25.52
689.663	25.72
689.849	25.9
690.035	25.79
690.221	25.89
690.407	25.95
690.593	26.06
690.779	25.94
690.965	25.89
691.151	26.17
691.337	26.25
691.523	26.45
691.709	26.45
691.895	26.31
692.081	26.09
692.267	25.99
692.453	25.84
692.639	25.76
692.825	25.86
693.011	25.94
693.196	26.06
693.382	25.82
693.568	25.34
693.754	25.08
693.94	24.78
694.125	24.46
694.311	24.37
694.497	24.48
694.682	24.65
694.868	24.82
695.054	25.03
695.239	25.02
695.425	25.04
695.611	24.95
695.796	24.92
695.982	25.11
696.168	25.27
696.353	25.38
696.539	25.39
696.724	25.38
696.91	25.31
697.095	24.94
697.281	24.88
697.466	24.78
697.652	24.8
697.837	24.57
698.023	24.77
698.208	24.85
698.393	24.83
698.579	24.67
698.764	24.51
698.949	24.56
699.135	24.7
699.32	24.85
699.505	24.92
699.691	24.88
699.876	24.81
700.061	24.72
700.246	24.83
700.432	24.51
700.617	24.48
700.802	24.54
700.987	25.43
701.172	25.51
701.358	25.69
701.543	25.59
701.728	25.42
701.913	25.65
702.098	25.71
702.283	25.84
702.468	26.14
702.653	26.43
702.838	26.87
703.023	26.7
703.208	26.79
703.393	26.44
703.578	26.62
703.763	26.29
703.948	26.31
704.133	26.26
704.318	26.18
704.503	26.28
704.688	26.18
704.873	25.86
705.057	25.5
705.242	25.22
705.427	25.51
705.612	25.6
705.797	25.4
705.981	25.44
706.166	25.53
706.351	25.25
706.536	25.22
706.72	25.39
706.905	25.08
707.09	25.13
707.274	25.25
707.459	25.31
707.644	25.39
707.828	25.23
708.013	25.02
708.197	25.08
708.382	24.53
708.567	24.6
708.751	24.88
708.936	24.97
709.12	24.77
709.305	24.76
709.489	24.85
709.673	24.97
709.858	24.96
710.042	25.12
710.227	25.37
710.411	25.43
710.596	25.18
710.78	25.67
710.964	25.84
711.149	25.85
711.333	25.84
711.517	26.2
711.702	26.46
711.886	26.49
712.07	26.34
712.254	26.34
712.438	26.24
712.623	26.05
712.807	26.25
712.991	26.37
713.175	26.26
713.359	26.03
713.544	26.02
713.728	25.89
713.912	25.72
714.096	25.59
714.28	25.52
714.464	25.44
714.648	25.61
714.832	25.52
715.016	25.7
715.2	25.63
715.384	25.72
715.568	25.56
715.752	25.79
715.936	25.61
716.12	26.05
716.304	26.08
716.488	25.81
716.671	25.94
716.855	26.31
717.039	26.2
717.223	26.04
717.407	25.67
717.59	25.96
717.774	25.88
717.958	25.94
718.142	25.73
718.325	25.91
718.509	25.42
718.693	25.28
718.877	25.66
719.06	25.28
719.244	24.71
719.428	24.4
719.611	24.99
719.795	25.33
719.978	25.04
720.162	24.88
720.345	25.19
720.529	25.23
720.713	24.93
720.896	25.5
721.08	25.87
721.263	25.94
721.446	25.97
721.63	26.21
721.813	26.3
721.997	25.69
722.18	25.56
722.364	25.57
722.547	25.63
722.73	25.39
722.914	25.56
723.097	26.18
723.28	25.88
723.464	25.43
723.647	25.34
723.83	25.46
724.013	25.66
724.197	25.89
724.38	26.29
724.563	26.53
724.746	26.52
724.929	26.5
725.112	26.61
725.296	26.56
725.479	26.05
725.662	25.68
725.845	25.76
726.028	25.79
726.211	25.93
726.394	25.99
726.577	25.87
726.76	25.93
726.943	25.87
727.126	26.03
727.309	26.04
727.492	26.09
727.675	26.01
727.858	26.62
728.041	27.2
728.224	27.03
728.407	27.38
728.589	27.14
728.772	27.04
728.955	27.01
729.138	27.05
729.321	27.26
729.503	26.94
729.686	26.93
729.869	27.08
730.052	27.16
730.234	26.8
730.417	26.66
730.6	26.68
730.782	26.66
730.965	27.14
731.148	27.03
731.33	27.26
731.513	27.17
731.695	27.01
731.878	26.96
732.061	27.19
732.243	27.05
732.426	27.01
732.608	27.15
732.791	26.94
732.973	27.04
733.156	26.87
733.338	26.56
733.52	26.64
733.703	26.84
733.885	27.21
734.068	26.86
734.25	27.08
734.432	26.88
734.615	26.69
734.797	26.62
734.979	26.53
735.162	26.59
735.344	26.99
735.526	27.29
735.708	27.33
735.891	27.02
736.073	26.55
736.255	25.82
736.437	26.2
736.619	26.2
736.802	26.06
736.984	26.54
737.166	26.65
737.348	26.5
737.53	26.58
737.712	26.08
737.894	25.82
738.076	25.49
738.258	25.92
738.44	26.03
738.622	26.1
738.804	25.87
738.986	25.29
739.168	25.33
739.35	25.15
739.532	25.36
739.714	25.53
739.896	25.71
740.078	25.99
740.259	26.31
740.441	26.69
740.623	26.54
740.805	26.92
740.987	26.63
741.168	27.04
741.35	27.53
741.532	27.31
741.714	27.1
741.895	27.24
742.077	27.45
742.259	27.2
742.44	27.16
742.622	26.87
742.804	26.7
742.985	27.14
743.167	27.1
743.348	27.84
743.53	27.64
743.711	28.13
743.893	28.28
744.075	28.38
744.256	28.21
744.438	28.26
744.619	28.24
744.8	27.92
744.982	27.8
745.163	27.64
745.345	27.46
745.526	27.03
745.707	27.02
745.889	27.17
746.07	26.47
746.252	27
746.433	26.18
746.614	25.76
746.795	25.68
746.977	26.26
747.158	26.84
747.339	26.63
747.52	26.86
747.702	26.94
747.883	27.27
748.064	26.9
748.245	26.19
748.426	26.32
748.607	26.38
748.788	27.03
748.97	26.91
749.151	26.77
749.332	26.2
749.513	26.12
749.694	26.42
749.875	26.68
750.056	26.18
750.237	25.88
750.418	25.43
750.599	25.71
750.78	25.14
750.96	24.47
751.141	24.62
751.322	26.07
751.503	25.75
751.684	25.61
751.865	25.66
752.046	25.34
752.226	25.62
752.407	25.68
752.588	25.77
752.769	26.33
752.949	27.48
753.13	27.6
753.311	27.39
753.492	27.63
753.672	26.84
753.853	27.19
754.034	27.86
754.214	27.27
754.395	27.62
754.575	27.07
754.756	27.41
754.937	27.14
755.117	27.91
755.298	27.02
755.478	27.17
755.659	27.3
755.839	26.79
756.02	26.69
756.2	26.35
756.381	26.32
756.561	27.37
756.741	27.84
756.922	28.38
757.102	28.5
757.283	29.18
757.463	28.56
757.643	28.87
757.823	28.7
758.004	29.21
758.184	29.64
758.364	29.23
758.545	28.98
758.725	28.81
758.905	28.04
759.085	27.46
759.265	26.91
759.446	26.84
759.626	26.44
759.806	26.55
759.986	25.93
760.166	26.21
760.346	26.26
760.526	26.08
760.706	26.02
760.886	26.91
761.066	26.75
761.246	26.79
761.426	26.71
761.606	26.4
761.786	26.07
761.966	26.01
762.146	25.97
762.326	26.39
762.506	26.26
762.686	26.16
762.866	26.06
763.046	26.3
763.225	25.95
763.405	25.99
763.585	25.73
763.765	25.88
763.945	26.24
764.124	26.71
764.304	26.79
764.484	26.88
764.664	26.65
764.843	26.95
765.023	26.51
765.203	26.25
765.382	26.26
765.562	26.28
765.741	26.77
765.921	27.26
766.101	27.09
766.28	27.23
766.46	27.14
766.639	27.02
766.819	27.57
766.998	27.25
767.178	27.45
767.357	27.69
767.537	28.34
767.716	28.21
767.896	28.35
768.075	27.13
768.254	27.33
768.434	27.81
768.613	27.42
768.792	27.24
768.972	27.84
769.151	27.01
769.33	28.2
769.51	28.06
769.689	28.26
769.868	29.04
770.047	28.71
770.226	28.96
770.406	30.09
770.585	30.35
770.764	29.99
770.943	30.12
771.122	30.5
771.301	30.71
771.48	31.31
771.66	30.31
771.839	30.2
772.018	30.78
772.197	29.45
772.376	29.7
772.555	29.35
772.734	28.52
772.913	27.75
773.092	27.52
773.271	28.33
773.449	27.91
773.628	26.98
773.807	26.3
773.986	26.75
774.165	27.33
774.344	27.08
774.523	27.22
774.701	27.55
774.88	27.49
775.059	27.96
775.238	28.68
775.417	29.93
775.595	29.42
775.774	29.87
775.953	30.4
776.131	30.31
776.31	29.8
776.489	29.89
776.667	29.48
776.846	29.28
777.025	28.14
777.203	28.36
777.382	28.28
777.56	27.31
777.739	26.42
777.917	26.62
778.096	26.43
778.274	26.71
778.453	28.01
778.631	27.62
778.81	27.57
778.988	27.89
779.166	28.59
779.345	29.39
779.523	28.73
779.702	28.75
779.88	29.02
780.058	29.09
780.237	29.62
780.415	29.39
780.593	29.23
780.771	29.81
780.95	30.94
781.128	30.28
781.306	31.7
781.484	31.17
781.662	31.64
781.841	32.06
782.019	31.97
782.197	31.56
782.375	31.66
782.553	30.91
782.731	30.99
782.909	31.56
783.087	30.2
783.265	30.53
783.443	31.09
783.621	30.54
783.799	30.54
783.977	30.5
784.155	31.07
784.333	31.13
784.511	31.54
784.689	32.19
784.867	31.86
785.045	31.82
785.223	30.95
785.4	30.24
785.578	29.39
785.756	28.61
785.934	27.67
786.112	27.46
786.289	26.97
786.467	26.89
786.645	26.94
786.823	26.77
787	25.86
787.178	25.4
787.356	25.34
787.533	24.78
787.711	25.25
787.889	25.07
788.066	24.76
788.244	24.42
788.421	24.79
788.599	24.9
788.776	24.59
788.954	24.15
789.131	24.34
789.309	25.27
789.486	26.02
789.664	26.44
789.841	26.68
790.019	27.28
790.196	27.1
790.373	28.55
790.551	29.02
790.728	29.74
790.906	30.3
791.083	31.14
791.26	31.65
791.437	31.8
791.615	30.2
791.792	30.87
791.969	30.01
792.146	31.05
792.324	31.71
792.501	33.05
792.678	32.04
792.855	32.07
793.032	31.52
793.209	31.95
793.387	30.62
793.564	31.32
793.741	31.43
793.918	32.06
794.095	31.17
794.272	32.47
794.449	33.3
794.626	32.59
794.803	33.18
794.98	32.98
795.157	33.57
795.334	33.65
795.511	33.47
795.688	33.37
795.864	33.69
796.041	34.11
796.218	34.46
796.395	35.47
796.572	34.38
796.749	32.16
796.925	32.37
797.102	31.09
797.279	31.5
797.456	31.23
797.632	30.87
797.809	30.92
797.986	31.12
798.162	29.98
798.339	29.25
798.516	28.69
798.692	28.55
798.869	29.03
799.046	30.11
799.222	29.42
799.399	29.86
799.575	30.56
799.752	30.97
799.928	31.77
800.105	31.73
800.281	32.92
800.458	33.26
800.634	33.41
800.811	33.11
800.987	32.4
801.163	32.7
801.34	33.15
801.516	33.92
801.692	34.1
801.869	33.59
802.045	33.28
802.221	33.8
802.398	34.61
802.574	34.58
802.75	34.71
802.926	34.46
803.103	35.22
803.279	35.01
803.455	35.22
803.631	34.92
803.807	34.23
803.983	33.66
804.16	33.46
804.336	32.93
804.512	33.01
804.688	30.93
804.864	31.36
805.04	32.03
805.216	33.34
805.392	34.19
805.568	34.95
805.744	34.28
805.92	34.44
806.096	34.73
806.272	35.57
806.448	35.72
806.623	35.55
806.799	34.75
806.975	35.54
807.151	34.31
807.327	33.54
807.503	32.83
807.678	33
807.854	32.28
808.03	32.88
808.206	31.04
808.381	30.42
808.557	29.23
808.733	28
808.908	29.52
809.084	29.43
809.26	29.74
809.435	29.68
809.611	30.33
809.787	30.65
809.962	30.18
810.138	30.85
810.313	30.66
810.489	32.52
810.664	31.68
810.84	32.72
811.015	34.85
811.191	35.46
811.366	36
811.542	35.19
811.717	37.52
811.892	37.63
812.068	36.68
812.243	37.71
812.419	37.49
812.594	36.5
812.769	36.71
812.944	36.72
813.12	36.53
813.295	36.16
813.47	35.35
813.645	34.64
813.821	36.42
813.996	34.64
814.171	35.27
814.346	36.89
814.521	37.04
814.697	35.73
814.872	37.25
815.047	37.42
815.222	37.05
815.397	36.47
815.572	35.81
815.747	35.77
815.922	35.27
816.097	34.5
816.272	33.7
816.447	33.78
816.622	33.22
816.797	31.28
816.972	32.14
817.147	31.6
817.322	30.04
817.496	32
817.671	32.55
817.846	31.86
818.021	30.95
818.196	30.96
818.371	31.73
818.545	31.85
818.72	30.24
818.895	29.19
819.069	29.02
819.244	28.64
819.419	28.04
819.594	28.58
819.768	27.75
819.943	27.25
820.117	27.61
820.292	27.43
820.467	27.65
820.641	27.05
820.816	26.86
820.99	27.1
821.165	26.97
821.339	27.02
821.514	27.25
821.688	27.18
821.863	27.16
822.037	27.24
822.212	27.3
822.386	27.09
822.56	27.32
822.735	27.23
822.909	27.07
823.084	27.07
823.258	26.97
823.432	27.03
823.606	27.04
823.781	27.03
823.955	27.22
824.129	27.33
824.303	27.64
824.478	27.51
824.652	27.68
824.826	27.45
825	27.48
825.174	27.71
825.348	28.02
825.523	28.21
825.697	28.84
825.871	28.53
826.045	28.45
826.219	28.52
826.393	28.2
826.567	28.03
826.741	27.83
826.915	28.32
827.089	27.94
827.263	28.04
827.437	28.28
827.611	28.61
827.784	28.47
827.958	27.6
828.132	28.01
828.306	27.83
828.48	27.49
828.654	27.71
828.827	27.27
829.001	27.31
829.175	26.94
829.349	27.19
829.522	26.92
829.696	27.15
829.87	26.79
830.044	27.07
830.217	28.14
830.391	27.79
830.565	27.64
830.738	28.74
830.912	28.72
831.085	29.8
831.259	29.86
831.432	30.05
831.606	30.79
831.779	31.27
831.953	30.33
832.126	30.24
832.3	30.52
832.473	29.89
832.647	30
832.82	30.28
832.994	29.99
833.167	29.66
833.34	29.74
833.514	29.62
833.687	29.55
833.86	29.56
834.034	29.4
834.207	29.91
834.38	29.42
834.553	29.43
834.727	29.57
834.9	30.05
835.073	30.06
835.246	29.79
835.419	31.07
835.593	30.87
835.766	32.16
835.939	31.3
836.112	31.4
836.285	31.78
836.458	31.37
836.631	32.48
836.804	32.62
836.977	33.39
837.15	32.87
837.323	33.88
837.496	34
837.669	32.72
837.842	32.69
838.015	32.42
838.188	33.66
838.361	33.5
838.533	33.26
838.706	34.7
838.879	34.36
839.052	34.57
839.225	34.28
839.398	34.48
839.57	35.14
839.743	34.56
839.916	34.49
840.088	33.7
840.261	33.75
840.434	34.16
840.607	35.72
840.779	35.84
840.952	34.54
841.124	35.34
841.297	34.42
841.47	35.53
841.642	37.33
841.815	36.51
841.987	38.52
842.16	40.64
842.332	41.91
842.505	41.11
842.677	41.08
842.85	40.51
843.022	41.36
843.194	44.99
843.367	45.76
843.539	45.87
843.712	43.74
843.884	42.59
844.056	42.57
844.229	43.86
844.401	41.45
844.573	40.89
844.745	42.04
844.918	40.72
845.09	41.71
845.262	42.51
845.434	37.6
845.606	39.11
845.779	40.88
845.951	45.61
846.123	44.35
846.295	44.43
846.467	42.84
846.639	46.01
846.811	44.29
846.983	42.79
847.155	44.82
847.327	43.68
847.499	41.36
847.671	44.95
847.843	40.5
848.015	40.96
848.187	39.04
848.359	39.36
848.531	39.03
848.703	36.33
848.875	34.06
849.047	35.66
849.218	39.7
849.39	40
849.562	41.19
849.734	47.3
849.905	45.9
850.077	48.33
850.249	49.16
850.421	47.22
850.592	50.74
850.764	50.66
850.936	52.39
851.107	51.33
851.279	55.27
851.451	52.03
851.622	51.72
851.794	51.43
851.965	48.74
852.137	48.7
852.308	50.33
852.48	47.56
852.651	50.54
852.823	46.47
852.994	46.48
853.166	48.73
853.337	52.2
853.509	49.27
853.68	52.89
853.851	54.15
854.023	55.84
854.194	55
854.365	54.87
854.537	54.18
854.708	58.41
854.879	54.47
855.05	57.72
855.222	57.4
855.393	56.52
855.564	54.27
855.735	52.99
855.906	50.99
856.078	49.28
856.249	45.01
856.42	49.29
856.591	51.48
856.762	46.55
856.933	45.76
857.104	51.04
857.275	51.87
857.446	51.4
857.617	52.27
857.788	49.62
857.959	50.42
858.13	55.97
858.301	57.19
858.472	58.18
858.643	53.2
858.814	51.49
858.985	55.68
859.155	59.07
859.326	55
859.497	54.42
859.668	56.78
859.839	52.58
860.009	57.44
860.18	57.89
860.351	49.95
860.522	47.93
860.692	47.49
860.863	51.16
861.034	52.39
861.204	54.13
861.375	51.99
861.546	52.33
861.716	56.66
861.887	57.39
862.057	57
862.228	54.69
862.398	52.41
862.569	58.35
862.739	58.45
862.91	58.65
863.08	54.67
863.251	52.24
863.421	51.13
863.592	51.22
863.762	53.23
863.932	47.79
864.103	50.77
864.273	53.13
864.443	54.14
864.614	53.68
864.784	48.8
864.954	54.09
865.125	52.72
865.295	53.47
865.465	53.85
865.635	55.03
865.805	53.4
865.976	53.22
866.146	50.72
866.316	49.4
866.486	48.45
866.656	49.24
866.826	54.49
866.996	59.52
867.166	51.52
867.336	53.19
867.506	53.03
867.676	56.55
867.846	54.49
868.016	55.87
868.186	53.02
868.356	52.73
868.526	47.85
868.696	48.07
868.866	48.23
869.036	46.13
869.206	44.21
869.376	46.43
869.545	49.37
869.715	49.53
869.885	47.2
870.055	46.14
870.224	48.26
870.394	55.8
870.564	58.9
870.734	61.86
870.903	62.27
871.073	65.01
871.243	66.46
871.412	65.23
871.582	70.2
871.751	69.16
871.921	68.87
872.091	65.61
872.26	64.8
872.43	59.79
872.599	57.57
872.769	59.15
872.938	61.78
873.108	61.18
873.277	57.7
873.446	59.3
873.616	59.45
873.785	57.01
873.955	53.41
874.124	57.32
874.293	61.53
874.463	58.75
874.632	60.81
874.801	60.79
874.971	57.2
875.14	49.45
875.309	50.93
875.478	53.42
875.647	49.52
875.817	45.85
875.986	50.8
876.155	48.57
876.324	43.71
876.493	42.54
876.662	46.6
876.831	45.41
877	39.9
877.17	36.73
877.339	42.19
877.508	44.39
877.677	42.64
877.846	49.75
878.015	51.82
878.184	47.72
878.352	48.25
878.521	50.31
878.69	53.9
878.859	52.67
879.028	50.84
879.197	51.06
879.366	52.33
879.534	49.6
879.703	47.16
879.872	44.81
880.041	40.67
880.21	39.31
880.378	36.87
880.547	37.22
880.716	36.18
880.884	34.59
881.053	34.12
881.222	33.56
881.39	32.77
881.559	32.02
881.727	30.85
881.896	30.86
882.065	30.86
882.233	30.64
882.402	30.75
882.57	30.57
882.739	30.59
882.907	30.49
883.076	29.62
883.244	30.28
883.412	30.89
883.581	31.3
883.749	31.35
883.918	32.14
884.086	32.14
884.254	32.32
884.423	32.47
884.591	32.41
884.759	32.94
884.927	32.32
885.096	33.36
885.264	35.51
885.432	35.47
885.6	35.18
885.769	36.2
885.937	36.15
886.105	39.32
886.273	39.86
886.441	42.39
886.609	42.99
886.777	43.96
886.945	44.91
887.113	46.83
887.281	45.34
887.449	42.17
887.617	40.36
887.785	43.57
887.953	42.62
888.121	44.06
888.289	42.49
888.457	42.26
888.625	41.13
888.793	44.2
888.961	44.9
889.129	49.71
889.296	50.77
889.464	52.97
889.632	56.18
889.8	59.87
889.967	55.71
890.135	60.32
