Data from 2938545_Reflection_3.txt Node
Date: Mon Jun 15 00:25:22 EDT 2015
User: robert
Spectrometer: USB4E03002
Autoset integration time: false
Trigger mode: 4
Integration Time (sec): 1.000000E-1
Scans to average: 10
Electric dark correction enabled: true
Nonlinearity correction enabled: false
Boxcar width: 5
Stray light correction enabled: false
XAxis mode: Wavelengths
Stop averaging: false
Number of Pixels in Spectrum: 3648
>>>>>Begin Spectral Data<<<<<
177.575	29.93
177.794	24.92
178.014	38.51
178.233	40.85
178.452	64.01
178.672	26.67
178.891	-40.61
179.11	175.23
179.33	233.17
179.549	39.66
179.768	-2.93
179.987	-38.69
180.207	-75.73
180.426	-259.91
180.645	-139.71
180.864	-243.36
181.084	-301.37
181.303	-1346.84
181.522	1221.74
181.741	-1088.72
181.96	4154.69
182.179	316.6
182.398	582.02
182.618	343.84
182.837	-4893.84
183.056	-656.91
183.275	-305.57
183.494	1393.81
183.713	-299.93
183.932	239.13
184.151	186.69
184.37	203.75
184.589	248.04
184.808	186.27
185.027	229.71
185.246	122.88
185.465	136.55
185.684	138.73
185.903	139.66
186.122	122.99
186.341	317.71
186.56	395.37
186.779	-132.56
186.998	-35.4
187.216	-30.09
187.435	37.29
187.654	23.5
187.873	29.53
188.092	23.25
188.311	35.76
188.53	41.38
188.748	47.78
188.967	49.72
189.186	80.41
189.405	44.31
189.623	29.17
189.842	10.93
190.061	2.17
190.28	7.35
190.498	13.17
190.717	-67.2
190.936	-452.99
191.154	-486.46
191.373	-5260.83
191.592	-1026.75
191.81	313.78
192.029	249.73
192.248	255.72
192.466	199.4
192.685	199.78
192.904	148.09
193.122	137.21
193.341	201.93
193.559	268.86
193.778	202.7
193.996	95.85
194.215	79.85
194.433	126.47
194.652	109.29
194.87	68.48
195.089	1.41
195.307	41.24
195.526	-42.1
195.744	-230.83
195.963	282.41
196.181	1773.17
196.399	832.96
196.618	1184.5
196.836	1246.37
197.055	122.67
197.273	577.9
197.491	185.66
197.71	125.27
197.928	123.17
198.146	177.11
198.365	252.78
198.583	417.54
198.801	-654.12
199.019	695.96
199.238	-17510.34
199.456	-196.83
199.674	-741.33
199.892	-986.52
200.111	-143.95
200.329	-98.46
200.547	-128.46
200.765	-755.49
200.983	13.09
201.202	-203.95
201.42	-39.84
201.638	-11.25
201.856	132.95
202.074	134.62
202.292	36.06
202.51	64.88
202.728	-1.54
202.946	339.41
203.165	165.75
203.383	318.43
203.601	278.66
203.819	297.2
204.037	93.09
204.255	48.37
204.473	53.73
204.691	56.61
204.909	51.52
205.127	43.83
205.345	-36.33
205.562	-44.3
205.78	-81.55
205.998	-262.2
206.216	-279.57
206.434	-3719.69
206.652	329.21
206.87	211.38
207.088	343.11
207.306	80.43
207.523	40.87
207.741	26.34
207.959	-9.57
208.177	-190.87
208.395	-120.12
208.612	-162.49
208.83	636.99
209.048	234.89
209.266	179.41
209.483	130.07
209.701	118.59
209.919	112.37
210.136	136.79
210.354	121.6
210.572	130.27
210.79	108.21
211.007	101.45
211.225	111.22
211.442	107.17
211.66	125.59
211.878	143.79
212.095	85.93
212.313	34
212.53	10.11
212.748	55.03
212.966	52.83
213.183	73.15
213.401	79.16
213.618	72.24
213.836	53.01
214.053	44.19
214.271	75.05
214.488	59.51
214.705	79.41
214.923	106.1
215.14	97.32
215.358	86.61
215.575	61.28
215.793	45.88
216.01	50.7
216.227	64.59
216.445	59.79
216.662	48.85
216.879	42.81
217.097	25.5
217.314	29.87
217.531	35.05
217.749	42.86
217.966	41.28
218.183	32.02
218.4	23.36
218.618	28
218.835	34.25
219.052	27
219.269	20.55
219.487	20.11
219.704	6.14
219.921	-4.83
220.138	-23.94
220.355	-32.55
220.572	-24.85
220.79	-15.4
221.007	-19.07
221.224	-31.15
221.441	-8.4
221.658	4.46
221.875	-0.03
222.092	18.41
222.309	16.49
222.526	21.91
222.743	19.33
222.96	14.96
223.177	16.27
223.394	18.29
223.611	19.72
223.828	16.44
224.045	14.07
224.262	15.62
224.479	9.22
224.696	15.4
224.913	14.1
225.13	14.7
225.347	16.4
225.564	15.25
225.781	13.55
225.997	11.97
226.214	10.25
226.431	10.71
226.648	10.68
226.865	12.87
227.082	11.87
227.298	12.19
227.515	12.32
227.732	11.51
227.949	11.92
228.165	12.16
228.382	13.07
228.599	12.48
228.816	12.78
229.032	11.98
229.249	10.44
229.466	9.27
229.682	10.23
229.899	10.11
230.116	10.87
230.332	10.38
230.549	7.8
230.765	5.67
230.982	7.56
231.199	6.63
231.415	6.71
231.632	7.13
231.848	9.5
232.065	8.81
232.281	8.42
232.498	6.9
232.714	5.5
232.931	8.56
233.147	10.31
233.364	10.83
233.58	9.41
233.797	12.61
234.013	13.34
234.23	12.89
234.446	11.3
234.662	12.25
234.879	13.72
235.095	14.28
235.312	12.94
235.528	15.98
235.744	15.42
235.961	16.57
236.177	14.3
236.393	12.92
236.61	14.33
236.826	14.26
237.042	11.92
237.258	11.19
237.475	10.98
237.691	11.79
237.907	8.29
238.123	9.13
238.339	9.41
238.556	9.9
238.772	10.28
238.988	9.69
239.204	9.15
239.42	9.87
239.636	9.59
239.853	10.61
240.069	10.53
240.285	9.87
240.501	9.91
240.717	9.76
240.933	10.32
241.149	10.33
241.365	10.12
241.581	11.18
241.797	11.39
242.013	11.35
242.229	11.08
242.445	11.22
242.661	12.12
242.877	11.25
243.093	10.97
243.309	10.95
243.525	10.76
243.741	10.76
243.957	10.24
244.173	10.14
244.388	10.76
244.604	10.64
244.82	10.92
245.036	10.33
245.252	10.41
245.468	10.61
245.683	10.5
245.899	10.18
246.115	10.11
246.331	9.77
246.547	9.52
246.762	8.9
246.978	8.49
247.194	8.17
247.409	8.25
247.625	8.33
247.841	7.54
248.057	7.11
248.272	7
248.488	6.14
248.703	5.63
248.919	6.84
249.135	6.98
249.35	7.2
249.566	7.52
249.782	8
249.997	7.23
250.213	7.23
250.428	6.75
250.644	7.41
250.859	7.37
251.075	8.24
251.29	7.34
251.506	7.18
251.721	7.38
251.937	6.76
252.152	6.77
252.368	7.63
252.583	8.64
252.798	8.46
253.014	8.09
253.229	8.53
253.445	7.09
253.66	7.76
253.875	9.12
254.091	8.9
254.306	8.05
254.521	6
254.737	6
254.952	5.56
255.167	6.89
255.383	7.41
255.598	8.32
255.813	9.35
256.028	8.89
256.244	7.98
256.459	7.32
256.674	7.28
256.889	7.98
257.104	7.86
257.32	8.01
257.535	7.4
257.75	6.84
257.965	6.54
258.18	6.49
258.395	6.3
258.61	6.45
258.826	6.65
259.041	6.85
259.256	6.94
259.471	6.72
259.686	6.41
259.901	6.53
260.116	6.74
260.331	6.88
260.546	6.71
260.761	7.04
260.976	6.78
261.191	6.79
261.406	6.81
261.621	6.59
261.836	6.68
262.05	7.57
262.265	7.51
262.48	7.93
262.695	7.63
262.91	7.35
263.125	7.07
263.34	7.43
263.555	7.91
263.769	8.09
263.984	8.04
264.199	8.21
264.414	7.86
264.629	8.27
264.843	7.71
265.058	8.18
265.273	7.93
265.488	7.73
265.702	7.42
265.917	7.67
266.132	7.4
266.346	7.22
266.561	6.8
266.776	6.98
266.99	6.48
267.205	6.48
267.42	5.99
267.634	6.52
267.849	6.88
268.063	7.05
268.278	6.46
268.492	6.66
268.707	6.86
268.922	7.45
269.136	7.19
269.351	7.63
269.565	7.84
269.78	8.02
269.994	7.73
270.209	7.28
270.423	7.53
270.637	7.32
270.852	7.1
271.066	6.81
271.281	6.4
271.495	6.25
271.709	5.77
271.924	5.49
272.138	4.88
272.353	5.01
272.567	5.38
272.781	5.09
272.996	5.26
273.21	5.42
273.424	5.82
273.638	6.1
273.853	6.26
274.067	6.29
274.281	6.35
274.495	6.45
274.71	6.71
274.924	6.25
275.138	6.39
275.352	6.13
275.566	5.75
275.781	5.45
275.995	5.51
276.209	5.22
276.423	6.02
276.637	6.28
276.851	6.83
277.065	6.97
277.279	7.09
277.493	7.03
277.707	7.31
277.921	7.71
278.135	8.21
278.349	7.51
278.563	7.11
278.777	6.79
278.991	6.88
279.205	6.44
279.419	5.64
279.633	6.14
279.847	6.13
280.061	6
280.275	5.95
280.489	5.76
280.703	6.38
280.917	7.21
281.131	6.95
281.344	6.83
281.558	7.12
281.772	7.14
281.986	6.96
282.2	7
282.414	7.32
282.627	7.16
282.841	7.13
283.055	7.18
283.269	6.58
283.482	6.62
283.696	6.4
283.91	6.44
284.123	6.69
284.337	6.6
284.551	6.56
284.764	6.58
284.978	6.18
285.192	5.7
285.405	5.36
285.619	5.21
285.833	4.85
286.046	4.78
286.26	4.61
286.473	4.37
286.687	4.43
286.9	3.96
287.114	3.91
287.327	4.41
287.541	4.86
287.754	4.71
287.968	4.95
288.181	5.49
288.395	5.38
288.608	5.23
288.822	5.12
289.035	4.66
289.248	4.76
289.462	4.38
289.675	4.56
289.889	4.79
290.102	4.97
290.315	5.04
290.529	4.81
290.742	5.19
290.955	5.33
291.169	5.3
291.382	5.79
291.595	5.92
291.808	6.14
292.022	6.2
292.235	5.62
292.448	5.57
292.661	5.52
292.875	5.68
293.088	5.57
293.301	5.59
293.514	5.87
293.727	5.88
293.94	6.04
294.153	5.93
294.367	5.3
294.58	5.57
294.793	5.38
295.006	5.77
295.219	5.68
295.432	5.52
295.645	5.87
295.858	6
296.071	5.86
296.284	5.82
296.497	5.69
296.71	6.09
296.923	6.21
297.136	6.21
297.349	5.97
297.562	5.84
297.775	5.94
297.988	5.85
298.201	5.55
298.414	5.45
298.626	5.55
298.839	5.87
299.052	5.9
299.265	5.9
299.478	6.31
299.691	6
299.903	6.23
300.116	6.29
300.329	5.99
300.542	6.17
300.755	6.42
300.967	6.8
301.18	6.53
301.393	6.17
301.605	5.98
301.818	5.96
302.031	6.4
302.243	6.37
302.456	6.37
302.669	6.25
302.881	6.43
303.094	6.24
303.307	5.48
303.519	6.05
303.732	6.52
303.944	6.72
304.157	6.68
304.37	6.79
304.582	6.69
304.795	6.62
305.007	7.04
305.22	6.7
305.432	6.89
305.645	6.98
305.857	6.46
306.069	6.19
306.282	5.99
306.494	6.08
306.707	5.84
306.919	6.02
307.132	5.84
307.344	5.56
307.556	5.84
307.769	5.76
307.981	5.75
308.193	5.94
308.406	5.94
308.618	6.18
308.83	6.06
309.043	5.96
309.255	5.93
309.467	6.11
309.679	6.42
309.892	5.97
310.104	5.59
310.316	5.81
310.528	5.73
310.74	6.04
310.953	5.88
311.165	5.7
311.377	5.95
311.589	5.92
311.801	5.87
312.013	5.6
312.225	5.58
312.437	5.75
312.649	5.57
312.862	5.5
313.074	5.42
313.286	5.4
313.498	5.76
313.71	5.59
313.922	5.57
314.134	5.9
314.346	5.71
314.558	6.41
314.77	7.14
314.982	7.51
315.193	7.38
315.405	7.28
315.617	7.31
315.829	7.22
316.041	7.23
316.253	7.27
316.465	6.86
316.677	7.05
316.888	6.69
317.1	6.28
317.312	5.98
317.524	6.04
317.736	5.94
317.947	5.63
318.159	5.58
318.371	5.88
318.583	5.98
318.794	6.11
319.006	6.34
319.218	6.78
319.43	7.02
319.641	7.18
319.853	7.32
320.064	7.83
320.276	7.88
320.488	8.17
320.699	7.92
320.911	7.56
321.123	8.12
321.334	7.3
321.546	6.98
321.757	6.8
321.969	6.74
322.18	6.67
322.392	6.21
322.603	6.31
322.815	5.93
323.026	6.1
323.238	6.17
323.449	5.96
323.661	6.53
323.872	6.8
324.083	7.02
324.295	6.93
324.506	7.26
324.718	7.43
324.929	7.43
325.14	7.71
325.352	7.77
325.563	8.03
325.774	7.76
325.986	7.44
326.197	7.39
326.408	7.21
326.62	7.2
326.831	7.1
327.042	6.93
327.253	6.54
327.464	6.67
327.676	6.48
327.887	6.19
328.098	6.66
328.309	6.73
328.52	6.39
328.732	6.38
328.943	6.63
329.154	6.79
329.365	7.2
329.576	7.4
329.787	7.29
329.998	7.15
330.209	7.44
330.42	7.28
330.631	7.48
330.842	7.97
331.053	7.93
331.264	7.7
331.475	7.44
331.686	7.38
331.897	7.43
332.108	6.95
332.319	6.86
332.53	7.07
332.741	7.08
332.952	7.11
333.163	6.88
333.374	6.67
333.585	6.82
333.795	6.51
334.006	6.28
334.217	6.62
334.428	7.23
334.639	7.33
334.849	7.14
335.06	6.75
335.271	6.71
335.482	6.7
335.692	6.62
335.903	6.36
336.114	6.81
336.325	7
336.535	6.93
336.746	6.85
336.957	6.9
337.167	7.04
337.378	6.98
337.589	7.13
337.799	6.83
338.01	7.33
338.22	7.85
338.431	7.36
338.642	7.13
338.852	7.07
339.063	6.86
339.273	6.82
339.484	6.56
339.694	6.89
339.905	6.83
340.115	7.43
340.326	7.17
340.536	6.76
340.746	7.02
340.957	6.99
341.167	7.11
341.378	7.25
341.588	7.21
341.799	7.32
342.009	7.24
342.219	7.09
342.43	6.85
342.64	6.84
342.85	6.75
343.061	6.93
343.271	6.83
343.481	6.79
343.691	6.76
343.902	7.02
344.112	6.86
344.322	6.73
344.532	6.59
344.743	6.64
344.953	6.81
345.163	6.72
345.373	6.53
345.583	6.67
345.793	6.4
346.004	6.27
346.214	6.37
346.424	6.73
346.634	6.96
346.844	7.36
347.054	7.16
347.264	6.96
347.474	7.09
347.684	7.17
347.894	7.34
348.104	7.25
348.314	7.09
348.524	7.04
348.734	6.55
348.944	6.05
349.154	6.18
349.364	6.15
349.574	6.24
349.784	6.41
349.994	6.25
350.204	5.99
350.413	6.22
350.623	6.37
350.833	6.14
351.043	6.2
351.253	6.51
351.463	6.18
351.672	6.18
351.882	6.26
352.092	6.23
352.302	6.2
352.511	6.06
352.721	6.07
352.931	6.34
353.141	6.16
353.35	6.17
353.56	6.18
353.77	6.34
353.979	6.09
354.189	6.07
354.399	6.3
354.608	6.3
354.818	6.6
355.027	6.7
355.237	6.35
355.447	6.33
355.656	6.35
355.866	6.32
356.075	6.17
356.285	6.57
356.494	6.41
356.704	6.27
356.913	6.46
357.123	6.59
357.332	6.31
357.542	6.32
357.751	6.35
357.96	6.44
358.17	6.63
358.379	6.43
358.589	6.39
358.798	6.37
359.007	6.09
359.217	5.98
359.426	5.74
359.635	6.06
359.845	6.12
360.054	6.13
360.263	6.19
360.472	5.94
360.682	5.85
360.891	5.81
361.1	5.77
361.309	5.94
361.519	5.9
361.728	5.89
361.937	5.78
362.146	5.85
362.355	5.77
362.564	5.56
362.774	5.62
362.983	5.91
363.192	6.01
363.401	6.24
363.61	6.06
363.819	6
364.028	6.15
364.237	5.94
364.446	5.7
364.655	5.68
364.864	5.72
365.073	5.79
365.282	5.77
365.491	5.53
365.7	5.42
365.909	5.54
366.118	5.64
366.327	5.53
366.536	5.57
366.745	5.54
366.954	5.49
367.162	5.51
367.371	5.73
367.58	5.64
367.789	5.65
367.998	5.57
368.207	5.63
368.415	5.41
368.624	5.51
368.833	5.39
369.042	5.5
369.25	5.83
369.459	5.84
369.668	5.67
369.877	5.81
370.085	5.7
370.294	5.65
370.503	5.62
370.711	5.85
370.92	5.66
371.129	5.77
371.337	5.98
371.546	5.74
371.754	5.94
371.963	5.83
372.171	5.52
372.38	5.7
372.589	5.77
372.797	5.84
373.006	6.05
373.214	6.17
373.423	6.46
373.631	6.24
373.84	6.14
374.048	6
374.256	5.83
374.465	5.95
374.673	5.63
374.882	5.7
375.09	5.7
375.298	5.32
375.507	5.2
375.715	4.93
375.923	4.92
376.132	5.09
376.34	5.09
376.548	5.32
376.757	5.38
376.965	5.63
377.173	5.56
377.381	5.47
377.59	5.62
377.798	5.5
378.006	5.47
378.214	5.61
378.423	5.77
378.631	5.71
378.839	5.37
379.047	5.49
379.255	5.59
379.463	5.46
379.671	5.53
379.879	5.44
380.088	5.38
380.296	5.25
380.504	5.21
380.712	5.32
380.92	5.3
381.128	5.3
381.336	5.19
381.544	5.13
381.752	5.33
381.96	5.23
382.168	5.2
382.376	5.51
382.584	5.81
382.791	5.84
382.999	5.57
383.207	5.65
383.415	5.91
383.623	5.85
383.831	5.98
384.039	5.84
384.247	5.83
384.454	5.96
384.662	5.67
384.87	5.6
385.078	5.4
385.285	5.41
385.493	5.26
385.701	5.24
385.909	5.17
386.116	4.79
386.324	4.74
386.532	4.6
386.739	4.48
386.947	4.7
387.155	4.71
387.362	4.86
387.57	4.61
387.778	4.59
387.985	4.54
388.193	4.45
388.4	4.51
388.608	4.53
388.816	4.54
389.023	4.62
389.231	4.36
389.438	4.08
389.646	4.05
389.853	4.08
390.061	4.16
390.268	4.18
390.475	4.32
390.683	4.39
390.89	4.29
391.098	4.38
391.305	4.48
391.512	4.59
391.72	4.83
391.927	4.65
392.135	4.79
392.342	4.76
392.549	4.77
392.756	4.75
392.964	4.66
393.171	4.65
393.378	4.49
393.586	4.24
393.793	4.3
394	4.33
394.207	4.42
394.414	4.33
394.622	4.22
394.829	4.03
395.036	3.93
395.243	3.94
395.45	4.06
395.657	4.15
395.864	4.02
396.072	3.94
396.279	3.86
396.486	3.89
396.693	3.98
396.9	4.04
397.107	4.15
397.314	4.08
397.521	4.17
397.728	4.17
397.935	4.29
398.142	4.66
398.349	4.79
398.556	4.77
398.763	4.75
398.97	4.83
399.177	4.72
399.383	4.7
399.59	4.85
399.797	4.79
400.004	4.8
400.211	4.69
400.418	4.5
400.625	4.34
400.831	4.23
401.038	4.1
401.245	3.79
401.452	3.87
401.658	3.76
401.865	3.73
402.072	3.68
402.279	3.61
402.485	3.59
402.692	3.43
402.899	3.28
403.105	3.26
403.312	3.19
403.519	3.45
403.725	3.39
403.932	3.6
404.138	3.33
404.345	3.3
404.552	3.21
404.758	3.28
404.965	3.31
405.171	3.44
405.378	3.34
405.584	3.6
405.791	3.4
405.997	3.43
406.204	3.24
406.41	3.51
406.617	3.61
406.823	3.66
407.029	3.56
407.236	3.57
407.442	3.74
407.649	3.86
407.855	3.9
408.061	3.89
408.268	4.02
408.474	3.99
408.68	4.07
408.887	4
409.093	3.98
409.299	3.98
409.505	4.07
409.712	4.02
409.918	4.01
410.124	3.95
410.33	3.88
410.537	3.71
410.743	3.76
410.949	3.57
411.155	3.61
411.361	3.63
411.567	3.44
411.773	3.39
411.98	3.24
412.186	3.2
412.392	3.23
412.598	3.45
412.804	3.48
413.01	3.38
413.216	3.5
413.422	3.47
413.628	3.38
413.834	3.52
414.04	3.54
414.246	3.57
414.452	3.6
414.658	3.56
414.864	3.54
415.07	3.66
415.275	3.77
415.481	3.75
415.687	3.76
415.893	3.71
416.099	3.62
416.305	3.57
416.511	3.56
416.716	3.37
416.922	3.3
417.128	3.2
417.334	3.15
417.539	3.07
417.745	3.09
417.951	3.1
418.157	3.22
418.362	3.35
418.568	3.35
418.774	3.34
418.979	3.43
419.185	3.43
419.391	3.47
419.596	3.43
419.802	3.49
420.008	3.48
420.213	3.58
420.419	3.46
420.624	3.46
420.83	3.45
421.035	3.38
421.241	3.45
421.446	3.46
421.652	3.5
421.857	3.41
422.063	3.38
422.268	3.36
422.474	3.24
422.679	3.28
422.885	3.24
423.09	3.22
423.295	3.3
423.501	3.28
423.706	3.21
423.911	3.12
424.117	3.15
424.322	3.08
424.527	3.03
424.733	2.99
424.938	3.02
425.143	3
425.349	3.03
425.554	2.94
425.759	2.95
425.964	3.05
426.169	3.21
426.375	3.19
426.58	3.24
426.785	3.27
426.99	3.16
427.195	3.23
427.4	3.2
427.605	3.13
427.811	3.19
428.016	3.1
428.221	3.06
428.426	2.87
428.631	2.94
428.836	2.86
429.041	2.85
429.246	2.98
429.451	2.89
429.656	2.81
429.861	2.89
430.066	2.95
430.271	2.96
430.476	2.78
430.681	2.85
430.886	2.81
431.09	2.95
431.295	2.92
431.5	2.97
431.705	2.91
431.91	2.97
432.115	2.84
432.32	2.8
432.524	2.76
432.729	2.82
432.934	2.72
433.139	2.72
433.343	2.65
433.548	2.78
433.753	2.7
433.958	2.74
434.162	2.67
434.367	2.72
434.572	2.76
434.776	2.71
434.981	2.83
435.186	2.79
435.39	2.89
435.595	2.84
435.799	2.74
436.004	2.81
436.209	2.88
436.413	2.88
436.618	2.97
436.822	2.87
437.027	2.87
437.231	2.79
437.436	2.83
437.64	2.72
437.845	2.71
438.049	2.75
438.253	2.67
438.458	2.63
438.662	2.69
438.867	2.7
439.071	2.8
439.275	2.92
439.48	2.93
439.684	2.94
439.888	2.95
440.093	2.99
440.297	2.94
440.501	3.02
440.706	3.02
440.91	3.05
441.114	2.94
441.318	2.91
441.523	2.86
441.727	2.94
441.931	2.97
442.135	3.07
442.339	3.14
442.543	3.11
442.748	3.04
442.952	3.01
443.156	2.93
443.36	2.88
443.564	2.87
443.768	2.82
443.972	2.74
444.176	2.73
444.38	2.65
444.584	2.59
444.788	2.62
444.992	2.63
445.196	2.65
445.4	2.73
445.604	2.84
445.808	2.77
446.012	2.74
446.216	2.74
446.42	2.74
446.624	2.78
446.828	2.78
447.032	2.82
447.235	2.87
447.439	2.78
447.643	2.69
447.847	2.71
448.051	2.73
448.254	2.87
448.458	2.88
448.662	2.9
448.866	2.88
449.069	2.96
449.273	2.93
449.477	2.79
449.681	2.88
449.884	2.85
450.088	2.83
450.292	2.78
450.495	2.7
450.699	2.71
450.902	2.66
451.106	2.65
451.31	2.74
451.513	2.75
451.717	2.72
451.92	2.74
452.124	2.78
452.327	2.79
452.531	2.83
452.734	2.83
452.938	2.95
453.141	3.04
453.345	3.12
453.548	2.97
453.752	2.92
453.955	3.03
454.158	3.05
454.362	3.13
454.565	3.09
454.769	3.15
454.972	3.23
455.175	3.18
455.379	3.01
455.582	2.86
455.785	2.86
455.988	2.91
456.192	2.91
456.395	2.88
456.598	2.79
456.801	2.81
457.005	2.76
457.208	2.76
457.411	2.74
457.614	2.81
457.817	2.94
458.021	2.85
458.224	2.92
458.427	2.88
458.63	2.89
458.833	2.86
459.036	2.85
459.239	2.92
459.442	2.85
459.645	2.8
459.848	2.83
460.051	2.75
460.254	2.84
460.457	2.72
460.66	2.74
460.863	2.64
461.066	2.65
461.269	2.58
461.472	2.48
461.675	2.55
461.878	2.54
462.081	2.48
462.284	2.39
462.486	2.35
462.689	2.31
462.892	2.37
463.095	2.48
463.298	2.47
463.5	2.46
463.703	2.43
463.906	2.5
464.109	2.49
464.311	2.43
464.514	2.56
464.717	2.53
464.92	2.57
465.122	2.58
465.325	2.56
465.528	2.62
465.73	2.64
465.933	2.67
466.135	2.57
466.338	2.58
466.541	2.6
466.743	2.57
466.946	2.62
467.148	2.57
467.351	2.56
467.553	2.56
467.756	2.56
467.958	2.51
468.161	2.41
468.363	2.46
468.566	2.44
468.768	2.57
468.971	2.57
469.173	2.52
469.375	2.42
469.578	2.31
469.78	2.38
469.983	2.35
470.185	2.49
470.387	2.61
470.59	2.69
470.792	2.72
470.994	2.67
471.196	2.65
471.399	2.63
471.601	2.74
471.803	2.76
472.005	2.64
472.208	2.65
472.41	2.53
472.612	2.53
472.814	2.47
473.016	2.45
473.218	2.54
473.421	2.65
473.623	2.7
473.825	2.7
474.027	2.73
474.229	2.81
474.431	2.83
474.633	2.96
474.835	2.92
475.037	2.91
475.239	2.93
475.441	2.82
475.643	2.71
475.845	2.74
476.047	2.78
476.249	2.82
476.451	2.84
476.653	2.89
476.855	2.77
477.057	2.72
477.258	2.71
477.46	2.74
477.662	2.84
477.864	2.87
478.066	2.92
478.268	2.86
478.469	2.81
478.671	2.8
478.873	2.76
479.075	2.83
479.276	2.83
479.478	2.82
479.68	2.73
479.882	2.66
480.083	2.67
480.285	2.63
480.487	2.66
480.688	2.68
480.89	2.69
481.091	2.71
481.293	2.71
481.495	2.74
481.696	2.71
481.898	2.72
482.099	2.72
482.301	2.71
482.502	2.72
482.704	2.74
482.905	2.74
483.107	2.73
483.308	2.73
483.51	2.71
483.711	2.7
483.913	2.75
484.114	2.76
484.315	2.78
484.517	2.8
484.718	2.78
484.92	2.79
485.121	2.76
485.322	2.73
485.524	2.73
485.725	2.74
485.926	2.73
486.127	2.72
486.329	2.73
486.53	2.73
486.731	2.71
486.932	2.73
487.134	2.73
487.335	2.71
487.536	2.76
487.737	2.77
487.938	2.75
488.139	2.76
488.341	2.74
488.542	2.69
488.743	2.67
488.944	2.66
489.145	2.63
489.346	2.6
489.547	2.63
489.748	2.59
489.949	2.59
490.15	2.61
490.351	2.62
490.552	2.61
490.753	2.68
490.954	2.69
491.155	2.69
491.356	2.75
491.557	2.75
491.758	2.74
491.959	2.76
492.159	2.7
492.36	2.73
492.561	2.71
492.762	2.7
492.963	2.63
493.164	2.66
493.364	2.69
493.565	2.6
493.766	2.6
493.967	2.67
494.167	2.7
494.368	2.77
494.569	2.78
494.769	2.83
494.97	2.84
495.171	2.82
495.371	2.78
495.572	2.78
495.773	2.87
495.973	2.89
496.174	2.84
496.375	2.79
496.575	2.78
496.776	2.76
496.976	2.76
497.177	2.79
497.377	2.86
497.578	2.87
497.778	2.92
497.979	2.91
498.179	2.84
498.38	2.91
498.58	2.86
498.78	2.84
498.981	2.84
499.181	2.85
499.382	2.9
499.582	2.85
499.782	2.91
499.983	2.81
500.183	2.78
500.383	2.9
500.584	2.82
500.784	2.91
500.984	2.97
501.184	2.93
501.385	2.89
501.585	2.86
501.785	2.86
501.985	2.83
502.185	2.82
502.386	2.86
502.586	2.75
502.786	2.87
502.986	2.91
503.186	2.8
503.386	2.88
503.586	3.03
503.786	2.95
503.987	2.92
504.187	2.9
504.387	2.97
504.587	2.96
504.787	3.16
504.987	3.08
505.187	3.05
505.387	3.08
505.587	3.08
505.786	2.98
505.986	3.01
506.186	3.06
506.386	3.07
506.586	3.16
506.786	3.1
506.986	2.98
507.186	3.02
507.386	3
507.585	3.11
507.785	3.05
507.985	3
508.185	3.05
508.384	3.04
508.584	3.06
508.784	2.98
508.984	3.01
509.183	3.02
509.383	3.04
509.583	3.09
509.782	3.03
509.982	3.16
510.182	3.2
510.381	3.23
510.581	3.24
510.781	3.24
510.98	3.33
511.18	3.36
511.379	3.38
511.579	3.32
511.778	3.32
511.978	3.38
512.177	3.26
512.377	3.26
512.576	3.16
512.776	3.13
512.975	3.21
513.175	3.17
513.374	3.2
513.573	3.24
513.773	3.28
513.972	3.22
514.172	3.21
514.371	3.28
514.57	3.2
514.77	3.23
514.969	3.33
515.168	3.21
515.367	3.29
515.567	3.32
515.766	3.25
515.965	3.24
516.164	3.33
516.364	3.32
516.563	3.34
516.762	3.43
516.961	3.5
517.16	3.47
517.359	3.51
517.559	3.45
517.758	3.42
517.957	3.45
518.156	3.49
518.355	3.51
518.554	3.49
518.753	3.48
518.952	3.48
519.151	3.54
519.35	3.55
519.549	3.59
519.748	3.6
519.947	3.62
520.146	3.65
520.345	3.68
520.544	3.73
520.743	3.78
520.942	3.75
521.141	3.73
521.339	3.78
521.538	3.78
521.737	3.73
521.936	3.76
522.135	3.76
522.333	3.81
522.532	3.79
522.731	3.8
522.93	3.88
523.129	3.95
523.327	3.96
523.526	3.84
523.725	3.89
523.923	3.9
524.122	3.93
524.321	3.99
524.519	4.01
524.718	3.99
524.917	3.98
525.115	3.92
525.314	3.91
525.512	3.96
525.711	3.98
525.909	4
526.108	4.03
526.306	4.03
526.505	4.02
526.703	4.01
526.902	4.02
527.1	4.01
527.299	4.06
527.497	4.04
527.696	4.05
527.894	4.06
528.092	4.05
528.291	4.06
528.489	4.09
528.688	4.06
528.886	4.08
529.084	4.08
529.283	4.12
529.481	4.11
529.679	4.12
529.877	4.13
530.076	4.15
530.274	4.16
530.472	4.13
530.67	4.14
530.869	4.22
531.067	4.25
531.265	4.31
531.463	4.28
531.661	4.27
531.859	4.35
532.057	4.38
532.255	4.36
532.454	4.38
532.652	4.41
532.85	4.42
533.048	4.4
533.246	4.4
533.444	4.4
533.642	4.5
533.84	4.53
534.038	4.47
534.236	4.44
534.434	4.54
534.632	4.59
534.83	4.64
535.027	4.66
535.225	4.7
535.423	4.76
535.621	4.84
535.819	4.79
536.017	4.82
536.215	4.89
536.412	4.97
536.61	4.95
536.808	4.94
537.006	4.95
537.203	4.99
537.401	5.04
537.599	5.01
537.797	5.02
537.994	5.04
538.192	5.06
538.39	5.12
538.587	5.13
538.785	5.18
538.983	5.22
539.18	5.25
539.378	5.22
539.575	5.18
539.773	5.25
539.97	5.21
540.168	5.26
540.366	5.27
540.563	5.29
540.761	5.27
540.958	5.3
541.155	5.34
541.353	5.38
541.55	5.4
541.748	5.47
541.945	5.47
542.143	5.49
542.34	5.47
542.537	5.46
542.735	5.47
542.932	5.57
543.129	5.64
543.327	5.63
543.524	5.63
543.721	5.69
543.919	5.71
544.116	5.74
544.313	5.86
544.51	5.96
544.708	6.06
544.905	6.11
545.102	6.09
545.299	6.09
545.496	6.16
545.693	6.16
545.891	6.15
546.088	6.1
546.285	6.08
546.482	6.07
546.679	6.09
546.876	6.18
547.073	6.23
547.27	6.32
547.467	6.38
547.664	6.47
547.861	6.53
548.058	6.65
548.255	6.88
548.452	6.98
548.649	7.06
548.846	7.03
549.043	6.97
549.24	7
549.437	7.02
549.633	7.04
549.83	6.99
550.027	7.09
550.224	7.1
550.421	7.14
550.618	7.17
550.814	7.17
551.011	7.25
551.208	7.35
551.405	7.47
551.601	7.49
551.798	7.59
551.995	7.61
552.191	7.63
552.388	7.67
552.585	7.7
552.781	7.82
552.978	7.93
553.175	8.01
553.371	8.01
553.568	8.11
553.764	8.18
553.961	8.13
554.157	8.2
554.354	8.29
554.55	8.43
554.747	8.4
554.943	8.28
555.14	8.39
555.336	8.41
555.533	8.57
555.729	8.46
555.926	8.43
556.122	8.48
556.318	8.71
556.515	8.82
556.711	8.87
556.907	9.01
557.104	9.12
557.3	9.02
557.496	9.1
557.693	9.11
557.889	9.1
558.085	9.16
558.281	9.21
558.478	9.2
558.674	9.22
558.87	9.25
559.066	9.31
559.262	9.45
559.459	9.59
559.655	9.65
559.851	9.66
560.047	9.9
560.243	10
560.439	10.05
560.635	10
560.831	10.02
561.027	9.98
561.223	10.02
561.419	10.01
561.615	10.04
561.811	10.05
562.007	10.07
562.203	10.08
562.399	10.05
562.595	10.1
562.791	10.28
562.987	10.45
563.183	10.57
563.379	10.66
563.575	10.8
563.771	10.89
563.966	10.94
564.162	11.07
564.358	11.15
564.554	11.26
564.75	11.35
564.945	11.31
565.141	11.27
565.337	11.32
565.533	11.35
565.728	11.26
565.924	11.35
566.12	11.51
566.315	11.64
566.511	11.67
566.707	11.72
566.902	11.74
567.098	11.79
567.293	11.82
567.489	11.89
567.684	11.94
567.88	12.07
568.076	12.12
568.271	12.12
568.467	12.12
568.662	12.16
568.858	12.33
569.053	12.39
569.248	12.44
569.444	12.56
569.639	12.54
569.835	12.58
570.03	12.69
570.225	12.63
570.421	12.7
570.616	12.68
570.812	12.82
571.007	12.82
571.202	12.87
571.397	12.92
571.593	12.94
571.788	13.05
571.983	13.12
572.178	13.14
572.374	13.17
572.569	13.22
572.764	13.2
572.959	13.09
573.154	13.16
573.35	13.18
573.545	13.19
573.74	13.22
573.935	13.28
574.13	13.31
574.325	13.3
574.52	13.46
574.715	13.51
574.91	13.7
575.105	13.78
575.3	13.81
575.495	13.93
575.69	14.06
575.885	14.16
576.08	14.08
576.275	14.13
576.47	14.22
576.665	14.14
576.86	14.19
577.055	14.19
577.25	14.14
577.444	14.18
577.639	14.16
577.834	14.18
578.029	14.19
578.224	14.34
578.418	14.63
578.613	14.72
578.808	14.72
579.003	14.68
579.197	14.76
579.392	14.94
579.587	14.92
579.781	15.03
579.976	14.99
580.171	14.99
580.365	14.86
580.56	14.73
580.755	14.66
580.949	14.75
581.144	14.88
581.338	14.81
581.533	14.66
581.727	14.66
581.922	14.65
582.116	14.69
582.311	14.78
582.505	14.9
582.7	14.82
582.894	14.85
583.089	15
583.283	14.89
583.478	14.9
583.672	15.06
583.866	15.17
584.061	15.19
584.255	15.22
584.449	15.28
584.644	15.45
584.838	15.36
585.032	15.4
585.226	15.19
585.421	15.2
585.615	15.31
585.809	15.21
586.003	15.36
586.198	15.26
586.392	15.41
586.586	15.34
586.78	15.25
586.974	15.32
587.168	15.4
587.363	15.62
587.557	15.7
587.751	15.67
587.945	15.8
588.139	15.7
588.333	15.79
588.527	15.78
588.721	15.91
588.915	16.03
589.109	16.15
589.303	16.28
589.497	16.47
589.691	16.5
589.885	16.55
590.079	16.6
590.273	16.65
590.466	16.71
590.66	16.66
590.854	16.55
591.048	16.47
591.242	16.42
591.436	16.27
591.629	15.99
591.823	16.03
592.017	16.03
592.211	16.03
592.404	15.95
592.598	16.01
592.792	16
592.986	16.1
593.179	16.17
593.373	16.24
593.567	16.22
593.76	16.42
593.954	16.44
594.147	16.44
594.341	16.56
594.535	16.74
594.728	16.69
594.922	16.81
595.115	16.89
595.309	16.84
595.502	16.85
595.696	16.89
595.889	16.76
596.083	16.82
596.276	16.84
596.47	16.76
596.663	16.68
596.856	16.65
597.05	16.56
597.243	16.55
597.437	16.73
597.63	16.9
597.823	17.03
598.017	17.03
598.21	16.93
598.403	16.95
598.596	17.1
598.79	17.04
598.983	17.27
599.176	17.25
599.369	17.08
599.563	16.94
599.756	16.77
599.949	16.87
600.142	16.97
600.335	17.05
600.528	17.09
600.722	17.01
600.915	16.93
601.108	16.84
601.301	16.97
601.494	17.03
601.687	17.13
601.88	17.23
602.073	16.94
602.266	16.93
602.459	16.89
602.652	16.88
602.845	16.83
603.038	17.01
603.231	17.08
603.424	17.02
603.617	17.02
603.809	16.87
604.002	16.75
604.195	16.88
604.388	16.89
604.581	16.93
604.774	16.98
604.966	17.06
605.159	17
605.352	16.9
605.545	16.97
605.737	17.02
605.93	17.1
606.123	17.24
606.316	17.21
606.508	17.08
606.701	17.13
606.894	17.19
607.086	17.16
607.279	17.16
607.471	17.24
607.664	17.32
607.857	17.32
608.049	17.44
608.242	17.32
608.434	17.5
608.627	17.68
608.819	17.71
609.012	17.72
609.204	17.67
609.397	17.7
609.589	17.71
609.782	17.64
609.974	17.62
610.166	17.53
610.359	17.46
610.551	17.33
610.743	17.28
610.936	17.21
611.128	17.12
611.32	17.19
611.513	17.25
611.705	17.12
611.897	17.09
612.09	17.19
612.282	17.15
612.474	17.41
612.666	17.59
612.858	17.49
613.051	17.56
613.243	17.53
613.435	17.68
613.627	17.59
613.819	17.72
614.011	17.96
614.203	17.78
614.395	17.85
614.588	17.85
614.78	17.59
614.972	17.68
615.164	17.8
615.356	17.71
615.548	17.76
615.74	17.87
615.932	17.83
616.124	17.55
616.315	17.65
616.507	17.62
616.699	17.59
616.891	17.64
617.083	17.75
617.275	17.74
617.467	17.67
617.659	17.45
617.85	17.28
618.042	17.36
618.234	17.56
618.426	17.47
618.618	17.66
618.809	17.6
619.001	17.68
619.193	17.73
619.384	17.54
619.576	17.64
619.768	17.83
619.959	17.99
620.151	18.17
620.343	17.88
620.534	17.96
620.726	17.8
620.917	17.69
621.109	17.71
621.301	17.53
621.492	17.67
621.684	17.77
621.875	17.86
622.067	17.84
622.258	17.92
622.45	18.06
622.641	17.95
622.832	17.88
623.024	17.93
623.215	17.96
623.407	17.93
623.598	17.9
623.789	17.98
623.981	17.83
624.172	17.79
624.363	17.35
624.555	17.43
624.746	17.53
624.937	17.74
625.129	17.82
625.32	17.9
625.511	18.08
625.702	17.88
625.893	17.85
626.085	17.89
626.276	17.99
626.467	18.17
626.658	18.19
626.849	18.15
627.04	18.11
627.231	18.18
627.422	18.11
627.614	18.01
627.805	18.23
627.996	18.28
628.187	18.25
628.378	18.09
628.569	18.04
628.76	18.09
628.951	18.18
629.142	18.11
629.332	18.04
629.523	18.22
629.714	18.32
629.905	18.42
630.096	18.31
630.287	18.19
630.478	18.23
630.669	18.31
630.859	18.09
631.05	18.06
631.241	18.03
631.432	17.97
631.623	17.65
631.813	17.62
632.004	17.49
632.195	17.46
632.385	17.59
632.576	17.67
632.767	17.54
632.957	17.64
633.148	17.61
633.339	17.57
633.529	17.65
633.72	17.88
633.91	17.82
634.101	17.91
634.292	18.09
634.482	18.06
634.673	18.09
634.863	18.32
635.054	18.16
635.244	18.42
635.435	18.62
635.625	18.5
635.815	18.36
636.006	18.44
636.196	18.44
636.387	18.49
636.577	18.55
636.767	18.44
636.958	18.31
637.148	18.7
637.338	18.48
637.529	18.5
637.719	18.74
637.909	18.74
638.099	18.7
638.29	18.56
638.48	18.4
638.67	18.47
638.86	18.52
639.05	18.63
639.241	18.41
639.431	18.36
639.621	18.31
639.811	18.21
640.001	18.3
640.191	18.31
640.381	18.43
640.571	18.36
640.761	18.22
640.951	18.21
641.141	18.2
641.331	17.98
641.521	18.15
641.711	18.04
641.901	18
642.091	17.83
642.281	17.78
642.471	17.64
642.661	17.68
642.851	17.92
643.041	17.87
643.231	17.86
643.42	17.99
643.61	17.85
643.8	18.04
643.99	18.22
644.18	18.3
644.369	18.35
644.559	18.62
644.749	18.74
644.939	18.61
645.128	18.8
645.318	18.68
645.508	18.78
645.697	19.01
645.887	18.69
646.076	18.65
646.266	18.73
646.456	18.55
646.645	18.67
646.835	18.42
647.024	18.2
647.214	18.26
647.403	18.38
647.593	18.54
647.782	18.34
647.972	18.54
648.161	18.54
648.351	18.35
648.54	18.53
648.73	18.31
648.919	18.43
649.108	18.68
649.298	18.51
649.487	18.37
649.677	18.43
649.866	18.3
650.055	18.32
650.244	18.16
650.434	18.34
650.623	18.21
650.812	18.14
651.002	18.32
651.191	18.11
651.38	18.31
651.569	18.27
651.758	18.05
651.947	18.28
652.137	18.47
652.326	18.61
652.515	18.53
652.704	18.66
652.893	18.75
653.082	18.78
653.271	19.08
653.46	18.88
653.649	19
653.838	19.08
654.027	19
654.216	18.78
654.405	18.93
654.594	18.95
654.783	19.07
654.972	19
655.161	19.09
655.35	18.89
655.539	18.82
655.728	18.81
655.916	18.71
656.105	18.87
656.294	18.8
656.483	18.55
656.672	18.55
656.86	18.54
657.049	18.57
657.238	18.32
657.427	18.33
657.615	18.55
657.804	18.52
657.993	18.59
658.181	18.58
658.37	18.68
658.559	18.67
658.747	18.72
658.936	18.78
659.125	18.72
659.313	18.64
659.502	18.76
659.69	18.64
659.879	18.74
660.067	18.78
660.256	18.66
660.444	18.54
660.633	18.73
660.821	18.83
661.01	18.76
661.198	18.78
661.387	18.91
661.575	18.87
661.763	19.02
661.952	19.12
662.14	19.07
662.328	19.18
662.517	19.38
662.705	19.28
662.893	18.99
663.082	18.97
663.27	19.01
663.458	19.16
663.646	19.1
663.834	18.92
664.023	18.81
664.211	18.97
664.399	18.92
664.587	18.78
664.775	18.84
664.963	19.12
665.152	19.07
665.34	19.31
665.528	19.59
665.716	19.76
665.904	19.7
666.092	19.81
666.28	19.96
666.468	19.9
666.656	19.89
666.844	19.85
667.032	19.69
667.22	19.85
667.408	19.68
667.596	19.22
667.784	19.26
667.971	19.53
668.159	19.36
668.347	19.04
668.535	18.93
668.723	18.84
668.911	18.81
669.098	18.83
669.286	18.65
669.474	18.72
669.662	18.69
669.849	18.49
670.037	18.34
670.225	18.67
670.413	18.67
670.6	18.86
670.788	19.03
670.976	18.93
671.163	19.15
671.351	19.37
671.538	19.42
671.726	19.5
671.913	19.63
672.101	19.55
672.289	19.36
672.476	19.52
672.664	19.55
672.851	19.52
673.039	19.75
673.226	19.42
673.413	19.11
673.601	18.91
673.788	18.97
673.976	18.92
674.163	18.98
674.35	19.02
674.538	18.81
674.725	18.8
674.912	18.86
675.1	18.85
675.287	19.08
675.474	19.07
675.662	19.11
675.849	19.35
676.036	19.43
676.223	19.92
676.411	19.92
676.598	19.99
676.785	20.08
676.972	20.43
677.159	20.3
677.346	20.11
677.533	20.33
677.721	20.46
677.908	20.37
678.095	20.14
678.282	19.92
678.469	19.78
678.656	19.75
678.843	19.47
679.03	19.26
679.217	19.18
679.404	19.22
679.591	18.92
679.778	18.85
679.964	18.53
680.151	18.64
680.338	18.43
680.525	18.32
680.712	18.09
680.899	18.24
681.086	18.03
681.272	18.14
681.459	18.42
681.646	18.56
681.833	18.47
682.02	18.85
682.206	18.75
682.393	18.63
682.58	18.89
682.766	19.16
682.953	19.24
683.14	19.16
683.326	19.45
683.513	19.24
683.7	19.33
683.886	19.5
684.073	19.47
684.259	19.72
684.446	20
684.632	20.02
684.819	19.77
685.005	19.63
685.192	19.92
685.378	19.33
685.565	19.17
685.751	19.01
685.938	19.15
686.124	19.18
686.31	19.24
686.497	19.39
686.683	19.13
686.87	19.37
687.056	19.67
687.242	19.77
687.429	19.99
687.615	20.1
687.801	20.28
687.987	19.95
688.174	19.83
688.36	19.37
688.546	19.33
688.732	19.47
688.918	19.31
689.105	19.34
689.291	19.08
689.477	19.21
689.663	19.17
689.849	18.98
690.035	19.13
690.221	19.34
690.407	19.6
690.593	19.39
690.779	19.54
690.965	19.81
691.151	19.68
691.337	19.75
691.523	19.76
691.709	20.05
691.895	20.34
692.081	20.54
692.267	20.52
692.453	20.3
692.639	20.6
692.825	20.15
693.011	20.19
693.196	20.19
693.382	20.21
693.568	20.07
693.754	19.67
693.94	19.33
694.125	19.44
694.311	19.23
694.497	19.61
694.682	19.49
694.868	19.86
695.054	19.9
695.239	19.93
695.425	19.91
695.611	20.39
695.796	20.44
695.982	20.5
696.168	19.81
696.353	20.05
696.539	19.99
696.724	19.91
696.91	20.01
697.095	19.87
697.281	19.6
697.466	19.67
697.652	19.36
697.837	19.32
698.023	19.45
698.208	19.76
698.393	19.54
698.579	19.35
698.764	19.45
698.949	19.47
699.135	19.39
699.32	19.74
699.505	19.67
699.691	19.84
699.876	19.91
700.061	19.78
700.246	19.65
700.432	19.61
700.617	19.97
700.802	19.84
700.987	19.18
701.172	19.42
701.358	19.02
701.543	19.34
701.728	19.23
701.913	19.26
702.098	19.45
702.283	19.76
702.468	20.03
702.653	19.76
702.838	19.66
703.023	20.13
703.208	20.08
703.393	19.66
703.578	19.44
703.763	19.34
703.948	19.36
704.133	19.63
704.318	19.56
704.503	19.53
704.688	19.66
704.873	20.11
705.057	20.41
705.242	20.3
705.427	20.9
705.612	21.06
705.797	20.96
705.981	21.1
706.166	21.02
706.351	20.96
706.536	20.95
706.72	20.69
706.905	20.57
707.09	20.25
707.274	20.36
707.459	20.65
707.644	20.71
707.828	20.63
708.013	20.36
708.197	19.93
708.382	19.89
708.567	19.88
708.751	20.09
708.936	19.76
709.12	19.97
709.305	20.24
709.489	20.12
709.673	19.96
709.858	20.12
710.042	20.2
710.227	20.57
710.411	20.87
710.596	21.02
710.78	21.21
710.964	21.39
711.149	21.42
711.333	21.25
711.517	21.22
711.702	21.54
711.886	21.26
712.07	21.48
712.254	21.15
712.438	20.76
712.623	20.28
712.807	19.67
712.991	19.83
713.175	19.6
713.359	19.45
713.544	19.43
713.728	18.59
713.912	19.1
714.096	18.87
714.28	19.16
714.464	19.37
714.648	19.76
714.832	20.16
715.016	19.86
715.2	19.85
715.384	20.05
715.568	20.16
715.752	20.89
715.936	20.8
716.12	20.95
716.304	20.82
716.488	20.86
716.671	20.98
716.855	20.68
717.039	20.28
717.223	20.31
717.407	19.91
717.59	19.23
717.774	18.72
717.958	18.61
718.142	18.73
718.325	18.64
718.509	18.74
718.693	18.2
718.877	18.75
719.06	19.44
719.244	19.58
719.428	19.79
719.611	20.69
719.795	21.01
719.978	21.16
720.162	20.88
720.345	21.09
720.529	20.84
720.713	20.97
720.896	20.53
721.08	20.19
721.263	19.76
721.446	19.92
721.63	19.73
721.813	19.87
721.997	19.5
722.18	19.18
722.364	19.49
722.547	19.56
722.73	19.29
722.914	19.53
723.097	20.13
723.28	20.22
723.464	19.89
723.647	19.51
723.83	19.3
724.013	19.43
724.197	19.82
724.38	19.97
724.563	19.84
724.746	20.14
724.929	20.43
725.112	20.16
725.296	20.5
725.479	20.46
725.662	20.31
725.845	20.49
726.028	20.49
726.211	20.58
726.394	19.77
726.577	19.79
726.76	19.91
726.943	19.51
727.126	19.08
727.309	19.11
727.492	19.07
727.675	19.22
727.858	19.17
728.041	19.05
728.224	18.74
728.407	18.94
728.589	18.72
728.772	18.42
728.955	18.56
729.138	18.87
729.321	18.75
729.503	18.58
729.686	18.84
729.869	18.48
730.052	18.83
730.234	19.24
730.417	19.32
730.6	19.59
730.782	19.96
730.965	20.09
731.148	20.05
731.33	20.29
731.513	20.52
731.695	20.61
731.878	21.28
732.061	21.45
732.243	21.69
732.426	21.43
732.608	21.21
732.791	20.99
732.973	20.78
733.156	20.6
733.338	20.58
733.52	20.96
733.703	21.12
733.885	20.75
734.068	20.33
734.25	20.25
734.432	20.55
734.615	20.92
734.797	20.96
734.979	21.04
735.162	21.22
735.344	20.96
735.526	20.94
735.708	20.38
735.891	20.35
736.073	20.18
736.255	19.73
736.437	19.47
736.619	19.06
736.802	19.4
736.984	19.15
737.166	19.55
737.348	19.64
737.53	19.22
737.712	19.03
737.894	19.13
738.076	19.22
738.258	19.46
738.44	19.51
738.622	19.96
738.804	19.5
738.986	19.86
739.168	19.2
739.35	19.25
739.532	19.45
739.714	19.59
739.896	18.85
740.078	18.96
740.259	19.17
740.441	19.11
740.623	19.44
740.805	19.84
740.987	20.33
741.168	21.21
741.35	20.95
741.532	20.85
741.714	21.36
741.895	22.02
742.077	22.07
742.259	21.6
742.44	22.09
742.622	22.25
742.804	22.11
742.985	21.46
743.167	20.86
743.348	20.41
743.53	20.44
743.711	20.27
743.893	20.35
744.075	20.93
744.256	20.85
744.438	21.04
744.619	20.82
744.8	20.95
744.982	20.93
745.163	20.95
745.345	21.68
745.526	21.24
745.707	21.08
745.889	21.58
746.07	21.11
746.252	21.5
746.433	21.18
746.614	20.61
746.795	20.43
746.977	21.03
747.158	21.06
747.339	21.07
747.52	21.84
747.702	22.26
747.883	21.82
748.064	21.68
748.245	21.73
748.426	21.22
748.607	20.94
748.788	21.7
748.97	21.41
749.151	20.96
749.332	21.01
749.513	20.98
749.694	20.53
749.875	21.02
750.056	20.54
750.237	19.82
750.418	20.88
750.599	20.92
750.78	19.69
750.96	19.49
751.141	20.47
751.322	20.8
751.503	20.67
751.684	20.93
751.865	20.86
752.046	22.45
752.226	22.65
752.407	22.35
752.588	22.83
752.769	23.29
752.949	22.98
753.13	22.64
753.311	22.59
753.492	21.93
753.672	22.29
753.853	21.42
754.034	20.41
754.214	19.86
754.395	19.49
754.575	19.43
754.756	19.21
754.937	19.64
755.117	19.56
755.298	19.63
755.478	20.18
755.659	19.98
755.839	19.89
756.02	19.82
756.2	20.6
756.381	20.38
756.561	21.14
756.741	21.28
756.922	20.89
757.102	20.73
757.283	19.99
757.463	20.32
757.643	20.31
757.823	21.28
758.004	21.7
758.184	21.51
758.364	21.76
758.545	21.19
758.725	21.57
758.905	21.76
759.085	21.74
759.265	22.13
759.446	22.23
759.626	21.98
759.806	21.67
759.986	21.72
760.166	22.32
760.346	22.34
760.526	22.55
760.706	21.9
760.886	21.6
761.066	22.24
761.246	22.52
761.426	22.18
761.606	22.25
761.786	21.56
761.966	21.4
762.146	21.02
762.326	21.05
762.506	20.82
762.686	20.8
762.866	21.08
763.046	20.47
763.225	20.29
763.405	20.12
763.585	19.74
763.765	19.84
763.945	19.6
764.124	19.83
764.304	19.51
764.484	19.33
764.664	19.71
764.843	19.8
765.023	20.02
765.203	19.78
765.382	20.12
765.562	19.99
765.741	20.23
765.921	20.08
766.101	19.91
766.28	20.13
766.46	20.46
766.639	20.58
766.819	20.63
766.998	20.66
767.178	21.03
767.357	21.15
767.537	21.43
767.716	22.02
767.896	22.42
768.075	22.32
768.254	22.61
768.434	22.01
768.613	21.29
768.792	21.29
768.972	21.62
769.151	21.8
769.33	20.97
769.51	20.69
769.689	19.85
769.868	19.44
770.047	19.12
770.226	18.89
770.406	19.61
770.585	20.2
770.764	19.65
770.943	19.4
771.122	18.66
771.301	19.66
771.48	19.93
771.66	20.36
771.839	20.13
772.018	20.1
772.197	20.01
772.376	20.49
772.555	20.85
772.734	20.48
772.913	20.51
773.092	20.77
773.271	20.33
773.449	20.78
773.628	20.41
773.807	21.31
773.986	21.58
774.165	21.62
774.344	21.04
774.523	20.8
774.701	22.09
774.88	21.46
775.059	20.81
775.238	20.1
775.417	19.17
775.595	19.09
775.774	19.15
775.953	18.93
776.131	19.2
776.31	18.9
776.489	18.4
776.667	18.46
776.846	18.95
777.025	19.12
777.203	20.51
777.382	22.35
777.56	22.93
777.739	22.57
777.917	22.5
778.096	22.35
778.274	23
778.453	23.12
778.631	23.17
778.81	22.8
778.988	23.35
779.166	22.47
779.345	22.03
779.523	21.35
779.702	20.86
779.88	21.58
780.058	20.9
780.237	20.65
780.415	20.09
780.593	19.15
780.771	19.96
780.95	19.46
781.128	20.24
781.306	19.63
781.484	20.07
781.662	21
781.841	20.98
782.019	22.15
782.197	21.49
782.375	22.78
782.553	23.73
782.731	23.29
782.909	23.64
783.087	23.22
783.265	23.13
783.443	22.02
783.621	22
783.799	20.95
783.977	20.1
784.155	20.49
784.333	21.03
784.511	19.72
784.689	19.31
784.867	19.66
785.045	19.87
785.223	21.3
785.4	22.71
785.578	22.97
785.756	23.94
785.934	24.55
786.112	24.12
786.289	22.52
786.467	23.8
786.645	24.11
786.823	23.96
787	23.08
787.178	21.91
787.356	21.37
787.533	20.32
787.711	20.5
787.889	20.38
788.066	20.26
788.244	21.26
788.421	19.96
788.599	19.56
788.776	19.71
788.954	20.14
789.131	19.46
789.309	19.21
789.486	20.4
789.664	20.59
789.841	19.95
790.019	20.18
790.196	20.22
790.373	21.28
790.551	22.58
790.728	22.29
790.906	22.66
791.083	23.39
791.26	23.91
791.437	23.16
791.615	22.84
791.792	23.14
791.969	22.09
792.146	22.19
792.324	21.84
792.501	21.58
792.678	22.41
792.855	22.16
793.032	22.79
793.209	23.09
793.387	23.49
793.564	23.82
793.741	24.26
793.918	26.08
794.095	25.08
794.272	25.15
794.449	23.49
794.626	22.87
794.803	23.13
794.98	22.68
795.157	21.38
795.334	19.86
795.511	19.16
795.688	19.91
795.864	20.28
796.041	20.18
796.218	19.72
796.395	20.01
796.572	19.79
796.749	19.69
796.925	19.96
797.102	21.55
797.279	22.58
797.456	22.19
797.632	21.47
797.809	20.33
797.986	20.25
798.162	20.75
798.339	21.38
798.516	22.04
798.692	21.35
798.869	20.81
799.046	20.16
799.222	20.49
799.399	20.69
799.575	20.75
799.752	21.53
799.928	22.11
800.105	21.51
800.281	20.83
800.458	21
800.634	21.97
800.811	22.6
800.987	23.29
801.163	23.18
801.34	23.39
801.516	24.04
801.692	23.78
801.869	23.5
802.045	24.42
802.221	24.87
802.398	24.34
802.574	24.96
802.75	24.33
802.926	24.14
803.103	23.77
803.279	23.49
803.455	23.04
803.631	21.92
803.807	21.92
803.983	21.79
804.16	22.31
804.336	21.42
804.512	20.71
804.688	21.15
804.864	20.74
805.04	20.7
805.216	21.08
805.392	20.3
805.568	21.69
805.744	21.43
805.92	20.5
806.096	20.17
806.272	20.72
806.448	20.56
806.623	21.29
806.799	20.67
806.975	20.78
807.151	20.86
807.327	20.69
807.503	19.95
807.678	20.14
807.854	21.47
808.03	21.34
808.206	20.95
808.381	20.9
808.557	20.35
808.733	21.33
808.908	22.01
809.084	21.46
809.26	21.76
809.435	22.45
809.611	23.7
809.787	22.14
809.962	22.01
810.138	23.02
810.313	22.84
810.489	23.37
810.664	23.4
810.84	22.72
811.015	22.85
811.191	22.63
811.366	21.13
811.542	20.08
811.717	21.58
811.892	21.76
812.068	22.78
812.243	21.96
812.419	21.51
812.594	20.85
812.769	21.3
812.944	21.09
813.12	20.01
813.295	20.51
813.47	19.91
813.645	18.45
813.821	18.1
813.996	17.02
814.171	17.41
814.346	16.43
814.521	17.16
814.697	16.97
814.872	17.39
815.047	18.56
815.222	19.6
815.397	19.42
815.572	21.81
815.747	22.32
815.922	23.13
816.097	24.62
816.272	23.84
816.447	23.89
816.622	23.94
816.797	24.39
816.972	24.59
817.147	23.92
817.322	25.06
817.496	22.61
817.671	22.1
817.846	22.27
818.021	22.56
818.196	24.16
818.371	23.8
818.545	23.99
818.72	24.2
818.895	24.86
819.069	26.07
819.244	24.29
819.419	24.05
819.594	24.07
819.768	23.72
819.943	22.79
820.117	22.57
820.292	21.91
820.467	21.43
820.641	21.34
820.816	20.86
820.99	20.69
821.165	21.61
821.339	21.7
821.514	21.66
821.688	21.68
821.863	21.6
822.037	21.63
822.212	22.07
822.386	21.96
822.56	21.99
822.735	22.38
822.909	22.2
823.084	21.84
823.258	21.71
823.432	21.56
823.606	21.07
823.781	21.18
823.955	20.94
824.129	20.6
824.303	21.04
824.478	20.58
824.652	19.77
824.826	19.43
825	19.98
825.174	20.38
825.348	20.88
825.523	20.95
825.697	20.61
825.871	20.9
826.045	20.69
826.219	20.72
826.393	20.86
826.567	21.13
826.741	21.31
826.915	20.88
827.089	20.72
827.263	20.57
827.437	20.98
827.611	20.89
827.784	20.55
827.958	20.61
828.132	20.4
828.306	20.34
828.48	20.52
828.654	20.79
828.827	20.68
829.001	20.33
829.175	21.12
829.349	21.09
829.522	21.28
829.696	21.01
829.87	21.68
830.044	21.34
830.217	22
830.391	22.06
830.565	21.52
830.738	21.77
830.912	21.99
831.085	20.29
831.259	19.54
831.432	19.88
831.606	20.31
831.779	19.48
831.953	19.78
832.126	19.93
832.3	19.48
832.473	20.45
832.647	20.7
832.82	21.67
832.994	21.88
833.167	22.03
833.34	21.43
833.514	21.52
833.687	21.57
833.86	21.87
834.034	21.08
834.207	21.12
834.38	20.62
834.553	19.89
834.727	19.92
834.9	20.76
835.073	21.26
835.246	22.54
835.419	23.21
835.593	23.35
835.766	23.03
835.939	24.78
836.112	25.61
836.285	25.24
836.458	27.17
836.631	25.85
836.804	25.41
836.977	25.29
837.15	24.39
837.323	23.9
837.496	23.17
837.669	22.51
837.842	21.87
838.015	21.05
838.188	21.04
838.361	17.61
838.533	17.58
838.706	17
838.879	16.2
839.052	16.33
839.225	15.48
839.398	14.9
839.57	17.44
839.743	17.78
839.916	19.79
840.088	23.08
840.261	23.95
840.434	24.26
840.607	24.42
840.779	26.79
840.952	26.35
841.124	27.8
841.297	30.05
841.47	28.51
841.642	26.68
841.815	24.32
841.987	23.38
842.16	26.49
842.332	26.05
842.505	25.67
842.677	23.46
842.85	24.23
843.022	24.9
843.194	24.47
843.367	23.04
843.539	23.54
843.712	24.3
843.884	22.12
844.056	19.5
844.229	21.34
844.401	19.97
844.573	21.71
844.745	20.59
844.918	18.5
845.09	18.61
845.262	23.53
845.434	26.28
845.606	26.64
845.779	27.94
845.951	24.88
846.123	26.67
846.295	25.49
846.467	23.16
846.639	23.77
846.811	26.17
846.983	24.72
847.155	20.12
847.327	16.47
847.499	15.56
847.671	14.78
847.843	21.47
848.015	20.3
848.187	23.54
848.359	25.17
848.531	21.51
848.703	16.71
848.875	19.13
849.047	20.83
849.218	19.75
849.39	20.86
849.562	17.66
849.734	17
849.905	18.61
850.077	17.42
850.249	17.46
850.421	20.61
850.592	21.8
850.764	21.61
850.936	23.96
851.107	26.56
851.279	21.1
851.451	26.42
851.622	21.12
851.794	20.67
851.965	21.06
852.137	20.38
852.308	19.03
852.48	20.61
852.651	18.47
852.823	14.72
852.994	10.47
853.166	13.93
853.337	14.42
853.509	19.86
853.68	18.56
853.851	19.65
854.023	17.16
854.194	21.38
854.365	21.39
854.537	17.66
854.708	17.77
854.879	22.68
855.05	20.52
855.222	18.87
855.393	18.74
855.564	15.65
855.735	12.05
855.906	16.6
856.078	16.31
856.249	14.38
856.42	15.73
856.591	23.3
856.762	19.98
856.933	19.66
857.104	17.94
857.275	13.64
857.446	16.87
857.617	21.42
857.788	26.63
857.959	23.64
858.13	26.21
858.301	31.79
858.472	25.93
858.643	25.25
858.814	30.85
858.985	33.81
859.155	36.27
859.326	36.37
859.497	36
859.668	29.04
859.839	30.55
860.009	29.43
860.18	29.73
860.351	31.51
860.522	37.97
860.692	34.95
860.863	33.04
861.034	32.76
861.204	34.16
861.375	32.37
861.546	33.07
861.716	34.26
861.887	36.06
862.057	33.06
862.228	31.78
862.398	25.54
862.569	26.64
862.739	23.77
862.91	24.62
863.08	21.61
863.251	23.58
863.421	23.18
863.592	20.33
863.762	22.34
863.932	20.95
864.103	20.83
864.273	23.37
864.443	20.23
864.614	19.31
864.784	13.57
864.954	14.11
865.125	16.38
865.295	21.03
865.465	22.81
865.635	23.29
865.805	22.55
865.976	21.94
866.146	20.11
866.316	26.81
866.486	31.52
866.656	35.4
866.826	38.73
866.996	34.71
867.166	32.36
867.336	29.16
867.506	29.6
867.676	31.62
867.846	29.14
868.016	32.04
868.186	28.98
868.356	25.84
868.526	22.23
868.696	22.07
868.866	25.71
869.036	20.81
869.206	26.89
869.376	20.5
869.545	10.75
869.715	15.72
869.885	18.27
870.055	12.87
870.224	18.86
870.394	24.16
870.564	26.03
870.734	25.13
870.903	26.24
871.073	27.27
871.243	25.84
871.412	36.86
871.582	37.24
871.751	33.55
871.921	42.62
872.091	40.7
872.26	35.78
872.43	33.2
872.599	29.99
872.769	31.92
872.938	27.17
873.108	27.15
873.277	25.17
873.446	20.34
873.616	24.08
873.785	24.61
873.955	18.59
874.124	18.44
874.293	14.18
874.463	15.36
874.632	19
874.801	18.18
874.971	16.22
875.14	17.1
875.309	18.72
875.478	15.57
875.647	6.51
875.817	11.24
875.986	12.72
876.155	16.99
876.324	20.98
876.493	21.21
876.662	23.69
876.831	27.59
877	24.42
877.17	24.28
877.339	24.2
877.508	30.42
877.677	27.85
877.846	28.49
878.015	26.26
878.184	18.84
878.352	11.33
878.521	10.68
878.69	5
878.859	5.07
879.028	6.79
879.197	10.44
879.366	7.07
879.534	10.46
879.703	13.25
879.872	15.53
880.041	19.26
880.21	22.85
880.378	22.31
880.547	23.18
880.716	24.2
880.884	24.57
881.053	23.02
881.222	24.22
881.39	25.06
881.559	24.27
881.727	23.66
881.896	23.39
882.065	23.24
882.233	23.27
882.402	23.16
882.57	23.46
882.739	23.36
882.907	24.16
883.076	23.6
883.244	22.85
883.412	24.02
883.581	23.45
883.749	23.14
883.918	22.51
884.086	22.06
884.254	22.14
884.423	21.68
884.591	21.37
884.759	20.93
884.927	20.67
885.096	21.61
885.264	20.13
885.432	20.93
885.6	22.19
885.769	20.85
885.937	21.51
886.105	23.31
886.273	23.4
886.441	24.07
886.609	26.27
886.777	26.76
886.945	26.91
887.113	27.34
887.281	25.93
887.449	25.9
887.617	30.53
887.785	33.08
887.953	33.01
888.121	32.29
888.289	32.36
888.457	29.53
888.625	28.92
888.793	26
888.961	26.15
889.129	31.08
889.296	32.47
889.464	31.65
889.632	29.69
889.8	29.25
889.967	31.27
890.135	30.63
