Data from 2938503_Reflection_3.txt Node
Date: Tue Jun 16 23:11:23 EDT 2015
User: robert
Spectrometer: USB4E03002
Autoset integration time: false
Trigger mode: 4
Integration Time (sec): 1.000000E-1
Scans to average: 10
Electric dark correction enabled: true
Nonlinearity correction enabled: false
Boxcar width: 5
Stray light correction enabled: false
XAxis mode: Wavelengths
Stop averaging: false
Number of Pixels in Spectrum: 3648
>>>>>Begin Spectral Data<<<<<
177.575	2137
177.794	-167.51
178.014	29.38
178.233	63.43
178.452	63.59
178.672	119.28
178.891	150.12
179.11	3450
179.33	-483.85
179.549	-117.07
179.768	47.27
179.987	869.48
180.207	-149.69
180.426	-13.36
180.645	4.83
180.864	10.03
181.084	19.89
181.303	1.66
181.522	-5.63
181.741	2.73
181.96	-3.9
182.179	-4.37
182.398	17.96
182.618	33.88
182.837	36.59
183.056	34.78
183.275	48.13
183.494	50.89
183.713	49.08
183.932	51.62
184.151	59.32
184.37	50.18
184.589	40.97
184.808	44.65
185.027	40.5
185.246	44.76
185.465	46.79
185.684	29.22
185.903	11.51
186.122	10.86
186.341	-13.23
186.56	-103.61
186.779	-116.43
186.998	-22.41
187.216	-42.08
187.435	15.08
187.654	-30.74
187.873	2.78
188.092	60.66
188.311	93
188.53	95.84
188.748	88.08
188.967	94.07
189.186	47.35
189.405	42.48
189.623	67.03
189.842	57.65
190.061	45.6
190.28	31.17
190.498	22.1
190.717	11.75
190.936	7.94
191.154	23.03
191.373	26.25
191.592	30.39
191.81	37.34
192.029	25.85
192.248	5.94
192.466	7.1
192.685	-9.19
192.904	-2.18
193.122	26.16
193.341	27.57
193.559	23.23
193.778	18.42
193.996	18.4
194.215	15.22
194.433	14.89
194.652	37
194.87	55.59
195.089	56.01
195.307	41.96
195.526	27.4
195.744	2.91
195.963	6.51
196.181	-28.73
196.399	-0.41
196.618	0.27
196.836	11.43
197.055	-17.19
197.273	-37.95
197.491	-27.32
197.71	-24.68
197.928	-30.68
198.146	-22.83
198.365	-2.39
198.583	-8.55
198.801	-9.06
199.019	-3.38
199.238	-5.87
199.456	15.39
199.674	25.62
199.892	38.99
200.111	44.99
200.329	57.28
200.547	75
200.765	76.47
200.983	102.62
201.202	111.04
201.42	130.15
201.638	114.54
201.856	134.45
202.074	98.08
202.292	85.88
202.51	79.57
202.728	40.49
202.946	17.71
203.165	27.12
203.383	7.48
203.601	10.31
203.819	-23.86
204.037	-23.01
204.255	-8.41
204.473	-1.44
204.691	-23.7
204.909	-38.67
205.127	-6.78
205.345	-13.27
205.562	-49.08
205.78	-16.02
205.998	-25
206.216	-21.45
206.434	-46.11
206.652	-50.16
206.87	-48.22
207.088	-21.57
207.306	-15.45
207.523	-13.45
207.741	-16.29
207.959	15.09
208.177	16.93
208.395	14.38
208.612	21.41
208.83	14.3
209.048	12.37
209.266	7.85
209.483	-2.51
209.701	1.3
209.919	-5.56
210.136	8.58
210.354	-10.99
210.572	-9.86
210.79	-9.46
211.007	0.12
211.225	11.04
211.442	12.98
211.66	6.66
211.878	15.08
212.095	14.12
212.313	29.61
212.53	28.89
212.748	29.27
212.966	23.82
213.183	35.3
213.401	36.05
213.618	23.54
213.836	27.72
214.053	42.17
214.271	29.63
214.488	19.52
214.705	5.32
214.923	6.7
215.14	-18.64
215.358	1.2
215.575	15.4
215.793	24.44
216.01	37.71
216.227	35.68
216.445	23.8
216.662	25.86
216.879	31.87
217.097	34.37
217.314	28.84
217.531	33.7
217.749	22.22
217.966	18.86
218.183	16.07
218.4	5.59
218.618	2.92
218.835	5.2
219.052	10.89
219.269	0.14
219.487	4.37
219.704	2.09
219.921	10.74
220.138	19.92
220.355	2.36
220.572	3.54
220.79	22.26
221.007	7.77
221.224	6.91
221.441	2.22
221.658	8.4
221.875	-0.42
222.092	1.95
222.309	3.41
222.526	3.23
222.743	7.13
222.96	5.62
223.177	1.24
223.394	6
223.611	6.86
223.828	8.65
224.045	7.2
224.262	13.75
224.479	15.42
224.696	13.11
224.913	11.91
225.13	11.28
225.347	12.92
225.564	11.33
225.781	14.01
225.997	13.55
226.214	13.56
226.431	12.56
226.648	11.88
226.865	10.39
227.082	11.09
227.298	11.47
227.515	11.07
227.732	10.59
227.949	10.24
228.165	8.22
228.382	8.2
228.599	8.8
228.816	9.99
229.032	8.91
229.249	11.3
229.466	9.88
229.682	9.22
229.899	10.28
230.116	8.84
230.332	10.42
230.549	12.64
230.765	12.93
230.982	11.67
231.199	10.28
231.415	11.48
231.632	8.65
231.848	10.18
232.065	12.83
232.281	12.59
232.498	14.86
232.714	14.11
232.931	13.33
233.147	14.06
233.364	13.21
233.58	12.55
233.797	12.02
234.013	11.69
234.23	11.88
234.446	10.17
234.662	8.99
234.879	6.21
235.095	4.53
235.312	2.08
235.528	-0.14
235.744	-0.14
235.961	0.45
236.177	-1.49
236.393	-0.41
236.61	-0.15
236.826	-1.01
237.042	-1.29
237.258	-0.01
237.475	-0.72
237.691	0.66
237.907	1.69
238.123	1.72
238.339	3.44
238.556	4.96
238.772	5.54
238.988	5.73
239.204	6.16
239.42	6.76
239.636	6.68
239.853	8.07
240.069	9.13
240.285	9.25
240.501	9.82
240.717	9.9
240.933	8.93
241.149	9.28
241.365	9.71
241.581	9.04
241.797	9.4
242.013	9.58
242.229	9.81
242.445	9.62
242.661	9.88
242.877	10.09
243.093	9.59
243.309	10.72
243.525	10.43
243.741	9.54
243.957	10.35
244.173	9.88
244.388	9.67
244.604	8.83
244.82	8.66
245.036	8.31
245.252	7.85
245.468	7.89
245.683	7.54
245.899	7.46
246.115	7.5
246.331	7.24
246.547	7.55
246.762	7.48
246.978	7.44
247.194	7.45
247.409	8.07
247.625	8.46
247.841	8.14
248.057	8.53
248.272	7.99
248.488	8.23
248.703	8.57
248.919	8.12
249.135	9.32
249.35	9.36
249.566	10.1
249.782	9.42
249.997	9.14
250.213	9.21
250.428	8.62
250.644	9.45
250.859	9.32
251.075	9.7
251.29	9.47
251.506	8.45
251.721	8.08
251.937	6.73
252.152	6.68
252.368	6.21
252.583	5.78
252.798	6.76
253.014	5.9
253.229	5.62
253.445	4.91
253.66	4.35
253.875	4.8
254.091	5.34
254.306	6.8
254.521	7.18
254.737	7.34
254.952	8.07
255.167	7.61
255.383	7.29
255.598	7.1
255.813	6.61
256.028	6.87
256.244	6.36
256.459	6.14
256.674	5.54
256.889	5.42
257.104	5.67
257.32	5.75
257.535	5.68
257.75	6.01
257.965	5.77
258.18	6.16
258.395	5.97
258.61	6.49
258.826	6.34
259.041	6.56
259.256	6.58
259.471	6.85
259.686	6.49
259.901	6.51
260.116	6.36
260.331	7
260.546	7.01
260.761	7.53
260.976	6.88
261.191	7.75
261.406	7.73
261.621	7.11
261.836	7.22
262.05	8.36
262.265	8.3
262.48	9.08
262.695	9.15
262.91	9.37
263.125	8.98
263.34	9.08
263.555	8.31
263.769	8.28
263.984	8.86
264.199	8.43
264.414	7.09
264.629	6.69
264.843	6.01
265.058	5.03
265.273	4.5
265.488	5.27
265.702	5.4
265.917	5.58
266.132	5.49
266.346	5.34
266.561	4.92
266.776	5.37
266.99	5.55
267.205	5.59
267.42	6.35
267.634	6.91
267.849	6.5
268.063	6.4
268.278	6.28
268.492	6.55
268.707	7.02
268.922	7.38
269.136	7.67
269.351	8.13
269.565	8.23
269.78	7.97
269.994	6.88
270.209	6.67
270.423	6.85
270.637	7.09
270.852	6.77
271.066	6.34
271.281	5.99
271.495	6
271.709	5.38
271.924	5.33
272.138	5.51
272.353	5.98
272.567	6.22
272.781	5.89
272.996	5.73
273.21	5.65
273.424	5.7
273.638	6.19
273.853	5.45
274.067	6.39
274.281	5.93
274.495	6
274.71	6.19
274.924	6.23
275.138	6.14
275.352	6.17
275.566	6.16
275.781	5.79
275.995	5.75
276.209	6.13
276.423	5.57
276.637	6.47
276.851	5.49
277.065	5.03
277.279	5.23
277.493	6.08
277.707	6.33
277.921	6.46
278.135	7.07
278.349	6.88
278.563	7.02
278.777	7.27
278.991	6.76
279.205	7.47
279.419	7.62
279.633	7.6
279.847	7.19
280.061	7.13
280.275	6.92
280.489	7.03
280.703	7
280.917	6.93
281.131	6.8
281.344	6.41
281.558	6.38
281.772	6.25
281.986	6.16
282.2	6
282.414	5.62
282.627	5.77
282.841	5.57
283.055	5.81
283.269	6.02
283.482	6.09
283.696	6.58
283.91	6.11
284.123	6.75
284.337	6.54
284.551	6.75
284.764	7.34
284.978	7.34
285.192	7.12
285.405	7.04
285.619	6.92
285.833	6.69
286.046	6.66
286.26	7.09
286.473	6.69
286.687	6.91
286.9	6.77
287.114	6.22
287.327	6.53
287.541	6.33
287.754	6.14
287.968	6.28
288.181	6.45
288.395	6.81
288.608	6.76
288.822	6.94
289.035	6.61
289.248	6.57
289.462	6.62
289.675	6.39
289.889	6.85
290.102	6.63
290.315	6.46
290.529	6.31
290.742	5.58
290.955	5.61
291.169	5.78
291.382	6.11
291.595	5.81
291.808	5.82
292.022	6.26
292.235	6.42
292.448	6.56
292.661	7.04
292.875	7.43
293.088	7.55
293.301	7.83
293.514	7.53
293.727	7.94
293.94	8.11
294.153	8.27
294.367	8.11
294.58	8.01
294.793	8.21
295.006	8.17
295.219	8.11
295.432	8.5
295.645	8.4
295.858	8.46
296.071	8.32
296.284	8.44
296.497	8.52
296.71	8.58
296.923	8.65
297.136	8.63
297.349	8.51
297.562	8.5
297.775	8.1
297.988	7.81
298.201	7.64
298.414	7.55
298.626	7.37
298.839	7.57
299.052	7.97
299.265	8.19
299.478	8.47
299.691	8.55
299.903	8.71
300.116	9
300.329	8.9
300.542	8.94
300.755	9.19
300.967	9.74
301.18	9.75
301.393	9.5
301.605	8.99
301.818	8.93
302.031	8.88
302.243	8.65
302.456	8.96
302.669	9.33
302.881	9.26
303.094	8.9
303.307	8.63
303.519	8.6
303.732	8.48
303.944	8.7
304.157	8.84
304.37	8.88
304.582	8.64
304.795	8.19
305.007	8.46
305.22	8.27
305.432	8.37
305.645	8.47
305.857	8.39
306.069	8.16
306.282	8.16
306.494	8.19
306.707	8.14
306.919	8.72
307.132	9.1
307.344	8.71
307.556	9.29
307.769	9.22
307.981	9.07
308.193	9.23
308.406	9.44
308.618	9.23
308.83	9.29
309.043	9.59
309.255	9.43
309.467	9.49
309.679	9.57
309.892	9.49
310.104	9.42
310.316	9.47
310.528	9.28
310.74	9.25
310.953	9.43
311.165	9.39
311.377	9.45
311.589	9.74
311.801	9.7
312.013	9.86
312.225	9.51
312.437	9.66
312.649	10.21
312.862	10.65
313.074	10.97
313.286	10.88
313.498	10.8
313.71	10.97
313.922	10.76
314.134	10.68
314.346	10.13
314.558	10.68
314.77	10.68
314.982	10.31
315.193	9.6
315.405	9.43
315.617	9.77
315.829	9.73
316.041	9.15
316.253	9.19
316.465	9.51
316.677	10.1
316.888	9.8
317.1	9.85
317.312	10.12
317.524	10.41
317.736	10.81
317.947	10.43
318.159	10.25
318.371	10.37
318.583	10.61
318.794	10.12
319.006	9.99
319.218	10.39
319.43	10.61
319.641	10.62
319.853	11.18
320.064	10.5
320.276	10.7
320.488	10.66
320.699	10.68
320.911	10.93
321.123	11.46
321.334	11.69
321.546	12.09
321.757	11.73
321.969	11.17
322.18	10.72
322.392	10.91
322.603	11.31
322.815	11.75
323.026	11.88
323.238	11.35
323.449	10.77
323.661	11
323.872	10.57
324.083	10.21
324.295	10.12
324.506	10.35
324.718	10.65
324.929	10.74
325.14	10.44
325.352	10.38
325.563	10.36
325.774	10.7
325.986	10.47
326.197	10.36
326.408	11.23
326.62	11.55
326.831	11.72
327.042	11.35
327.253	11.03
327.464	10.99
327.676	10.96
327.887	11.14
328.098	10.7
328.309	10.42
328.52	10.81
328.732	10.66
328.943	10.74
329.154	10.44
329.365	10.72
329.576	10.64
329.787	10.68
329.998	10.67
330.209	10.75
330.42	11.03
330.631	11.31
330.842	10.67
331.053	10.32
331.264	10.15
331.475	9.89
331.686	9.62
331.897	9.69
332.108	9.95
332.319	9.98
332.53	9.96
332.741	10.21
332.952	9.8
333.163	10.15
333.374	10.38
333.585	10.44
333.795	10.22
334.006	10.5
334.217	10.55
334.428	10.22
334.639	10.32
334.849	10.02
335.06	10.09
335.271	10.42
335.482	10.31
335.692	10.53
335.903	10.48
336.114	10.76
336.325	10.32
336.535	10.19
336.746	10.22
336.957	9.96
337.167	10.08
337.378	9.79
337.589	9.58
337.799	9.91
338.01	9.07
338.22	8.85
338.431	8.57
338.642	8.9
338.852	9.01
339.063	9.05
339.273	9.36
339.484	9.59
339.694	9.37
339.905	9.73
340.115	9.17
340.326	9.8
340.536	10.14
340.746	10.4
340.957	10.37
341.167	10.4
341.378	10.56
341.588	10.16
341.799	9.86
342.009	9.88
342.219	9.53
342.43	9.96
342.64	9.48
342.85	9.15
343.061	9.14
343.271	9.08
343.481	8.9
343.691	9.09
343.902	9.16
344.112	9.18
344.322	9.04
344.532	9.16
344.743	8.95
344.953	9.26
345.163	9.47
345.373	9.26
345.583	9.1
345.793	9.32
346.004	9.15
346.214	9.27
346.424	9.45
346.634	9.74
346.844	9.92
347.054	9.93
347.264	9.83
347.474	9.84
347.684	10.12
347.894	10.34
348.104	10.35
348.314	9.88
348.524	9.75
348.734	9.59
348.944	9.42
349.154	9.37
349.364	9.12
349.574	8.87
349.784	8.85
349.994	8.72
350.204	8.8
350.413	8.71
350.623	8.9
350.833	8.71
351.043	8.38
351.253	8.27
351.463	8.04
351.672	8.24
351.882	8.32
352.092	8.32
352.302	8.44
352.511	8.32
352.721	8.37
352.931	8.27
353.141	8.58
353.35	9.04
353.56	9.15
353.77	9.12
353.979	8.79
354.189	9.22
354.399	9.45
354.608	9.37
354.818	9.14
355.027	8.73
355.237	8.91
355.447	8.76
355.656	8.62
355.866	8.67
356.075	8.55
356.285	8.62
356.494	8.23
356.704	8
356.913	7.91
357.123	7.86
357.332	8.09
357.542	7.98
357.751	7.9
357.96	7.89
358.17	7.37
358.379	7.37
358.589	7.72
358.798	7.88
359.007	7.67
359.217	7.82
359.426	8.05
359.635	7.87
359.845	7.99
360.054	7.96
360.263	7.98
360.472	8.26
360.682	8.28
360.891	8.04
361.1	7.9
361.309	7.88
361.519	7.85
361.728	7.76
361.937	7.97
362.146	7.73
362.355	7.9
362.564	7.91
362.774	8.03
362.983	7.95
363.192	7.79
363.401	7.85
363.61	8
363.819	7.79
364.028	7.6
364.237	7.46
364.446	7.51
364.655	7.33
364.864	7.36
365.073	7.37
365.282	7.54
365.491	7.81
365.7	7.79
365.909	7.79
366.118	7.74
366.327	7.84
366.536	7.91
366.745	8.12
366.954	8.17
367.162	8.14
367.371	8.29
367.58	8.51
367.789	8.53
367.998	8.59
368.207	8.47
368.415	8.24
368.624	8.27
368.833	8.4
369.042	8.18
369.25	8.22
369.459	7.92
369.668	7.57
369.877	7.21
370.085	6.95
370.294	6.71
370.503	6.79
370.711	7.01
370.92	6.83
371.129	6.35
371.337	6.48
371.546	6.15
371.754	6.13
371.963	6.14
372.171	6.33
372.38	6.37
372.589	6.31
372.797	6.15
373.006	6.19
373.214	6.67
373.423	6.85
373.631	6.85
373.84	7.21
374.048	7.32
374.256	7.46
374.465	7.22
374.673	7.28
374.882	7.4
375.09	7.56
375.298	7.53
375.507	7
375.715	7.24
375.923	7.26
376.132	6.91
376.34	6.75
376.548	6.59
376.757	6.81
376.965	6.79
377.173	6.85
377.381	6.77
377.59	6.65
377.798	7.04
378.006	6.57
378.214	6.54
378.423	6.69
378.631	6.58
378.839	6.74
379.047	6.62
379.255	6.67
379.463	6.68
379.671	6.68
379.879	6.83
380.088	6.69
380.296	6.9
380.504	6.75
380.712	6.82
380.92	6.86
381.128	6.77
381.336	6.91
381.544	7.02
381.752	6.95
381.96	6.77
382.168	6.74
382.376	6.6
382.584	6.61
382.791	6.48
382.999	6.32
383.207	6.56
383.415	6.57
383.623	6.35
383.831	6.16
384.039	6.13
384.247	6.39
384.454	6.24
384.662	6.23
384.87	6.22
385.078	6.28
385.285	6.08
385.493	6.04
385.701	5.81
385.909	5.89
386.116	5.6
386.324	5.39
386.532	5.32
386.739	5.37
386.947	5.5
387.155	5.35
387.362	5.38
387.57	5.69
387.778	5.47
387.985	5.56
388.193	5.55
388.4	5.91
388.608	6.11
388.816	5.99
389.023	5.97
389.231	6.09
389.438	6.16
389.646	6.1
389.853	5.81
390.061	5.85
390.268	5.69
390.475	5.52
390.683	5.52
390.89	5.45
391.098	5.45
391.305	5.43
391.512	5.33
391.72	5.26
391.927	5.52
392.135	5.72
392.342	5.73
392.549	5.88
392.756	5.95
392.964	5.74
393.171	5.82
393.378	5.74
393.586	5.81
393.793	5.84
394	5.96
394.207	5.9
394.414	5.78
394.622	5.83
394.829	5.93
395.036	5.82
395.243	5.86
395.45	5.83
395.657	5.95
395.864	5.97
396.072	5.96
396.279	6.01
396.486	5.65
396.693	5.72
396.9	5.68
397.107	5.64
397.314	5.73
397.521	5.89
397.728	5.76
397.935	5.67
398.142	5.61
398.349	5.39
398.556	5.37
398.763	5.35
398.97	5.48
399.177	5.58
399.383	5.45
399.59	5.48
399.797	5.52
400.004	5.55
400.211	5.57
400.418	5.6
400.625	5.45
400.831	5.33
401.038	5.53
401.245	5.28
401.452	5.27
401.658	5.29
401.865	5.33
402.072	5.1
402.279	4.97
402.485	5
402.692	4.92
402.899	5.07
403.105	5.28
403.312	5.25
403.519	5.44
403.725	5.33
403.932	5.28
404.138	5.12
404.345	5.14
404.552	5.24
404.758	5.19
404.965	5.25
405.171	5.04
405.378	4.88
405.584	4.97
405.791	4.69
405.997	4.76
406.204	4.9
406.41	5.07
406.617	5.23
406.823	5.26
407.029	5.35
407.236	5.28
407.442	5.45
407.649	5.3
407.855	5.27
408.061	5.58
408.268	5.61
408.474	5.48
408.68	5.28
408.887	5.23
409.093	5.22
409.299	4.98
409.505	4.94
409.712	5
409.918	5.2
410.124	5.06
410.33	4.94
410.537	4.84
410.743	4.81
410.949	4.91
411.155	5.01
411.361	4.95
411.567	5.19
411.773	5.26
411.98	5.31
412.186	5.2
412.392	5.23
412.598	5.07
412.804	5.16
413.01	5.16
413.216	5.14
413.422	4.9
413.628	5
413.834	4.88
414.04	4.9
414.246	4.84
414.452	4.85
414.658	4.81
414.864	4.9
415.07	4.75
415.275	4.84
415.481	4.77
415.687	4.73
415.893	4.74
416.099	4.8
416.305	4.68
416.511	4.66
416.716	4.56
416.922	4.62
417.128	4.66
417.334	4.72
417.539	4.74
417.745	4.88
417.951	4.98
418.157	4.87
418.362	4.88
418.568	4.95
418.774	4.96
418.979	4.94
419.185	4.9
419.391	4.92
419.596	4.91
419.802	4.82
420.008	4.67
420.213	4.56
420.419	4.57
420.624	4.55
420.83	4.51
421.035	4.53
421.241	4.55
421.446	4.48
421.652	4.43
421.857	4.38
422.063	4.4
422.268	4.48
422.474	4.6
422.679	4.63
422.885	4.64
423.09	4.62
423.295	4.59
423.501	4.61
423.706	4.78
423.911	4.76
424.117	4.78
424.322	4.77
424.527	4.76
424.733	4.71
424.938	4.73
425.143	4.66
425.349	4.71
425.554	4.68
425.759	4.72
425.964	4.63
426.169	4.54
426.375	4.61
426.58	4.73
426.785	4.72
426.99	4.5
427.195	4.51
427.4	4.54
427.605	4.53
427.811	4.42
428.016	4.38
428.221	4.35
428.426	4.43
428.631	4.32
428.836	4.24
429.041	4.22
429.246	4.38
429.451	4.29
429.656	4.35
429.861	4.3
430.066	4.44
430.271	4.44
430.476	4.45
430.681	4.41
430.886	4.4
431.09	4.37
431.295	4.38
431.5	4.25
431.705	4.28
431.91	4.21
432.115	4.32
432.32	4.26
432.524	4.21
432.729	4.22
432.934	4.21
433.139	4.22
433.343	4.18
433.548	4.21
433.753	4.3
433.958	4.3
434.162	4.33
434.367	4.18
434.572	4.15
434.776	4.35
434.981	4.27
435.186	4.2
435.39	4.26
435.595	4.23
435.799	4.17
436.004	4.28
436.209	4.27
436.413	4.26
436.618	4.22
436.822	4.28
437.027	4.13
437.231	4.08
437.436	4.27
437.64	4.22
437.845	4.27
438.049	4.25
438.253	4.18
438.458	4.17
438.662	4.14
438.867	4.24
439.071	4.31
439.275	4.3
439.48	4.37
439.684	4.33
439.888	4.3
440.093	4.28
440.297	4.32
440.501	4.36
440.706	4.35
440.91	4.43
441.114	4.32
441.318	4.21
441.523	4.18
441.727	4.24
441.931	4.19
442.135	4.19
442.339	4.11
442.543	4.08
442.748	4.14
442.952	4.21
443.156	4.13
443.36	4.26
443.564	4.29
443.768	4.27
443.972	4.24
444.176	4.25
444.38	4.34
444.584	4.43
444.788	4.43
444.992	4.33
445.196	4.25
445.4	4.35
445.604	4.25
445.808	4.26
446.012	4.3
446.216	4.27
446.42	4.26
446.624	4.18
446.828	4.15
447.032	4.13
447.235	4.17
447.439	4.27
447.643	4.11
447.847	4.2
448.051	4.16
448.254	4.18
448.458	4.13
448.662	4.1
448.866	4.18
449.069	4.21
449.273	4.08
449.477	4.07
449.681	4.09
449.884	4.16
450.088	4.07
450.292	4.11
450.495	4.14
450.699	4.08
450.902	4
451.106	3.93
451.31	3.82
451.513	3.98
451.717	4.01
451.92	3.9
452.124	3.82
452.327	3.84
452.531	3.83
452.734	3.74
452.938	3.99
453.141	4.05
453.345	4.1
453.548	4.25
453.752	4.24
453.955	4.14
454.158	4.15
454.362	4.07
454.565	4.04
454.769	3.97
454.972	4.04
455.175	3.9
455.379	3.97
455.582	3.85
455.785	3.81
455.988	3.66
456.192	3.71
456.395	3.67
456.598	3.87
456.801	3.89
457.005	3.92
457.208	3.9
457.411	3.98
457.614	3.92
457.817	4.03
458.021	3.95
458.224	4.07
458.427	4.06
458.63	4.06
458.833	4.03
459.036	4.03
459.239	4.04
459.442	4.06
459.645	4
459.848	4.08
460.051	3.98
460.254	4.01
460.457	3.98
460.66	4.02
460.863	4.05
461.066	4.02
461.269	3.98
461.472	3.89
461.675	3.89
461.878	3.9
462.081	3.83
462.284	3.93
462.486	4.04
462.689	4.03
462.892	4.07
463.095	4.1
463.298	4.13
463.5	4.08
463.703	4.11
463.906	4.12
464.109	4.09
464.311	4.01
464.514	4.03
464.717	3.94
464.92	3.99
465.122	3.89
465.325	3.69
465.528	3.58
465.73	3.71
465.933	3.79
466.135	3.71
466.338	3.71
466.541	3.78
466.743	3.72
466.946	3.73
467.148	3.65
467.351	3.66
467.553	3.73
467.756	3.83
467.958	3.82
468.161	3.84
468.363	3.91
468.566	3.96
468.768	3.93
468.971	3.93
469.173	3.99
469.375	4.1
469.578	4.17
469.78	4.42
469.983	4.35
470.185	4.29
470.387	4.17
470.59	4.1
470.792	4.11
470.994	4.13
471.196	4.18
471.399	4.1
471.601	4.09
471.803	4.02
472.005	3.83
472.208	3.83
472.41	3.93
472.612	3.93
472.814	3.94
473.016	3.9
473.218	3.96
473.421	3.87
473.623	3.92
473.825	3.8
474.027	3.88
474.229	3.91
474.431	3.98
474.633	3.79
474.835	3.84
475.037	3.85
475.239	3.79
475.441	3.71
475.643	3.73
475.845	3.72
476.047	3.79
476.249	3.72
476.451	3.61
476.653	3.6
476.855	3.78
477.057	3.85
477.258	3.79
477.46	3.82
477.662	3.89
477.864	3.94
478.066	4.04
478.268	3.97
478.469	4.02
478.671	4.13
478.873	4.13
479.075	4.06
479.276	3.89
479.478	3.91
479.68	3.9
479.882	3.81
480.083	3.75
480.285	3.72
480.487	3.73
480.688	3.72
480.89	3.69
481.091	3.71
481.293	3.74
481.495	3.79
481.696	3.83
481.898	3.84
482.099	3.87
482.301	3.9
482.502	3.86
482.704	3.89
482.905	3.92
483.107	3.96
483.308	3.93
483.51	3.93
483.711	3.95
483.913	3.93
484.114	3.91
484.315	3.95
484.517	3.95
484.718	3.99
484.92	3.99
485.121	3.96
485.322	3.96
485.524	4.01
485.725	4.01
485.926	3.98
486.127	4
486.329	4.02
486.53	3.99
486.731	3.94
486.932	3.91
487.134	3.89
487.335	3.92
487.536	3.88
487.737	3.83
487.938	3.84
488.139	3.86
488.341	3.86
488.542	3.89
488.743	3.87
488.944	3.93
489.145	3.97
489.346	3.96
489.547	3.93
489.748	3.94
489.949	3.95
490.15	3.94
490.351	3.89
490.552	3.87
490.753	3.84
490.954	3.82
491.155	3.79
491.356	3.79
491.557	3.76
491.758	3.75
491.959	3.77
492.159	3.8
492.36	3.81
492.561	3.82
492.762	3.86
492.963	3.81
493.164	3.81
493.364	3.87
493.565	3.83
493.766	3.91
493.967	3.91
494.167	3.83
494.368	3.84
494.569	3.88
494.769	3.9
494.97	3.89
495.171	3.91
495.371	3.94
495.572	3.95
495.773	3.94
495.973	3.91
496.174	3.9
496.375	3.97
496.575	3.97
496.776	3.97
496.976	3.93
497.177	3.91
497.377	3.94
497.578	4
497.778	3.92
497.979	3.96
498.179	3.92
498.38	3.95
498.58	3.91
498.78	3.88
498.981	3.84
499.181	3.91
499.382	3.85
499.582	3.91
499.782	3.9
499.983	3.99
500.183	3.91
500.383	4
500.584	3.92
500.784	4.01
500.984	4.04
501.184	4.08
501.385	4.11
501.585	4.18
501.785	4.06
501.985	4.13
502.185	4.13
502.386	4.19
502.586	4.23
502.786	4.29
502.986	4.29
503.186	4.27
503.386	4.27
503.586	4.28
503.786	4.39
503.987	4.44
504.187	4.4
504.387	4.37
504.587	4.39
504.787	4.37
504.987	4.37
505.187	4.4
505.387	4.36
505.587	4.29
505.786	4.22
505.986	4.2
506.186	4.18
506.386	4.23
506.586	4.27
506.786	4.37
506.986	4.29
507.186	4.32
507.386	4.27
507.585	4.3
507.785	4.36
507.985	4.44
508.185	4.37
508.384	4.4
508.584	4.36
508.784	4.33
508.984	4.25
509.183	4.31
509.383	4.31
509.583	4.33
509.782	4.36
509.982	4.4
510.182	4.37
510.381	4.39
510.581	4.42
510.781	4.4
510.98	4.42
511.18	4.45
511.379	4.41
511.579	4.44
511.778	4.42
511.978	4.46
512.177	4.4
512.377	4.41
512.576	4.36
512.776	4.29
512.975	4.31
513.175	4.35
513.374	4.4
513.573	4.41
513.773	4.39
513.972	4.48
514.172	4.41
514.371	4.54
514.57	4.57
514.77	4.69
514.969	4.76
515.168	4.8
515.367	4.85
515.567	4.85
515.766	4.93
515.965	4.95
516.164	4.93
516.364	4.95
516.563	4.96
516.762	4.92
516.961	4.87
517.16	4.88
517.359	4.84
517.559	4.8
517.758	4.75
517.957	4.73
518.156	4.77
518.355	4.72
518.554	4.74
518.753	4.7
518.952	4.7
519.151	4.68
519.35	4.66
519.549	4.7
519.748	4.78
519.947	4.79
520.146	4.73
520.345	4.67
520.544	4.68
520.743	4.73
520.942	4.64
521.141	4.67
521.339	4.73
521.538	4.8
521.737	4.79
521.936	4.74
522.135	4.77
522.333	4.83
522.532	4.85
522.731	4.89
522.93	4.84
523.129	4.9
523.327	4.93
523.526	4.94
523.725	4.93
523.923	4.89
524.122	4.86
524.321	4.91
524.519	4.92
524.718	4.9
524.917	4.92
525.115	4.96
525.314	4.92
525.512	4.95
525.711	4.94
525.909	4.91
526.108	4.92
526.306	4.94
526.505	4.93
526.703	4.91
526.902	4.92
527.1	4.91
527.299	4.93
527.497	4.95
527.696	4.96
527.894	4.99
528.092	5.01
528.291	5.04
528.489	5.06
528.688	5.06
528.886	5.12
529.084	5.15
529.283	5.14
529.481	5.16
529.679	5.19
529.877	5.18
530.076	5.14
530.274	5.17
530.472	5.19
530.67	5.21
530.869	5.23
531.067	5.19
531.265	5.2
531.463	5.28
531.661	5.24
531.859	5.24
532.057	5.23
532.255	5.24
532.454	5.28
532.652	5.28
532.85	5.36
533.048	5.35
533.246	5.39
533.444	5.44
533.642	5.47
533.84	5.49
534.038	5.5
534.236	5.59
534.434	5.61
534.632	5.58
534.83	5.55
535.027	5.53
535.225	5.56
535.423	5.58
535.621	5.53
535.819	5.45
536.017	5.46
536.215	5.47
536.412	5.41
536.61	5.43
536.808	5.47
537.006	5.55
537.203	5.51
537.401	5.56
537.599	5.58
537.797	5.59
537.994	5.68
538.192	5.76
538.39	5.75
538.587	5.78
538.785	5.78
538.983	5.79
539.18	5.78
539.378	5.78
539.575	5.76
539.773	5.8
539.97	5.82
540.168	5.81
540.366	5.81
540.563	5.88
540.761	5.92
540.958	5.97
541.155	6
541.353	6.07
541.55	6.1
541.748	6.09
541.945	6.11
542.143	6.14
542.34	6.2
542.537	6.23
542.735	6.26
542.932	6.36
543.129	6.33
543.327	6.33
543.524	6.35
543.721	6.31
543.919	6.42
544.116	6.4
544.313	6.39
544.51	6.41
544.708	6.41
544.905	6.46
545.102	6.43
545.299	6.54
545.496	6.61
545.693	6.66
545.891	6.71
546.088	6.71
546.285	6.79
546.482	6.87
546.679	6.87
546.876	6.89
547.073	6.85
547.27	6.89
547.467	6.81
547.664	6.85
547.861	6.78
548.058	6.84
548.255	6.9
548.452	6.88
548.649	6.93
548.846	7.06
549.043	7.23
549.24	7.22
549.437	7.26
549.633	7.45
549.83	7.41
550.027	7.5
550.224	7.56
550.421	7.54
550.618	7.58
550.814	7.54
551.011	7.53
551.208	7.57
551.405	7.67
551.601	7.68
551.798	7.66
551.995	7.71
552.191	7.69
552.388	7.69
552.585	7.72
552.781	7.75
552.978	7.83
553.175	7.8
553.371	7.81
553.568	7.75
553.764	7.69
553.961	7.68
554.157	7.88
554.354	7.93
554.55	8.01
554.747	8.09
554.943	8.2
555.14	8.2
555.336	8.29
555.533	8.32
555.729	8.4
555.926	8.56
556.122	8.63
556.318	8.45
556.515	8.41
556.711	8.45
556.907	8.48
557.104	8.52
557.3	8.58
557.496	8.69
557.693	8.7
557.889	8.77
558.085	8.66
558.281	8.68
558.478	8.82
558.674	8.91
558.87	8.87
559.066	8.93
559.262	8.97
559.459	8.99
559.655	8.91
559.851	8.84
560.047	8.98
560.243	9.13
560.439	9.23
560.635	9.21
560.831	9.36
561.027	9.55
561.223	9.58
561.419	9.61
561.615	9.62
561.811	9.8
562.007	9.98
562.203	9.92
562.399	10.03
562.595	10.13
562.791	10.24
562.987	10.22
563.183	10.22
563.379	10.16
563.575	10.2
563.771	10.37
563.966	10.4
564.162	10.38
564.358	10.41
564.554	10.36
564.75	10.33
564.945	10.3
565.141	10.24
565.337	10.26
565.533	10.23
565.728	10.32
565.924	10.25
566.12	10.2
566.315	10.24
566.511	10.3
566.707	10.22
566.902	10.24
567.098	10.26
567.293	10.35
567.489	10.29
567.684	10.45
567.88	10.41
568.076	10.48
568.271	10.63
568.467	10.68
568.662	10.75
568.858	10.93
569.053	10.93
569.248	10.95
569.444	10.91
569.639	11.07
569.835	11.11
570.03	11.09
570.225	11.2
570.421	11.2
570.616	11.21
570.812	11.17
571.007	11.08
571.202	11.19
571.397	11.25
571.593	11.32
571.788	11.29
571.983	11.3
572.178	11.44
572.374	11.32
572.569	11.31
572.764	11.37
572.959	11.41
573.154	11.47
573.35	11.48
573.545	11.5
573.74	11.43
573.935	11.44
574.13	11.45
574.325	11.41
574.52	11.54
574.715	11.59
574.91	11.58
575.105	11.63
575.3	11.69
575.495	11.6
575.69	11.61
575.885	11.71
576.08	11.76
576.275	11.8
576.47	11.76
576.665	11.69
576.86	11.76
577.055	11.83
577.25	11.83
577.444	11.99
577.639	12.09
577.834	12.12
578.029	12.09
578.224	12.13
578.418	12.14
578.613	12.23
578.808	12.33
579.003	12.29
579.197	12.26
579.392	12.39
579.587	12.2
579.781	12.3
579.976	12.34
580.171	12.41
580.365	12.5
580.56	12.55
580.755	12.7
580.949	12.79
581.144	12.78
581.338	12.82
581.533	12.72
581.727	12.92
581.922	12.92
582.116	12.95
582.311	13.11
582.505	13
582.7	13.01
582.894	13
583.089	12.91
583.283	12.93
583.478	12.93
583.672	12.96
583.866	12.93
584.061	12.98
584.255	12.9
584.449	12.92
584.644	13.06
584.838	13.17
585.032	13.03
585.226	13.15
585.421	13.15
585.615	13.2
585.809	13.23
586.003	13.19
586.198	13.22
586.392	13.24
586.586	13.2
586.78	13.08
586.974	12.95
587.168	13.04
587.363	12.94
587.557	12.95
587.751	12.91
587.945	12.98
588.139	13
588.333	13
588.527	13.07
588.721	12.98
588.915	13.16
589.109	13.3
589.303	13.34
589.497	13.34
589.691	13.4
589.885	13.44
590.079	13.42
590.273	13.47
590.466	13.32
590.66	13.26
590.854	13.35
591.048	13.18
591.242	13.1
591.436	13.05
591.629	13.05
591.823	13.08
592.017	13.01
592.211	13
592.404	13.1
592.598	13.21
592.792	13.28
592.986	13.34
593.179	13.5
593.373	13.46
593.567	13.53
593.76	13.63
593.954	13.56
594.147	13.73
594.341	13.79
594.535	13.75
594.728	13.78
594.922	13.79
595.115	13.76
595.309	13.69
595.502	13.75
595.696	13.73
595.889	13.66
596.083	13.82
596.276	13.79
596.47	13.72
596.663	13.74
596.856	13.73
597.05	13.76
597.243	13.76
597.437	13.69
597.63	13.77
597.823	13.83
598.017	13.89
598.21	13.91
598.403	13.97
598.596	13.86
598.79	13.79
598.983	13.8
599.176	13.69
599.369	13.62
599.563	13.8
599.756	13.9
599.949	13.69
600.142	13.78
600.335	13.72
600.528	13.59
600.722	13.74
600.915	13.71
601.108	13.71
601.301	13.92
601.494	14.08
601.687	14.17
601.88	14.03
602.073	14.1
602.266	14.11
602.459	14.13
602.652	14.23
602.845	14.31
603.038	14.4
603.231	14.36
603.424	14.21
603.617	14.05
603.809	13.96
604.002	13.99
604.195	14
604.388	14.03
604.581	14.06
604.774	14.09
604.966	13.98
605.159	13.92
605.352	13.98
605.545	14.14
605.737	14.33
605.93	14.33
606.123	14.27
606.316	14.34
606.508	14.2
606.701	14.07
606.894	13.92
607.086	13.99
607.279	14.05
607.471	14.12
607.664	13.97
607.857	14
608.049	14.04
608.242	14.03
608.434	14.12
608.627	14.22
608.819	14.31
609.012	14.32
609.204	14.36
609.397	14.42
609.589	14.37
609.782	14.43
609.974	14.34
610.166	14.34
610.359	14.53
610.551	14.32
610.743	14.24
610.936	14.23
611.128	14.36
611.32	14.43
611.513	14.31
611.705	14.42
611.897	14.45
612.09	14.61
612.282	14.54
612.474	14.56
612.666	14.61
612.858	14.77
613.051	14.56
613.243	14.38
613.435	14.32
613.627	14.44
613.819	14.5
614.011	14.4
614.203	14.23
614.395	14.26
614.588	14.18
614.78	14.26
614.972	14.04
615.164	14.09
615.356	14.24
615.548	13.98
615.74	13.88
615.932	13.78
616.124	14
616.315	13.87
616.507	13.91
616.699	13.93
616.891	13.89
617.083	14
617.275	14.06
617.467	14.19
617.659	14.24
617.85	14.29
618.042	14.38
618.234	14.27
618.426	14.51
618.618	14.43
618.809	14.34
619.001	14.38
619.193	14.34
619.384	14.52
619.576	14.46
619.768	14.65
619.959	14.58
620.151	14.6
620.343	14.73
620.534	14.65
620.726	14.77
620.917	14.95
621.109	14.98
621.301	15.05
621.492	14.92
621.684	14.8
621.875	14.65
622.067	14.8
622.258	14.56
622.45	14.53
622.641	14.47
622.832	14.57
623.024	14.44
623.215	14.36
623.407	14.53
623.598	14.33
623.789	14.32
623.981	14.48
624.172	14.51
624.363	14.66
624.555	14.62
624.746	14.68
624.937	14.52
625.129	14.57
625.32	14.82
625.511	14.54
625.702	14.79
625.893	14.8
626.085	14.85
626.276	14.71
626.467	14.74
626.658	14.81
626.849	14.78
627.04	14.87
627.231	14.9
627.422	14.8
627.614	14.89
627.805	14.68
627.996	14.53
628.187	14.38
628.378	14.45
628.569	14.34
628.76	14.33
628.951	14.3
629.142	14.3
629.332	14.24
629.523	14.11
629.714	14.19
629.905	14.51
630.096	14.88
630.287	15.09
630.478	15.14
630.669	15.22
630.859	15.04
631.05	15.26
631.241	15.29
631.432	15.22
631.623	15.28
631.813	15.19
632.004	14.98
632.195	14.82
632.385	14.75
632.576	14.6
632.767	14.54
632.957	14.64
633.148	14.64
633.339	14.53
633.529	14.65
633.72	14.71
633.91	14.84
634.101	15.02
634.292	15.07
634.482	15.09
634.673	15.25
634.863	15.29
635.054	15.38
635.244	15.39
635.435	15.44
635.625	15.35
635.815	15.22
636.006	15.26
636.196	15.18
636.387	15.15
636.577	15.06
636.767	14.94
636.958	14.82
637.148	14.77
637.338	14.73
637.529	14.84
637.719	14.93
637.909	14.99
638.099	14.88
638.29	14.81
638.48	14.9
638.67	14.93
638.86	14.88
639.05	14.88
639.241	14.87
639.431	14.53
639.621	14.52
639.811	14.56
640.001	14.73
640.191	14.92
640.381	14.87
640.571	14.76
640.761	14.86
640.951	14.95
641.141	15.06
641.331	15.13
641.521	15.38
641.711	15.41
641.901	15.42
642.091	15.51
642.281	15.42
642.471	15.61
642.661	15.63
642.851	15.6
643.041	15.75
643.231	15.94
643.42	15.98
643.61	16.02
643.8	16.1
643.99	15.92
644.18	15.85
644.369	15.83
644.559	15.55
644.749	15.45
644.939	15.39
645.128	15.28
645.318	15.13
645.508	14.85
645.697	14.78
645.887	14.83
646.076	15.01
646.266	14.88
646.456	14.84
646.645	15.06
646.835	14.96
647.024	15.07
647.214	15.03
647.403	15.17
647.593	15.27
647.782	15.36
647.972	15.08
648.161	14.95
648.351	14.94
648.54	14.91
648.73	14.86
648.919	15.02
649.108	14.75
649.298	14.81
649.487	14.77
649.677	14.97
649.866	14.82
650.055	14.99
650.244	15
650.434	15.06
650.623	15.11
650.812	14.96
651.002	15.09
651.191	15.27
651.38	15.35
651.569	15.23
651.758	15.07
651.947	15.06
652.137	14.88
652.326	14.89
652.515	14.79
652.704	15.1
652.893	15.59
653.082	15.47
653.271	15.49
653.46	15.3
653.649	15.52
653.838	15.57
654.027	15.7
654.216	15.79
654.405	15.79
654.594	15.85
654.783	15.55
654.972	15.18
655.161	15.27
655.35	15.3
655.539	15.38
655.728	15.39
655.916	15.27
656.105	15.14
656.294	15.03
656.483	15.07
656.672	14.94
656.86	15.04
657.049	14.98
657.238	14.96
657.427	14.97
657.615	15.08
657.804	14.8
657.993	15
658.181	15.1
658.37	15.28
658.559	15.3
658.747	15.52
658.936	15.36
659.125	15.2
659.313	15.12
659.502	15.14
659.69	15.04
659.879	15.05
660.067	14.86
660.256	14.82
660.444	14.7
660.633	14.7
660.821	14.62
661.01	14.74
661.198	15.06
661.387	15.18
661.575	15.19
661.763	15.25
661.952	15.14
662.14	15.13
662.328	14.98
662.517	14.99
662.705	14.85
662.893	14.79
663.082	14.5
663.27	14.46
663.458	14.54
663.646	14.52
663.834	14.55
664.023	14.63
664.211	15.01
664.399	15.12
664.587	14.95
664.775	14.8
664.963	14.89
665.152	14.93
665.34	14.93
665.528	14.72
665.716	14.53
665.904	14.51
666.092	14.66
666.28	14.45
666.468	14.61
666.656	14.83
666.844	14.89
667.032	14.7
667.22	14.88
667.408	14.88
667.596	14.8
667.784	15.02
667.971	15.13
668.159	15.02
668.347	15.09
668.535	14.99
668.723	14.89
668.911	15.05
669.098	15.29
669.286	15.25
669.474	15.27
669.662	15.67
669.849	15.64
670.037	15.62
670.225	15.67
670.413	15.26
670.6	15.3
670.788	15.61
670.976	15.91
671.163	15.78
671.351	15.96
671.538	15.74
671.726	15.58
671.913	15.61
672.101	15.38
672.289	15.68
672.476	15.93
672.664	16.09
672.851	15.91
673.039	15.62
673.226	15.62
673.413	15.4
673.601	15.46
673.788	15.45
673.976	15.44
674.163	15.66
674.35	15.52
674.538	15.69
674.725	15.67
674.912	15.47
675.1	15.58
675.287	15.37
675.474	15.4
675.662	15.55
675.849	15.49
676.036	15.35
676.223	15.24
676.411	15.26
676.598	15.08
676.785	15.07
676.972	15.05
677.159	14.98
677.346	15.4
677.533	15.22
677.721	14.97
677.908	14.77
678.095	15
678.282	15.03
678.469	15.17
678.656	15.31
678.843	15.07
679.03	15.22
679.217	15.24
679.404	14.98
679.591	15.09
679.778	15.33
679.964	15.34
680.151	15.15
680.338	15.08
680.525	14.78
680.712	14.67
680.899	14.69
681.086	14.92
681.272	14.88
681.459	14.82
681.646	14.86
681.833	14.82
682.02	14.98
682.206	14.85
682.393	14.94
682.58	15.25
682.766	15.39
682.953	15.65
683.14	15.29
683.326	15.48
683.513	15.83
683.7	15.65
683.886	15.77
684.073	15.79
684.259	16
684.446	16
684.632	15.89
684.819	15.63
685.005	15.48
685.192	15.61
685.378	15.45
685.565	15.29
685.751	15.42
685.938	15.28
686.124	15.22
686.31	15.32
686.497	15.16
686.683	15.06
686.87	15.07
687.056	15.02
687.242	15.09
687.429	14.89
687.615	14.99
687.801	15.22
687.987	15.27
688.174	15.53
688.36	15.53
688.546	15.49
688.732	15.28
688.918	15.39
689.105	15.29
689.291	15.01
689.477	15.11
689.663	15.07
689.849	15.05
690.035	15.34
690.221	15.29
690.407	14.96
690.593	15.16
690.779	15.39
690.965	15.27
691.151	15.39
691.337	15.58
691.523	15.92
691.709	15.81
691.895	15.76
692.081	15.25
692.267	15.02
692.453	15.07
692.639	15.11
692.825	15.06
693.011	15.56
693.196	15.49
693.382	15.62
693.568	15.6
693.754	15.26
693.94	15.11
694.125	15.46
694.311	15.52
694.497	15.7
694.682	15.48
694.868	15.44
695.054	15.19
695.239	15.45
695.425	15.29
695.611	15.39
695.796	15.67
695.982	15.51
696.168	15.62
696.353	15.72
696.539	15.83
696.724	16.02
696.91	16.26
697.095	16.15
697.281	16.18
697.466	16.16
697.652	15.79
697.837	15.7
698.023	15.98
698.208	15.8
698.393	15.7
698.579	15.5
698.764	15.64
698.949	15.39
699.135	15.51
699.32	15.49
699.505	15.59
699.691	15.79
699.876	16.07
700.061	15.97
700.246	16.16
700.432	16.3
700.617	16.48
700.802	16.4
700.987	16.6
701.172	16.49
701.358	16.63
701.543	16.76
701.728	16.91
701.913	16.6
702.098	16.72
702.283	16.87
702.468	16.7
702.653	16.51
702.838	16.51
703.023	16.46
703.208	16.74
703.393	16.37
703.578	16.17
703.763	15.95
703.948	16.08
704.133	16.16
704.318	15.97
704.503	16.5
704.688	16.61
704.873	16.34
705.057	16.46
705.242	16.58
705.427	16.86
705.612	16.85
705.797	17.08
705.981	16.88
706.166	16.91
706.351	16.85
706.536	16.23
706.72	16.27
706.905	16.09
707.09	16.15
707.274	15.96
707.459	15.77
707.644	15.55
707.828	15.25
708.013	15.28
708.197	15.06
708.382	14.98
708.567	15.41
708.751	15.23
708.936	15.67
709.12	15.35
709.305	15.23
709.489	15.09
709.673	15.37
709.858	15.71
710.042	16.16
710.227	15.96
710.411	15.84
710.596	15.65
710.78	15.81
710.964	15.25
711.149	15.05
711.333	15.13
711.517	15.37
711.702	15.27
711.886	14.87
712.07	14.49
712.254	14.22
712.438	14.62
712.623	14.79
712.807	14.74
712.991	15.1
713.175	15.7
713.359	15.63
713.544	15.48
713.728	15.18
713.912	15.34
714.096	15.56
714.28	16.02
714.464	15.84
714.648	15.7
714.832	15.41
715.016	15.29
715.2	15.1
715.384	15.12
715.568	15.23
715.752	15.75
715.936	15.64
716.12	15.65
716.304	15.63
716.488	15.67
716.671	15.61
716.855	16.08
717.039	15.96
717.223	15.96
717.407	16.14
717.59	16.06
717.774	15.7
717.958	15.75
718.142	15.63
718.325	15.37
718.509	15.13
718.693	15.27
718.877	15.05
719.06	15.58
719.244	15.79
719.428	15.72
719.611	15.9
719.795	15.91
719.978	15.72
720.162	15.7
720.345	15.92
720.529	16.26
720.713	16.3
720.896	16.29
721.08	16.07
721.263	15.93
721.446	15.71
721.63	15.62
721.813	15.54
721.997	15.53
722.18	15.84
722.364	15.62
722.547	15.34
722.73	15.66
722.914	15.84
723.097	15.62
723.28	15.59
723.464	15.39
723.647	15.07
723.83	15.38
724.013	15.43
724.197	15.3
724.38	15.82
724.563	15.89
724.746	15.54
724.929	16
725.112	16.68
725.296	16.49
725.479	16.8
725.662	16.62
725.845	16.54
726.028	17.11
726.211	17.29
726.394	17.13
726.577	17.48
726.76	17.37
726.943	17.12
727.126	16.88
727.309	16.64
727.492	16.28
727.675	16.75
727.858	16.74
728.041	16.18
728.224	16.03
728.407	15.67
728.589	15.52
728.772	15.76
728.955	15.55
729.138	15.6
729.321	15.76
729.503	15.96
729.686	15.61
729.869	15.71
730.052	15.9
730.234	15.77
730.417	16.34
730.6	16.31
730.782	16.39
730.965	16.45
731.148	16.19
731.33	15.95
731.513	15.69
731.695	15.97
731.878	16.27
732.061	16.41
732.243	16.4
732.426	15.97
732.608	15.83
732.791	15.52
732.973	15.49
733.156	15.31
733.338	15.71
733.52	16.47
733.703	16.45
733.885	16.34
734.068	16.1
734.25	16.22
734.432	16.69
734.615	16.5
734.797	16.5
734.979	16.6
735.162	16.7
735.344	16.96
735.526	16.83
735.708	16.9
735.891	16.67
736.073	16.5
736.255	16.67
736.437	16.38
736.619	16.54
736.802	16.47
736.984	16.97
737.166	16.89
737.348	16.55
737.53	16.13
737.712	15.9
737.894	15.57
738.076	16.14
738.258	16.14
738.44	16.41
738.622	15.75
738.804	16.54
738.986	15.98
739.168	16.11
739.35	16
739.532	16.27
739.714	16.2
739.896	16.39
740.078	16.1
740.259	15.63
740.441	15.28
740.623	15.9
740.805	15.38
740.987	14.91
741.168	14.74
741.35	14.98
741.532	14.66
741.714	14.59
741.895	14.03
742.077	13.91
742.259	14.29
742.44	14.75
742.622	15.18
742.804	15.5
742.985	15.96
743.167	16.28
743.348	16.47
743.53	16.5
743.711	16.74
743.893	17.14
744.075	17.34
744.256	16.6
744.438	16.21
744.619	15.59
744.8	15.12
744.982	15.06
745.163	14.9
745.345	14.33
745.526	14.41
745.707	14.62
745.889	14.87
746.07	14.86
746.252	15.12
746.433	15.11
746.614	15.09
746.795	14.43
746.977	14.29
747.158	14.46
747.339	14.91
747.52	14.34
747.702	14.37
747.883	14.96
748.064	14.69
748.245	14.87
748.426	14.53
748.607	15.23
748.788	16.14
748.97	16.24
749.151	15.65
749.332	15.22
749.513	15.57
749.694	15.24
749.875	14.49
750.056	14.61
750.237	14.74
750.418	14.57
750.599	13.84
750.78	13.64
750.96	13.42
751.141	13.8
751.322	14.01
751.503	13.87
751.684	14.01
751.865	15.02
752.046	14.87
752.226	15.37
752.407	15.54
752.588	15.96
752.769	15.93
752.949	16.52
753.13	16.5
753.311	16.07
753.492	15.91
753.672	16.25
753.853	15.53
754.034	15.84
754.214	15.05
754.395	15.53
754.575	15.54
754.756	15.21
754.937	14.57
755.117	14.92
755.298	15.94
755.478	15.93
755.659	15.05
755.839	15.25
756.02	15.44
756.2	15.55
756.381	15.36
756.561	15.08
756.741	15.13
756.922	15.72
757.102	15.39
757.283	15.26
757.463	15.75
757.643	16.57
757.823	16.22
758.004	16.01
758.184	15.49
758.364	15.28
758.545	14.98
758.725	15.46
758.905	15.16
759.085	15.54
759.265	15.51
759.446	15.59
759.626	15.7
759.806	15.5
759.986	14.97
760.166	15.93
760.346	16.04
760.526	16.43
760.706	16.36
760.886	17.3
761.066	17.37
761.246	16.99
761.426	16.84
761.606	16.53
761.786	16.82
761.966	17.16
762.146	16.57
762.326	17.09
762.506	17.01
762.686	16.78
762.866	16.39
763.046	16.29
763.225	16.47
763.405	16.48
763.585	16.36
763.765	16.07
763.945	15.53
764.124	15.87
764.304	15.5
764.484	15.96
764.664	15.99
764.843	15.79
765.023	15.9
765.203	15.72
765.382	15.9
765.562	16.11
765.741	16.84
765.921	17.52
766.101	17.8
766.28	17.79
766.46	17.56
766.639	17.55
766.819	17.08
766.998	16.99
767.178	17.49
767.357	16.63
767.537	16.6
767.716	16.29
767.896	16.86
768.075	16.66
768.254	16.45
768.434	15.97
768.613	16.2
768.792	16.47
768.972	15.33
769.151	14.49
769.33	15.51
769.51	15.38
769.689	15.21
769.868	14.52
770.047	14.55
770.226	14.78
770.406	15.62
770.585	15.27
770.764	15.22
770.943	16.61
771.122	16.69
771.301	16.66
771.48	16.88
771.66	16.44
771.839	16.42
772.018	16.35
772.197	16.57
772.376	16.65
772.555	17.19
772.734	17.63
772.913	17.23
773.092	17.45
773.271	16.74
773.449	16.96
773.628	17
773.807	17.87
773.986	17.54
774.165	18.15
774.344	17.93
774.523	16.88
774.701	16.74
774.88	16.8
775.059	15.88
775.238	16.55
775.417	15.43
775.595	15.71
775.774	14.63
775.953	14.93
776.131	14.12
776.31	13.38
776.489	13.81
776.667	14.42
776.846	14.62
777.025	14.92
777.203	14.36
777.382	15.17
777.56	15.49
777.739	16.92
777.917	17.21
778.096	17.27
778.274	17.38
778.453	17.52
778.631	16.74
778.81	16.44
778.988	17.69
779.166	18.46
779.345	18.83
779.523	18.35
779.702	17.27
779.88	16.85
780.058	17.13
780.237	17.65
780.415	17.35
780.593	17.85
780.771	17.91
780.95	17.23
781.128	16.55
781.306	16.14
781.484	16.04
781.662	15.61
781.841	15.05
782.019	14.83
782.197	13.73
782.375	14.65
782.553	15.05
782.731	14.65
782.909	15.01
783.087	15.09
783.265	14.68
783.443	15.1
783.621	15.05
783.799	14.77
783.977	15.31
784.155	15.61
784.333	14.61
784.511	13.17
784.689	13.86
784.867	13.5
785.045	14.62
785.223	14.6
785.4	14.31
785.578	14.79
785.756	14.86
785.934	14.2
786.112	14.24
786.289	14.52
786.467	15.07
786.645	15.03
786.823	15.05
787	14.7
787.178	14.98
787.356	14.72
787.533	14.95
787.711	16.13
787.889	15.94
788.066	15.54
788.244	16.65
788.421	17.04
788.599	17.79
788.776	17.77
788.954	17.54
789.131	18.13
789.309	18.82
789.486	18.5
789.664	18.36
789.841	19.22
790.019	19.5
790.196	17.91
790.373	17.34
790.551	15.95
790.728	16.31
790.906	16.8
791.083	16
791.26	15.44
791.437	15.11
791.615	14.48
791.792	13.69
791.969	13.67
792.146	14.55
792.324	15.25
792.501	16.99
792.678	15.82
792.855	15.4
793.032	16.58
793.209	17.65
793.387	18.08
793.564	18
793.741	17.99
793.918	19.56
794.095	20.32
794.272	18.99
794.449	17.73
794.626	19.23
794.803	19.23
794.98	18.18
795.157	17.53
795.334	18.26
795.511	18.8
795.688	18.19
795.864	16.78
796.041	16.43
796.218	17.1
796.395	17.03
796.572	16.73
796.749	16.09
796.925	15.55
797.102	15.86
797.279	15.14
797.456	14.58
797.632	15.18
797.809	15.58
797.986	15.98
798.162	15.87
798.339	15.99
798.516	15.89
798.692	16.81
798.869	17.68
799.046	17.72
799.222	17.71
799.399	18.5
799.575	17.64
799.752	17.16
799.928	16.4
800.105	16.31
800.281	15.84
800.458	15.03
800.634	14.16
800.811	13.24
800.987	11.73
801.163	12.85
801.34	12.53
801.516	13.19
801.692	13.69
801.869	13.47
802.045	14.39
802.221	14.15
802.398	15.72
802.574	16.37
802.75	16.97
802.926	17.54
803.103	17.27
803.279	16.84
803.455	17.43
803.631	16.28
803.807	16.12
803.983	15.07
804.16	16.09
804.336	14.54
804.512	14.35
804.688	15.17
804.864	15.36
805.04	14.76
805.216	13.92
805.392	14.68
805.568	16.52
805.744	16.61
805.92	16.94
806.096	14.96
806.272	15.67
806.448	15.4
806.623	14.76
806.799	15.56
806.975	15.21
807.151	15.47
807.327	14.61
807.503	14.07
807.678	13.74
807.854	14.83
808.03	15.72
808.206	15.76
808.381	16.22
808.557	16.05
808.733	15.74
808.908	16.15
809.084	16.71
809.26	17.29
809.435	15.93
809.611	16.27
809.787	16.2
809.962	17.28
810.138	17.51
810.313	17.37
810.489	17.1
810.664	16.73
810.84	16.84
811.015	17.17
811.191	16.25
811.366	17.38
811.542	17.09
811.717	15.88
811.892	14.97
812.068	14.7
812.243	14.41
812.419	15.34
812.594	15.28
812.769	15.54
812.944	14.81
813.12	14.34
813.295	14.89
813.47	14.41
813.645	14.92
813.821	16.25
813.996	16.46
814.171	17.85
814.346	16.28
814.521	15.8
814.697	15.86
814.872	16.87
815.047	17
815.222	15.61
815.397	15.65
815.572	15.78
815.747	14.3
815.922	15.64
816.097	13.92
816.272	15.65
816.447	16.48
816.622	14.7
816.797	14.59
816.972	13.95
817.147	14.28
817.322	15.29
817.496	14.53
817.671	14.71
817.846	12.34
818.021	13.53
818.196	12.21
818.371	12.24
818.545	13.6
818.72	12.96
818.895	13.73
819.069	15.01
819.244	15.14
819.419	14.58
819.594	14.36
819.768	14.79
819.943	15.15
820.117	15.41
820.292	15.26
820.467	15.45
820.641	15.63
820.816	15.63
820.99	15.47
821.165	15.4
821.339	15.8
821.514	15.91
821.688	16.3
821.863	16.33
822.037	16.52
822.212	16.62
822.386	16.7
822.56	16.92
822.735	16.9
822.909	16.83
823.084	16.9
823.258	16.91
823.432	17.17
823.606	16.67
823.781	16.52
823.955	16.37
824.129	16.33
824.303	16.59
824.478	16.39
824.652	16.45
824.826	16.5
825	16.14
825.174	16.53
825.348	16.57
825.523	16.97
825.697	17
825.871	17.26
826.045	17.04
826.219	16.49
826.393	16.05
826.567	16.29
826.741	16.28
826.915	16.59
827.089	16.46
827.263	16.28
827.437	15.99
827.611	16.39
827.784	16.12
827.958	16.14
828.132	16.21
828.306	16.5
828.48	16.16
828.654	15.75
828.827	15.6
829.001	15.49
829.175	15.23
829.349	15.64
829.522	14.67
829.696	14.14
829.87	14.64
830.044	13.89
830.217	14.42
830.391	14.76
830.565	15.47
830.738	15.55
830.912	14.93
831.085	15.87
831.259	15.15
831.432	15.22
831.606	16.9
831.779	16.62
831.953	16.98
832.126	17.54
832.3	17.62
832.473	17.54
832.647	17.48
832.82	17.46
832.994	17.43
833.167	17.23
833.34	17.17
833.514	16.51
833.687	15.99
833.86	15.86
834.034	15.11
834.207	14.98
834.38	15.27
834.553	15.16
834.727	15.31
834.9	14.44
835.073	14.94
835.246	15.12
835.419	15
835.593	15.55
835.766	15.47
835.939	15.64
836.112	14.65
836.285	14.59
836.458	15.11
836.631	15.04
836.804	15.9
836.977	16.14
837.15	14.47
837.323	14.38
837.496	14.71
837.669	14.3
837.842	15.63
838.015	16.74
838.188	15.69
838.361	16.16
838.533	16.79
838.706	15.74
838.879	14.49
839.052	14.93
839.225	15.49
839.398	16.99
839.57	16.68
839.743	15.86
839.916	15.52
840.088	15.7
840.261	15.06
840.434	14.92
840.607	15.08
840.779	15.89
840.952	17.09
841.124	16.74
841.297	16.5
841.47	19.84
841.642	17.82
841.815	19.64
841.987	19.58
842.16	20.85
842.332	21.13
842.505	23.72
842.677	24.65
842.85	23.68
843.022	23.9
843.194	20.82
843.367	19.02
843.539	22.73
843.712	20.28
843.884	20.18
844.056	19.5
844.229	17.85
844.401	14.41
844.573	15.42
844.745	16.18
844.918	17.87
845.09	22.37
845.262	20.14
845.434	18.28
845.606	21.66
845.779	23.17
845.951	20.91
846.123	23.04
846.295	23.72
846.467	20.86
846.639	21.97
846.811	22.26
846.983	17.51
847.155	18.29
847.327	16.06
847.499	12.96
847.671	13.54
847.843	12.9
848.015	12.6
848.187	15.89
848.359	15.32
848.531	15.72
848.703	14.28
848.875	15.78
849.047	14.05
849.218	13.65
849.39	14.86
849.562	14.35
849.734	15.03
849.905	14.71
850.077	10.03
850.249	11.4
850.421	10.38
850.592	10.84
850.764	11.03
850.936	14.35
851.107	15.27
851.279	12.07
851.451	13.11
851.622	13.72
851.794	13.82
851.965	15.46
852.137	17.46
852.308	18.47
852.48	16.15
852.651	16.26
852.823	13.85
852.994	17.59
853.166	21.58
853.337	20.18
853.509	20.21
853.68	19.06
853.851	22.15
854.023	20.42
854.194	24.71
854.365	26.51
854.537	25.34
854.708	27.71
854.879	25.42
855.05	23.24
855.222	20.46
855.393	19.79
855.564	17.14
855.735	14.55
855.906	16.03
856.078	12.76
856.249	8.68
856.42	8.91
856.591	11.27
856.762	12.15
856.933	12.65
857.104	14.6
857.275	14.99
857.446	19.07
857.617	16.41
857.788	14.35
857.959	11.39
858.13	13.09
858.301	13.48
858.472	9.87
858.643	10.91
858.814	9.79
858.985	11.64
859.155	14.8
859.326	14.23
859.497	16.61
859.668	19.2
859.839	20.4
860.009	20.88
860.18	21.57
860.351	24.17
860.522	23.38
860.692	24.98
860.863	21.96
861.034	18.12
861.204	18.04
861.375	17.92
861.546	16.23
861.716	17.26
861.887	14.73
862.057	14.81
862.228	14.55
862.398	14.35
862.569	14.52
862.739	17.36
862.91	18.62
863.08	17.37
863.251	21.12
863.421	21.36
863.592	18.94
863.762	21.75
863.932	20.55
864.103	19.24
864.273	19.39
864.443	18.86
864.614	18.87
864.784	18.03
864.954	17.46
865.125	17.42
865.295	19.64
865.465	19.97
865.635	15.61
865.805	13.71
865.976	16.13
866.146	16.91
866.316	14.41
866.486	13.2
866.656	14.48
866.826	16.89
866.996	11.5
867.166	8.63
867.336	10.48
867.506	13.81
867.676	15.73
867.846	13.79
868.016	14.09
868.186	15.61
868.356	14.35
868.526	13.89
868.696	13.03
868.866	13.99
869.036	15.26
869.206	15.3
869.376	18.6
869.545	18.06
869.715	16.44
869.885	12.37
870.055	12.44
870.224	14.13
870.394	15.16
870.564	14.95
870.734	19.26
870.903	20.63
871.073	20.94
871.243	20.39
871.412	23.34
871.582	26.62
871.751	30.61
871.921	31.09
872.091	29.5
872.26	25.78
872.43	25.72
872.599	23.03
872.769	22.82
872.938	21.47
873.108	19.17
873.277	18.64
873.446	16.85
873.616	14.63
873.785	13.65
873.955	17.15
874.124	20.1
874.293	21.78
874.463	22.29
874.632	20.58
874.801	16.83
874.971	14.79
875.14	12.5
875.309	11.7
875.478	16.68
875.647	21.01
875.817	19.57
875.986	15.75
876.155	12.82
876.324	12.26
876.493	11.77
876.662	15.3
876.831	18.01
877	14.58
877.17	16.34
877.339	14.31
877.508	12.51
877.677	8.1
877.846	7.84
878.015	10.26
878.184	8.94
878.352	9.85
878.521	12.2
878.69	15.15
878.859	17.89
879.028	18.85
879.197	18.33
879.366	17.92
879.534	21.26
879.703	22.34
879.872	21.66
880.041	21.15
880.21	21.14
880.378	19.68
880.547	17.42
880.716	17.65
880.884	16.54
881.053	16.16
881.222	16.22
881.39	16.29
881.559	16.63
881.727	15.68
881.896	16.1
882.065	17.04
882.233	17.35
882.402	17.97
882.57	17.77
882.739	18.24
882.907	18.21
883.076	18.5
883.244	18.24
883.412	18.41
883.581	19.26
883.749	19.72
883.918	18.24
884.086	18.41
884.254	17.89
884.423	17.98
884.591	17.03
884.759	17.2
884.927	16.56
885.096	16.96
885.264	16.31
885.432	15.29
885.6	14.63
885.769	14.83
885.937	13.83
886.105	14.93
886.273	14.73
886.441	13.71
886.609	11.99
886.777	10.89
886.945	6.93
887.113	6.73
887.281	9.75
887.449	9.04
887.617	10.61
887.785	10.58
887.953	9.69
888.121	9.65
888.289	12.58
888.457	15.41
888.625	19.27
888.793	22.06
888.961	23.07
889.129	21.39
889.296	21.35
889.464	20.28
889.632	20.85
889.8	20.43
889.967	21.66
890.135	22.39
