Data from 2938518_Reflection_2.txt Node
Date: Tue Jun 16 22:24:31 EDT 2015
User: robert
Spectrometer: USB4E03002
Autoset integration time: false
Trigger mode: 4
Integration Time (sec): 1.000000E-1
Scans to average: 10
Electric dark correction enabled: true
Nonlinearity correction enabled: false
Boxcar width: 5
Stray light correction enabled: false
XAxis mode: Wavelengths
Stop averaging: false
Number of Pixels in Spectrum: 3648
>>>>>Begin Spectral Data<<<<<
177.575	-241.44
177.794	-180.06
178.014	-96.68
178.233	-64.94
178.452	-22.07
178.672	-8.95
178.891	133.28
179.11	2467.77
179.33	6451.41
179.549	1667.94
179.768	681.22
179.987	1060.59
180.207	988.58
180.426	403.35
180.645	268.23
180.864	238.04
181.084	243.32
181.303	187.41
181.522	134.55
181.741	121.17
181.96	123.47
182.179	117.03
182.398	99.32
182.618	84.95
182.837	87.29
183.056	98.37
183.275	103.37
183.494	96.46
183.713	108.74
183.932	115.45
184.151	97.56
184.37	105.4
184.589	125.42
184.808	134.08
185.027	150.68
185.246	173.22
185.465	155.41
185.684	177.32
185.903	181.82
186.122	183.16
186.341	182.3
186.56	261.23
186.779	251.14
186.998	249.32
187.216	223.39
187.435	327.5
187.654	430.11
187.873	656.55
188.092	898.29
188.311	-840.74
188.53	-484.08
188.748	-649.91
188.967	-12829.17
189.186	720.1
189.405	341.1
189.623	268.32
189.842	264.17
190.061	168.37
190.28	158.86
190.498	108.16
190.717	127.67
190.936	115.16
191.154	111.28
191.373	104.17
191.592	122.32
191.81	115.28
192.029	141.44
192.248	132.76
192.466	178.55
192.685	151.08
192.904	168.42
193.122	140.87
193.341	150.7
193.559	136.03
193.778	137
193.996	151.95
194.215	169.39
194.433	162.27
194.652	152.29
194.87	153.39
195.089	160.23
195.307	160.53
195.526	185.77
195.744	182.03
195.963	208.57
196.181	211.36
196.399	221.94
196.618	224.72
196.836	198.99
197.055	175.22
197.273	158.78
197.491	155.98
197.71	181.49
197.928	139.37
198.146	144.1
198.365	131.43
198.583	123.31
198.801	109.47
199.019	102.51
199.238	119.93
199.456	115.05
199.674	133.2
199.892	134.28
200.111	104.99
200.329	105.03
200.547	76.4
200.765	61.41
200.983	79.57
201.202	79.61
201.42	102.78
201.638	109.9
201.856	129
202.074	127.61
202.292	147.4
202.51	142.52
202.728	142.59
202.946	174.34
203.165	184.88
203.383	217.89
203.601	246.03
203.819	177.79
204.037	148.22
204.255	121.02
204.473	97.98
204.691	105.18
204.909	124.99
205.127	129.95
205.345	112.28
205.562	99.67
205.78	111.3
205.998	93.49
206.216	109.42
206.434	116.5
206.652	124.95
206.87	125.43
207.088	121.21
207.306	110.34
207.523	110.58
207.741	113.12
207.959	130.24
208.177	114.76
208.395	114.53
208.612	120.76
208.83	117.63
209.048	115.56
209.266	113.6
209.483	94.3
209.701	88.29
209.919	101.65
210.136	108.59
210.354	113.42
210.572	120.34
210.79	122.85
211.007	104.49
211.225	107.33
211.442	100.05
211.66	114.49
211.878	132.85
212.095	149.67
212.313	152.59
212.53	168.72
212.748	153.44
212.966	141.42
213.183	129.14
213.401	154.19
213.618	135.65
213.836	151.37
214.053	126.22
214.271	125.64
214.488	110.9
214.705	103.59
214.923	88.67
215.14	81.1
215.358	83.82
215.575	91.84
215.793	80.43
216.01	79.52
216.227	64.62
216.445	70.3
216.662	67.64
216.879	73.25
217.097	64.78
217.314	67.92
217.531	68.96
217.749	72.45
217.966	77.21
218.183	76.31
218.4	69.9
218.618	78.69
218.835	73.37
219.052	74.7
219.269	74.23
219.487	84.15
219.704	85.9
219.921	82.34
220.138	81.55
220.355	66.58
220.572	71.01
220.79	76.26
221.007	78.8
221.224	84.84
221.441	86.67
221.658	85.29
221.875	83.68
222.092	72.85
222.309	69.39
222.526	63.26
222.743	66.23
222.96	60.6
223.177	60.72
223.394	56.18
223.611	52.05
223.828	52.11
224.045	52.67
224.262	50.26
224.479	47.67
224.696	45.17
224.913	43.52
225.13	39.79
225.347	37.59
225.564	32.37
225.781	28.05
225.997	26.32
226.214	24.35
226.431	19.54
226.648	17.63
226.865	18.55
227.082	17.59
227.298	16.35
227.515	16.37
227.732	16.6
227.949	16.72
228.165	17.3
228.382	17.32
228.599	17.37
228.816	19.54
229.032	19.47
229.249	18.86
229.466	18.99
229.682	21.13
229.899	23.11
230.116	22.46
230.332	24.98
230.549	25.5
230.765	23.89
230.982	24.88
231.199	22.67
231.415	23.82
231.632	23.78
231.848	23.57
232.065	21.43
232.281	21.02
232.498	21.13
232.714	20.8
232.931	21.1
233.147	21.96
233.364	21.24
233.58	23.24
233.797	24.26
234.013	24.38
234.23	25.94
234.446	25.72
234.662	25.74
234.879	25.99
235.095	24.11
235.312	22.49
235.528	24.6
235.744	26.15
235.961	23.29
236.177	21.16
236.393	22.19
236.61	20.88
236.826	21.95
237.042	21.49
237.258	21.47
237.475	21.18
237.691	21.76
237.907	20.8
238.123	19.38
238.339	21.09
238.556	19.38
238.772	19.13
238.988	19.23
239.204	18.63
239.42	17.01
239.636	16.24
239.853	15.33
240.069	14.66
240.285	14.22
240.501	13.3
240.717	12.35
240.933	12.62
241.149	12.02
241.365	12.04
241.581	12
241.797	12.12
242.013	11.8
242.229	12.27
242.445	12.51
242.661	12.64
242.877	13.43
243.093	13.71
243.309	13.59
243.525	13.69
243.741	12.81
243.957	12.51
244.173	12.33
244.388	12.88
244.604	12.02
244.82	11.73
245.036	11.35
245.252	11.11
245.468	10.89
245.683	10.9
245.899	10.53
246.115	10.98
246.331	10.39
246.547	10.39
246.762	10.3
246.978	10.58
247.194	10.66
247.409	10.86
247.625	11.01
247.841	11.4
248.057	11.25
248.272	11.78
248.488	11.24
248.703	12.15
248.919	12.05
249.135	11.1
249.35	10.8
249.566	10.24
249.782	10.2
249.997	10.62
250.213	10.11
250.428	10.42
250.644	10.07
250.859	10.43
251.075	10.36
251.29	10.62
251.506	11.36
251.721	11.26
251.937	12.2
252.152	11.99
252.368	11.07
252.583	11.55
252.798	12.71
253.014	13.83
253.229	13.64
253.445	14.42
253.66	14.59
253.875	14.1
254.091	15.4
254.306	14.11
254.521	14.4
254.737	14.8
254.952	14.3
255.167	12.68
255.383	12.16
255.598	11.62
255.813	10.65
256.028	10.68
256.244	10.97
256.459	10.36
256.674	10.38
256.889	9.62
257.104	9.11
257.32	9.36
257.535	9.05
257.75	8.62
257.965	8.4
258.18	8.36
258.395	8.5
258.61	8.21
258.826	8.38
259.041	8.39
259.256	8.56
259.471	8.74
259.686	8.58
259.901	8.77
260.116	8.87
260.331	8.69
260.546	9
260.761	8.65
260.976	9.07
261.191	8.79
261.406	9.44
261.621	9.15
261.836	8.41
262.05	8.24
262.265	8.57
262.48	9.46
262.695	10.1
262.91	9.9
263.125	10.5
263.34	9.99
263.555	9.91
263.769	9.42
263.984	9.94
264.199	11.04
264.414	10.38
264.629	10.75
264.843	10.44
265.058	10.16
265.273	10.05
265.488	10.04
265.702	10.33
265.917	11.13
266.132	10.99
266.346	10.66
266.561	10.58
266.776	10.95
266.99	10.42
267.205	10.42
267.42	10.74
267.634	10.75
267.849	10.22
268.063	10
268.278	9.04
268.492	9.32
268.707	9.7
268.922	9.6
269.136	9.66
269.351	9.54
269.565	8.95
269.78	8.88
269.994	8.71
270.209	8.79
270.423	8.69
270.637	8.77
270.852	8.18
271.066	7.93
271.281	7.74
271.495	7.74
271.709	8.02
271.924	7.8
272.138	7.81
272.353	8.01
272.567	7.84
272.781	7.85
272.996	8.2
273.21	8.51
273.424	8.72
273.638	8.8
273.853	9.35
274.067	9.44
274.281	10.22
274.495	10.7
274.71	10.47
274.924	10.58
275.138	10.33
275.352	10
275.566	10.04
275.781	9.74
275.995	10.01
276.209	9.2
276.423	8.88
276.637	9.08
276.851	8.24
277.065	8.66
277.279	8.74
277.493	9.45
277.707	9.84
277.921	9.85
278.135	9.69
278.349	9.46
278.563	9.67
278.777	9.71
278.991	9.15
279.205	9.44
279.419	9.05
279.633	9.05
279.847	8.28
280.061	8.05
280.275	8.23
280.489	8.62
280.703	8.35
280.917	8.5
281.131	8.55
281.344	8.49
281.558	8.01
281.772	8.15
281.986	7.98
282.2	8.55
282.414	8.04
282.627	7.65
282.841	7.62
283.055	7.9
283.269	7.74
283.482	7.32
283.696	6.98
283.91	7.49
284.123	6.98
284.337	7.27
284.551	7.04
284.764	7.6
284.978	7.67
285.192	7.46
285.405	7.42
285.619	7.63
285.833	8.04
286.046	8.3
286.26	8.23
286.473	8.73
286.687	8.63
286.9	8.55
287.114	8.33
287.327	8.65
287.541	8.55
287.754	8.53
287.968	8.69
288.181	8.46
288.395	8.26
288.608	8.54
288.822	8.36
289.035	8.2
289.248	8.07
289.462	8.09
289.675	7.55
289.889	7.77
290.102	7.47
290.315	7.57
290.529	7.84
290.742	8.1
290.955	7.84
291.169	8.16
291.382	8.61
291.595	8.77
291.808	9
292.022	10.06
292.235	9.83
292.448	10.24
292.661	9.66
292.875	9.71
293.088	9.92
293.301	9.68
293.514	9.41
293.727	9.11
293.94	9.31
294.153	8.8
294.367	8.16
294.58	7.88
294.793	7.79
295.006	8.04
295.219	7.85
295.432	8.02
295.645	8
295.858	8.1
296.071	8
296.284	8.12
296.497	8.21
296.71	8.26
296.923	8.67
297.136	8.67
297.349	8.35
297.562	8.52
297.775	8.19
297.988	8.44
298.201	8.68
298.414	8.96
298.626	8.75
298.839	8.9
299.052	8.74
299.265	8.62
299.478	8.6
299.691	8.78
299.903	8.34
300.116	8.52
300.329	8.47
300.542	8.26
300.755	7.91
300.967	7.85
301.18	7.81
301.393	8.12
301.605	7.8
301.818	7.76
302.031	7.76
302.243	7.84
302.456	7.94
302.669	7.72
302.881	8.27
303.094	8.66
303.307	8.6
303.519	8.38
303.732	8.68
303.944	8.65
304.157	9
304.37	9.2
304.582	9.53
304.795	9.42
305.007	9.59
305.22	9.08
305.432	9.09
305.645	9.14
305.857	9.99
306.069	9.9
306.282	10.25
306.494	9.89
306.707	9.82
306.919	9.65
307.132	9.88
307.344	10.09
307.556	10.12
307.769	10.14
307.981	10.34
308.193	9.99
308.406	9.34
308.618	9.41
308.83	9.43
309.043	9.03
309.255	8.89
309.467	8.62
309.679	8.37
309.892	8.33
310.104	8.17
310.316	8.21
310.528	8.26
310.74	8.85
310.953	8.73
311.165	8.73
311.377	9
311.589	9.12
311.801	9.18
312.013	9.45
312.225	9.63
312.437	9.6
312.649	9.53
312.862	9.17
313.074	9
313.286	8.92
313.498	8.75
313.71	8.97
313.922	9.36
314.134	9.21
314.346	9.38
314.558	9
314.77	9.17
314.982	8.93
315.193	9
315.405	8.94
315.617	9.13
315.829	9.29
316.041	8.88
316.253	8.61
316.465	9.26
316.677	8.58
316.888	8.95
317.1	8.82
317.312	9.46
317.524	9.52
317.736	9.65
317.947	10.26
318.159	10.09
318.371	9.95
318.583	10.06
318.794	9.47
319.006	9.93
319.218	9.97
319.43	9.84
319.641	9.52
319.853	9.6
320.064	9.55
320.276	9.35
320.488	9.37
320.699	10.28
320.911	9.95
321.123	9.71
321.334	9.47
321.546	9.86
321.757	9.72
321.969	10.06
322.18	9.95
322.392	9.53
322.603	9.89
322.815	10.22
323.026	9.89
323.238	10.4
323.449	10.94
323.661	11.5
323.872	10.95
324.083	11.2
324.295	10.73
324.506	10.46
324.718	11.04
324.929	10.72
325.14	10.8
325.352	10.96
325.563	10.92
325.774	10.77
325.986	10.24
326.197	10.34
326.408	10.37
326.62	10.4
326.831	10.76
327.042	10.52
327.253	10.33
327.464	10.68
327.676	10.53
327.887	10.2
328.098	10.21
328.309	10.51
328.52	10.63
328.732	10.66
328.943	10.69
329.154	10.94
329.365	10.99
329.576	10.92
329.787	10.59
329.998	10.42
330.209	10.91
330.42	11.13
330.631	11.04
330.842	11.14
331.053	11
331.264	11.31
331.475	11.3
331.686	11.8
331.897	11.88
332.108	11.72
332.319	12.2
332.53	11.65
332.741	11.46
332.952	11.53
333.163	11.35
333.374	11.45
333.585	11.38
333.795	11.1
334.006	10.9
334.217	10.88
334.428	11.05
334.639	10.84
334.849	10.95
335.06	10.75
335.271	10.93
335.482	10.72
335.692	10.78
335.903	10.7
336.114	11.21
336.325	10.9
336.535	11.42
336.746	11.21
336.957	11.16
337.167	11.43
337.378	11.55
337.589	11.82
337.799	11.82
338.01	11.96
338.22	11.95
338.431	12.26
338.642	12.57
338.852	12.37
339.063	12.4
339.273	12.22
339.484	12.19
339.694	11.9
339.905	11.37
340.115	11.59
340.326	11.37
340.536	11.18
340.746	10.38
340.957	10.46
341.167	10.24
341.378	9.8
341.588	9.88
341.799	9.78
342.009	9.93
342.219	10.12
342.43	10.21
342.64	10.15
342.85	10.2
343.061	10.36
343.271	9.98
343.481	9.48
343.691	9.87
343.902	9.57
344.112	9.52
344.322	9.51
344.532	9.61
344.743	9.32
344.953	9.08
345.163	9.18
345.373	9.05
345.583	9.26
345.793	9.53
346.004	9.61
346.214	9.7
346.424	9.82
346.634	10.24
346.844	10.23
347.054	10.16
347.264	10.52
347.474	10.61
347.684	10.71
347.894	10.6
348.104	10.59
348.314	10.28
348.524	10.62
348.734	10.04
348.944	9.8
349.154	9.31
349.364	9.21
349.574	9.04
349.784	8.84
349.994	8.84
350.204	8.37
350.413	8.49
350.623	8.6
350.833	8.61
351.043	8.84
351.253	8.74
351.463	8.76
351.672	9.09
351.882	9.12
352.092	8.82
352.302	8.79
352.511	9.34
352.721	9.31
352.931	9.56
353.141	9.17
353.35	9.6
353.56	9.53
353.77	9.96
353.979	10.03
354.189	9.87
354.399	10.13
354.608	10.19
354.818	9.96
355.027	10.11
355.237	9.91
355.447	10.15
355.656	9.9
355.866	10.12
356.075	9.72
356.285	9.51
356.494	9.8
356.704	9.77
356.913	9.74
357.123	9.66
357.332	9.26
357.542	9.16
357.751	9.21
357.96	9.13
358.17	8.98
358.379	9.06
358.589	9.28
358.798	9
359.007	8.86
359.217	8.73
359.426	8.73
359.635	9.06
359.845	8.95
360.054	8.69
360.263	8.72
360.472	8.71
360.682	8.59
360.891	8.35
361.1	8.49
361.309	8.63
361.519	8.71
361.728	8.73
361.937	8.49
362.146	8.59
362.355	8.69
362.564	8.55
362.774	8.35
362.983	8.48
363.192	8.61
363.401	8.52
363.61	8.41
363.819	8.57
364.028	8.52
364.237	8.51
364.446	8.54
364.655	8.3
364.864	8.24
365.073	8.32
365.282	8.42
365.491	8.34
365.7	8.31
365.909	8.31
366.118	8.01
366.327	8.01
366.536	7.99
366.745	7.95
366.954	8.2
367.162	8.58
367.371	8.5
367.58	8.58
367.789	8.37
367.998	8.56
368.207	8.39
368.415	8.33
368.624	8.15
368.833	8.13
369.042	8.12
369.25	8.24
369.459	7.96
369.668	8.14
369.877	7.79
370.085	8.09
370.294	7.88
370.503	8
370.711	8.12
370.92	8.1
371.129	7.98
371.337	7.99
371.546	7.63
371.754	7.7
371.963	7.38
372.171	7.36
372.38	7.18
372.589	7.35
372.797	7.26
373.006	7.26
373.214	7.63
373.423	7.78
373.631	7.72
373.84	8.02
374.048	7.9
374.256	8.06
374.465	8.24
374.673	8.33
374.882	8.17
375.09	8.2
375.298	8.18
375.507	7.97
375.715	8.1
375.923	8.33
376.132	8.19
376.34	8.24
376.548	8.13
376.757	8.07
376.965	7.99
377.173	8.04
377.381	8.12
377.59	8.21
377.798	8.23
378.006	8.24
378.214	8.03
378.423	7.83
378.631	7.79
378.839	8.01
379.047	7.96
379.255	7.79
379.463	7.77
379.671	7.49
379.879	7.49
380.088	7.64
380.296	7.46
380.504	7.59
380.712	7.77
380.92	7.73
381.128	7.74
381.336	7.77
381.544	7.7
381.752	7.59
381.96	7.66
382.168	7.41
382.376	7.23
382.584	7.46
382.791	7.18
382.999	7.21
383.207	7.33
383.415	7.2
383.623	7.27
383.831	7.41
384.039	7.43
384.247	7.43
384.454	7.43
384.662	7.39
384.87	7.19
385.078	7.4
385.285	7.26
385.493	7.11
385.701	6.92
385.909	6.68
386.116	6.47
386.324	6.64
386.532	6.84
386.739	6.95
386.947	6.95
387.155	6.95
387.362	6.73
387.57	6.78
387.778	6.57
387.985	6.71
388.193	6.75
388.4	6.8
388.608	6.71
388.816	6.46
389.023	6.41
389.231	6.29
389.438	6.25
389.646	6.31
389.853	6.37
390.061	6.5
390.268	6.54
390.475	6.57
390.683	6.71
390.89	6.48
391.098	6.49
391.305	6.43
391.512	6.53
391.72	6.4
391.927	6.13
392.135	5.96
392.342	5.84
392.549	5.85
392.756	5.54
392.964	5.33
393.171	5.47
393.378	5.44
393.586	5.39
393.793	5.25
394	5.25
394.207	5.53
394.414	5.6
394.622	5.76
394.829	5.73
395.036	5.92
395.243	5.99
395.45	5.81
395.657	5.79
395.864	5.8
396.072	6.1
396.279	6.19
396.486	6.18
396.693	6.12
396.9	6.05
397.107	5.74
397.314	5.99
397.521	6.06
397.728	6.12
397.935	6.13
398.142	6.22
398.349	6.05
398.556	5.75
398.763	5.82
398.97	6.03
399.177	5.86
399.383	6.06
399.59	5.78
399.797	5.74
400.004	5.69
400.211	5.62
400.418	5.43
400.625	5.37
400.831	5.55
401.038	5.36
401.245	5.17
401.452	5.31
401.658	5.28
401.865	5.15
402.072	5.26
402.279	5.33
402.485	5.31
402.692	5.3
402.899	5.15
403.105	5.07
403.312	5.07
403.519	5
403.725	4.86
403.932	4.78
404.138	5
404.345	4.77
404.552	4.76
404.758	4.77
404.965	4.77
405.171	4.82
405.378	4.84
405.584	4.96
405.791	5.05
405.997	5.29
406.204	5.35
406.41	5.37
406.617	5.35
406.823	5.19
407.029	5.15
407.236	5.32
407.442	5.53
407.649	5.6
407.855	5.35
408.061	5.31
408.268	5.01
408.474	4.94
408.68	4.83
408.887	4.9
409.093	5.04
409.299	5.03
409.505	4.8
409.712	4.67
409.918	4.65
410.124	4.68
410.33	4.58
410.537	4.74
410.743	4.76
410.949	4.56
411.155	4.67
411.361	4.45
411.567	4.5
411.773	4.46
411.98	4.52
412.186	4.46
412.392	4.49
412.598	4.51
412.804	4.37
413.01	4.25
413.216	4.39
413.422	4.37
413.628	4.51
413.834	4.39
414.04	4.53
414.246	4.4
414.452	4.29
414.658	4.32
414.864	4.25
415.07	4.31
415.275	4.5
415.481	4.42
415.687	4.31
415.893	4.28
416.099	4.29
416.305	4.28
416.511	4.14
416.716	4.18
416.922	4.17
417.128	4.24
417.334	4.29
417.539	4.04
417.745	4.06
417.951	4.13
418.157	4.2
418.362	4.19
418.568	4.06
418.774	4.11
418.979	4.06
419.185	3.99
419.391	3.82
419.596	3.77
419.802	3.81
420.008	3.83
420.213	3.71
420.419	3.67
420.624	3.65
420.83	3.73
421.035	3.82
421.241	3.83
421.446	3.84
421.652	3.94
421.857	3.94
422.063	3.97
422.268	3.9
422.474	3.93
422.679	3.91
422.885	3.84
423.09	3.71
423.295	3.63
423.501	3.64
423.706	3.67
423.911	3.62
424.117	3.65
424.322	3.64
424.527	3.71
424.733	3.77
424.938	3.75
425.143	3.85
425.349	4.06
425.554	4.04
425.759	4.04
425.964	4.03
426.169	4.12
426.375	4.13
426.58	4.22
426.785	4.22
426.99	4.1
427.195	4.09
427.4	4.18
427.605	4.16
427.811	4.17
428.016	4.12
428.221	4.13
428.426	4.05
428.631	3.99
428.836	3.92
429.041	3.93
429.246	4.01
429.451	3.94
429.656	3.84
429.861	3.78
430.066	3.95
430.271	4.02
430.476	3.99
430.681	4.03
430.886	3.99
431.09	4
431.295	3.88
431.5	3.77
431.705	3.75
431.91	3.73
432.115	3.71
432.32	3.6
432.524	3.54
432.729	3.5
432.934	3.48
433.139	3.49
433.343	3.5
433.548	3.59
433.753	3.62
433.958	3.65
434.162	3.78
434.367	3.78
434.572	3.85
434.776	3.81
434.981	3.93
435.186	3.87
435.39	3.87
435.595	3.86
435.799	3.75
436.004	3.78
436.209	3.73
436.413	3.45
436.618	3.44
436.822	3.39
437.027	3.51
437.231	3.36
437.436	3.35
437.64	3.35
437.845	3.35
438.049	3.35
438.253	3.33
438.458	3.35
438.662	3.39
438.867	3.43
439.071	3.37
439.275	3.32
439.48	3.37
439.684	3.33
439.888	3.38
440.093	3.32
440.297	3.32
440.501	3.33
440.706	3.37
440.91	3.49
441.114	3.42
441.318	3.44
441.523	3.46
441.727	3.47
441.931	3.56
442.135	3.43
442.339	3.43
442.543	3.45
442.748	3.37
442.952	3.3
443.156	3.24
443.36	3.27
443.564	3.24
443.768	3.16
443.972	3.21
444.176	3.28
444.38	3.37
444.584	3.34
444.788	3.42
444.992	3.5
445.196	3.54
445.4	3.47
445.604	3.48
445.808	3.49
446.012	3.51
446.216	3.39
446.42	3.34
446.624	3.28
446.828	3.34
447.032	3.23
447.235	3.21
447.439	3.13
447.643	3.22
447.847	3.22
448.051	3.26
448.254	3.3
448.458	3.41
448.662	3.39
448.866	3.41
449.069	3.41
449.273	3.5
449.477	3.47
449.681	3.46
449.884	3.54
450.088	3.47
450.292	3.39
450.495	3.47
450.699	3.46
450.902	3.43
451.106	3.36
451.31	3.4
451.513	3.43
451.717	3.47
451.92	3.48
452.124	3.39
452.327	3.52
452.531	3.54
452.734	3.48
452.938	3.43
453.141	3.46
453.345	3.48
453.548	3.43
453.752	3.36
453.955	3.29
454.158	3.36
454.362	3.26
454.565	3.25
454.769	3.3
454.972	3.27
455.175	3.26
455.379	3.21
455.582	3.26
455.785	3.27
455.988	3.26
456.192	3.25
456.395	3.24
456.598	3.37
456.801	3.19
457.005	3.21
457.208	3.18
457.411	3.19
457.614	3.22
457.817	3.23
458.021	3.19
458.224	3.21
458.427	3.09
458.63	3.13
458.833	3.14
459.036	3.15
459.239	3.13
459.442	3.12
459.645	3.1
459.848	3.1
460.051	3.07
460.254	3.12
460.457	3.15
460.66	3.31
460.863	3.32
461.066	3.3
461.269	3.31
461.472	3.36
461.675	3.37
461.878	3.43
462.081	3.34
462.284	3.39
462.486	3.42
462.689	3.41
462.892	3.51
463.095	3.42
463.298	3.34
463.5	3.48
463.703	3.42
463.906	3.55
464.109	3.62
464.311	3.69
464.514	3.78
464.717	3.77
464.92	3.8
465.122	3.85
465.325	3.87
465.528	3.96
465.73	3.99
465.933	4
466.135	3.95
466.338	3.86
466.541	3.83
466.743	3.7
466.946	3.71
467.148	3.65
467.351	3.5
467.553	3.48
467.756	3.47
467.958	3.39
468.161	3.4
468.363	3.42
468.566	3.49
468.768	3.66
468.971	3.57
469.173	3.52
469.375	3.42
469.578	3.35
469.78	3.34
469.983	3.32
470.185	3.31
470.387	3.21
470.59	3.14
470.792	3.12
470.994	2.97
471.196	3.01
471.399	3.06
471.601	3.13
471.803	3.23
472.005	3.35
472.208	3.27
472.41	3.29
472.612	3.29
472.814	3.32
473.016	3.46
473.218	3.53
473.421	3.54
473.623	3.57
473.825	3.59
474.027	3.54
474.229	3.48
474.431	3.56
474.633	3.55
474.835	3.63
475.037	3.62
475.239	3.41
475.441	3.39
475.643	3.42
475.845	3.39
476.047	3.44
476.249	3.5
476.451	3.57
476.653	3.58
476.855	3.51
477.057	3.41
477.258	3.45
477.46	3.48
477.662	3.44
477.864	3.42
478.066	3.43
478.268	3.38
478.469	3.31
478.671	3.21
478.873	3.19
479.075	3.26
479.276	3.29
479.478	3.24
479.68	3.22
479.882	3.25
480.083	3.27
480.285	3.24
480.487	3.23
480.688	3.22
480.89	3.22
481.091	3.13
481.293	3.08
481.495	3.04
481.696	2.99
481.898	2.97
482.099	2.92
482.301	2.92
482.502	2.91
482.704	2.89
482.905	2.89
483.107	2.89
483.308	2.94
483.51	2.94
483.711	2.94
483.913	2.97
484.114	2.97
484.315	3
484.517	3.02
484.718	3
484.92	3.02
485.121	3.03
485.322	3
485.524	2.93
485.725	2.94
485.926	2.91
486.127	2.94
486.329	2.95
486.53	2.94
486.731	2.91
486.932	2.93
487.134	2.92
487.335	2.92
487.536	2.95
487.737	3
487.938	2.98
488.139	3.07
488.341	3.05
488.542	3.02
488.743	3.03
488.944	3.05
489.145	3.04
489.346	3.05
489.547	3.05
489.748	3.04
489.949	3.07
490.15	3.04
490.351	3
490.552	3.02
490.753	3.04
490.954	3.08
491.155	3.1
491.356	3.09
491.557	3.15
491.758	3.2
491.959	3.18
492.159	3.18
492.36	3.21
492.561	3.31
492.762	3.35
492.963	3.42
493.164	3.42
493.364	3.34
493.565	3.33
493.766	3.3
493.967	3.27
494.167	3.3
494.368	3.32
494.569	3.41
494.769	3.34
494.97	3.33
495.171	3.33
495.371	3.32
495.572	3.43
495.773	3.52
495.973	3.62
496.174	3.64
496.375	3.66
496.575	3.75
496.776	3.83
496.976	3.88
497.177	3.88
497.377	3.96
497.578	4.01
497.778	4.02
497.979	4.07
498.179	3.98
498.38	3.98
498.58	4.07
498.78	4.02
498.981	4.02
499.181	4.04
499.382	4.06
499.582	4.01
499.782	4.02
499.983	4.04
500.183	4
500.383	4.06
500.584	4
500.784	3.87
500.984	3.84
501.184	3.8
501.385	3.89
501.585	3.95
501.785	3.84
501.985	3.83
502.185	3.86
502.386	3.85
502.586	3.82
502.786	3.92
502.986	4.05
503.186	4.08
503.386	4.05
503.586	4.01
503.786	4.01
503.987	4.13
504.187	4.19
504.387	4.12
504.587	4.19
504.787	4.24
504.987	4.3
505.187	4.29
505.387	4.3
505.587	4.41
505.786	4.46
505.986	4.46
506.186	4.5
506.386	4.49
506.586	4.64
506.786	4.65
506.986	4.69
507.186	4.62
507.386	4.62
507.585	4.62
507.785	4.56
507.985	4.48
508.185	4.56
508.384	4.48
508.584	4.43
508.784	4.41
508.984	4.44
509.183	4.35
509.383	4.43
509.583	4.51
509.782	4.53
509.982	4.58
510.182	4.65
510.381	4.57
510.581	4.66
510.781	4.8
510.98	4.78
511.18	4.8
511.379	4.93
511.579	4.92
511.778	4.91
511.978	4.88
512.177	4.87
512.377	4.88
512.576	4.98
512.776	4.97
512.975	4.94
513.175	5.02
513.374	5.03
513.573	4.99
513.773	5.05
513.972	5.03
514.172	5.14
514.371	5.26
514.57	5.31
514.77	5.28
514.969	5.32
515.168	5.31
515.367	5.37
515.567	5.39
515.766	5.45
515.965	5.47
516.164	5.5
516.364	5.51
516.563	5.45
516.762	5.4
516.961	5.41
517.16	5.42
517.359	5.45
517.559	5.43
517.758	5.38
517.957	5.36
518.156	5.4
518.355	5.38
518.554	5.41
518.753	5.42
518.952	5.52
519.151	5.6
519.35	5.59
519.549	5.66
519.748	5.6
519.947	5.77
520.146	5.78
520.345	5.81
520.544	5.89
520.743	5.91
520.942	5.96
521.141	5.92
521.339	5.94
521.538	5.96
521.737	5.95
521.936	6
522.135	5.91
522.333	5.99
522.532	5.9
522.731	5.89
522.93	5.94
523.129	5.99
523.327	6.01
523.526	6
523.725	6.07
523.923	6.09
524.122	6.12
524.321	6.12
524.519	6.08
524.718	6.13
524.917	6.13
525.115	6.12
525.314	6.11
525.512	6.12
525.711	6.09
525.909	6.07
526.108	6.03
526.306	6.08
526.505	6.11
526.703	6.18
526.902	6.17
527.1	6.19
527.299	6.18
527.497	6.19
527.696	6.22
527.894	6.28
528.092	6.32
528.291	6.36
528.489	6.33
528.688	6.37
528.886	6.36
529.084	6.42
529.283	6.47
529.481	6.53
529.679	6.57
529.877	6.61
530.076	6.61
530.274	6.59
530.472	6.59
530.67	6.66
530.869	6.67
531.067	6.69
531.265	6.71
531.463	6.72
531.661	6.74
531.859	6.69
532.057	6.71
532.255	6.74
532.454	6.78
532.652	6.83
532.85	6.9
533.048	6.93
533.246	7.01
533.444	7.05
533.642	7.11
533.84	7.14
534.038	7.28
534.236	7.26
534.434	7.31
534.632	7.35
534.83	7.42
535.027	7.4
535.225	7.42
535.423	7.42
535.621	7.47
535.819	7.46
536.017	7.46
536.215	7.43
536.412	7.48
536.61	7.49
536.808	7.5
537.006	7.47
537.203	7.55
537.401	7.63
537.599	7.66
537.797	7.63
537.994	7.63
538.192	7.69
538.39	7.77
538.587	7.83
538.785	7.88
538.983	7.93
539.18	7.97
539.378	7.94
539.575	7.87
539.773	7.86
539.97	7.9
540.168	7.91
540.366	7.94
540.563	7.99
540.761	8.01
540.958	8
541.155	8.02
541.353	8.07
541.55	8.07
541.748	8.12
541.945	8.21
542.143	8.2
542.34	8.28
542.537	8.35
542.735	8.35
542.932	8.34
543.129	8.45
543.327	8.52
543.524	8.63
543.721	8.65
543.919	8.81
544.116	8.85
544.313	9
544.51	9.07
544.708	9.1
544.905	9.12
545.102	9.27
545.299	9.27
545.496	9.3
545.693	9.24
545.891	9.4
546.088	9.35
546.285	9.47
546.482	9.5
546.679	9.61
546.876	9.7
547.073	9.85
547.27	9.86
547.467	9.86
547.664	9.93
547.861	10.07
548.058	10.09
548.255	10.29
548.452	10.23
548.649	10.27
548.846	10.31
549.043	10.26
549.24	10.35
549.437	10.39
549.633	10.56
549.83	10.58
550.027	10.49
550.224	10.54
550.421	10.52
550.618	10.48
550.814	10.53
551.011	10.5
551.208	10.54
551.405	10.49
551.601	10.58
551.798	10.6
551.995	10.66
552.191	10.83
552.388	10.84
552.585	10.93
552.781	11.07
552.978	11.05
553.175	11.18
553.371	11.3
553.568	11.37
553.764	11.38
553.961	11.35
554.157	11.39
554.354	11.35
554.55	11.42
554.747	11.39
554.943	11.51
555.14	11.64
555.336	11.72
555.533	11.67
555.729	11.76
555.926	11.87
556.122	11.99
556.318	12.09
556.515	12.31
556.711	12.4
556.907	12.55
557.104	12.6
557.3	12.61
557.496	12.64
557.693	12.78
557.889	12.8
558.085	12.92
558.281	13.06
558.478	13.15
558.674	13.13
558.87	13
559.066	13.09
559.262	13.14
559.459	13.25
559.655	13.16
559.851	13.2
560.047	13.28
560.243	13.39
560.439	13.39
560.635	13.42
560.831	13.47
561.027	13.69
561.223	13.71
561.419	13.71
561.615	13.68
561.811	13.83
562.007	13.93
562.203	14.06
562.399	13.91
562.595	14.05
562.791	14.26
562.987	14.44
563.183	14.56
563.379	14.55
563.575	14.57
563.771	14.74
563.966	14.87
564.162	14.91
564.358	14.93
564.554	15.2
564.75	15.17
564.945	15.13
565.141	15.12
565.337	15.25
565.533	15.3
565.728	15.36
565.924	15.38
566.12	15.5
566.315	15.59
566.511	15.56
566.707	15.53
566.902	15.67
567.098	15.85
567.293	15.83
567.489	15.85
567.684	15.93
567.88	16.05
568.076	16.14
568.271	16.19
568.467	16.2
568.662	16.28
568.858	16.35
569.053	16.34
569.248	16.22
569.444	16.31
569.639	16.41
569.835	16.47
570.03	16.55
570.225	16.64
570.421	16.74
570.616	16.88
570.812	17.12
571.007	17.12
571.202	17.2
571.397	17.34
571.593	17.42
571.788	17.55
571.983	17.69
572.178	17.72
572.374	17.77
572.569	17.76
572.764	17.71
572.959	17.72
573.154	17.73
573.35	17.79
573.545	17.83
573.74	17.84
573.935	17.8
574.13	17.78
574.325	17.78
574.52	17.82
574.715	17.83
574.91	17.87
575.105	17.85
575.3	17.97
575.495	17.95
575.69	18.09
575.885	18.23
576.08	18.16
576.275	18.32
576.47	18.51
576.665	18.54
576.86	18.55
577.055	18.77
577.25	18.94
577.444	18.93
577.639	19.08
577.834	19.04
578.029	19.02
578.224	19.27
578.418	19.24
578.613	19.37
578.808	19.45
579.003	19.64
579.197	19.66
579.392	19.64
579.587	19.82
579.781	19.8
579.976	19.81
580.171	19.92
580.365	19.91
580.56	19.94
580.755	19.85
580.949	19.9
581.144	19.96
581.338	19.89
581.533	19.98
581.727	19.95
581.922	20.06
582.116	20.29
582.311	20.3
582.505	20.31
582.7	20.33
582.894	20.49
583.089	20.52
583.283	20.37
583.478	20.61
583.672	20.61
583.866	20.72
584.061	20.72
584.255	20.59
584.449	20.73
584.644	20.77
584.838	20.82
585.032	20.79
585.226	20.71
585.421	20.9
585.615	20.92
585.809	20.96
586.003	21
586.198	21.19
586.392	21.24
586.586	21.08
586.78	21.18
586.974	21.31
587.168	21.33
587.363	21.41
587.557	21.42
587.751	21.31
587.945	21.25
588.139	21.21
588.333	21.12
588.527	21.21
588.721	21.36
588.915	21.32
589.109	21.34
589.303	21.29
589.497	21.3
589.691	21.21
589.885	21.23
590.079	21.36
590.273	21.37
590.466	21.36
590.66	21.31
590.854	21.19
591.048	21.16
591.242	21.14
591.436	21.17
591.629	21.46
591.823	21.52
592.017	21.72
592.211	21.7
592.404	21.79
592.598	21.84
592.792	21.81
592.986	22.04
593.179	22.13
593.373	22.2
593.567	22.29
593.76	22.09
593.954	22.29
594.147	22.21
594.341	22.29
594.535	22.35
594.728	22.33
594.922	22.39
595.115	22.24
595.309	22.16
595.502	22.14
595.696	22.13
595.889	22.17
596.083	22.05
596.276	22.16
596.47	22.14
596.663	22.13
596.856	22.26
597.05	22.32
597.243	22.38
597.437	22.62
597.63	22.62
597.823	22.7
598.017	22.64
598.21	22.74
598.403	22.79
598.596	22.81
598.79	22.67
598.983	22.52
599.176	22.53
599.369	22.73
599.563	22.72
599.756	22.78
599.949	22.84
600.142	23
600.335	22.93
600.528	22.8
600.722	22.94
600.915	23.18
601.108	23.3
601.301	23.3
601.494	23.16
601.687	23.13
601.88	23.14
602.073	22.98
602.266	22.95
602.459	22.99
602.652	22.97
602.845	22.98
603.038	22.88
603.231	22.96
603.424	22.96
603.617	23.04
603.809	23.1
604.002	23.02
604.195	23.13
604.388	23.07
604.581	23.15
604.774	23.18
604.966	23.05
605.159	23.07
605.352	23.06
605.545	22.96
605.737	22.84
605.93	22.73
606.123	22.83
606.316	22.89
606.508	23.04
606.701	23.09
606.894	23.21
607.086	23.24
607.279	23.24
607.471	23.21
607.664	23.42
607.857	23.5
608.049	23.72
608.242	23.67
608.434	23.64
608.627	23.62
608.819	23.56
609.012	23.44
609.204	23.6
609.397	23.61
609.589	23.63
609.782	23.58
609.974	23.74
610.166	23.6
610.359	23.72
610.551	23.76
610.743	23.81
610.936	23.78
611.128	23.99
611.32	23.91
611.513	24.07
611.705	24.14
611.897	24.16
612.09	23.94
612.282	23.97
612.474	23.94
612.666	24.15
612.858	24.21
613.051	24.43
613.243	24.34
613.435	24.33
613.627	24.49
613.819	24.48
614.011	24.78
614.203	24.98
614.395	25.02
614.588	24.96
614.78	24.78
614.972	24.8
615.164	24.83
615.356	24.7
615.548	24.63
615.74	24.54
615.932	24.37
616.124	24.15
616.315	24.13
616.507	24.15
616.699	24.32
616.891	24.48
617.083	24.6
617.275	24.67
617.467	24.81
617.659	24.85
617.85	24.89
618.042	24.97
618.234	25
618.426	25
618.618	25
618.809	24.97
619.001	24.81
619.193	24.86
619.384	24.66
619.576	24.8
619.768	24.78
619.959	24.63
620.151	24.9
620.343	24.93
620.534	24.93
620.726	24.87
620.917	24.92
621.109	24.68
621.301	24.5
621.492	24.56
621.684	24.45
621.875	24.62
622.067	24.72
622.258	24.62
622.45	24.61
622.641	24.6
622.832	24.82
623.024	24.8
623.215	25
623.407	25.16
623.598	25.13
623.789	25.02
623.981	25.03
624.172	25.1
624.363	25.1
624.555	25.15
624.746	25.15
624.937	24.83
625.129	24.83
625.32	24.75
625.511	24.69
625.702	24.63
625.893	24.69
626.085	24.69
626.276	24.72
626.467	24.86
626.658	24.7
626.849	24.48
627.04	24.54
627.231	24.53
627.422	24.56
627.614	24.62
627.805	24.73
627.996	24.8
628.187	24.88
628.378	24.77
628.569	24.56
628.76	24.83
628.951	24.99
629.142	25.09
629.332	25.05
629.523	25.17
629.714	25.08
629.905	25.31
630.096	25.44
630.287	25.53
630.478	25.49
630.669	25.58
630.859	25.46
631.05	25.56
631.241	25.57
631.432	25.58
631.623	25.61
631.813	25.58
632.004	25.37
632.195	25.25
632.385	24.91
632.576	24.91
632.767	24.75
632.957	24.84
633.148	24.81
633.339	24.79
633.529	24.83
633.72	24.89
633.91	24.95
634.101	24.84
634.292	24.95
634.482	25.09
634.673	25.24
634.863	25.47
635.054	25.41
635.244	25.45
635.435	25.62
635.625	25.54
635.815	25.57
636.006	25.53
636.196	25.72
636.387	25.56
636.577	25.49
636.767	25.44
636.958	25.32
637.148	25.32
637.338	25.27
637.529	25.2
637.719	25.42
637.909	25.21
638.099	25.18
638.29	25.27
638.48	25.42
638.67	25.59
638.86	25.59
639.05	25.64
639.241	25.72
639.431	25.81
639.621	25.86
639.811	25.88
640.001	26.11
640.191	26.15
640.381	25.9
640.571	25.97
640.761	26.06
640.951	25.98
641.141	26.07
641.331	25.75
641.521	25.86
641.711	25.83
641.901	25.68
642.091	25.63
642.281	25.59
642.471	25.62
642.661	25.57
642.851	25.63
643.041	25.65
643.231	25.62
643.42	26.07
643.61	26.02
643.8	26.02
643.99	26.1
644.18	25.95
644.369	26.29
644.559	26.49
644.749	26.69
644.939	26.34
645.128	26.51
645.318	26.36
645.508	26.03
645.697	26.05
645.887	25.97
646.076	25.8
646.266	25.91
646.456	25.74
646.645	25.64
646.835	25.22
647.024	25.53
647.214	25.43
647.403	25.65
647.593	26.03
647.782	25.8
647.972	25.9
648.161	26.17
648.351	26.16
648.54	26.12
648.73	26.18
648.919	26.46
649.108	26.26
649.298	26.14
649.487	26.03
649.677	25.81
649.866	25.96
650.055	25.93
650.244	25.69
650.434	25.76
650.623	25.85
650.812	25.89
651.002	25.73
651.191	25.83
651.38	26.07
651.569	25.84
651.758	25.82
651.947	25.95
652.137	26.14
652.326	26.62
652.515	26.75
652.704	26.67
652.893	26.43
653.082	26.49
653.271	26.66
653.46	26.53
653.649	26.91
653.838	26.78
654.027	26.93
654.216	26.71
654.405	26.54
654.594	26.22
654.783	26.32
654.972	26.48
655.161	26.42
655.35	26.26
655.539	26.61
655.728	26.42
655.916	26.36
656.105	26.1
656.294	26.29
656.483	26.1
656.672	26.09
656.86	25.94
657.049	25.92
657.238	25.81
657.427	25.77
657.615	25.56
657.804	25.72
657.993	25.86
658.181	25.87
658.37	25.8
658.559	25.96
658.747	26.05
658.936	26.16
659.125	26.16
659.313	26.39
659.502	26.47
659.69	26.3
659.879	26.36
660.067	26.33
660.256	26.43
660.444	26.34
660.633	26.17
660.821	26.23
661.01	26.33
661.198	26.22
661.387	26.23
661.575	26.17
661.763	26.57
661.952	26.56
662.14	26.56
662.328	26.59
662.517	26.84
662.705	26.71
662.893	26.83
663.082	26.83
663.27	27.02
663.458	26.95
663.646	26.86
663.834	26.65
664.023	26.57
664.211	26.71
664.399	26.78
664.587	26.52
664.775	26.57
664.963	26.59
665.152	26.59
665.34	26.69
665.528	26.55
665.716	26.7
665.904	26.68
666.092	26.83
666.28	26.45
666.468	26.42
666.656	26.38
666.844	26.74
667.032	26.65
667.22	26.86
667.408	26.88
667.596	27.24
667.784	27.14
667.971	27.07
668.159	26.73
668.347	26.99
668.535	26.78
668.723	26.84
668.911	26.7
669.098	26.64
669.286	26.36
669.474	26.3
669.662	26.37
669.849	26.48
670.037	26.49
670.225	26.73
670.413	26.85
670.6	27.08
670.788	27.11
670.976	27.38
671.163	27.66
671.351	27.69
671.538	27.68
671.726	27.62
671.913	27.49
672.101	27.62
672.289	27.48
672.476	27.47
672.664	27.5
672.851	27.71
673.039	27.42
673.226	27.24
673.413	27.21
673.601	27.33
673.788	26.93
673.976	26.97
674.163	27.03
674.35	27.43
674.538	27.29
674.725	27.27
674.912	27.05
675.1	27.06
675.287	26.95
675.474	26.84
675.662	26.86
675.849	27.2
676.036	27.33
676.223	27.1
676.411	26.71
676.598	26.9
676.785	26.89
676.972	26.89
677.159	26.9
677.346	26.78
677.533	26.9
677.721	26.84
677.908	26.85
678.095	26.76
678.282	26.93
678.469	27.06
678.656	26.96
678.843	26.9
679.03	27.11
679.217	27.16
679.404	27.22
679.591	27.06
679.778	27.08
679.964	27.05
680.151	27
680.338	27.05
680.525	26.83
680.712	26.82
680.899	26.97
681.086	26.85
681.272	26.91
681.459	27.03
681.646	27.08
681.833	26.87
682.02	26.55
682.206	26.53
682.393	26.5
682.58	26.92
682.766	27.06
682.953	26.9
683.14	27.23
683.326	27.37
683.513	27.76
683.7	27.89
683.886	28.43
684.073	28.7
684.259	28.73
684.446	28.9
684.632	28.68
684.819	28.57
685.005	28.62
685.192	28.62
685.378	28.46
685.565	27.9
685.751	27.76
685.938	27.52
686.124	27.44
686.31	27.66
686.497	27.09
686.683	27.18
686.87	27.05
687.056	26.96
687.242	26.67
687.429	26.54
687.615	26.76
687.801	26.95
687.987	27.09
688.174	27.27
688.36	27.43
688.546	27.82
688.732	27.75
688.918	27.61
689.105	27.55
689.291	27.5
689.477	27.55
689.663	27.68
689.849	27.64
690.035	27.34
690.221	27.16
690.407	27.2
690.593	27.06
690.779	27.3
690.965	27.63
691.151	27.89
691.337	28.11
691.523	28.18
691.709	27.96
691.895	28.21
692.081	28.36
692.267	28.59
692.453	28.29
692.639	28.39
692.825	28.08
693.011	28.31
693.196	28.27
693.382	28.22
693.568	28.02
693.754	28.7
693.94	28.37
694.125	28.5
694.311	28.2
694.497	27.8
694.682	28
694.868	28.2
695.054	28.09
695.239	28.25
695.425	27.84
695.611	28.23
695.796	27.73
695.982	27.69
696.168	27.42
696.353	27.34
696.539	27.85
696.724	27.66
696.91	27.49
697.095	27.41
697.281	27.08
697.466	27.33
697.652	27.08
697.837	27.31
698.023	27.23
698.208	27.14
698.393	27.4
698.579	27.26
698.764	27.38
698.949	27.43
699.135	27.49
699.32	27.84
699.505	27.65
699.691	27.72
699.876	27.4
700.061	27.77
700.246	28.05
700.432	28.02
700.617	27.91
700.802	27.4
700.987	27.26
701.172	27.4
701.358	27.04
701.543	27.58
701.728	27.53
701.913	27.88
702.098	27.91
702.283	27.9
702.468	27.94
702.653	28.3
702.838	28.79
703.023	28.81
703.208	28.52
703.393	28.68
703.578	28.62
703.763	28.54
703.948	28.13
704.133	28.29
704.318	28.11
704.503	28.24
704.688	28.11
704.873	28.03
705.057	28.47
705.242	28.54
705.427	28.64
705.612	28.44
705.797	28.75
705.981	29
706.166	29.01
706.351	29.04
706.536	28.91
706.72	28.73
706.905	28.87
707.09	28.46
707.274	28.3
707.459	28.09
707.644	28.32
707.828	28.46
708.013	28.44
708.197	28.04
708.382	28.15
708.567	28.27
708.751	28.54
708.936	28.43
709.12	28.82
709.305	29.2
709.489	29.3
709.673	29.21
709.858	29.01
710.042	29.15
710.227	29.48
710.411	29.75
710.596	29.5
710.78	29.3
710.964	29.45
711.149	29.43
711.333	29.6
711.517	29.71
711.702	29.68
711.886	29.65
712.07	29.42
712.254	28.95
712.438	28.52
712.623	28.51
712.807	28.7
712.991	28.92
713.175	28.59
713.359	28.23
713.544	28.15
713.728	28.09
713.912	27.68
714.096	27.72
714.28	27.65
714.464	28.01
714.648	28.16
714.832	28.15
715.016	27.84
715.2	27.87
715.384	27.75
715.568	27.88
715.752	27.34
715.936	27.82
716.12	27.74
716.304	28.36
716.488	28.29
716.671	28.38
716.855	28.4
717.039	28.2
717.223	28.12
717.407	27.98
717.59	27.74
717.774	28.2
717.958	28.2
718.142	27.94
718.325	27.84
718.509	27.62
718.693	27.4
718.877	27.22
719.06	27.67
719.244	28.23
719.428	28.47
719.611	28.61
719.795	29.05
719.978	29.51
720.162	29.92
720.345	29.54
720.529	29.48
720.713	29.94
720.896	29.79
721.08	30.09
721.263	29.48
721.446	29.61
721.63	29.44
721.813	28.79
721.997	28.39
722.18	28.37
722.364	28.42
722.547	28.9
722.73	28.42
722.914	28.83
723.097	28.58
723.28	29.09
723.464	28.46
723.647	28.62
723.83	28.78
724.013	29.31
724.197	29.04
724.38	29.33
724.563	28.62
724.746	28.91
724.929	28.9
725.112	29.54
725.296	28.99
725.479	29.42
725.662	29.54
725.845	29.63
726.028	28.66
726.211	28.85
726.394	28.5
726.577	29.05
726.76	28.83
726.943	28.38
727.126	27.73
727.309	28.11
727.492	28.52
727.675	28.57
727.858	28.5
728.041	28.54
728.224	28.66
728.407	28.47
728.589	28.33
728.772	28.3
728.955	28.51
729.138	28.3
729.321	27.94
729.503	28.09
729.686	27.86
729.869	27.51
730.052	27.79
730.234	27.92
730.417	27.86
730.6	28.11
730.782	28.22
730.965	27.94
731.148	27.9
731.33	27.94
731.513	27.7
731.695	27.74
731.878	28.11
732.061	27.85
732.243	28
732.426	28.21
732.608	27.97
732.791	28.22
732.973	28.84
733.156	29.03
733.338	29.25
733.52	29.11
733.703	28.82
733.885	28.9
734.068	28.79
734.25	28.74
734.432	28.75
734.615	28.48
734.797	28.3
734.979	27.95
735.162	28.1
735.344	28.28
735.526	28.43
735.708	29.35
735.891	29.41
736.073	29.36
736.255	29.18
736.437	29.69
736.619	29.86
736.802	29.86
736.984	30.01
737.166	29.86
737.348	29.75
737.53	29.84
737.712	29.66
737.894	29.71
738.076	30.09
738.258	29.95
738.44	29.72
738.622	29.86
738.804	29.66
738.986	29.85
739.168	29.1
739.35	29.12
739.532	28.95
739.714	28.66
739.896	28.09
740.078	28.29
740.259	28.53
740.441	28.87
740.623	29.06
740.805	29.07
740.987	28.78
741.168	29.05
741.35	29.1
741.532	29.12
741.714	29.12
741.895	29.62
742.077	29.79
742.259	29.49
742.44	28.92
742.622	29.13
742.804	29.51
742.985	29.99
743.167	30.47
743.348	30.08
743.53	30.09
743.711	29.75
743.893	30.1
744.075	29.91
744.256	29.85
744.438	30.14
744.619	29.35
744.8	28.82
744.982	28.86
745.163	29.05
745.345	29.61
745.526	29.78
745.707	30.11
745.889	29.59
746.07	29.02
746.252	29.35
746.433	29.75
746.614	30.17
746.795	30.36
746.977	29.85
747.158	29.83
747.339	29.48
747.52	29.44
747.702	29.19
747.883	29.36
748.064	30.14
748.245	29.43
748.426	28.4
748.607	28.44
748.788	28.79
748.97	28.96
749.151	28.95
749.332	29.47
749.513	29.81
749.694	29.72
749.875	30.29
750.056	30.19
750.237	30.82
750.418	31.92
750.599	32.22
750.78	31.64
750.96	31.36
751.141	31.81
751.322	31.31
751.503	30.91
751.684	31.06
751.865	30.21
752.046	30.15
752.226	30.03
752.407	29.49
752.588	29.63
752.769	30.94
752.949	31.34
753.13	31.14
753.311	31
753.492	31.26
753.672	31.13
753.853	31.44
754.034	31.67
754.214	31.5
754.395	31.27
754.575	30.8
754.756	29.56
754.937	29.33
755.117	29.39
755.298	29.59
755.478	29.95
755.659	29.73
755.839	28.82
756.02	28.17
756.2	28.16
756.381	28.49
756.561	28.54
756.741	28.86
756.922	28.98
757.102	28.29
757.283	27.94
757.463	27.73
757.643	28.85
757.823	30.08
758.004	31.08
758.184	31.03
758.364	30.98
758.545	31.3
758.725	30.83
758.905	31.31
759.085	31.7
759.265	32.15
759.446	31.34
759.626	30.9
759.806	30.77
759.986	30.15
760.166	30.22
760.346	29.93
760.526	29.37
760.706	29.42
760.886	28.36
761.066	28.79
761.246	29.32
761.426	29.68
761.606	28.9
761.786	28.66
761.966	28.59
762.146	28.59
762.326	29.2
762.506	29.43
762.686	29.56
762.866	29.66
763.046	29.26
763.225	28.89
763.405	28.75
763.585	28.94
763.765	28.94
763.945	28.84
764.124	28.86
764.304	28.88
764.484	29.03
764.664	29.34
764.843	29.6
765.023	29.71
765.203	29.47
765.382	29.39
765.562	29.97
765.741	30.02
765.921	30.32
766.101	31.39
766.28	31.16
766.46	31.53
766.639	30.93
766.819	31.12
766.998	31.15
767.178	31.74
767.357	32.11
767.537	31.85
767.716	32.16
767.896	31.84
768.075	30.73
768.254	30.13
768.434	29.56
768.613	30.03
768.792	29.47
768.972	29.91
769.151	29.84
769.33	29.33
769.51	29.66
769.689	29.96
769.868	29.84
770.047	30.87
770.226	30.98
770.406	31.56
770.585	31.7
770.764	31.85
770.943	31.73
771.122	31.79
771.301	32.39
771.48	32.4
771.66	31.68
771.839	32.01
772.018	31.59
772.197	31.71
772.376	31.93
772.555	31.48
772.734	32
772.913	31.51
773.092	30.49
773.271	30.74
773.449	30.4
773.628	30.58
773.807	30.81
773.986	29.96
774.165	30.7
774.344	29.62
774.523	29.49
774.701	29.34
774.88	29.05
775.059	29.81
775.238	29.24
775.417	30.15
775.595	30.42
775.774	30.05
775.953	29.91
776.131	28.9
776.31	28.76
776.489	29.38
776.667	29.17
776.846	29.76
777.025	30.51
777.203	30.28
777.382	29.53
777.56	29.05
777.739	29.23
777.917	29.64
778.096	30.17
778.274	29.9
778.453	29.96
778.631	30.06
778.81	29.61
778.988	28.38
779.166	28.43
779.345	28.49
779.523	28.82
779.702	28.83
779.88	28.78
780.058	28.66
780.237	29.59
780.415	29.25
780.593	29.89
780.771	30.61
780.95	31.89
781.128	32.42
781.306	32
781.484	31.97
781.662	31.9
781.841	33.28
782.019	33.07
782.197	32.78
782.375	32.74
782.553	32.66
782.731	32.57
782.909	31.85
783.087	32.57
783.265	33.7
783.443	33.76
783.621	33.9
783.799	33.48
783.977	33.91
784.155	33.9
784.333	34.09
784.511	33.89
784.689	33.89
784.867	33.79
785.045	33.05
785.223	33.18
785.4	33.36
785.578	33.2
785.756	31.91
785.934	31.92
786.112	32.09
786.289	31.49
786.467	31.43
786.645	31.09
786.823	32.12
787	31.95
787.178	31.09
787.356	31.1
787.533	30.34
787.711	31.37
787.889	31.18
788.066	30.94
788.244	31.59
788.421	32.04
788.599	31.77
788.776	30.37
788.954	30.32
789.131	30.37
789.309	30.11
789.486	31.45
789.664	31.21
789.841	31.45
790.019	31.23
790.196	30.84
790.373	30.54
790.551	31.19
790.728	32.25
790.906	32.34
791.083	31.83
791.26	32.7
791.437	32.15
791.615	32.01
791.792	31.14
791.969	31.53
792.146	31.45
792.324	31.1
792.501	31.45
792.678	30.72
792.855	30.58
793.032	31.49
793.209	31.66
793.387	32.37
793.564	32.14
793.741	32.97
793.918	32.44
794.095	33.2
794.272	32.2
794.449	31.26
794.626	32.14
794.803	32.56
794.98	32.48
795.157	31.66
795.334	31.41
795.511	30.8
795.688	30.82
795.864	32.02
796.041	32
796.218	33.05
796.395	34.2
796.572	33.18
796.749	33.16
796.925	32.76
797.102	32.82
797.279	32.2
797.456	32.94
797.632	32.72
797.809	32.22
797.986	32.09
798.162	31.4
798.339	31.37
798.516	31.08
798.692	30.28
798.869	31.9
799.046	32.33
799.222	32.54
799.399	32.31
799.575	32.45
799.752	31.84
799.928	31.3
800.105	30.93
800.281	30.37
800.458	31.72
800.634	33.01
800.811	32.28
800.987	30.76
801.163	31.96
801.34	33.06
801.516	33.46
801.692	34.19
801.869	34.01
802.045	35.19
802.221	34.1
802.398	33.92
802.574	34.05
802.75	33.08
802.926	33.62
803.103	33.08
803.279	32.67
803.455	31.76
803.631	31.96
803.807	33.21
803.983	33.43
804.16	34.12
804.336	33.07
804.512	31.61
804.688	32.04
804.864	31.94
805.04	31.16
805.216	31.68
805.392	31.9
805.568	32.04
805.744	32.71
805.92	32.9
806.096	33.11
806.272	34.11
806.448	35.82
806.623	35.46
806.799	36.66
806.975	37.2
807.151	35.92
807.327	35.52
807.503	34.2
807.678	32.47
807.854	30.49
808.03	30.57
808.206	29.74
808.381	27.83
808.557	27.54
808.733	25.76
808.908	25.45
809.084	25.92
809.26	25.3
809.435	26.32
809.611	26.59
809.787	28.25
809.962	28.41
810.138	28.59
810.313	29.07
810.489	30.77
810.664	31.3
810.84	30.9
811.015	30.1
811.191	32.18
811.366	32.12
811.542	32.5
811.717	32.47
811.892	32.56
812.068	33.58
812.243	33.55
812.419	32.85
812.594	33.81
812.769	35.61
812.944	36.43
813.12	35.85
813.295	35.07
813.47	34.41
813.645	34.12
813.821	33.17
813.996	32.31
814.171	33.23
814.346	33.08
814.521	33.09
814.697	33.43
814.872	32.22
815.047	32.62
815.222	34.61
815.397	34.53
815.572	34.41
815.747	35.15
815.922	35.49
816.097	34.67
816.272	35.71
816.447	35.64
816.622	35.3
816.797	36.92
816.972	36.36
817.147	34.45
817.322	35.25
817.496	35.14
817.671	35.06
817.846	33.77
818.021	33.12
818.196	32.39
818.371	32.13
818.545	30.83
818.72	30.6
818.895	30.25
819.069	31.11
819.244	30.76
819.419	30.96
819.594	29.64
819.768	30.1
819.943	30.29
820.117	29.65
820.292	29.74
820.467	29.46
820.641	28.87
820.816	28.33
820.99	27.63
821.165	27.81
821.339	27.33
821.514	27.58
821.688	27.62
821.863	27.4
822.037	27.42
822.212	27.28
822.386	27.3
822.56	27.49
822.735	27.63
822.909	27.74
823.084	27.44
823.258	27.4
823.432	27.52
823.606	27.31
823.781	27.66
823.955	27.56
824.129	27.85
824.303	28.22
824.478	28.07
824.652	28.06
824.826	28.28
825	28.4
825.174	28.5
825.348	28.36
825.523	29.12
825.697	28.96
825.871	29.12
826.045	28.53
826.219	27.98
826.393	28.4
826.567	28.76
826.741	28.87
826.915	28.97
827.089	29.65
827.263	30.22
827.437	30.09
827.611	30.3
827.784	30.86
827.958	31.37
828.132	31.21
828.306	31.22
828.48	31.26
828.654	31.33
828.827	31.68
829.001	31.68
829.175	31.94
829.349	32.24
829.522	32.57
829.696	33.33
829.87	33.76
830.044	35.23
830.217	34.94
830.391	34.76
830.565	35.01
830.738	35.02
830.912	35.65
831.085	34.94
831.259	35.08
831.432	33.92
831.606	32.53
831.779	31.6
831.953	30.88
832.126	30.3
832.3	30.5
832.473	30.87
832.647	31.09
832.82	30.68
832.994	30.44
833.167	30.69
833.34	30.86
833.514	30.39
833.687	30.11
833.86	30.22
834.034	30.78
834.207	31.19
834.38	30.54
834.553	30.31
834.727	30.24
834.9	30.62
835.073	29.8
835.246	30.89
835.419	32.02
835.593	33.2
835.766	33
835.939	32.95
836.112	32.74
836.285	34.28
836.458	35.36
836.631	35.39
836.804	36.17
836.977	36.64
837.15	37.11
837.323	35.66
837.496	35.33
837.669	35.61
837.842	36.97
838.015	36.74
838.188	35.72
838.361	34.65
838.533	33.65
838.706	32.75
838.879	32.82
839.052	31.37
839.225	32.7
839.398	32.1
839.57	32.77
839.743	33.89
839.916	35.77
840.088	37.15
840.261	37.89
840.434	39.09
840.607	39.36
840.779	39.18
840.952	37.77
841.124	37.79
841.297	40.56
841.47	41.63
841.642	39.13
841.815	39.17
841.987	38.89
842.16	38.26
842.332	40.35
842.505	40.02
842.677	40.48
842.85	43.04
843.022	43.75
843.194	42.21
843.367	41.97
843.539	43.67
843.712	42.5
843.884	40.96
844.056	43.23
844.229	43.24
844.401	45.42
844.573	44.52
844.745	44
844.918	45.35
845.09	44.68
845.262	46.04
845.434	46.84
845.606	46.58
845.779	48.86
845.951	47.65
846.123	44.11
846.295	42.68
846.467	42.57
846.639	47.22
846.811	44.61
846.983	45.01
847.155	44.2
847.327	45.31
847.499	45.01
847.671	45.3
847.843	43.5
848.015	46.06
848.187	47.44
848.359	48.53
848.531	44.66
848.703	46.37
848.875	45.09
849.047	45.15
849.218	39.7
849.39	39.96
849.562	36.92
849.734	39.04
849.905	38
850.077	35.65
850.249	33.93
850.421	36.71
850.592	36.7
850.764	40.78
850.936	43.69
851.107	47.67
851.279	50.1
851.451	55.33
851.622	55.18
851.794	55.9
851.965	57.89
852.137	61.56
852.308	60.55
852.48	64.79
852.651	63.18
852.823	59.78
852.994	59.43
853.166	56.58
853.337	56.09
853.509	57.96
853.68	61.77
853.851	59.68
854.023	57.58
854.194	53.26
854.365	46.42
854.537	45.57
854.708	45.91
854.879	46.05
855.05	48.49
855.222	51.55
855.393	51.46
855.564	48.1
855.735	50.76
855.906	55.1
856.078	55.9
856.249	60.29
856.42	62.19
856.591	60.51
856.762	63.72
856.933	63.48
857.104	55.64
857.275	56.13
857.446	56.71
857.617	56.87
857.788	52.86
857.959	56.87
858.13	55.75
858.301	53.97
858.472	53.11
858.643	53.43
858.814	55.42
858.985	58.25
859.155	57.36
859.326	58.85
859.497	58.16
859.668	59.54
859.839	57.34
860.009	54.64
860.18	54.54
860.351	56.71
860.522	51.29
860.692	50.32
860.863	50.58
861.034	47.92
861.204	45.79
861.375	45.17
861.546	45.4
861.716	47.45
861.887	48.2
862.057	48.2
862.228	49.34
862.398	50.65
862.569	50.74
862.739	51.66
862.91	54.31
863.08	54.69
863.251	55.2
863.421	54.1
863.592	53.65
863.762	55.15
863.932	53.92
864.103	52.49
864.273	55.56
864.443	55.25
864.614	53.17
864.784	52.99
864.954	53.37
865.125	53.41
865.295	56.76
865.465	53.5
865.635	53.31
865.805	60.15
865.976	60.17
866.146	57.5
866.316	54.53
866.486	57.85
866.656	57.28
866.826	55.43
866.996	57.32
867.166	57.38
867.336	60.06
867.506	61.26
867.676	56.67
867.846	61.24
868.016	63.44
868.186	66.86
868.356	65.37
868.526	66.96
868.696	69.9
868.866	68.62
869.036	60.34
869.206	56.56
869.376	52.19
869.545	47.84
869.715	48.24
869.885	43.62
870.055	42.83
870.224	43.23
870.394	40.69
870.564	44.38
870.734	44.31
870.903	48.85
871.073	49.99
871.243	52.3
871.412	57.34
871.582	53.84
871.751	53.68
871.921	51.46
872.091	45.8
872.26	44.66
872.43	42.54
872.599	38.39
872.769	39.09
872.938	41.11
873.108	40.27
873.277	38.68
873.446	34.08
873.616	38.41
873.785	43.42
873.955	46.99
874.124	49.31
874.293	51.16
874.463	56.08
874.632	57.87
874.801	56.53
874.971	55.33
875.14	56.28
875.309	57.59
875.478	56.28
875.647	54.26
875.817	51.53
875.986	54.55
876.155	51.73
876.324	51.74
876.493	50.44
876.662	48.61
876.831	49.72
877	47.68
877.17	49.44
877.339	50.13
877.508	51.46
877.677	53.68
877.846	49.01
878.015	48.26
878.184	46.19
878.352	46.19
878.521	46.01
878.69	45.17
878.859	47.62
879.028	46.54
879.197	46.37
879.366	40.92
879.534	39.8
879.703	39.01
879.872	38.01
880.041	35.85
880.21	34.33
880.378	34.49
880.547	34.02
880.716	32.81
880.884	32.8
881.053	31.77
881.222	32.32
881.39	31.64
881.559	31.8
881.727	31.7
881.896	32.07
882.065	31.61
882.233	30.77
882.402	30.62
882.57	30.59
882.739	29.9
882.907	29.42
883.076	28.89
883.244	28.93
883.412	28.72
883.581	29.23
883.749	29.04
883.918	29.57
884.086	30.57
884.254	31.19
884.423	31.25
884.591	31.76
884.759	32.32
884.927	33.32
885.096	33.38
885.264	33.96
885.432	34.93
885.6	36.41
885.769	36.46
885.937	35.76
886.105	36.91
886.273	37.76
886.441	39.49
886.609	40.28
886.777	42.78
886.945	47.53
887.113	49.32
887.281	47.93
887.449	47.24
887.617	47.14
887.785	50.17
887.953	49.39
888.121	49.11
888.289	47.71
888.457	49.11
888.625	46.97
888.793	44.16
888.961	44.14
889.129	45.08
889.296	45.21
889.464	47.26
889.632	46.25
889.8	46.42
889.967	47.37
890.135	50.1
