Data from 2938458_Reflection_3.txt Node
Date: Fri Jun 19 17:39:49 EDT 2015
User: robert
Spectrometer: USB4E03002
Autoset integration time: false
Trigger mode: 4
Integration Time (sec): 1.000000E-1
Scans to average: 10
Electric dark correction enabled: true
Nonlinearity correction enabled: false
Boxcar width: 5
Stray light correction enabled: false
XAxis mode: Wavelengths
Stop averaging: false
Number of Pixels in Spectrum: 3648
>>>>>Begin Spectral Data<<<<<
177.575	418.93
177.794	-485.42
178.014	-25
178.233	-3.23
178.452	150.11
178.672	727.92
178.891	-461.43
179.11	-73.02
179.33	-53.71
179.549	-244.39
179.768	-60.77
179.987	26.05
180.207	-106.25
180.426	24.24
180.645	-29.71
180.864	-5.52
181.084	1463.71
181.303	62.91
181.522	-27.57
181.741	3.52
181.96	57.49
182.179	17.55
182.398	-13.43
182.618	-7.9
182.837	41.48
183.056	77.84
183.275	76.48
183.494	62.72
183.713	113.59
183.932	273
184.151	871.27
184.37	214.57
184.589	144.99
184.808	229.55
185.027	320.97
185.246	-2360.75
185.465	-115.82
185.684	-13.08
185.903	-37.07
186.122	8.68
186.341	21.61
186.56	77.16
186.779	69.64
186.998	65.61
187.216	136.94
187.435	195.24
187.654	338.28
187.873	285.91
188.092	-6793.48
188.311	-559.37
188.53	70.15
188.748	-39.26
188.967	-70.8
189.186	-329.37
189.405	310.32
189.623	1400.34
189.842	-153.31
190.061	-210.31
190.28	-89.05
190.498	-17.21
190.717	14.11
190.936	14.58
191.154	31.85
191.373	30.86
191.592	30.47
191.81	28.44
192.029	40
192.248	22.51
192.466	19.56
192.685	15.32
192.904	10.54
193.122	13.92
193.341	19.46
193.559	25.37
193.778	30.19
193.996	27.8
194.215	42.95
194.433	28.59
194.652	31.24
194.87	37.47
195.089	18.8
195.307	8.73
195.526	10.5
195.744	9.74
195.963	-19.93
196.181	-9.82
196.399	6.32
196.618	-22.16
196.836	7.03
197.055	30.68
197.273	26.25
197.491	70.56
197.71	83.42
197.928	75.67
198.146	84.76
198.365	77.41
198.583	71.8
198.801	71.12
199.019	82.49
199.238	78.88
199.456	63.96
199.674	79.45
199.892	45.99
200.111	48.34
200.329	50.43
200.547	47.09
200.765	53.96
200.983	50.64
201.202	50.03
201.42	34.13
201.638	-1.48
201.856	-86.68
202.074	-100.11
202.292	-445.03
202.51	-259.57
202.728	-354.86
202.946	-227.91
203.165	-213.77
203.383	-106.22
203.601	-132.77
203.819	-108
204.037	-92.74
204.255	-61.74
204.473	-114.53
204.691	-46.23
204.909	-14
205.127	-17.93
205.345	-75.84
205.562	-96.64
205.78	29.66
205.998	26.43
206.216	58.86
206.434	28.15
206.652	99.38
206.87	42.71
207.088	94.45
207.306	-1116.07
207.523	749.84
207.741	225.03
207.959	246.91
208.177	990.86
208.395	-350
208.612	224.29
208.83	9.93
209.048	16.37
209.266	57.67
209.483	16.63
209.701	-14.81
209.919	-18.95
210.136	-88.04
210.354	-38.07
210.572	-45.21
210.79	-48.38
211.007	-22.47
211.225	-43.46
211.442	-94.5
211.66	-66.09
211.878	-42.44
212.095	35.81
212.313	143.8
212.53	148.65
212.748	75.24
212.966	69.27
213.183	215.91
213.401	248.83
213.618	1581.02
213.836	-247.97
214.053	-268.54
214.271	605.12
214.488	-81.45
214.705	-81.97
214.923	-53.18
215.14	-65.83
215.358	-44.51
215.575	-26.21
215.793	-32.97
216.01	7.99
216.227	-4.33
216.445	16.42
216.662	-20.54
216.879	2.01
217.097	13.82
217.314	-2.15
217.531	-0.52
217.749	-6.68
217.966	-31.67
218.183	-49.89
218.4	-66.43
218.618	-50.05
218.835	-41.69
219.052	-25.41
219.269	-33.01
219.487	-39.29
219.704	-37.95
219.921	-29.56
220.138	-42.98
220.355	-40.1
220.572	-20.34
220.79	-3.96
221.007	-11.13
221.224	-14.69
221.441	-8.39
221.658	-4.26
221.875	-4.66
222.092	1.17
222.309	-4.18
222.526	12.45
222.743	15.2
222.96	9.61
223.177	0.88
223.394	12.58
223.611	20.94
223.828	20.4
224.045	11.93
224.262	6.3
224.479	14.44
224.696	15.77
224.913	7.74
225.13	11.58
225.347	11.13
225.564	9.99
225.781	6.19
225.997	5.12
226.214	5.15
226.431	10.32
226.648	12.03
226.865	10.63
227.082	11.66
227.298	12.59
227.515	12.79
227.732	10.84
227.949	9.07
228.165	10.8
228.382	9.29
228.599	10.18
228.816	8.09
229.032	6.91
229.249	3.96
229.466	4.31
229.682	3.16
229.899	-0.01
230.116	0.26
230.332	3.9
230.549	-3.01
230.765	0.28
230.982	-4.77
231.199	-4.82
231.415	-1.37
231.632	3.34
231.848	0.43
232.065	3.31
232.281	4.79
232.498	8.07
232.714	6.21
232.931	9.25
233.147	6.14
233.364	7.45
233.58	8.08
233.797	9.11
234.013	3.53
234.23	2.72
234.446	3.6
234.662	3.21
234.879	2.9
235.095	1
235.312	2.93
235.528	5.73
235.744	6.17
235.961	6.94
236.177	6.29
236.393	12.46
236.61	10.26
236.826	7.52
237.042	7.01
237.258	5.17
237.475	7.26
237.691	5.44
237.907	4.29
238.123	7
238.339	7.91
238.556	8.71
238.772	6.71
238.988	10.2
239.204	9.66
239.42	9.04
239.636	10.95
239.853	10.91
240.069	11.46
240.285	11.88
240.501	10.51
240.717	8.93
240.933	9.65
241.149	9.91
241.365	11.08
241.581	11.98
241.797	12.65
242.013	10.89
242.229	11.53
242.445	10.62
242.661	10.65
242.877	10.65
243.093	10.87
243.309	7.77
243.525	8.3
243.741	6.27
243.957	6.63
244.173	7.18
244.388	8.58
244.604	9.07
244.82	9.81
245.036	9.63
245.252	9.61
245.468	9.9
245.683	10.67
245.899	10.36
246.115	10.83
246.331	10.04
246.547	9.77
246.762	9.71
246.978	9.32
247.194	8.65
247.409	9.12
247.625	9.14
247.841	9.09
248.057	9.45
248.272	9.8
248.488	7.92
248.703	9.28
248.919	9.43
249.135	8.63
249.35	9.26
249.566	10.3
249.782	10.14
249.997	10.9
250.213	11.43
250.428	9.89
250.644	10.24
250.859	11.2
251.075	9.8
251.29	9.99
251.506	10.58
251.721	9.89
251.937	9
252.152	8.31
252.368	7.86
252.583	7.09
252.798	7.58
253.014	4.95
253.229	4.86
253.445	6.2
253.66	5.57
253.875	4.31
254.091	2.33
254.306	1.87
254.521	1.48
254.737	1.42
254.952	0.09
255.167	-0.01
255.383	2.76
255.598	2.96
255.813	3.48
256.028	2.86
256.244	3.66
256.459	4.7
256.674	5.63
256.889	6.07
257.104	6.51
257.32	7.48
257.535	7.41
257.75	7.21
257.965	7.65
258.18	7.5
258.395	7.57
258.61	7.51
258.826	7.51
259.041	7.54
259.256	7.85
259.471	7.64
259.686	7.44
259.901	7.46
260.116	6.93
260.331	5.88
260.546	5.88
260.761	5.93
260.976	6.12
261.191	5.31
261.406	5.21
261.621	4.77
261.836	4.14
262.05	2.36
262.265	1.54
262.48	3.05
262.695	3.92
262.91	2.68
263.125	2.58
263.34	2.02
263.555	3.14
263.769	2.68
263.984	1.88
264.199	2.29
264.414	4.4
264.629	5.59
264.843	4.73
265.058	3.54
265.273	4.23
265.488	4.78
265.702	5.31
265.917	5.13
266.132	5.33
266.346	6.13
266.561	6.69
266.776	6.81
266.99	7.35
267.205	6.95
267.42	7.93
267.634	8.12
267.849	7.08
268.063	7.06
268.278	6.08
268.492	5.45
268.707	4.51
268.922	4.01
269.136	3.95
269.351	2.86
269.565	3.27
269.78	3.27
269.994	2.4
270.209	2.85
270.423	2.76
270.637	3.48
270.852	3.92
271.066	4.9
271.281	4.82
271.495	4.18
271.709	4.92
271.924	5.05
272.138	5.43
272.353	5.78
272.567	6.16
272.781	6.63
272.996	6.87
273.21	7.51
273.424	6.98
273.638	7.49
273.853	8.34
274.067	8.25
274.281	8.46
274.495	8.1
274.71	9.11
274.924	8.65
275.138	7.95
275.352	8.03
275.566	7.96
275.781	7.39
275.995	7.43
276.209	7.25
276.423	6.84
276.637	6.33
276.851	6.06
277.065	4.86
277.279	5.46
277.493	6.05
277.707	7.11
277.921	6.99
278.135	6.91
278.349	6.56
278.563	7.11
278.777	7.28
278.991	7.29
279.205	7.54
279.419	8.11
279.633	7.54
279.847	7.46
280.061	6.96
280.275	5.93
280.489	5.91
280.703	6.23
280.917	6.53
281.131	6.43
281.344	7.01
281.558	7.59
281.772	7.52
281.986	7.84
282.2	7.22
282.414	7.45
282.627	7.65
282.841	8.59
283.055	8.24
283.269	7.73
283.482	7.97
283.696	7.73
283.91	6.93
284.123	6.69
284.337	6.78
284.551	7.45
284.764	7.14
284.978	7.46
285.192	7.58
285.405	7.74
285.619	7.54
285.833	7.38
286.046	7.32
286.26	8.11
286.473	9.04
286.687	9.19
286.9	9.04
287.114	9.13
287.327	9.56
287.541	9.46
287.754	9.58
287.968	9.71
288.181	9.64
288.395	10.09
288.608	9.88
288.822	9
289.035	9.27
289.248	9.21
289.462	9.72
289.675	9.48
289.889	9.16
290.102	9.54
290.315	9.95
290.529	10.49
290.742	10.78
290.955	10.78
291.169	12.1
291.382	11.97
291.595	12.11
291.808	11.75
292.022	12.91
292.235	12.86
292.448	12.98
292.661	12.77
292.875	12.83
293.088	12.06
293.301	12.86
293.514	12.81
293.727	12.7
293.94	12.88
294.153	12.7
294.367	12.03
294.58	12.06
294.793	11.56
295.006	12.33
295.219	12.52
295.432	12.76
295.645	12.84
295.858	12.98
296.071	13.43
296.284	13.7
296.497	14.03
296.71	13.75
296.923	14.5
297.136	15.38
297.349	14.48
297.562	14.05
297.775	14.5
297.988	14.57
298.201	15.14
298.414	15.25
298.626	15.1
298.839	15.44
299.052	15.27
299.265	14.92
299.478	14.76
299.691	15.82
299.903	16.59
300.116	16.51
300.329	16.82
300.542	16.57
300.755	16.87
300.967	17.54
301.18	17.33
301.393	18.26
301.605	19.01
301.818	19.06
302.031	18.89
302.243	19.1
302.456	19.28
302.669	18.84
302.881	18.42
303.094	18.55
303.307	17.66
303.519	17.25
303.732	17.78
303.944	17.46
304.157	16.99
304.37	16.5
304.582	16.81
304.795	16.79
305.007	16.98
305.22	16.99
305.432	16.79
305.645	17.6
305.857	18.43
306.069	18.56
306.282	17.81
306.494	18.1
306.707	18.81
306.919	18.83
307.132	19.5
307.344	19.57
307.556	19.46
307.769	19.56
307.981	19.14
308.193	19.07
308.406	18.59
308.618	19.22
308.83	19.2
309.043	19.3
309.255	19.04
309.467	18.49
309.679	17.91
309.892	17.76
310.104	17.38
310.316	17.66
310.528	17.25
310.74	17.71
310.953	17.91
311.165	18.49
311.377	18.32
311.589	18
311.801	19.2
312.013	20.12
312.225	21.04
312.437	21.46
312.649	20.98
312.862	21.88
313.074	22.05
313.286	21.28
313.498	20.93
313.71	21.06
313.922	21.32
314.134	20.22
314.346	19.49
314.558	18.72
314.77	18.63
314.982	19.44
315.193	19.55
315.405	19.21
315.617	19.98
315.829	21.11
316.041	21.52
316.253	21.8
316.465	21.36
316.677	20.9
316.888	22.11
317.1	22.18
317.312	22.27
317.524	21.59
317.736	21.72
317.947	20.98
318.159	19.45
318.371	18.71
318.583	18.33
318.794	18.75
319.006	20.24
319.218	19.12
319.43	19.28
319.641	18.97
319.853	19.94
320.064	20.17
320.276	21.09
320.488	22
320.699	23.09
320.911	23.37
321.123	24.45
321.334	23.38
321.546	23.28
321.757	23.48
321.969	23.54
322.18	23.57
322.392	22.94
322.603	22.88
322.815	22.11
323.026	22.21
323.238	22.21
323.449	21.55
323.661	22.32
323.872	23.47
324.083	23.48
324.295	24.08
324.506	24.54
324.718	25.46
324.929	25.5
325.14	26.52
325.352	26.34
325.563	27.25
325.774	28.49
325.986	29.23
326.197	29.39
326.408	30.43
326.62	31.24
326.831	30.93
327.042	31.22
327.253	31.64
327.464	31.75
327.676	32.7
327.887	33.21
328.098	32.87
328.309	33.14
328.52	33.71
328.732	34.17
328.943	33.6
329.154	34.21
329.365	34.52
329.576	35.08
329.787	35.37
329.998	35.61
330.209	35.8
330.42	36.02
330.631	36.78
330.842	36.5
331.053	36.05
331.264	36.33
331.475	36.77
331.686	37.26
331.897	38.32
332.108	38.6
332.319	38.96
332.53	39.26
332.741	39.88
332.952	39.31
333.163	38.96
333.374	39.41
333.585	40.34
333.795	40.24
334.006	40.81
334.217	40.79
334.428	41.1
334.639	40.9
334.849	41.3
335.06	41.86
335.271	42.45
335.482	43.53
335.692	44.08
335.903	43.82
336.114	44.12
336.325	44
336.535	43.76
336.746	43.99
336.957	44.15
337.167	44.54
337.378	44.52
337.589	44.22
337.799	43.42
338.01	43
338.22	43.16
338.431	43.37
338.642	43.63
338.852	43.54
339.063	43.86
339.273	44.35
339.484	42.8
339.694	42.81
339.905	43
340.115	43.25
340.326	43.18
340.536	43.23
340.746	42.58
340.957	42.22
341.167	42.55
341.378	42.56
341.588	42.24
341.799	42.99
342.009	42.45
342.219	42.68
342.43	43.51
342.64	43.47
342.85	43.27
343.061	43.39
343.271	43.55
343.481	43.62
343.691	43.61
343.902	43.68
344.112	44.41
344.322	44.17
344.532	43.46
344.743	43.54
344.953	43.76
345.163	44.08
345.373	43.95
345.583	43.82
345.793	43.29
346.004	43.84
346.214	44.01
346.424	43.71
346.634	43.69
346.844	44.26
347.054	43.88
347.264	44.09
347.474	44.15
347.684	44.47
347.894	45.12
348.104	45.84
348.314	45.04
348.524	44.33
348.734	43.91
348.944	44.15
349.154	44.36
349.364	44.57
349.574	44.57
349.784	45.1
349.994	45.1
350.204	44.39
350.413	43.79
350.623	43.91
350.833	44.52
351.043	44.63
351.253	44.52
351.463	44.36
351.672	44.2
351.882	43.81
352.092	43.5
352.302	43.66
352.511	43.62
352.721	43.66
352.931	43.18
353.141	42.68
353.35	42.92
353.56	42.94
353.77	42.87
353.979	42.56
354.189	43.05
354.399	42.47
354.608	42.03
354.818	42.07
355.027	42.07
355.237	41.98
355.447	42.31
355.656	42.18
355.866	42.75
356.075	42.94
356.285	42.97
356.494	42.43
356.704	42.5
356.913	42.54
357.123	42.5
357.332	42.28
357.542	42.33
357.751	41.95
357.96	42.36
358.17	41.69
358.379	41.08
358.589	40.98
358.798	41.5
359.007	41.4
359.217	41.74
359.426	41.62
359.635	41.91
359.845	41.89
360.054	42.3
360.263	41.75
360.472	41.8
360.682	42.24
360.891	42.4
361.1	42.17
361.309	42.19
361.519	42.06
361.728	42.08
361.937	42.02
362.146	42.21
362.355	41.89
362.564	41.99
362.774	42.11
362.983	41.89
363.192	41.77
363.401	41.11
363.61	41.05
363.819	40.74
364.028	40.45
364.237	39.96
364.446	39.18
364.655	39.12
364.864	38.59
365.073	38.35
365.282	38.12
365.491	37.7
365.7	38.08
365.909	37.96
366.118	37.82
366.327	38.02
366.536	38.07
366.745	38.25
366.954	37.63
367.162	37.48
367.371	37.08
367.58	36.8
367.789	36.83
367.998	36.42
368.207	35.88
368.415	35.75
368.624	35.33
368.833	34.83
369.042	35.01
369.25	35.5
369.459	35.54
369.668	35.44
369.877	35.88
370.085	35.75
370.294	35.75
370.503	35.78
370.711	35.97
370.92	35.92
371.129	36.42
371.337	35.72
371.546	35.57
371.754	35.35
371.963	35.16
372.171	34.69
372.38	34.91
372.589	34.82
372.797	34.95
373.006	34.43
373.214	34.62
373.423	34.15
373.631	34.57
373.84	34.16
374.048	34.18
374.256	34.26
374.465	34.09
374.673	33.71
374.882	33.37
375.09	33.01
375.298	33.32
375.507	32.92
375.715	32.91
375.923	32.57
376.132	32.43
376.34	32.01
376.548	31.95
376.757	31.94
376.965	31.74
377.173	31.76
377.381	31.51
377.59	30.78
377.798	30.7
378.006	30.71
378.214	30.77
378.423	30.81
378.631	30.87
378.839	30.3
379.047	30.02
379.255	30.16
379.463	29.97
379.671	30.24
379.879	29.88
380.088	29.36
380.296	28.96
380.504	28.88
380.712	28.67
380.92	28.12
381.128	28.53
381.336	28.12
381.544	27.49
381.752	27.5
381.96	27.05
382.168	27.39
382.376	27.46
382.584	26.99
382.791	26.82
382.999	26.59
383.207	26.37
383.415	26.01
383.623	25.94
383.831	25.76
384.039	25.48
384.247	25.19
384.454	24.87
384.662	24.76
384.87	24.56
385.078	24.16
385.285	23.6
385.493	23.94
385.701	23.83
385.909	23.61
386.116	23.32
386.324	23
386.532	23.05
386.739	22.84
386.947	22.6
387.155	22.47
387.362	22.47
387.57	22.4
387.778	22.18
387.985	21.91
388.193	21.75
388.4	21.44
388.608	21.23
388.816	20.79
389.023	20.55
389.231	20.43
389.438	20.51
389.646	20.2
389.853	20.3
390.061	20.02
390.268	19.79
390.475	19.57
390.683	19.79
390.89	19.6
391.098	19.62
391.305	19.51
391.512	19.14
391.72	18.84
391.927	18.79
392.135	18.7
392.342	18.59
392.549	18.51
392.756	18.4
392.964	18.32
393.171	18.26
393.378	18.11
393.586	17.92
393.793	17.79
394	17.92
394.207	17.77
394.414	17.46
394.622	17.38
394.829	17.34
395.036	17.43
395.243	17.31
395.45	17.46
395.657	17.69
395.864	17.7
396.072	17.74
396.279	17.53
396.486	17.67
396.693	17.56
396.9	17.43
397.107	17.37
397.314	17.05
397.521	16.73
397.728	16.41
397.935	16.22
398.142	16.3
398.349	16.29
398.556	16.16
398.763	15.92
398.97	15.79
399.177	15.73
399.383	15.36
399.59	15.56
399.797	15.51
400.004	15.46
400.211	15.32
400.418	15.26
400.625	15.25
400.831	15.18
401.038	15.2
401.245	15.44
401.452	15.36
401.658	15.49
401.865	15.44
402.072	15.42
402.279	15.52
402.485	15.28
402.692	15.11
402.899	15.03
403.105	15.01
403.312	14.85
403.519	14.7
403.725	14.72
403.932	14.75
404.138	14.71
404.345	14.64
404.552	14.61
404.758	14.73
404.965	14.86
405.171	14.79
405.378	14.9
405.584	14.84
405.791	14.9
405.997	14.84
406.204	14.92
406.41	14.76
406.617	14.7
406.823	14.54
407.029	14.42
407.236	14.34
407.442	14.35
407.649	14.3
407.855	14.46
408.061	14.51
408.268	14.42
408.474	14.34
408.68	14.37
408.887	14.53
409.093	14.6
409.299	14.72
409.505	14.68
409.712	14.65
409.918	14.53
410.124	14.43
410.33	14.37
410.537	14.4
410.743	14.27
410.949	14.24
411.155	14.15
411.361	14.01
411.567	13.74
411.773	13.51
411.98	13.49
412.186	13.59
412.392	13.49
412.598	13.36
412.804	13.25
413.01	13.09
413.216	13.08
413.422	13.19
413.628	13.2
413.834	13.32
414.04	13.43
414.246	13.47
414.452	13.39
414.658	13.4
414.864	13.41
415.07	13.42
415.275	13.75
415.481	13.71
415.687	13.52
415.893	13.6
416.099	13.65
416.305	13.66
416.511	13.64
416.716	13.55
416.922	13.47
417.128	13.39
417.334	13.37
417.539	13.16
417.745	13.17
417.951	13.22
418.157	13.07
418.362	12.98
418.568	12.93
418.774	12.83
418.979	12.84
419.185	12.82
419.391	12.86
419.596	12.79
419.802	12.77
420.008	12.7
420.213	12.68
420.419	12.72
420.624	12.74
420.83	12.72
421.035	12.69
421.241	12.7
421.446	12.68
421.652	12.68
421.857	12.7
422.063	12.74
422.268	12.75
422.474	12.78
422.679	12.72
422.885	12.67
423.09	12.68
423.295	12.76
423.501	12.69
423.706	12.72
423.911	12.62
424.117	12.57
424.322	12.5
424.527	12.47
424.733	12.34
424.938	12.29
425.143	12.35
425.349	12.3
425.554	12.31
425.759	12.29
425.964	12.21
426.169	12.24
426.375	12.22
426.58	12.19
426.785	12.32
426.99	12.38
427.195	12.59
427.4	12.61
427.605	12.61
427.811	12.45
428.016	12.58
428.221	12.64
428.426	12.58
428.631	12.62
428.836	12.67
429.041	12.49
429.246	12.54
429.451	12.36
429.656	12.18
429.861	12.2
430.066	12.3
430.271	12.15
430.476	12.25
430.681	12.25
430.886	12.21
431.09	12.05
431.295	12.15
431.5	12.1
431.705	12.1
431.91	12.22
432.115	12.22
432.32	12.15
432.524	12.2
432.729	12.18
432.934	12.23
433.139	12.28
433.343	12.32
433.548	12.25
433.753	12.27
433.958	12.29
434.162	12.25
434.367	12.19
434.572	12.27
434.776	12.21
434.981	12.15
435.186	12.09
435.39	12.15
435.595	12.22
435.799	12.27
436.004	12.36
436.209	12.44
436.413	12.49
436.618	12.47
436.822	12.47
437.027	12.51
437.231	12.51
437.436	12.55
437.64	12.5
437.845	12.51
438.049	12.4
438.253	12.39
438.458	12.4
438.662	12.36
438.867	12.37
439.071	12.27
439.275	12.21
439.48	12.15
439.684	12.09
439.888	12.05
440.093	12.02
440.297	12.03
440.501	11.98
440.706	11.85
440.91	11.86
441.114	11.88
441.318	11.96
441.523	12.02
441.727	12.08
441.931	12.16
442.135	12.31
442.339	12.4
442.543	12.46
442.748	12.35
442.952	12.38
443.156	12.36
443.36	12.38
443.564	12.35
443.768	12.25
443.972	12.25
444.176	12.17
444.38	12.12
444.584	11.99
444.788	11.96
444.992	11.98
445.196	12.02
445.4	11.94
445.604	11.92
445.808	11.87
446.012	11.89
446.216	11.83
446.42	11.91
446.624	11.82
446.828	11.86
447.032	11.82
447.235	11.78
447.439	11.75
447.643	11.79
447.847	11.78
448.051	11.83
448.254	11.84
448.458	11.97
448.662	11.94
448.866	11.98
449.069	11.96
449.273	11.99
449.477	12.02
449.681	11.98
449.884	12.02
450.088	12.01
450.292	11.82
450.495	11.75
450.699	11.6
450.902	11.54
451.106	11.56
451.31	11.59
451.513	11.56
451.717	11.58
451.92	11.54
452.124	11.56
452.327	11.65
452.531	11.87
452.734	11.95
452.938	11.93
453.141	12.02
453.345	11.9
453.548	11.85
453.752	11.98
453.955	11.91
454.158	12.02
454.362	11.92
454.565	11.77
454.769	11.71
454.972	11.64
455.175	11.68
455.379	11.54
455.582	11.49
455.785	11.58
455.988	11.5
456.192	11.58
456.395	11.52
456.598	11.57
456.801	11.65
457.005	11.74
457.208	11.77
457.411	11.71
457.614	11.78
457.817	11.86
458.021	11.84
458.224	11.8
458.427	11.76
458.63	11.74
458.833	11.7
459.036	11.65
459.239	11.62
459.442	11.56
459.645	11.61
459.848	11.62
460.051	11.56
460.254	11.51
460.457	11.54
460.66	11.65
460.863	11.64
461.066	11.72
461.269	11.69
461.472	11.73
461.675	11.89
461.878	11.91
462.081	11.84
462.284	11.98
462.486	12.12
462.689	12.12
462.892	12
463.095	12.13
463.298	12.15
463.5	12.23
463.703	12.13
463.906	12.11
464.109	12.1
464.311	12.14
464.514	12.19
464.717	12.12
464.92	12.17
465.122	12.29
465.325	12.25
465.528	12.3
465.73	12.32
465.933	12.35
466.135	12.45
466.338	12.51
466.541	12.6
466.743	12.55
466.946	12.56
467.148	12.61
467.351	12.51
467.553	12.44
467.756	12.43
467.958	12.5
468.161	12.57
468.363	12.56
468.566	12.43
468.768	12.29
468.971	12.27
469.173	12.31
469.375	12.3
469.578	12.4
469.78	12.43
469.983	12.36
470.185	12.19
470.387	12.27
470.59	12.23
470.792	12.32
470.994	12.47
471.196	12.55
471.399	12.53
471.601	12.55
471.803	12.45
472.005	12.52
472.208	12.55
472.41	12.71
472.612	12.55
472.814	12.46
473.016	12.49
473.218	12.57
473.421	12.47
473.623	12.59
473.825	12.6
474.027	12.66
474.229	12.71
474.431	12.76
474.633	12.7
474.835	12.75
475.037	12.85
475.239	12.86
475.441	12.7
475.643	12.65
475.845	12.55
476.047	12.5
476.249	12.55
476.451	12.51
476.653	12.46
476.855	12.42
477.057	12.39
477.258	12.36
477.46	12.39
477.662	12.38
477.864	12.46
478.066	12.44
478.268	12.48
478.469	12.44
478.671	12.33
478.873	12.35
479.075	12.41
479.276	12.39
479.478	12.32
479.68	12.28
479.882	12.29
480.083	12.28
480.285	12.32
480.487	12.29
480.688	12.25
480.89	12.29
481.091	12.24
481.293	12.15
481.495	12.15
481.696	12.15
481.898	12.07
482.099	12.11
482.301	12.08
482.502	12.03
482.704	11.99
482.905	11.99
483.107	11.95
483.308	11.94
483.51	11.97
483.711	11.97
483.913	11.97
484.114	12.01
484.315	11.97
484.517	11.97
484.718	12.01
484.92	12
485.121	12
485.322	12.02
485.524	12.01
485.725	11.96
485.926	11.91
486.127	11.89
486.329	11.92
486.53	11.92
486.731	11.9
486.932	11.92
487.134	11.92
487.335	11.93
487.536	11.96
487.737	12.01
487.938	12.03
488.139	12.09
488.341	12.12
488.542	12.19
488.743	12.23
488.944	12.3
489.145	12.28
489.346	12.34
489.547	12.37
489.748	12.34
489.949	12.35
490.15	12.37
490.351	12.36
490.552	12.37
490.753	12.28
490.954	12.27
491.155	12.29
491.356	12.28
491.557	12.27
491.758	12.26
491.959	12.37
492.159	12.34
492.36	12.36
492.561	12.4
492.762	12.42
492.963	12.47
493.164	12.49
493.364	12.46
493.565	12.42
493.766	12.48
493.967	12.51
494.167	12.45
494.368	12.54
494.569	12.65
494.769	12.67
494.97	12.67
495.171	12.68
495.371	12.79
495.572	12.9
495.773	12.98
495.973	13.02
496.174	13.1
496.375	13.14
496.575	13.12
496.776	13.1
496.976	13.12
497.177	13.22
497.377	13.27
497.578	13.24
497.778	13.2
497.979	13.3
498.179	13.34
498.38	13.37
498.58	13.3
498.78	13.4
498.981	13.53
499.181	13.71
499.382	13.69
499.582	13.81
499.782	13.89
499.983	14.02
500.183	14.05
500.383	14.09
500.584	14.1
500.784	14.21
500.984	14.3
501.184	14.36
501.385	14.31
501.585	14.32
501.785	14.31
501.985	14.36
502.185	14.44
502.386	14.44
502.586	14.49
502.786	14.53
502.986	14.62
503.186	14.66
503.386	14.63
503.586	14.59
503.786	14.73
503.987	14.79
504.187	14.84
504.387	14.87
504.587	14.93
504.787	15.02
504.987	15.07
505.187	15.18
505.387	15.3
505.587	15.35
505.786	15.54
505.986	15.52
506.186	15.66
506.386	15.74
506.586	15.81
506.786	15.92
506.986	15.94
507.186	16.09
507.386	16.08
507.585	16.11
507.785	16.23
507.985	16.31
508.185	16.44
508.384	16.48
508.584	16.49
508.784	16.55
508.984	16.6
509.183	16.7
509.383	16.72
509.583	16.76
509.782	16.73
509.982	16.74
510.182	16.72
510.381	16.71
510.581	16.67
510.781	16.83
510.98	16.91
511.18	16.95
511.379	16.92
511.579	16.99
511.778	17.07
511.978	17.2
512.177	17.32
512.377	17.45
512.576	17.55
512.776	17.79
512.975	17.89
513.175	17.95
513.374	18.17
513.573	18.38
513.773	18.53
513.972	18.57
514.172	18.62
514.371	18.61
514.57	18.68
514.77	18.71
514.969	18.67
515.168	18.67
515.367	18.75
515.567	18.72
515.766	18.84
515.965	18.86
516.164	18.96
516.364	19.04
516.563	19.16
516.762	19.18
516.961	19.27
517.16	19.33
517.359	19.39
517.559	19.37
517.758	19.42
517.957	19.41
518.156	19.4
518.355	19.52
518.554	19.5
518.753	19.5
518.952	19.61
519.151	19.66
519.35	19.74
519.549	19.81
519.748	19.88
519.947	20.01
520.146	20.07
520.345	20.2
520.544	20.2
520.743	20.35
520.942	20.51
521.141	20.57
521.339	20.7
521.538	20.78
521.737	20.87
521.936	20.95
522.135	20.85
522.333	20.89
522.532	21.01
522.731	21.01
522.93	21.1
523.129	21.08
523.327	21.11
523.526	21.16
523.725	21.22
523.923	21.18
524.122	21.25
524.321	21.37
524.519	21.45
524.718	21.47
524.917	21.61
525.115	21.66
525.314	21.69
525.512	21.76
525.711	21.82
525.909	21.85
526.108	21.93
526.306	22.01
526.505	22.03
526.703	22.1
526.902	22.1
527.1	22.06
527.299	22.04
527.497	22.05
527.696	22.03
527.894	22.05
528.092	22.03
528.291	22.01
528.489	21.99
528.688	22
528.886	21.97
529.084	22.02
529.283	22.04
529.481	22.16
529.679	22.29
529.877	22.4
530.076	22.45
530.274	22.58
530.472	22.76
530.67	22.88
530.869	22.87
531.067	22.89
531.265	22.92
531.463	23.03
531.661	22.99
531.859	22.94
532.057	22.92
532.255	22.93
532.454	22.88
532.652	22.86
532.85	22.86
533.048	22.97
533.246	23.01
533.444	23.05
533.642	23.08
533.84	23.18
534.038	23.26
534.236	23.35
534.434	23.38
534.632	23.47
534.83	23.49
535.027	23.51
535.225	23.53
535.423	23.62
535.621	23.64
535.819	23.64
536.017	23.6
536.215	23.65
536.412	23.64
536.61	23.67
536.808	23.69
537.006	23.73
537.203	23.78
537.401	23.74
537.599	23.7
537.797	23.72
537.994	23.75
538.192	23.83
538.39	23.88
538.587	24.02
538.785	24.12
538.983	24.15
539.18	24.2
539.378	24.13
539.575	24.17
539.773	24.21
539.97	24.23
540.168	24.26
540.366	24.3
540.563	24.28
540.761	24.22
540.958	24.2
541.155	24.14
541.353	24.18
541.55	24.26
541.748	24.33
541.945	24.36
542.143	24.37
542.34	24.42
542.537	24.36
542.735	24.4
542.932	24.45
543.129	24.52
543.327	24.66
543.524	24.71
543.721	24.73
543.919	24.75
544.116	24.79
544.313	24.89
544.51	24.94
544.708	25.05
544.905	25.05
545.102	25.16
545.299	25.16
545.496	25.18
545.693	25.19
545.891	25.2
546.088	25.27
546.285	25.31
546.482	25.3
546.679	25.3
546.876	25.36
547.073	25.49
547.27	25.52
547.467	25.57
547.664	25.66
547.861	25.65
548.058	25.73
548.255	25.77
548.452	25.82
548.649	25.92
548.846	25.96
549.043	25.97
549.24	26.04
549.437	25.93
549.633	25.97
549.83	26.04
550.027	26.13
550.224	26.21
550.421	26.21
550.618	26.27
550.814	26.22
551.011	26.25
551.208	26.19
551.405	26.15
551.601	26.24
551.798	26.26
551.995	26.18
552.191	26.15
552.388	26.12
552.585	26.16
552.781	26.1
552.978	26.07
553.175	25.99
553.371	26.14
553.568	26.15
553.764	26.2
553.961	26.27
554.157	26.24
554.354	26.37
554.55	26.43
554.747	26.41
554.943	26.57
555.14	26.76
555.336	26.97
555.533	26.98
555.729	27.04
555.926	27.14
556.122	27.04
556.318	27.22
556.515	27.28
556.711	27.3
556.907	27.42
557.104	27.27
557.3	27.23
557.496	27.3
557.693	27.26
557.889	27.35
558.085	27.25
558.281	27.32
558.478	27.37
558.674	27.4
558.87	27.44
559.066	27.3
559.262	27.45
559.459	27.49
559.655	27.47
559.851	27.54
560.047	27.57
560.243	27.78
560.439	27.86
560.635	27.87
560.831	27.79
561.027	27.81
561.223	27.9
561.419	28.01
561.615	28.03
561.811	28.06
562.007	28.13
562.203	28.17
562.399	28.07
562.595	28.08
562.791	28.28
562.987	28.49
563.183	28.52
563.379	28.65
563.575	28.69
563.771	28.68
563.966	28.52
564.162	28.54
564.358	28.46
564.554	28.49
564.75	28.49
564.945	28.43
565.141	28.36
565.337	28.35
565.533	28.33
565.728	28.28
565.924	28.32
566.12	28.48
566.315	28.55
566.511	28.61
566.707	28.76
566.902	28.96
567.098	28.92
567.293	28.91
567.489	29.02
567.684	28.96
567.88	29.02
568.076	29.06
568.271	29.18
568.467	29.16
568.662	29.27
568.858	29.19
569.053	29.13
569.248	29.12
569.444	29.2
569.639	29.16
569.835	29.34
570.03	29.37
570.225	29.39
570.421	29.39
570.616	29.34
570.812	29.28
571.007	29.28
571.202	29.32
571.397	29.31
571.593	29.41
571.788	29.58
571.983	29.58
572.178	29.62
572.374	29.74
572.569	29.79
572.764	29.77
572.959	29.84
573.154	29.92
573.35	29.94
573.545	30.03
573.74	29.94
573.935	29.87
574.13	29.78
574.325	29.81
574.52	29.74
574.715	29.76
574.91	29.86
575.105	29.9
575.3	29.83
575.495	29.8
575.69	29.83
575.885	29.94
576.08	30.11
576.275	30.28
576.47	30.24
576.665	30.31
576.86	30.23
577.055	30.36
577.25	30.31
577.444	30.49
577.639	30.51
577.834	30.59
578.029	30.61
578.224	30.56
578.418	30.51
578.613	30.58
578.808	30.76
579.003	30.8
579.197	30.8
579.392	30.93
579.587	31.01
579.781	30.94
579.976	31.03
580.171	31
580.365	31.02
580.56	31.19
580.755	31.3
580.949	31.3
581.144	31.42
581.338	31.49
581.533	31.57
581.727	31.54
581.922	31.76
582.116	31.84
582.311	31.88
582.505	31.77
582.7	31.96
582.894	31.81
583.089	31.71
583.283	31.75
583.478	31.81
583.672	31.83
583.866	31.84
584.061	31.87
584.255	31.8
584.449	31.9
584.644	32.1
584.838	31.79
585.032	31.97
585.226	31.92
585.421	31.78
585.615	31.81
585.809	31.82
586.003	31.75
586.198	31.89
586.392	32.03
586.586	32.03
586.78	31.93
586.974	32.08
587.168	32.07
587.363	32.16
587.557	32.27
587.751	32.09
587.945	32.01
588.139	32.15
588.333	32.01
588.527	31.93
588.721	31.92
588.915	32.04
589.109	32.07
589.303	32.05
589.497	32.11
589.691	32.11
589.885	32.25
590.079	32.25
590.273	32.26
590.466	32.3
590.66	32.3
590.854	32.35
591.048	32.28
591.242	32.25
591.436	32.21
591.629	32.22
591.823	32.31
592.017	32.32
592.211	32.42
592.404	32.33
592.598	32.48
592.792	32.43
592.986	32.58
593.179	32.61
593.373	32.6
593.567	32.7
593.76	32.61
593.954	32.52
594.147	32.66
594.341	32.66
594.535	32.68
594.728	32.7
594.922	32.77
595.115	32.72
595.309	32.7
595.502	32.75
595.696	32.83
595.889	32.92
596.083	32.98
596.276	32.88
596.47	32.83
596.663	32.8
596.856	32.78
597.05	32.79
597.243	32.65
597.437	32.75
597.63	32.65
597.823	32.46
598.017	32.34
598.21	32.28
598.403	32.18
598.596	32.19
598.79	32.35
598.983	32.24
599.176	32.37
599.369	32.55
599.563	32.49
599.756	32.67
599.949	32.8
600.142	32.97
600.335	32.98
600.528	33.17
600.722	33.33
600.915	33.35
601.108	33.32
601.301	33.21
601.494	33.17
601.687	33.15
601.88	33.11
602.073	33.14
602.266	33.25
602.459	33.28
602.652	33.17
602.845	33.16
603.038	33.23
603.231	33.32
603.424	33.25
603.617	33.21
603.809	33.26
604.002	33.17
604.195	33.12
604.388	32.91
604.581	32.92
604.774	33.13
604.966	33.07
605.159	32.98
605.352	32.81
605.545	32.92
605.737	32.98
605.93	32.97
606.123	33.06
606.316	33.19
606.508	33.33
606.701	33.33
606.894	33.17
607.086	33.26
607.279	33.34
607.471	33.58
607.664	33.59
607.857	33.74
608.049	33.74
608.242	33.69
608.434	33.52
608.627	33.54
608.819	33.49
609.012	33.57
609.204	33.58
609.397	33.37
609.589	33.24
609.782	33.34
609.974	33.16
610.166	33.2
610.359	33.27
610.551	33.46
610.743	33.51
610.936	33.71
611.128	33.76
611.32	33.75
611.513	33.96
611.705	34.09
611.897	34.1
612.09	34.2
612.282	34.11
612.474	34.21
612.666	34.14
612.858	34.26
613.051	34.11
613.243	34.19
613.435	34.11
613.627	34.15
613.819	34.06
614.011	33.98
614.203	33.94
614.395	34.02
614.588	34.05
614.78	34.11
614.972	34.08
615.164	34
615.356	33.85
615.548	33.92
615.74	33.88
615.932	33.85
616.124	33.8
616.315	33.95
616.507	33.88
616.699	33.91
616.891	33.81
617.083	33.69
617.275	33.84
617.467	33.85
617.659	33.98
617.85	34.13
618.042	34.19
618.234	34.26
618.426	34.03
618.618	34.13
618.809	34.04
619.001	34.05
619.193	34.15
619.384	34.25
619.576	34.4
619.768	34.29
619.959	34.07
620.151	34.23
620.343	34.13
620.534	34.23
620.726	34.28
620.917	34.32
621.109	34.29
621.301	34.28
621.492	34.11
621.684	34.26
621.875	34.27
622.067	34.55
622.258	34.45
622.45	34.59
622.641	34.74
622.832	34.82
623.024	34.8
623.215	35.04
623.407	34.87
623.598	34.87
623.789	34.59
623.981	34.51
624.172	34.35
624.363	34.43
624.555	34.42
624.746	34.3
624.937	34.44
625.129	34.38
625.32	34.27
625.511	34.35
625.702	34.51
625.893	34.49
626.085	34.63
626.276	34.58
626.467	34.47
626.658	34.34
626.849	34.2
627.04	34.05
627.231	34.13
627.422	34.16
627.614	33.95
627.805	33.67
627.996	33.71
628.187	33.66
628.378	33.56
628.569	33.71
628.76	33.77
628.951	34.02
629.142	33.84
629.332	33.9
629.523	33.91
629.714	34.16
629.905	34.44
630.096	34.47
630.287	34.55
630.478	34.63
630.669	34.54
630.859	34.53
631.05	34.55
631.241	34.78
631.432	34.85
631.623	34.82
631.813	34.88
632.004	34.8
632.195	34.85
632.385	34.83
632.576	34.85
632.767	34.78
632.957	34.91
633.148	34.99
633.339	34.82
633.529	34.77
633.72	34.81
633.91	34.77
634.101	34.8
634.292	34.92
634.482	34.85
634.673	34.93
634.863	34.98
635.054	34.95
635.244	34.77
635.435	34.89
635.625	34.82
635.815	34.84
636.006	34.96
636.196	35.04
636.387	34.71
636.577	34.8
636.767	34.98
636.958	35.1
637.148	35.08
637.338	35.18
637.529	35.04
637.719	35.16
637.909	35.21
638.099	35.21
638.29	35.01
638.48	35.36
638.67	35.23
638.86	35.05
639.05	34.88
639.241	34.92
639.431	34.84
639.621	34.97
639.811	34.92
640.001	34.85
640.191	34.75
640.381	34.94
640.571	34.7
640.761	34.95
640.951	35.09
641.141	35.15
641.331	35.08
641.521	35.07
641.711	34.94
641.901	34.71
642.091	34.67
642.281	34.95
642.471	35.19
642.661	35.16
642.851	35.04
643.041	34.88
643.231	35.02
643.42	35.05
643.61	35.36
643.8	35.54
643.99	35.97
644.18	35.87
644.369	35.86
644.559	35.6
644.749	35.61
644.939	35.43
645.128	35.52
645.318	35.58
645.508	35.68
645.697	35.57
645.887	35.68
646.076	35.5
646.266	35.69
646.456	35.6
646.645	35.7
646.835	35.75
647.024	35.81
647.214	35.93
647.403	35.89
647.593	36.04
647.782	35.79
647.972	35.56
648.161	35.46
648.351	35.55
648.54	35.46
648.73	35.26
648.919	35.49
649.108	35.65
649.298	35.48
649.487	35.44
649.677	35.22
649.866	35.33
650.055	35.54
650.244	35.68
650.434	35.78
650.623	35.77
650.812	35.98
651.002	35.86
651.191	35.72
651.38	35.87
651.569	35.9
651.758	36.02
651.947	36.1
652.137	36.05
652.326	35.98
652.515	35.92
652.704	36.06
652.893	36.13
653.082	36.19
653.271	36.59
653.46	36.6
653.649	36.59
653.838	36.73
654.027	36.79
654.216	36.82
654.405	36.96
654.594	37.02
654.783	36.98
654.972	36.92
655.161	36.98
655.35	36.65
655.539	36.47
655.728	36.75
655.916	36.56
656.105	36.31
656.294	36.18
656.483	36.13
656.672	36.01
656.86	36.14
657.049	36.19
657.238	36.19
657.427	36.37
657.615	36.5
657.804	36.44
657.993	36.62
658.181	36.88
658.37	36.81
658.559	36.74
658.747	36.7
658.936	36.63
659.125	36.58
659.313	36.6
659.502	36.44
659.69	36.49
659.879	36.33
660.067	36.21
660.256	36.17
660.444	36.39
660.633	36.48
660.821	36.58
661.01	36.64
661.198	36.8
661.387	36.61
661.575	36.82
661.763	36.9
661.952	36.84
662.14	36.81
662.328	36.94
662.517	37.16
662.705	36.97
662.893	37.01
663.082	36.96
663.27	36.58
663.458	36.76
663.646	36.68
663.834	36.68
664.023	36.96
664.211	37.07
664.399	36.88
664.587	36.64
664.775	36.93
664.963	36.8
665.152	36.6
665.34	36.8
665.528	36.64
665.716	36.56
665.904	36.4
666.092	36.24
666.28	36.08
666.468	36.1
666.656	36.12
666.844	36.07
667.032	36.15
667.22	36.35
667.408	36.32
667.596	36.41
667.784	36.29
667.971	36.53
668.159	36.57
668.347	36.61
668.535	36.74
668.723	36.65
668.911	36.47
669.098	36.41
669.286	36.4
669.474	36.53
669.662	36.65
669.849	36.74
670.037	36.53
670.225	36.48
670.413	36.56
670.6	36.32
670.788	36.43
670.976	36.76
671.163	36.7
671.351	36.67
671.538	36.5
671.726	36.24
671.913	36.23
672.101	36.2
672.289	36.19
672.476	35.97
672.664	36.2
672.851	35.93
673.039	35.64
673.226	35.93
673.413	35.73
673.601	35.79
673.788	35.99
673.976	36.23
674.163	36.32
674.35	36.3
674.538	36.36
674.725	36.23
674.912	36.36
675.1	36.26
675.287	36.19
675.474	36.5
675.662	36.72
675.849	36.9
676.036	36.92
676.223	36.92
676.411	37.19
676.598	37.31
676.785	37.26
676.972	37.27
677.159	37.5
677.346	37.23
677.533	37.29
677.721	37.14
677.908	36.85
678.095	36.65
678.282	36.75
678.469	36.74
678.656	36.8
678.843	37.05
679.03	37.16
679.217	37.25
679.404	37.56
679.591	37.36
679.778	37.2
679.964	37.4
680.151	37.53
680.338	37.35
680.525	37.12
680.712	37.15
680.899	36.91
681.086	37.03
681.272	37.18
681.459	37.05
681.646	37.22
681.833	37.52
682.02	37.51
682.206	37.57
682.393	37.85
682.58	38.02
682.766	37.82
682.953	37.92
683.14	37.53
683.326	37.34
683.513	37.33
683.7	37.38
683.886	37.21
684.073	37.26
684.259	37.26
684.446	37.2
684.632	37.26
684.819	37.66
685.005	37.73
685.192	38.06
685.378	38.14
685.565	38.21
685.751	38.08
685.938	38.06
686.124	37.78
686.31	37.48
686.497	37.14
686.683	37.31
686.87	37.06
687.056	36.94
687.242	37.01
687.429	36.84
687.615	37.01
687.801	37.16
687.987	37.22
688.174	37.26
688.36	37.48
688.546	37.88
688.732	37.51
688.918	37.62
689.105	37.36
689.291	37.26
689.477	37.35
689.663	37
689.849	36.98
690.035	36.97
690.221	37.28
690.407	37.4
690.593	37.32
690.779	37.67
690.965	37.84
691.151	38.28
691.337	38.24
691.523	38.19
691.709	38.32
691.895	37.99
692.081	38.01
692.267	37.79
692.453	37.73
692.639	37.55
692.825	37.3
693.011	36.91
693.196	36.66
693.382	36.76
693.568	36.57
693.754	36.73
693.94	37.19
694.125	37.5
694.311	37.46
694.497	37.61
694.682	37.78
694.868	37.73
695.054	37.64
695.239	37.94
695.425	37.82
695.611	38.1
695.796	37.89
695.982	37.85
696.168	37.61
696.353	37.44
696.539	37.37
696.724	37.31
696.91	37.3
697.095	37.58
697.281	37.24
697.466	37.36
697.652	37.35
697.837	37.53
698.023	37.28
698.208	37.14
698.393	37.31
698.579	37.03
698.764	37.14
698.949	37.08
699.135	36.89
699.32	37.11
699.505	37.02
699.691	36.77
699.876	36.51
700.061	36.59
700.246	36.71
700.432	36.93
700.617	37.24
700.802	36.99
700.987	36.92
701.172	36.58
701.358	36.44
701.543	36.76
701.728	37.29
701.913	37.53
702.098	37.45
702.283	37.39
702.468	36.95
702.653	36.79
702.838	37
703.023	37.18
703.208	37.62
703.393	37.42
703.578	37.09
703.763	36.81
703.948	36.67
704.133	36.7
704.318	36.73
704.503	37.17
704.688	37.82
704.873	37.44
705.057	37.47
705.242	37.61
705.427	38.17
705.612	38.33
705.797	38.44
705.981	38.7
706.166	38.67
706.351	39
706.536	38.8
706.72	38.07
706.905	38.48
707.09	38.18
707.274	38.05
707.459	38.11
707.644	38.05
707.828	38.08
708.013	37.96
708.197	38.09
708.382	38.04
708.567	38.04
708.751	38.41
708.936	38.25
709.12	38.6
709.305	38.35
709.489	38.14
709.673	38.11
709.858	37.74
710.042	37.44
710.227	37.4
710.411	37.11
710.596	37.12
710.78	36.87
710.964	36.88
711.149	36.99
711.333	37.34
711.517	37.19
711.702	37.04
711.886	37.31
712.07	37.49
712.254	37.75
712.438	37.84
712.623	37.88
712.807	37.95
712.991	37.98
713.175	37.56
713.359	37.23
713.544	36.97
713.728	36.89
713.912	36.59
714.096	36.78
714.28	36.77
714.464	36.42
714.648	36.34
714.832	36.41
715.016	36.24
715.2	36.69
715.384	36.99
715.568	37.46
715.752	37.72
715.936	37.78
716.12	37.6
716.304	37.31
716.488	37.55
716.671	37.6
716.855	37.83
717.039	38.26
717.223	38.27
717.407	37.69
717.59	37.7
717.774	37.39
717.958	37.54
718.142	37.58
718.325	37.52
718.509	37.97
718.693	37.88
718.877	37.42
719.06	37.43
719.244	37.3
719.428	38.13
719.611	38.33
719.795	38.8
719.978	39.03
720.162	39.05
720.345	39.02
720.529	38.66
720.713	38.61
720.896	38.56
721.08	37.76
721.263	37.16
721.446	37.08
721.63	36.94
721.813	36.6
721.997	36.17
722.18	36.07
722.364	36.56
722.547	36.19
722.73	36.26
722.914	36.29
723.097	37
723.28	37.7
723.464	37.2
723.647	37.13
723.83	37.34
724.013	37.73
724.197	37.48
724.38	36.86
724.563	37.16
724.746	37.57
724.929	37.7
725.112	37.01
725.296	36.64
725.479	36.92
725.662	36.78
725.845	36.97
726.028	36.63
726.211	36.8
726.394	37.21
726.577	37.76
726.76	37.44
726.943	38.11
727.126	38.61
727.309	38.8
727.492	38.52
727.675	38.56
727.858	38.02
728.041	37.85
728.224	38.11
728.407	37.93
728.589	37.97
728.772	37.89
728.955	37.9
729.138	37.67
729.321	38.02
729.503	38.26
729.686	38.03
729.869	38.55
730.052	38.92
730.234	38.88
730.417	39.09
730.6	38.75
730.782	38.75
730.965	38.29
731.148	38.45
731.33	38.34
731.513	38.26
731.695	38.63
731.878	38.6
732.061	38.17
732.243	38.14
732.426	38.13
732.608	38.05
732.791	37.64
732.973	37.47
733.156	37.2
733.338	36.77
733.52	36.98
733.703	36.84
733.885	36.28
734.068	36.81
734.25	36.67
734.432	36.22
734.615	36.61
734.797	37.15
734.979	37.05
735.162	37.24
735.344	37.51
735.526	37.33
735.708	37.43
735.891	37.66
736.073	37.11
736.255	37.13
736.437	37.6
736.619	37.36
736.802	37.65
736.984	37.9
737.166	37.85
737.348	38.06
737.53	38.61
737.712	38.73
737.894	38.72
738.076	39
738.258	39.39
738.44	39.54
738.622	39.38
738.804	39.09
738.986	38.74
739.168	38.73
739.35	38.48
739.532	37.65
739.714	37.39
739.896	37.03
740.078	37.35
740.259	36.79
740.441	36.2
740.623	36.28
740.805	36.18
740.987	36.18
741.168	36.23
741.35	36.25
741.532	36.58
741.714	36.58
741.895	36.78
742.077	36.22
742.259	36.72
742.44	37.21
742.622	37.32
742.804	37.63
742.985	37.96
743.167	38.14
743.348	38.4
743.53	38.42
743.711	38.51
743.893	39.22
744.075	39.84
744.256	39.41
744.438	39.54
744.619	38.9
744.8	38.62
744.982	38.51
745.163	38.25
745.345	38.25
745.526	38.35
745.707	38.95
745.889	38.36
746.07	38.02
746.252	38.32
746.433	38.72
746.614	39.55
746.795	39.72
746.977	40.06
747.158	40.81
747.339	40.79
747.52	40.72
747.702	39.9
747.883	40.18
748.064	40.09
748.245	40.24
748.426	39.43
748.607	39.04
748.788	38.73
748.97	38.8
749.151	38.24
749.332	38.18
749.513	38.65
749.694	38.31
749.875	38.18
750.056	38.48
750.237	38.37
750.418	38.64
750.599	39.02
750.78	38.53
750.96	38.07
751.141	38.21
751.322	37.76
751.503	37.52
751.684	37.89
751.865	37.71
752.046	37.53
752.226	37.55
752.407	37.87
752.588	37.39
752.769	38.01
752.949	37.58
753.13	37.77
753.311	37.36
753.492	36.84
753.672	37.12
753.853	38.23
754.034	38.44
754.214	39.04
754.395	38.95
754.575	39.41
754.756	38.93
754.937	39.26
755.117	38.48
755.298	38.64
755.478	38.35
755.659	38.07
755.839	36.93
756.02	36.43
756.2	35.03
756.381	34.11
756.561	33.31
756.741	33.43
756.922	33.79
757.102	33.92
757.283	34.8
757.463	35.59
757.643	35.65
757.823	35.59
758.004	36.14
758.184	36.9
758.364	37.35
758.545	37.77
758.725	38.21
758.905	38.26
759.085	38.63
759.265	38.13
759.446	38.37
759.626	38.24
759.806	39.04
759.986	38.67
760.166	38.13
760.346	37.98
760.526	37.92
760.706	37.91
760.886	38.16
761.066	38.88
761.246	38.95
761.426	38.98
761.606	38.71
761.786	38.37
761.966	38.68
762.146	39.02
762.326	39.32
762.506	39.46
762.686	39.76
762.866	39.59
763.046	39.59
763.225	39.46
763.405	39.26
763.585	39.63
763.765	40.05
763.945	39.86
764.124	40.02
764.304	39.89
764.484	39.72
764.664	39.25
764.843	39.27
765.023	38.55
765.203	38.39
765.382	38.48
765.562	38.21
765.741	37.66
765.921	38.13
766.101	38.24
766.28	38.26
766.46	38.07
766.639	38.33
766.819	38.36
766.998	38.69
767.178	38.97
767.357	38.44
767.537	38.55
767.716	38.31
767.896	37.55
768.075	37.44
768.254	37.01
768.434	37.29
768.613	36.97
768.792	37.13
768.972	37.18
769.151	36.89
769.33	37.05
769.51	37.52
769.689	38.28
769.868	38.9
770.047	38.5
770.226	38.77
770.406	38.64
770.585	39.16
770.764	38.86
770.943	38.98
771.122	39.18
771.301	39.38
771.48	38.23
771.66	37.58
771.839	37.03
772.018	36.38
772.197	36.47
772.376	36.38
772.555	36.17
772.734	36.36
772.913	35.92
773.092	36.58
773.271	37.02
773.449	37.25
773.628	36.88
773.807	36.43
773.986	36.66
774.165	36.47
774.344	36.93
774.523	37.19
774.701	36.48
774.88	36.72
775.059	35.97
775.238	35.22
775.417	36.26
775.595	36.55
775.774	37.82
775.953	38.59
776.131	39.02
776.31	38.06
776.489	36.76
776.667	37.49
776.846	36.57
777.025	37.27
777.203	37.48
777.382	36.21
777.56	36.58
777.739	35.18
777.917	34.54
778.096	34
778.274	33.89
778.453	35.04
778.631	34.9
778.81	35.3
778.988	34.72
779.166	34.84
779.345	35.48
779.523	35.14
779.702	35.13
779.88	35.35
780.058	35.95
780.237	37.71
780.415	37.05
780.593	36.15
780.771	36.03
780.95	36.07
781.128	36.3
781.306	35.75
781.484	35.28
781.662	35.03
781.841	34.59
782.019	34.64
782.197	33.45
782.375	33.84
782.553	34.11
782.731	34.74
782.909	34.41
783.087	34.18
783.265	34.4
783.443	35.27
783.621	35.31
783.799	35.82
783.977	35.83
784.155	36.02
784.333	36.32
784.511	36.83
784.689	36.04
784.867	36.68
785.045	36.76
785.223	37.15
785.4	36.63
785.578	37.49
785.756	37.54
785.934	36.98
786.112	36.07
786.289	35.85
786.467	34.98
786.645	35.08
786.823	36.09
787	36.84
787.178	37.01
787.356	37.34
787.533	37
787.711	37.5
787.889	37.46
788.066	38.71
788.244	39.45
788.421	40.14
788.599	40.18
788.776	40
788.954	38.54
789.131	39.09
789.309	38.72
789.486	38.74
789.664	38.18
789.841	38.59
790.019	38.32
790.196	37.51
790.373	37.63
790.551	38.27
790.728	36.94
790.906	37.85
791.083	37.26
791.26	37.42
791.437	37.89
791.615	38.21
791.792	36.86
791.969	36.42
792.146	35.32
792.324	35.07
792.501	35.64
792.678	36.22
792.855	35.64
793.032	35.59
793.209	35.31
793.387	34.68
793.564	34.55
793.741	35.38
793.918	35.93
794.095	37.31
794.272	37.52
794.449	37.44
794.626	37.71
794.803	38.05
794.98	38.3
795.157	38.11
795.334	39.09
795.511	38.38
795.688	37.88
795.864	38.45
796.041	38.93
796.218	39.04
796.395	38.33
796.572	38.91
796.749	39.07
796.925	38.47
797.102	39.54
797.279	39.26
797.456	40.08
797.632	40.97
797.809	40.64
797.986	40.74
798.162	40.31
798.339	40.86
798.516	40.13
798.692	39.85
798.869	39.51
799.046	37.77
799.222	36
799.399	35.63
799.575	36.07
799.752	36.01
799.928	35.94
800.105	35.15
800.281	35.01
800.458	35.13
800.634	35.02
800.811	35.59
800.987	36.28
801.163	37.49
801.34	37.41
801.516	36
801.692	36.1
801.869	35.11
802.045	36.73
802.221	36.32
802.398	35.3
802.574	35.39
802.75	34.68
802.926	35.14
803.103	35.01
803.279	34.93
803.455	35.51
803.631	34.56
803.807	35.17
803.983	34.19
804.16	35.36
804.336	36.86
804.512	36.59
804.688	37.67
804.864	37.38
805.04	37.85
805.216	37.23
805.392	37.97
805.568	37.27
805.744	37.8
805.92	37.69
806.096	36.05
806.272	35.21
806.448	35.9
806.623	35.15
806.799	35.3
806.975	35.66
807.151	36.48
807.327	34.82
807.503	36.69
807.678	35.73
807.854	36.6
808.03	36.92
808.206	36.09
808.381	35.19
808.557	35.85
808.733	36.04
808.908	36.21
809.084	36.57
809.26	37.46
809.435	36.65
809.611	35.87
809.787	37.09
809.962	36.46
810.138	37.47
810.313	37.17
810.489	36.45
810.664	35.34
810.84	34.56
811.015	34.11
811.191	34.83
811.366	35.39
811.542	35.22
811.717	33.65
811.892	35.31
812.068	35.02
812.243	35.37
812.419	35.49
812.594	36.76
812.769	37.85
812.944	37.34
813.12	36.18
813.295	35.74
813.47	36.45
813.645	36.11
813.821	36.11
813.996	36.32
814.171	37.4
814.346	36.52
814.521	35.66
814.697	35.28
814.872	37
815.047	37.01
815.222	36.94
815.397	36.81
815.572	36.63
815.747	35.41
815.922	34.94
816.097	34.1
816.272	35.95
816.447	37.06
816.622	35.48
816.797	34.78
816.972	35.6
817.147	35.34
817.322	35.95
817.496	37.36
817.671	37.65
817.846	37.82
818.021	38.2
818.196	37.57
818.371	36.02
818.545	37.3
818.72	37.33
818.895	37.22
819.069	37.59
819.244	37.28
819.419	36.17
819.594	37.07
819.768	37.56
819.943	37.36
820.117	37.49
820.292	38.67
820.467	38.58
820.641	38.21
820.816	38.13
820.99	38.31
821.165	38.2
821.339	38.51
821.514	38.09
821.688	38.04
821.863	37.84
822.037	37.78
822.212	37.47
822.386	37.19
822.56	37.13
822.735	37.14
822.909	37.19
823.084	37.15
823.258	36.82
823.432	36.59
823.606	36.13
823.781	36.13
823.955	35.87
824.129	35.8
824.303	36.02
824.478	35.73
824.652	35.56
824.826	35.12
825	35.02
825.174	35.1
825.348	35.48
825.523	35.92
825.697	35.68
825.871	35.88
826.045	35.37
826.219	35.11
826.393	35.39
826.567	35.43
826.741	35.01
826.915	35.28
827.089	35.41
827.263	35.57
827.437	35.7
827.611	36.42
827.784	36.31
827.958	36.71
828.132	36.94
828.306	37.15
828.48	36.85
828.654	37.47
828.827	37.64
829.001	37.7
829.175	36.86
829.349	36.29
829.522	35.38
829.696	35.15
829.87	35.41
830.044	35.04
830.217	34.69
830.391	34.54
830.565	35.25
830.738	34.58
830.912	33.96
831.085	34.19
831.259	33.75
831.432	34.14
831.606	35.04
831.779	34.2
831.953	35.06
832.126	35.7
832.3	36.15
832.473	35.21
832.647	34.83
832.82	34.64
832.994	35.02
833.167	35.06
833.34	35.55
833.514	35
833.687	35.61
833.86	35.03
834.034	34.5
834.207	34.59
834.38	34.24
834.553	34.8
834.727	34.23
834.9	33.86
835.073	33.87
835.246	32.84
835.419	33.22
835.593	33.3
835.766	33.32
835.939	32.61
836.112	32.41
836.285	33.17
836.458	32.69
836.631	34.19
836.804	33.97
836.977	34.16
837.15	34.81
837.323	34.14
837.496	33.14
837.669	33.28
837.842	34.49
838.015	32.73
838.188	32.1
838.361	29.95
838.533	29.82
838.706	30.12
838.879	29.82
839.052	29.01
839.225	31.01
839.398	31.39
839.57	32.56
839.743	32.21
839.916	35.32
840.088	33.84
840.261	35.21
840.434	35.23
840.607	35.64
840.779	35.95
840.952	36.94
841.124	33.78
841.297	34.47
841.47	32.99
841.642	32.61
841.815	30.94
841.987	32.65
842.16	33.52
842.332	33.83
842.505	34.19
842.677	35.31
842.85	35.06
843.022	36.6
843.194	34.79
843.367	33.27
843.539	33.61
843.712	32.56
843.884	30.86
844.056	31.74
844.229	29.52
844.401	29.75
844.573	28.78
844.745	28.07
844.918	28.12
845.09	30.11
845.262	33.05
845.434	32.4
845.606	34.86
845.779	36.15
845.951	32.76
846.123	37.16
846.295	38.02
846.467	37.46
846.639	38.47
846.811	37.05
846.983	37.87
847.155	37.93
847.327	39.6
847.499	40.69
847.671	40.74
847.843	41.11
848.015	36.21
848.187	34.93
848.359	36.05
848.531	37.38
848.703	38.49
848.875	35.28
849.047	34.95
849.218	33.03
849.39	30.45
849.562	30.79
849.734	29.71
849.905	33.41
850.077	30.87
850.249	32.46
850.421	31.16
850.592	30.96
850.764	30.29
850.936	24.76
851.107	27.42
851.279	25.9
851.451	25.61
851.622	27.7
851.794	23.39
851.965	30
852.137	28.34
852.308	28.67
852.48	25.71
852.651	27.71
852.823	31.8
852.994	33.89
853.166	36.5
853.337	38.82
853.509	39.91
853.68	39.99
853.851	32.8
854.023	31.53
854.194	32.01
854.365	38.53
854.537	39.7
854.708	38.98
854.879	38.08
855.05	38.05
855.222	39.67
855.393	38.29
855.564	37.69
855.735	42.42
855.906	42.18
856.078	42.07
856.249	38.54
856.42	36.83
856.591	37.17
856.762	32.62
856.933	31.29
857.104	24.14
857.275	21.68
857.446	23.95
857.617	19.37
857.788	17.5
857.959	15.24
858.13	22.52
858.301	23.99
858.472	23.44
858.643	25.75
858.814	26.84
858.985	33.54
859.155	35.7
859.326	31.44
859.497	33.93
859.668	37.62
859.839	40.9
860.009	35.77
860.18	35.47
860.351	37.11
860.522	36.41
860.692	34.41
860.863	31.25
861.034	32.68
861.204	38.73
861.375	31.69
861.546	28.8
861.716	25.12
861.887	23.18
862.057	23.26
862.228	24.47
862.398	25.76
862.569	23.92
862.739	26.92
862.91	26.11
863.08	27.97
863.251	32.72
863.421	32.36
863.592	33.06
863.762	31.02
863.932	34.04
864.103	32.68
864.273	32.76
864.443	37.37
864.614	34.61
864.784	35.07
864.954	31.35
865.125	31.8
865.295	36.71
865.465	39.38
865.635	44.18
865.805	42.91
865.976	43.35
866.146	42.3
866.316	38.98
866.486	39.08
866.656	41.04
866.826	37.68
866.996	35.47
867.166	31.28
867.336	31.07
867.506	23.64
867.676	15.73
867.846	15.17
868.016	16.85
868.186	20.91
868.356	25.4
868.526	25.47
868.696	32.85
868.866	39.57
869.036	37.54
869.206	36.35
869.376	40.33
869.545	43.6
869.715	42.75
869.885	41.63
870.055	42.39
870.224	38.81
870.394	39.49
870.564	36.7
870.734	33.97
870.903	33.39
871.073	34.02
871.243	33.86
871.412	33.71
871.582	35.11
871.751	37.9
871.921	34.65
872.091	30.57
872.26	27.38
872.43	23.34
872.599	19.8
872.769	25.79
872.938	23.55
873.108	22.02
873.277	21.9
873.446	20.73
873.616	24.74
873.785	28.28
873.955	31.96
874.124	30.27
874.293	32.22
874.463	33.27
874.632	28.69
874.801	30.2
874.971	30.25
875.14	31.61
875.309	30.81
875.478	24.55
875.647	19.18
875.817	19.7
875.986	17.8
876.155	14.89
876.324	15.35
876.493	13.78
876.662	15.3
876.831	13.73
877	13.73
877.17	12.23
877.339	13.89
877.508	19.28
877.677	22.36
877.846	27.24
878.015	31.33
878.184	33.64
878.352	38.98
878.521	35.39
878.69	37.01
878.859	36.87
879.028	40.06
879.197	39.33
879.366	38.15
879.534	36.36
879.703	33.53
879.872	33.59
880.041	34.57
880.21	32.39
880.378	33.53
880.547	33.38
880.716	32.01
880.884	31.29
881.053	32.27
881.222	32.81
881.39	32.39
881.559	33
881.727	33.04
881.896	32.7
882.065	32.32
882.233	32.83
882.402	32.86
882.57	33.76
882.739	34
882.907	33.05
883.076	33.08
883.244	32.92
883.412	33.63
883.581	34.05
883.749	34.14
883.918	34.47
884.086	33.44
884.254	33.03
884.423	33
884.591	33.21
884.759	33.9
884.927	33.05
885.096	33.81
885.264	33.8
885.432	32.8
885.6	31.99
885.769	32.92
885.937	31.97
886.105	30.28
886.273	30.2
886.441	29.65
886.609	28.91
886.777	30.35
886.945	29.23
887.113	26.79
887.281	27.93
887.449	26.71
887.617	25.49
887.785	31.95
887.953	34.94
888.121	34.54
888.289	36.22
888.457	35.77
888.625	37.3
888.793	39.5
888.961	43.61
889.129	39.72
889.296	41.28
889.464	43.4
889.632	39.04
889.8	40.74
889.967	39.46
890.135	37.71
