Data from 2938454_Reflection_2.txt Node
Date: Fri Jun 19 17:51:27 EDT 2015
User: robert
Spectrometer: USB4E03002
Autoset integration time: false
Trigger mode: 4
Integration Time (sec): 1.000000E-1
Scans to average: 10
Electric dark correction enabled: true
Nonlinearity correction enabled: false
Boxcar width: 5
Stray light correction enabled: false
XAxis mode: Wavelengths
Stop averaging: false
Number of Pixels in Spectrum: 3648
>>>>>Begin Spectral Data<<<<<
177.575	-238.76
177.794	-5.11
178.014	-10.02
178.233	31.79
178.452	61.01
178.672	-3.66
178.891	88.36
179.11	-111.97
179.33	25.88
179.549	0.23
179.768	18.84
179.987	-26.52
180.207	12.96
180.426	10.08
180.645	-3.09
180.864	-44.26
181.084	306.77
181.303	92.45
181.522	53.37
181.741	88.73
181.96	65.15
182.179	71.06
182.398	60.23
182.618	84.65
182.837	94.52
183.056	90.11
183.275	87.02
183.494	72.85
183.713	98.86
183.932	129.36
184.151	130.64
184.37	244.64
184.589	367.96
184.808	321.71
185.027	267.96
185.246	224.78
185.465	437.57
185.684	204500
185.903	-48.59
186.122	2.36
186.341	23.84
186.56	15.88
186.779	99.2
186.998	115.21
187.216	118.95
187.435	120.78
187.654	158.82
187.873	226.2
188.092	223.12
188.311	199
188.53	206.41
188.748	207.74
188.967	164.12
189.186	120.15
189.405	309.96
189.623	1101.59
189.842	120.73
190.061	31.54
190.28	-40.72
190.498	-22.01
190.717	226.25
190.936	165.24
191.154	143.02
191.373	67.08
191.592	77.93
191.81	290.9
192.029	361.85
192.248	163.08
192.466	165.07
192.685	183.39
192.904	122.83
193.122	184.11
193.341	-453.73
193.559	1059.03
193.778	-3463.12
193.996	-617.19
194.215	347.54
194.433	172.55
194.652	-159.4
194.87	45.5
195.089	-33.93
195.307	-3.48
195.526	-235.96
195.744	43.69
195.963	19250
196.181	129.85
196.399	115.62
196.618	65.53
196.836	93.76
197.055	80.53
197.273	69.26
197.491	48.9
197.71	28.93
197.928	-27.41
198.146	-17.77
198.365	-13.48
198.583	-52.83
198.801	-193.15
199.019	-364.42
199.238	-268.04
199.456	-217.28
199.674	-152.76
199.892	1105.43
200.111	128.35
200.329	54.47
200.547	47.95
200.765	41.92
200.983	30.37
201.202	-2.54
201.42	43.23
201.638	32.94
201.856	58.69
202.074	99.42
202.292	174.31
202.51	125.14
202.728	177.04
202.946	502.23
203.165	3906.58
203.383	-404.85
203.601	-45.35
203.819	-82.82
204.037	317.92
204.255	239.69
204.473	141.71
204.691	156.17
204.909	142
205.127	65.71
205.345	47.92
205.562	62.12
205.78	78.24
205.998	112.26
206.216	189.47
206.434	400
206.652	-40.66
206.87	36.97
207.088	410.29
207.306	121.54
207.523	53.36
207.741	32.54
207.959	57.49
208.177	77.47
208.395	65.11
208.612	61.97
208.83	61.87
209.048	54.02
209.266	43.84
209.483	24.61
209.701	20.46
209.919	24.9
210.136	43.58
210.354	19.57
210.572	13.16
210.79	60.03
211.007	52.66
211.225	34.2
211.442	54.99
211.66	73.98
211.878	56.2
212.095	61.61
212.313	67.86
212.53	53.03
212.748	54.68
212.966	70.9
213.183	55.86
213.401	60.56
213.618	65.69
213.836	62.8
214.053	54.4
214.271	100.18
214.488	20.26
214.705	45.19
214.923	46.57
215.14	0.53
215.358	-59.5
215.575	-163.92
215.793	-81.66
216.01	8.56
216.227	24.02
216.445	-7.59
216.662	7.2
216.879	50.1
217.097	50.69
217.314	47.49
217.531	48.86
217.749	55.75
217.966	57.72
218.183	43.09
218.4	46.9
218.618	42.47
218.835	49.23
219.052	67.62
219.269	47.13
219.487	35.24
219.704	34.79
219.921	46.8
220.138	39.31
220.355	40.07
220.572	25.96
220.79	9.25
221.007	-0.04
221.224	-5.68
221.441	-11.42
221.658	4.03
221.875	-6.98
222.092	-16.76
222.309	-15.13
222.526	-17.55
222.743	-32.49
222.96	-11.33
223.177	-9.41
223.394	-3.06
223.611	-1.5
223.828	6.88
224.045	4.21
224.262	3.92
224.479	8.73
224.696	8.3
224.913	12.95
225.13	18.12
225.347	16.71
225.564	19.82
225.781	17.17
225.997	16.66
226.214	14.49
226.431	12.8
226.648	13.62
226.865	11.55
227.082	11.7
227.298	9.9
227.515	10.19
227.732	8.53
227.949	8.38
228.165	10.26
228.382	10.8
228.599	10.52
228.816	10.84
229.032	10.11
229.249	11.26
229.466	10.13
229.682	12.2
229.899	11.99
230.116	13.9
230.332	12.55
230.549	12.24
230.765	10.17
230.982	6.62
231.199	8.24
231.415	10.05
231.632	9.85
231.848	12.92
232.065	13.25
232.281	12.48
232.498	12.07
232.714	12.85
232.931	12.36
233.147	15.3
233.364	19.74
233.58	19.61
233.797	20.42
234.013	22.24
234.23	21.62
234.446	21.78
234.662	19.76
234.879	19.51
235.095	17.58
235.312	16.96
235.528	18.17
235.744	15.64
235.961	12.99
236.177	11.06
236.393	8.99
236.61	7.47
236.826	8.4
237.042	8.78
237.258	8.79
237.475	10.56
237.691	10.41
237.907	10.48
238.123	11.07
238.339	11.76
238.556	11.58
238.772	11.33
238.988	12.56
239.204	11.82
239.42	13.31
239.636	13.84
239.853	13.06
240.069	13.32
240.285	11.84
240.501	11.82
240.717	11.75
240.933	12.01
241.149	12.13
241.365	12
241.581	12.01
241.797	11.82
242.013	11.75
242.229	11.22
242.445	10.84
242.661	11.03
242.877	11.34
243.093	11.24
243.309	10.8
243.525	10.53
243.741	10.57
243.957	10.58
244.173	10.05
244.388	8.52
244.604	9.44
244.82	9.81
245.036	9.53
245.252	9.13
245.468	9.17
245.683	8.94
245.899	8.94
246.115	8.42
246.331	7.77
246.547	7.73
246.762	7.95
246.978	8.03
247.194	7.61
247.409	7.64
247.625	8.18
247.841	8.14
248.057	8.09
248.272	8.07
248.488	7.94
248.703	8.58
248.919	9.39
249.135	9.44
249.35	8.73
249.566	8.98
249.782	10.29
249.997	9.55
250.213	9.43
250.428	9.67
250.644	9.63
250.859	10.27
251.075	10.55
251.29	9.37
251.506	9.04
251.721	9.25
251.937	9.05
252.152	7.78
252.368	7.28
252.583	7.66
252.798	7.81
253.014	7.95
253.229	7.97
253.445	7.3
253.66	6.65
253.875	7.65
254.091	5.26
254.306	5.23
254.521	5.74
254.737	5.85
254.952	5.12
255.167	5.25
255.383	5.66
255.598	5.62
255.813	5.58
256.028	6.24
256.244	6.02
256.459	7.91
256.674	7.72
256.889	6.52
257.104	6.42
257.32	6.5
257.535	5.95
257.75	5.62
257.965	5.68
258.18	5.65
258.395	5.97
258.61	6.14
258.826	5.7
259.041	5.29
259.256	6.11
259.471	6.23
259.686	6.43
259.901	6.87
260.116	6.47
260.331	6.35
260.546	6.87
260.761	6.59
260.976	6.5
261.191	6.6
261.406	7.45
261.621	6.56
261.836	6.59
262.05	6.02
262.265	6.25
262.48	7.36
262.695	8.43
262.91	7.88
263.125	7.67
263.34	8.22
263.555	7.18
263.769	6.38
263.984	7.63
264.199	7.37
264.414	8
264.629	7.73
264.843	7
265.058	6.12
265.273	6.09
265.488	6.52
265.702	5.58
265.917	6.59
266.132	6.8
266.346	5.73
266.561	6.06
266.776	5.58
266.99	4.8
267.205	5.32
267.42	6.01
267.634	5.85
267.849	5.29
268.063	5.49
268.278	5.92
268.492	6.26
268.707	6.14
268.922	5.39
269.136	5.52
269.351	5.95
269.565	6.02
269.78	5.64
269.994	5.77
270.209	6.22
270.423	6.57
270.637	6.38
270.852	6.18
271.066	6.71
271.281	7.43
271.495	7.3
271.709	7.26
271.924	7.06
272.138	7.36
272.353	7.12
272.567	7.08
272.781	7.05
272.996	6.85
273.21	6.94
273.424	6.83
273.638	6.31
273.853	6.92
274.067	6.82
274.281	7.13
274.495	5.88
274.71	6.6
274.924	6.42
275.138	6.55
275.352	6.52
275.566	6.87
275.781	6.84
275.995	7.56
276.209	7.1
276.423	7.46
276.637	7.16
276.851	8.19
277.065	7.42
277.279	8.02
277.493	7.82
277.707	7.38
277.921	6.74
278.135	6.68
278.349	5.87
278.563	5.97
278.777	5.98
278.991	6.05
279.205	5.84
279.419	5.83
279.633	6.12
279.847	6.29
280.061	6.31
280.275	6.66
280.489	6.37
280.703	6.92
280.917	6.49
281.131	5.86
281.344	6.05
281.558	5.46
281.772	6.08
281.986	5.67
282.2	5.88
282.414	5.81
282.627	5.76
282.841	6.33
283.055	6.2
283.269	6.74
283.482	7.22
283.696	7.06
283.91	7.54
284.123	7.23
284.337	7.01
284.551	6.66
284.764	6.86
284.978	7.05
285.192	6.48
285.405	6.48
285.619	6.54
285.833	6.69
286.046	6.76
286.26	6.86
286.473	7
286.687	7.5
286.9	7.82
287.114	7.86
287.327	7.88
287.541	7.78
287.754	8
287.968	7.56
288.181	7.34
288.395	7.33
288.608	6.9
288.822	6.84
289.035	6.64
289.248	6.34
289.462	6.61
289.675	6.62
289.889	7.17
290.102	6.45
290.315	6.07
290.529	6.31
290.742	6.46
290.955	6.67
291.169	6.58
291.382	6.72
291.595	6.76
291.808	6.25
292.022	5.93
292.235	5.91
292.448	6.22
292.661	6.8
292.875	6.66
293.088	6.81
293.301	7.47
293.514	7.33
293.727	6.54
293.94	7.19
294.153	7.5
294.367	7.6
294.58	7.76
294.793	7.7
295.006	7.88
295.219	7.9
295.432	8.19
295.645	7.63
295.858	8.08
296.071	8.76
296.284	8.22
296.497	8.61
296.71	8.88
296.923	8.67
297.136	8.77
297.349	8.32
297.562	8.17
297.775	7.78
297.988	8.22
298.201	8.29
298.414	7.86
298.626	8.62
298.839	7.81
299.052	7.51
299.265	7.52
299.478	7.51
299.691	7.89
299.903	8.04
300.116	8.67
300.329	8.41
300.542	8.57
300.755	8.77
300.967	8.55
301.18	9.65
301.393	9.8
301.605	10.09
301.818	10.39
302.031	10.23
302.243	10.15
302.456	9.03
302.669	8.85
302.881	8.71
303.094	8.76
303.307	8.42
303.519	7.85
303.732	7.45
303.944	7.8
304.157	8.04
304.37	8.27
304.582	8.05
304.795	8.95
305.007	9.37
305.22	8.71
305.432	8.58
305.645	8.4
305.857	8.8
306.069	9.15
306.282	8.46
306.494	8.52
306.707	8.43
306.919	8.97
307.132	8.47
307.344	8.34
307.556	8.96
307.769	9.19
307.981	9.31
308.193	9.1
308.406	8.61
308.618	8.8
308.83	8.49
309.043	8.87
309.255	8.98
309.467	9.11
309.679	9.4
309.892	9.22
310.104	9.08
310.316	9.26
310.528	9.29
310.74	9.78
310.953	9.86
311.165	9.98
311.377	10.32
311.589	10.53
311.801	10.91
312.013	10.94
312.225	10.99
312.437	11.05
312.649	11.31
312.862	10.78
313.074	11.09
313.286	11.19
313.498	11.55
313.71	11.16
313.922	10.92
314.134	11.62
314.346	10.81
314.558	11.01
314.77	11.45
314.982	11.4
315.193	12.47
315.405	12.84
315.617	12.73
315.829	13.1
316.041	13.11
316.253	13.51
316.465	12.49
316.677	13.12
316.888	13.34
317.1	13.28
317.312	13.21
317.524	12.5
317.736	12.62
317.947	13.06
318.159	12.41
318.371	12.43
318.583	11.41
318.794	12.04
319.006	11.52
319.218	11.18
319.43	11.11
319.641	11.13
319.853	11.36
320.064	11.3
320.276	11.08
320.488	10.55
320.699	10.04
320.911	10.42
321.123	9.36
321.334	10.33
321.546	10.41
321.757	10.61
321.969	10.98
322.18	10.85
322.392	10.25
322.603	9.83
322.815	10.35
323.026	10.59
323.238	10.38
323.449	10.62
323.661	10.68
323.872	10.66
324.083	9.8
324.295	9.74
324.506	10.07
324.718	10.24
324.929	10.34
325.14	10.86
325.352	11.54
325.563	11.94
325.774	12.35
325.986	12.37
326.197	12.73
326.408	13.77
326.62	14.09
326.831	14.08
327.042	14.12
327.253	15.13
327.464	15.17
327.676	14.89
327.887	15.06
328.098	15.07
328.309	14.73
328.52	15.01
328.732	14.71
328.943	15
329.154	14.77
329.365	14.85
329.576	14.48
329.787	14.1
329.998	14.01
330.209	14.54
330.42	14.96
330.631	15.31
330.842	15.1
331.053	14.93
331.264	14.06
331.475	14.32
331.686	14.74
331.897	15.12
332.108	15.06
332.319	15.64
332.53	15.32
332.741	15.33
332.952	15.77
333.163	16.2
333.374	16.7
333.585	17.11
333.795	16.99
334.006	17.02
334.217	16.82
334.428	17.33
334.639	17.47
334.849	17.86
335.06	17.79
335.271	17.72
335.482	16.99
335.692	16.81
335.903	16.58
336.114	17.28
336.325	16.81
336.535	16.72
336.746	16.5
336.957	16.19
337.167	16.22
337.378	15.86
337.589	15.99
337.799	16.13
338.01	16.17
338.22	16.25
338.431	16.08
338.642	17
338.852	17.4
339.063	17.06
339.273	16.72
339.484	16.35
339.694	16.3
339.905	16.19
340.115	16.11
340.326	16.28
340.536	16.8
340.746	16.38
340.957	15.59
341.167	15.28
341.378	15.81
341.588	16.18
341.799	15.92
342.009	15.78
342.219	14.87
342.43	14.87
342.64	14.75
342.85	14.28
343.061	14.43
343.271	14.48
343.481	14.06
343.691	13.83
343.902	13.84
344.112	14.3
344.322	14.67
344.532	15.43
344.743	15.94
344.953	15.98
345.163	15.81
345.373	15.84
345.583	15.63
345.793	15.79
346.004	15.99
346.214	15.97
346.424	16.36
346.634	16.32
346.844	15.86
347.054	15.34
347.264	15.48
347.474	15.64
347.684	15.87
347.894	16.09
348.104	16.79
348.314	16.55
348.524	16
348.734	15.37
348.944	15.15
349.154	15.63
349.364	16.07
349.574	15.69
349.784	15.65
349.994	15.34
350.204	15.18
350.413	14.49
350.623	14.76
350.833	15.02
351.043	15.01
351.253	14.69
351.463	14.5
351.672	14.3
351.882	14.7
352.092	14.86
352.302	15.2
352.511	15.44
352.721	15.36
352.931	15.56
353.141	15.48
353.35	15.31
353.56	15.81
353.77	15.75
353.979	15.23
354.189	14.93
354.399	14.77
354.608	14.43
354.818	14.32
355.027	14.39
355.237	13.88
355.447	14.12
355.656	14.5
355.866	14.54
356.075	14.7
356.285	14.8
356.494	15.2
356.704	15.23
356.913	15.28
357.123	14.93
357.332	14.8
357.542	14.79
357.751	14.62
357.96	14.6
358.17	14.47
358.379	14.25
358.589	14.46
358.798	14.08
359.007	14.23
359.217	14.47
359.426	14.46
359.635	14.58
359.845	14.59
360.054	14.42
360.263	14.02
360.472	14.07
360.682	14
360.891	13.77
361.1	13.79
361.309	13.51
361.519	12.88
361.728	13.16
361.937	13.14
362.146	12.85
362.355	12.74
362.564	12.95
362.774	12.72
362.983	12.66
363.192	12.73
363.401	12.66
363.61	12.55
363.819	13.14
364.028	13.02
364.237	12.51
364.446	12.53
364.655	12.71
364.864	12.74
365.073	13.11
365.282	13.07
365.491	13.12
365.7	13.29
365.909	13.42
366.118	13.09
366.327	13.21
366.536	13.7
366.745	13.74
366.954	13.68
367.162	13.66
367.371	13.43
367.58	13.21
367.789	12.98
367.998	12.51
368.207	12.4
368.415	12.11
368.624	12.1
368.833	11.9
369.042	12.09
369.25	12.35
369.459	12.31
369.668	11.99
369.877	12.39
370.085	12.68
370.294	12.75
370.503	12.43
370.711	12.44
370.92	12.19
371.129	12.41
371.337	12.11
371.546	11.64
371.754	11.1
371.963	10.99
372.171	10.74
372.38	10.29
372.589	10.65
372.797	10.96
373.006	11.54
373.214	11.67
373.423	11.1
373.631	11.19
373.84	11.31
374.048	11.8
374.256	12.21
374.465	11.99
374.673	12.04
374.882	11.59
375.09	11.19
375.298	10.93
375.507	11.19
375.715	11.36
375.923	11.39
376.132	11.28
376.34	10.91
376.548	10.54
376.757	10.66
376.965	10.69
377.173	10.74
377.381	11.27
377.59	11.11
377.798	10.76
378.006	10.84
378.214	11.21
378.423	11.2
378.631	11.28
378.839	11.37
379.047	11.26
379.255	11.26
379.463	11.25
379.671	11.13
379.879	11.3
380.088	10.98
380.296	10.91
380.504	10.41
380.712	10.46
380.92	10.54
381.128	10.22
381.336	10.13
381.544	10.05
381.752	9.82
381.96	9.7
382.168	9.73
382.376	10.09
382.584	9.72
382.791	10.02
382.999	9.82
383.207	9.65
383.415	9.98
383.623	10.17
383.831	10.12
384.039	10.51
384.247	10.51
384.454	10.15
384.662	9.78
384.87	10.07
385.078	9.8
385.285	9.85
385.493	9.88
385.701	9.71
385.909	9.52
386.116	9.49
386.324	9.03
386.532	8.8
386.739	8.98
386.947	8.93
387.155	8.89
387.362	8.99
387.57	9.01
387.778	9.12
387.985	8.95
388.193	8.94
388.4	8.78
388.608	8.85
388.816	8.84
389.023	8.61
389.231	8.72
389.438	8.46
389.646	8.22
389.853	8.14
390.061	7.94
390.268	7.97
390.475	8.07
390.683	8.13
390.89	8.08
391.098	8.1
391.305	8.16
391.512	8.05
391.72	8.12
391.927	8.2
392.135	8.11
392.342	8.24
392.549	8.33
392.756	8.52
392.964	8.54
393.171	8.7
393.378	8.7
393.586	8.8
393.793	8.87
394	8.85
394.207	8.78
394.414	8.86
394.622	8.89
394.829	8.93
395.036	8.43
395.243	8.41
395.45	8.26
395.657	8.22
395.864	8.17
396.072	8.31
396.279	8.09
396.486	8
396.693	8.02
396.9	7.85
397.107	7.55
397.314	7.5
397.521	7.43
397.728	7.36
397.935	7.27
398.142	7.1
398.349	6.91
398.556	7.08
398.763	7.12
398.97	7.01
399.177	7.07
399.383	7.11
399.59	7.35
399.797	7.36
400.004	7.3
400.211	7.35
400.418	7.48
400.625	7.42
400.831	7.49
401.038	7.5
401.245	7.46
401.452	7.24
401.658	7.44
401.865	7.33
402.072	7.35
402.279	7.36
402.485	7.34
402.692	7.26
402.899	7.23
403.105	7.25
403.312	7.2
403.519	7.25
403.725	7.37
403.932	7.34
404.138	7.44
404.345	7.51
404.552	7.55
404.758	7.67
404.965	7.68
405.171	7.69
405.378	7.57
405.584	7.66
405.791	7.72
405.997	7.73
406.204	7.58
406.41	7.52
406.617	7.33
406.823	7.26
407.029	7.21
407.236	7.33
407.442	7.38
407.649	7.57
407.855	7.54
408.061	7.57
408.268	7.54
408.474	7.56
408.68	7.49
408.887	7.48
409.093	7.64
409.299	7.62
409.505	7.61
409.712	7.56
409.918	7.35
410.124	7.22
410.33	7.13
410.537	7.11
410.743	7.17
410.949	7.23
411.155	7.18
411.361	7.08
411.567	7.16
411.773	7.11
411.98	7.13
412.186	7.19
412.392	7.17
412.598	7.07
412.804	7.09
413.01	7.05
413.216	6.97
413.422	7
413.628	7.13
413.834	6.99
414.04	6.92
414.246	6.91
414.452	6.84
414.658	6.86
414.864	6.85
415.07	6.89
415.275	7.02
415.481	7.11
415.687	7.14
415.893	7
416.099	6.98
416.305	7.05
416.511	7.13
416.716	7.18
416.922	7.27
417.128	7.33
417.334	7.31
417.539	7.21
417.745	7.2
417.951	7.22
418.157	7.19
418.362	7.26
418.568	7.23
418.774	7.17
418.979	7.08
419.185	7.06
419.391	7.12
419.596	7.09
419.802	7.1
420.008	7.13
420.213	6.67
420.419	6.78
420.624	6.77
420.83	6.77
421.035	6.73
421.241	6.86
421.446	6.92
421.652	6.88
421.857	6.91
422.063	6.91
422.268	6.87
422.474	7.25
422.679	7.24
422.885	7.28
423.09	7.25
423.295	7.33
423.501	7.27
423.706	7.17
423.911	7.18
424.117	7.14
424.322	7.14
424.527	7.1
424.733	7.15
424.938	7.09
425.143	6.99
425.349	7.05
425.554	6.97
425.759	7.07
425.964	7.12
426.169	7.1
426.375	7.12
426.58	7.13
426.785	7.19
426.99	7.29
427.195	7.35
427.4	7.34
427.605	7.31
427.811	7.34
428.016	7.16
428.221	7.2
428.426	7.28
428.631	7.37
428.836	7.38
429.041	7.34
429.246	7.24
429.451	7.24
429.656	7.25
429.861	7.26
430.066	7.24
430.271	7.28
430.476	7.23
430.681	7.22
430.886	7.11
431.09	6.98
431.295	7.08
431.5	7.11
431.705	7.12
431.91	7.17
432.115	7.16
432.32	7.18
432.524	7.26
432.729	7.35
432.934	7.36
433.139	7.39
433.343	7.53
433.548	7.45
433.753	7.51
433.958	7.55
434.162	7.55
434.367	7.49
434.572	7.44
434.776	7.35
434.981	7.2
435.186	7.08
435.39	7.05
435.595	7.05
435.799	7.09
436.004	7.13
436.209	7.07
436.413	7.11
436.618	7.09
436.822	7.13
437.027	7.16
437.231	7.21
437.436	7.28
437.64	7.31
437.845	7.28
438.049	7.29
438.253	7.14
438.458	7.19
438.662	7.15
438.867	7.2
439.071	7.23
439.275	7.16
439.48	7.14
439.684	7.17
439.888	7.14
440.093	7.16
440.297	7.16
440.501	7.24
440.706	7.25
440.91	7.17
441.114	7.14
441.318	7.16
441.523	7.19
441.727	7.15
441.931	7.05
442.135	7.11
442.339	7.07
442.543	7.12
442.748	7.06
442.952	7.05
443.156	7.15
443.36	7.14
443.564	7.15
443.768	7.2
443.972	7.27
444.176	7.34
444.38	7.28
444.584	7.26
444.788	7.21
444.992	7.2
445.196	7.2
445.4	7.14
445.604	7.17
445.808	7.2
446.012	7.15
446.216	7.18
446.42	7.19
446.624	7.24
446.828	7.28
447.032	7.29
447.235	7.27
447.439	7.22
447.643	7.21
447.847	7.14
448.051	7.09
448.254	7.2
448.458	7.11
448.662	7.05
448.866	6.99
449.069	6.98
449.273	7.01
449.477	7.11
449.681	7.19
449.884	7.31
450.088	7.28
450.292	7.16
450.495	7.02
450.699	7.2
450.902	7.26
451.106	7.23
451.31	7.19
451.513	7.15
451.717	7.19
451.92	7.18
452.124	7.08
452.327	7.17
452.531	7.27
452.734	7.28
452.938	7.07
453.141	6.92
453.345	6.94
453.548	6.98
453.752	6.94
453.955	6.9
454.158	6.8
454.362	6.88
454.565	6.87
454.769	6.76
454.972	6.88
455.175	7.05
455.379	7.14
455.582	7.08
455.785	7.05
455.988	7.07
456.192	6.98
456.395	6.96
456.598	6.86
456.801	6.85
457.005	6.89
457.208	6.83
457.411	6.79
457.614	6.78
457.817	6.82
458.021	6.87
458.224	6.91
458.427	6.99
458.63	6.99
458.833	7.1
459.036	7.07
459.239	7.09
459.442	7.11
459.645	7.15
459.848	7.16
460.051	7.19
460.254	7.11
460.457	7.1
460.66	7.12
460.863	7.09
461.066	6.93
461.269	7.01
461.472	6.94
461.675	6.88
461.878	6.84
462.081	6.78
462.284	6.73
462.486	6.79
462.689	6.74
462.892	6.64
463.095	6.75
463.298	6.68
463.5	6.67
463.703	6.76
463.906	6.76
464.109	6.72
464.311	6.82
464.514	6.88
464.717	6.92
464.92	6.91
465.122	6.81
465.325	6.84
465.528	6.95
465.73	6.94
465.933	6.95
466.135	6.97
466.338	7.09
466.541	7.18
466.743	7.2
466.946	7.21
467.148	7.25
467.351	7.36
467.553	7.35
467.756	7.49
467.958	7.49
468.161	7.43
468.363	7.43
468.566	7.26
468.768	7.06
468.971	7.07
469.173	7.1
469.375	7.13
469.578	7.1
469.78	7.04
469.983	6.97
470.185	6.92
470.387	7.08
470.59	7.07
470.792	7.07
470.994	7.2
471.196	7.26
471.399	7.14
471.601	7.18
471.803	7.18
472.005	7.24
472.208	7.25
472.41	7.31
472.612	7.31
472.814	7.36
473.016	7.41
473.218	7.38
473.421	7.28
473.623	7.27
473.825	7.25
474.027	7.21
474.229	7.18
474.431	7.09
474.633	7.12
474.835	7.09
475.037	7.08
475.239	7.14
475.441	7.22
475.643	7.23
475.845	7.19
476.047	7.15
476.249	7.23
476.451	7.29
476.653	7.35
476.855	7.32
477.057	7.27
477.258	7.22
477.46	7.19
477.662	7.08
477.864	7.16
478.066	7.31
478.268	7.26
478.469	7.36
478.671	7.33
478.873	7.31
479.075	7.34
479.276	7.43
479.478	7.4
479.68	7.43
479.882	7.44
480.083	7.37
480.285	7.3
480.487	7.29
480.688	7.28
480.89	7.26
481.091	7.27
481.293	7.26
481.495	7.23
481.696	7.29
481.898	7.25
482.099	7.25
482.301	7.24
482.502	7.25
482.704	7.28
482.905	7.26
483.107	7.29
483.308	7.3
483.51	7.31
483.711	7.3
483.913	7.27
484.114	7.28
484.315	7.29
484.517	7.32
484.718	7.35
484.92	7.34
485.121	7.31
485.322	7.27
485.524	7.28
485.725	7.28
485.926	7.31
486.127	7.3
486.329	7.34
486.53	7.32
486.731	7.32
486.932	7.31
487.134	7.29
487.335	7.34
487.536	7.36
487.737	7.33
487.938	7.29
488.139	7.22
488.341	7.26
488.542	7.23
488.743	7.22
488.944	7.17
489.145	7.16
489.346	7.15
489.547	7.13
489.748	7.14
489.949	7.13
490.15	7.22
490.351	7.26
490.552	7.24
490.753	7.24
490.954	7.22
491.155	7.26
491.356	7.26
491.557	7.26
491.758	7.31
491.959	7.28
492.159	7.32
492.36	7.33
492.561	7.28
492.762	7.27
492.963	7.29
493.164	7.38
493.364	7.41
493.565	7.37
493.766	7.41
493.967	7.42
494.167	7.47
494.368	7.46
494.569	7.39
494.769	7.44
494.97	7.53
495.171	7.56
495.371	7.59
495.572	7.56
495.773	7.64
495.973	7.66
496.174	7.57
496.375	7.54
496.575	7.55
496.776	7.63
496.976	7.59
497.177	7.55
497.377	7.58
497.578	7.59
497.778	7.61
497.979	7.57
498.179	7.58
498.38	7.61
498.58	7.64
498.78	7.64
498.981	7.65
499.181	7.76
499.382	7.81
499.582	7.73
499.782	7.74
499.983	7.8
500.183	7.84
500.383	7.87
500.584	7.96
500.784	8.01
500.984	8.08
501.184	8.01
501.385	8
501.585	7.92
501.785	7.97
501.985	8
502.185	7.95
502.386	7.93
502.586	8.02
502.786	7.97
502.986	7.92
503.186	7.9
503.386	7.89
503.586	7.91
503.786	8.05
503.987	8.15
504.187	8.19
504.387	8.21
504.587	8.39
504.787	8.29
504.987	8.35
505.187	8.35
505.387	8.37
505.587	8.48
505.786	8.46
505.986	8.4
506.186	8.39
506.386	8.33
506.586	8.39
506.786	8.3
506.986	8.48
507.186	8.46
507.386	8.54
507.585	8.63
507.785	8.66
507.985	8.72
508.185	8.8
508.384	8.83
508.584	8.86
508.784	8.9
508.984	8.9
509.183	8.85
509.383	8.9
509.583	8.95
509.782	8.91
509.982	8.9
510.182	8.95
510.381	8.92
510.581	8.95
510.781	9.02
510.98	9.05
511.18	9.16
511.379	9.16
511.579	9.24
511.778	9.28
511.978	9.31
512.177	9.39
512.377	9.44
512.576	9.48
512.776	9.53
512.975	9.45
513.175	9.53
513.374	9.51
513.573	9.59
513.773	9.59
513.972	9.63
514.172	9.69
514.371	9.67
514.57	9.68
514.77	9.75
514.969	9.72
515.168	9.81
515.367	9.84
515.567	9.9
515.766	9.88
515.965	9.9
516.164	9.91
516.364	9.92
516.563	9.98
516.762	9.99
516.961	10.05
517.16	10.16
517.359	10.21
517.559	10.22
517.758	10.23
517.957	10.28
518.156	10.34
518.355	10.4
518.554	10.45
518.753	10.45
518.952	10.48
519.151	10.51
519.35	10.52
519.549	10.56
519.748	10.62
519.947	10.72
520.146	10.78
520.345	10.8
520.544	10.74
520.743	10.76
520.942	10.82
521.141	10.83
521.339	10.86
521.538	10.84
521.737	10.85
521.936	10.83
522.135	10.85
522.333	10.79
522.532	10.79
522.731	10.81
522.93	10.88
523.129	10.89
523.327	10.99
523.526	11.01
523.725	11.12
523.923	11.12
524.122	11.13
524.321	11.1
524.519	11.15
524.718	11.22
524.917	11.31
525.115	11.32
525.314	11.39
525.512	11.41
525.711	11.43
525.909	11.38
526.108	11.46
526.306	11.5
526.505	11.53
526.703	11.54
526.902	11.55
527.1	11.58
527.299	11.57
527.497	11.59
527.696	11.61
527.894	11.61
528.092	11.64
528.291	11.63
528.489	11.64
528.688	11.65
528.886	11.69
529.084	11.7
529.283	11.68
529.481	11.75
529.679	11.77
529.877	11.82
530.076	11.86
530.274	11.89
530.472	11.98
530.67	12.03
530.869	12.05
531.067	12.08
531.265	12.09
531.463	12.11
531.661	12.1
531.859	12.08
532.057	12.08
532.255	12.11
532.454	12.16
532.652	12.16
532.85	12.19
533.048	12.21
533.246	12.22
533.444	12.32
533.642	12.4
533.84	12.48
534.038	12.57
534.236	12.57
534.434	12.6
534.632	12.69
534.83	12.67
535.027	12.66
535.225	12.73
535.423	12.76
535.621	12.75
535.819	12.74
536.017	12.76
536.215	12.78
536.412	12.87
536.61	12.87
536.808	12.74
537.006	12.82
537.203	12.85
537.401	12.84
537.599	12.88
537.797	12.91
537.994	12.92
538.192	12.97
538.39	12.94
538.587	12.89
538.785	13.02
538.983	13.09
539.18	13.07
539.378	13.11
539.575	13.14
539.773	13.15
539.97	13.2
540.168	13.24
540.366	13.25
540.563	13.31
540.761	13.37
540.958	13.33
541.155	13.39
541.353	13.44
541.55	13.48
541.748	13.5
541.945	13.54
542.143	13.53
542.34	13.56
542.537	13.61
542.735	13.6
542.932	13.64
543.129	13.67
543.327	13.67
543.524	13.73
543.721	13.76
543.919	13.79
544.116	13.89
544.313	13.96
544.51	13.95
544.708	13.93
544.905	13.98
545.102	13.99
545.299	13.98
545.496	13.92
545.693	13.9
545.891	13.91
546.088	13.94
546.285	13.87
546.482	13.84
546.679	13.88
546.876	13.97
547.073	14.01
547.27	14.03
547.467	14.07
547.664	14.17
547.861	14.21
548.058	14.19
548.255	14.2
548.452	14.27
548.649	14.33
548.846	14.53
549.043	14.52
549.24	14.54
549.437	14.57
549.633	14.64
549.83	14.74
550.027	14.88
550.224	15
550.421	15.12
550.618	15.07
550.814	15.16
551.011	15.09
551.208	15.04
551.405	15.1
551.601	15.18
551.798	15.25
551.995	15.2
552.191	15.19
552.388	15.14
552.585	15.21
552.781	15.27
552.978	15.26
553.175	15.33
553.371	15.38
553.568	15.41
553.764	15.43
553.961	15.35
554.157	15.49
554.354	15.54
554.55	15.69
554.747	15.78
554.943	15.93
555.14	15.92
555.336	15.89
555.533	15.97
555.729	16
555.926	16
556.122	16.17
556.318	16.2
556.515	16.14
556.711	16.24
556.907	16.25
557.104	16.2
557.3	16.27
557.496	16.23
557.693	16.27
557.889	16.33
558.085	16.5
558.281	16.55
558.478	16.59
558.674	16.74
558.87	16.71
559.066	16.77
559.262	16.75
559.459	16.78
559.655	17
559.851	17.08
560.047	17.15
560.243	17.17
560.439	17.19
560.635	17.13
560.831	17.12
561.027	17.13
561.223	17.09
561.419	17.29
561.615	17.44
561.811	17.33
562.007	17.39
562.203	17.52
562.399	17.5
562.595	17.58
562.791	17.77
562.987	17.84
563.183	17.94
563.379	17.87
563.575	17.78
563.771	17.79
563.966	17.88
564.162	17.88
564.358	17.88
564.554	17.91
564.75	17.89
564.945	17.81
565.141	17.86
565.337	17.91
565.533	18.05
565.728	18.1
565.924	18.08
566.12	18.17
566.315	18.25
566.511	18.31
566.707	18.37
566.902	18.47
567.098	18.61
567.293	18.61
567.489	18.66
567.684	18.73
567.88	18.82
568.076	19.05
568.271	19.12
568.467	19.19
568.662	19.28
568.858	19.38
569.053	19.37
569.248	19.39
569.444	19.5
569.639	19.52
569.835	19.59
570.03	19.57
570.225	19.5
570.421	19.47
570.616	19.47
570.812	19.45
571.007	19.51
571.202	19.67
571.397	19.65
571.593	19.7
571.788	19.75
571.983	19.78
572.178	19.9
572.374	19.98
572.569	20.15
572.764	20.24
572.959	20.26
573.154	20.27
573.35	20.17
573.545	20.39
573.74	20.43
573.935	20.52
574.13	20.46
574.325	20.54
574.52	20.59
574.715	20.44
574.91	20.47
575.105	20.58
575.3	20.55
575.495	20.69
575.69	20.69
575.885	20.64
576.08	20.75
576.275	20.9
576.47	20.82
576.665	20.77
576.86	20.96
577.055	20.92
577.25	20.87
577.444	20.99
577.639	21.03
577.834	21.01
578.029	21.16
578.224	21.09
578.418	21.2
578.613	21.3
578.808	21.49
579.003	21.54
579.197	21.63
579.392	21.68
579.587	21.79
579.781	21.85
579.976	21.91
580.171	21.94
580.365	21.94
580.56	21.92
580.755	22
580.949	21.94
581.144	21.94
581.338	21.97
581.533	22.1
581.727	22.05
581.922	22.02
582.116	21.92
582.311	21.94
582.505	22.02
582.7	21.96
582.894	21.99
583.089	21.97
583.283	22.06
583.478	22.1
583.672	21.95
583.866	22.02
584.061	22.14
584.255	22.31
584.449	22.33
584.644	22.38
584.838	22.45
585.032	22.33
585.226	22.26
585.421	22.2
585.615	22.27
585.809	22.37
586.003	22.36
586.198	22.33
586.392	22.4
586.586	22.45
586.78	22.42
586.974	22.48
587.168	22.59
587.363	22.71
587.557	22.77
587.751	22.73
587.945	22.74
588.139	22.79
588.333	22.82
588.527	22.74
588.721	22.69
588.915	22.71
589.109	22.76
589.303	22.88
589.497	22.93
589.691	23.05
589.885	23.23
590.079	23.24
590.273	23.3
590.466	23.28
590.66	23.23
590.854	23.27
591.048	23.25
591.242	23.19
591.436	23.19
591.629	23.15
591.823	23
592.017	22.9
592.211	22.98
592.404	23.01
592.598	23
592.792	23.03
592.986	23.06
593.179	23.11
593.373	23.17
593.567	23.2
593.76	23.38
593.954	23.46
594.147	23.46
594.341	23.6
594.535	23.49
594.728	23.42
594.922	23.64
595.115	23.64
595.309	23.61
595.502	23.56
595.696	23.57
595.889	23.57
596.083	23.59
596.276	23.7
596.47	23.64
596.663	23.67
596.856	23.81
597.05	23.66
597.243	23.7
597.437	23.84
597.63	23.89
597.823	23.84
598.017	23.84
598.21	23.88
598.403	23.95
598.596	23.87
598.79	24.05
598.983	24.17
599.176	24.37
599.369	24.31
599.563	24.36
599.756	24.37
599.949	24.36
600.142	24.45
600.335	24.47
600.528	24.31
600.722	24.38
600.915	24.32
601.108	24.37
601.301	24.25
601.494	24.41
601.687	24.34
601.88	24.42
602.073	24.54
602.266	24.47
602.459	24.41
602.652	24.6
602.845	24.58
603.038	24.62
603.231	24.54
603.424	24.7
603.617	24.66
603.809	24.65
604.002	24.67
604.195	24.66
604.388	24.75
604.581	24.85
604.774	24.77
604.966	24.84
605.159	24.7
605.352	24.68
605.545	24.59
605.737	24.64
605.93	24.77
606.123	24.76
606.316	24.79
606.508	24.76
606.701	24.7
606.894	24.69
607.086	24.74
607.279	24.84
607.471	24.99
607.664	25
607.857	25.06
608.049	24.89
608.242	24.96
608.434	24.98
608.627	24.93
608.819	25.03
609.012	25.1
609.204	25.01
609.397	24.99
609.589	24.91
609.782	24.96
609.974	24.97
610.166	25.14
610.359	25.16
610.551	25.17
610.743	25.17
610.936	25.23
611.128	25.25
611.32	25.46
611.513	25.56
611.705	25.57
611.897	25.54
612.09	25.42
612.282	25.41
612.474	25.33
612.666	25.35
612.858	25.4
613.051	25.33
613.243	25.35
613.435	25.15
613.627	25.14
613.819	25.09
614.011	25.11
614.203	25.25
614.395	25.29
614.588	25.26
614.78	25
614.972	25
615.164	24.92
615.356	24.84
615.548	24.98
615.74	24.89
615.932	25.1
616.124	25
616.315	25
616.507	24.98
616.699	25.02
616.891	25.08
617.083	25.12
617.275	25.28
617.467	25.28
617.659	25.14
617.85	25.21
618.042	25.13
618.234	25.31
618.426	25.21
618.618	25.23
618.809	25.13
619.001	25.34
619.193	25.57
619.384	25.41
619.576	25.49
619.768	25.38
619.959	25.45
620.151	25.45
620.343	25.39
620.534	25.35
620.726	25.36
620.917	25.55
621.109	25.39
621.301	25.18
621.492	25.22
621.684	25.17
621.875	25.31
622.067	25.33
622.258	25.22
622.45	25.17
622.641	25.28
622.832	25.26
623.024	25.22
623.215	25.43
623.407	25.39
623.598	25.53
623.789	25.51
623.981	25.63
624.172	25.66
624.363	25.81
624.555	25.83
624.746	25.8
624.937	25.86
625.129	25.85
625.32	25.79
625.511	25.86
625.702	25.8
625.893	25.81
626.085	25.61
626.276	25.54
626.467	25.53
626.658	25.47
626.849	25.54
627.04	25.53
627.231	25.51
627.422	25.49
627.614	25.49
627.805	25.54
627.996	25.49
628.187	25.63
628.378	25.74
628.569	25.87
628.76	26.01
628.951	25.95
629.142	25.91
629.332	25.86
629.523	25.92
629.714	25.95
629.905	25.79
630.096	25.92
630.287	26.04
630.478	26.15
630.669	25.98
630.859	25.94
631.05	26.01
631.241	26.01
631.432	26.07
631.623	26.09
631.813	26.07
632.004	26.02
632.195	26.09
632.385	26
632.576	26.04
632.767	26.03
632.957	26.12
633.148	26.15
633.339	26.19
633.529	26.14
633.72	26.1
633.91	26.1
634.101	26.15
634.292	26.15
634.482	26.07
634.673	25.91
634.863	26.1
635.054	25.95
635.244	25.91
635.435	25.96
635.625	26.16
635.815	26.14
636.006	25.9
636.196	25.86
636.387	25.87
636.577	25.92
636.767	25.91
636.958	25.77
637.148	25.85
637.338	25.77
637.529	25.88
637.719	25.83
637.909	25.97
638.099	26.2
638.29	26.46
638.48	26.33
638.67	26.54
638.86	26.65
639.05	26.48
639.241	26.64
639.431	26.7
639.621	26.48
639.811	26.4
640.001	26.29
640.191	26.45
640.381	26.44
640.571	26.65
640.761	26.48
640.951	26.22
641.141	26.38
641.331	26.21
641.521	26.1
641.711	26.28
641.901	26.32
642.091	26.26
642.281	26.02
642.471	25.75
642.661	25.56
642.851	25.68
643.041	25.83
643.231	25.85
643.42	25.95
643.61	26.19
643.8	26.11
643.99	26.36
644.18	26.39
644.369	26.48
644.559	26.79
644.749	26.73
644.939	26.65
645.128	26.72
645.318	26.65
645.508	26.66
645.697	26.64
645.887	26.63
646.076	26.42
646.266	26.38
646.456	26.53
646.645	26.53
646.835	26.66
647.024	26.75
647.214	26.75
647.403	26.75
647.593	26.78
647.782	26.81
647.972	26.86
648.161	26.9
648.351	26.98
648.54	26.83
648.73	26.79
648.919	26.8
649.108	26.74
649.298	26.75
649.487	26.92
649.677	26.84
649.866	26.75
650.055	26.72
650.244	26.65
650.434	26.82
650.623	26.81
650.812	26.91
651.002	27.03
651.191	27.04
651.38	26.94
651.569	26.73
651.758	26.85
651.947	27.05
652.137	26.97
652.326	27.01
652.515	26.8
652.704	27.06
652.893	26.98
653.082	26.78
653.271	26.85
653.46	26.93
653.649	27.13
653.838	26.95
654.027	26.79
654.216	26.76
654.405	26.64
654.594	26.81
654.783	26.61
654.972	26.63
655.161	26.76
655.35	26.69
655.539	26.64
655.728	26.43
655.916	26.61
656.105	26.41
656.294	26.73
656.483	26.85
656.672	26.92
656.86	27.02
657.049	27.02
657.238	27.03
657.427	26.94
657.615	27
657.804	27.09
657.993	27.08
658.181	27.25
658.37	27.2
658.559	27.2
658.747	27.09
658.936	27.03
659.125	27.01
659.313	26.83
659.502	26.91
659.69	26.87
659.879	26.91
660.067	26.92
660.256	26.89
660.444	26.8
660.633	27.05
660.821	27.04
661.01	26.96
661.198	27.01
661.387	27.27
661.575	27.41
661.763	27.28
661.952	27.23
662.14	27.22
662.328	27.2
662.517	27.04
662.705	26.84
662.893	26.75
663.082	26.94
663.27	26.86
663.458	26.94
663.646	26.95
663.834	27.09
664.023	27.03
664.211	27.03
664.399	27.14
664.587	27.47
664.775	27.63
664.963	27.93
665.152	27.6
665.34	27.63
665.528	27.43
665.716	27.48
665.904	27.7
666.092	27.82
666.28	28.24
666.468	28.35
666.656	28.14
666.844	27.98
667.032	27.82
667.22	28.21
667.408	28.19
667.596	28.01
667.784	28.01
667.971	28.01
668.159	27.93
668.347	27.54
668.535	27.33
668.723	27.54
668.911	27.57
669.098	27.47
669.286	27.26
669.474	27.34
669.662	27.72
669.849	27.86
670.037	27.77
670.225	27.72
670.413	27.77
670.6	27.88
670.788	27.85
670.976	27.85
671.163	28
671.351	27.97
671.538	28.23
671.726	28.16
671.913	27.92
672.101	27.92
672.289	28.09
672.476	27.97
672.664	27.95
672.851	27.82
673.039	27.51
673.226	27.63
673.413	27.72
673.601	27.23
673.788	27.56
673.976	27.41
674.163	27.53
674.35	27.64
674.538	27.66
674.725	27.53
674.912	27.54
675.1	27.67
675.287	27.41
675.474	27.32
675.662	27.52
675.849	27.17
676.036	27.25
676.223	26.94
676.411	26.98
676.598	27.1
676.785	27.51
676.972	27.49
677.159	27.55
677.346	27.49
677.533	27.58
677.721	27.58
677.908	27.68
678.095	27.78
678.282	28.06
678.469	28.09
678.656	28
678.843	27.74
679.03	27.66
679.217	27.92
679.404	28.18
679.591	28.13
679.778	28.27
679.964	28.28
680.151	28.13
680.338	28.22
680.525	28.15
680.712	28.42
680.899	28.41
681.086	28.52
681.272	28.3
681.459	28.03
681.646	28.09
681.833	27.99
682.02	27.72
682.206	28.05
682.393	28.09
682.58	27.98
682.766	27.56
682.953	27.4
683.14	27.41
683.326	27.5
683.513	27.59
683.7	27.71
683.886	27.67
684.073	27.78
684.259	27.39
684.446	27.18
684.632	27.02
684.819	26.99
685.005	27.05
685.192	26.92
685.378	26.74
685.565	27.14
685.751	26.98
685.938	26.92
686.124	26.85
686.31	27.03
686.497	27.15
686.683	27.55
686.87	27.74
687.056	27.99
687.242	27.88
687.429	28.22
687.615	27.81
687.801	28.03
687.987	27.73
688.174	27.68
688.36	27.41
688.546	27.3
688.732	27.32
688.918	27.51
689.105	27.33
689.291	27.69
689.477	27.3
689.663	27.42
689.849	27.22
690.035	27.72
690.221	27.89
690.407	28.19
690.593	27.88
690.779	27.56
690.965	27.21
691.151	27.33
691.337	27.58
691.523	28.14
691.709	27.84
691.895	27.91
692.081	27.82
692.267	27.69
692.453	27.39
692.639	27.8
692.825	27.74
693.011	27.72
693.196	27.68
693.382	27.09
693.568	26.37
693.754	26.78
693.94	26.84
694.125	26.57
694.311	26.74
694.497	26.93
694.682	26.87
694.868	27.16
695.054	27.38
695.239	27.52
695.425	27.79
695.611	28.2
695.796	27.82
695.982	27.72
696.168	27.94
696.353	28.02
696.539	28.08
696.724	28
696.91	28.05
697.095	27.98
697.281	27.81
697.466	27.92
697.652	27.85
697.837	27.97
698.023	28.24
698.208	28.11
698.393	28
698.579	27.99
698.764	28.03
698.949	27.92
699.135	27.82
699.32	27.99
699.505	27.99
699.691	27.79
699.876	27.92
700.061	27.76
700.246	27.83
700.432	27.98
700.617	28.42
700.802	28.61
700.987	28.7
701.172	29.04
701.358	29.04
701.543	29.01
701.728	29.22
701.913	29.14
702.098	28.89
702.283	29
702.468	28.88
702.653	28.47
702.838	28.32
703.023	28.32
703.208	28.05
703.393	28.02
703.578	28.11
703.763	28.13
703.948	28.01
704.133	28.3
704.318	28.09
704.503	28.44
704.688	28.41
704.873	28.31
705.057	28.21
705.242	28.33
705.427	28.22
705.612	28.12
705.797	28.19
705.981	28.91
706.166	29.15
706.351	29
706.536	28.79
706.72	28.77
706.905	28.82
707.09	29.02
707.274	28.88
707.459	29.26
707.644	29.2
707.828	28.94
708.013	28.54
708.197	28.12
708.382	28.54
708.567	28.63
708.751	28.42
708.936	28.5
709.12	28.45
709.305	28.36
709.489	27.97
709.673	28.02
709.858	27.84
710.042	27.82
710.227	27.8
710.411	27.78
710.596	27.31
710.78	27.35
710.964	27.08
711.149	26.69
711.333	27.14
711.517	27.14
711.702	27.12
711.886	27.65
712.07	27.6
712.254	27.96
712.438	28.07
712.623	28.47
712.807	28.35
712.991	28.58
713.175	29.29
713.359	29.01
713.544	29.28
713.728	29.33
713.912	29.17
714.096	29.1
714.28	28.76
714.464	28.38
714.648	28.4
714.832	28.41
715.016	27.84
715.2	27.51
715.384	27.27
715.568	27.11
715.752	27.12
715.936	27.2
716.12	27.35
716.304	27.55
716.488	27.79
716.671	27.66
716.855	28.19
717.039	29.14
717.223	28.81
717.407	29.32
717.59	29.63
717.774	29.52
717.958	29.41
718.142	29.34
718.325	29.15
718.509	28.79
718.693	28.47
718.877	28.08
719.06	27.49
719.244	27.82
719.428	27.46
719.611	26.97
719.795	26.5
719.978	26.21
720.162	26.13
720.345	26.08
720.529	26.68
720.713	27.17
720.896	27.33
721.08	27.19
721.263	27.26
721.446	27.48
721.63	27.88
721.813	28.43
721.997	28.84
722.18	29.26
722.364	29.13
722.547	28.91
722.73	28.42
722.914	28.34
723.097	28.66
723.28	28.62
723.464	28.28
723.647	28.33
723.83	28.02
724.013	28.21
724.197	27.85
724.38	28.05
724.563	28.25
724.746	28.61
724.929	28.79
725.112	28.59
725.296	28.28
725.479	28.89
725.662	28.78
725.845	28.91
726.028	28.28
726.211	28.05
726.394	28.42
726.577	28.13
726.76	27.52
726.943	27.75
727.126	27.7
727.309	27.65
727.492	27.15
727.675	26.48
727.858	26.26
728.041	26.44
728.224	26.82
728.407	26.72
728.589	26.75
728.772	27.81
728.955	27.52
729.138	27.96
729.321	28.46
729.503	28.72
729.686	29.32
729.869	29.95
730.052	30.37
730.234	30.39
730.417	30.12
730.6	30.23
730.782	29.84
730.965	30
731.148	29.79
731.33	29.56
731.513	29.37
731.695	29.26
731.878	29.17
732.061	28.87
732.243	28.69
732.426	29.18
732.608	29.4
732.791	29.58
732.973	29.35
733.156	29.32
733.338	29.47
733.52	29.79
733.703	29.71
733.885	29.51
734.068	29.39
734.25	29.09
734.432	28.87
734.615	28.7
734.797	28.25
734.979	28.6
735.162	28.61
735.344	27.96
735.526	27.68
735.708	28.09
735.891	28.18
736.073	28.48
736.255	28.72
736.437	28.34
736.619	27.89
736.802	28.07
736.984	27.43
737.166	27.51
737.348	28.29
737.53	28.65
737.712	28.41
737.894	28.49
738.076	28.83
738.258	29.53
738.44	29.71
738.622	29.97
738.804	30.21
738.986	30.34
739.168	29.8
739.35	29.76
739.532	29.48
739.714	29.32
739.896	29.14
740.078	28.78
740.259	28.03
740.441	28.1
740.623	28.09
740.805	27.9
740.987	28.3
741.168	28.92
741.35	29.44
741.532	29.61
741.714	29.86
741.895	29.27
742.077	29.95
742.259	29.99
742.44	29.84
742.622	29.81
742.804	30.33
742.985	29.42
743.167	29.36
743.348	28.34
743.53	27.88
743.711	28.1
743.893	28.8
744.075	27.83
744.256	27.53
744.438	27.59
744.619	28.07
744.8	27.28
744.982	27.71
745.163	27.75
745.345	28.22
745.526	28.72
745.707	29.11
745.889	28.56
746.07	29
746.252	28.99
746.433	28.72
746.614	28.37
746.795	28.74
746.977	28.99
747.158	28.58
747.339	28.39
747.52	28.51
747.702	27.18
747.883	28.09
748.064	28.05
748.245	28.11
748.426	28.15
748.607	27.77
748.788	27.46
748.97	27.7
749.151	27.8
749.332	28.08
749.513	27.18
749.694	27.79
749.875	27.33
750.056	27.18
750.237	27.74
750.418	28.08
750.599	28.66
750.78	29.55
750.96	29.59
751.141	30.33
751.322	29.69
751.503	30.15
751.684	30
751.865	29.42
752.046	29.58
752.226	29.89
752.407	29.88
752.588	29.39
752.769	28.65
752.949	28
753.13	27.25
753.311	28.32
753.492	28.55
753.672	28.61
753.853	28.94
754.034	28.69
754.214	28.53
754.395	28.37
754.575	28.88
754.756	28.75
754.937	29.48
755.117	29.61
755.298	28.89
755.478	29.32
755.659	29.51
755.839	30.19
756.02	31
756.2	30.56
756.381	30.11
756.561	29.76
756.741	29.65
756.922	29.46
757.102	29.61
757.283	29.29
757.463	28.52
757.643	28.65
757.823	28.5
758.004	28.06
758.184	28.35
758.364	28.93
758.545	29.33
758.725	29.68
758.905	29.76
759.085	29.96
759.265	30.24
759.446	30.22
759.626	29.74
759.806	29.73
759.986	29.55
760.166	29.01
760.346	28.28
760.526	27.7
760.706	27.28
760.886	27.49
761.066	27.11
761.246	27.57
761.426	28.15
761.606	28.8
761.786	29.01
761.966	29.29
762.146	29.74
762.326	29.94
762.506	30.26
762.686	30.57
762.866	30.43
763.046	30.57
763.225	30.34
763.405	30.16
763.585	29.43
763.765	29.26
763.945	28.86
764.124	28.85
764.304	29.11
764.484	29.27
764.664	28.92
764.843	28.31
765.023	28.13
765.203	28.07
765.382	27.93
765.562	28.65
765.741	28.68
765.921	28.8
766.101	28.69
766.28	28.45
766.46	28.39
766.639	29.02
766.819	29.28
766.998	29.74
767.178	29.62
767.357	29.69
767.537	29.48
767.716	28.95
767.896	28.89
768.075	29.14
768.254	28.93
768.434	28.29
768.613	27.89
768.792	27.87
768.972	28.24
769.151	28.57
769.33	29.03
769.51	29.43
769.689	29.97
769.868	30.21
770.047	29.55
770.226	30.08
770.406	30.35
770.585	30.33
770.764	30.82
770.943	30.12
771.122	29.93
771.301	29.46
771.48	29.01
771.66	28.7
771.839	28.72
772.018	29.19
772.197	28.71
772.376	28.36
772.555	28.21
772.734	28.22
772.913	28.5
773.092	28.81
773.271	29.05
773.449	29.43
773.628	29.82
773.807	29.8
773.986	29.39
774.165	29.88
774.344	30.45
774.523	30.74
774.701	30.52
774.88	30.22
775.059	30.08
775.238	30.33
775.417	30.9
775.595	30.39
775.774	30.62
775.953	30.5
776.131	30.84
776.31	30.46
776.489	29.9
776.667	29.46
776.846	29.5
777.025	29.46
777.203	28.59
777.382	27.75
777.56	27.54
777.739	27.4
777.917	28.27
778.096	27.72
778.274	27.95
778.453	27.58
778.631	28.03
778.81	27.97
778.988	27.89
779.166	27.95
779.345	27.91
779.523	27.52
779.702	26.99
779.88	26.6
780.058	26.6
780.237	27.72
780.415	28.8
780.593	28.79
780.771	29.11
780.95	29.07
781.128	29.74
781.306	30.2
781.484	30.96
781.662	31.26
781.841	31.33
782.019	31.29
782.197	29.87
782.375	30.28
782.553	30.4
782.731	29.73
782.909	29.74
783.087	30.02
783.265	29.41
783.443	29.22
783.621	29.25
783.799	29.27
783.977	29.85
784.155	30.07
784.333	29.38
784.511	29.65
784.689	30.4
784.867	30.32
785.045	29.21
785.223	29.66
785.4	29.31
785.578	29.51
785.756	30.26
785.934	30.41
786.112	30.06
786.289	29.02
786.467	28.87
786.645	28.41
786.823	29.15
787	30.26
787.178	29.97
787.356	30.74
787.533	29.7
787.711	28.74
787.889	28.48
788.066	29.54
788.244	30.76
788.421	30.97
788.599	30.67
788.776	30.54
788.954	29.34
789.131	29.07
789.309	28.25
789.486	29.28
789.664	28.85
789.841	28.89
790.019	28.29
790.196	28.26
790.373	27.41
790.551	28.33
790.728	26.83
790.906	26.86
791.083	26.89
791.26	27.74
791.437	27.73
791.615	27.95
791.792	26.92
791.969	27.3
792.146	27.46
792.324	28.03
792.501	27.59
792.678	28.04
792.855	29.16
793.032	28.75
793.209	28.23
793.387	28
793.564	28.12
793.741	28.51
793.918	27.27
794.095	27.68
794.272	27.12
794.449	26.32
794.626	27.43
794.803	27.05
794.98	27.03
795.157	26.37
795.334	26.1
795.511	27.03
795.688	27.9
795.864	28.68
796.041	28.24
796.218	29.34
796.395	29.62
796.572	29.42
796.749	30.26
796.925	31.4
797.102	32.21
797.279	32.22
797.456	31.59
797.632	31.05
797.809	31.22
797.986	30.35
798.162	30.3
798.339	30.19
798.516	29.78
798.692	28.53
798.869	27.43
799.046	29
799.222	29.99
799.399	31
799.575	30.9
799.752	30.27
799.928	31.15
800.105	30.54
800.281	31.16
800.458	32.01
800.634	32.38
800.811	32.47
800.987	31.19
801.163	30.62
801.34	28.82
801.516	29.75
801.692	30.92
801.869	30.48
802.045	29.64
802.221	29.86
802.398	28.67
802.574	29.47
802.75	30.48
802.926	29.7
803.103	28.83
803.279	29.1
803.455	27.46
803.631	27.07
803.807	27.13
803.983	28.65
804.16	28.02
804.336	29.17
804.512	29.05
804.688	27.96
804.864	28.26
805.04	29.26
805.216	29.53
805.392	30.33
805.568	30.76
805.744	29.82
805.92	28.94
806.096	29.1
806.272	28.14
806.448	28.23
806.623	28.49
806.799	29.77
806.975	29.29
807.151	29.94
807.327	29.67
807.503	28.59
807.678	29.82
807.854	30.5
808.03	30.82
808.206	31.38
808.381	30.4
808.557	30.99
808.733	29.74
808.908	29.35
809.084	29.3
809.26	30.9
809.435	30.63
809.611	30.3
809.787	29.56
809.962	29.35
810.138	29.22
810.313	29.39
810.489	29.42
810.664	29.95
810.84	30.89
811.015	31.57
811.191	31.28
811.366	32.85
811.542	32.33
811.717	33.06
811.892	32.84
812.068	32.78
812.243	32.57
812.419	31.51
812.594	31.07
812.769	30.42
812.944	29.97
813.12	28.66
813.295	27.81
813.47	27.94
813.645	27.41
813.821	26.85
813.996	27.52
814.171	27.59
814.346	29.53
814.521	30.19
814.697	30.5
814.872	30.35
815.047	29.97
815.222	29.97
815.397	30
815.572	30.34
815.747	30.79
815.922	30.91
816.097	30.57
816.272	31.24
816.447	31.25
816.622	31.19
816.797	31
816.972	31.66
817.147	31.28
817.322	30.85
817.496	30.93
817.671	32.5
817.846	31.94
818.021	32.12
818.196	30.43
818.371	30.73
818.545	31.11
818.72	30.43
818.895	30.54
819.069	29.99
819.244	30.7
819.419	30.69
819.594	29.47
819.768	28.86
819.943	29.36
820.117	29.41
820.292	29.39
820.467	28.78
820.641	28.81
820.816	29
820.99	28.89
821.165	29.05
821.339	28.84
821.514	28.92
821.688	29.05
821.863	28.99
822.037	28.87
822.212	28.71
822.386	28.59
822.56	28.44
822.735	28.21
822.909	28.34
823.084	27.94
823.258	28.04
823.432	27.85
823.606	27.91
823.781	27.58
823.955	27.37
824.129	27.23
824.303	27.44
824.478	27.68
824.652	27.43
824.826	27.71
825	28.02
825.174	28.14
825.348	28.19
825.523	28
825.697	28.55
825.871	28.99
826.045	29.1
826.219	29.12
826.393	28.9
826.567	29.66
826.741	29.56
826.915	29.41
827.089	29.12
827.263	29.53
827.437	29.65
827.611	29.29
827.784	29.1
827.958	29.15
828.132	28.77
828.306	29.15
828.48	28.62
828.654	29.12
828.827	29.45
829.001	30.23
829.175	29.77
829.349	30
829.522	29.87
829.696	30.15
829.87	30.22
830.044	31.68
830.217	32.08
830.391	32.67
830.565	31.59
830.738	31.66
830.912	30.46
831.085	30.08
831.259	29.54
831.432	29.68
831.606	29.92
831.779	30.08
831.953	28.84
832.126	28.49
832.3	28.41
832.473	28.99
832.647	29.02
832.82	29.15
832.994	29.37
833.167	29.19
833.34	29.54
833.514	29.34
833.687	28.64
833.86	29.43
834.034	29.05
834.207	28.9
834.38	28.52
834.553	28.43
834.727	28.04
834.9	27.88
835.073	28.44
835.246	27.72
835.419	27.49
835.593	27.79
835.766	27.32
835.939	27.78
836.112	27.6
836.285	28.23
836.458	28.36
836.631	28.96
836.804	29.68
836.977	29.25
837.15	30.84
837.323	30.8
837.496	29.9
837.669	30.71
837.842	30.16
838.015	31.58
838.188	31.38
838.361	31.68
838.533	32.3
838.706	31.73
838.879	31.66
839.052	30.67
839.225	30.62
839.398	31.71
839.57	30.93
839.743	32.7
839.916	30.9
840.088	31.37
840.261	32.14
840.434	32.72
840.607	34.04
840.779	33.09
840.952	34.03
841.124	35.15
841.297	34.49
841.47	33.49
841.642	32.6
841.815	32.37
841.987	32.87
842.16	31.71
842.332	31.16
842.505	31.55
842.677	33.01
842.85	34.23
843.022	34.07
843.194	36.33
843.367	37.7
843.539	39.72
843.712	40.34
843.884	37.32
844.056	37.54
844.229	38.92
844.401	39.78
844.573	38.76
844.745	36.04
844.918	36.95
845.09	33.97
845.262	33.61
845.434	30.6
845.606	31.61
845.779	33.83
845.951	33.94
846.123	31.74
846.295	31.79
846.467	33.47
846.639	31.1
846.811	29.14
846.983	29.88
847.155	32.36
847.327	30.18
847.499	33.74
847.671	32.86
847.843	34.68
848.015	36.27
848.187	35.18
848.359	34.38
848.531	34.34
848.703	36.27
848.875	36.75
849.047	34.84
849.218	38.88
849.39	37.05
849.562	34.58
849.734	32.21
849.905	29.63
850.077	31
850.249	31.58
850.421	36.55
850.592	35.84
850.764	36.28
850.936	34.41
851.107	31.16
851.279	32.16
851.451	36.13
851.622	36.81
851.794	39.95
851.965	38.37
852.137	33.76
852.308	32.66
852.48	32.74
852.651	34.02
852.823	36.95
852.994	38.88
853.166	37.03
853.337	36.95
853.509	37.44
853.68	40.02
853.851	40.35
854.023	45.78
854.194	45.4
854.365	48.45
854.537	47.04
854.708	47.16
854.879	46.82
855.05	47.84
855.222	44.84
855.393	43.8
855.564	41.98
855.735	39
855.906	39.87
856.078	37.14
856.249	36.2
856.42	36.99
856.591	39.24
856.762	39.5
856.933	38.96
857.104	38.94
857.275	40.38
857.446	40.62
857.617	42.4
857.788	38.71
857.959	43.26
858.13	43.4
858.301	43.81
858.472	39.24
858.643	39.82
858.814	42.71
858.985	43.28
859.155	43.99
859.326	40.65
859.497	39.29
859.668	36.67
859.839	35.25
860.009	30.14
860.18	28.84
860.351	30.75
860.522	27.7
860.692	20.46
860.863	22.06
861.034	20.33
861.204	18.23
861.375	18.57
861.546	23.38
861.716	25.83
861.887	30.04
862.057	32.96
862.228	28.2
862.398	31.38
862.569	39.13
862.739	37.75
862.91	34.24
863.08	37.28
863.251	36.84
863.421	37.25
863.592	37.36
863.762	36.24
863.932	31.09
864.103	37.94
864.273	35.24
864.443	35.06
864.614	36
864.784	39.12
864.954	39.52
865.125	37.93
865.295	35.59
865.465	35.89
865.635	35.57
865.805	34.76
865.976	34.51
866.146	35.05
866.316	31.91
866.486	34.35
866.656	33.55
866.826	32.59
866.996	39.36
867.166	41.6
867.336	40.16
867.506	38.91
867.676	40.01
867.846	35.78
868.016	34.12
868.186	36.07
868.356	32.12
868.526	31.33
868.696	30.14
868.866	28.73
869.036	26.73
869.206	24.43
869.376	28.44
869.545	28.22
869.715	31.88
869.885	35.48
870.055	37.18
870.224	41.63
870.394	44.33
870.564	49.94
870.734	45.47
870.903	42.38
871.073	36.83
871.243	33.99
871.412	39.42
871.582	39.42
871.751	38.07
871.921	34.55
872.091	33.93
872.26	32.8
872.43	26.93
872.599	28.02
872.769	33.96
872.938	39.98
873.108	36.53
873.277	36.39
873.446	30.28
873.616	32.64
873.785	33.53
873.955	29.94
874.124	27.41
874.293	26.79
874.463	29.93
874.632	27.3
874.801	25.38
874.971	27.28
875.14	26.14
875.309	29.91
875.478	30.24
875.647	30.86
875.817	33.29
875.986	34.59
876.155	34.07
876.324	30.47
876.493	31.26
876.662	32.69
876.831	33.81
877	33.02
877.17	34.13
877.339	31.86
877.508	29.76
877.677	26.34
877.846	25.64
878.015	29.22
878.184	31.74
878.352	33.12
878.521	29.4
878.69	31.05
878.859	31.88
879.028	31.71
879.197	31.85
879.366	32.18
879.534	32.37
879.703	31.59
879.872	31.29
880.041	29.53
880.21	27.18
880.378	29.84
880.547	28.17
880.716	27.78
880.884	27.96
881.053	27.51
881.222	28.21
881.39	27.79
881.559	28.33
881.727	27.45
881.896	27.4
882.065	28.36
882.233	27.33
882.402	27.11
882.57	27.39
882.739	27.19
882.907	27.48
883.076	27.38
883.244	27.94
883.412	27.84
883.581	28.35
883.749	27.75
883.918	27.17
884.086	27.58
884.254	29.18
884.423	29.77
884.591	29.87
884.759	30.75
884.927	29.8
885.096	30.54
885.264	30.24
885.432	31.12
885.6	32.3
885.769	33.66
885.937	33.1
886.105	31.74
886.273	29.94
886.441	31.84
886.609	30.07
886.777	30.88
886.945	28.17
887.113	29
887.281	26.2
887.449	28.01
887.617	25.41
887.785	25.92
887.953	29.94
888.121	28.63
888.289	27.1
888.457	27.77
888.625	29.53
888.793	29.59
888.961	32.49
889.129	37.97
889.296	41.15
889.464	44.52
889.632	48.69
889.8	44.98
889.967	50.37
890.135	49.53
