Data from 2938450_Reflection_3.txt Node
Date: Fri Jun 19 18:00:44 EDT 2015
User: robert
Spectrometer: USB4E03002
Autoset integration time: false
Trigger mode: 4
Integration Time (sec): 1.000000E-1
Scans to average: 10
Electric dark correction enabled: true
Nonlinearity correction enabled: false
Boxcar width: 5
Stray light correction enabled: false
XAxis mode: Wavelengths
Stop averaging: false
Number of Pixels in Spectrum: 3648
>>>>>Begin Spectral Data<<<<<
177.575	-499.91
177.794	-93.68
178.014	-142.89
178.233	-24.3
178.452	-12.81
178.672	-171.07
178.891	46.94
179.11	-269.88
179.33	-208.04
179.549	-128.58
179.768	-135.58
179.987	-228.68
180.207	-208.34
180.426	-453.85
180.645	-314.3
180.864	-584.03
181.084	971.11
181.303	427.04
181.522	211.99
181.741	253.44
181.96	157.53
182.179	116.48
182.398	66.24
182.618	72.18
182.837	56.89
183.056	23.02
183.275	33.85
183.494	46.36
183.713	54.62
183.932	74.66
184.151	78.55
184.37	149.08
184.589	276.15
184.808	279.44
185.027	265.57
185.246	310.53
185.465	689.76
185.684	353950
185.903	-174.7
186.122	-161.55
186.341	-132.31
186.56	-98.69
186.779	-56.7
186.998	-61.99
187.216	-8.69
187.435	15.95
187.654	33.85
187.873	56.09
188.092	21.67
188.311	50.16
188.53	58.18
188.748	13.27
188.967	26.43
189.186	13.2
189.405	0.47
189.623	-2569.84
189.842	-650.08
190.061	-83.72
190.28	-317.47
190.498	-266.63
190.717	383.82
190.936	201.07
191.154	216.05
191.373	124.89
191.592	184.65
191.81	462.04
192.029	763.77
192.248	221.65
192.466	237.62
192.685	275.81
192.904	160.84
193.122	323.86
193.341	-899.88
193.559	1934.37
193.778	-5011.35
193.996	-954.56
194.215	587.99
194.433	315.13
194.652	-391.47
194.87	-17.74
195.089	-102.43
195.307	-154.62
195.526	-671.14
195.744	464.05
195.963	400750
196.181	1206.69
196.399	414.23
196.618	309.05
196.836	318.49
197.055	282.94
197.273	256.25
197.491	224.84
197.71	139.25
197.928	170.33
198.146	149.59
198.365	86.47
198.583	73.03
198.801	49.49
199.019	-4.21
199.238	58.36
199.456	-26.23
199.674	52.16
199.892	-677.91
200.111	-134.79
200.329	-138.78
200.547	-73.27
200.765	-41.16
200.983	-77.9
201.202	-74.16
201.42	-87.67
201.638	-96.43
201.856	-45.13
202.074	-43.04
202.292	-43.17
202.51	-17.25
202.728	66.04
202.946	-107.12
203.165	-539.47
203.383	56.93
203.601	108.85
203.819	171.59
204.037	-85.14
204.255	-114.49
204.473	-51.97
204.691	-111.35
204.909	-39.78
205.127	-26.46
205.345	3.48
205.562	15.87
205.78	61.28
205.998	96.14
206.216	81.31
206.434	-101.78
206.652	103.1
206.87	78.06
207.088	173.35
207.306	94.11
207.523	63.02
207.741	59.31
207.959	83.98
208.177	106.39
208.395	99.19
208.612	92.9
208.83	82.29
209.048	86.68
209.266	70.08
209.483	61.54
209.701	49.57
209.919	54.25
210.136	61.17
210.354	58.9
210.572	49.58
210.79	55.46
211.007	44.03
211.225	29.62
211.442	22.14
211.66	34.37
211.878	45.79
212.095	71.12
212.313	77.25
212.53	60.4
212.748	43.55
212.966	51.14
213.183	52.55
213.401	43.73
213.618	47.43
213.836	56.16
214.053	49.66
214.271	57.6
214.488	2.15
214.705	-8.5
214.923	-18.46
215.14	16.89
215.358	-24.23
215.575	-30.79
215.793	65.46
216.01	80.18
216.227	82.77
216.445	129.01
216.662	103.85
216.879	113.24
217.097	109.77
217.314	111.07
217.531	111.96
217.749	94.29
217.966	77.59
218.183	72.05
218.4	41.91
218.618	27.29
218.835	33.83
219.052	60.03
219.269	47.12
219.487	45.98
219.704	38.75
219.921	29.43
220.138	55.01
220.355	70.18
220.572	65.58
220.79	81.12
221.007	77.49
221.224	69.3
221.441	42.39
221.658	51.22
221.875	42.42
222.092	23.27
222.309	28.87
222.526	14.08
222.743	8.56
222.96	6.47
223.177	2.07
223.394	1.04
223.611	3.6
223.828	14.27
224.045	13.03
224.262	17.45
224.479	23.76
224.696	19.89
224.913	24.83
225.13	24.49
225.347	24.64
225.564	27.5
225.781	23.8
225.997	20.92
226.214	20.6
226.431	19.38
226.648	16.62
226.865	14.95
227.082	16.71
227.298	14.84
227.515	15.77
227.732	15.91
227.949	15.44
228.165	17.03
228.382	17.03
228.599	15.18
228.816	13.87
229.032	13.18
229.249	14.25
229.466	12.18
229.682	14.08
229.899	10.79
230.116	9.62
230.332	7.69
230.549	7.9
230.765	8.44
230.982	8.83
231.199	11.54
231.415	14.45
231.632	14.83
231.848	15.4
232.065	14.69
232.281	18.04
232.498	19.1
232.714	20.77
232.931	19.92
233.147	18.63
233.364	18.16
233.58	14.01
233.797	16.54
234.013	15.33
234.23	16.54
234.446	17.62
234.662	15.25
234.879	12.03
235.095	9.28
235.312	8.45
235.528	13.45
235.744	12.18
235.961	15.07
236.177	11.06
236.393	14.6
236.61	14.91
236.826	12.97
237.042	14.06
237.258	16.56
237.475	17.14
237.691	16.93
237.907	14.97
238.123	16.96
238.339	16.86
238.556	17.19
238.772	15.47
238.988	14.8
239.204	14.69
239.42	15.4
239.636	14.81
239.853	13.82
240.069	13.65
240.285	13.15
240.501	12.4
240.717	12.4
240.933	11.81
241.149	11.62
241.365	12.2
241.581	13.11
241.797	12.58
242.013	13.25
242.229	13.8
242.445	14.63
242.661	13.55
242.877	13.73
243.093	13.6
243.309	14.13
243.525	14.13
243.741	13.07
243.957	12.13
244.173	11.61
244.388	10.31
244.604	10.96
244.82	10.5
245.036	10.57
245.252	10.22
245.468	10.09
245.683	9.37
245.899	9.1
246.115	8.58
246.331	7.72
246.547	7.43
246.762	7.6
246.978	7.1
247.194	6.89
247.409	6.83
247.625	6.86
247.841	6.32
248.057	6.53
248.272	6.29
248.488	5.97
248.703	6.69
248.919	7.76
249.135	7.6
249.35	7.6
249.566	7.32
249.782	7.8
249.997	7.84
250.213	8.48
250.428	7.99
250.644	8.96
250.859	9.59
251.075	10.07
251.29	10.26
251.506	10.33
251.721	10.82
251.937	11.59
252.152	11.59
252.368	10.71
252.583	11.21
252.798	12.95
253.014	12.14
253.229	12.45
253.445	11.26
253.66	9.13
253.875	8.98
254.091	7.96
254.306	6.13
254.521	6.98
254.737	7.83
254.952	5.71
255.167	4.48
255.383	4.79
255.598	5.2
255.813	5.5
256.028	6.38
256.244	7.12
256.459	7.22
256.674	7.69
256.889	6.63
257.104	6.06
257.32	6.39
257.535	6.49
257.75	6.52
257.965	6.6
258.18	6.57
258.395	6.37
258.61	6.05
258.826	5.84
259.041	5.55
259.256	6.02
259.471	6.24
259.686	6.52
259.901	6.54
260.116	5.93
260.331	5.65
260.546	6.2
260.761	6.06
260.976	5.81
261.191	6.11
261.406	6.98
261.621	6.65
261.836	6.22
262.05	6.35
262.265	6.94
262.48	7.99
262.695	8.39
262.91	7.8
263.125	7.85
263.34	8.42
263.555	8.13
263.769	6.53
263.984	6.88
264.199	7.96
264.414	7.38
264.629	6.61
264.843	6.5
265.058	5.5
265.273	5.56
265.488	6.02
265.702	5.16
265.917	5.68
266.132	6.32
266.346	6
266.561	5.71
266.776	5.77
266.99	5.98
267.205	6.14
267.42	6.99
267.634	6.51
267.849	6.11
268.063	7.01
268.278	6.68
268.492	6.45
268.707	5.99
268.922	5.77
269.136	5.52
269.351	5.46
269.565	5.66
269.78	5.34
269.994	5.55
270.209	5.97
270.423	5.49
270.637	5.81
270.852	5.98
271.066	6.67
271.281	7.43
271.495	7.82
271.709	7.77
271.924	7.57
272.138	7.89
272.353	7.93
272.567	7.98
272.781	8.55
272.996	8.39
273.21	8.94
273.424	8.69
273.638	7.68
273.853	7.48
274.067	6.67
274.281	6.91
274.495	6.56
274.71	7.25
274.924	6.98
275.138	7
275.352	6.47
275.566	6.54
275.781	6.56
275.995	6.97
276.209	7.53
276.423	8.35
276.637	8.17
276.851	8.58
277.065	8.01
277.279	8.07
277.493	8.57
277.707	8.99
277.921	8.19
278.135	7.93
278.349	7.6
278.563	6.83
278.777	6.68
278.991	6.26
279.205	5.94
279.419	5.64
279.633	6.25
279.847	5.89
280.061	5.38
280.275	5.81
280.489	5.71
280.703	6.18
280.917	5.81
281.131	5.78
281.344	6.2
281.558	5.84
281.772	6.28
281.986	6.03
282.2	5.91
282.414	6.04
282.627	5.66
282.841	6.16
283.055	6.01
283.269	6.57
283.482	6.8
283.696	6.7
283.91	7.42
284.123	7.07
284.337	7.22
284.551	6.87
284.764	6.81
284.978	7.01
285.192	6.9
285.405	7.39
285.619	7.45
285.833	7.69
286.046	7.87
286.26	7.69
286.473	8.24
286.687	8.23
286.9	8.61
287.114	8.81
287.327	8.79
287.541	7.91
287.754	6.96
287.968	6.86
288.181	6.53
288.395	6.43
288.608	6.5
288.822	6.51
289.035	6.23
289.248	6.06
289.462	6.52
289.675	6.37
289.889	7.08
290.102	7.43
290.315	7.81
290.529	8.23
290.742	8.42
290.955	8.36
291.169	8.1
291.382	8.71
291.595	8.38
291.808	8.58
292.022	8.4
292.235	8.61
292.448	8.63
292.661	8.38
292.875	8.29
293.088	8.27
293.301	8.79
293.514	8.51
293.727	7.58
293.94	8.17
294.153	7.5
294.367	8.34
294.58	8.27
294.793	8.07
295.006	8
295.219	8.02
295.432	8.37
295.645	7.59
295.858	8.21
296.071	8.62
296.284	8.7
296.497	9.23
296.71	8.75
296.923	8.96
297.136	9.13
297.349	9.09
297.562	9.01
297.775	8.35
297.988	9.27
298.201	8.96
298.414	8.7
298.626	8.8
298.839	8.63
299.052	8.74
299.265	8.48
299.478	8.48
299.691	8.27
299.903	8.44
300.116	9.03
300.329	8.61
300.542	8.43
300.755	8.93
300.967	9.12
301.18	9.04
301.393	9.38
301.605	9.38
301.818	9.84
302.031	9.88
302.243	9.96
302.456	9.2
302.669	9.01
302.881	9.68
303.094	9.98
303.307	9.72
303.519	9.82
303.732	9.71
303.944	10.12
304.157	10.5
304.37	10.97
304.582	10.97
304.795	12.07
305.007	12.62
305.22	12.05
305.432	11.43
305.645	11.38
305.857	11.77
306.069	12.32
306.282	12.04
306.494	11.69
306.707	11.19
306.919	11
307.132	10.51
307.344	10.42
307.556	11.07
307.769	11.37
307.981	11.74
308.193	11.09
308.406	10.03
308.618	10.11
308.83	9.93
309.043	10.53
309.255	10.88
309.467	10.98
309.679	11
309.892	10.4
310.104	10.05
310.316	10.18
310.528	10.73
310.74	11.7
310.953	11.84
311.165	12.13
311.377	12.17
311.589	12.83
311.801	13.51
312.013	13.74
312.225	14.01
312.437	14.82
312.649	14.5
312.862	14.56
313.074	14.08
313.286	14.38
313.498	14.07
313.71	14.45
313.922	13.6
314.134	13.38
314.346	12.84
314.558	13.14
314.77	12.51
314.982	13.06
315.193	13.39
315.405	13.44
315.617	12.99
315.829	14.11
316.041	13.99
316.253	14.27
316.465	13.98
316.677	14.29
316.888	14.27
317.1	14.03
317.312	13.94
317.524	13.31
317.736	13.79
317.947	14.6
318.159	13.83
318.371	13.61
318.583	13.13
318.794	12.92
319.006	13
319.218	12.69
319.43	13.43
319.641	13.16
319.853	12.9
320.064	13.58
320.276	13.44
320.488	12.8
320.699	12.51
320.911	12.71
321.123	12.51
321.334	12.67
321.546	12.98
321.757	13.05
321.969	13.45
322.18	13.95
322.392	13.15
322.603	12.03
322.815	13.01
323.026	13.16
323.238	13.28
323.449	13.3
323.661	13.44
323.872	13.49
324.083	13.32
324.295	12.97
324.506	13.24
324.718	13.29
324.929	13.82
325.14	13.89
325.352	14.05
325.563	14.16
325.774	14.85
325.986	15.17
326.197	15.3
326.408	15.9
326.62	16.17
326.831	16.22
327.042	15.76
327.253	16.76
327.464	16.81
327.676	16.54
327.887	16.67
328.098	16.53
328.309	16.67
328.52	17.36
328.732	16.88
328.943	17.68
329.154	17.91
329.365	18.79
329.576	18.37
329.787	18.38
329.998	19.31
330.209	19.96
330.42	20.91
330.631	20.6
330.842	20.26
331.053	20.53
331.264	19.85
331.475	20.17
331.686	20.33
331.897	20.4
332.108	20.39
332.319	21
332.53	20.99
332.741	20.74
332.952	21.46
333.163	22.08
333.374	22.54
333.585	22.62
333.795	22.23
334.006	22.21
334.217	22.61
334.428	22.9
334.639	22.72
334.849	22.54
335.06	22.37
335.271	22.09
335.482	21.62
335.692	21.12
335.903	21.06
336.114	21.18
336.325	21.26
336.535	21.41
336.746	21.45
336.957	21.64
337.167	21.9
337.378	22.48
337.589	22.8
337.799	22.44
338.01	23.38
338.22	23.56
338.431	23.85
338.642	24.49
338.852	24.01
339.063	23.9
339.273	23.58
339.484	23.06
339.694	22.57
339.905	22.88
340.115	23.21
340.326	22.89
340.536	22.86
340.746	22.87
340.957	22.72
341.167	23.21
341.378	23.11
341.588	23.16
341.799	23.39
342.009	23.23
342.219	22.37
342.43	22.08
342.64	21.71
342.85	21.38
343.061	20.71
343.271	20.34
343.481	20.17
343.691	20.41
343.902	20.46
344.112	20.34
344.322	20.76
344.532	20.54
344.743	20.86
344.953	21.15
345.163	21.38
345.373	21.92
345.583	21.88
345.793	21.59
346.004	21.72
346.214	21.61
346.424	22.25
346.634	21.55
346.844	21.65
347.054	21.04
347.264	21.34
347.474	21.56
347.684	21.58
347.894	21.54
348.104	21.79
348.314	21.31
348.524	20.87
348.734	20.4
348.944	20.83
349.154	21.07
349.364	21.57
349.574	20.76
349.784	21.15
349.994	21.15
350.204	21.57
350.413	21.64
350.623	21.54
350.833	21.56
351.043	21.59
351.253	21.55
351.463	21.54
351.672	21.88
351.882	22.46
352.092	21.77
352.302	22.2
352.511	22.17
352.721	21.75
352.931	22.27
353.141	22.47
353.35	22.31
353.56	22.66
353.77	22.66
353.979	22.3
354.189	22.29
354.399	22.67
354.608	22.3
354.818	21.94
355.027	21.71
355.237	21.37
355.447	21.56
355.656	21.41
355.866	20.88
356.075	21.32
356.285	21.48
356.494	21.55
356.704	21.46
356.913	21.15
357.123	20.76
357.332	20.78
357.542	20.71
357.751	20.63
357.96	21.28
358.17	21.53
358.379	21.31
358.589	21.65
358.798	21.63
359.007	21.44
359.217	21.62
359.426	21.81
359.635	22.1
359.845	22.48
360.054	22.32
360.263	21.79
360.472	21.83
360.682	21.52
360.891	21.15
361.1	20.95
361.309	20.96
361.519	20.78
361.728	20.72
361.937	20.54
362.146	20.14
362.355	20.21
362.564	20.39
362.774	19.99
362.983	19.93
363.192	19.99
363.401	19.93
363.61	20.1
363.819	20.33
364.028	20.74
364.237	20.27
364.446	20.05
364.655	19.3
364.864	19.34
365.073	19.58
365.282	19.36
365.491	19.11
365.7	19.43
365.909	19.25
366.118	18.87
366.327	18.4
366.536	19.14
366.745	19.38
366.954	19.79
367.162	19.38
367.371	19.28
367.58	19.54
367.789	19.44
367.998	18.9
368.207	18.8
368.415	18.99
368.624	19.24
368.833	18.74
369.042	18.54
369.25	18.62
369.459	18.72
369.668	18.45
369.877	18.38
370.085	18.49
370.294	18.15
370.503	17.74
370.711	17.44
370.92	17.22
371.129	17.28
371.337	16.93
371.546	16.52
371.754	16.35
371.963	16.22
372.171	15.81
372.38	15.51
372.589	16.01
372.797	16.46
373.006	16.79
373.214	16.72
373.423	16.62
373.631	16.78
373.84	16.99
374.048	16.91
374.256	17.13
374.465	17.65
374.673	17.52
374.882	17.28
375.09	17.02
375.298	16.62
375.507	16.74
375.715	16.4
375.923	16.58
376.132	16.34
376.34	16.05
376.548	15.62
376.757	15.49
376.965	15.74
377.173	15.66
377.381	15.74
377.59	16.03
377.798	15.59
378.006	15.65
378.214	15.54
378.423	15.61
378.631	15.86
378.839	16.1
379.047	15.83
379.255	15.36
379.463	15.37
379.671	15.11
379.879	14.94
380.088	14.86
380.296	15.04
380.504	14.92
380.712	14.87
380.92	14.76
381.128	14.56
381.336	14.4
381.544	14.3
381.752	14.07
381.96	14.15
382.168	14.13
382.376	14.44
382.584	14.16
382.791	14.24
382.999	14.2
383.207	14.21
383.415	14.15
383.623	14.36
383.831	14.73
384.039	14.61
384.247	14.36
384.454	13.92
384.662	13.49
384.87	13.5
385.078	12.94
385.285	12.67
385.493	12.5
385.701	12.37
385.909	12.1
386.116	11.89
386.324	11.96
386.532	12.05
386.739	12.19
386.947	12.21
387.155	12.18
387.362	12.45
387.57	12.59
387.778	12.74
387.985	12.73
388.193	12.61
388.4	12.28
388.608	12.13
388.816	11.92
389.023	11.79
389.231	11.64
389.438	11.36
389.646	11.42
389.853	11.12
390.061	10.77
390.268	10.64
390.475	10.65
390.683	10.77
390.89	10.76
391.098	11
391.305	11.04
391.512	10.9
391.72	11.03
391.927	10.77
392.135	10.81
392.342	10.92
392.549	11.03
392.756	11.04
392.964	10.8
393.171	10.9
393.378	10.68
393.586	10.44
393.793	10.54
394	10.4
394.207	10.36
394.414	10.46
394.622	10.43
394.829	10.23
395.036	10.19
395.243	10.13
395.45	9.9
395.657	9.83
395.864	9.98
396.072	10.07
396.279	10.06
396.486	10.02
396.693	9.87
396.9	9.66
397.107	9.59
397.314	9.44
397.521	9.57
397.728	9.45
397.935	9.41
398.142	9.32
398.349	9.12
398.556	9.12
398.763	9.06
398.97	9.01
399.177	9.18
399.383	9.06
399.59	9.22
399.797	9.06
400.004	9.09
400.211	9.13
400.418	9.01
400.625	8.87
400.831	8.77
401.038	8.8
401.245	8.83
401.452	8.46
401.658	8.55
401.865	8.17
402.072	8.2
402.279	8.19
402.485	7.92
402.692	7.97
402.899	8
403.105	8.13
403.312	8.2
403.519	8.17
403.725	8.43
403.932	8.48
404.138	8.56
404.345	8.53
404.552	8.33
404.758	8.67
404.965	8.63
405.171	8.52
405.378	8.42
405.584	8.28
405.791	8.46
405.997	8.37
406.204	8.37
406.41	8.39
406.617	8.36
406.823	8.54
407.029	8.27
407.236	8.36
407.442	8.47
407.649	8.56
407.855	8.48
408.061	8.23
408.268	8.29
408.474	8.14
408.68	8.06
408.887	8.17
409.093	8.12
409.299	8.06
409.505	8.05
409.712	7.99
409.918	7.73
410.124	7.73
410.33	7.71
410.537	7.36
410.743	7.32
410.949	7.44
411.155	7.29
411.361	7.27
411.567	7.44
411.773	7.3
411.98	7.31
412.186	7.54
412.392	7.46
412.598	7.47
412.804	7.6
413.01	7.59
413.216	7.41
413.422	7.49
413.628	7.47
413.834	7.37
414.04	7.43
414.246	7.47
414.452	7.42
414.658	7.46
414.864	7.35
415.07	7.44
415.275	7.48
415.481	7.45
415.687	7.32
415.893	7.26
416.099	7.14
416.305	7.13
416.511	7.09
416.716	7.02
416.922	7.04
417.128	7.12
417.334	7.07
417.539	6.99
417.745	6.96
417.951	7.01
418.157	7.01
418.362	6.99
418.568	6.93
418.774	6.84
418.979	6.73
419.185	6.72
419.391	6.7
419.596	6.67
419.802	6.68
420.008	6.72
420.213	6.79
420.419	6.84
420.624	6.91
420.83	6.85
421.035	6.88
421.241	6.9
421.446	6.86
421.652	6.74
421.857	6.72
422.063	6.72
422.268	6.73
422.474	6.58
422.679	6.5
422.885	6.45
423.09	6.46
423.295	6.43
423.501	6.41
423.706	6.31
423.911	6.34
424.117	6.35
424.322	6.33
424.527	6.29
424.733	6.31
424.938	6.26
425.143	6.25
425.349	6.26
425.554	6.25
425.759	6.41
425.964	6.46
426.169	6.5
426.375	6.49
426.58	6.52
426.785	6.57
426.99	6.64
427.195	6.73
427.4	6.63
427.605	6.62
427.811	6.68
428.016	6.54
428.221	6.58
428.426	6.51
428.631	6.58
428.836	6.5
429.041	6.44
429.246	6.27
429.451	6.18
429.656	6.24
429.861	6.29
430.066	6.15
430.271	6.16
430.476	6.24
430.681	6.27
430.886	6.22
431.09	6.2
431.295	6.23
431.5	6.33
431.705	6.36
431.91	6.49
432.115	6.37
432.32	6.53
432.524	6.5
432.729	6.53
432.934	6.59
433.139	6.49
433.343	6.57
433.548	6.49
433.753	6.37
433.958	6.45
434.162	6.33
434.367	6.4
434.572	6.26
434.776	6.24
434.981	6.08
435.186	5.96
435.39	6.08
435.595	6.05
435.799	6.1
436.004	6.2
436.209	6.08
436.413	6.09
436.618	6.1
436.822	6.1
437.027	6.08
437.231	6.1
437.436	6.07
437.64	5.95
437.845	5.93
438.049	5.88
438.253	5.82
438.458	5.9
438.662	5.87
438.867	5.79
439.071	5.83
439.275	5.83
439.48	5.84
439.684	5.93
439.888	5.93
440.093	5.98
440.297	6.04
440.501	6.07
440.706	6.02
440.91	6.02
441.114	6.02
441.318	6.04
441.523	6.03
441.727	5.99
441.931	5.9
442.135	5.91
442.339	5.88
442.543	5.96
442.748	5.87
442.952	5.81
443.156	5.87
443.36	5.91
443.564	5.91
443.768	5.92
443.972	5.94
444.176	5.99
444.38	5.96
444.584	5.84
444.788	5.68
444.992	5.64
445.196	5.62
445.4	5.52
445.604	5.51
445.808	5.59
446.012	5.58
446.216	5.55
446.42	5.53
446.624	5.56
446.828	5.7
447.032	5.78
447.235	5.81
447.439	5.79
447.643	5.85
447.847	5.84
448.051	5.66
448.254	5.73
448.458	5.72
448.662	5.64
448.866	5.58
449.069	5.46
449.273	5.45
449.477	5.52
449.681	5.64
449.884	5.62
450.088	5.57
450.292	5.59
450.495	5.45
450.699	5.43
450.902	5.44
451.106	5.4
451.31	5.38
451.513	5.34
451.717	5.3
451.92	5.24
452.124	5.16
452.327	5.21
452.531	5.16
452.734	5.2
452.938	5.11
453.141	5.13
453.345	5.16
453.548	5.24
453.752	5.26
453.955	5.33
454.158	5.34
454.362	5.39
454.565	5.51
454.769	5.55
454.972	5.64
455.175	5.74
455.379	5.84
455.582	5.8
455.785	5.67
455.988	5.64
456.192	5.51
456.395	5.46
456.598	5.44
456.801	5.35
457.005	5.42
457.208	5.36
457.411	5.35
457.614	5.24
457.817	5.28
458.021	5.32
458.224	5.34
458.427	5.46
458.63	5.45
458.833	5.5
459.036	5.43
459.239	5.38
459.442	5.42
459.645	5.47
459.848	5.48
460.051	5.49
460.254	5.49
460.457	5.52
460.66	5.48
460.863	5.5
461.066	5.48
461.269	5.56
461.472	5.54
461.675	5.43
461.878	5.37
462.081	5.43
462.284	5.46
462.486	5.48
462.689	5.35
462.892	5.44
463.095	5.43
463.298	5.39
463.5	5.38
463.703	5.41
463.906	5.49
464.109	5.5
464.311	5.47
464.514	5.44
464.717	5.49
464.92	5.63
465.122	5.43
465.325	5.52
465.528	5.62
465.73	5.62
465.933	5.63
466.135	5.67
466.338	5.7
466.541	5.8
466.743	5.85
466.946	5.8
467.148	5.81
467.351	5.92
467.553	5.82
467.756	5.83
467.958	5.87
468.161	5.86
468.363	5.82
468.566	5.74
468.768	5.58
468.971	5.65
469.173	5.73
469.375	5.65
469.578	5.59
469.78	5.69
469.983	5.62
470.185	5.66
470.387	5.85
470.59	5.87
470.792	5.97
470.994	6.03
471.196	6.03
471.399	5.98
471.601	6.1
471.803	6.2
472.005	6.18
472.208	6.2
472.41	6.2
472.612	6.12
472.814	6.13
473.016	6.09
473.218	6.11
473.421	6.07
473.623	6.07
473.825	6.11
474.027	5.98
474.229	5.95
474.431	5.94
474.633	5.97
474.835	6
475.037	6.03
475.239	6.11
475.441	6.13
475.643	6.07
475.845	5.99
476.047	5.92
476.249	6.04
476.451	6.04
476.653	6.04
476.855	5.97
477.057	5.86
477.258	5.84
477.46	5.7
477.662	5.67
477.864	5.69
478.066	5.73
478.268	5.66
478.469	5.67
478.671	5.65
478.873	5.66
479.075	5.64
479.276	5.69
479.478	5.66
479.68	5.74
479.882	5.79
480.083	5.82
480.285	5.82
480.487	5.77
480.688	5.72
480.89	5.73
481.091	5.73
481.293	5.74
481.495	5.7
481.696	5.68
481.898	5.65
482.099	5.6
482.301	5.55
482.502	5.57
482.704	5.58
482.905	5.57
483.107	5.56
483.308	5.53
483.51	5.51
483.711	5.52
483.913	5.52
484.114	5.48
484.315	5.53
484.517	5.56
484.718	5.54
484.92	5.57
485.121	5.54
485.322	5.54
485.524	5.58
485.725	5.62
485.926	5.58
486.127	5.57
486.329	5.64
486.53	5.58
486.731	5.57
486.932	5.56
487.134	5.57
487.335	5.63
487.536	5.64
487.737	5.62
487.938	5.56
488.139	5.58
488.341	5.63
488.542	5.62
488.743	5.6
488.944	5.62
489.145	5.69
489.346	5.62
489.547	5.62
489.748	5.63
489.949	5.64
490.15	5.72
490.351	5.73
490.552	5.71
490.753	5.7
490.954	5.73
491.155	5.73
491.356	5.67
491.557	5.7
491.758	5.73
491.959	5.75
492.159	5.77
492.36	5.8
492.561	5.89
492.762	5.94
492.963	5.95
493.164	6.08
493.364	6.13
493.565	6.19
493.766	6.17
493.967	6.18
494.167	6.17
494.368	6.2
494.569	6.12
494.769	6.11
494.97	6.17
495.171	6.24
495.371	6.18
495.572	6.21
495.773	6.25
495.973	6.35
496.174	6.34
496.375	6.35
496.575	6.36
496.776	6.39
496.976	6.37
497.177	6.35
497.377	6.42
497.578	6.52
497.778	6.51
497.979	6.52
498.179	6.54
498.38	6.59
498.58	6.71
498.78	6.77
498.981	6.82
499.181	6.97
499.382	7.07
499.582	6.98
499.782	7.01
499.983	7.15
500.183	7.22
500.383	7.34
500.584	7.38
500.784	7.3
500.984	7.28
501.184	7.23
501.385	7.25
501.585	7.19
501.785	7.23
501.985	7.25
502.185	7.16
502.386	7.16
502.586	7.07
502.786	7.14
502.986	7.19
503.186	7.23
503.386	7.37
503.586	7.36
503.786	7.46
503.987	7.53
504.187	7.59
504.387	7.6
504.587	7.66
504.787	7.76
504.987	7.76
505.187	7.73
505.387	7.76
505.587	7.76
505.786	7.81
505.986	7.84
506.186	7.92
506.386	7.84
506.586	7.93
506.786	7.95
506.986	8.03
507.186	8.09
507.386	8.16
507.585	8.3
507.785	8.33
507.985	8.37
508.185	8.44
508.384	8.43
508.584	8.49
508.784	8.54
508.984	8.53
509.183	8.57
509.383	8.58
509.583	8.69
509.782	8.63
509.982	8.64
510.182	8.71
510.381	8.71
510.581	8.77
510.781	8.9
510.98	8.94
511.18	9.01
511.379	9.02
511.579	9.08
511.778	9.17
511.978	9.23
512.177	9.42
512.377	9.49
512.576	9.52
512.776	9.57
512.975	9.58
513.175	9.64
513.374	9.76
513.573	9.85
513.773	9.91
513.972	9.9
514.172	9.97
514.371	9.93
514.57	9.92
514.77	10.03
514.969	10.09
515.168	10.17
515.367	10.18
515.567	10.14
515.766	10.11
515.965	10.15
516.164	10.18
516.364	10.16
516.563	10.16
516.762	10.16
516.961	10.12
517.16	10.16
517.359	10.16
517.559	10.2
517.758	10.22
517.957	10.26
518.156	10.34
518.355	10.43
518.554	10.51
518.753	10.66
518.952	10.79
519.151	10.93
519.35	11.03
519.549	11.17
519.748	11.29
519.947	11.48
520.146	11.6
520.345	11.6
520.544	11.61
520.743	11.65
520.942	11.65
521.141	11.62
521.339	11.63
521.538	11.67
521.737	11.68
521.936	11.73
522.135	11.72
522.333	11.73
522.532	11.79
522.731	11.78
522.93	11.84
523.129	11.87
523.327	11.94
523.526	11.95
523.725	11.92
523.923	11.87
524.122	11.85
524.321	11.84
524.519	11.81
524.718	11.82
524.917	11.85
525.115	11.87
525.314	11.91
525.512	11.9
525.711	11.88
525.909	11.89
526.108	11.89
526.306	11.93
526.505	11.92
526.703	11.94
526.902	11.93
527.1	11.97
527.299	11.94
527.497	11.94
527.696	11.96
527.894	11.96
528.092	11.96
528.291	12.01
528.489	12.04
528.688	12.1
528.886	12.17
529.084	12.2
529.283	12.2
529.481	12.27
529.679	12.32
529.877	12.37
530.076	12.48
530.274	12.56
530.472	12.64
530.67	12.61
530.869	12.6
531.067	12.6
531.265	12.62
531.463	12.69
531.661	12.65
531.859	12.63
532.057	12.66
532.255	12.69
532.454	12.69
532.652	12.67
532.85	12.74
533.048	12.74
533.246	12.81
533.444	12.88
533.642	12.88
533.84	13
534.038	13.08
534.236	13.11
534.434	13.1
534.632	13.2
534.83	13.23
535.027	13.27
535.225	13.33
535.423	13.32
535.621	13.35
535.819	13.4
536.017	13.42
536.215	13.44
536.412	13.48
536.61	13.52
536.808	13.46
537.006	13.47
537.203	13.49
537.401	13.53
537.599	13.55
537.797	13.59
537.994	13.64
538.192	13.64
538.39	13.68
538.587	13.61
538.785	13.64
538.983	13.68
539.18	13.71
539.378	13.67
539.575	13.68
539.773	13.68
539.97	13.69
540.168	13.66
540.366	13.71
540.563	13.71
540.761	13.74
540.958	13.73
541.155	13.82
541.353	13.86
541.55	13.92
541.748	13.93
541.945	14.04
542.143	14.1
542.34	14.27
542.537	14.3
542.735	14.4
542.932	14.52
543.129	14.65
543.327	14.65
543.524	14.74
543.721	14.8
543.919	14.88
544.116	14.87
544.313	14.92
544.51	14.82
544.708	14.88
544.905	14.9
545.102	14.99
545.299	14.96
545.496	15.01
545.693	15.03
545.891	15.06
546.088	15.09
546.285	15.12
546.482	15.13
546.679	15.18
546.876	15.28
547.073	15.27
547.27	15.22
547.467	15.29
547.664	15.39
547.861	15.38
548.058	15.48
548.255	15.66
548.452	15.78
548.649	15.83
548.846	15.98
549.043	15.84
549.24	15.94
549.437	16.02
549.633	16.15
549.83	16.17
550.027	16.32
550.224	16.38
550.421	16.37
550.618	16.38
550.814	16.57
551.011	16.53
551.208	16.64
551.405	16.79
551.601	16.87
551.798	16.84
551.995	16.88
552.191	16.95
552.388	16.99
552.585	16.99
552.781	17.01
552.978	16.99
553.175	17.05
553.371	17.2
553.568	17.26
553.764	17.24
553.961	17.28
554.157	17.32
554.354	17.32
554.55	17.39
554.747	17.6
554.943	17.63
555.14	17.65
555.336	17.78
555.533	17.7
555.729	17.74
555.926	17.81
556.122	17.97
556.318	18.15
556.515	18.19
556.711	18.23
556.907	18.17
557.104	18.23
557.3	18.3
557.496	18.2
557.693	18.3
557.889	18.24
558.085	18.31
558.281	18.4
558.478	18.4
558.674	18.38
558.87	18.42
559.066	18.56
559.262	18.66
559.459	18.64
559.655	18.85
559.851	18.89
560.047	19
560.243	19.11
560.439	19.12
560.635	19.12
560.831	19.23
561.027	19.25
561.223	19.17
561.419	19.27
561.615	19.36
561.811	19.3
562.007	19.4
562.203	19.54
562.399	19.59
562.595	19.61
562.791	19.79
562.987	19.94
563.183	20.05
563.379	20.06
563.575	20.06
563.771	20.14
563.966	20.25
564.162	20.34
564.358	20.28
564.554	20.32
564.75	20.31
564.945	20.19
565.141	20.18
565.337	20.26
565.533	20.39
565.728	20.38
565.924	20.38
566.12	20.42
566.315	20.46
566.511	20.49
566.707	20.47
566.902	20.6
567.098	20.71
567.293	20.78
567.489	20.73
567.684	20.79
567.88	20.95
568.076	21.07
568.271	21.17
568.467	21.24
568.662	21.42
568.858	21.52
569.053	21.63
569.248	21.7
569.444	21.62
569.639	21.74
569.835	21.73
570.03	21.73
570.225	21.75
570.421	21.68
570.616	21.74
570.812	21.75
571.007	21.84
571.202	21.82
571.397	21.86
571.593	22.04
571.788	22.09
571.983	22.14
572.178	22.21
572.374	22.3
572.569	22.45
572.764	22.44
572.959	22.48
573.154	22.45
573.35	22.43
573.545	22.46
573.74	22.44
573.935	22.43
574.13	22.4
574.325	22.44
574.52	22.53
574.715	22.59
574.91	22.65
575.105	22.79
575.3	22.87
575.495	22.98
575.69	23.09
575.885	23.15
576.08	23.3
576.275	23.45
576.47	23.52
576.665	23.59
576.86	23.62
577.055	23.6
577.25	23.53
577.444	23.59
577.639	23.71
577.834	23.64
578.029	23.78
578.224	23.87
578.418	24.05
578.613	24.12
578.808	24.07
579.003	24.12
579.197	24.33
579.392	24.4
579.587	24.47
579.781	24.55
579.976	24.76
580.171	24.79
580.365	24.72
580.56	24.73
580.755	24.75
580.949	24.86
581.144	24.85
581.338	24.7
581.533	24.73
581.727	24.79
581.922	24.76
582.116	24.58
582.311	24.59
582.505	24.71
582.7	24.76
582.894	24.82
583.089	24.77
583.283	24.84
583.478	25
583.672	25.04
583.866	25.07
584.061	25.1
584.255	25.18
584.449	25.19
584.644	25.19
584.838	25.21
585.032	25.11
585.226	25.11
585.421	25.3
585.615	25.26
585.809	25.21
586.003	25.25
586.198	25.24
586.392	25.24
586.586	25.29
586.78	25.29
586.974	25.22
587.168	25.27
587.363	25.21
587.557	25.03
587.751	25.05
587.945	25.19
588.139	25.06
588.333	25.03
588.527	25.08
588.721	24.97
588.915	24.94
589.109	24.8
589.303	24.77
589.497	24.9
589.691	25.09
589.885	25.22
590.079	25.1
590.273	25.24
590.466	25.39
590.66	25.37
590.854	25.43
591.048	25.43
591.242	25.59
591.436	25.72
591.629	25.72
591.823	25.6
592.017	25.37
592.211	25.33
592.404	25.33
592.598	25.12
592.792	25.24
592.986	25.23
593.179	25.37
593.373	25.55
593.567	25.62
593.76	25.6
593.954	25.61
594.147	25.75
594.341	25.83
594.535	25.85
594.728	25.88
594.922	25.83
595.115	25.77
595.309	25.6
595.502	25.44
595.696	25.42
595.889	25.4
596.083	25.38
596.276	25.49
596.47	25.58
596.663	25.57
596.856	25.73
597.05	25.82
597.243	25.99
597.437	26.1
597.63	26.13
597.823	26.09
598.017	26.1
598.21	26.3
598.403	26.24
598.596	26.15
598.79	26.17
598.983	26.16
599.176	26.2
599.369	26.07
599.563	26.13
599.756	26.21
599.949	26.34
600.142	26.46
600.335	26.47
600.528	26.49
600.722	26.52
600.915	26.58
601.108	26.6
601.301	26.57
601.494	26.73
601.687	26.69
601.88	26.76
602.073	26.71
602.266	26.66
602.459	26.53
602.652	26.4
602.845	26.43
603.038	26.38
603.231	26.27
603.424	26.21
603.617	26.16
603.809	26.03
604.002	25.98
604.195	26.15
604.388	26.14
604.581	26.25
604.774	26.43
604.966	26.34
605.159	26.33
605.352	26.41
605.545	26.51
605.737	26.68
605.93	26.93
606.123	26.93
606.316	26.72
606.508	26.81
606.701	26.69
606.894	26.53
607.086	26.7
607.279	26.7
607.471	26.82
607.664	26.68
607.857	26.54
608.049	26.37
608.242	26.32
608.434	26.36
608.627	26.33
608.819	26.31
609.012	26.43
609.204	26.36
609.397	26.33
609.589	26.25
609.782	26.39
609.974	26.45
610.166	26.58
610.359	26.74
610.551	26.73
610.743	26.69
610.936	26.83
611.128	26.73
611.32	26.85
611.513	26.91
611.705	27.07
611.897	26.89
612.09	26.87
612.282	27.02
612.474	26.98
612.666	27.18
612.858	27.41
613.051	27.37
613.243	27.55
613.435	27.48
613.627	27.66
613.819	27.48
614.011	27.95
614.203	27.93
614.395	27.82
614.588	27.77
614.78	27.43
614.972	27.23
615.164	27.03
615.356	26.7
615.548	26.61
615.74	26.46
615.932	26.52
616.124	26
616.315	26.29
616.507	26.31
616.699	26.41
616.891	26.45
617.083	26.69
617.275	26.88
617.467	27.03
617.659	27.09
617.85	27.15
618.042	27.13
618.234	27.52
618.426	27.28
618.618	27.29
618.809	27.23
619.001	27.35
619.193	27.26
619.384	27.12
619.576	27.24
619.768	27.18
619.959	27.03
620.151	27.08
620.343	26.88
620.534	26.9
620.726	26.91
620.917	26.98
621.109	26.88
621.301	26.87
621.492	27.15
621.684	27.14
621.875	27.32
622.067	27.49
622.258	27.31
622.45	27.34
622.641	27.26
622.832	27.23
623.024	27.07
623.215	27.17
623.407	27.1
623.598	26.98
623.789	27.04
623.981	26.92
624.172	26.96
624.363	27.1
624.555	27.17
624.746	27.16
624.937	27.24
625.129	27.28
625.32	27.27
625.511	27.38
625.702	27.32
625.893	27.2
626.085	27.12
626.276	26.94
626.467	26.93
626.658	26.82
626.849	26.84
627.04	26.82
627.231	26.84
627.422	26.8
627.614	26.69
627.805	26.67
627.996	26.52
628.187	26.66
628.378	26.79
628.569	26.96
628.76	26.93
628.951	26.99
629.142	26.92
629.332	26.73
629.523	26.73
629.714	26.71
629.905	26.68
630.096	27.01
630.287	26.95
630.478	26.99
630.669	26.87
630.859	27.03
631.05	26.91
631.241	26.86
631.432	26.85
631.623	27.01
631.813	27.15
632.004	27.3
632.195	27.24
632.385	27.18
632.576	27.17
632.767	27.11
632.957	27.2
633.148	27.38
633.339	27.43
633.529	27.56
633.72	27.41
633.91	27.4
634.101	27.07
634.292	27.01
634.482	27.13
634.673	27.11
634.863	27.11
635.054	26.98
635.244	26.98
635.435	26.93
635.625	27.02
635.815	27.06
636.006	27.01
636.196	27.24
636.387	27.01
636.577	26.93
636.767	26.85
636.958	26.85
637.148	26.72
637.338	26.42
637.529	26.53
637.719	26.62
637.909	26.79
638.099	26.87
638.29	26.92
638.48	27.08
638.67	27.23
638.86	27.29
639.05	27.27
639.241	27.5
639.431	27.86
639.621	27.79
639.811	27.69
640.001	27.64
640.191	27.53
640.381	27.4
640.571	27.56
640.761	27.45
640.951	27.31
641.141	27.44
641.331	27.25
641.521	27.19
641.711	27.24
641.901	27.26
642.091	27.3
642.281	27.34
642.471	27.32
642.661	27.24
642.851	27.41
643.041	27.82
643.231	27.79
643.42	27.8
643.61	27.73
643.8	27.72
643.99	27.74
644.18	27.57
644.369	27.51
644.559	27.7
644.749	27.58
644.939	27.46
645.128	27.29
645.318	27.22
645.508	27.17
645.697	27.22
645.887	27.26
646.076	27.18
646.266	27
646.456	27.14
646.645	27.2
646.835	27.21
647.024	27.14
647.214	27.08
647.403	26.99
647.593	27.09
647.782	27.22
647.972	27.21
648.161	27.5
648.351	27.82
648.54	27.64
648.73	27.77
648.919	27.79
649.108	27.75
649.298	27.85
649.487	27.89
649.677	27.94
649.866	27.88
650.055	27.83
650.244	27.76
650.434	27.86
650.623	27.97
650.812	27.86
651.002	27.84
651.191	27.98
651.38	27.88
651.569	27.92
651.758	27.96
651.947	27.95
652.137	27.97
652.326	27.6
652.515	27.34
652.704	27.31
652.893	27.29
653.082	27.53
653.271	27.52
653.46	27.63
653.649	27.69
653.838	27.64
654.027	27.65
654.216	27.66
654.405	27.73
654.594	27.89
654.783	27.91
654.972	27.81
655.161	27.63
655.35	27.54
655.539	27.71
655.728	27.64
655.916	27.65
656.105	27.25
656.294	27.39
656.483	27.41
656.672	27.21
656.86	26.99
657.049	27.06
657.238	27.17
657.427	27.24
657.615	27.06
657.804	26.99
657.993	27
658.181	27.19
658.37	27.1
658.559	27.27
658.747	27.6
658.936	27.7
659.125	27.51
659.313	27.36
659.502	27.54
659.69	27.54
659.879	27.7
660.067	27.69
660.256	27.73
660.444	27.82
660.633	27.79
660.821	27.57
661.01	27.66
661.198	27.81
661.387	27.98
661.575	27.8
661.763	27.65
661.952	27.48
662.14	27.37
662.328	27.15
662.517	26.96
662.705	26.9
662.893	26.71
663.082	26.77
663.27	26.87
663.458	26.87
663.646	26.89
663.834	27.09
664.023	27.46
664.211	27.7
664.399	28.06
664.587	28.35
664.775	28.31
664.963	28.66
665.152	28.72
665.34	28.75
665.528	28.71
665.716	28.76
665.904	28.96
666.092	28.74
666.28	28.66
666.468	28.52
666.656	28.24
666.844	28.25
667.032	28.13
667.22	28.48
667.408	28.49
667.596	28.48
667.784	28.32
667.971	28.17
668.159	28.09
668.347	28.01
668.535	28.21
668.723	28.39
668.911	28.49
669.098	28.31
669.286	27.86
669.474	27.8
669.662	27.84
669.849	28.06
670.037	28.09
670.225	28.26
670.413	28.52
670.6	28.19
670.788	28.33
670.976	28.36
671.163	28.57
671.351	28.45
671.538	28.61
671.726	28.64
671.913	28.52
672.101	28.44
672.289	28.46
672.476	28.29
672.664	28.31
672.851	28.27
673.039	28.03
673.226	28.18
673.413	28.26
673.601	28.11
673.788	28.3
673.976	28.33
674.163	28.36
674.35	28.47
674.538	28.42
674.725	28.62
674.912	28.52
675.1	28.85
675.287	28.6
675.474	28.58
675.662	28.46
675.849	28.31
676.036	28.37
676.223	27.99
676.411	27.88
676.598	27.95
676.785	28.14
676.972	28.21
677.159	28.14
677.346	28
677.533	28.23
677.721	28.23
677.908	28.04
678.095	28.08
678.282	28.24
678.469	28.12
678.656	28.19
678.843	27.92
679.03	27.66
679.217	27.59
679.404	27.71
679.591	27.45
679.778	27.53
679.964	27.61
680.151	27.33
680.338	27.5
680.525	27.6
680.712	27.53
680.899	27.54
681.086	27.71
681.272	27.65
681.459	27.43
681.646	27.27
681.833	27.34
682.02	27.26
682.206	27.71
682.393	27.64
682.58	27.59
682.766	27.37
682.953	27.29
683.14	27.22
683.326	27.63
683.513	28.18
683.7	28.37
683.886	28.41
684.073	28.57
684.259	28.09
684.446	28.18
684.632	27.94
684.819	27.93
685.005	28.04
685.192	27.87
685.378	27.44
685.565	27.43
685.751	27.63
685.938	27.68
686.124	27.57
686.31	27.8
686.497	27.67
686.683	28.09
686.87	28.31
687.056	28.19
687.242	28.27
687.429	28.49
687.615	28.35
687.801	28.29
687.987	27.89
688.174	28
688.36	27.79
688.546	27.91
688.732	27.86
688.918	27.82
689.105	28
689.291	28.3
689.477	28.17
689.663	28.12
689.849	27.98
690.035	28.37
690.221	28.17
690.407	28.27
690.593	28.19
690.779	28.03
690.965	28.09
691.151	27.97
691.337	27.79
691.523	28.11
691.709	27.86
691.895	28.11
692.081	28.15
692.267	28.47
692.453	28.43
692.639	28.39
692.825	28.47
693.011	28.56
693.196	28.54
693.382	28.41
693.568	27.97
693.754	28.3
693.94	28.23
694.125	27.88
694.311	27.81
694.497	27.73
694.682	27.71
694.868	27.72
695.054	27.46
695.239	27.64
695.425	27.7
695.611	28.04
695.796	27.82
695.982	27.79
696.168	27.97
696.353	27.91
696.539	28.1
696.724	28.01
696.91	27.99
697.095	27.89
697.281	27.68
697.466	27.85
697.652	27.78
697.837	27.83
698.023	27.9
698.208	27.82
698.393	27.66
698.579	27.64
698.764	27.55
698.949	27.4
699.135	27.6
699.32	27.64
699.505	27.52
699.691	27.35
699.876	27.41
700.061	27.3
700.246	27.04
700.432	27.27
700.617	27.16
700.802	27.21
700.987	27.25
701.172	27.58
701.358	27.59
701.543	27.62
701.728	27.69
701.913	27.7
702.098	27.6
702.283	28.03
702.468	28.02
702.653	28.21
702.838	28.81
703.023	28.91
703.208	28.51
703.393	28.81
703.578	29.07
703.763	29.16
703.948	29.03
704.133	29.35
704.318	29
704.503	29.25
704.688	29.03
704.873	28.49
705.057	28.32
705.242	28.19
705.427	27.94
705.612	27.68
705.797	27.64
705.981	27.84
706.166	27.77
706.351	27.91
706.536	27.78
706.72	28.06
706.905	28.32
707.09	28.68
707.274	28.77
707.459	28.85
707.644	28.73
707.828	28.75
708.013	28.83
708.197	28.6
708.382	28.9
708.567	28.99
708.751	28.42
708.936	28.58
709.12	28.55
709.305	28.34
709.489	28.24
709.673	28.53
709.858	28.46
710.042	28.4
710.227	28.22
710.411	28
710.596	27.73
710.78	27.95
710.964	27.7
711.149	27.89
711.333	28.2
711.517	28.09
711.702	28.14
711.886	28.19
712.07	27.89
712.254	28.33
712.438	28.47
712.623	28.66
712.807	28.74
712.991	28.51
713.175	28.64
713.359	28.43
713.544	28.9
713.728	28.53
713.912	28.46
714.096	28.5
714.28	28.21
714.464	27.88
714.648	27.68
714.832	27.55
715.016	27.64
715.2	26.96
715.384	26.86
715.568	26.89
715.752	26.87
715.936	26.74
716.12	26.76
716.304	27.41
716.488	27.43
716.671	27.69
716.855	27.81
717.039	28.04
717.223	27.88
717.407	27.99
717.59	27.83
717.774	28.15
717.958	28.11
718.142	28.21
718.325	27.67
718.509	27.92
718.693	27.83
718.877	27.77
719.06	27.66
719.244	28.14
719.428	27.78
719.611	27.91
719.795	27.29
719.978	27.16
720.162	27.42
720.345	27.12
720.529	27.39
720.713	27.42
720.896	27.38
721.08	27.03
721.263	27.14
721.446	27.42
721.63	27.22
721.813	27.45
721.997	27.53
722.18	27.77
722.364	27.94
722.547	27.74
722.73	27.31
722.914	27.77
723.097	28.12
723.28	28.1
723.464	28.06
723.647	28.34
723.83	28.78
724.013	28.89
724.197	28.54
724.38	28.92
724.563	28.88
724.746	29.5
724.929	29.54
725.112	29.54
725.296	29.7
725.479	29.95
725.662	29.67
725.845	29.63
726.028	29.29
726.211	28.85
726.394	28.53
726.577	28.71
726.76	28.31
726.943	28.02
727.126	28.05
727.309	27.57
727.492	27.35
727.675	26.9
727.858	26.56
728.041	27.22
728.224	27.65
728.407	27.48
728.589	27.41
728.772	27.58
728.955	27.92
729.138	27.8
729.321	28.15
729.503	28.29
729.686	29
729.869	29
730.052	28.86
730.234	28.77
730.417	28.71
730.6	28.2
730.782	28.07
730.965	28.02
731.148	27.98
731.33	27.99
731.513	28.07
731.695	27.84
731.878	28.15
732.061	27.94
732.243	28.21
732.426	28.55
732.608	29.36
732.791	29.38
732.973	29.23
733.156	29.36
733.338	29.17
733.52	29.57
733.703	29.42
733.885	29.38
734.068	29.53
734.25	29.09
734.432	29.12
734.615	28.51
734.797	28.38
734.979	28.14
735.162	28.15
735.344	27.79
735.526	27.11
735.708	27.46
735.891	27.47
736.073	27.21
736.255	27.41
736.437	26.8
736.619	26.97
736.802	27.17
736.984	27.3
737.166	27.15
737.348	28.04
737.53	28.01
737.712	27.71
737.894	28.14
738.076	28.42
738.258	28.7
738.44	29.04
738.622	29.4
738.804	29.43
738.986	30.01
739.168	30.15
739.35	30.05
739.532	30.3
739.714	30.47
739.896	29.95
740.078	30.14
740.259	30
740.441	30.4
740.623	30.1
740.805	30.22
740.987	30.2
741.168	30.06
741.35	30.37
741.532	30.52
741.714	30.38
741.895	30.36
742.077	30.49
742.259	30.27
742.44	29.58
742.622	28.9
742.804	28.49
742.985	27.85
743.167	28.13
743.348	27.44
743.53	27.22
743.711	27.76
743.893	27.85
744.075	27.73
744.256	27.69
744.438	28.46
744.619	28.61
744.8	29.06
744.982	28.51
745.163	28.4
745.345	29.05
745.526	29.31
745.707	28.73
745.889	28.34
746.07	28.33
746.252	28.77
746.433	28.29
746.614	28.66
746.795	28.57
746.977	29.16
747.158	29.19
747.339	28.34
747.52	28.2
747.702	27.73
747.883	28.55
748.064	29.23
748.245	29.4
748.426	29.31
748.607	29.44
748.788	29.4
748.97	29.59
749.151	29.74
749.332	30.61
749.513	30.36
749.694	30.76
749.875	29.93
750.056	29.6
750.237	29.31
750.418	30.43
750.599	30.33
750.78	30.55
750.96	30.35
751.141	30.47
751.322	29.38
751.503	29.84
751.684	30.56
751.865	30.14
752.046	29.81
752.226	29.48
752.407	29
752.588	29.07
752.769	29.1
752.949	29.63
753.13	29.97
753.311	30.25
753.492	30.43
753.672	29.84
753.853	30.72
754.034	30.39
754.214	31.24
754.395	30.49
754.575	30.8
754.756	30.57
754.937	30.43
755.117	29.72
755.298	30.71
755.478	30.23
755.659	30.45
755.839	30.29
756.02	30.62
756.2	30.22
756.381	30.36
756.561	29.66
756.741	29.05
756.922	28.97
757.102	29.52
757.283	28.86
757.463	28.27
757.643	27.66
757.823	27.36
758.004	26.94
758.184	27
758.364	27.91
758.545	28.78
758.725	29.04
758.905	28.36
759.085	27.93
759.265	27.17
759.446	27.93
759.626	28.38
759.806	28.76
759.986	29.44
760.166	28.55
760.346	27.65
760.526	26.97
760.706	26.98
760.886	27.88
761.066	27.98
761.246	28.69
761.426	28.8
761.606	28.06
761.786	27.78
761.966	27.3
762.146	27.51
762.326	27.71
762.506	27.84
762.686	27.87
762.866	27.61
763.046	27.69
763.225	27.66
763.405	27.15
763.585	27.69
763.765	27.65
763.945	27.87
764.124	28.25
764.304	28.5
764.484	29.08
764.664	28.82
764.843	28.32
765.023	28.41
765.203	28.5
765.382	28.95
765.562	29
765.741	29.15
765.921	29.41
766.101	29.11
766.28	28.52
766.46	27.97
766.639	28.57
766.819	28.9
766.998	28.51
767.178	28.09
767.357	27.88
767.537	27.72
767.716	28.18
767.896	27.31
768.075	28.11
768.254	28.43
768.434	28.63
768.613	28.6
768.792	28.69
768.972	29.37
769.151	30.26
769.33	30.6
769.51	31.24
769.689	31.2
769.868	32.08
770.047	31.69
770.226	31.53
770.406	31.25
770.585	31.44
770.764	31.89
770.943	31.53
771.122	30.75
771.301	31.03
771.48	30.48
771.66	30.36
771.839	29.79
772.018	28.99
772.197	29.68
772.376	29.42
772.555	28.78
772.734	27.79
772.913	28.1
773.092	28.65
773.271	28.68
773.449	29.15
773.628	28.07
773.807	28.15
773.986	28.39
774.165	28.32
774.344	29.21
774.523	30.29
774.701	30.71
774.88	30.63
775.059	30.96
775.238	31.11
775.417	31.76
775.595	32.77
775.774	32.45
775.953	32.05
776.131	31.76
776.31	30.69
776.489	29.3
776.667	29.45
776.846	29.09
777.025	28.5
777.203	27.53
777.382	26.98
777.56	26.89
777.739	28.07
777.917	28.71
778.096	29.01
778.274	28.84
778.453	29.17
778.631	29.58
778.81	28.72
778.988	28.94
779.166	29.54
779.345	29.3
779.523	28.57
779.702	27.99
779.88	28.18
780.058	28.14
780.237	29.22
780.415	29.88
780.593	30.36
780.771	31.18
780.95	32.03
781.128	31.22
781.306	31.22
781.484	32.3
781.662	31.75
781.841	32.44
782.019	32.02
782.197	32.15
782.375	31.99
782.553	32.38
782.731	32.49
782.909	31.85
783.087	32.86
783.265	32.83
783.443	31.73
783.621	32.55
783.799	31.91
783.977	32.36
784.155	32.07
784.333	32.75
784.511	32.67
784.689	32.53
784.867	31.94
785.045	31.45
785.223	31.68
785.4	31.65
785.578	31.32
785.756	31.29
785.934	31.28
786.112	31.15
786.289	29.79
786.467	28.67
786.645	28
786.823	28.52
787	28.56
787.178	27.21
787.356	27.89
787.533	27.95
787.711	27.72
787.889	27.42
788.066	27.15
788.244	28.54
788.421	28.7
788.599	29.07
788.776	28.78
788.954	28.72
789.131	29.96
789.309	29.41
789.486	29.92
789.664	30.42
789.841	29.87
790.019	30.38
790.196	29.57
790.373	29.83
790.551	31.31
790.728	31.35
790.906	31.85
791.083	31.36
791.26	32.84
791.437	32.51
791.615	32.93
791.792	33.85
791.969	33.55
792.146	33.13
792.324	32.53
792.501	32.21
792.678	32.93
792.855	32.64
793.032	32.31
793.209	30.64
793.387	29.97
793.564	27.89
793.741	27.31
793.918	26.54
794.095	26.8
794.272	27.06
794.449	26.59
794.626	26.72
794.803	27.05
794.98	26.32
795.157	27.26
795.334	28.02
795.511	29.55
795.688	30.37
795.864	30.64
796.041	31.04
796.218	32.02
796.395	31.62
796.572	30.55
796.749	30.33
796.925	31.8
797.102	31.83
797.279	30.9
797.456	30.87
797.632	30.26
797.809	31.04
797.986	30.69
798.162	29.1
798.339	28.47
798.516	29.64
798.692	29.19
798.869	28.52
799.046	28.25
799.222	28.98
799.399	28.65
799.575	29.03
799.752	28.32
799.928	29.13
800.105	29.72
800.281	30.4
800.458	30.04
800.634	30.11
800.811	29.66
800.987	29.99
801.163	29.68
801.34	29.32
801.516	29.53
801.692	30.79
801.869	29.94
802.045	29.72
802.221	29.63
802.398	28.8
802.574	29.53
802.75	30.75
802.926	31.68
803.103	30.94
803.279	30.81
803.455	29.8
803.631	29.15
803.807	29.11
803.983	30.29
804.16	30.02
804.336	30.44
804.512	29.83
804.688	30.25
804.864	29.42
805.04	30.6
805.216	31.02
805.392	30.94
805.568	30.8
805.744	30.17
805.92	29.47
806.096	29.56
806.272	30.22
806.448	31.49
806.623	31.61
806.799	32.57
806.975	33.08
807.151	33.76
807.327	34.07
807.503	33.5
807.678	33.79
807.854	34.5
808.03	34.68
808.206	33.96
808.381	33.24
808.557	31.45
808.733	30.24
808.908	29.84
809.084	29.37
809.26	30.07
809.435	31.16
809.611	31.26
809.787	29.76
809.962	30.07
810.138	29.62
810.313	29.14
810.489	30.96
810.664	29.8
810.84	28.14
811.015	28.6
811.191	28.52
811.366	28.02
811.542	28.19
811.717	28.81
811.892	29.53
812.068	29.04
812.243	29.2
812.419	28.64
812.594	29.58
812.769	30.5
812.944	30.04
813.12	28.57
813.295	29.32
813.47	29.48
813.645	29.38
813.821	26.86
813.996	28.23
814.171	27.91
814.346	26.84
814.521	26.66
814.697	27.11
814.872	26.88
815.047	27.49
815.222	26.18
815.397	24.84
815.572	25.12
815.747	25.74
815.922	25.89
816.097	24.5
816.272	25.12
816.447	24.8
816.622	24.31
816.797	25.11
816.972	26.19
817.147	25.61
817.322	26.9
817.496	26.18
817.671	28.06
817.846	27.36
818.021	29.71
818.196	28.87
818.371	29.56
818.545	30.08
818.72	29.99
818.895	30.62
819.069	30.94
819.244	30.62
819.419	30.92
819.594	29.65
819.768	29.21
819.943	28.06
820.117	28.42
820.292	28.24
820.467	28.06
820.641	27.25
820.816	26.61
820.99	26.47
821.165	26.58
821.339	26.69
821.514	27.05
821.688	26.98
821.863	27
822.037	26.75
822.212	26.75
822.386	26.45
822.56	26.58
822.735	26.47
822.909	26.68
823.084	26.61
823.258	26.69
823.432	26.43
823.606	26.51
823.781	26.64
823.955	27.08
824.129	27.2
824.303	27.5
824.478	27.33
824.652	27.33
824.826	27.52
825	27.46
825.174	27.23
825.348	27.06
825.523	26.94
825.697	27.1
825.871	26.68
826.045	26.1
826.219	26.36
826.393	26.63
826.567	27.2
826.741	27.36
826.915	28.02
827.089	28.23
827.263	28.68
827.437	29.25
827.611	29.43
827.784	29.65
827.958	30.11
828.132	29.79
828.306	30.24
828.48	29.97
828.654	30.03
828.827	29.31
829.001	29.66
829.175	30.12
829.349	30.3
829.522	29.83
829.696	29.49
829.87	29.99
830.044	30.86
830.217	31.09
830.391	31.39
830.565	29.97
830.738	30.82
830.912	30.02
831.085	28.74
831.259	28.75
831.432	29.78
831.606	30.22
831.779	29.76
831.953	28.52
832.126	28.46
832.3	29.04
832.473	29.26
832.647	28.37
832.82	28.05
832.994	28.15
833.167	27.84
833.34	27.58
833.514	28.05
833.687	27.79
833.86	28.7
834.034	29.19
834.207	28.76
834.38	28.87
834.553	29.19
834.727	29.6
834.9	29.79
835.073	29.5
835.246	29.29
835.419	29.11
835.593	29.42
835.766	28.62
835.939	28.53
836.112	28.65
836.285	29.01
836.458	29.31
836.631	29.62
836.804	29.82
836.977	30.76
837.15	31.6
837.323	31.96
837.496	31.98
837.669	33.2
837.842	31.64
838.015	32.89
838.188	32.79
838.361	31.7
838.533	31.36
838.706	32.07
838.879	31.93
839.052	31.12
839.225	30.93
839.398	31.45
839.57	30.75
839.743	32.93
839.916	31.16
840.088	32.04
840.261	33.25
840.434	32.85
840.607	31.68
840.779	31.35
840.952	31.55
841.124	31.03
841.297	30.8
841.47	31.31
841.642	28.11
841.815	28.99
841.987	28.6
842.16	27.84
842.332	29.27
842.505	31.08
842.677	31.68
842.85	31.47
843.022	31.58
843.194	32.31
843.367	32.46
843.539	34.65
843.712	34.44
843.884	33.16
844.056	37.07
844.229	38
844.401	37.81
844.573	35.61
844.745	33.6
844.918	34.71
845.09	31.51
845.262	29.59
845.434	29.38
845.606	27.4
845.779	29.64
845.951	27.06
846.123	27.42
846.295	28.99
846.467	31.74
846.639	34.48
846.811	33.07
846.983	34.59
847.155	37.98
847.327	36.81
847.499	43.43
847.671	43.84
847.843	42.41
848.015	40.71
848.187	39.69
848.359	34.36
848.531	34.55
848.703	36.29
848.875	38.07
849.047	36.89
849.218	35.19
849.39	32.19
849.562	27.35
849.734	29.61
849.905	29.96
850.077	32.52
850.249	35.43
850.421	36.68
850.592	36.21
850.764	36.12
850.936	36.7
851.107	41.44
851.279	41.48
851.451	46.25
851.622	47.87
851.794	46.8
851.965	45.15
852.137	45.35
852.308	43.49
852.48	42.35
852.651	43.63
852.823	42.39
852.994	40.84
853.166	37.19
853.337	38.26
853.509	38.35
853.68	41.63
853.851	41.03
854.023	40.7
854.194	45.16
854.365	49.38
854.537	47.08
854.708	46.74
854.879	48.33
855.05	51.29
855.222	44.93
855.393	44.69
855.564	41.12
855.735	39.53
855.906	43.43
856.078	37.98
856.249	36.91
856.42	37.86
856.591	39.74
856.762	39.38
856.933	38.49
857.104	36.86
857.275	38.3
857.446	42.17
857.617	42.1
857.788	36.23
857.959	38.67
858.13	39.97
858.301	39.37
858.472	35.3
858.643	36.79
858.814	41.69
858.985	47.24
859.155	42.69
859.326	41.74
859.497	41.48
859.668	44.27
859.839	41.84
860.009	37.38
860.18	39.62
860.351	41.28
860.522	41.38
860.692	32.91
860.863	29.3
861.034	31.43
861.204	31.12
861.375	29.11
861.546	31.27
861.716	34.66
861.887	39.85
862.057	34.57
862.228	30.15
862.398	30.76
862.569	33.95
862.739	38.06
862.91	33.19
863.08	29.95
863.251	33.07
863.421	31.2
863.592	27.97
863.762	21.62
863.932	22.3
864.103	29.4
864.273	26.81
864.443	29.66
864.614	30.03
864.784	33.07
864.954	35.88
865.125	36.65
865.295	34.94
865.465	38.15
865.635	36.11
865.805	40.9
865.976	36.99
866.146	34.99
866.316	35.21
866.486	32.61
866.656	33.2
866.826	33.57
866.996	33.59
867.166	36.16
867.336	36.9
867.506	38.33
867.676	35.54
867.846	38.18
868.016	41.51
868.186	42.05
868.356	42.11
868.526	39.98
868.696	39.47
868.866	40.82
869.036	41.94
869.206	37.5
869.376	40.1
869.545	40.92
869.715	36.6
869.885	35.14
870.055	34.6
870.224	39.74
870.394	41.92
870.564	42.19
870.734	39.73
870.903	31.17
871.073	26
871.243	29.92
871.412	33.48
871.582	37.49
871.751	38.86
871.921	41.55
872.091	42.29
872.26	39.78
872.43	38.81
872.599	40.86
872.769	47.82
872.938	53.48
873.108	50.28
873.277	47.58
873.446	44.39
873.616	43.53
873.785	39.84
873.955	34.09
874.124	35.5
874.293	31.73
874.463	30.74
874.632	28.1
874.801	30.28
874.971	32.2
875.14	36.07
875.309	36.8
875.478	41.02
875.647	42.55
875.817	43.08
875.986	46.27
876.155	50.31
876.324	48.74
876.493	48.48
876.662	51.46
876.831	46.92
877	42.1
877.17	44.29
877.339	42.06
877.508	40.02
877.677	40.4
877.846	35.47
878.015	33.74
878.184	34.76
878.352	35.74
878.521	31.1
878.69	33.45
878.859	32.16
879.028	31.95
879.197	30.55
879.366	31.71
879.534	32.42
879.703	31.24
879.872	31.44
880.041	30.35
880.21	29.7
880.378	31.47
880.547	29.52
880.716	29.68
880.884	29.21
881.053	28.57
881.222	28.07
881.39	27.38
881.559	28.11
881.727	27.34
881.896	26.86
882.065	27.52
882.233	26.8
882.402	26.84
882.57	26.76
882.739	27.01
882.907	27.25
883.076	27.2
883.244	27.03
883.412	27.12
883.581	27.88
883.749	29.11
883.918	28.85
884.086	29.47
884.254	31.4
884.423	33.13
884.591	33.17
884.759	33
884.927	32.63
885.096	33.33
885.264	33.65
885.432	33.9
885.6	32.36
885.769	32.35
885.937	32.06
886.105	30.18
886.273	28.67
886.441	28.66
886.609	29.78
886.777	32.86
886.945	34.79
887.113	35.49
887.281	35.5
887.449	35.91
887.617	37.46
887.785	36.45
887.953	37.72
888.121	36.8
888.289	39.99
888.457	41.1
888.625	40.53
888.793	39.06
888.961	37.49
889.129	39.63
889.296	41.99
889.464	40.59
889.632	44.36
889.8	44.77
889.967	46.79
890.135	42.52
