Data from 2938542_Reflection_23-29-38-060.txt Node
Date: Mon Jun 15 23:29:38 EDT 2015
User: robert
Spectrometer: USB4E03002
Autoset integration time: false
Trigger mode: 4
Integration Time (sec): 1.000000E-1
Scans to average: 10
Electric dark correction enabled: true
Nonlinearity correction enabled: false
Boxcar width: 6
Stray light correction enabled: false
XAxis mode: Wavelengths
Stop averaging: false
Number of Pixels in Spectrum: 3648
>>>>>Begin Spectral Data<<<<<
177.575	-42.01
177.794	-45.96
178.014	-69.85
178.233	-122.68
178.452	-913.16
178.672	-247.68
178.891	-0
179.11	5.65
179.33	-1.08
179.549	-17.18
179.768	-29.45
179.987	-23.9
180.207	11.94
180.426	7.14
180.645	32.08
180.864	56.11
181.084	62.57
181.303	76.95
181.522	90.4
181.741	115.77
181.96	89.4
182.179	93.44
182.398	78.41
182.618	72.07
182.837	55.77
183.056	48
183.275	66.32
183.494	66.54
183.713	67.89
183.932	3.12
184.151	-75.19
184.37	-100
184.589	-80.27
184.808	-143.85
185.027	-223.85
185.246	-52.65
185.465	-5.1
185.684	-29.28
185.903	-37.41
186.122	-848.94
186.341	2135
186.56	444.44
186.779	523.08
186.998	-38.03
187.216	503.85
187.435	78.33
187.654	146.6
187.873	1433.33
188.092	314.84
188.311	371.43
188.53	2300
188.748	-2055
188.967	-254.55
189.186	-978.05
189.405	-646.75
189.623	1017.31
189.842	262.11
190.061	2527.27
190.28	-181.08
190.498	-578.95
190.717	-348.65
190.936	-2014.29
191.154	-437.84
191.373	1111.11
191.592	455.56
191.81	397.3
192.029	-120.97
192.248	-11.11
192.466	166.67
192.685	4.79
192.904	29.75
193.122	222.45
193.341	107.41
193.559	25.5
193.778	70.13
193.996	82.47
194.215	118.39
194.433	106.93
194.652	120.53
194.87	215.34
195.089	131.3
195.307	122.38
195.526	104.34
195.744	121.52
195.963	272.13
196.181	260.12
196.399	1336.36
196.618	239.69
196.836	22.99
197.055	134.72
197.273	50
197.491	61.99
197.71	2.59
197.928	66.59
198.146	65.17
198.365	99.75
198.583	155.06
198.801	-7950
199.019	-260
199.238	-403.45
199.456	-331.25
199.674	70.56
199.892	146.15
200.111	175
200.329	6.71
200.547	21.14
200.765	67.01
200.983	70.09
201.202	108.98
201.42	179.31
201.638	76.92
201.856	-16.67
202.074	-106.09
202.292	-91.06
202.51	-62.05
202.728	-63.92
202.946	-22.19
203.165	39.37
203.383	16.92
203.601	23.48
203.819	8.79
204.037	-14.41
204.255	-22.13
204.473	-59.05
204.691	-43.32
204.909	-12.59
205.127	-23.5
205.345	-41.8
205.562	-37.8
205.78	-149.68
205.998	-77.81
206.216	-76.15
206.434	-65.25
206.652	-38.5
206.87	-17.75
207.088	26.11
207.306	52.74
207.523	61.36
207.741	77.54
207.959	86.41
208.177	71.91
208.395	44.87
208.612	52.67
208.83	32.9
209.048	49.55
209.266	78.04
209.483	86.5
209.701	95.24
209.919	55.38
210.136	29.73
210.354	41.94
210.572	43.55
210.79	7.08
211.007	29.91
211.225	52.93
211.442	27.63
211.66	28.47
211.878	-80.78
212.095	-127.32
212.313	-133.39
212.53	-103.43
212.748	-95.6
212.966	-127.57
213.183	-130.4
213.401	-87.95
213.618	-89.37
213.836	-80.6
214.053	-89.02
214.271	-157.42
214.488	-315.15
214.705	-23.59
214.923	5.73
215.14	33.48
215.358	29.51
215.575	31.54
215.793	42.92
216.01	37.67
216.227	28
216.445	29.76
216.662	30.7
216.879	28.25
217.097	30.31
217.314	41.59
217.531	37.14
217.749	40.74
217.966	31.03
218.183	25.65
218.4	17.42
218.618	3.43
218.835	1.31
219.052	-15.2
219.269	-34.02
219.487	-44.58
219.704	-20.4
219.921	-11.61
220.138	-2.74
220.355	-1.17
220.572	-1.51
220.79	-9.84
221.007	-6.38
221.224	-10.45
221.441	2.26
221.658	10.27
221.875	9.21
222.092	10.92
222.309	17.41
222.526	22.22
222.743	22.2
222.96	17.98
223.177	16.53
223.394	13.32
223.611	13.86
223.828	12.78
224.045	17.06
224.262	13
224.479	4.72
224.696	7.31
224.913	9.78
225.13	8.65
225.347	8.6
225.564	7.62
225.781	6.77
225.997	6.44
226.214	6.95
226.431	6.21
226.648	6.59
226.865	6.7
227.082	7.67
227.298	9.61
227.515	8.89
227.732	8.45
227.949	7.38
228.165	7.37
228.382	7.75
228.599	7.75
228.816	8.33
229.032	8.43
229.249	9.29
229.466	9.22
229.682	8.76
229.899	9.18
230.116	7.52
230.332	7.07
230.549	5.91
230.765	7.45
230.982	6.31
231.199	6.01
231.415	6.2
231.632	5.11
231.848	5.63
232.065	3.7
232.281	5.15
232.498	5.67
232.714	3.25
232.931	4.14
233.147	3.85
233.364	4.54
233.58	4.31
233.797	4.91
234.013	4.27
234.23	3.59
234.446	3
234.662	2.75
234.879	2.93
235.095	2.25
235.312	2.7
235.528	1.89
235.744	2.13
235.961	2.8
236.177	4.27
236.393	3.46
236.61	2.89
236.826	2.88
237.042	4.75
237.258	4.21
237.475	3.75
237.691	3.99
237.907	3.78
238.123	4.02
238.339	6.03
238.556	6.93
238.772	7.24
238.988	6.97
239.204	7.77
239.42	7.71
239.636	7.95
239.853	8.27
240.069	8.91
240.285	8.72
240.501	9.31
240.717	9.65
240.933	9.93
241.149	9.69
241.365	10
241.581	9.92
241.797	9.56
242.013	9.25
242.229	9.65
242.445	10.15
242.661	9.51
242.877	9.22
243.093	10.04
243.309	9.41
243.525	8.24
243.741	7.84
243.957	8.19
244.173	7.37
244.388	8.22
244.604	8.52
244.82	8.13
245.036	7.47
245.252	7.32
245.468	7.22
245.683	7.48
245.899	7.27
246.115	7.43
246.331	7.87
246.547	7.82
246.762	7.6
246.978	7.71
247.194	7.46
247.409	7.21
247.625	7.05
247.841	7.48
248.057	7.37
248.272	7.64
248.488	6.99
248.703	6.99
248.919	6.79
249.135	5.81
249.35	5.92
249.566	6.31
249.782	6.58
249.997	6.09
250.213	6.11
250.428	6.76
250.644	7.1
250.859	7.49
251.075	7.29
251.29	7.67
251.506	7.35
251.721	7.64
251.937	8.31
252.152	8.88
252.368	8.78
252.583	8.72
252.798	9.06
253.014	9.05
253.229	8.16
253.445	8.65
253.66	7.85
253.875	8.27
254.091	8.73
254.306	8.75
254.521	8.76
254.737	8.76
254.952	7.32
255.167	6.9
255.383	6.19
255.598	6.16
255.813	6.99
256.028	7.68
256.244	7
256.459	7.27
256.674	7.19
256.889	6.55
257.104	5.87
257.32	5.98
257.535	6.02
257.75	5.93
257.965	5.9
258.18	6.13
258.395	6.05
258.61	5.92
258.826	5.85
259.041	5.84
259.256	5.69
259.471	5.38
259.686	5.44
259.901	5.72
260.116	5.61
260.331	5.65
260.546	5.89
260.761	5.82
260.976	5.65
261.191	5.8
261.406	5.51
261.621	5.89
261.836	5.99
262.05	5.86
262.265	6.1
262.48	6.35
262.695	6.91
262.91	6.85
263.125	6.15
263.34	5.94
263.555	5.97
263.769	5.71
263.984	5.64
264.199	5.61
264.414	5.19
264.629	5.02
264.843	5.59
265.058	5.61
265.273	5.48
265.488	5.43
265.702	5.37
265.917	5.75
266.132	6.17
266.346	6.22
266.561	6.76
266.776	6.48
266.99	6.74
267.205	6.4
267.42	5.84
267.634	6.18
267.849	6.67
268.063	6.68
268.278	6.32
268.492	6.12
268.707	6.26
268.922	6
269.136	6.42
269.351	6.37
269.565	6.36
269.78	6.33
269.994	6.28
270.209	6.54
270.423	6.1
270.637	5.92
270.852	5.6
271.066	5.97
271.281	6.25
271.495	6.12
271.709	5.99
271.924	5.89
272.138	5.51
272.353	5.81
272.567	5.79
272.781	5.86
272.996	6.42
273.21	6.53
273.424	6.43
273.638	6.7
273.853	6.41
274.067	6.14
274.281	5.86
274.495	6.09
274.71	5.65
274.924	5.56
275.138	5.33
275.352	5.24
275.566	5.07
275.781	4.2
275.995	3.88
276.209	3.67
276.423	3.51
276.637	3.45
276.851	3.67
277.065	4.01
277.279	4.11
277.493	4.11
277.707	4.31
277.921	4.47
278.135	4.46
278.349	4.98
278.563	5.07
278.777	5.16
278.991	5.25
279.205	5.5
279.419	5.46
279.633	5
279.847	5.04
280.061	5.11
280.275	5.18
280.489	5.49
280.703	5.51
280.917	5.53
281.131	5.58
281.344	6
281.558	5.94
281.772	5.69
281.986	5.81
282.2	6.35
282.414	6.85
282.627	6.55
282.841	6.42
283.055	6.38
283.269	6.08
283.482	5.91
283.696	5.84
283.91	5.43
284.123	5.28
284.337	5.41
284.551	5.44
284.764	5.36
284.978	5.06
285.192	4.86
285.405	5.15
285.619	4.9
285.833	5.16
286.046	5.31
286.26	5.29
286.473	5.54
286.687	5.82
286.9	5.96
287.114	5.78
287.327	6.05
287.541	6.24
287.754	6.37
287.968	6.01
288.181	5.84
288.395	6.22
288.608	6.26
288.822	6.34
289.035	6.64
289.248	6.67
289.462	6.35
289.675	6.43
289.889	6.51
290.102	6.37
290.315	5.83
290.529	5.42
290.742	5.62
290.955	5.74
291.169	5.63
291.382	5.51
291.595	5.39
291.808	5.35
292.022	5.34
292.235	5.74
292.448	5.6
292.661	5.5
292.875	5.53
293.088	6.32
293.301	6.65
293.514	6.95
293.727	6.81
293.94	6.81
294.153	6.7
294.367	6.61
294.58	6.43
294.793	6.48
295.006	6.47
295.219	6.54
295.432	6.81
295.645	6.79
295.858	6.42
296.071	6.25
296.284	6.33
296.497	6.37
296.71	6.46
296.923	6.57
297.136	6.52
297.349	6.48
297.562	6.41
297.775	6.5
297.988	6.74
298.201	6.62
298.414	6.48
298.626	6.56
298.839	6.77
299.052	6.62
299.265	6.75
299.478	6.39
299.691	6.02
299.903	6.52
300.116	6.78
300.329	6.45
300.542	6.31
300.755	6.29
300.967	6.14
301.18	6.49
301.393	6.5
301.605	6.54
301.818	6.44
302.031	6.48
302.243	6.8
302.456	6.98
302.669	6.89
302.881	6.91
303.094	7.36
303.307	7.52
303.519	7.35
303.732	7.6
303.944	7.51
304.157	7.67
304.37	7.48
304.582	7.83
304.795	7.64
305.007	7.47
305.22	7.4
305.432	6.96
305.645	6.75
305.857	6.54
306.069	6.43
306.282	6.38
306.494	6.48
306.707	6.75
306.919	6.65
307.132	6.85
307.344	6.76
307.556	6.96
307.769	6.85
307.981	7.1
308.193	7.45
308.406	7.48
308.618	7.19
308.83	7.31
309.043	7.04
309.255	7.07
309.467	6.89
309.679	6.95
309.892	6.94
310.104	7.13
310.316	7.06
310.528	7.26
310.74	7.3
310.953	7.49
311.165	7.63
311.377	7.92
311.589	7.95
311.801	8.08
312.013	8.27
312.225	8.2
312.437	8.39
312.649	8.08
312.862	7.94
313.074	8.01
313.286	8.35
313.498	8.3
313.71	8
313.922	8.06
314.134	8.09
314.346	8.25
314.558	8.57
314.77	8.12
314.982	8.15
315.193	8.04
315.405	8.4
315.617	8.23
315.829	7.87
316.041	7.38
316.253	7.39
316.465	7.19
316.677	6.89
316.888	6.57
317.1	6.37
317.312	6.16
317.524	6.17
317.736	6.59
317.947	6.56
318.159	6.47
318.371	6.64
318.583	6.76
318.794	6.93
319.006	7.11
319.218	7.51
319.43	7.87
319.641	8.54
319.853	8.45
320.064	8.83
320.276	8.95
320.488	8.76
320.699	8.85
320.911	8.83
321.123	9.32
321.334	9.41
321.546	8.93
321.757	8.22
321.969	8.28
322.18	8.11
322.392	7.81
322.603	7.73
322.815	7.6
323.026	7.14
323.238	7.04
323.449	6.95
323.661	7.2
323.872	6.69
324.083	6.58
324.295	7
324.506	7.47
324.718	7.25
324.929	7
325.14	7.05
325.352	7.28
325.563	7.23
325.774	7.69
325.986	7.89
326.197	8.18
326.408	8.26
326.62	8.47
326.831	8.76
327.042	9.1
327.253	9.27
327.464	9.34
327.676	9.86
327.887	9.79
328.098	9.79
328.309	9.78
328.52	10.03
328.732	9.93
328.943	9.69
329.154	9.74
329.365	9.65
329.576	9.92
329.787	9.55
329.998	9.29
330.209	9.21
330.42	9.27
330.631	9.48
330.842	9.41
331.053	9.28
331.264	8.98
331.475	8.95
331.686	8.84
331.897	8.75
332.108	8.85
332.319	8.67
332.53	8.93
332.741	9.22
332.952	8.78
333.163	8.61
333.374	8.34
333.585	8.46
333.795	8.45
334.006	8.65
334.217	8.78
334.428	8.95
334.639	8.73
334.849	8.34
335.06	7.98
335.271	7.96
335.482	7.65
335.692	8.02
335.903	8
336.114	8.32
336.325	8.39
336.535	8.7
336.746	8.61
336.957	8.75
337.167	8.79
337.378	9.25
337.589	9.29
337.799	9.74
338.01	9.51
338.22	9.32
338.431	9.41
338.642	9.36
338.852	9.33
339.063	9.19
339.273	9.21
339.484	9.18
339.694	9.18
339.905	8.91
340.115	8.62
340.326	8.65
340.536	8.32
340.746	8.46
340.957	8.86
341.167	8.72
341.378	8.58
341.588	8.26
341.799	8.13
342.009	8.09
342.219	8.14
342.43	7.74
342.64	7.8
342.85	7.84
343.061	7.79
343.271	7.83
343.481	7.7
343.691	7.56
343.902	7.54
344.112	7.68
344.322	7.81
344.532	7.97
344.743	7.77
344.953	7.73
345.163	7.88
345.373	7.82
345.583	7.8
345.793	7.86
346.004	8.1
346.214	8.52
346.424	8.43
346.634	8.6
346.844	8.53
347.054	8.63
347.264	8.63
347.474	8.54
347.684	8.27
347.894	8.48
348.104	8.66
348.314	8.72
348.524	8.65
348.734	8.77
348.944	8.42
349.154	8.58
349.364	8.6
349.574	8.73
349.784	8.59
349.994	8.69
350.204	8.85
350.413	8.98
350.623	8.91
350.833	8.73
351.043	8.44
351.253	8.56
351.463	8.06
351.672	8.15
351.882	8.12
352.092	7.85
352.302	7.75
352.511	7.63
352.721	7.29
352.931	7.3
353.141	7.29
353.35	7.06
353.56	7.13
353.77	7.17
353.979	7.24
354.189	7.31
354.399	7.01
354.608	7.1
354.818	7.27
355.027	7.12
355.237	7.23
355.447	7.26
355.656	7.05
355.866	7.04
356.075	7.01
356.285	7
356.494	6.99
356.704	6.99
356.913	7.19
357.123	7.33
357.332	7.27
357.542	7.05
357.751	7.11
357.96	7.33
358.17	7.32
358.379	7.33
358.589	7.46
358.798	7.39
359.007	7.4
359.217	7.12
359.426	7
359.635	6.81
359.845	6.92
360.054	6.79
360.263	6.83
360.472	6.76
360.682	6.64
360.891	6.62
361.1	6.83
361.309	6.81
361.519	6.91
361.728	6.94
361.937	7.07
362.146	7.11
362.355	7.25
362.564	7.01
362.774	6.91
362.983	6.71
363.192	6.74
363.401	6.68
363.61	6.87
363.819	6.72
364.028	6.46
364.237	6.5
364.446	6.47
364.655	6.72
364.864	6.74
365.073	6.69
365.282	6.69
365.491	6.99
365.7	7.35
365.909	7.12
366.118	7.08
366.327	6.98
366.536	6.83
366.745	6.9
366.954	6.9
367.162	6.56
367.371	6.58
367.58	6.51
367.789	6.38
367.998	6.25
368.207	6.2
368.415	6.27
368.624	6.57
368.833	6.82
369.042	6.66
369.25	6.78
369.459	6.93
369.668	6.7
369.877	6.97
370.085	6.92
370.294	6.99
370.503	7.21
370.711	7.54
370.92	7.72
371.129	7.69
371.337	7.77
371.546	7.58
371.754	7.67
371.963	7.66
372.171	7.6
372.38	7.52
372.589	7.44
372.797	7.19
373.006	7.1
373.214	7.09
373.423	6.84
373.631	6.52
373.84	6.46
374.048	6.36
374.256	6.29
374.465	6.35
374.673	6.27
374.882	6.16
375.09	6.5
375.298	6.44
375.507	6.45
375.715	6.3
375.923	6.02
376.132	6.12
376.34	6.17
376.548	6.02
376.757	6.11
376.965	6.11
377.173	5.98
377.381	6.06
377.59	6.11
377.798	5.73
378.006	5.62
378.214	5.6
378.423	5.64
378.631	5.75
378.839	5.72
379.047	5.67
379.255	5.64
379.463	5.44
379.671	5.59
379.879	5.48
380.088	5.48
380.296	5.51
380.504	5.75
380.712	5.75
380.92	5.69
381.128	5.71
381.336	5.56
381.544	5.5
381.752	5.73
381.96	5.68
382.168	5.76
382.376	5.5
382.584	5.61
382.791	5.8
382.999	5.73
383.207	5.76
383.415	5.9
383.623	5.98
383.831	6.11
384.039	6.19
384.247	6.13
384.454	5.84
384.662	6.02
384.87	5.9
385.078	5.94
385.285	6
385.493	5.72
385.701	5.75
385.909	5.79
386.116	5.69
386.324	5.73
386.532	5.63
386.739	5.71
386.947	5.62
387.155	5.65
387.362	5.57
387.57	5.74
387.778	5.87
387.985	5.56
388.193	5.75
388.4	5.68
388.608	5.64
388.816	5.77
389.023	5.82
389.231	5.8
389.438	5.61
389.646	5.7
389.853	5.73
390.061	5.65
390.268	5.54
390.475	5.4
390.683	5.61
390.89	5.35
391.098	5.16
391.305	5.13
391.512	5.16
391.72	5.14
391.927	5.07
392.135	4.96
392.342	4.92
392.549	4.83
392.756	4.75
392.964	4.69
393.171	4.67
393.378	4.59
393.586	4.64
393.793	4.79
394	4.79
394.207	4.49
394.414	4.43
394.622	4.45
394.829	4.53
395.036	4.77
395.243	4.9
395.45	4.84
395.657	4.85
395.864	4.87
396.072	4.95
396.279	4.98
396.486	4.93
396.693	4.88
396.9	5.21
397.107	5.15
397.314	5.21
397.521	5.27
397.728	5.04
397.935	4.89
398.142	5.06
398.349	5.16
398.556	5.21
398.763	5.08
398.97	5.06
399.177	5.13
399.383	5.22
399.59	5.04
399.797	5.17
400.004	5.13
400.211	5.11
400.418	5.05
400.625	4.98
400.831	4.92
401.038	4.81
401.245	4.71
401.452	4.66
401.658	4.76
401.865	4.65
402.072	4.52
402.279	4.5
402.485	4.28
402.692	4.18
402.899	4.3
403.105	4.24
403.312	4.25
403.519	4.24
403.725	4.23
403.932	4.31
404.138	4.36
404.345	4.29
404.552	4.41
404.758	4.32
404.965	4.31
405.171	4.42
405.378	4.5
405.584	4.43
405.791	4.5
405.997	4.55
406.204	4.69
406.41	4.6
406.617	4.48
406.823	4.33
407.029	4.35
407.236	4.28
407.442	4.36
407.649	4.32
407.855	4.25
408.061	4.28
408.268	4.21
408.474	4.26
408.68	4.36
408.887	4.33
409.093	4.3
409.299	4.3
409.505	4.39
409.712	4.3
409.918	4.24
410.124	4.27
410.33	4.29
410.537	4.29
410.743	4.18
410.949	4.13
411.155	4.13
411.361	4.01
411.567	3.73
411.773	3.81
411.98	3.86
412.186	3.95
412.392	3.82
412.598	3.85
412.804	3.85
413.01	3.84
413.216	3.79
413.422	3.86
413.628	3.94
413.834	3.84
414.04	3.76
414.246	4.04
414.452	4.1
414.658	3.98
414.864	3.9
415.07	4.08
415.275	4.15
415.481	4.18
415.687	4.09
415.893	4.11
416.099	4.1
416.305	4.13
416.511	4.13
416.716	4.27
416.922	4.2
417.128	4.25
417.334	4.36
417.539	4.38
417.745	4.36
417.951	4.36
418.157	4.36
418.362	4.41
418.568	4.47
418.774	4.4
418.979	4.31
419.185	4.3
419.391	4.28
419.596	4.27
419.802	4.21
420.008	4.23
420.213	4.18
420.419	4.15
420.624	4.12
420.83	4.04
421.035	4.02
421.241	3.98
421.446	4.02
421.652	4.06
421.857	4.06
422.063	3.97
422.268	3.91
422.474	3.86
422.679	3.86
422.885	3.93
423.09	3.91
423.295	3.9
423.501	3.97
423.706	3.95
423.911	3.94
424.117	3.87
424.322	3.87
424.527	3.91
424.733	3.89
424.938	3.87
425.143	3.94
425.349	3.86
425.554	3.88
425.759	3.88
425.964	3.89
426.169	3.83
426.375	3.81
426.58	3.79
426.785	3.93
426.99	3.87
427.195	3.82
427.4	3.86
427.605	3.97
427.811	4.02
428.016	4.07
428.221	3.9
428.426	3.89
428.631	3.86
428.836	3.9
429.041	3.87
429.246	3.94
429.451	3.87
429.656	3.78
429.861	3.79
430.066	3.75
430.271	3.71
430.476	3.56
430.681	3.55
430.886	3.69
431.09	3.7
431.295	3.69
431.5	3.63
431.705	3.72
431.91	3.63
432.115	3.67
432.32	3.8
432.524	3.79
432.729	3.85
432.934	3.84
433.139	3.9
433.343	3.87
433.548	3.71
433.753	3.77
433.958	3.69
434.162	3.68
434.367	3.71
434.572	3.8
434.776	3.82
434.981	3.68
435.186	3.71
435.39	3.67
435.595	3.63
435.799	3.65
436.004	3.62
436.209	3.73
436.413	3.64
436.618	3.68
436.822	3.72
437.027	3.67
437.231	3.6
437.436	3.56
437.64	3.74
437.845	3.8
438.049	3.82
438.253	3.9
438.458	3.87
438.662	3.89
438.867	3.82
439.071	3.79
439.275	3.82
439.48	3.83
439.684	3.8
439.888	3.82
440.093	3.86
440.297	3.8
440.501	3.69
440.706	3.73
440.91	3.75
441.114	3.79
441.318	3.77
441.523	3.84
441.727	3.94
441.931	3.96
442.135	3.93
442.339	3.97
442.543	3.99
442.748	3.97
442.952	3.94
443.156	3.98
443.36	3.95
443.564	3.92
443.768	3.82
443.972	3.9
444.176	3.89
444.38	3.85
444.584	3.8
444.788	3.82
444.992	3.81
445.196	3.78
445.4	3.69
445.604	3.73
445.808	3.74
446.012	3.69
446.216	3.62
446.42	3.68
446.624	3.58
446.828	3.58
447.032	3.58
447.235	3.62
447.439	3.6
447.643	3.58
447.847	3.6
448.051	3.67
448.254	3.61
448.458	3.54
448.662	3.56
448.866	3.61
449.069	3.54
449.273	3.51
449.477	3.43
449.681	3.38
449.884	3.39
450.088	3.39
450.292	3.39
450.495	3.4
450.699	3.39
450.902	3.46
451.106	3.53
451.31	3.55
451.513	3.52
451.717	3.63
451.92	3.71
452.124	3.71
452.327	3.71
452.531	3.74
452.734	3.76
452.938	3.83
453.141	3.77
453.345	3.77
453.548	3.67
453.752	3.7
453.955	3.54
454.158	3.57
454.362	3.49
454.565	3.53
454.769	3.63
454.972	3.7
455.175	3.68
455.379	3.54
455.582	3.53
455.785	3.64
455.988	3.65
456.192	3.62
456.395	3.61
456.598	3.76
456.801	3.76
457.005	3.74
457.208	3.65
457.411	3.67
457.614	3.71
457.817	3.64
458.021	3.71
458.224	3.72
458.427	3.67
458.63	3.68
458.833	3.69
459.036	3.73
459.239	3.7
459.442	3.77
459.645	3.82
459.848	3.88
460.051	3.91
460.254	3.84
460.457	3.88
460.66	3.94
460.863	3.91
461.066	3.91
461.269	3.9
461.472	3.91
461.675	3.78
461.878	3.81
462.081	3.77
462.284	3.65
462.486	3.61
462.689	3.42
462.892	3.43
463.095	3.45
463.298	3.44
463.5	3.5
463.703	3.42
463.906	3.48
464.109	3.49
464.311	3.58
464.514	3.61
464.717	3.61
464.92	3.69
465.122	3.7
465.325	3.8
465.528	3.81
465.73	3.72
465.933	3.72
466.135	3.68
466.338	3.75
466.541	3.66
466.743	3.58
466.946	3.48
467.148	3.4
467.351	3.34
467.553	3.34
467.756	3.31
467.958	3.31
468.161	3.34
468.363	3.41
468.566	3.36
468.768	3.28
468.971	3.26
469.173	3.3
469.375	3.38
469.578	3.51
469.78	3.53
469.983	3.47
470.185	3.47
470.387	3.51
470.59	3.55
470.792	3.53
470.994	3.45
471.196	3.45
471.399	3.5
471.601	3.49
471.803	3.42
472.005	3.53
472.208	3.39
472.41	3.45
472.612	3.53
472.814	3.55
473.016	3.57
473.218	3.51
473.421	3.53
473.623	3.58
473.825	3.62
474.027	3.64
474.229	3.7
474.431	3.82
474.633	3.8
474.835	3.89
475.037	3.91
475.239	3.96
475.441	3.98
475.643	3.97
475.845	3.98
476.047	3.98
476.249	4.01
476.451	4.06
476.653	4.08
476.855	4.02
477.057	3.93
477.258	3.88
477.46	3.93
477.662	3.84
477.864	3.79
478.066	3.73
478.268	3.76
478.469	3.77
478.671	3.77
478.873	3.81
479.075	3.76
479.276	3.71
479.478	3.75
479.68	3.8
479.882	3.82
480.083	3.8
480.285	3.81
480.487	3.79
480.688	3.88
480.89	3.84
481.091	3.86
481.293	3.86
481.495	3.82
481.696	3.82
481.898	3.81
482.099	3.82
482.301	3.81
482.502	3.8
482.704	3.78
482.905	3.79
483.107	3.79
483.308	3.74
483.51	3.72
483.711	3.72
483.913	3.7
484.114	3.69
484.315	3.7
484.517	3.73
484.718	3.71
484.92	3.71
485.121	3.74
485.322	3.74
485.524	3.76
485.725	3.78
485.926	3.8
486.127	3.8
486.329	3.8
486.53	3.78
486.731	3.79
486.932	3.79
487.134	3.76
487.335	3.77
487.536	3.76
487.737	3.75
487.938	3.75
488.139	3.74
488.341	3.71
488.542	3.69
488.743	3.74
488.944	3.77
489.145	3.86
489.346	3.85
489.547	3.88
489.748	3.92
489.949	3.93
490.15	3.94
490.351	3.93
490.552	3.93
490.753	3.91
490.954	3.94
491.155	3.97
491.356	3.93
491.557	3.88
491.758	3.8
491.959	3.78
492.159	3.73
492.36	3.71
492.561	3.71
492.762	3.69
492.963	3.67
493.164	3.66
493.364	3.7
493.565	3.73
493.766	3.69
493.967	3.69
494.167	3.73
494.368	3.78
494.569	3.87
494.769	3.89
494.97	3.92
495.171	3.92
495.371	4.01
495.572	3.99
495.773	4.05
495.973	4.08
496.174	4.04
496.375	4.1
496.575	4.15
496.776	4.14
496.976	4.21
497.177	4.19
497.377	4.25
497.578	4.24
497.778	4.24
497.979	4.21
498.179	4.29
498.38	4.3
498.58	4.34
498.78	4.4
498.981	4.41
499.181	4.37
499.382	4.43
499.582	4.39
499.782	4.3
499.983	4.26
500.183	4.22
500.383	4.18
500.584	4.21
500.784	4.2
500.984	4.15
501.184	4.09
501.385	4.08
501.585	4.11
501.785	4.14
501.985	4.22
502.185	4.24
502.386	4.29
502.586	4.32
502.786	4.42
502.986	4.58
503.186	4.58
503.386	4.52
503.586	4.62
503.786	4.7
503.987	4.71
504.187	4.65
504.387	4.67
504.587	4.65
504.787	4.71
504.987	4.74
505.187	4.75
505.387	4.72
505.587	4.69
505.786	4.64
505.986	4.66
506.186	4.61
506.386	4.61
506.586	4.6
506.786	4.67
506.986	4.71
507.186	4.64
507.386	4.6
507.585	4.59
507.785	4.66
507.985	4.7
508.185	4.67
508.384	4.72
508.584	4.78
508.784	4.77
508.984	4.76
509.183	4.78
509.383	4.76
509.583	4.83
509.782	4.92
509.982	5.04
510.182	5.08
510.381	5.04
510.581	5.07
510.781	5.14
510.98	5.18
511.18	5.21
511.379	5.23
511.579	5.29
511.778	5.42
511.978	5.46
512.177	5.48
512.377	5.47
512.576	5.41
512.776	5.46
512.975	5.52
513.175	5.52
513.374	5.55
513.573	5.59
513.773	5.66
513.972	5.68
514.172	5.65
514.371	5.66
514.57	5.69
514.77	5.65
514.969	5.68
515.168	5.73
515.367	5.79
515.567	5.8
515.766	5.87
515.965	5.91
516.164	5.95
516.364	5.88
516.563	5.96
516.762	6.04
516.961	6.04
517.16	6.07
517.359	6.11
517.559	6.13
517.758	6.12
517.957	6.15
518.156	6.14
518.355	6.12
518.554	6.08
518.753	6.12
518.952	6.22
519.151	6.24
519.35	6.2
519.549	6.26
519.748	6.32
519.947	6.36
520.146	6.34
520.345	6.44
520.544	6.5
520.743	6.55
520.942	6.59
521.141	6.68
521.339	6.62
521.538	6.59
521.737	6.6
521.936	6.73
522.135	6.73
522.333	6.71
522.532	6.75
522.731	6.86
522.93	6.82
523.129	6.83
523.327	6.84
523.526	6.86
523.725	6.91
523.923	7.02
524.122	7.05
524.321	7.08
524.519	7.07
524.718	7.03
524.917	7.05
525.115	7.03
525.314	7.05
525.512	7.11
525.711	7.1
525.909	7.11
526.108	7.16
526.306	7.18
526.505	7.15
526.703	7.19
526.902	7.21
527.1	7.22
527.299	7.24
527.497	7.26
527.696	7.27
527.894	7.23
528.092	7.25
528.291	7.28
528.489	7.29
528.688	7.28
528.886	7.27
529.084	7.3
529.283	7.31
529.481	7.31
529.679	7.34
529.877	7.39
530.076	7.49
530.274	7.55
530.472	7.69
530.67	7.7
530.869	7.77
531.067	7.8
531.265	7.88
531.463	7.93
531.661	7.96
531.859	7.98
532.057	8.02
532.255	8
532.454	8.01
532.652	7.96
532.85	7.94
533.048	7.93
533.246	7.95
533.444	7.96
533.642	7.99
533.84	8.02
534.038	8.01
534.236	8.1
534.434	8.14
534.632	8.17
534.83	8.19
535.027	8.21
535.225	8.26
535.423	8.34
535.621	8.38
535.819	8.44
536.017	8.47
536.215	8.5
536.412	8.5
536.61	8.54
536.808	8.53
537.006	8.56
537.203	8.64
537.401	8.74
537.599	8.8
537.797	8.83
537.994	8.9
538.192	8.89
538.39	8.92
538.587	8.93
538.785	8.97
538.983	9.04
539.18	9.06
539.378	9.08
539.575	9.1
539.773	9.1
539.97	9.08
540.168	9.13
540.366	9.16
540.563	9.17
540.761	9.16
540.958	9.21
541.155	9.22
541.353	9.23
541.55	9.2
541.748	9.22
541.945	9.24
542.143	9.3
542.34	9.36
542.537	9.48
542.735	9.54
542.932	9.62
543.129	9.66
543.327	9.79
543.524	9.81
543.721	9.89
543.919	10.03
544.116	10.14
544.313	10.25
544.51	10.31
544.708	10.33
544.905	10.29
545.102	10.28
545.299	10.32
545.496	10.31
545.693	10.35
545.891	10.37
546.088	10.36
546.285	10.41
546.482	10.42
546.679	10.46
546.876	10.52
547.073	10.62
547.27	10.63
547.467	10.78
547.664	10.81
547.861	10.85
548.058	10.91
548.255	11.05
548.452	11.13
548.649	11.22
548.846	11.26
549.043	11.38
549.24	11.41
549.437	11.4
549.633	11.39
549.83	11.41
550.027	11.42
550.224	11.52
550.421	11.58
550.618	11.68
550.814	11.63
551.011	11.63
551.208	11.69
551.405	11.79
551.601	11.83
551.798	11.91
551.995	11.95
552.191	12
552.388	12.07
552.585	12.09
552.781	12.15
552.978	12.2
553.175	12.3
553.371	12.33
553.568	12.55
553.764	12.63
553.961	12.58
554.157	12.52
554.354	12.61
554.55	12.73
554.747	12.75
554.943	12.84
555.14	12.94
555.336	12.93
555.533	12.94
555.729	12.98
555.926	13.09
556.122	13.05
556.318	13.09
556.515	13.15
556.711	13.19
556.907	13.26
557.104	13.28
557.3	13.32
557.496	13.48
557.693	13.53
557.889	13.72
558.085	13.73
558.281	13.71
558.478	13.71
558.674	13.83
558.87	13.9
559.066	14.04
559.262	14.19
559.459	14.18
559.655	14.28
559.851	14.36
560.047	14.29
560.243	14.42
560.439	14.41
560.635	14.63
560.831	14.72
561.027	14.83
561.223	14.85
561.419	14.98
561.615	15
561.811	15.08
562.007	15.2
562.203	15.3
562.399	15.35
562.595	15.43
562.791	15.48
562.987	15.58
563.183	15.55
563.379	15.74
563.575	15.81
563.771	15.92
563.966	15.93
564.162	16.04
564.358	16.15
564.554	16.24
564.75	16.28
564.945	16.32
565.141	16.42
565.337	16.48
565.533	16.52
565.728	16.61
565.924	16.57
566.12	16.58
566.315	16.68
566.511	16.78
566.707	16.81
566.902	16.81
567.098	16.82
567.293	16.87
567.489	16.97
567.684	17.06
567.88	17.1
568.076	17.11
568.271	17.21
568.467	17.25
568.662	17.36
568.858	17.32
569.053	17.28
569.248	17.4
569.444	17.48
569.639	17.59
569.835	17.66
570.03	17.73
570.225	17.81
570.421	17.84
570.616	17.96
570.812	17.95
571.007	18.1
571.202	18.23
571.397	18.36
571.593	18.47
571.788	18.42
571.983	18.45
572.178	18.56
572.374	18.56
572.569	18.77
572.764	18.8
572.959	18.9
573.154	18.92
573.35	18.99
573.545	18.94
573.74	18.95
573.935	18.92
574.13	18.91
574.325	19.04
574.52	19.14
574.715	19.07
574.91	19.18
575.105	19.09
575.3	19.11
575.495	19.15
575.69	19.27
575.885	19.35
576.08	19.44
576.275	19.49
576.47	19.5
576.665	19.63
576.86	19.77
577.055	19.73
577.25	19.81
577.444	19.82
577.639	19.85
577.834	19.92
578.029	19.91
578.224	19.9
578.418	19.96
578.613	19.96
578.808	19.89
579.003	20.02
579.197	20.04
579.392	19.94
579.587	20.12
579.781	20.19
579.976	20.26
580.171	20.27
580.365	20.34
580.56	20.41
580.755	20.43
580.949	20.4
581.144	20.55
581.338	20.67
581.533	20.65
581.727	20.6
581.922	20.69
582.116	20.66
582.311	20.75
582.505	20.78
582.7	20.91
582.894	20.92
583.089	20.93
583.283	20.93
583.478	20.97
583.672	20.99
583.866	21.11
584.061	21.34
584.255	21.45
584.449	21.57
584.644	21.52
584.838	21.54
585.032	21.49
585.226	21.5
585.421	21.56
585.615	21.57
585.809	21.63
586.003	21.65
586.198	21.65
586.392	21.54
586.586	21.45
586.78	21.58
586.974	21.52
587.168	21.64
587.363	21.69
587.557	21.68
587.751	21.7
587.945	21.74
588.139	21.82
588.333	21.95
588.527	21.96
588.721	22.04
588.915	22.16
589.109	22.17
589.303	22.13
589.497	22.26
589.691	22.34
589.885	22.33
590.079	22.34
590.273	22.31
590.466	22.27
590.66	22.3
590.854	22.23
591.048	22.24
591.242	22.17
591.436	22.04
591.629	22.1
591.823	22.09
592.017	22.05
592.211	21.89
592.404	21.86
592.598	21.97
592.792	22.07
592.986	22.18
593.179	22.25
593.373	22.29
593.567	22.35
593.76	22.42
593.954	22.6
594.147	22.56
594.341	22.63
594.535	22.68
594.728	22.82
594.922	22.86
595.115	22.94
595.309	23.02
595.502	23
595.696	23.01
595.889	23.01
596.083	23.12
596.276	23.12
596.47	23.05
596.663	23.15
596.856	23.24
597.05	23.23
597.243	23.15
597.437	23.1
597.63	23.17
597.823	23.1
598.017	23.21
598.21	23.23
598.403	23.33
598.596	23.28
598.79	23.38
598.983	23.4
599.176	23.46
599.369	23.27
599.563	23.31
599.756	23.42
599.949	23.53
600.142	23.5
600.335	23.43
600.528	23.33
600.722	23.25
600.915	23.36
601.108	23.38
601.301	23.41
601.494	23.53
601.687	23.54
601.88	23.68
602.073	23.61
602.266	23.69
602.459	23.79
602.652	23.81
602.845	23.84
603.038	23.86
603.231	23.88
603.424	23.8
603.617	23.84
603.809	23.86
604.002	23.89
604.195	23.83
604.388	23.79
604.581	23.88
604.774	23.84
604.966	23.7
605.159	23.63
605.352	23.78
605.545	23.84
605.737	23.86
605.93	23.87
606.123	23.72
606.316	23.67
606.508	23.63
606.701	23.7
606.894	23.83
607.086	23.94
607.279	23.97
607.471	24.12
607.664	24.18
607.857	23.9
608.049	23.9
608.242	23.9
608.434	23.91
608.627	24.04
608.819	24.12
609.012	24.09
609.204	24.07
609.397	23.99
609.589	23.92
609.782	23.91
609.974	23.83
610.166	23.7
610.359	23.96
610.551	24.16
610.743	24.18
610.936	24.2
611.128	24.14
611.32	24.04
611.513	23.99
611.705	23.97
611.897	24.09
612.09	24.05
612.282	24.16
612.474	24.28
612.666	24.54
612.858	24.53
613.051	24.2
613.243	24.34
613.435	24.41
613.627	24.56
613.819	24.68
614.011	24.84
614.203	24.82
614.395	24.69
614.588	24.81
614.78	24.75
614.972	24.73
615.164	24.67
615.356	24.66
615.548	24.76
615.74	24.78
615.932	24.83
616.124	24.84
616.315	24.89
616.507	24.82
616.699	25.01
616.891	25.05
617.083	24.94
617.275	25.03
617.467	25.1
617.659	25.1
617.85	25.15
618.042	25.26
618.234	25.03
618.426	24.96
618.618	24.97
618.809	24.86
619.001	25.07
619.193	25.06
619.384	25.03
619.576	25.08
619.768	24.9
619.959	24.77
620.151	24.79
620.343	24.84
620.534	24.87
620.726	25.05
620.917	25.15
621.109	24.99
621.301	24.95
621.492	24.88
621.684	24.79
621.875	24.82
622.067	24.99
622.258	25.26
622.45	25.43
622.641	25.61
622.832	25.57
623.024	25.41
623.215	25.54
623.407	25.54
623.598	25.57
623.789	25.76
623.981	25.71
624.172	25.71
624.363	25.8
624.555	25.63
624.746	25.46
624.937	25.48
625.129	25.39
625.32	25.31
625.511	25.31
625.702	25.25
625.893	25.21
626.085	25.32
626.276	25.16
626.467	25.15
626.658	25.31
626.849	25.33
627.04	25.36
627.231	25.46
627.422	25.55
627.614	25.58
627.805	25.68
627.996	25.81
628.187	25.88
628.378	25.97
628.569	25.97
628.76	26.23
628.951	26.11
629.142	26.13
629.332	26.13
629.523	26.12
629.714	26.07
629.905	25.79
630.096	25.76
630.287	25.62
630.478	25.59
630.669	25.44
630.859	25.39
631.05	25.37
631.241	25.23
631.432	25.4
631.623	25.33
631.813	25.16
632.004	25.35
632.195	25.36
632.385	25.53
632.576	25.51
632.767	25.63
632.957	25.54
633.148	25.64
633.339	25.58
633.529	25.54
633.72	25.54
633.91	25.53
634.101	25.45
634.292	25.61
634.482	25.54
634.673	25.49
634.863	25.43
635.054	25.46
635.244	25.43
635.435	25.61
635.625	25.56
635.815	25.6
636.006	25.73
636.196	25.9
636.387	25.94
636.577	25.93
636.767	25.95
636.958	25.98
637.148	26.07
637.338	25.98
637.529	25.91
637.719	25.8
637.909	25.64
638.099	25.73
638.29	25.68
638.48	25.69
638.67	25.58
638.86	25.45
639.05	25.42
639.241	25.42
639.431	25.15
639.621	25.25
639.811	25.35
640.001	25.48
640.191	25.6
640.381	25.78
640.571	25.68
640.761	25.72
640.951	25.66
641.141	25.52
641.331	25.69
641.521	25.72
641.711	25.76
641.901	25.98
642.091	25.81
642.281	25.81
642.471	25.8
642.661	25.94
642.851	25.91
643.041	26.12
643.231	26.11
643.42	26.17
643.61	26.14
643.8	26.05
643.99	26.11
644.18	26
644.369	26.14
644.559	26.18
644.749	26.21
644.939	26.28
645.128	26.12
645.318	26.06
645.508	26.11
645.697	26.23
645.887	26.35
646.076	26.53
646.266	26.83
646.456	27.13
646.645	27.24
646.835	27.21
647.024	27.37
647.214	27.44
647.403	27.38
647.593	27.5
647.782	27.52
647.972	27.52
648.161	27.51
648.351	27.35
648.54	27.37
648.73	27.04
648.919	26.73
649.108	26.62
649.298	26.51
649.487	26.49
649.677	26.47
649.866	26.53
650.055	26.48
650.244	26.46
650.434	26.45
650.623	26.47
650.812	26.62
651.002	26.57
651.191	26.86
651.38	26.91
651.569	27.2
651.758	27.14
651.947	27.16
652.137	27.22
652.326	27.17
652.515	27.34
652.704	27.35
652.893	27.19
653.082	27.1
653.271	27
653.46	26.98
653.649	26.87
653.838	27.01
654.027	26.83
654.216	27.02
654.405	26.96
654.594	26.96
654.783	26.91
654.972	26.87
655.161	26.77
655.35	26.87
655.539	26.99
655.728	27.05
655.916	27.04
656.105	27.12
656.294	27.12
656.483	27.34
656.672	27.28
656.86	27.17
657.049	27.14
657.238	27.18
657.427	27.21
657.615	27.42
657.804	27.42
657.993	27.48
658.181	27.38
658.37	27.34
658.559	27.27
658.747	27.06
658.936	27
659.125	26.98
659.313	26.9
659.502	26.96
659.69	26.99
659.879	26.83
660.067	26.81
660.256	26.79
660.444	26.56
660.633	26.69
660.821	26.68
661.01	26.46
661.198	26.53
661.387	26.24
661.575	26.28
661.763	26.54
661.952	26.52
662.14	26.46
662.328	26.68
662.517	26.7
662.705	26.65
662.893	26.74
663.082	26.6
663.27	26.83
663.458	27.1
663.646	27.16
663.834	27.42
664.023	27.52
664.211	27.42
664.399	27.2
664.587	27.18
664.775	27.16
664.963	27.2
665.152	27.37
665.34	27.37
665.528	27.62
665.716	27.49
665.904	27.6
666.092	27.78
666.28	27.73
666.468	27.61
666.656	27.73
666.844	27.97
667.032	28.05
667.22	28.11
667.408	27.79
667.596	27.6
667.784	27.59
667.971	27.5
668.159	27.52
668.347	27.32
668.535	27.14
668.723	27.12
668.911	27.34
669.098	27.17
669.286	27.18
669.474	27.22
669.662	27.03
669.849	27.39
670.037	27.62
670.225	27.8
670.413	27.91
670.6	27.87
670.788	27.96
670.976	28.05
671.163	28.07
671.351	27.92
671.538	27.96
671.726	28.01
671.913	28
672.101	27.95
672.289	27.7
672.476	27.68
672.664	27.82
672.851	27.74
673.039	27.97
673.226	28.19
673.413	28.26
673.601	28.16
673.788	28.25
673.976	28.27
674.163	28.14
674.35	28.04
674.538	28.05
674.725	28.06
674.912	27.93
675.1	27.65
675.287	27.65
675.474	27.53
675.662	27.32
675.849	27.37
676.036	27.35
676.223	27.07
676.411	27.24
676.598	27.3
676.785	27.35
676.972	27.49
677.159	27.6
677.346	27.42
677.533	27.47
677.721	27.39
677.908	27.5
678.095	27.74
678.282	27.51
678.469	27.51
678.656	27.56
678.843	27.76
679.03	27.68
679.217	27.6
679.404	27.62
679.591	27.74
679.778	27.95
679.964	28.04
680.151	28.05
680.338	28.08
680.525	27.89
680.712	28.09
680.899	28.11
681.086	28.16
681.272	27.89
681.459	28.2
681.646	28.31
681.833	28.44
682.02	28.29
682.206	28.2
682.393	27.98
682.58	27.99
682.766	27.98
682.953	28.12
683.14	28.14
683.326	28.3
683.513	28.36
683.7	28.36
683.886	28.1
684.073	28.18
684.259	27.96
684.446	28.01
684.632	27.98
684.819	28.19
685.005	28.27
685.192	28.17
685.378	28.14
685.565	28.19
685.751	28.1
685.938	28.09
686.124	28.28
686.31	28.58
686.497	28.62
686.683	28.59
686.87	28.54
687.056	28.74
687.242	28.53
687.429	28.52
687.615	28.59
687.801	28.61
687.987	28.46
688.174	28.56
688.36	28.71
688.546	28.42
688.732	28.2
688.918	28.15
689.105	28.18
689.291	28.27
689.477	28.24
689.663	28.37
689.849	28.25
690.035	28.21
690.221	27.92
690.407	28.06
690.593	28.1
690.779	28.07
690.965	28.31
691.151	28.24
691.337	28.27
691.523	28.49
691.709	28.39
691.895	28.64
692.081	28.61
692.267	28.95
692.453	28.93
692.639	29.16
692.825	28.92
693.011	28.91
693.196	28.79
693.382	28.84
693.568	28.81
693.754	28.69
693.94	28.63
694.125	28.6
694.311	28.3
694.497	28.56
694.682	28.36
694.868	28.26
695.054	28.18
695.239	28.26
695.425	28.18
695.611	28.28
695.796	28.01
695.982	28.18
696.168	28.33
696.353	28.42
696.539	28.63
696.724	28.66
696.91	28.43
697.095	28.4
697.281	28.45
697.466	28.45
697.652	28.5
697.837	28.57
698.023	28.56
698.208	28.91
698.393	28.9
698.579	28.63
698.764	28.69
698.949	28.7
699.135	28.66
699.32	28.82
699.505	28.85
699.691	28.99
699.876	29.02
700.061	28.99
700.246	29.13
700.432	29.11
700.617	28.62
700.802	28.42
700.987	29.11
701.172	28.74
701.358	28.53
701.543	28.26
701.728	27.96
701.913	27.73
702.098	27.52
702.283	27.35
702.468	27.34
702.653	26.94
702.838	26.76
703.023	26.81
703.208	26.91
703.393	26.19
703.578	26.34
703.763	26.13
703.948	26.63
704.133	26.72
704.318	26.69
704.503	26.87
704.688	27.07
704.873	27.09
705.057	27.45
705.242	27.47
705.427	27.6
705.612	27.68
705.797	27.9
705.981	27.99
706.166	28.39
706.351	28.08
706.536	28.1
706.72	28.13
706.905	27.96
707.09	28.04
707.274	27.95
707.459	27.99
707.644	28.33
707.828	28.35
708.013	28.22
708.197	28.49
708.382	28.4
708.567	28.24
708.751	28.16
708.936	28.05
709.12	28.49
709.305	28.31
709.489	28.45
709.673	28.61
709.858	28.45
710.042	28.18
710.227	28.37
710.411	28.56
710.596	28.39
710.78	28.26
710.964	28.45
711.149	28.53
711.333	28.87
711.517	28.92
711.702	29.13
711.886	29.14
712.07	28.95
712.254	28.76
712.438	28.57
712.623	28.43
712.807	28.35
712.991	28.27
713.175	28.45
713.359	28.27
713.544	28.49
713.728	28.75
713.912	28.68
714.096	28.57
714.28	28.32
714.464	28.5
714.648	28.64
714.832	28.75
715.016	28.78
715.2	28.74
715.384	28.65
715.568	28.59
715.752	28.72
715.936	28.52
716.12	28.47
716.304	28.5
716.488	28.42
716.671	28.62
716.855	28.78
717.039	28.95
717.223	28.72
717.407	28.56
717.59	28.64
717.774	28.77
717.958	28.95
718.142	28.69
718.325	28.8
718.509	28.91
718.693	29.15
718.877	29.32
719.06	28.81
719.244	28.54
719.428	28.13
719.611	28.74
719.795	28.92
719.978	28.95
720.162	28.91
720.345	28.63
720.529	28.82
720.713	28.84
720.896	28.76
721.08	28.59
721.263	28.71
721.446	29.26
721.63	29.14
721.813	29.36
721.997	29.27
722.18	29.24
722.364	28.97
722.547	29.2
722.73	29.42
722.914	29.55
723.097	29.48
723.28	28.99
723.464	28.79
723.647	28.78
723.83	28.64
724.013	28.65
724.197	28.78
724.38	28.88
724.563	28.98
724.746	29.47
724.929	29.44
725.112	29.09
725.296	29.18
725.479	29.2
725.662	28.97
725.845	28.72
726.028	28.6
726.211	28.82
726.394	29.32
726.577	29.48
726.76	29.45
726.943	29.61
727.126	29.02
727.309	29.13
727.492	29.24
727.675	29.04
727.858	29.19
728.041	29.54
728.224	29.85
728.407	29.73
728.589	29.51
728.772	29.42
728.955	29.16
729.138	29.39
729.321	29.22
729.503	29.69
729.686	29.43
729.869	29.51
730.052	29.24
730.234	29.06
730.417	29.04
730.6	28.7
730.782	28.89
730.965	29.14
731.148	28.92
731.33	28.66
731.513	28.15
731.695	28.07
731.878	28.04
732.061	28.04
732.243	28.21
732.426	28.67
732.608	28.5
732.791	28.47
732.973	28.68
733.156	28.75
733.338	28.65
733.52	28.24
733.703	28.43
733.885	28.97
734.068	28.82
734.25	28.81
734.432	28.99
734.615	28.78
734.797	28.72
734.979	29.22
735.162	29.03
735.344	29.27
735.526	29.36
735.708	29.41
735.891	29.71
736.073	29.33
736.255	29
736.437	29.3
736.619	28.74
736.802	28.37
736.984	28.51
737.166	28.24
737.348	27.95
737.53	28.5
737.712	28.04
737.894	28.06
738.076	27.46
738.258	27.85
738.44	28.36
738.622	28.36
738.804	28.42
738.986	28.66
739.168	29.19
739.35	29.06
739.532	29.4
739.714	29.18
739.896	28.81
740.078	29.13
740.259	28.79
740.441	29.24
740.623	28.68
740.805	28.64
740.987	28.21
741.168	28.27
741.35	28.38
741.532	27.66
741.714	27.82
741.895	27.86
742.077	28.19
742.259	27.92
742.44	27.82
742.622	27.74
742.804	27.35
742.985	27.84
743.167	28.23
743.348	28.63
743.53	28.28
743.711	28.44
743.893	29.05
744.075	28.78
744.256	28.65
744.438	28.86
744.619	29.24
744.8	28.86
744.982	29.05
745.163	29.11
745.345	28.82
745.526	28.71
745.707	28.94
745.889	29.29
746.07	29.02
746.252	29.04
746.433	28.59
746.614	28.61
746.795	28.32
746.977	28.53
747.158	28.93
747.339	28.88
747.52	29.38
747.702	29.46
747.883	29.47
748.064	29.31
748.245	29.47
748.426	29.71
748.607	29.62
748.788	30.29
748.97	29.73
749.151	29.59
749.332	29.58
749.513	29.6
749.694	29.63
749.875	28.85
750.056	28.74
750.237	28.26
750.418	27.81
750.599	27.5
750.78	27.23
750.96	27.19
751.141	26.42
751.322	27.32
751.503	27.47
751.684	27.37
751.865	27.12
752.046	26.96
752.226	27.28
752.407	27.9
752.588	27.91
752.769	27.91
752.949	27.71
753.13	28.29
753.311	28.16
753.492	29.09
753.672	28.44
753.853	28.72
754.034	28.53
754.214	28.47
754.395	28.57
754.575	28.65
754.756	28.1
754.937	28.27
755.117	28.66
755.298	29.29
755.478	27.77
755.659	27.85
755.839	27.38
756.02	27.53
756.2	27.2
756.381	27.35
756.561	27.49
756.741	28.19
756.922	28.74
757.102	28.57
757.283	28.66
757.463	28.56
757.643	28.13
757.823	29.08
758.004	29.08
758.184	29.48
758.364	29.55
758.545	29.16
758.725	29.31
758.905	29.27
759.085	28.51
759.265	28.1
759.446	27.6
759.626	27.4
759.806	27.09
759.986	26.72
760.166	27.18
760.346	27
760.526	26.78
760.706	26.7
760.886	26.93
761.066	27.18
761.246	27.17
761.426	27.1
761.606	26.94
761.786	27.01
761.966	27.17
762.146	27.45
762.326	28.07
762.506	27.79
762.686	28.1
762.866	28.28
763.046	28.13
763.225	28.3
763.405	27.78
763.585	27.8
763.765	28.28
763.945	28.44
764.124	29.2
764.304	29.31
764.484	29.2
764.664	28.86
764.843	28.88
765.023	28.73
765.203	28.31
765.382	28.47
765.562	28.54
765.741	28.82
765.921	28.98
766.101	28.98
766.28	28.92
766.46	28.6
766.639	28.23
766.819	28.52
766.998	28.45
767.178	28.94
767.357	28.82
767.537	29.11
767.716	29.23
767.896	29.75
768.075	29.47
768.254	29.72
768.434	29.85
768.613	29.81
768.792	29.58
768.972	29.56
769.151	29.51
769.33	30.22
769.51	29.45
769.689	29.51
769.868	29.77
770.047	29.8
770.226	29.13
770.406	29.65
770.585	29.34
770.764	28.91
770.943	28.77
771.122	29.22
771.301	29.34
771.48	29.01
771.66	28.39
771.839	28.36
772.018	28.8
772.197	28.75
772.376	28.32
772.555	28.67
772.734	27.96
772.913	28.3
773.092	28.54
773.271	29.28
773.449	29.3
773.628	29.53
773.807	29.95
773.986	29.76
774.165	30
774.344	29.17
774.523	29.27
774.701	29.6
774.88	28.93
775.059	29.07
775.238	28.13
775.417	27.12
775.595	26.56
775.774	25.97
775.953	26.12
776.131	26.01
776.31	26.24
776.489	26.47
776.667	26.25
776.846	25.99
777.025	25.54
777.203	25.8
777.382	26.6
777.56	27.07
777.739	27.81
777.917	27.98
778.096	29.3
778.274	29.37
778.453	29.68
778.631	29.31
778.81	29.62
778.988	30.24
779.166	30.43
779.345	30.92
779.523	30.83
779.702	30.36
779.88	29.76
780.058	29.47
780.237	30.27
780.415	29.66
780.593	29.35
780.771	30.13
780.95	30.63
781.128	29.96
781.306	30.36
781.484	29.83
781.662	29.59
781.841	29.86
782.019	29.57
782.197	29.34
782.375	28.79
782.553	27.33
782.731	26.51
782.909	27.16
783.087	26.22
783.265	26.46
783.443	26.67
783.621	26.65
783.799	26.8
783.977	27.23
784.155	27.06
784.333	27.05
784.511	27.43
784.689	28.69
784.867	28.51
785.045	28.85
785.223	28.58
785.4	28.16
785.578	27.83
785.756	27.91
785.934	27.68
786.112	26.83
786.289	26.11
786.467	26.06
786.645	26.33
786.823	26.88
787	26.74
787.178	27.29
787.356	27.14
787.533	27.3
787.711	27.87
787.889	27.67
788.066	27.11
788.244	27.42
788.421	28.4
788.599	28.88
788.776	28.79
788.954	28.86
789.131	29.45
789.309	29.2
789.486	29.52
789.664	30.02
789.841	29.63
790.019	29.28
790.196	29.56
790.373	30.66
790.551	29.98
790.728	30.1
790.906	30.46
791.083	31.65
791.26	31.65
791.437	31.54
791.615	31.49
791.792	32.14
791.969	32.01
792.146	32.81
792.324	33.48
792.501	33.02
792.678	32.11
792.855	32.6
793.032	32
793.209	31.91
793.387	30.38
793.564	30.57
793.741	29.76
793.918	29.93
794.095	28.95
794.272	28.98
794.449	27.76
794.626	27.93
794.803	29.34
794.98	29.48
795.157	29.43
795.334	30.09
795.511	29.48
795.688	28.97
795.864	28.74
796.041	29.31
796.218	29.34
796.395	30.41
796.572	29.94
796.749	30.13
796.925	29.93
797.102	28.74
797.279	29.37
797.456	29
797.632	28.49
797.809	28.87
797.986	30.41
798.162	30.34
798.339	29.42
798.516	29.51
798.692	28.91
798.869	29.01
799.046	29.92
799.222	29.51
799.399	29.53
799.575	29.37
799.752	30.5
799.928	30.79
800.105	30.21
800.281	29.67
800.458	29.98
800.634	30.44
800.811	30.3
800.987	30.33
801.163	30.49
801.34	29.52
801.516	29.55
801.692	29.79
801.869	28.78
802.045	27.83
802.221	28.44
802.398	28.98
802.574	29.67
802.75	29.24
802.926	29.76
803.103	29.47
803.279	29.46
803.455	30.09
803.631	30.13
803.807	29.27
803.983	28.45
804.16	29.58
804.336	28.77
804.512	27.94
804.688	27.69
804.864	26.54
805.04	27.53
805.216	27.77
805.392	28.23
805.568	28.06
805.744	27.8
805.92	27.38
806.096	28.39
806.272	29.55
806.448	29.36
806.623	29.14
806.799	29.67
806.975	30.41
807.151	30.84
807.327	29.85
807.503	28.32
807.678	28.64
807.854	27.96
808.03	28.12
808.206	28.03
808.381	27.75
808.557	27.4
808.733	26.74
808.908	28.01
809.084	27.82
809.26	27.79
809.435	26.64
809.611	27.14
809.787	28.63
809.962	27.85
810.138	28.66
810.313	28.76
810.489	29.78
810.664	29.7
810.84	28.72
811.015	30.28
811.191	30.79
811.366	31.13
811.542	30.59
811.717	33.02
811.892	32.29
812.068	32.36
812.243	33.71
812.419	33.31
812.594	33.73
812.769	33.82
812.944	34.12
813.12	35.6
813.295	35.3
813.47	35.29
813.645	35.24
813.821	36.26
813.996	35.59
814.171	36.22
814.346	36.18
814.521	35.28
814.697	35.28
814.872	33.46
815.047	32.99
815.222	32.51
815.397	31.16
815.572	30.34
815.747	30.83
815.922	30.98
816.097	30.09
816.272	29.8
816.447	30.7
816.622	29.8
816.797	29.38
816.972	29.38
817.147	30.45
817.322	30.5
817.496	30.78
817.671	31.09
817.846	31.07
818.021	29.89
818.196	29.93
818.371	30.19
818.545	30.17
818.72	29.3
818.895	29.39
819.069	29.58
819.244	28.81
819.419	28.42
819.594	28.6
819.768	28
819.943	28.21
820.117	28.49
820.292	28.41
820.467	28.03
820.641	27.91
820.816	27.68
820.99	27.88
821.165	28.08
821.339	28.35
821.514	28.77
821.688	28.82
821.863	28.98
822.037	29.26
822.212	29.36
822.386	29.16
822.56	29.29
822.735	29.12
822.909	29
823.084	29.4
823.258	29.18
823.432	28.96
823.606	28.91
823.781	28.95
823.955	28.79
824.129	28.6
824.303	28.55
824.478	28.47
824.652	28.39
824.826	28.36
825	28.8
825.174	28.89
825.348	28.18
825.523	28.31
825.697	28.95
825.871	29.06
826.045	29.02
826.219	29.62
826.393	29.63
826.567	29.76
826.741	29.61
826.915	29.82
827.089	29.63
827.263	29.83
827.437	29.75
827.611	30.46
827.784	30.76
827.958	30.49
828.132	30.02
828.306	29.83
828.48	29.31
828.654	29.55
828.827	29.13
829.001	29.39
829.175	29.79
829.349	30.09
829.522	29.9
829.696	30.58
829.87	30.05
830.044	30.66
830.217	30.76
830.391	30.96
830.565	30.17
830.738	31.28
830.912	30.24
831.085	30.77
831.259	31.23
831.432	30.92
831.606	31.08
831.779	31
831.953	30.81
832.126	30.43
832.3	29.29
832.473	28.78
832.647	29.33
832.82	30.19
832.994	29.52
833.167	30.09
833.34	30.44
833.514	29.74
833.687	29.77
833.86	29.75
834.034	28.97
834.207	29.01
834.38	29.08
834.553	29.39
834.727	29.21
834.9	29.28
835.073	29.53
835.246	29.97
835.419	30.21
835.593	29.12
835.766	29.72
835.939	29.34
836.112	29.35
836.285	30.6
836.458	30.21
836.631	30.91
836.804	29.98
836.977	30.27
837.15	29.65
837.323	29.69
837.496	28.23
837.669	27.56
837.842	27.57
838.015	27.58
838.188	27.56
838.361	27.84
838.533	26.72
838.706	27.78
838.879	27.64
839.052	29.64
839.225	30.25
839.398	30.15
839.57	29.3
839.743	29.57
839.916	29.76
840.088	30.15
840.261	29.14
840.434	30.17
840.607	29.78
840.779	30.27
840.952	30.96
841.124	30.76
841.297	29.41
841.47	30.09
841.642	30.05
841.815	31.29
841.987	31.97
842.16	32.35
842.332	33.82
842.505	34.87
842.677	34.54
842.85	35
843.022	35.46
843.194	33.36
843.367	35.91
843.539	39.67
843.712	39.23
843.884	40.75
844.056	39.32
844.229	39.97
844.401	39.28
844.573	38.07
844.745	36.92
844.918	35.82
845.09	35.88
845.262	35.38
845.434	35.88
845.606	33.08
845.779	28.78
845.951	30.13
846.123	28.75
846.295	28.66
846.467	27.36
846.639	27.4
846.811	27.78
846.983	29.48
847.155	31.2
847.327	29.81
847.499	30.72
847.671	30.7
847.843	29.42
848.015	28.26
848.187	26.43
848.359	26.42
848.531	29.41
848.703	29.53
848.875	27.87
849.047	29.71
849.218	29.34
849.39	28.21
849.562	25.32
849.734	24.4
849.905	25.45
850.077	27.71
850.249	29.7
850.421	32.5
850.592	31.77
850.764	28.17
850.936	29
851.107	28.87
851.279	28.23
851.451	25.47
851.622	25.53
851.794	32.51
851.965	32.96
852.137	35.17
852.308	35.24
852.48	36.58
852.651	33.38
852.823	31.93
852.994	32.75
853.166	34.3
853.337	37.35
853.509	36.29
853.68	40.35
853.851	41.15
854.023	37.61
854.194	37.25
854.365	35.45
854.537	34.95
854.708	32.08
854.879	32.42
855.05	33.14
855.222	30.87
855.393	28.61
855.564	31
855.735	31.23
855.906	31.14
856.078	28.69
856.249	29.09
856.42	32.5
856.591	30.92
856.762	29.78
856.933	32.63
857.104	35.82
857.275	37.3
857.446	39.04
857.617	38.47
857.788	33.87
857.959	34.29
858.13	33.1
858.301	33.25
858.472	31.79
858.643	30.48
858.814	32.48
858.985	32.8
859.155	33.23
859.326	28.56
859.497	30.52
859.668	30.01
859.839	29.03
860.009	31.99
860.18	30.94
860.351	35.25
860.522	34.87
860.692	36.32
860.863	39.72
861.034	35.58
861.204	33.1
861.375	29.53
861.546	32.64
861.716	32.36
861.887	33.99
862.057	35.56
862.228	33.03
862.398	31.31
862.569	30.17
862.739	31.29
862.91	30.35
863.08	24.69
863.251	25.01
863.421	24.81
863.592	28.49
863.762	25.32
863.932	25.27
864.103	25.53
864.273	24.85
864.443	23.38
864.614	20.82
864.784	16.3
864.954	17.29
865.125	12.6
865.295	14.94
865.465	16.4
865.635	18.3
865.805	17.54
865.976	24.13
866.146	22.6
866.316	19.33
866.486	18.85
866.656	18.67
866.826	21.9
866.996	26.62
867.166	27.57
867.336	33.21
867.506	30.46
867.676	31.35
867.846	31.5
868.016	31.91
868.186	28.32
868.356	30.48
868.526	32.32
868.696	35.7
868.866	36.63
869.036	37.33
869.206	34.65
869.376	33.49
869.545	30.56
869.715	36.67
869.885	38.12
870.055	38.76
870.224	41.03
870.394	43.57
870.564	38.02
870.734	39.07
870.903	36.74
871.073	42.44
871.243	44.95
871.412	44.94
871.582	47.58
871.751	48.23
871.921	39.1
872.091	36.47
872.26	34.61
872.43	30.52
872.599	30.88
872.769	38.8
872.938	39.26
873.108	38.01
873.277	31.25
873.446	28.34
873.616	30.06
873.785	28.42
873.955	30.14
874.124	35.77
874.293	35.74
874.463	38.06
874.632	39.93
874.801	34.57
874.971	30.7
875.14	27.45
875.309	30.5
875.478	35.42
875.647	38.17
875.817	37.16
875.986	38.67
876.155	36.31
876.324	30.65
876.493	31.48
876.662	30.11
876.831	28.33
877	27.05
877.17	22.56
877.339	17.27
877.508	19.13
877.677	18.96
877.846	16.72
878.015	15.72
878.184	13.39
878.352	16
878.521	19.99
878.69	24.34
878.859	24.66
879.028	26.07
879.197	28.99
879.366	29.49
879.534	31.35
879.703	31.01
879.872	29.92
880.041	29.5
880.21	30.04
880.378	30.1
880.547	30.37
880.716	30.42
880.884	30.08
881.053	30.75
881.222	30.76
881.39	30.78
881.559	31.64
881.727	31.69
881.896	31.55
882.065	31.73
882.233	31.29
882.402	31.03
882.57	30.74
882.739	30.69
882.907	31.04
883.076	29.76
883.244	29.56
883.412	29.56
883.581	29.3
883.749	29.54
883.918	29.48
884.086	29.51
884.254	29.34
884.423	29.07
884.591	29.46
884.759	30.45
884.927	29.91
885.096	29.22
885.264	31.19
885.432	31.22
885.6	30.37
885.769	30.53
885.937	29.38
886.105	30.75
886.273	29.08
886.441	29.78
886.609	30.8
886.777	29.83
886.945	27.57
887.113	29.97
887.281	29.06
887.449	28.16
887.617	27.25
887.785	28.57
887.953	29.02
888.121	28.03
888.289	24.76
888.457	25.1
888.625	22.35
888.793	22.06
888.961	23.98
889.129	24.49
889.296	20.66
889.464	21.1
889.632	19.45
889.8	19.41
889.967	17.61
890.135	15.4
