Data from 2938540_Reflection_3.txt Node
Date: Mon Jun 15 23:38:45 EDT 2015
User: robert
Spectrometer: USB4E03002
Autoset integration time: false
Trigger mode: 4
Integration Time (sec): 1.000000E-1
Scans to average: 10
Electric dark correction enabled: true
Nonlinearity correction enabled: false
Boxcar width: 6
Stray light correction enabled: false
XAxis mode: Wavelengths
Stop averaging: false
Number of Pixels in Spectrum: 3648
>>>>>Begin Spectral Data<<<<<
177.575	-4.75
177.794	10.34
178.014	-56.32
178.233	-131.73
178.452	-707.89
178.672	-421.25
178.891	-360
179.11	-104.84
179.33	-59.68
179.549	-99.56
179.768	-63.27
179.987	-154.15
180.207	-25.23
180.426	-41.47
180.645	2.51
180.864	11.42
181.084	-11.7
181.303	-4.88
181.522	0.72
181.741	12.72
181.96	31.26
182.179	50
182.398	70.66
182.618	42.82
182.837	43.4
183.056	9.65
183.275	56.87
183.494	50.1
183.713	21.93
183.932	-11.03
184.151	-39.15
184.37	-54.12
184.589	-1.35
184.808	-6.42
185.027	-170
185.246	-43.18
185.465	-13.97
185.684	-35.2
185.903	1.48
186.122	-493.62
186.341	1800
186.56	533.33
186.779	789.74
186.998	-105.63
187.216	961.54
187.435	179.47
187.654	524.27
187.873	2166.67
188.092	434.38
188.311	374.6
188.53	2233.33
188.748	-2325
188.967	-261.82
189.186	-619.51
189.405	-76.62
189.623	300
189.842	131.68
190.061	1345.45
190.28	69.37
190.498	117.54
190.717	94.59
190.936	242.86
191.154	127.03
191.373	-1822.22
191.592	140.74
191.81	418.92
192.029	538.71
192.248	712.7
192.466	-1304.17
192.685	-218.49
192.904	-280.17
193.122	1144.9
193.341	1951.85
193.559	227.89
193.778	420.13
193.996	201.15
194.215	220.4
194.433	144.58
194.652	154.64
194.87	156.25
195.089	97.39
195.307	94.48
195.526	81.19
195.744	81.15
195.963	128.42
196.181	69.36
196.399	436.36
196.618	-21.37
196.836	54.55
197.055	55.09
197.273	-190.83
197.491	-63.24
197.71	-159.07
197.928	-23.13
198.146	-24.27
198.365	-10.05
198.583	-18.62
198.801	975
199.019	284.21
199.238	336.21
199.456	1071.88
199.674	213.2
199.892	285.9
200.111	996.43
200.329	55.91
200.547	30.49
200.765	56.25
200.983	122.65
201.202	137.89
201.42	241.38
201.638	260.99
201.856	350
202.074	193.04
202.292	162.01
202.51	153.57
202.728	144.71
202.946	88.01
203.165	102.71
203.383	101.54
203.601	90.65
203.819	26.22
204.037	4.95
204.255	11.47
204.473	-4.76
204.691	2.18
204.909	13.28
205.127	-26.5
205.345	-56.08
205.562	-42.07
205.78	-76.13
205.998	-30.23
206.216	-0.57
206.434	13.5
206.652	83.46
206.87	78.29
207.088	81.53
207.306	88.5
207.523	81.53
207.741	114.25
207.959	124.91
208.177	140.67
208.395	113.91
208.612	79.51
208.83	76.13
209.048	71.72
209.266	57.17
209.483	58.75
209.701	103.87
209.919	109.23
210.136	91.08
210.354	85.75
210.572	58.15
210.79	58.7
211.007	32.05
211.225	-1.87
211.442	7.68
211.66	57.12
211.878	-26.31
212.095	-32.9
212.313	-41.2
212.53	-67.65
212.748	-74.69
212.966	-112.61
213.183	-79.26
213.401	-35.97
213.618	-30.4
213.836	-40.3
214.053	-13.53
214.271	-33.33
214.488	-150
214.705	56.27
214.923	40.9
215.14	33.48
215.358	57.22
215.575	63.9
215.793	53.19
216.01	42.47
216.227	34.84
216.445	23.95
216.662	37.05
216.879	31.36
217.097	26.38
217.314	33.46
217.531	25.62
217.749	49.24
217.966	45.77
218.183	43.1
218.4	35.35
218.618	31.07
218.835	26.91
219.052	21.18
219.269	-5.1
219.487	-3.58
219.704	3.05
219.921	15.95
220.138	16.13
220.355	16.54
220.572	10.31
220.79	-0.35
221.007	-4.92
221.224	-11.97
221.441	1.53
221.658	9.91
221.875	2.11
222.092	9.25
222.309	15.04
222.526	12.85
222.743	6.02
222.96	10.56
223.177	12.04
223.394	8.79
223.611	12.13
223.828	14.89
224.045	16.28
224.262	11.16
224.479	4.02
224.696	9.04
224.913	8.38
225.13	4.88
225.347	7.23
225.564	4.91
225.781	3.61
225.997	3.39
226.214	3.6
226.431	3.94
226.648	3.72
226.865	5.75
227.082	6.1
227.298	6.87
227.515	5.97
227.732	6.29
227.949	5.84
228.165	5.9
228.382	7.43
228.599	8.34
228.816	7.72
229.032	8.31
229.249	7.67
229.466	7.74
229.682	7.26
229.899	7.28
230.116	7.38
230.332	6.83
230.549	6.29
230.765	6.64
230.982	6.83
231.199	5.15
231.415	1.1
231.632	0.8
231.848	2.06
232.065	1.44
232.281	0.91
232.498	1.84
232.714	1.36
232.931	2.79
233.147	3.56
233.364	3.92
233.58	4.37
233.797	4.94
234.013	5.44
234.23	7.75
234.446	9.09
234.662	9.36
234.879	9.39
235.095	9.82
235.312	8.53
235.528	8.09
235.744	8.76
235.961	8.49
236.177	10.08
236.393	10.17
236.61	10.24
236.826	11.85
237.042	10.7
237.258	9.85
237.475	8.56
237.691	8.98
237.907	8.13
238.123	9.13
238.339	11.01
238.556	10.84
238.772	10.05
238.988	8.86
239.204	9.59
239.42	8.57
239.636	7.91
239.853	9.54
240.069	9.62
240.285	9.34
240.501	9.82
240.717	10.7
240.933	10.79
241.149	10.41
241.365	10.32
241.581	10.65
241.797	10.34
242.013	10.04
242.229	10.62
242.445	11.12
242.661	10.36
242.877	10.62
243.093	11.4
243.309	10.88
243.525	9.96
243.741	9.4
243.957	9.27
244.173	9.18
244.388	9.52
244.604	10.1
244.82	9.8
245.036	9
245.252	8.53
245.468	8.34
245.683	8.21
245.899	7.88
246.115	8.26
246.331	8.17
246.547	8.02
246.762	7.88
246.978	7.16
247.194	6.7
247.409	6.45
247.625	5.91
247.841	6.47
248.057	5.98
248.272	6.01
248.488	5.66
248.703	5.76
248.919	4.9
249.135	4.7
249.35	5.41
249.566	5.3
249.782	6.12
249.997	6.57
250.213	6.39
250.428	7.01
250.644	6.62
250.859	7.21
251.075	7.03
251.29	6.47
251.506	6.36
251.721	6.23
251.937	6.75
252.152	6.26
252.368	7.15
252.583	7.11
252.798	6.52
253.014	6.46
253.229	5.46
253.445	5.92
253.66	6.09
253.875	6.25
254.091	7.36
254.306	7.02
254.521	6.78
254.737	5.44
254.952	5.13
255.167	3.57
255.383	3.22
255.598	4.26
255.813	3.92
256.028	4.79
256.244	4.34
256.459	4.1
256.674	4.26
256.889	4.24
257.104	3.79
257.32	4.43
257.535	4.91
257.75	4.93
257.965	5.08
258.18	5.39
258.395	5.27
258.61	5.56
258.826	5.57
259.041	5.67
259.256	5.71
259.471	5.51
259.686	5.35
259.901	5.84
260.116	5.61
260.331	5.68
260.546	5.72
260.761	5.62
260.976	5.3
261.191	5.29
261.406	4.55
261.621	4.49
261.836	4.4
262.05	4.4
262.265	4.67
262.48	4.6
262.695	4.2
262.91	3.88
263.125	3.48
263.34	3.79
263.555	4.05
263.769	4.08
263.984	3.97
264.199	4.28
264.414	3.8
264.629	3.68
264.843	4.44
265.058	4.37
265.273	4.53
265.488	4.79
265.702	4.95
265.917	5.19
266.132	5.19
266.346	5
266.561	5.21
266.776	5.4
266.99	5.83
267.205	6.13
267.42	6.03
267.634	5.43
267.849	5.43
268.063	5.63
268.278	5.1
268.492	5.42
268.707	5.22
268.922	4.91
269.136	5.29
269.351	5.49
269.565	5.03
269.78	4.98
269.994	4.89
270.209	4.82
270.423	4.87
270.637	4.95
270.852	4.9
271.066	5.55
271.281	5.73
271.495	5.64
271.709	5.9
271.924	5.84
272.138	5.64
272.353	6.11
272.567	5.93
272.781	5.86
272.996	6.02
273.21	5.99
273.424	6.4
273.638	6.49
273.853	6.25
274.067	6.15
274.281	6.24
274.495	5.63
274.71	5.42
274.924	5.1
275.138	4.4
275.352	4.75
275.566	4.79
275.781	4.47
275.995	4.4
276.209	4.03
276.423	3.67
276.637	3.72
276.851	3.34
277.065	3.66
277.279	4.22
277.493	4.32
277.707	4.25
277.921	4.67
278.135	4.37
278.349	4.59
278.563	4.92
278.777	4.85
278.991	4.42
279.205	4.39
279.419	4.12
279.633	4.15
279.847	4.01
280.061	3.62
280.275	3.55
280.489	3.97
280.703	3.89
280.917	3.77
281.131	3.84
281.344	3.99
281.558	4.02
281.772	4.16
281.986	4.51
282.2	4.6
282.414	4.79
282.627	4.82
282.841	5.34
283.055	5.39
283.269	5.41
283.482	5.33
283.696	5.39
283.91	5.01
284.123	4.94
284.337	5.1
284.551	5.15
284.764	4.91
284.978	4.95
285.192	4.82
285.405	5.02
285.619	4.89
285.833	4.88
286.046	4.8
286.26	4.93
286.473	5.2
286.687	5.82
286.9	5.81
287.114	5.69
287.327	5.59
287.541	5.76
287.754	5.78
287.968	5.94
288.181	5.75
288.395	5.65
288.608	5.83
288.822	5.69
289.035	5.81
289.248	5.7
289.462	5.21
289.675	5.29
289.889	5.24
290.102	5.16
290.315	5.05
290.529	4.75
290.742	4.43
290.955	4.63
291.169	4.75
291.382	4.62
291.595	4.68
291.808	4.49
292.022	4.19
292.235	4.39
292.448	4.4
292.661	4.62
292.875	4.88
293.088	5.19
293.301	5.36
293.514	5.4
293.727	5.15
293.94	5
294.153	4.77
294.367	4.75
294.58	4.75
294.793	5.17
295.006	5.05
295.219	4.98
295.432	4.96
295.645	4.89
295.858	4.57
296.071	4.64
296.284	4.82
296.497	4.88
296.71	5.1
296.923	5.38
297.136	5.48
297.349	5.42
297.562	5.18
297.775	5.19
297.988	5.66
298.201	5.49
298.414	5.5
298.626	5.58
298.839	5.39
299.052	5.33
299.265	5.04
299.478	4.88
299.691	4.66
299.903	4.78
300.116	5.14
300.329	4.9
300.542	5.03
300.755	4.66
300.967	4.76
301.18	4.7
301.393	4.72
301.605	4.9
301.818	4.99
302.031	5.3
302.243	4.94
302.456	4.77
302.669	4.93
302.881	4.97
303.094	5.17
303.307	5.21
303.519	5.21
303.732	5.13
303.944	5.26
304.157	5.3
304.37	5.14
304.582	5.36
304.795	5.31
305.007	5.7
305.22	5.78
305.432	5.36
305.645	5.03
305.857	5.33
306.069	5.27
306.282	5.09
306.494	5.66
306.707	6.01
306.919	5.97
307.132	6.33
307.344	5.93
307.556	5.74
307.769	5.57
307.981	5.87
308.193	5.8
308.406	5.84
308.618	5.81
308.83	5.84
309.043	6.2
309.255	5.86
309.467	5.73
309.679	5.88
309.892	5.74
310.104	6.15
310.316	6.41
310.528	6.62
310.74	6.59
310.953	6.8
311.165	7.06
311.377	6.69
311.589	7.06
311.801	6.71
312.013	7.07
312.225	6.93
312.437	7.17
312.649	6.84
312.862	6.74
313.074	6.63
313.286	6.64
313.498	6.52
313.71	6.43
313.922	6.15
314.134	6.5
314.346	6.42
314.558	6.81
314.77	6.43
314.982	6.68
315.193	6.31
315.405	6.61
315.617	6.54
315.829	6.3
316.041	6.25
316.253	6.19
316.465	5.87
316.677	5.95
316.888	5.86
317.1	5.85
317.312	5.56
317.524	5.72
317.736	5.8
317.947	6.28
318.159	6.47
318.371	6.93
318.583	7.3
318.794	7.29
319.006	7.47
319.218	7.78
319.43	7.99
319.641	8.22
319.853	7.86
320.064	7.68
320.276	7.67
320.488	7.67
320.699	7.47
320.911	7.45
321.123	7.07
321.334	7.06
321.546	7.2
321.757	6.9
321.969	6.92
322.18	6.65
322.392	6.75
322.603	6.73
322.815	6.64
323.026	6.51
323.238	6.49
323.449	6.64
323.661	7
323.872	6.89
324.083	6.86
324.295	6.55
324.506	6.66
324.718	6.84
324.929	6.76
325.14	6.66
325.352	6.67
325.563	6.72
325.774	6.83
325.986	6.92
326.197	6.8
326.408	6.35
326.62	6.25
326.831	6.41
327.042	6.88
327.253	7.22
327.464	6.99
327.676	7.6
327.887	7.5
328.098	7.72
328.309	7.72
328.52	7.44
328.732	7.31
328.943	7.2
329.154	7.53
329.365	7.72
329.576	7.94
329.787	7.18
329.998	7.04
330.209	7.31
330.42	7.05
330.631	7.32
330.842	7.35
331.053	7.62
331.264	7.88
331.475	7.91
331.686	8.1
331.897	7.83
332.108	7.85
332.319	7.83
332.53	8.18
332.741	8.27
332.952	8.25
333.163	8.13
333.374	7.81
333.585	7.75
333.795	7.31
334.006	7.47
334.217	7.47
334.428	7.49
334.639	7.47
334.849	7.22
335.06	6.75
335.271	7.04
335.482	6.71
335.692	6.76
335.903	6.98
336.114	7.3
336.325	7.07
336.535	7.56
336.746	7.38
336.957	7.44
337.167	7.34
337.378	7.66
337.589	8.06
337.799	8.49
338.01	8.35
338.22	8.5
338.431	8.44
338.642	8.46
338.852	8.36
339.063	8.56
339.273	8.49
339.484	8.56
339.694	8.73
339.905	8.72
340.115	8.53
340.326	8.22
340.536	7.89
340.746	7.92
340.957	8.18
341.167	8.26
341.378	8.16
341.588	8.05
341.799	8
342.009	7.99
342.219	7.86
342.43	7.51
342.64	7.49
342.85	7.44
343.061	7.75
343.271	7.93
343.481	7.91
343.691	7.77
343.902	7.66
344.112	7.67
344.322	7.47
344.532	7.59
344.743	7.39
344.953	7.22
345.163	7.13
345.373	7.07
345.583	7.02
345.793	6.71
346.004	7.01
346.214	7.35
346.424	7.06
346.634	7.11
346.844	6.91
347.054	6.89
347.264	7.07
347.474	7.14
347.684	7.03
347.894	7.02
348.104	7.12
348.314	7.23
348.524	7.14
348.734	7.01
348.944	6.83
349.154	7.21
349.364	7.11
349.574	7.19
349.784	7.36
349.994	7.09
350.204	7.26
350.413	7.47
350.623	7.42
350.833	7.13
351.043	7.06
351.253	7.16
351.463	6.81
351.672	6.65
351.882	6.43
352.092	6.16
352.302	5.95
352.511	5.73
352.721	5.83
352.931	5.89
353.141	6
353.35	6.16
353.56	6.24
353.77	6.34
353.979	6.16
354.189	6.22
354.399	6.03
354.608	6.2
354.818	6.49
355.027	6.58
355.237	6.86
355.447	6.67
355.656	6.41
355.866	6.27
356.075	6.22
356.285	6.31
356.494	6.26
356.704	6.34
356.913	6.38
357.123	6.64
357.332	6.82
357.542	6.59
357.751	6.61
357.96	6.53
358.17	6.67
358.379	6.71
358.589	6.71
358.798	6.61
359.007	6.52
359.217	6.38
359.426	6.48
359.635	6.4
359.845	6.18
360.054	5.86
360.263	5.89
360.472	5.95
360.682	6.05
360.891	5.9
361.1	6.06
361.309	6.13
361.519	6.16
361.728	6.28
361.937	6.37
362.146	6.38
362.355	6.39
362.564	6.47
362.774	6.3
362.983	6.4
363.192	6.32
363.401	6.3
363.61	6.68
363.819	6.49
364.028	6.37
364.237	6.45
364.446	6.14
364.655	6.27
364.864	6.4
365.073	6.17
365.282	6.07
365.491	6.35
365.7	6.38
365.909	6.39
366.118	6.31
366.327	6.11
366.536	6.11
366.745	6.1
366.954	6.17
367.162	6.14
367.371	6.1
367.58	5.63
367.789	5.58
367.998	5.65
368.207	5.63
368.415	5.78
368.624	5.69
368.833	5.62
369.042	5.47
369.25	5.46
369.459	5.47
369.668	5.31
369.877	5.48
370.085	5.27
370.294	5.52
370.503	5.88
370.711	5.89
370.92	5.98
371.129	5.68
371.337	5.58
371.546	5.62
371.754	5.7
371.963	5.64
372.171	5.81
372.38	5.94
372.589	6.03
372.797	5.91
373.006	5.8
373.214	5.7
373.423	5.82
373.631	5.5
373.84	5.59
374.048	5.64
374.256	5.66
374.465	5.55
374.673	5.33
374.882	5.17
375.09	5.08
375.298	5.13
375.507	5.19
375.715	5
375.923	4.92
376.132	4.74
376.34	4.94
376.548	4.83
376.757	5.05
376.965	4.97
377.173	5
377.381	5.23
377.59	5.25
377.798	5.05
378.006	4.81
378.214	4.72
378.423	4.87
378.631	4.67
378.839	4.81
379.047	4.83
379.255	4.94
379.463	4.78
379.671	4.9
379.879	4.83
380.088	4.98
380.296	4.93
380.504	5.29
380.712	5.2
380.92	5.29
381.128	5.32
381.336	5.45
381.544	5.18
381.752	5.2
381.96	4.97
382.168	4.92
382.376	4.91
382.584	4.93
382.791	4.73
382.999	4.61
383.207	4.43
383.415	4.67
383.623	4.71
383.831	4.7
384.039	4.7
384.247	4.63
384.454	4.37
384.662	4.48
384.87	4.34
385.078	4.1
385.285	4.08
385.493	3.9
385.701	3.95
385.909	3.99
386.116	3.65
386.324	3.77
386.532	3.86
386.739	3.97
386.947	4.18
387.155	4.3
387.362	4.38
387.57	4.5
387.778	4.64
387.985	4.49
388.193	4.65
388.4	4.69
388.608	4.61
388.816	4.8
389.023	4.65
389.231	4.57
389.438	4.5
389.646	4.47
389.853	4.33
390.061	4.2
390.268	4.13
390.475	4.01
390.683	4.17
390.89	4.05
391.098	4.02
391.305	3.97
391.512	4.02
391.72	3.89
391.927	3.8
392.135	3.73
392.342	3.68
392.549	3.68
392.756	3.68
392.964	3.86
393.171	3.8
393.378	3.86
393.586	3.9
393.793	3.87
394	3.96
394.207	3.88
394.414	3.92
394.622	3.86
394.829	3.89
395.036	3.94
395.243	4.11
395.45	4.1
395.657	3.76
395.864	3.79
396.072	3.68
396.279	3.73
396.486	3.84
396.693	3.68
396.9	3.86
397.107	3.95
397.314	3.92
397.521	3.85
397.728	3.77
397.935	3.72
398.142	3.72
398.349	3.83
398.556	3.78
398.763	3.64
398.97	3.56
399.177	3.46
399.383	3.61
399.59	3.52
399.797	3.59
400.004	3.78
400.211	3.92
400.418	3.95
400.625	3.83
400.831	3.65
401.038	3.72
401.245	3.83
401.452	3.87
401.658	3.91
401.865	3.98
402.072	3.81
402.279	3.66
402.485	3.53
402.692	3.39
402.899	3.28
403.105	3.11
403.312	3.14
403.519	3.31
403.725	3.32
403.932	3.34
404.138	3.37
404.345	3.34
404.552	3.37
404.758	3.42
404.965	3.4
405.171	3.41
405.378	3.46
405.584	3.45
405.791	3.59
405.997	3.49
406.204	3.53
406.41	3.55
406.617	3.5
406.823	3.33
407.029	3.3
407.236	3.25
407.442	3.35
407.649	3.27
407.855	3.21
408.061	3.21
408.268	3.27
408.474	3.25
408.68	3.48
408.887	3.55
409.093	3.47
409.299	3.5
409.505	3.67
409.712	3.77
409.918	3.61
410.124	3.46
410.33	3.51
410.537	3.48
410.743	3.41
410.949	3.32
411.155	3.36
411.361	3.21
411.567	2.95
411.773	2.8
411.98	2.72
412.186	2.68
412.392	2.52
412.598	2.55
412.804	2.61
413.01	2.72
413.216	2.93
413.422	2.91
413.628	2.99
413.834	2.88
414.04	2.93
414.246	3.07
414.452	3.18
414.658	3.17
414.864	3.18
415.07	3.2
415.275	3.28
415.481	3.23
415.687	3.14
415.893	2.99
416.099	3.02
416.305	3.02
416.511	3.07
416.716	3
416.922	3
417.128	3.04
417.334	3.07
417.539	3.08
417.745	3.13
417.951	3.12
418.157	3.18
418.362	3.2
418.568	3.17
418.774	3.14
418.979	3.06
419.185	2.97
419.391	3.03
419.596	3.01
419.802	3.01
420.008	3.06
420.213	3.01
420.419	3.03
420.624	3
420.83	2.97
421.035	3.01
421.241	3.01
421.446	3.01
421.652	3.03
421.857	3.02
422.063	2.98
422.268	2.95
422.474	2.89
422.679	2.81
422.885	2.76
423.09	2.64
423.295	2.6
423.501	2.55
423.706	2.45
423.911	2.47
424.117	2.4
424.322	2.38
424.527	2.44
424.733	2.32
424.938	2.27
425.143	2.28
425.349	2.31
425.554	2.39
425.759	2.46
425.964	2.51
426.169	2.61
426.375	2.68
426.58	2.69
426.785	2.89
426.99	2.96
427.195	2.93
427.4	3.12
427.605	3.17
427.811	3.21
428.016	3.11
428.221	3.03
428.426	2.91
428.631	2.83
428.836	2.73
429.041	2.69
429.246	2.7
429.451	2.55
429.656	2.43
429.861	2.55
430.066	2.55
430.271	2.51
430.476	2.42
430.681	2.46
430.886	2.55
431.09	2.64
431.295	2.71
431.5	2.68
431.705	2.77
431.91	2.68
432.115	2.76
432.32	2.81
432.524	2.74
432.729	2.65
432.934	2.69
433.139	2.72
433.343	2.61
433.548	2.47
433.753	2.52
433.958	2.46
434.162	2.46
434.367	2.4
434.572	2.42
434.776	2.42
434.981	2.39
435.186	2.37
435.39	2.37
435.595	2.26
435.799	2.23
436.004	2.24
436.209	2.3
436.413	2.31
436.618	2.3
436.822	2.32
437.027	2.33
437.231	2.35
437.436	2.29
437.64	2.36
437.845	2.43
438.049	2.47
438.253	2.52
438.458	2.49
438.662	2.6
438.867	2.64
439.071	2.59
439.275	2.65
439.48	2.7
439.684	2.66
439.888	2.71
440.093	2.73
440.297	2.7
440.501	2.59
440.706	2.64
440.91	2.71
441.114	2.85
441.318	2.81
441.523	2.76
441.727	2.74
441.931	2.68
442.135	2.61
442.339	2.67
442.543	2.66
442.748	2.63
442.952	2.6
443.156	2.64
443.36	2.64
443.564	2.56
443.768	2.37
443.972	2.46
444.176	2.53
444.38	2.52
444.584	2.54
444.788	2.57
444.992	2.54
445.196	2.52
445.4	2.47
445.604	2.54
445.808	2.57
446.012	2.48
446.216	2.52
446.42	2.6
446.624	2.46
446.828	2.38
447.032	2.39
447.235	2.44
447.439	2.43
447.643	2.41
447.847	2.45
448.051	2.53
448.254	2.49
448.458	2.42
448.662	2.45
448.866	2.32
449.069	2.3
449.273	2.36
449.477	2.38
449.681	2.4
449.884	2.32
450.088	2.26
450.292	2.29
450.495	2.22
450.699	2.17
450.902	2.13
451.106	2.21
451.31	2.23
451.513	2.32
451.717	2.32
451.92	2.34
452.124	2.31
452.327	2.28
452.531	2.46
452.734	2.46
452.938	2.46
453.141	2.34
453.345	2.28
453.548	2.28
453.752	2.2
453.955	2.16
454.158	2.14
454.362	2.15
454.565	2.19
454.769	2.3
454.972	2.35
455.175	2.19
455.379	2.22
455.582	2.21
455.785	2.4
455.988	2.44
456.192	2.41
456.395	2.44
456.598	2.46
456.801	2.5
457.005	2.51
457.208	2.42
457.411	2.29
457.614	2.24
457.817	2.2
458.021	2.22
458.224	2.25
458.427	2.17
458.63	2.19
458.833	2.16
459.036	2.19
459.239	2.14
459.442	2.17
459.645	2.14
459.848	2.21
460.051	2.31
460.254	2.32
460.457	2.38
460.66	2.4
460.863	2.36
461.066	2.33
461.269	2.32
461.472	2.37
461.675	2.27
461.878	2.39
462.081	2.37
462.284	2.35
462.486	2.28
462.689	2.17
462.892	2.18
463.095	2.24
463.298	2.16
463.5	2.09
463.703	2.08
463.906	2.18
464.109	2.19
464.311	2.24
464.514	2.17
464.717	2.16
464.92	2.18
465.122	2.16
465.325	2.19
465.528	2.14
465.73	1.93
465.933	1.92
466.135	1.93
466.338	1.99
466.541	1.81
466.743	1.67
466.946	1.63
467.148	1.64
467.351	1.64
467.553	1.64
467.756	1.64
467.958	1.62
468.161	1.6
468.363	1.77
468.566	1.77
468.768	1.82
468.971	1.78
469.173	1.76
469.375	1.87
469.578	1.89
469.78	1.94
469.983	1.85
470.185	1.87
470.387	1.86
470.59	1.95
470.792	2.07
470.994	2.01
471.196	1.96
471.399	1.95
471.601	1.99
471.803	2.05
472.005	2.09
472.208	2.07
472.41	2.13
472.612	2.15
472.814	2.15
473.016	2.23
473.218	2.18
473.421	2.12
473.623	2.12
473.825	2.25
474.027	2.23
474.229	2.28
474.431	2.33
474.633	2.39
474.835	2.41
475.037	2.38
475.239	2.43
475.441	2.45
475.643	2.39
475.845	2.37
476.047	2.43
476.249	2.42
476.451	2.44
476.653	2.53
476.855	2.49
477.057	2.43
477.258	2.39
477.46	2.41
477.662	2.31
477.864	2.33
478.066	2.25
478.268	2.31
478.469	2.33
478.671	2.3
478.873	2.3
479.075	2.2
479.276	2.12
479.478	2.1
479.68	2.18
479.882	2.19
480.083	2.19
480.285	2.22
480.487	2.19
480.688	2.25
480.89	2.21
481.091	2.2
481.293	2.17
481.495	2.15
481.696	2.18
481.898	2.18
482.099	2.18
482.301	2.16
482.502	2.16
482.704	2.17
482.905	2.16
483.107	2.15
483.308	2.12
483.51	2.12
483.711	2.13
483.913	2.15
484.114	2.19
484.315	2.19
484.517	2.23
484.718	2.24
484.92	2.24
485.121	2.28
485.322	2.28
485.524	2.28
485.725	2.29
485.926	2.3
486.127	2.3
486.329	2.3
486.53	2.28
486.731	2.28
486.932	2.27
487.134	2.24
487.335	2.24
487.536	2.25
487.737	2.22
487.938	2.21
488.139	2.24
488.341	2.21
488.542	2.18
488.743	2.21
488.944	2.2
489.145	2.24
489.346	2.24
489.547	2.26
489.748	2.28
489.949	2.31
490.15	2.29
490.351	2.27
490.552	2.26
490.753	2.25
490.954	2.3
491.155	2.33
491.356	2.32
491.557	2.29
491.758	2.28
491.959	2.26
492.159	2.24
492.36	2.26
492.561	2.25
492.762	2.24
492.963	2.28
493.164	2.27
493.364	2.3
493.565	2.3
493.766	2.35
493.967	2.25
494.167	2.3
494.368	2.28
494.569	2.27
494.769	2.37
494.97	2.29
495.171	2.29
495.371	2.31
495.572	2.29
495.773	2.37
495.973	2.38
496.174	2.29
496.375	2.29
496.575	2.42
496.776	2.44
496.976	2.48
497.177	2.48
497.377	2.44
497.578	2.44
497.778	2.44
497.979	2.58
498.179	2.59
498.38	2.55
498.58	2.54
498.78	2.66
498.981	2.68
499.181	2.64
499.382	2.68
499.582	2.7
499.782	2.64
499.983	2.59
500.183	2.58
500.383	2.53
500.584	2.43
500.784	2.46
500.984	2.42
501.184	2.45
501.385	2.44
501.585	2.43
501.785	2.39
501.985	2.4
502.185	2.41
502.386	2.49
502.586	2.6
502.786	2.63
502.986	2.78
503.186	2.78
503.386	2.69
503.586	2.79
503.786	2.77
503.987	2.76
504.187	2.74
504.387	2.81
504.587	2.74
504.787	2.79
504.987	2.79
505.187	2.74
505.387	2.77
505.587	2.76
505.786	2.78
505.986	2.88
506.186	2.9
506.386	2.93
506.586	2.94
506.786	2.97
506.986	2.94
507.186	2.95
507.386	2.91
507.585	2.88
507.785	2.96
507.985	3.03
508.185	3
508.384	2.99
508.584	3.01
508.784	2.96
508.984	2.9
509.183	2.89
509.383	2.88
509.583	2.97
509.782	3.08
509.982	3.15
510.182	3.18
510.381	3.16
510.581	3.14
510.781	3.15
510.98	3.19
511.18	3.23
511.379	3.25
511.579	3.42
511.778	3.51
511.978	3.53
512.177	3.52
512.377	3.44
512.576	3.35
512.776	3.4
512.975	3.39
513.175	3.39
513.374	3.47
513.573	3.46
513.773	3.49
513.972	3.52
514.172	3.44
514.371	3.46
514.57	3.47
514.77	3.46
514.969	3.53
515.168	3.63
515.367	3.62
515.567	3.64
515.766	3.61
515.965	3.58
516.164	3.58
516.364	3.52
516.563	3.58
516.762	3.62
516.961	3.65
517.16	3.7
517.359	3.69
517.559	3.7
517.758	3.66
517.957	3.7
518.156	3.73
518.355	3.82
518.554	3.8
518.753	3.83
518.952	3.97
519.151	3.98
519.35	3.97
519.549	4.04
519.748	4.09
519.947	4.18
520.146	4.19
520.345	4.27
520.544	4.36
520.743	4.34
520.942	4.37
521.141	4.48
521.339	4.5
521.538	4.39
521.737	4.4
521.936	4.42
522.135	4.34
522.333	4.26
522.532	4.29
522.731	4.37
522.93	4.4
523.129	4.33
523.327	4.38
523.526	4.36
523.725	4.36
523.923	4.44
524.122	4.54
524.321	4.57
524.519	4.65
524.718	4.65
524.917	4.68
525.115	4.71
525.314	4.71
525.512	4.7
525.711	4.73
525.909	4.73
526.108	4.76
526.306	4.8
526.505	4.81
526.703	4.77
526.902	4.77
527.1	4.76
527.299	4.78
527.497	4.8
527.696	4.83
527.894	4.84
528.092	4.87
528.291	4.89
528.489	4.89
528.688	4.89
528.886	4.87
529.084	4.85
529.283	4.9
529.481	4.93
529.679	4.98
529.877	4.99
530.076	5.04
530.274	5.02
530.472	5.04
530.67	5.05
530.869	5.1
531.067	5.15
531.265	5.2
531.463	5.26
531.661	5.33
531.859	5.36
532.057	5.39
532.255	5.38
532.454	5.43
532.652	5.41
532.85	5.46
533.048	5.5
533.246	5.53
533.444	5.57
533.642	5.62
533.84	5.65
534.038	5.65
534.236	5.64
534.434	5.61
534.632	5.62
534.83	5.64
535.027	5.66
535.225	5.73
535.423	5.72
535.621	5.74
535.819	5.75
536.017	5.74
536.215	5.73
536.412	5.72
536.61	5.71
536.808	5.72
537.006	5.83
537.203	5.88
537.401	5.89
537.599	5.86
537.797	5.83
537.994	5.87
538.192	5.86
538.39	5.88
538.587	5.89
538.785	5.93
538.983	5.96
539.18	5.99
539.378	6.04
539.575	6
539.773	6.01
539.97	6.02
540.168	6.06
540.366	6.06
540.563	6.07
540.761	6.08
540.958	6.16
541.155	6.2
541.353	6.21
541.55	6.24
541.748	6.26
541.945	6.24
542.143	6.3
542.34	6.35
542.537	6.42
542.735	6.45
542.932	6.55
543.129	6.61
543.327	6.69
543.524	6.67
543.721	6.75
543.919	6.82
544.116	6.89
544.313	6.92
544.51	7.01
544.708	7.02
544.905	7.03
545.102	7.07
545.299	7.11
545.496	7.08
545.693	7.08
545.891	7.06
546.088	7.06
546.285	7.01
546.482	7.02
546.679	7.01
546.876	7.13
547.073	7.23
547.27	7.24
547.467	7.3
547.664	7.31
547.861	7.34
548.058	7.41
548.255	7.53
548.452	7.59
548.649	7.64
548.846	7.64
549.043	7.68
549.24	7.7
549.437	7.59
549.633	7.56
549.83	7.65
550.027	7.68
550.224	7.74
550.421	7.78
550.618	7.83
550.814	7.81
551.011	7.76
551.208	7.81
551.405	7.92
551.601	7.96
551.798	7.98
551.995	8.08
552.191	8.02
552.388	8.04
552.585	8.05
552.781	8.06
552.978	8.13
553.175	8.2
553.371	8.22
553.568	8.4
553.764	8.42
553.961	8.38
554.157	8.43
554.354	8.58
554.55	8.56
554.747	8.64
554.943	8.74
555.14	8.76
555.336	8.75
555.533	8.74
555.729	8.81
555.926	8.88
556.122	8.84
556.318	8.99
556.515	9.14
556.711	9.12
556.907	9.17
557.104	9.3
557.3	9.36
557.496	9.4
557.693	9.52
557.889	9.69
558.085	9.78
558.281	9.73
558.478	9.79
558.674	9.76
558.87	9.73
559.066	9.71
559.262	9.9
559.459	9.91
559.655	9.99
559.851	10.02
560.047	9.95
560.243	10.01
560.439	9.99
560.635	10.02
560.831	10.11
561.027	10.09
561.223	10.27
561.419	10.37
561.615	10.48
561.811	10.46
562.007	10.58
562.203	10.64
562.399	10.78
562.595	10.97
562.791	10.95
562.987	11.05
563.183	11.06
563.379	11.09
563.575	11.21
563.771	11.29
563.966	11.32
564.162	11.34
564.358	11.47
564.554	11.46
564.75	11.46
564.945	11.45
565.141	11.39
565.337	11.52
565.533	11.58
565.728	11.67
565.924	11.71
566.12	11.76
566.315	11.84
566.511	12
566.707	12.04
566.902	12.08
567.098	12.14
567.293	12.16
567.489	12.21
567.684	12.28
567.88	12.31
568.076	12.38
568.271	12.49
568.467	12.53
568.662	12.54
568.858	12.56
569.053	12.46
569.248	12.48
569.444	12.53
569.639	12.6
569.835	12.73
570.03	12.84
570.225	12.91
570.421	12.92
570.616	12.93
570.812	12.92
571.007	13.1
571.202	13.14
571.397	13.22
571.593	13.34
571.788	13.4
571.983	13.45
572.178	13.57
572.374	13.53
572.569	13.65
572.764	13.71
572.959	13.8
573.154	13.85
573.35	13.99
573.545	13.88
573.74	14.02
573.935	13.96
574.13	13.97
574.325	14.06
574.52	14.14
574.715	14
574.91	14.15
575.105	14.21
575.3	14.24
575.495	14.26
575.69	14.28
575.885	14.23
576.08	14.33
576.275	14.38
576.47	14.51
576.665	14.57
576.86	14.67
577.055	14.7
577.25	14.91
577.444	14.99
577.639	14.83
577.834	14.98
578.029	15.03
578.224	15.1
578.418	15.2
578.613	15.26
578.808	15.21
579.003	15.19
579.197	15.23
579.392	15.27
579.587	15.25
579.781	15.26
579.976	15.27
580.171	15.42
580.365	15.5
580.56	15.46
580.755	15.37
580.949	15.36
581.144	15.42
581.338	15.51
581.533	15.53
581.727	15.5
581.922	15.54
582.116	15.63
582.311	15.68
582.505	15.65
582.7	15.67
582.894	15.66
583.089	15.62
583.283	15.74
583.478	15.88
583.672	15.91
583.866	15.85
584.061	16
584.255	16.2
584.449	16.18
584.644	16.07
584.838	16.08
585.032	16.06
585.226	15.97
585.421	15.94
585.615	16.11
585.809	16.11
586.003	16.04
586.198	16.05
586.392	16.06
586.586	16.05
586.78	16.05
586.974	16.05
587.168	16.18
587.363	16.17
587.557	16.24
587.751	16.36
587.945	16.39
588.139	16.52
588.333	16.61
588.527	16.62
588.721	16.63
588.915	16.67
589.109	16.65
589.303	16.63
589.497	16.73
589.691	16.71
589.885	16.81
590.079	16.87
590.273	16.87
590.466	16.77
590.66	16.75
590.854	16.74
591.048	16.88
591.242	16.88
591.436	17.12
591.629	17.17
591.823	17.13
592.017	17.14
592.211	17.14
592.404	17.1
592.598	17.16
592.792	17.18
592.986	17.29
593.179	17.31
593.373	17.3
593.567	17.29
593.76	17.35
593.954	17.18
594.147	17.3
594.341	17.42
594.535	17.43
594.728	17.53
594.922	17.6
595.115	17.51
595.309	17.6
595.502	17.64
595.696	17.59
595.889	17.57
596.083	17.63
596.276	17.66
596.47	17.65
596.663	17.59
596.856	17.48
597.05	17.55
597.243	17.43
597.437	17.39
597.63	17.52
597.823	17.54
598.017	17.56
598.21	17.67
598.403	17.83
598.596	17.74
598.79	17.82
598.983	17.88
599.176	17.91
599.369	18.05
599.563	18.06
599.756	18.22
599.949	18.21
600.142	18.13
600.335	17.96
600.528	17.94
600.722	17.9
600.915	17.98
601.108	18.1
601.301	18.02
601.494	18.16
601.687	18.26
601.88	18.2
602.073	18.09
602.266	18.14
602.459	18.23
602.652	18.31
602.845	18.45
603.038	18.5
603.231	18.5
603.424	18.48
603.617	18.49
603.809	18.52
604.002	18.51
604.195	18.45
604.388	18.49
604.581	18.59
604.774	18.49
604.966	18.46
605.159	18.41
605.352	18.48
605.545	18.44
605.737	18.47
605.93	18.41
606.123	18.35
606.316	18.34
606.508	18.36
606.701	18.37
606.894	18.56
607.086	18.6
607.279	18.73
607.471	18.8
607.664	18.87
607.857	18.74
608.049	18.74
608.242	18.75
608.434	18.84
608.627	18.88
608.819	18.91
609.012	18.9
609.204	18.85
609.397	18.77
609.589	18.78
609.782	18.77
609.974	18.72
610.166	18.66
610.359	18.76
610.551	18.8
610.743	18.9
610.936	18.75
611.128	18.66
611.32	18.67
611.513	18.57
611.705	18.57
611.897	18.64
612.09	18.73
612.282	18.63
612.474	18.83
612.666	18.95
612.858	18.89
613.051	18.72
613.243	18.7
613.435	18.92
613.627	18.92
613.819	19.01
614.011	19.12
614.203	19.28
614.395	19.21
614.588	19.1
614.78	19.1
614.972	19.04
615.164	19.06
615.356	19.17
615.548	19.52
615.74	19.52
615.932	19.45
616.124	19.56
616.315	19.57
616.507	19.59
616.699	19.55
616.891	19.64
617.083	19.76
617.275	19.89
617.467	19.9
617.659	19.93
617.85	19.82
618.042	19.83
618.234	19.81
618.426	19.8
618.618	19.83
618.809	19.79
619.001	19.82
619.193	19.8
619.384	19.59
619.576	19.41
619.768	19.35
619.959	19.17
620.151	19.15
620.343	19.3
620.534	19.2
620.726	19.25
620.917	19.27
621.109	19.13
621.301	19.2
621.492	19.22
621.684	19.11
621.875	19.25
622.067	19.44
622.258	19.67
622.45	19.82
622.641	19.88
622.832	19.87
623.024	19.91
623.215	19.95
623.407	19.92
623.598	20.04
623.789	20.06
623.981	19.98
624.172	20.08
624.363	20.03
624.555	19.85
624.746	19.64
624.937	19.55
625.129	19.55
625.32	19.54
625.511	19.63
625.702	19.57
625.893	19.56
626.085	19.67
626.276	19.6
626.467	19.66
626.658	19.7
626.849	19.79
627.04	19.89
627.231	19.9
627.422	19.92
627.614	19.98
627.805	19.97
627.996	19.81
628.187	19.87
628.378	20.01
628.569	19.95
628.76	20.05
628.951	19.89
629.142	19.98
629.332	19.77
629.523	19.84
629.714	19.92
629.905	19.91
630.096	19.75
630.287	19.75
630.478	19.83
630.669	19.84
630.859	19.66
631.05	19.55
631.241	19.52
631.432	19.61
631.623	19.68
631.813	19.77
632.004	19.64
632.195	19.62
632.385	19.62
632.576	19.51
632.767	19.59
632.957	19.52
633.148	19.67
633.339	19.75
633.529	19.73
633.72	19.74
633.91	19.91
634.101	19.69
634.292	19.81
634.482	19.94
634.673	19.94
634.863	20.02
635.054	20.16
635.244	20.15
635.435	20.23
635.625	20.04
635.815	20.07
636.006	20.25
636.196	20.35
636.387	20.17
636.577	20.16
636.767	20.23
636.958	20.27
637.148	20.29
637.338	20.32
637.529	20.3
637.719	20.22
637.909	20.1
638.099	20.25
638.29	20.29
638.48	20.27
638.67	20.29
638.86	20.31
639.05	20.41
639.241	20.26
639.431	20.08
639.621	20.14
639.811	20.14
640.001	20.14
640.191	20.09
640.381	20.2
640.571	20.09
640.761	19.98
640.951	19.86
641.141	19.63
641.331	19.74
641.521	19.76
641.711	19.92
641.901	20.1
642.091	20
642.281	19.92
642.471	20.12
642.661	20.29
642.851	20.32
643.041	20.32
643.231	20.46
643.42	20.57
643.61	20.65
643.8	20.63
643.99	20.81
644.18	20.72
644.369	20.8
644.559	20.83
644.749	20.8
644.939	20.73
645.128	20.59
645.318	20.67
645.508	20.77
645.697	20.64
645.887	20.72
646.076	20.9
646.266	20.9
646.456	20.98
646.645	21.02
646.835	20.95
647.024	21.07
647.214	21.27
647.403	21.31
647.593	21.43
647.782	21.43
647.972	21.39
648.161	21.3
648.351	21.28
648.54	21.25
648.73	21.19
648.919	20.96
649.108	20.88
649.298	20.73
649.487	20.82
649.677	20.7
649.866	20.65
650.055	20.57
650.244	20.37
650.434	20.45
650.623	20.52
650.812	20.5
651.002	20.43
651.191	20.67
651.38	20.6
651.569	20.74
651.758	20.65
651.947	20.57
652.137	20.58
652.326	20.7
652.515	20.81
652.704	21
652.893	20.97
653.082	21.15
653.271	21.11
653.46	20.97
653.649	20.94
653.838	21.08
654.027	21.07
654.216	21.35
654.405	21.35
654.594	21.6
654.783	21.49
654.972	21.41
655.161	21.19
655.35	21.11
655.539	20.98
655.728	21.08
655.916	21.18
656.105	21.3
656.294	21.28
656.483	21.39
656.672	21.31
656.86	21.25
657.049	21.06
657.238	21.11
657.427	21.23
657.615	21.5
657.804	21.65
657.993	21.68
658.181	21.64
658.37	21.59
658.559	21.37
658.747	21.5
658.936	21.14
659.125	21.18
659.313	21.19
659.502	21.19
659.69	21.34
659.879	21.37
660.067	21.31
660.256	21.27
660.444	21.32
660.633	21.24
660.821	21.19
661.01	21.09
661.198	20.82
661.387	21.03
661.575	21.15
661.763	21.07
661.952	21.28
662.14	21.05
662.328	20.95
662.517	21
662.705	20.95
662.893	21.13
663.082	21.21
663.27	21.6
663.458	21.69
663.646	21.9
663.834	22.06
664.023	21.97
664.211	22.21
664.399	22.01
664.587	22.08
664.775	22.19
664.963	22.21
665.152	22.29
665.34	21.87
665.528	22.09
665.716	21.92
665.904	22.08
666.092	22.08
666.28	22
666.468	21.91
666.656	22.02
666.844	22.18
667.032	22.15
667.22	22.13
667.408	21.92
667.596	21.76
667.784	22.13
667.971	21.85
668.159	21.97
668.347	21.86
668.535	21.75
668.723	21.85
668.911	21.97
669.098	21.66
669.286	21.54
669.474	21.53
669.662	21.5
669.849	21.87
670.037	21.9
670.225	21.69
670.413	21.86
670.6	21.73
670.788	21.9
670.976	21.9
671.163	21.75
671.351	21.62
671.538	21.7
671.726	21.62
671.913	21.75
672.101	21.69
672.289	21.32
672.476	21.41
672.664	21.56
672.851	21.53
673.039	21.63
673.226	21.63
673.413	21.67
673.601	21.6
673.788	21.63
673.976	21.79
674.163	21.77
674.35	21.55
674.538	21.29
674.725	21.33
674.912	21.19
675.1	21.2
675.287	21.14
675.474	21.2
675.662	21.2
675.849	21.37
676.036	21.51
676.223	21.49
676.411	21.51
676.598	21.68
676.785	21.91
676.972	22.24
677.159	22.27
677.346	22.28
677.533	22.23
677.721	22.36
677.908	22.41
678.095	22.46
678.282	22.32
678.469	22.24
678.656	22.29
678.843	22.34
679.03	22.27
679.217	22.13
679.404	22.04
679.591	22.03
679.778	21.91
679.964	22.03
680.151	22.01
680.338	22.02
680.525	21.88
680.712	22.05
680.899	22.26
681.086	22.3
681.272	22.2
681.459	22.33
681.646	22.41
681.833	22.46
682.02	22.47
682.206	22.62
682.393	22.38
682.58	22.34
682.766	22.13
682.953	22.11
683.14	22.26
683.326	22.3
683.513	22.31
683.7	22.37
683.886	22.22
684.073	22.45
684.259	22.59
684.446	22.7
684.632	22.73
684.819	22.92
685.005	22.93
685.192	23.07
685.378	23.35
685.565	23.05
685.751	22.79
685.938	22.68
686.124	22.67
686.31	22.92
686.497	22.81
686.683	22.64
686.87	22.6
687.056	22.65
687.242	22.52
687.429	22.69
687.615	22.65
687.801	22.55
687.987	22.65
688.174	22.87
688.36	23.04
688.546	22.95
688.732	22.51
688.918	22.33
689.105	22.46
689.291	22.72
689.477	22.87
689.663	22.9
689.849	22.83
690.035	22.86
690.221	22.94
690.407	22.78
690.593	22.84
690.779	22.78
690.965	23.02
691.151	23.37
691.337	23.55
691.523	23.53
691.709	23.37
691.895	23.26
692.081	23.32
692.267	23.59
692.453	23.5
692.639	23.41
692.825	23.49
693.011	23.43
693.196	23.35
693.382	23.34
693.568	23.23
693.754	23.21
693.94	23.23
694.125	22.93
694.311	22.99
694.497	23.03
694.682	22.85
694.868	22.94
695.054	22.92
695.239	22.73
695.425	22.7
695.611	22.9
695.796	22.74
695.982	22.9
696.168	23.04
696.353	23.24
696.539	23.54
696.724	23.37
696.91	23.25
697.095	23.07
697.281	22.94
697.466	23
697.652	23.15
697.837	23.11
698.023	23.1
698.208	23.22
698.393	23.1
698.579	22.82
698.764	22.76
698.949	22.75
699.135	22.85
699.32	23.02
699.505	22.86
699.691	22.98
699.876	22.88
700.061	22.8
700.246	22.98
700.432	22.5
700.617	22.34
700.802	22.33
700.987	23.13
701.172	23.08
701.358	22.97
701.543	23.12
701.728	23.06
701.913	23.24
702.098	23.46
702.283	23.56
702.468	23.51
702.653	23.59
702.838	24.08
703.023	24.14
703.208	24.01
703.393	23.47
703.578	23.25
703.763	23.26
703.948	23.4
704.133	23.18
704.318	23.59
704.503	23.31
704.688	23.25
704.873	23.31
705.057	22.85
705.242	22.85
705.427	22.8
705.612	23.1
705.797	22.74
705.981	22.95
706.166	22.93
706.351	22.66
706.536	22.59
706.72	22.23
706.905	22.1
707.09	22.2
707.274	22.52
707.459	22.87
707.644	22.99
707.828	22.81
708.013	22.68
708.197	22.91
708.382	22.63
708.567	22.96
708.751	23.03
708.936	23.27
709.12	23.43
709.305	23.38
709.489	23.41
709.673	23.42
709.858	23.28
710.042	22.94
710.227	23.14
710.411	23.33
710.596	23.2
710.78	23.5
710.964	23.24
711.149	22.99
711.333	23.01
711.517	23.28
711.702	23.6
711.886	23.37
712.07	22.86
712.254	22.86
712.438	23.1
712.623	23.13
712.807	22.89
712.991	22.79
713.175	22.69
713.359	22.58
713.544	22.81
713.728	22.73
713.912	22.76
714.096	22.47
714.28	22.41
714.464	22.46
714.648	22.42
714.832	22.22
715.016	22.23
715.2	22.22
715.384	22.32
715.568	22.41
715.752	22.65
715.936	22.51
716.12	22.88
716.304	22.69
716.488	22.98
716.671	23.44
716.855	23.76
717.039	23.63
717.223	23.47
717.407	23.54
717.59	23.85
717.774	23.91
717.958	23.59
718.142	23.28
718.325	23.22
718.509	22.88
718.693	22.97
718.877	22.73
719.06	22.04
719.244	22.2
719.428	22.52
719.611	23.51
719.795	23.3
719.978	23.01
720.162	22.92
720.345	23.27
720.529	23.37
720.713	23.46
720.896	23.33
721.08	23.27
721.263	23.21
721.446	23.42
721.63	23.34
721.813	23.38
721.997	22.61
722.18	22.74
722.364	22.9
722.547	23.11
722.73	22.97
722.914	22.39
723.097	22.96
723.28	22.77
723.464	22.72
723.647	23.19
723.83	23.23
724.013	22.94
724.197	22.73
724.38	23.02
724.563	23.21
724.746	23.64
724.929	23.85
725.112	23.52
725.296	24.15
725.479	23.53
725.662	23.46
725.845	23.56
726.028	23.36
726.211	23.68
726.394	24.13
726.577	24.42
726.76	24.39
726.943	24.11
727.126	23.66
727.309	23.45
727.492	23.82
727.675	23.48
727.858	23.94
728.041	24.29
728.224	24.04
728.407	23.87
728.589	23.64
728.772	23.49
728.955	23.26
729.138	23.49
729.321	23.97
729.503	23.87
729.686	23.87
729.869	24.28
730.052	24.6
730.234	24.48
730.417	24.45
730.6	24.5
730.782	24.82
730.965	25.25
731.148	24.93
731.33	24.88
731.513	24.37
731.695	23.97
731.878	24.29
732.061	24.37
732.243	23.74
732.426	23.71
732.608	23.27
732.791	23.33
732.973	23.28
733.156	23.1
733.338	22.61
733.52	22.94
733.703	23.05
733.885	23.67
734.068	23.43
734.25	23.11
734.432	23.16
734.615	23.19
734.797	23.27
734.979	23.61
735.162	23.49
735.344	23.84
735.526	24.06
735.708	24.5
735.891	24.16
736.073	23.91
736.255	23.71
736.437	23.95
736.619	23.64
736.802	23.35
736.984	23.55
737.166	23.63
737.348	23.45
737.53	23.31
737.712	22.78
737.894	22.63
738.076	22.15
738.258	22.64
738.44	22.86
738.622	22.8
738.804	22.75
738.986	22.64
739.168	22.9
739.35	22.68
739.532	22.85
739.714	23.19
739.896	23.12
740.078	23.68
740.259	24.08
740.441	23.99
740.623	23.72
740.805	23.58
740.987	23.44
741.168	23.47
741.35	24.52
741.532	24.6
741.714	24.82
741.895	24.49
742.077	24.87
742.259	25.14
742.44	24.76
742.622	24.33
742.804	24.18
742.985	24.46
743.167	24.69
743.348	24.78
743.53	24.76
743.711	24.55
743.893	24.3
744.075	24.59
744.256	24.78
744.438	24.1
744.619	24.06
744.8	23.62
744.982	23.38
745.163	24.13
745.345	23.26
745.526	23.38
745.707	23.49
745.889	23.74
746.07	23.38
746.252	23.47
746.433	22.68
746.614	22.51
746.795	22.39
746.977	23.01
747.158	23.48
747.339	23.6
747.52	23.29
747.702	23.98
747.883	24.23
748.064	23.93
748.245	23.58
748.426	23.68
748.607	24.11
748.788	24.46
748.97	24.18
749.151	24.44
749.332	23.91
749.513	23.81
749.694	23.71
749.875	23.7
750.056	23.11
750.237	22.83
750.418	22.77
750.599	22.92
750.78	23.06
750.96	22.44
751.141	21.95
751.322	22.36
751.503	22.35
751.684	22.13
751.865	22.03
752.046	21.47
752.226	21.45
752.407	21.66
752.588	21.04
752.769	21.51
752.949	22.35
753.13	21.83
753.311	22.3
753.492	22.89
753.672	22.75
753.853	22.95
754.034	23.24
754.214	23.32
754.395	23.74
754.575	23.56
754.756	23.85
754.937	24.47
755.117	24.25
755.298	23.36
755.478	23.14
755.659	22.55
755.839	22.63
756.02	22.21
756.2	21.89
756.381	22.03
756.561	22.51
756.741	22.42
756.922	22.39
757.102	22.41
757.283	22.52
757.463	22.23
757.643	22.67
757.823	23.03
758.004	23.5
758.184	23.8
758.364	24.11
758.545	24.18
758.725	24.16
758.905	24.32
759.085	24.83
759.265	25.01
759.446	24.81
759.626	24.54
759.806	25.06
759.986	24.65
760.166	24.72
760.346	24.32
760.526	24.38
760.706	23.99
760.886	24.26
761.066	24.09
761.246	23.75
761.426	23.38
761.606	23.14
761.786	23.02
761.966	23.16
762.146	23.19
762.326	23.17
762.506	23.09
762.686	23.45
762.866	23.03
763.046	23.48
763.225	23.41
763.405	23.03
763.585	22.87
763.765	23.22
763.945	23.5
764.124	23.76
764.304	23.91
764.484	23.87
764.664	23.9
764.843	23.86
765.023	23.74
765.203	24.03
765.382	23.6
765.562	23.49
765.741	24.03
765.921	24.01
766.101	23.76
766.28	23.64
766.46	23.45
766.639	23.45
766.819	23.39
766.998	23.2
767.178	23.41
767.357	23.63
767.537	23.42
767.716	23.78
767.896	24
768.075	23.32
768.254	23.7
768.434	24.03
768.613	23.44
768.792	23.48
768.972	23.51
769.151	23.57
769.33	23.95
769.51	24.23
769.689	23.83
769.868	23.9
770.047	24.19
770.226	24.56
770.406	25.54
770.585	25.53
770.764	25.61
770.943	25.93
771.122	26.11
771.301	26.36
771.48	26.48
771.66	26.91
771.839	26.74
772.018	26.71
772.197	26.88
772.376	25.91
772.555	25.73
772.734	24.9
772.913	24.29
773.092	23.59
773.271	23.91
773.449	23.84
773.628	22.65
773.807	22.52
773.986	21.69
774.165	21.83
774.344	21.61
774.523	21.8
774.701	22.8
774.88	22.12
775.059	22.49
775.238	23.03
775.417	23.52
775.595	23.19
775.774	23.12
775.953	24.01
776.131	24.25
776.31	24.68
776.489	24.96
776.667	25.1
776.846	24.16
777.025	23.26
777.203	23.14
777.382	23.25
777.56	22.5
777.739	22.02
777.917	22.78
778.096	22.63
778.274	23.33
778.453	23.45
778.631	22.93
778.81	22.85
778.988	22.57
779.166	23.21
779.345	23.45
779.523	23.98
779.702	24.1
779.88	25.07
780.058	25.5
780.237	26.07
780.415	26.63
780.593	25.42
780.771	25.48
780.95	26.3
781.128	25.12
781.306	26.58
781.484	26.73
781.662	27.51
781.841	27.02
782.019	26.44
782.197	25.84
782.375	25.53
782.553	24.18
782.731	23.65
782.909	24.25
783.087	23.96
783.265	23.93
783.443	24.92
783.621	24.17
783.799	23.79
783.977	23.65
784.155	23.91
784.333	24.24
784.511	24.02
784.689	24.33
784.867	23.94
785.045	24.49
785.223	24.02
785.4	23.42
785.578	22.85
785.756	22.67
785.934	22.14
786.112	22.61
786.289	21.97
786.467	22.12
786.645	21.44
786.823	22.06
787	22.02
787.178	22.6
787.356	22.07
787.533	21.96
787.711	22.34
787.889	22.29
788.066	22.34
788.244	22.41
788.421	22.23
788.599	22.78
788.776	23.03
788.954	24.29
789.131	24.29
789.309	23.86
789.486	24.1
789.664	24.7
789.841	24.36
790.019	24.15
790.196	24.18
790.373	24.86
790.551	25.57
790.728	25.36
790.906	25.02
791.083	25.2
791.26	24.51
791.437	23.57
791.615	23.63
791.792	24.01
791.969	23.34
792.146	24.13
792.324	24.9
792.501	24.85
792.678	23.88
792.855	23.51
793.032	23.48
793.209	23.22
793.387	21.7
793.564	21.88
793.741	22.71
793.918	23.47
794.095	23.01
794.272	23.55
794.449	24.08
794.626	23.57
794.803	24.14
794.98	24.49
795.157	25.05
795.334	25.78
795.511	26.12
795.688	26.66
795.864	27.08
796.041	27.71
796.218	26.96
796.395	27.08
796.572	27.11
796.749	26.15
796.925	27.56
797.102	27.39
797.279	26.93
797.456	25.63
797.632	25.03
797.809	25.6
797.986	25.98
798.162	25.62
798.339	25.23
798.516	25.2
798.692	25.3
798.869	24.88
799.046	25.28
799.222	24.08
799.399	24.38
799.575	24.78
799.752	25.89
799.928	26.5
800.105	25.93
800.281	26.07
800.458	25.86
800.634	25.45
800.811	26.59
800.987	26.93
801.163	27.41
801.34	27.78
801.516	27.7
801.692	26.86
801.869	26.95
802.045	26.66
802.221	26.22
802.398	25.89
802.574	26.59
802.75	26.36
802.926	27.01
803.103	26.44
803.279	25.63
803.455	25.84
803.631	25.97
803.807	25.63
803.983	26.39
804.16	26.07
804.336	25.36
804.512	25.75
804.688	25.85
804.864	25.55
805.04	26.64
805.216	26.53
805.392	26.35
805.568	26.77
805.744	26.67
805.92	25.46
806.096	26.34
806.272	25.48
806.448	26.23
806.623	25.79
806.799	24.91
806.975	26.02
807.151	26.09
807.327	25.7
807.503	24.82
807.678	26.26
807.854	25.92
808.03	26.06
808.206	25.93
808.381	25.35
808.557	25.5
808.733	24.78
808.908	25.57
809.084	25.15
809.26	24.19
809.435	23.65
809.611	23.03
809.787	23.45
809.962	21.23
810.138	20.87
810.313	20.76
810.489	22.47
810.664	21.72
810.84	22.49
811.015	23.56
811.191	24.08
811.366	25.36
811.542	25.04
811.717	26.62
811.892	26.94
812.068	27.49
812.243	29.3
812.419	30.53
812.594	29.7
812.769	29.36
812.944	28.79
813.12	28.79
813.295	27.82
813.47	27.7
813.645	26.96
813.821	28.03
813.996	26.68
814.171	27.18
814.346	27.31
814.521	27.04
814.697	25.76
814.872	26.34
815.047	26.35
815.222	26.34
815.397	25.77
815.572	25.88
815.747	25.65
815.922	25.49
816.097	24.33
816.272	24.1
816.447	23.18
816.622	22.24
816.797	21.95
816.972	22.94
817.147	21.93
817.322	21.05
817.496	23.22
817.671	23.58
817.846	23.06
818.021	22.32
818.196	22.86
818.371	24.13
818.545	24.08
818.72	24.39
818.895	24.77
819.069	24.93
819.244	24.23
819.419	25.12
819.594	25.44
819.768	24.41
819.943	24.02
820.117	24.62
820.292	25.43
820.467	25.3
820.641	24.71
820.816	24.48
820.99	24.41
821.165	24.58
821.339	24.66
821.514	25.04
821.688	25.01
821.863	24.67
822.037	24.76
822.212	24.83
822.386	24.61
822.56	24.41
822.735	24.54
822.909	24.61
823.084	24.76
823.258	24.72
823.432	24.52
823.606	24.49
823.781	24.21
823.955	24.12
824.129	24.63
824.303	24.9
824.478	24.86
824.652	24.81
824.826	24.86
825	24.84
825.174	24.69
825.348	24.68
825.523	24.66
825.697	24.97
825.871	24.55
826.045	24.85
826.219	24.89
826.393	24.64
826.567	24.4
826.741	24.21
826.915	24.63
827.089	24.78
827.263	24.94
827.437	25.17
827.611	25.14
827.784	25.42
827.958	25.45
828.132	25.72
828.306	25.55
828.48	25.54
828.654	25.76
828.827	25.66
829.001	26.49
829.175	26.18
829.349	25.75
829.522	25.48
829.696	25.34
829.87	25.87
830.044	26.44
830.217	25.93
830.391	26.13
830.565	25.62
830.738	25.86
830.912	25.79
831.085	25.86
831.259	25.17
831.432	26.52
831.606	27.44
831.779	27.35
831.953	27.06
832.126	25.91
832.3	25.79
832.473	26.11
832.647	26.21
832.82	27.63
832.994	27.19
833.167	26.94
833.34	27.35
833.514	27.05
833.687	26.19
833.86	26.02
834.034	25.32
834.207	25.65
834.38	25.98
834.553	26.03
834.727	25.42
834.9	25.42
835.073	24.94
835.246	24.78
835.419	24.6
835.593	23.74
835.766	24.98
835.939	24.75
836.112	23.94
836.285	25.06
836.458	24.83
836.631	25.94
836.804	25.86
836.977	26.34
837.15	26.41
837.323	25.6
837.496	25.75
837.669	26.22
837.842	26.38
838.015	25.66
838.188	25.91
838.361	26.66
838.533	26.04
838.706	27.19
838.879	26.22
839.052	26.61
839.225	27.35
839.398	27.23
839.57	28.35
839.743	28.92
839.916	28.71
840.088	27.95
840.261	29.05
840.434	27.99
840.607	28.43
840.779	28.67
840.952	27.52
841.124	27.54
841.297	26.26
841.47	26.95
841.642	26.05
841.815	24.78
841.987	23.44
842.16	24.38
842.332	26.24
842.505	23.55
842.677	24.47
842.85	25.52
843.022	25.43
843.194	26.01
843.367	26.31
843.539	27.41
843.712	26.87
843.884	28.54
844.056	28.85
844.229	31.24
844.401	30.12
844.573	28.6
844.745	27.13
844.918	28.43
845.09	27.4
845.262	27.82
845.434	25.99
845.606	23.82
845.779	22.42
845.951	22.2
846.123	21.32
846.295	19.42
846.467	19.2
846.639	17.76
846.811	18.04
846.983	18.95
847.155	20
847.327	21.3
847.499	20.8
847.671	19.21
847.843	20.99
848.015	21.34
848.187	21.99
848.359	22.34
848.531	23.49
848.703	19.92
848.875	17.14
849.047	20.25
849.218	24.02
849.39	21.12
849.562	18.3
849.734	19.48
849.905	25.01
850.077	20.89
850.249	19.39
850.421	16.23
850.592	13.83
850.764	12.36
850.936	16.3
851.107	19.78
851.279	18.96
851.451	17.4
851.622	18.77
851.794	22.91
851.965	22.28
852.137	20.03
852.308	23.63
852.48	27.48
852.651	29.9
852.823	27.75
852.994	30.21
853.166	29.5
853.337	27.06
853.509	25.72
853.68	27.37
853.851	27.57
854.023	22.59
854.194	22.4
854.365	22.75
854.537	20.73
854.708	15.99
854.879	14.69
855.05	20.24
855.222	18.16
855.393	17.35
855.564	25.17
855.735	24.99
855.906	22.37
856.078	23.11
856.249	22.01
856.42	24.28
856.591	27.79
856.762	28.85
856.933	32.55
857.104	32.6
857.275	29.83
857.446	32.7
857.617	32.25
857.788	27.21
857.959	25.74
858.13	32.04
858.301	33.12
858.472	32.11
858.643	28.07
858.814	26.35
858.985	28.14
859.155	28.56
859.326	24.76
859.497	25.58
859.668	24.66
859.839	25.39
860.009	27.97
860.18	32.13
860.351	27.14
860.522	24.11
860.692	27.94
860.863	29.93
861.034	26.94
861.204	24.6
861.375	20.8
861.546	26.13
861.716	27
861.887	28.56
862.057	29.16
862.228	25.82
862.398	19.65
862.569	21.67
862.739	17.82
862.91	14.59
863.08	14.59
863.251	16.66
863.421	19.31
863.592	21.23
863.762	20.96
863.932	20.75
864.103	22.34
864.273	23.08
864.443	25.59
864.614	26.53
864.784	24.53
864.954	28.81
865.125	27.72
865.295	27.77
865.465	23.52
865.635	20.2
865.805	21.42
865.976	22.47
866.146	22.06
866.316	18.99
866.486	15.94
866.656	14.6
866.826	17.98
866.996	19.71
867.166	17.95
867.336	23.18
867.506	23.43
867.676	28.92
867.846	26.9
868.016	29.61
868.186	23.23
868.356	25.45
868.526	24.64
868.696	29.4
868.866	29.25
869.036	27.08
869.206	24.52
869.376	26.79
869.545	28.84
869.715	31.46
869.885	28.83
870.055	30.96
870.224	29.16
870.394	34.6
870.564	34.94
870.734	31.85
870.903	28.72
871.073	32
871.243	35.63
871.412	32.97
871.582	34.98
871.751	31.76
871.921	28.74
872.091	28.3
872.26	31.53
872.43	30.06
872.599	31.16
872.769	29.27
872.938	34.78
873.108	32.68
873.277	28.38
873.446	25.29
873.616	31
873.785	31.66
873.955	30.69
874.124	31.61
874.293	36.34
874.463	32.24
874.632	30.85
874.801	29.15
874.971	30.19
875.14	25.71
875.309	28.81
875.478	32.45
875.647	31.77
875.817	33.1
875.986	34.59
876.155	34.91
876.324	36.66
876.493	33.83
876.662	33.69
876.831	28.68
877	25.17
877.17	22.94
877.339	26.96
877.508	29.08
877.677	29.27
877.846	35.36
878.015	32.35
878.184	28
878.352	28.78
878.521	27.23
878.69	31.65
878.859	31.41
879.028	33.54
879.197	34.8
879.366	33.93
879.534	30.62
879.703	30.17
879.872	29.92
880.041	27.91
880.21	26.9
880.378	27.95
880.547	27.94
880.716	28.15
880.884	26.2
881.053	26.34
881.222	27.31
881.39	27.63
881.559	27.53
881.727	27.51
881.896	27.47
882.065	26.97
882.233	27.11
882.402	26.9
882.57	26.4
882.739	26.88
882.907	26.72
883.076	26.34
883.244	27.3
883.412	27.08
883.581	26.41
883.749	27.05
883.918	26.88
884.086	26.85
884.254	27.37
884.423	26.52
884.591	26.73
884.759	26.99
884.927	26.28
885.096	25.93
885.264	27.84
885.432	26.49
885.6	27.1
885.769	28.71
885.937	28.45
886.105	31.22
886.273	29.88
886.441	31.14
886.609	32.07
886.777	33.62
886.945	32.31
887.113	31.71
887.281	31.53
887.449	28.69
887.617	31.43
887.785	29.16
887.953	27.99
888.121	27.9
888.289	26.56
888.457	26.89
888.625	24.18
888.793	27.06
888.961	27.42
889.129	28.89
889.296	30.06
889.464	31.5
889.632	34.26
889.8	31.01
889.967	32.8
890.135	34.33
