Data from 2938494_Reflection_2.txt Node
Date: Wed Jun 17 00:36:13 EDT 2015
User: robert
Spectrometer: USB4E03002
Autoset integration time: false
Trigger mode: 4
Integration Time (sec): 1.000000E-1
Scans to average: 10
Electric dark correction enabled: true
Nonlinearity correction enabled: false
Boxcar width: 5
Stray light correction enabled: false
XAxis mode: Wavelengths
Stop averaging: false
Number of Pixels in Spectrum: 3648
>>>>>Begin Spectral Data<<<<<
177.575	165.74
177.794	214.3
178.014	153.16
178.233	50.86
178.452	42.68
178.672	4.75
178.891	-59.86
179.11	-185.13
179.33	-200.06
179.549	-210.29
179.768	-162.56
179.987	660.05
180.207	309.28
180.426	-2526.06
180.645	436.85
180.864	-312.94
181.084	-35.94
181.303	-47.76
181.522	-62.77
181.741	-60.62
181.96	-57.38
182.179	-43.89
182.398	-60.47
182.618	-47.39
182.837	-51.2
183.056	19.17
183.275	33.87
183.494	-8.5
183.713	28.45
183.932	20.22
184.151	38.67
184.37	40.77
184.589	76.5
184.808	31.07
185.027	-100.49
185.246	-214.62
185.465	-257.86
185.684	-1596.46
185.903	1060.36
186.122	-736.64
186.341	-216.59
186.56	-461.21
186.779	-378.57
186.998	-241.17
187.216	-432.05
187.435	17.98
187.654	-33.88
187.873	-28.55
188.092	-62.48
188.311	-101.68
188.53	-1310.73
188.748	-310.53
188.967	241.01
189.186	487.25
189.405	161.12
189.623	217.35
189.842	115.94
190.061	75.07
190.28	46.84
190.498	42.05
190.717	54.89
190.936	49.18
191.154	52.76
191.373	14.81
191.592	37.15
191.81	47.35
192.029	-33.51
192.248	-45.83
192.466	92.36
192.685	-75.99
192.904	-39.53
193.122	-61.69
193.341	-22.23
193.559	-54.71
193.778	-140.65
193.996	-129.32
194.215	-79.33
194.433	-236.69
194.652	-158.63
194.87	-545.85
195.089	-123.22
195.307	-298.31
195.526	-98.51
195.744	2490.08
195.963	-157.34
196.181	-6.8
196.399	6.54
196.618	-151.73
196.836	-147.7
197.055	-31.65
197.273	-158.6
197.491	-500.53
197.71	-405.5
197.928	-213.97
198.146	-182.55
198.365	482.17
198.583	211
198.801	187.8
199.019	163.62
199.238	468.15
199.456	169.74
199.674	549.11
199.892	-1741.31
200.111	-150.03
200.329	-2.8
200.547	-24.1
200.765	34.68
200.983	52.56
201.202	25.77
201.42	15
201.638	65.55
201.856	67.18
202.074	74.98
202.292	88
202.51	92.56
202.728	19.33
202.946	-20.06
203.165	-133.35
203.383	6432.5
203.601	131.83
203.819	199
204.037	789.16
204.255	670.95
204.473	451.8
204.691	193.97
204.909	203.54
205.127	127.39
205.345	142.99
205.562	159.38
205.78	258.11
205.998	323.93
206.216	265.31
206.434	2154.52
206.652	463.45
206.87	734.54
207.088	-494.73
207.306	-338.67
207.523	-187.22
207.741	-95.52
207.959	-0.71
208.177	25.69
208.395	34.76
208.612	33.3
208.83	5.08
209.048	21.54
209.266	16.56
209.483	16.65
209.701	26.56
209.919	47.65
210.136	20.22
210.354	8.79
210.572	4.22
210.79	-18.16
211.007	28.56
211.225	43.45
211.442	19.35
211.66	38.39
211.878	23.11
212.095	34
212.313	46.24
212.53	54.7
212.748	28.1
212.966	36.15
213.183	45.17
213.401	38.28
213.618	37.92
213.836	41.36
214.053	45.12
214.271	74.95
214.488	61.36
214.705	-0.22
214.923	-1.03
215.14	43.43
215.358	20.5
215.575	16.32
215.793	5.65
216.01	11.9
216.227	12.5
216.445	-9.64
216.662	-48.92
216.879	-44.58
217.097	-35.65
217.314	-56.88
217.531	-59.23
217.749	-65.54
217.966	-71.51
218.183	-59.84
218.4	-46.14
218.618	-51.51
218.835	-45.28
219.052	-9.19
219.269	-16.4
219.487	-10.18
219.704	-7.32
219.921	-22.92
220.138	-23.01
220.355	-21.28
220.572	-15.49
220.79	-5.59
221.007	-8.65
221.224	1.71
221.441	-4.07
221.658	4
221.875	11.97
222.092	14.21
222.309	22.73
222.526	22.22
222.743	23.98
222.96	20.67
223.177	13.98
223.394	20.01
223.611	19.08
223.828	13.45
224.045	11.17
224.262	6.25
224.479	4.99
224.696	4.61
224.913	2.84
225.13	-1.82
225.347	3.69
225.564	7
225.781	5.42
225.997	4.96
226.214	7.58
226.431	7.89
226.648	7.88
226.865	7.39
227.082	6.58
227.298	9.5
227.515	12.25
227.732	11.35
227.949	10.65
228.165	9.76
228.382	9.92
228.599	9.37
228.816	10.57
229.032	11.65
229.249	13.1
229.466	13.77
229.682	12.29
229.899	10.32
230.116	12.32
230.332	12.96
230.549	15.32
230.765	14.45
230.982	15.46
231.199	13.69
231.415	12.58
231.632	10.43
231.848	10.03
232.065	8.9
232.281	8.99
232.498	5.2
232.714	5.77
232.931	6.52
233.147	8.6
233.364	9.26
233.58	10.38
233.797	9.45
234.013	10.92
234.23	9.56
234.446	11.02
234.662	10.77
234.879	14.94
235.095	15.02
235.312	13.61
235.528	13.62
235.744	11.49
235.961	11.95
236.177	12.51
236.393	12.11
236.61	12.53
236.826	11.78
237.042	13.23
237.258	10.02
237.475	9.46
237.691	8.81
237.907	8.12
238.123	9.94
238.339	11.39
238.556	13.36
238.772	12.26
238.988	13.23
239.204	13.22
239.42	12.77
239.636	12.91
239.853	12.85
240.069	13.59
240.285	13.68
240.501	13.44
240.717	12.7
240.933	12.05
241.149	12.04
241.365	11.55
241.581	11.87
241.797	12.09
242.013	12.3
242.229	11.94
242.445	11.68
242.661	10.73
242.877	10.87
243.093	9.99
243.309	9.5
243.525	10.87
243.741	11.69
243.957	11.41
244.173	10.2
244.388	9.69
244.604	10.22
244.82	10.25
245.036	10.05
245.252	9.67
245.468	9.92
245.683	9.82
245.899	9.74
246.115	9.3
246.331	9.78
246.547	9.87
246.762	9.94
246.978	9.66
247.194	9.38
247.409	9.82
247.625	9.79
247.841	9.66
248.057	9.7
248.272	8.63
248.488	9.09
248.703	8.24
248.919	8.75
249.135	8.28
249.35	7.45
249.566	7.79
249.782	7.42
249.997	7.25
250.213	6.63
250.428	6.87
250.644	8.13
250.859	7.74
251.075	7.26
251.29	6.67
251.506	7.18
251.721	8.33
251.937	8.37
252.152	8.34
252.368	8.75
252.583	9.46
252.798	9.77
253.014	8.33
253.229	7.98
253.445	7.49
253.66	7.88
253.875	7.63
254.091	6.21
254.306	5.2
254.521	6.18
254.737	6.97
254.952	6.04
255.167	6.29
255.383	6.75
255.598	7.09
255.813	7.25
256.028	6.81
256.244	7.06
256.459	7.64
256.674	7.76
256.889	7.03
257.104	5.9
257.32	6.79
257.535	6.65
257.75	6.81
257.965	6.97
258.18	6.84
258.395	7.17
258.61	7.09
258.826	6.9
259.041	7.01
259.256	7.41
259.471	7.87
259.686	7.53
259.901	7.66
260.116	7.3
260.331	6.92
260.546	7.19
260.761	7.21
260.976	6.7
261.191	6.68
261.406	5.74
261.621	5.48
261.836	5.78
262.05	5.43
262.265	5.08
262.48	5.35
262.695	5.18
262.91	5.26
263.125	5.11
263.34	5.7
263.555	5.75
263.769	6.36
263.984	5.87
264.199	4.63
264.414	5.07
264.629	5.18
264.843	5.09
265.058	5.41
265.273	5.21
265.488	5
265.702	5.73
265.917	6.37
266.132	5.95
266.346	6.39
266.561	6.69
266.776	6.86
266.99	6.72
267.205	7
267.42	6.53
267.634	6.68
267.849	6.77
268.063	6.2
268.278	6.01
268.492	6.73
268.707	6.68
268.922	7.13
269.136	6.98
269.351	7.15
269.565	7.3
269.78	8.08
269.994	7.57
270.209	7.45
270.423	7.57
270.637	7.67
270.852	7.56
271.066	7.26
271.281	7.2
271.495	7.39
271.709	7.35
271.924	7.06
272.138	6.97
272.353	7.04
272.567	7
272.781	6.95
272.996	6.63
273.21	6.44
273.424	6.67
273.638	6.41
273.853	6.27
274.067	5.83
274.281	6.25
274.495	6.17
274.71	6.41
274.924	6.47
275.138	6.6
275.352	6.35
275.566	6.59
275.781	6.26
275.995	5.84
276.209	6.05
276.423	6.17
276.637	6.01
276.851	5.42
277.065	5.86
277.279	5.51
277.493	5.42
277.707	5.08
277.921	5.3
278.135	5.41
278.349	6.53
278.563	5.66
278.777	6.19
278.991	5.87
279.205	6.05
279.419	5.74
279.633	6.62
279.847	6.54
280.061	7.44
280.275	7.4
280.489	7.01
280.703	7.11
280.917	7.78
281.131	7.24
281.344	7.42
281.558	7.19
281.772	7.66
281.986	7.04
282.2	6.77
282.414	6.48
282.627	6.58
282.841	7.22
283.055	6.55
283.269	6.33
283.482	6.48
283.696	6.08
283.91	6.29
284.123	5.77
284.337	5.8
284.551	5.69
284.764	5.86
284.978	5.53
285.192	5.29
285.405	5.73
285.619	5.76
285.833	5.98
286.046	6.27
286.26	6.34
286.473	6.76
286.687	7.23
286.9	7.76
287.114	7.52
287.327	7.38
287.541	7.28
287.754	6.77
287.968	6.75
288.181	6.76
288.395	6.54
288.608	6.45
288.822	6.2
289.035	5.92
289.248	5.92
289.462	6.09
289.675	6.46
289.889	6.5
290.102	6.98
290.315	6.99
290.529	6.9
290.742	7.02
290.955	7.03
291.169	7.29
291.382	7.75
291.595	7.46
291.808	7.59
292.022	7.73
292.235	7.95
292.448	7.86
292.661	8.13
292.875	8.19
293.088	8.62
293.301	8.76
293.514	8.58
293.727	8.23
293.94	8.47
294.153	8.47
294.367	8.42
294.58	8.33
294.793	7.73
295.006	7.58
295.219	7.42
295.432	7.18
295.645	7.42
295.858	7.67
296.071	7.68
296.284	7.67
296.497	7.45
296.71	7.44
296.923	7.75
297.136	8.22
297.349	8.32
297.562	8.49
297.775	8.49
297.988	8.36
298.201	8.1
298.414	8.12
298.626	8.02
298.839	8.11
299.052	7.99
299.265	7.7
299.478	7.55
299.691	7.16
299.903	7.11
300.116	6.74
300.329	6.36
300.542	6.62
300.755	7.14
300.967	7.08
301.18	7.32
301.393	7.53
301.605	7.76
301.818	8.14
302.031	8.41
302.243	8.49
302.456	8.63
302.669	8.99
302.881	8.74
303.094	8.08
303.307	8.3
303.519	8.05
303.732	7.86
303.944	7.49
304.157	6.85
304.37	7
304.582	6.73
304.795	7.2
305.007	6.98
305.22	6.74
305.432	7.25
305.645	6.95
305.857	6.89
306.069	7.33
306.282	7.53
306.494	7.91
306.707	7.79
306.919	8.33
307.132	8.2
307.344	8.33
307.556	8.66
307.769	8.39
307.981	8.38
308.193	8.56
308.406	8.41
308.618	8.36
308.83	8.59
309.043	8.85
309.255	8.61
309.467	8.74
309.679	8.81
309.892	8.57
310.104	8.56
310.316	8.76
310.528	9
310.74	8.89
310.953	9.02
311.165	8.97
311.377	8.79
311.589	8.63
311.801	8.28
312.013	8.4
312.225	8.97
312.437	9.01
312.649	9.58
312.862	9.36
313.074	9.8
313.286	9.62
313.498	9.84
313.71	10.16
313.922	10.26
314.134	11.26
314.346	10.95
314.558	11.08
314.77	10.76
314.982	10.16
315.193	10.1
315.405	9.65
315.617	9.34
315.829	9.4
316.041	8.58
316.253	9.02
316.465	8.72
316.677	8.43
316.888	8.37
317.1	8.77
317.312	8.85
317.524	9.06
317.736	9.29
317.947	9.91
318.159	9.75
318.371	10.22
318.583	9.79
318.794	9.33
319.006	9.71
319.218	9.59
319.43	9.79
319.641	9.97
319.853	9.92
320.064	9.43
320.276	9.18
320.488	9.09
320.699	9.41
320.911	9.21
321.123	9.58
321.334	9.41
321.546	9.58
321.757	9.27
321.969	8.75
322.18	8.7
322.392	9.42
322.603	9.41
322.815	9.17
323.026	9.32
323.238	9.58
323.449	9.62
323.661	9.71
323.872	9.28
324.083	9.85
324.295	10.07
324.506	10.13
324.718	10.1
324.929	10.12
325.14	10.07
325.352	10
325.563	9.91
325.774	9.85
325.986	10.04
326.197	10.45
326.408	10.04
326.62	10.12
326.831	10.16
327.042	10.2
327.253	10.12
327.464	10.27
327.676	10.47
327.887	10.4
328.098	10.15
328.309	10.4
328.52	9.89
328.732	9.85
328.943	9.64
329.154	9.24
329.365	9.13
329.576	9.44
329.787	9.53
329.998	9.43
330.209	9.42
330.42	9.34
330.631	9.56
330.842	9.68
331.053	10.11
331.264	9.89
331.475	10.14
331.686	9.76
331.897	9.34
332.108	9.43
332.319	9.08
332.53	9.29
332.741	9.25
332.952	9.13
333.163	9.3
333.374	8.99
333.585	9.39
333.795	9.52
334.006	9.91
334.217	10.2
334.428	10.17
334.639	10.2
334.849	10.44
335.06	10.65
335.271	10.5
335.482	10.56
335.692	10.78
335.903	10.57
336.114	10.56
336.325	10.16
336.535	10.27
336.746	10.27
336.957	10.27
337.167	9.95
337.378	10.13
337.589	10.06
337.799	9.82
338.01	9.44
338.22	9.32
338.431	9.29
338.642	9.26
338.852	9.27
339.063	9.58
339.273	9.67
339.484	9.78
339.694	9.69
339.905	9.69
340.115	9.6
340.326	9.95
340.536	10.54
340.746	10.12
340.957	10.41
341.167	10.42
341.378	9.71
341.588	9.53
341.799	9.25
342.009	8.99
342.219	8.85
342.43	8.87
342.64	8.77
342.85	8.51
343.061	8.87
343.271	9.02
343.481	9.07
343.691	9.01
343.902	9.03
344.112	9
344.322	9.1
344.532	9.19
344.743	9.54
344.953	9.6
345.163	9.46
345.373	9.32
345.583	8.86
345.793	8.73
346.004	9.07
346.214	9.06
346.424	9.21
346.634	9.32
346.844	9.01
347.054	9.05
347.264	8.82
347.474	8.88
347.684	8.92
347.894	8.91
348.104	8.65
348.314	8.37
348.524	8.62
348.734	8.98
348.944	8.88
349.154	9.46
349.364	9.31
349.574	9.62
349.784	9.8
349.994	9.81
350.204	9.91
350.413	10.07
350.623	10.45
350.833	9.85
351.043	9.65
351.253	9.58
351.463	9.12
351.672	9.1
351.882	8.67
352.092	8.59
352.302	8.5
352.511	8.58
352.721	8.46
352.931	8.34
353.141	8.64
353.35	8.57
353.56	8.49
353.77	8.7
353.979	8.57
354.189	8.58
354.399	8.56
354.608	8.72
354.818	8.68
355.027	8.69
355.237	8.73
355.447	8.85
355.656	8.85
355.866	8.59
356.075	8.48
356.285	8.59
356.494	8.43
356.704	8.28
356.913	8.22
357.123	8.1
357.332	7.96
357.542	7.79
357.751	7.66
357.96	7.44
358.17	7.86
358.379	7.87
358.589	7.61
358.798	7.74
359.007	7.65
359.217	7.61
359.426	7.54
359.635	7.67
359.845	7.63
360.054	7.71
360.263	7.69
360.472	7.54
360.682	7.45
360.891	7.62
361.1	7.62
361.309	7.7
361.519	7.77
361.728	7.82
361.937	7.78
362.146	7.83
362.355	7.58
362.564	7.79
362.774	7.82
362.983	8
363.192	7.9
363.401	8.09
363.61	8.17
363.819	8.08
364.028	8.12
364.237	8.06
364.446	7.82
364.655	7.92
364.864	7.64
365.073	7.72
365.282	7.58
365.491	7.61
365.7	7.38
365.909	7.37
366.118	7.11
366.327	7.11
366.536	7.28
366.745	7.45
366.954	7.41
367.162	7.56
367.371	7.25
367.58	7.3
367.789	7.16
367.998	7.26
368.207	7
368.415	7.21
368.624	7.21
368.833	7.03
369.042	7.07
369.25	7.09
369.459	7.28
369.668	7.44
369.877	7.11
370.085	6.94
370.294	7.19
370.503	7.13
370.711	6.75
370.92	6.65
371.129	6.6
371.337	6.54
371.546	6.31
371.754	6.26
371.963	6.2
372.171	6.31
372.38	6.43
372.589	5.97
372.797	5.78
373.006	6.04
373.214	6.28
373.423	6.26
373.631	6.1
373.84	6.45
374.048	6.35
374.256	6.28
374.465	6.48
374.673	6.53
374.882	6.83
375.09	7.24
375.298	7.35
375.507	7.07
375.715	7.24
375.923	7.34
376.132	7.14
376.34	6.91
376.548	6.98
376.757	6.8
376.965	6.78
377.173	6.48
377.381	6.33
377.59	6.27
377.798	6.44
378.006	6.19
378.214	6.23
378.423	6.27
378.631	6.2
378.839	6.05
379.047	5.91
379.255	5.89
379.463	6.13
379.671	6.12
379.879	6.14
380.088	6.24
380.296	6.22
380.504	6.02
380.712	6.08
380.92	6.2
381.128	6.21
381.336	6.3
381.544	6.22
381.752	5.96
381.96	5.86
382.168	5.83
382.376	5.77
382.584	5.83
382.791	6.05
382.999	6.05
383.207	6.09
383.415	6.26
383.623	6.33
383.831	6.42
384.039	6.38
384.247	6.52
384.454	6.6
384.662	6.53
384.87	6.58
385.078	6.43
385.285	6.22
385.493	6.43
385.701	6.26
385.909	6.05
386.116	5.92
386.324	6.11
386.532	6.2
386.739	6
386.947	6.04
387.155	5.95
387.362	5.8
387.57	5.98
387.778	5.62
387.985	5.74
388.193	5.78
388.4	5.92
388.608	5.74
388.816	5.62
389.023	5.76
389.231	5.69
389.438	5.69
389.646	5.89
389.853	5.96
390.061	6.12
390.268	5.96
390.475	6.01
390.683	6.01
390.89	5.85
391.098	5.73
391.305	5.69
391.512	5.48
391.72	5.51
391.927	5.56
392.135	5.47
392.342	5.53
392.549	5.68
392.756	5.8
392.964	5.84
393.171	6.25
393.378	6.31
393.586	6.12
393.793	6.33
394	6.38
394.207	6.47
394.414	6.46
394.622	6.4
394.829	6.41
395.036	6.26
395.243	6.21
395.45	5.97
395.657	5.66
395.864	5.72
396.072	5.67
396.279	5.64
396.486	5.51
396.693	5.39
396.9	5.38
397.107	5.48
397.314	5.5
397.521	5.61
397.728	5.74
397.935	6.26
398.142	6.23
398.349	6.2
398.556	6.29
398.763	6.36
398.97	6.54
399.177	6.32
399.383	6.13
399.59	6.15
399.797	5.98
400.004	5.9
400.211	5.77
400.418	5.94
400.625	6.11
400.831	6.03
401.038	6.04
401.245	5.89
401.452	6.09
401.658	6.11
401.865	5.89
402.072	5.76
402.279	5.67
402.485	5.46
402.692	5.13
402.899	4.9
403.105	4.75
403.312	4.54
403.519	4.71
403.725	4.67
403.932	4.77
404.138	4.91
404.345	5
404.552	4.95
404.758	4.94
404.965	5.05
405.171	4.98
405.378	5.22
405.584	5.38
405.791	5.29
405.997	5.22
406.204	5.04
406.41	5.23
406.617	5.17
406.823	5.1
407.029	5.17
407.236	5.28
407.442	5.24
407.649	5.11
407.855	5.05
408.061	5.05
408.268	5.08
408.474	5.11
408.68	5.08
408.887	5.17
409.093	5.13
409.299	4.96
409.505	5.14
409.712	5.45
409.918	5.45
410.124	5.52
410.33	5.53
410.537	5.55
410.743	5.49
410.949	5.22
411.155	5.31
411.361	5.37
411.567	5.57
411.773	5.39
411.98	5.22
412.186	5.09
412.392	4.83
412.598	4.79
412.804	4.8
413.01	4.94
413.216	5.03
413.422	4.75
413.628	4.83
413.834	4.91
414.04	4.99
414.246	4.94
414.452	4.96
414.658	5.16
414.864	5.17
415.07	5.2
415.275	5.1
415.481	5.12
415.687	5.29
415.893	5.36
416.099	5.29
416.305	5.2
416.511	5.24
416.716	5.3
416.922	5.29
417.128	5.2
417.334	5.17
417.539	5.22
417.745	5.16
417.951	5.08
418.157	5.06
418.362	5.12
418.568	5.09
418.774	5.07
418.979	5.11
419.185	5.01
419.391	5.01
419.596	4.96
419.802	4.95
420.008	5.02
420.213	4.34
420.419	4.33
420.624	4.3
420.83	4.25
421.035	4.19
421.241	4.12
421.446	4.19
421.652	4.17
421.857	4.16
422.063	4.25
422.268	4.24
422.474	4.92
422.679	4.88
422.885	4.77
423.09	4.87
423.295	4.92
423.501	4.93
423.706	4.85
423.911	4.93
424.117	4.96
424.322	4.8
424.527	4.77
424.733	4.77
424.938	4.75
425.143	4.74
425.349	4.76
425.554	4.76
425.759	4.77
425.964	4.88
426.169	4.9
426.375	4.77
426.58	4.85
426.785	4.82
426.99	4.82
427.195	4.83
427.4	4.98
427.605	4.98
427.811	4.95
428.016	4.89
428.221	4.82
428.426	4.68
428.631	4.85
428.836	4.8
429.041	4.75
429.246	4.86
429.451	4.84
429.656	4.73
429.861	4.56
430.066	4.64
430.271	4.72
430.476	4.65
430.681	4.66
430.886	4.66
431.09	4.64
431.295	4.74
431.5	4.63
431.705	4.58
431.91	4.6
432.115	4.66
432.32	4.56
432.524	4.42
432.729	4.51
432.934	4.46
433.139	4.43
433.343	4.46
433.548	4.47
433.753	4.44
433.958	4.47
434.162	4.47
434.367	4.4
434.572	4.46
434.776	4.44
434.981	4.4
435.186	4.54
435.39	4.55
435.595	4.48
435.799	4.4
436.004	4.45
436.209	4.42
436.413	4.49
436.618	4.48
436.822	4.53
437.027	4.62
437.231	4.49
437.436	4.47
437.64	4.48
437.845	4.53
438.049	4.48
438.253	4.51
438.458	4.58
438.662	4.54
438.867	4.58
439.071	4.56
439.275	4.53
439.48	4.56
439.684	4.55
439.888	4.49
440.093	4.53
440.297	4.65
440.501	4.64
440.706	4.59
440.91	4.58
441.114	4.63
441.318	4.52
441.523	4.54
441.727	4.64
441.931	4.6
442.135	4.69
442.339	4.73
442.543	4.62
442.748	4.5
442.952	4.63
443.156	4.66
443.36	4.63
443.564	4.68
443.768	4.62
443.972	4.54
444.176	4.48
444.38	4.43
444.584	4.39
444.788	4.39
444.992	4.33
445.196	4.26
445.4	4.31
445.604	4.31
445.808	4.35
446.012	4.44
446.216	4.4
446.42	4.41
446.624	4.45
446.828	4.37
447.032	4.4
447.235	4.49
447.439	4.49
447.643	4.38
447.847	4.33
448.051	4.27
448.254	4.18
448.458	4.19
448.662	4.29
448.866	4.26
449.069	4.3
449.273	4.27
449.477	4.32
449.681	4.22
449.884	4.3
450.088	4.38
450.292	4.26
450.495	4.23
450.699	4.22
450.902	4.1
451.106	4.07
451.31	4.02
451.513	3.97
451.717	3.99
451.92	4.01
452.124	4.06
452.327	4.01
452.531	4.14
452.734	4.08
452.938	4.2
453.141	4.16
453.345	4.26
453.548	4.34
453.752	4.39
453.955	4.31
454.158	4.31
454.362	4.18
454.565	4.24
454.769	4.4
454.972	4.42
455.175	4.43
455.379	4.58
455.582	4.49
455.785	4.45
455.988	4.32
456.192	4.32
456.395	4.35
456.598	4.42
456.801	4.37
457.005	4.21
457.208	4.27
457.411	4.21
457.614	4.23
457.817	4.21
458.021	4.23
458.224	4.32
458.427	4.39
458.63	4.39
458.833	4.32
459.036	4.36
459.239	4.4
459.442	4.42
459.645	4.42
459.848	4.36
460.051	4.45
460.254	4.37
460.457	4.41
460.66	4.42
460.863	4.37
461.066	4.4
461.269	4.3
461.472	4.32
461.675	4.35
461.878	4.41
462.081	4.51
462.284	4.36
462.486	4.45
462.689	4.4
462.892	4.3
463.095	4.29
463.298	4.29
463.5	4.32
463.703	4.24
463.906	4.22
464.109	4.14
464.311	4.16
464.514	4.12
464.717	4.14
464.92	4.07
465.122	4.08
465.325	4.09
465.528	4.11
465.73	4.06
465.933	4.1
466.135	4.07
466.338	4.07
466.541	4.02
466.743	4.07
466.946	4.1
467.148	4.1
467.351	4.12
467.553	4.12
467.756	4.12
467.958	4.2
468.161	4.21
468.363	4.26
468.566	4.27
468.768	4.29
468.971	4.38
469.173	4.29
469.375	4.4
469.578	4.35
469.78	4.38
469.983	4.28
470.185	4.18
470.387	4.04
470.59	4
470.792	4.02
470.994	3.87
471.196	3.8
471.399	3.8
471.601	3.7
471.803	3.77
472.005	3.81
472.208	3.91
472.41	3.96
472.612	4.09
472.814	4.11
473.016	4.19
473.218	4.38
473.421	4.32
473.623	4.29
473.825	4.44
474.027	4.4
474.229	4.45
474.431	4.54
474.633	4.53
474.835	4.51
475.037	4.52
475.239	4.46
475.441	4.38
475.643	4.48
475.845	4.58
476.047	4.55
476.249	4.44
476.451	4.29
476.653	4.19
476.855	4.2
477.057	4.19
477.258	4.16
477.46	4.15
477.662	4.15
477.864	4.01
478.066	3.99
478.268	3.95
478.469	4.03
478.671	4.05
478.873	4.03
479.075	4.02
479.276	3.97
479.478	4.03
479.68	4.01
479.882	4
480.083	4.14
480.285	4.18
480.487	4.14
480.688	4.12
480.89	4.19
481.091	4.18
481.293	4.2
481.495	4.23
481.696	4.17
481.898	4.17
482.099	4.18
482.301	4.12
482.502	4.1
482.704	4.13
482.905	4.14
483.107	4.13
483.308	4.16
483.51	4.17
483.711	4.18
483.913	4.19
484.114	4.22
484.315	4.27
484.517	4.31
484.718	4.34
484.92	4.37
485.121	4.42
485.322	4.44
485.524	4.42
485.725	4.43
485.926	4.44
486.127	4.44
486.329	4.42
486.53	4.36
486.731	4.35
486.932	4.34
487.134	4.28
487.335	4.26
487.536	4.25
487.737	4.23
487.938	4.17
488.139	4.18
488.341	4.19
488.542	4.23
488.743	4.22
488.944	4.21
489.145	4.22
489.346	4.28
489.547	4.28
489.748	4.23
489.949	4.25
490.15	4.26
490.351	4.26
490.552	4.28
490.753	4.26
490.954	4.3
491.155	4.28
491.356	4.28
491.557	4.27
491.758	4.24
491.959	4.29
492.159	4.3
492.36	4.35
492.561	4.28
492.762	4.23
492.963	4.23
493.164	4.21
493.364	4.23
493.565	4.21
493.766	4.15
493.967	4.21
494.167	4.23
494.368	4.25
494.569	4.25
494.769	4.3
494.97	4.36
495.171	4.35
495.371	4.34
495.572	4.37
495.773	4.43
495.973	4.46
496.174	4.44
496.375	4.5
496.575	4.47
496.776	4.53
496.976	4.53
497.177	4.54
497.377	4.54
497.578	4.57
497.778	4.63
497.979	4.57
498.179	4.57
498.38	4.66
498.58	4.65
498.78	4.76
498.981	4.64
499.181	4.66
499.382	4.66
499.582	4.69
499.782	4.7
499.983	4.68
500.183	4.72
500.383	4.74
500.584	4.67
500.784	4.62
500.984	4.52
501.184	4.58
501.385	4.58
501.585	4.58
501.785	4.58
501.985	4.63
502.185	4.67
502.386	4.65
502.586	4.74
502.786	4.8
502.986	4.81
503.186	4.92
503.386	4.95
503.586	4.96
503.786	5.02
503.987	4.97
504.187	4.85
504.387	4.88
504.587	4.85
504.787	4.8
504.987	4.84
505.187	4.86
505.387	4.74
505.587	4.73
505.786	4.81
505.986	4.75
506.186	4.86
506.386	4.93
506.586	4.89
506.786	4.98
506.986	5.05
507.186	4.97
507.386	4.99
507.585	5.05
507.785	5.16
507.985	5.13
508.185	5.2
508.384	5.18
508.584	5.21
508.784	5.25
508.984	5.19
509.183	5.21
509.383	5.22
509.583	5.21
509.782	5.24
509.982	5.15
510.182	5.07
510.381	5.06
510.581	5.03
510.781	5.01
510.98	5.05
511.18	5.14
511.379	5.06
511.579	5.12
511.778	5.16
511.978	5.19
512.177	5.17
512.377	5.31
512.576	5.34
512.776	5.44
512.975	5.47
513.175	5.45
513.374	5.44
513.573	5.51
513.773	5.56
513.972	5.56
514.172	5.6
514.371	5.65
514.57	5.59
514.77	5.46
514.969	5.44
515.168	5.44
515.367	5.51
515.567	5.61
515.766	5.52
515.965	5.48
516.164	5.52
516.364	5.5
516.563	5.51
516.762	5.51
516.961	5.57
517.16	5.54
517.359	5.54
517.559	5.51
517.758	5.45
517.957	5.52
518.156	5.6
518.355	5.64
518.554	5.65
518.753	5.63
518.952	5.65
519.151	5.76
519.35	5.82
519.549	5.86
519.748	5.9
519.947	5.99
520.146	5.95
520.345	5.95
520.544	5.96
520.743	5.95
520.942	6.01
521.141	6.06
521.339	5.96
521.538	5.95
521.737	5.99
521.936	6.03
522.135	6.01
522.333	6.08
522.532	6.05
522.731	6.01
522.93	6.02
523.129	6.05
523.327	6.08
523.526	6.17
523.725	6.23
523.923	6.22
524.122	6.21
524.321	6.16
524.519	6.19
524.718	6.14
524.917	6.1
525.115	6.11
525.314	6.14
525.512	6.16
525.711	6.15
525.909	6.13
526.108	6.13
526.306	6.11
526.505	6.17
526.703	6.17
526.902	6.22
527.1	6.25
527.299	6.24
527.497	6.26
527.696	6.25
527.894	6.26
528.092	6.27
528.291	6.3
528.489	6.34
528.688	6.35
528.886	6.34
529.084	6.32
529.283	6.35
529.481	6.4
529.679	6.43
529.877	6.52
530.076	6.52
530.274	6.51
530.472	6.54
530.67	6.53
530.869	6.53
531.067	6.56
531.265	6.59
531.463	6.61
531.661	6.68
531.859	6.68
532.057	6.65
532.255	6.67
532.454	6.78
532.652	6.77
532.85	6.76
533.048	6.8
533.246	6.84
533.444	6.84
533.642	6.88
533.84	6.84
534.038	6.84
534.236	6.84
534.434	6.86
534.632	6.87
534.83	6.95
535.027	7.06
535.225	7.05
535.423	7.11
535.621	7.2
535.819	7.14
536.017	7.21
536.215	7.25
536.412	7.28
536.61	7.27
536.808	7.2
537.006	7.2
537.203	7.17
537.401	7.16
537.599	7.16
537.797	7.15
537.994	7.23
538.192	7.19
538.39	7.2
538.587	7.23
538.785	7.19
538.983	7.21
539.18	7.25
539.378	7.26
539.575	7.26
539.773	7.32
539.97	7.36
540.168	7.36
540.366	7.4
540.563	7.39
540.761	7.41
540.958	7.47
541.155	7.49
541.353	7.49
541.55	7.52
541.748	7.57
541.945	7.59
542.143	7.6
542.34	7.57
542.537	7.61
542.735	7.65
542.932	7.65
543.129	7.72
543.327	7.76
543.524	7.83
543.721	7.86
543.919	7.89
544.116	7.85
544.313	7.89
544.51	7.94
544.708	8
544.905	8.11
545.102	8.22
545.299	8.24
545.496	8.29
545.693	8.27
545.891	8.27
546.088	8.29
546.285	8.34
546.482	8.28
546.679	8.4
546.876	8.31
547.073	8.25
547.27	8.19
547.467	8.24
547.664	8.23
547.861	8.23
548.058	8.25
548.255	8.34
548.452	8.44
548.649	8.58
548.846	8.53
549.043	8.51
549.24	8.54
549.437	8.57
549.633	8.55
549.83	8.59
550.027	8.7
550.224	8.72
550.421	8.79
550.618	8.75
550.814	8.83
551.011	8.91
551.208	8.97
551.405	9.07
551.601	9.16
551.798	9.24
551.995	9.25
552.191	9.29
552.388	9.22
552.585	9.14
552.781	9.2
552.978	9.27
553.175	9.35
553.371	9.48
553.568	9.43
553.764	9.33
553.961	9.32
554.157	9.34
554.354	9.43
554.55	9.76
554.747	9.85
554.943	9.94
555.14	9.81
555.336	9.7
555.533	9.76
555.729	9.78
555.926	9.93
556.122	9.94
556.318	9.99
556.515	10.01
556.711	9.79
556.907	9.85
557.104	9.91
557.3	10.13
557.496	10.16
557.693	10.16
557.889	10.19
558.085	10.23
558.281	10.43
558.478	10.44
558.674	10.39
558.87	10.53
559.066	10.59
559.262	10.56
559.459	10.56
559.655	10.61
559.851	10.69
560.047	10.83
560.243	10.86
560.439	10.75
560.635	10.9
560.831	11
561.027	11.02
561.223	11.03
561.419	11.05
561.615	11.15
561.811	11.29
562.007	11.33
562.203	11.36
562.399	11.42
562.595	11.52
562.791	11.6
562.987	11.65
563.183	11.76
563.379	11.8
563.575	11.82
563.771	11.82
563.966	11.86
564.162	11.87
564.358	11.92
564.554	11.99
564.75	12.12
564.945	12.14
565.141	12.12
565.337	12.13
565.533	12.26
565.728	12.42
565.924	12.48
566.12	12.48
566.315	12.54
566.511	12.56
566.707	12.52
566.902	12.39
567.098	12.4
567.293	12.48
567.489	12.4
567.684	12.4
567.88	12.33
568.076	12.37
568.271	12.4
568.467	12.43
568.662	12.56
568.858	12.67
569.053	12.85
569.248	12.91
569.444	12.95
569.639	13.13
569.835	13.13
570.03	13.24
570.225	13.25
570.421	13.38
570.616	13.46
570.812	13.48
571.007	13.57
571.202	13.52
571.397	13.57
571.593	13.68
571.788	13.67
571.983	13.72
572.178	13.76
572.374	13.8
572.569	13.83
572.764	13.86
572.959	13.91
573.154	13.89
573.35	14.05
573.545	14.12
573.74	14.03
573.935	14.17
574.13	14.17
574.325	14.15
574.52	14.18
574.715	14.26
574.91	14.31
575.105	14.38
575.3	14.48
575.495	14.39
575.69	14.32
575.885	14.4
576.08	14.36
576.275	14.53
576.47	14.63
576.665	14.7
576.86	14.72
577.055	14.7
577.25	14.49
577.444	14.48
577.639	14.63
577.834	14.82
578.029	14.98
578.224	14.96
578.418	14.93
578.613	15.03
578.808	15.09
579.003	15.03
579.197	15.05
579.392	15.27
579.587	15.46
579.781	15.43
579.976	15.39
580.171	15.38
580.365	15.58
580.56	15.55
580.755	15.56
580.949	15.54
581.144	15.67
581.338	15.77
581.533	15.91
581.727	15.91
581.922	16.05
582.116	16.11
582.311	16.14
582.505	16.24
582.7	16.27
582.894	16.27
583.089	16.21
583.283	16.17
583.478	16.23
583.672	16.15
583.866	16.08
584.061	16.17
584.255	16.1
584.449	16.19
584.644	16.1
584.838	16.06
585.032	15.98
585.226	16.17
585.421	16.31
585.615	16.14
585.809	16.16
586.003	16.21
586.198	16.1
586.392	16.22
586.586	16.21
586.78	16.21
586.974	16.45
587.168	16.49
587.363	16.61
587.557	16.54
587.751	16.68
587.945	16.77
588.139	16.79
588.333	16.86
588.527	16.89
588.721	16.9
588.915	16.95
589.109	16.8
589.303	16.98
589.497	17
589.691	17.01
589.885	17.07
590.079	16.97
590.273	17.13
590.466	17.05
590.66	17.07
590.854	17.02
591.048	17.12
591.242	17.3
591.436	17.25
591.629	17.14
591.823	17.24
592.017	17.28
592.211	17.54
592.404	17.43
592.598	17.48
592.792	17.45
592.986	17.5
593.179	17.51
593.373	17.41
593.567	17.53
593.76	17.64
593.954	17.54
594.147	17.53
594.341	17.39
594.535	17.37
594.728	17.44
594.922	17.35
595.115	17.43
595.309	17.33
595.502	17.47
595.696	17.49
595.889	17.49
596.083	17.63
596.276	17.67
596.47	17.71
596.663	17.76
596.856	17.8
597.05	17.85
597.243	17.89
597.437	18
597.63	18.01
597.823	17.92
598.017	17.85
598.21	17.83
598.403	17.85
598.596	17.8
598.79	17.92
598.983	17.77
599.176	17.89
599.369	17.83
599.563	17.87
599.756	17.72
599.949	17.66
600.142	17.71
600.335	17.69
600.528	17.77
600.722	17.85
600.915	17.82
601.108	17.95
601.301	17.91
601.494	17.92
601.687	17.86
601.88	17.97
602.073	18.01
602.266	18.05
602.459	18.14
602.652	18.11
602.845	18.07
603.038	17.95
603.231	17.97
603.424	18.05
603.617	18.04
603.809	18.05
604.002	18.02
604.195	18.02
604.388	18.01
604.581	17.88
604.774	17.93
604.966	18.03
605.159	18.26
605.352	18.25
605.545	18.26
605.737	18.33
605.93	18.36
606.123	18.22
606.316	18.23
606.508	18.27
606.701	18.36
606.894	18.35
607.086	18.41
607.279	18.26
607.471	18.38
607.664	18.31
607.857	18.32
608.049	18.35
608.242	18.58
608.434	18.64
608.627	18.7
608.819	18.72
609.012	18.8
609.204	18.63
609.397	18.85
609.589	18.88
609.782	19.04
609.974	19.07
610.166	19.25
610.359	19.3
610.551	19.28
610.743	19.35
610.936	19.4
611.128	19.33
611.32	19.63
611.513	19.46
611.705	19.3
611.897	19.18
612.09	19.28
612.282	19.24
612.474	19.48
612.666	19.68
612.858	19.52
613.051	19.64
613.243	19.64
613.435	19.43
613.627	19.3
613.819	19.49
614.011	19.57
614.203	19.42
614.395	19.46
614.588	19.21
614.78	19.17
614.972	19.28
615.164	19.25
615.356	19.25
615.548	19.15
615.74	19.32
615.932	19.26
616.124	19.31
616.315	19.38
616.507	19.27
616.699	19.18
616.891	19.18
617.083	19.27
617.275	19.12
617.467	19.14
617.659	19.38
617.85	19.53
618.042	19.65
618.234	19.46
618.426	19.5
618.618	19.54
618.809	19.71
619.001	19.77
619.193	19.55
619.384	19.63
619.576	19.84
619.768	19.76
619.959	19.57
620.151	19.3
620.343	19.38
620.534	19.4
620.726	19.3
620.917	19.3
621.109	19.41
621.301	19.3
621.492	19.2
621.684	19.01
621.875	19.17
622.067	19.24
622.258	19.43
622.45	19.53
622.641	19.48
622.832	19.65
623.024	19.74
623.215	19.67
623.407	19.84
623.598	19.9
623.789	19.99
623.981	20.01
624.172	20.04
624.363	19.94
624.555	20.01
624.746	20.09
624.937	20.01
625.129	19.96
625.32	19.97
625.511	19.86
625.702	20
625.893	19.9
626.085	19.9
626.276	19.89
626.467	19.99
626.658	20
626.849	20.01
627.04	19.98
627.231	19.87
627.422	19.84
627.614	20.14
627.805	20.12
627.996	20.34
628.187	20.26
628.378	20.25
628.569	20.25
628.76	20.18
628.951	20.13
629.142	20.15
629.332	20.23
629.523	20.28
629.714	20.26
629.905	20.4
630.096	20.34
630.287	20.31
630.478	20.36
630.669	20.41
630.859	20.4
631.05	20.46
631.241	20.42
631.432	20.35
631.623	20.48
631.813	20.44
632.004	20.24
632.195	20.08
632.385	20.28
632.576	20.19
632.767	20.12
632.957	20.11
633.148	20.19
633.339	20.12
633.529	20.2
633.72	20.03
633.91	19.81
634.101	19.8
634.292	19.93
634.482	19.86
634.673	19.99
634.863	20.08
635.054	20.18
635.244	20.08
635.435	20.37
635.625	20.29
635.815	20.21
636.006	20.39
636.196	20.46
636.387	20.49
636.577	20.53
636.767	20.42
636.958	20.39
637.148	20.49
637.338	20.59
637.529	20.46
637.719	20.57
637.909	20.65
638.099	20.48
638.29	20.43
638.48	20.26
638.67	19.98
638.86	20.18
639.05	20.11
639.241	20.06
639.431	19.88
639.621	20.06
639.811	20.19
640.001	20.09
640.191	20.4
640.381	20.5
640.571	20.66
640.761	20.74
640.951	20.73
641.141	20.73
641.331	20.67
641.521	20.87
641.711	20.86
641.901	20.61
642.091	20.75
642.281	20.73
642.471	20.76
642.661	20.86
642.851	20.78
643.041	20.73
643.231	20.84
643.42	20.86
643.61	20.8
643.8	20.61
643.99	20.61
644.18	20.5
644.369	20.68
644.559	20.66
644.749	20.65
644.939	20.77
645.128	20.78
645.318	20.7
645.508	20.81
645.697	21.07
645.887	20.98
646.076	21.25
646.266	21.24
646.456	20.93
646.645	21.06
646.835	21.14
647.024	21.09
647.214	20.97
647.403	21.1
647.593	21.02
647.782	20.7
647.972	21.15
648.161	21.05
648.351	21.18
648.54	21.5
648.73	21.35
648.919	21.06
649.108	21.51
649.298	21.78
649.487	21.7
649.677	21.73
649.866	21.75
650.055	21.57
650.244	21.67
650.434	21.67
650.623	21.65
650.812	21.56
651.002	21.72
651.191	21.6
651.38	21.46
651.569	21.49
651.758	21.56
651.947	21.8
652.137	21.77
652.326	21.76
652.515	21.66
652.704	21.51
652.893	21.87
653.082	21.8
653.271	21.62
653.46	21.5
653.649	21.57
653.838	21.43
654.027	21.57
654.216	21.6
654.405	21.57
654.594	21.54
654.783	21.48
654.972	21.35
655.161	21.22
655.35	21.41
655.539	21.37
655.728	21.21
655.916	21.21
656.105	20.98
656.294	20.92
656.483	20.91
656.672	21.08
656.86	20.96
657.049	20.88
657.238	21.15
657.427	21.11
657.615	21.34
657.804	21.47
657.993	21.52
658.181	21.65
658.37	21.78
658.559	21.81
658.747	21.85
658.936	22.04
659.125	21.78
659.313	21.65
659.502	21.68
659.69	21.47
659.879	21.62
660.067	21.7
660.256	21.47
660.444	21.45
660.633	21.48
660.821	21.5
661.01	21.46
661.198	21.89
661.387	22.01
661.575	22.11
661.763	22.31
661.952	22.06
662.14	22.17
662.328	22.35
662.517	22.35
662.705	22.39
662.893	22.58
663.082	22.77
663.27	22.53
663.458	22.33
663.646	22.28
663.834	22.29
664.023	22.31
664.211	22.24
664.399	22.3
664.587	22.34
664.775	22.08
664.963	21.86
665.152	21.61
665.34	21.73
665.528	21.78
665.716	21.71
665.904	21.74
666.092	21.88
666.28	21.8
666.468	21.91
666.656	21.64
666.844	22.02
667.032	22.05
667.22	22.02
667.408	22.48
667.596	22.54
667.784	22.77
667.971	22.76
668.159	22.9
668.347	22.95
668.535	22.84
668.723	22.91
668.911	22.87
669.098	22.92
669.286	23.06
669.474	22.7
669.662	22.76
669.849	22.65
670.037	22.74
670.225	22.55
670.413	22.55
670.6	22.32
670.788	22.79
670.976	22.8
671.163	22.72
671.351	22.85
671.538	23.09
671.726	23.01
671.913	22.7
672.101	22.67
672.289	22.77
672.476	22.71
672.664	22.77
672.851	22.48
673.039	22.66
673.226	22.59
673.413	22.45
673.601	22.28
673.788	22.47
673.976	22.49
674.163	22.52
674.35	22.5
674.538	22.63
674.725	22.94
674.912	22.84
675.1	22.48
675.287	22.48
675.474	22.42
675.662	22.39
675.849	22.18
676.036	22.34
676.223	22.25
676.411	21.99
676.598	21.94
676.785	21.82
676.972	21.97
677.159	21.87
677.346	22.02
677.533	22.18
677.721	22.26
677.908	22.34
678.095	22.31
678.282	22.47
678.469	22.83
678.656	22.91
678.843	23
679.03	23
679.217	23.29
679.404	23.41
679.591	23.5
679.778	23.38
679.964	23.41
680.151	23.56
680.338	23.48
680.525	23.37
680.712	23.43
680.899	23.11
681.086	23.05
681.272	22.96
681.459	22.93
681.646	22.7
681.833	22.67
682.02	22.69
682.206	22.69
682.393	22.69
682.58	22.61
682.766	22.45
682.953	22.92
683.14	23.06
683.326	23.31
683.513	22.99
683.7	23.37
683.886	23.59
684.073	23.68
684.259	23.51
684.446	23.6
684.632	23.71
684.819	23.59
685.005	23.36
685.192	23.36
685.378	23.3
685.565	23.39
685.751	23.35
685.938	23.12
686.124	22.83
686.31	22.84
686.497	22.74
686.683	22.62
686.87	22.94
687.056	23.01
687.242	22.92
687.429	22.74
687.615	22.8
687.801	22.61
687.987	22.84
688.174	22.93
688.36	23.19
688.546	23.26
688.732	23.45
688.918	23.4
689.105	23.49
689.291	23.43
689.477	23.28
689.663	23.28
689.849	23.46
690.035	23.38
690.221	23.64
690.407	23.57
690.593	23.41
690.779	23.37
690.965	23.33
691.151	23.2
691.337	23
691.523	23.12
691.709	23.12
691.895	22.78
692.081	22.84
692.267	22.74
692.453	22.84
692.639	22.92
692.825	22.89
693.011	22.87
693.196	23.08
693.382	23.48
693.568	23.65
693.754	23.84
693.94	23.78
694.125	23.97
694.311	23.92
694.497	23.74
694.682	24.12
694.868	23.91
695.054	24.17
695.239	23.89
695.425	23.63
695.611	23.54
695.796	23.4
695.982	23.7
696.168	23.85
696.353	24.02
696.539	24.14
696.724	23.99
696.91	24.21
697.095	23.97
697.281	24.1
697.466	24.21
697.652	24.26
697.837	24.4
698.023	24.19
698.208	24.14
698.393	23.94
698.579	23.83
698.764	23.81
698.949	23.73
699.135	23.72
699.32	23.58
699.505	23.63
699.691	23.71
699.876	23.57
700.061	23.8
700.246	23.56
700.432	23.71
700.617	23.59
700.802	23.65
700.987	23.7
701.172	23.77
701.358	23.66
701.543	23.89
701.728	23.59
701.913	23.44
702.098	23.34
702.283	23.25
702.468	22.9
702.653	23.04
702.838	22.55
703.023	22.71
703.208	22.68
703.393	23.19
703.578	22.82
703.763	23.02
703.948	23.03
704.133	23.11
704.318	23.43
704.503	23.74
704.688	23.95
704.873	24.37
705.057	24.25
705.242	24.37
705.427	24.11
705.612	24.24
705.797	24.43
705.981	24.71
706.166	24.79
706.351	24.65
706.536	24.88
706.72	24.9
706.905	24.95
707.09	25.01
707.274	25.1
707.459	25.47
707.644	25.28
707.828	24.89
708.013	24.52
708.197	24.19
708.382	24.29
708.567	24.27
708.751	24.02
708.936	23.91
709.12	24.09
709.305	23.79
709.489	23.49
709.673	23.74
709.858	23.92
710.042	23.95
710.227	24.28
710.411	24.17
710.596	23.9
710.78	23.85
710.964	23.98
711.149	23.76
711.333	23.92
711.517	24.15
711.702	24.22
711.886	24.05
712.07	24.25
712.254	24.32
712.438	24.18
712.623	24.67
712.807	24.78
712.991	24.81
713.175	24.66
713.359	24.63
713.544	24.41
713.728	24.35
713.912	24.21
714.096	24
714.28	23.92
714.464	24.16
714.648	23.69
714.832	23.58
715.016	23.36
715.2	23.66
715.384	23.59
715.568	23.55
715.752	23.54
715.936	23.77
716.12	24.16
716.304	24.01
716.488	24.04
716.671	24.36
716.855	24.6
717.039	24.7
717.223	24.7
717.407	24.88
717.59	25.5
717.774	25.32
717.958	25.52
718.142	25.51
718.325	25.6
718.509	25.19
718.693	25.15
718.877	25.29
719.06	25.18
719.244	24.82
719.428	24.53
719.611	23.92
719.795	23.91
719.978	23.92
720.162	23.84
720.345	23.84
720.529	24.3
720.713	24.23
720.896	23.9
721.08	23.97
721.263	24.21
721.446	24.39
721.63	24.2
721.813	24.24
721.997	23.95
722.18	23.8
722.364	23.77
722.547	23.83
722.73	23.53
722.914	23.76
723.097	23.83
723.28	23.95
723.464	23.86
723.647	24.07
723.83	24.27
724.013	24.43
724.197	25.08
724.38	25.15
724.563	25.12
724.746	25.12
724.929	24.96
725.112	24.67
725.296	24.63
725.479	24.55
725.662	24.27
725.845	24.35
726.028	24.08
726.211	23.6
726.394	23.64
726.577	23.28
726.76	23.33
726.943	23.09
727.126	23.74
727.309	23.41
727.492	23.85
727.675	23.51
727.858	23.26
728.041	23.29
728.224	23.51
728.407	23.47
728.589	23.69
728.772	23.67
728.955	23.84
729.138	23.5
729.321	23.67
729.503	23.42
729.686	23.97
729.869	24.44
730.052	24.55
730.234	24.3
730.417	24.32
730.6	24.41
730.782	24.43
730.965	24.31
731.148	24.35
731.33	24.1
731.513	24.09
731.695	24.02
731.878	23.88
732.061	23.85
732.243	23.95
732.426	23.83
732.608	23.7
732.791	23.79
732.973	24.1
733.156	24
733.338	25.03
733.52	24.78
733.703	24.51
733.885	24.35
734.068	24.12
734.25	23.87
734.432	23.94
734.615	24.22
734.797	23.89
734.979	23.75
735.162	23.88
735.344	23.1
735.526	23.55
735.708	23.54
735.891	23.35
736.073	23.96
736.255	23.74
736.437	23.98
736.619	23.78
736.802	24
736.984	23.79
737.166	23.96
737.348	24.24
737.53	23.87
737.712	24.23
737.894	24.13
738.076	23.74
738.258	24.03
738.44	23.87
738.622	24
738.804	24.27
738.986	24.74
739.168	24.67
739.35	24.36
739.532	24.85
739.714	24.93
739.896	25.19
740.078	25.41
740.259	25.78
740.441	25.68
740.623	25.51
740.805	25.86
740.987	25.81
741.168	25.43
741.35	25.27
741.532	24.97
741.714	25.13
741.895	25.26
742.077	24.84
742.259	24.21
742.44	24.63
742.622	24.06
742.804	22.95
742.985	22.7
743.167	22.68
743.348	22.84
743.53	23.42
743.711	22.99
743.893	22.67
744.075	23.21
744.256	23.87
744.438	23.62
744.619	24.21
744.8	25.7
744.982	25.75
745.163	26.04
745.345	25.76
745.526	24.58
745.707	24.58
745.889	24.53
746.07	24.61
746.252	24
746.433	23.76
746.614	24.03
746.795	23.12
746.977	23.29
747.158	22.84
747.339	22.67
747.52	22.85
747.702	22.46
747.883	22.42
748.064	22.22
748.245	22.65
748.426	23.09
748.607	23.65
748.788	23.67
748.97	23.33
749.151	24.15
749.332	24.1
749.513	24.77
749.694	25.72
749.875	25.92
750.056	26.15
750.237	25.95
750.418	25.91
750.599	25.36
750.78	25.71
750.96	26.02
751.141	25.69
751.322	25.99
751.503	26.39
751.684	26.13
751.865	26.5
752.046	25.98
752.226	26.02
752.407	25.85
752.588	25.78
752.769	25.23
752.949	25.21
753.13	24.94
753.311	24.89
753.492	23.96
753.672	23.89
753.853	23.4
754.034	24.02
754.214	24.74
754.395	24.46
754.575	24.5
754.756	24.93
754.937	25.17
755.117	25.42
755.298	25.75
755.478	26.2
755.659	26.15
755.839	26.11
756.02	26.29
756.2	25.83
756.381	25.9
756.561	25.81
756.741	25.8
756.922	25.56
757.102	24.94
757.283	25.04
757.463	24.93
757.643	24.72
757.823	25.14
758.004	24.92
758.184	24.29
758.364	24.26
758.545	23.78
758.725	23.82
758.905	23.88
759.085	24.34
759.265	24.21
759.446	24.48
759.626	24.95
759.806	24.45
759.986	23.98
760.166	24.11
760.346	24.34
760.526	24.51
760.706	24.44
760.886	24.27
761.066	24.17
761.246	24.01
761.426	23.93
761.606	24.03
761.786	24.3
761.966	24.33
762.146	24.88
762.326	24.46
762.506	24.86
762.686	25.18
762.866	25.15
763.046	25.28
763.225	25.35
763.405	25.75
763.585	25.89
763.765	25.5
763.945	25.83
764.124	25.65
764.304	26.62
764.484	26.44
764.664	26.4
764.843	26.39
765.023	26.28
765.203	26.5
765.382	26.22
765.562	25.34
765.741	25.67
765.921	25.79
766.101	25.96
766.28	25.68
766.46	25.62
766.639	24.71
766.819	24.91
766.998	25.04
767.178	24.58
767.357	24.45
767.537	24.77
767.716	25.02
767.896	25.33
768.075	24.69
768.254	24.31
768.434	24.77
768.613	25.21
768.792	25.85
768.972	26.25
769.151	26.39
769.33	26.25
769.51	26.3
769.689	26.46
769.868	25.46
770.047	26.07
770.226	26.03
770.406	26.14
770.585	27.58
770.764	26.69
770.943	26.05
771.122	25.28
771.301	25.15
771.48	25.05
771.66	24.89
771.839	25.41
772.018	25.61
772.197	25.34
772.376	24.5
772.555	23.33
772.734	24.01
772.913	24.65
773.092	25.87
773.271	25.46
773.449	25.79
773.628	26.3
773.807	25.87
773.986	25.53
774.165	25.92
774.344	26.17
774.523	25.95
774.701	25.82
774.88	25.72
775.059	25.68
775.238	25.34
775.417	25.48
775.595	24.81
775.774	25.51
775.953	25.75
776.131	25.7
776.31	26.68
776.489	27.09
776.667	26.75
776.846	25.92
777.025	25.47
777.203	26.01
777.382	26.17
777.56	25.71
777.739	25.31
777.917	24.77
778.096	23.65
778.274	23.42
778.453	23.48
778.631	23.08
778.81	22.93
778.988	23.86
779.166	24.11
779.345	24.19
779.523	24.71
779.702	25.09
779.88	25.01
780.058	26.55
780.237	25.53
780.415	24.91
780.593	25.96
780.771	26.81
780.95	26.85
781.128	25.78
781.306	25.56
781.484	25.64
781.662	25.39
781.841	24.75
782.019	23.68
782.197	23.63
782.375	23.64
782.553	22.9
782.731	22.57
782.909	21.98
783.087	22.82
783.265	21.97
783.443	21.69
783.621	20.99
783.799	22.49
783.977	22.83
784.155	22.86
784.333	22.74
784.511	22.01
784.689	22.58
784.867	22.57
785.045	22.82
785.223	23.63
785.4	24.14
785.578	24.22
785.756	23.8
785.934	23.85
786.112	24.31
786.289	23.88
786.467	24.2
786.645	23.57
786.823	23.66
787	23.91
787.178	23.2
787.356	23.12
787.533	23.51
787.711	24.3
787.889	24.12
788.066	24.28
788.244	25.36
788.421	25.14
788.599	25.52
788.776	24.96
788.954	24.91
789.131	25.22
789.309	24.87
789.486	24.2
789.664	23.58
789.841	23.78
790.019	24.83
790.196	24.25
790.373	24.49
790.551	24.88
790.728	25
790.906	25.38
791.083	25.92
791.26	26.39
791.437	27.13
791.615	26.98
791.792	27.4
791.969	25.88
792.146	26.17
792.324	25.85
792.501	25.38
792.678	26.1
792.855	25.62
793.032	25.41
793.209	25.96
793.387	26.94
793.564	25.6
793.741	26.01
793.918	27.35
794.095	26.88
794.272	27.12
794.449	26.68
794.626	26.34
794.803	26.64
794.98	26.58
795.157	25.99
795.334	25.8
795.511	27.24
795.688	26.3
795.864	25.62
796.041	25.49
796.218	25.56
796.395	26.17
796.572	25.16
796.749	26.34
796.925	26.54
797.102	26.44
797.279	25.37
797.456	25.51
797.632	24.52
797.809	24.21
797.986	25.65
798.162	26.35
798.339	26.1
798.516	27.12
798.692	25.86
798.869	26.04
799.046	26.18
799.222	25.09
799.399	24.35
799.575	25.83
799.752	25.44
799.928	25.14
800.105	24.85
800.281	25.09
800.458	25.45
800.634	25.33
800.811	25.48
800.987	25.08
801.163	25.06
801.34	25.42
801.516	24.97
801.692	25.63
801.869	25.15
802.045	24.68
802.221	23.81
802.398	23.51
802.574	24.52
802.75	23.95
802.926	24.37
803.103	25.62
803.279	24.95
803.455	23.83
803.631	22.72
803.807	24.14
803.983	24.79
804.16	25.13
804.336	23.6
804.512	22.79
804.688	22.83
804.864	22.34
805.04	22.44
805.216	22.72
805.392	24.46
805.568	25.8
805.744	24.19
805.92	23.88
806.096	24.13
806.272	24.07
806.448	24.7
806.623	25.05
806.799	25.17
806.975	25.12
807.151	25.25
807.327	25.12
807.503	24.37
807.678	25.94
807.854	26.92
808.03	26.82
808.206	28.62
808.381	27.05
808.557	27.26
808.733	27.21
808.908	26.57
809.084	26.07
809.26	25.81
809.435	24.13
809.611	23.75
809.787	23.25
809.962	24.1
810.138	23.83
810.313	24.59
810.489	22.87
810.664	22.31
810.84	21.62
811.015	22.2
811.191	21.37
811.366	24.07
811.542	22.71
811.717	23.83
811.892	21.9
812.068	21.64
812.243	21.12
812.419	22.27
812.594	22.05
812.769	23.78
812.944	23.54
813.12	23.85
813.295	22.89
813.47	23.29
813.645	22.66
813.821	24.35
813.996	25.64
814.171	26.41
814.346	24.73
814.521	25
814.697	24.81
814.872	26.82
815.047	26.21
815.222	26.75
815.397	26.38
815.572	25
815.747	24.39
815.922	23.34
816.097	23.94
816.272	25.04
816.447	25.49
816.622	25.47
816.797	23.82
816.972	25.56
817.147	24.94
817.322	24.88
817.496	25.89
817.671	25.91
817.846	25.72
818.021	25.13
818.196	25.79
818.371	25.58
818.545	26.22
818.72	27.26
818.895	26.51
819.069	26.63
819.244	26.46
819.419	25.56
819.594	24.84
819.768	25.36
819.943	25.89
820.117	26.18
820.292	26.45
820.467	26.75
820.641	26.78
820.816	26.87
820.99	27.04
821.165	27.28
821.339	27.35
821.514	27.22
821.688	26.87
821.863	26.84
822.037	26.85
822.212	26.91
822.386	26.67
822.56	26.46
822.735	26.52
822.909	26.39
823.084	26.27
823.258	26.31
823.432	26.85
823.606	27.06
823.781	27.21
823.955	27.17
824.129	27.3
824.303	27.49
824.478	27.43
824.652	27.64
824.826	27.21
825	27.01
825.174	26.87
825.348	26.66
825.523	26.71
825.697	26.33
825.871	26.45
826.045	26.49
826.219	26.39
826.393	26.41
826.567	26.24
826.741	26.72
826.915	27.24
827.089	27.39
827.263	27.11
827.437	27.15
827.611	26.9
827.784	26.22
827.958	25.53
828.132	25.03
828.306	25.29
828.48	25.29
828.654	25.67
828.827	25.12
829.001	25.09
829.175	24.67
829.349	24.75
829.522	25.01
829.696	25.42
829.87	25.48
830.044	26.45
830.217	26.87
830.391	26.67
830.565	25.41
830.738	24.91
830.912	24.27
831.085	25.27
831.259	25.33
831.432	25.48
831.606	26.95
831.779	27.92
831.953	27.2
832.126	27.22
832.3	26.94
832.473	27.93
832.647	29.24
832.82	29.04
832.994	29.24
833.167	28.8
833.34	28.83
833.514	28.39
833.687	28.42
833.86	28.05
834.034	27.59
834.207	27.89
834.38	27.48
834.553	27.09
834.727	26.97
834.9	26.84
835.073	26.62
835.246	26.04
835.419	25.22
835.593	25.17
835.766	26.11
835.939	27.24
836.112	27.5
836.285	28.49
836.458	28.11
836.631	29.87
836.804	29.44
836.977	28.98
837.15	29.01
837.323	29.01
837.496	26.49
837.669	24.53
837.842	24.2
838.015	21.89
838.188	20.99
838.361	20.96
838.533	18.65
838.706	20.27
838.879	22.97
839.052	23.61
839.225	25.39
839.398	28.9
839.57	30.32
839.743	28.82
839.916	29.87
840.088	30.48
840.261	30.59
840.434	30.27
840.607	29.4
840.779	28.25
840.952	29.93
841.124	28.52
841.297	26.17
841.47	25.92
841.642	26.48
841.815	26.86
841.987	25.47
842.16	27.34
842.332	27.23
842.505	25.98
842.677	25.93
842.85	24.35
843.022	25.6
843.194	27.26
843.367	26.81
843.539	25.23
843.712	23.91
843.884	24.81
844.056	23.04
844.229	24.85
844.401	23.64
844.573	24.72
844.745	26.08
844.918	25.65
845.09	25.32
845.262	25.9
845.434	29.09
845.606	28.49
845.779	28.34
845.951	30.26
846.123	28.95
846.295	31.87
846.467	31.26
846.639	28.74
846.811	26.62
846.983	25.85
847.155	26.04
847.327	22.7
847.499	26.02
847.671	23.2
847.843	22.08
848.015	23.57
848.187	20.99
848.359	20.37
848.531	17.55
848.703	18.8
848.875	18.96
849.047	19.27
849.218	19.73
849.39	17.65
849.562	17.44
849.734	14.58
849.905	12.57
850.077	13.5
850.249	12.45
850.421	16.26
850.592	18.34
850.764	20.21
850.936	21.36
851.107	18.93
851.279	15.09
851.451	18.1
851.622	17.24
851.794	16.14
851.965	16.32
852.137	14.81
852.308	13.31
852.48	11.95
852.651	8.88
852.823	5.06
852.994	6.66
853.166	12.27
853.337	11.34
853.509	13.24
853.68	18.06
853.851	19.05
854.023	20.28
854.194	20.53
854.365	16.19
854.537	17.97
854.708	20.53
854.879	21.97
855.05	19.26
855.222	18.61
855.393	14.01
855.564	16.06
855.735	10.64
855.906	11.06
856.078	9.63
856.249	11.19
856.42	9.24
856.591	10.36
856.762	10.6
856.933	10.85
857.104	10.69
857.275	13.3
857.446	11.77
857.617	17.88
857.788	18.07
857.959	16.64
858.13	21.81
858.301	20.65
858.472	21.4
858.643	19.09
858.814	19.13
858.985	18.83
859.155	23.75
859.326	21.65
859.497	21.62
859.668	19.93
859.839	24.03
860.009	21.35
860.18	23.91
860.351	18.17
860.522	21.59
860.692	23.52
860.863	29.01
861.034	22.85
861.204	26.15
861.375	22.75
861.546	26.15
861.716	16.83
861.887	16.83
862.057	15.54
862.228	22.28
862.398	20.73
862.569	18.73
862.739	16.28
862.91	21.8
863.08	14.96
863.251	14.48
863.421	17.87
863.592	21.09
863.762	21.85
863.932	19.96
864.103	14.57
864.273	14.42
864.443	18.86
864.614	12.04
864.784	12.07
864.954	13.38
865.125	18.11
865.295	12.5
865.465	12.78
865.635	11.68
865.805	13.7
865.976	10.88
866.146	12.64
866.316	11.18
866.486	14.13
866.656	15.04
866.826	20.81
866.996	17.6
867.166	17.24
867.336	20.69
867.506	23.06
867.676	22.17
867.846	23.6
868.016	21.3
868.186	23.73
868.356	23.43
868.526	18.05
868.696	19.07
868.866	17.98
869.036	17.87
869.206	17.18
869.376	22.72
869.545	24.11
869.715	27.03
869.885	27.38
870.055	25.47
870.224	29.78
870.394	31.22
870.564	26.26
870.734	27.15
870.903	29.11
871.073	29.37
871.243	23.42
871.412	22.24
871.582	23.15
871.751	26.45
871.921	26.11
872.091	16.7
872.26	17.72
872.43	19.99
872.599	21.82
872.769	23.69
872.938	26.7
873.108	27.49
873.277	28.8
873.446	26.96
873.616	27.54
873.785	23.5
873.955	29.83
874.124	29.19
874.293	28.04
874.463	29.2
874.632	25.88
874.801	23.67
874.971	25.51
875.14	25.72
875.309	28.35
875.478	23.63
875.647	28.08
875.817	25.35
875.986	27.39
876.155	27.41
876.324	24.46
876.493	24.31
876.662	22.55
876.831	21.44
877	22.11
877.17	19.38
877.339	20.96
877.508	18.59
877.677	17.77
877.846	16.28
878.015	14.51
878.184	14.11
878.352	15.7
878.521	19.27
878.69	18.59
878.859	17.06
879.028	16.76
879.197	18.19
879.366	19.44
879.534	21.81
879.703	25.34
879.872	25.95
880.041	26.52
880.21	27.92
880.378	26.02
880.547	26.63
880.716	26.83
880.884	27.83
881.053	27.23
881.222	28.31
881.39	27.81
881.559	27.35
881.727	27.9
881.896	28.31
882.065	28.64
882.233	29.51
882.402	29.12
882.57	29.51
882.739	29.09
882.907	29.27
883.076	28.74
883.244	28.88
883.412	29.41
883.581	28.85
883.749	28.9
883.918	28.09
884.086	27.44
884.254	28.16
884.423	27.77
884.591	28.63
884.759	29.62
884.927	29.47
885.096	28.99
885.264	27.17
885.432	27.34
885.6	26.32
885.769	25.93
885.937	26.75
886.105	25.49
886.273	25.01
886.441	23.72
886.609	19.92
886.777	18.62
886.945	20.42
887.113	21.66
887.281	20.32
887.449	19.2
887.617	21.3
887.785	19.63
887.953	17.63
888.121	19.95
888.289	19.59
888.457	23.98
888.625	26.53
888.793	29.11
888.961	27.35
889.129	30.27
889.296	30.21
889.464	29.45
889.632	29.07
889.8	32.07
889.967	30.73
890.135	31.78
