Data from 2938565_Reflection_1.txt Node
Date: Sun Jun 14 22:30:44 EDT 2015
User: robert
Spectrometer: USB4E03002
Autoset integration time: false
Trigger mode: 4
Integration Time (sec): 1.000000E-1
Scans to average: 10
Electric dark correction enabled: true
Nonlinearity correction enabled: false
Boxcar width: 5
Stray light correction enabled: false
XAxis mode: Wavelengths
Stop averaging: false
Number of Pixels in Spectrum: 3648
>>>>>Begin Spectral Data<<<<<
177.575	173.02
177.794	-133.66
178.014	-102.45
178.233	-53.07
178.452	-222.32
178.672	-57325
178.891	124.95
179.11	150.1
179.33	144.94
179.549	284.25
179.768	275.4
179.987	243.56
180.207	-68.76
180.426	-85.63
180.645	-16.85
180.864	-27.14
181.084	-82.4
181.303	-30.87
181.522	-163.06
181.741	-54.22
181.96	-2222.73
182.179	1650.72
182.398	563.86
182.618	-9.38
182.837	30.87
183.056	38.2
183.275	43.03
183.494	49.36
183.713	50.94
183.932	57.41
184.151	36.98
184.37	55.76
184.589	51.13
184.808	62.64
185.027	77.48
185.246	59.53
185.465	67.4
185.684	57.58
185.903	48.68
186.122	105.63
186.341	277.84
186.56	126.57
186.779	592.56
186.998	-5263.77
187.216	-3017.5
187.435	-258.95
187.654	-134.49
187.873	58.1
188.092	59.86
188.311	62.51
188.53	67.63
188.748	77.91
188.967	106.7
189.186	142.64
189.405	204.76
189.623	195.23
189.842	148.18
190.061	145.54
190.28	79.92
190.498	51.93
190.717	-31.41
190.936	30.67
191.154	13.58
191.373	-3.99
191.592	-6.91
191.81	8.34
192.029	-14.25
192.248	-15.37
192.466	-11.35
192.685	44.8
192.904	-1.21
193.122	-1.82
193.341	39.4
193.559	45.75
193.778	50.37
193.996	18.75
194.215	10.03
194.433	28.09
194.652	40.94
194.87	56.04
195.089	55.25
195.307	67.08
195.526	66.68
195.744	95.97
195.963	107.91
196.181	128.49
196.399	150.66
196.618	214.1
196.836	484.93
197.055	390.01
197.273	-803.16
197.491	-2289.88
197.71	579.42
197.928	3710.98
198.146	-2494.1
198.365	-648.98
198.583	-530.79
198.801	730.31
199.019	403.14
199.238	220.16
199.456	157.21
199.674	154.39
199.892	102.1
200.111	136.09
200.329	140.96
200.547	110.67
200.765	107.38
200.983	147.04
201.202	169.17
201.42	168.76
201.638	161.61
201.856	160.44
202.074	96.97
202.292	110.64
202.51	72.15
202.728	70.55
202.946	66.75
203.165	126.21
203.383	25.26
203.601	7.94
203.819	-94.07
204.037	-1.84
204.255	108.92
204.473	-179.29
204.691	60.74
204.909	60.38
205.127	78.99
205.345	93.9
205.562	95.49
205.78	111.79
205.998	94.28
206.216	72.51
206.434	86.96
206.652	67.39
206.87	53.84
207.088	60.47
207.306	84.43
207.523	62.98
207.741	70.32
207.959	83.39
208.177	96.52
208.395	117.7
208.612	150.62
208.83	105.86
209.048	171.57
209.266	202.33
209.483	292.61
209.701	187.64
209.919	173.65
210.136	156.55
210.354	95.14
210.572	72.63
210.79	83.02
211.007	77.43
211.225	66.99
211.442	21.04
211.66	27.26
211.878	10.04
212.095	79.63
212.313	84.63
212.53	79.22
212.748	91.83
212.966	106.78
213.183	110.19
213.401	98.4
213.618	112.06
213.836	114.57
214.053	87.29
214.271	68.78
214.488	-29.81
214.705	-34.77
214.923	-146.39
215.14	-54.53
215.358	-54.19
215.575	-47.77
215.793	-36.38
216.01	-15.71
216.227	-17.43
216.445	-7.69
216.662	14.23
216.879	18.53
217.097	16.22
217.314	25.21
217.531	30.43
217.749	40.96
217.966	47.22
218.183	40.66
218.4	40.83
218.618	43.13
218.835	26.58
219.052	29.65
219.269	35.43
219.487	33.99
219.704	33.02
219.921	22.15
220.138	19.11
220.355	24.8
220.572	24.28
220.79	17.33
221.007	13.4
221.224	27.7
221.441	19.77
221.658	13.61
221.875	12.03
222.092	8.5
222.309	7.48
222.526	4.51
222.743	1.61
222.96	-3.71
223.177	-0.45
223.394	1.06
223.611	5.37
223.828	9.25
224.045	5.4
224.262	5.48
224.479	6.44
224.696	5.17
224.913	1.72
225.13	2.99
225.347	5.7
225.564	5.53
225.781	3.94
225.997	2.36
226.214	2.8
226.431	3.59
226.648	3.51
226.865	4.45
227.082	5.23
227.298	7.92
227.515	7.68
227.732	8.55
227.949	8.69
228.165	9.82
228.382	9.75
228.599	9.7
228.816	10.97
229.032	12.22
229.249	13.36
229.466	14.1
229.682	12.23
229.899	12.49
230.116	11.6
230.332	11.48
230.549	11.33
230.765	11.73
230.982	12.13
231.199	11.77
231.415	10.74
231.632	8.83
231.848	9.05
232.065	9.89
232.281	11.38
232.498	10.26
232.714	9.94
232.931	11.23
233.147	11.96
233.364	10.08
233.58	8.92
233.797	10.16
234.013	10.56
234.23	11.23
234.446	13.32
234.662	10.79
234.879	12.64
235.095	15.49
235.312	13.69
235.528	14.05
235.744	14.26
235.961	14.23
236.177	15.05
236.393	16.99
236.61	16.63
236.826	15.38
237.042	15.42
237.258	14.11
237.475	12.45
237.691	11.61
237.907	10.91
238.123	11.73
238.339	12.1
238.556	10.74
238.772	9.53
238.988	8.45
239.204	7.96
239.42	9.22
239.636	9.73
239.853	9.44
240.069	9.43
240.285	9.28
240.501	9.02
240.717	9.01
240.933	9.7
241.149	9.55
241.365	9.65
241.581	10.32
241.797	10.02
242.013	9.82
242.229	9.79
242.445	10.46
242.661	10.59
242.877	11.23
243.093	11.21
243.309	10.14
243.525	10.5
243.741	11.44
243.957	10.15
244.173	9.72
244.388	9.59
244.604	9.39
244.82	9.36
245.036	8.97
245.252	8.83
245.468	8.73
245.683	8.71
245.899	8.32
246.115	7.91
246.331	8.18
246.547	8.43
246.762	8.31
246.978	8.53
247.194	8.26
247.409	8.57
247.625	8.8
247.841	9.32
248.057	9.48
248.272	9.94
248.488	10.31
248.703	10.02
248.919	9.72
249.135	9.79
249.35	9.59
249.566	9.43
249.782	9
249.997	8.67
250.213	8.77
250.428	8.86
250.644	9.04
250.859	8.86
251.075	8.81
251.29	8.69
251.506	9.37
251.721	9.61
251.937	9.69
252.152	9.81
252.368	9.28
252.583	7.68
252.798	7.78
253.014	6.53
253.229	6.41
253.445	7.2
253.66	7.95
253.875	6.69
254.091	6.29
254.306	5.34
254.521	5.42
254.737	5.31
254.952	6.55
255.167	5.96
255.383	7.03
255.598	6.98
255.813	6.28
256.028	5.88
256.244	5.78
256.459	6.34
256.674	6.9
256.889	6.76
257.104	6.66
257.32	6.6
257.535	6.14
257.75	5.8
257.965	5.83
258.18	6.32
258.395	6.55
258.61	6.6
258.826	6.11
259.041	6.13
259.256	6.29
259.471	6.24
259.686	6.25
259.901	6.98
260.116	7.27
260.331	7.48
260.546	7.11
260.761	6.66
260.976	7.12
261.191	7.61
261.406	7.11
261.621	6.69
261.836	7.16
262.05	6.89
262.265	6.05
262.48	6.09
262.695	5.87
262.91	5.88
263.125	6.24
263.34	6
263.555	5.81
263.769	6.5
263.984	6.92
264.199	6.98
264.414	7.13
264.629	6.76
264.843	7.05
265.058	7.09
265.273	7.29
265.488	6.95
265.702	6.45
265.917	6.34
266.132	6.43
266.346	6.23
266.561	5.92
266.776	5.63
266.99	5.48
267.205	5
267.42	5.3
267.634	4.75
267.849	5.23
268.063	5.91
268.278	6.29
268.492	6.19
268.707	5.93
268.922	6.2
269.136	6
269.351	6.4
269.565	6.35
269.78	5.99
269.994	5.69
270.209	6.02
270.423	5.5
270.637	5.07
270.852	5.36
271.066	5.69
271.281	5.86
271.495	5.9
271.709	6.03
271.924	6.03
272.138	6.18
272.353	6.83
272.567	6.27
272.781	6.54
272.996	6.45
273.21	5.91
273.424	5.67
273.638	5.21
273.853	5.31
274.067	5.24
274.281	5.85
274.495	5.59
274.71	5.56
274.924	5.85
275.138	6.12
275.352	6.16
275.566	6.49
275.781	6.49
275.995	6.56
276.209	6.85
276.423	6.77
276.637	6.02
276.851	6.28
277.065	6.63
277.279	6.25
277.493	5.8
277.707	5.71
277.921	5.55
278.135	5.51
278.349	5.49
278.563	5.13
278.777	4.98
278.991	4.85
279.205	4.97
279.419	4.27
279.633	4.83
279.847	5.07
280.061	5.13
280.275	5.13
280.489	5.27
280.703	5.38
280.917	5.22
281.131	5.19
281.344	5.79
281.558	5.66
281.772	5.82
281.986	5.03
282.2	5.02
282.414	5.59
282.627	5.42
282.841	4.95
283.055	5.16
283.269	5.6
283.482	5.58
283.696	5.3
283.91	4.94
284.123	4.89
284.337	5.38
284.551	5.58
284.764	4.97
284.978	5.06
285.192	5.38
285.405	4.72
285.619	4.56
285.833	5.17
286.046	5.63
286.26	5.72
286.473	5.63
286.687	5.49
286.9	4.88
287.114	5.55
287.327	5.51
287.541	5.17
287.754	5.45
287.968	5.46
288.181	4.89
288.395	4.36
288.608	4.42
288.822	4.53
289.035	4.4
289.248	4.62
289.462	4.39
289.675	4.43
289.889	4.79
290.102	4.78
290.315	4.86
290.529	4.91
290.742	4.97
290.955	4.81
291.169	4.97
291.382	5.12
291.595	4.62
291.808	4.76
292.022	4.97
292.235	4.84
292.448	4.95
292.661	4.93
292.875	5.17
293.088	5.12
293.301	5.05
293.514	5.24
293.727	5.49
293.94	5.9
294.153	5.63
294.367	5.52
294.58	5.77
294.793	5.72
295.006	5.64
295.219	5.65
295.432	5.69
295.645	5.9
295.858	5.74
296.071	5.48
296.284	5.56
296.497	5.43
296.71	5.39
296.923	5.05
297.136	4.9
297.349	4.84
297.562	4.69
297.775	5.08
297.988	5.18
298.201	5.2
298.414	4.99
298.626	4.79
298.839	5.03
299.052	4.96
299.265	5.48
299.478	5.83
299.691	5.75
299.903	5.76
300.116	5.03
300.329	4.84
300.542	4.98
300.755	5.02
300.967	5.44
301.18	5.14
301.393	5.43
301.605	5.14
301.818	5.23
302.031	5.71
302.243	5.25
302.456	5.56
302.669	5.54
302.881	5.36
303.094	5.4
303.307	5.38
303.519	5.4
303.732	5.28
303.944	5.32
304.157	4.85
304.37	4.84
304.582	5.03
304.795	4.92
305.007	4.77
305.22	4.64
305.432	4.89
305.645	4.81
305.857	5.66
306.069	5.94
306.282	5.86
306.494	6.21
306.707	5.85
306.919	5.87
307.132	5.63
307.344	5.81
307.556	5.96
307.769	5.91
307.981	5.89
308.193	5.44
308.406	5.31
308.618	5.25
308.83	5.19
309.043	5.09
309.255	4.98
309.467	5.29
309.679	5.65
309.892	5.61
310.104	5.56
310.316	5.52
310.528	5.53
310.74	5.43
310.953	5.51
311.165	5.56
311.377	6.02
311.589	6.39
311.801	6.57
312.013	6.06
312.225	6.14
312.437	6.34
312.649	6.47
312.862	6.54
313.074	6.56
313.286	6.8
313.498	6.84
313.71	6.74
313.922	6.67
314.134	6.04
314.346	6.2
314.558	6.16
314.77	6.32
314.982	5.87
315.193	6.19
315.405	6.31
315.617	6.1
315.829	6.15
316.041	5.93
316.253	5.73
316.465	5.88
316.677	5.79
316.888	5.95
317.1	5.68
317.312	6.73
317.524	6.67
317.736	6.88
317.947	6.78
318.159	7.1
318.371	6.62
318.583	7.1
318.794	7.36
319.006	7.75
319.218	7.75
319.43	7.73
319.641	7.33
319.853	7.15
320.064	6.56
320.276	6.73
320.488	6.4
320.699	6.77
320.911	6.51
321.123	6.62
321.334	6.3
321.546	6.34
321.757	6.21
321.969	6.05
322.18	5.78
322.392	6.1
322.603	6
322.815	6.24
323.026	6.65
323.238	6.53
323.449	6.6
323.661	6.81
323.872	6.81
324.083	7.21
324.295	7.06
324.506	7.09
324.718	7.24
324.929	7.27
325.14	7.33
325.352	6.96
325.563	7.31
325.774	7.58
325.986	7.93
326.197	7.74
326.408	7.54
326.62	7.66
326.831	7.93
327.042	7.96
327.253	7.96
327.464	7.66
327.676	8.19
327.887	8.2
328.098	7.48
328.309	7.11
328.52	7.48
328.732	7.97
328.943	8.31
329.154	8.56
329.365	8.58
329.576	9
329.787	9.04
329.998	8.62
330.209	8.9
330.42	9.71
330.631	9.6
330.842	9.42
331.053	9.28
331.264	8.77
331.475	9.02
331.686	8.69
331.897	8.61
332.108	9.04
332.319	9.07
332.53	8.52
332.741	8.08
332.952	8.27
333.163	8.55
333.374	8
333.585	7.98
333.795	7.63
334.006	7.82
334.217	7.68
334.428	7.26
334.639	7.52
334.849	7.98
335.06	8.01
335.271	7.99
335.482	7.67
335.692	7.95
335.903	7.95
336.114	7.86
336.325	7.95
336.535	7.95
336.746	7.92
336.957	7.5
337.167	7.25
337.378	6.97
337.589	6.59
337.799	6.39
338.01	6.38
338.22	6.56
338.431	6.48
338.642	6.3
338.852	6
339.063	6.02
339.273	6.26
339.484	6.57
339.694	6.99
339.905	7.52
340.115	7.67
340.326	7.51
340.536	7.58
340.746	7.7
340.957	8.13
341.167	8.4
341.378	8.47
341.588	8.4
341.799	8.32
342.009	8.11
342.219	7.78
342.43	7.78
342.64	7.91
342.85	7.42
343.061	7.35
343.271	7.05
343.481	6.75
343.691	6.8
343.902	6.75
344.112	6.55
344.322	6.6
344.532	7.01
344.743	7.1
344.953	7.04
345.163	7.64
345.373	7.56
345.583	7.73
345.793	8.11
346.004	8.15
346.214	8.13
346.424	7.97
346.634	8.24
346.844	7.64
347.054	7.74
347.264	7.93
347.474	7.89
347.684	7.48
347.894	7.12
348.104	6.68
348.314	6.85
348.524	6.85
348.734	7.22
348.944	6.89
349.154	7.05
349.364	6.84
349.574	6.66
349.784	6.48
349.994	7.05
350.204	7.13
350.413	7.58
350.623	7.25
350.833	6.99
351.043	6.76
351.253	6.93
351.463	7.05
351.672	6.94
351.882	6.93
352.092	6.78
352.302	6.99
352.511	7.11
352.721	7.03
352.931	7.06
353.141	7.47
353.35	7.45
353.56	7.47
353.77	7.22
353.979	7.31
354.189	7.4
354.399	7.54
354.608	7.36
354.818	7.08
355.027	7.08
355.237	7.16
355.447	7.25
355.656	7.26
355.866	7.18
356.075	7.28
356.285	7.35
356.494	7.4
356.704	7.52
356.913	7.49
357.123	7.5
357.332	7.32
357.542	7.13
357.751	6.63
357.96	6.31
358.17	6.14
358.379	6.5
358.589	6.5
358.798	6.56
359.007	6.48
359.217	6.67
359.426	6.77
359.635	6.84
359.845	6.92
360.054	7.22
360.263	7.51
360.472	7.59
360.682	7.23
360.891	7.03
361.1	6.99
361.309	7.08
361.519	6.88
361.728	6.93
361.937	6.91
362.146	6.84
362.355	6.73
362.564	6.65
362.774	6.48
362.983	6.62
363.192	6.9
363.401	7.03
363.61	6.87
363.819	6.92
364.028	6.93
364.237	7.02
364.446	7.1
364.655	6.96
364.864	6.91
365.073	7.33
365.282	7.23
365.491	7.02
365.7	6.71
365.909	6.69
366.118	6.66
366.327	6.67
366.536	6.83
366.745	6.59
366.954	6.61
367.162	6.6
367.371	6.14
367.58	6.18
367.789	6.1
367.998	6.13
368.207	6.08
368.415	6.31
368.624	6.32
368.833	6.14
369.042	6.03
369.25	6.08
369.459	6.09
369.668	6.18
369.877	6.14
370.085	6.35
370.294	6.16
370.503	6.34
370.711	5.95
370.92	5.96
371.129	5.98
371.337	6.2
371.546	6.31
371.754	6.47
371.963	6.4
372.171	6.37
372.38	6.33
372.589	6.33
372.797	6.04
373.006	6.2
373.214	5.99
373.423	5.62
373.631	5.52
373.84	5.63
374.048	5.33
374.256	5.47
374.465	5.64
374.673	5.78
374.882	5.73
375.09	5.92
375.298	5.65
375.507	5.67
375.715	5.88
375.923	5.84
376.132	5.56
376.34	5.69
376.548	5.64
376.757	5.76
376.965	5.58
377.173	5.62
377.381	5.48
377.59	5.72
377.798	5.47
378.006	5.3
378.214	5.33
378.423	5.31
378.631	5.31
378.839	5.59
379.047	5.38
379.255	5.39
379.463	5.4
379.671	5.48
379.879	5.48
380.088	5.82
380.296	5.98
380.504	6.02
380.712	6.13
380.92	6.1
381.128	5.73
381.336	5.62
381.544	5.47
381.752	5.39
381.96	5.25
382.168	5.19
382.376	5.03
382.584	5.14
382.791	5.14
382.999	5.09
383.207	5.02
383.415	5.2
383.623	5.11
383.831	5.23
384.039	5.44
384.247	5.43
384.454	5.4
384.662	5.3
384.87	5.18
385.078	5.02
385.285	5.07
385.493	5.05
385.701	4.91
385.909	4.92
386.116	4.91
386.324	4.74
386.532	4.81
386.739	4.82
386.947	4.98
387.155	5.09
387.362	5.27
387.57	5.34
387.778	5.28
387.985	5.53
388.193	5.68
388.4	5.7
388.608	5.74
388.816	5.58
389.023	5.53
389.231	5.3
389.438	5.25
389.646	5.23
389.853	5.17
390.061	5.24
390.268	5.09
390.475	5.09
390.683	5.07
390.89	5.15
391.098	5.12
391.305	5
391.512	5.15
391.72	5.17
391.927	5
392.135	4.97
392.342	4.88
392.549	4.74
392.756	4.76
392.964	4.7
393.171	4.63
393.378	4.54
393.586	4.61
393.793	4.56
394	4.61
394.207	4.76
394.414	4.7
394.622	4.65
394.829	4.65
395.036	4.32
395.243	4.49
395.45	4.44
395.657	4.57
395.864	4.37
396.072	4.33
396.279	3.78
396.486	3.81
396.693	3.94
396.9	4.18
397.107	4.38
397.314	4.77
397.521	4.72
397.728	4.61
397.935	4.67
398.142	4.95
398.349	4.92
398.556	5.18
398.763	5.35
398.97	5.22
399.177	5.09
399.383	4.93
399.59	4.73
399.797	4.57
400.004	4.77
400.211	4.86
400.418	4.65
400.625	4.66
400.831	4.46
401.038	3.97
401.245	3.85
401.452	3.76
401.658	3.61
401.865	3.51
402.072	3.46
402.279	3.43
402.485	3.22
402.692	3.46
402.899	3.71
403.105	4.04
403.312	4.21
403.519	4.3
403.725	4.34
403.932	4.38
404.138	4.55
404.345	4.52
404.552	4.55
404.758	4.75
404.965	4.75
405.171	4.51
405.378	4.4
405.584	4.39
405.791	4.38
405.997	4.48
406.204	4.58
406.41	4.54
406.617	4.6
406.823	4.45
407.029	4.33
407.236	4.28
407.442	4.27
407.649	4.23
407.855	4.41
408.061	4.46
408.268	4.24
408.474	4.18
408.68	4.05
408.887	4.19
409.093	4.19
409.299	4.18
409.505	4.06
409.712	4.05
409.918	4.17
410.124	3.83
410.33	3.87
410.537	3.96
410.743	3.95
410.949	3.87
411.155	3.7
411.361	3.89
411.567	3.95
411.773	4.06
411.98	4.09
412.186	3.79
412.392	3.92
412.598	3.68
412.804	3.75
413.01	3.84
413.216	3.9
413.422	3.92
413.628	3.73
413.834	3.64
414.04	3.63
414.246	3.72
414.452	3.78
414.658	3.8
414.864	3.86
415.07	3.94
415.275	3.88
415.481	3.94
415.687	3.92
415.893	4.01
416.099	4.07
416.305	3.97
416.511	3.89
416.716	3.85
416.922	3.82
417.128	3.79
417.334	3.7
417.539	3.62
417.745	3.47
417.951	3.45
418.157	3.37
418.362	3.29
418.568	3.33
418.774	3.36
418.979	3.39
419.185	3.41
419.391	3.44
419.596	3.44
419.802	3.46
420.008	3.5
420.213	3.46
420.419	3.52
420.624	3.55
420.83	3.48
421.035	3.42
421.241	3.49
421.446	3.43
421.652	3.49
421.857	3.48
422.063	3.45
422.268	3.48
422.474	3.54
422.679	3.57
422.885	3.54
423.09	3.51
423.295	3.49
423.501	3.45
423.706	3.45
423.911	3.42
424.117	3.43
424.322	3.53
424.527	3.53
424.733	3.47
424.938	3.37
425.143	3.42
425.349	3.46
425.554	3.44
425.759	3.45
425.964	3.5
426.169	3.45
426.375	3.44
426.58	3.3
426.785	3.46
426.99	3.48
427.195	3.42
427.4	3.35
427.605	3.38
427.811	3.49
428.016	3.4
428.221	3.38
428.426	3.44
428.631	3.31
428.836	3.42
429.041	3.21
429.246	3.34
429.451	3.45
429.656	3.56
429.861	3.55
430.066	3.37
430.271	3.53
430.476	3.6
430.681	3.5
430.886	3.6
431.09	3.5
431.295	3.57
431.5	3.46
431.705	3.38
431.91	3.29
432.115	3.33
432.32	3.4
432.524	3.28
432.729	3.25
432.934	3.22
433.139	3.25
433.343	3.33
433.548	3.24
433.753	3.3
433.958	3.32
434.162	3.26
434.367	3.25
434.572	3.32
434.776	3.35
434.981	3.41
435.186	3.53
435.39	3.53
435.595	3.54
435.799	3.72
436.004	3.63
436.209	3.67
436.413	3.65
436.618	3.66
436.822	3.66
437.027	3.71
437.231	3.66
437.436	3.65
437.64	3.65
437.845	3.64
438.049	3.57
438.253	3.54
438.458	3.52
438.662	3.53
438.867	3.49
439.071	3.46
439.275	3.39
439.48	3.43
439.684	3.38
439.888	3.26
440.093	3.23
440.297	3.18
440.501	3.22
440.706	3.18
440.91	3.17
441.114	3.23
441.318	3.15
441.523	3.16
441.727	3.15
441.931	3.1
442.135	3.21
442.339	3.21
442.543	3.22
442.748	3.24
442.952	3.28
443.156	3.39
443.36	3.31
443.564	3.33
443.768	3.29
443.972	3.14
444.176	3.22
444.38	3.13
444.584	3.16
444.788	3.07
444.992	3.08
445.196	3.1
445.4	3.07
445.604	3.12
445.808	3.13
446.012	3.12
446.216	3.22
446.42	3.22
446.624	3.31
446.828	3.31
447.032	3.42
447.235	3.42
447.439	3.41
447.643	3.35
447.847	3.33
448.051	3.34
448.254	3.43
448.458	3.47
448.662	3.42
448.866	3.34
449.069	3.28
449.273	3.3
449.477	3.27
449.681	3.28
449.884	3.37
450.088	3.34
450.292	3.25
450.495	3.28
450.699	3.23
450.902	3.23
451.106	3.28
451.31	3.34
451.513	3.28
451.717	3.29
451.92	3.3
452.124	3.24
452.327	3.14
452.531	3.3
452.734	3.2
452.938	3.14
453.141	3.04
453.345	3
453.548	2.83
453.752	2.82
453.955	2.81
454.158	2.72
454.362	2.75
454.565	2.83
454.769	2.82
454.972	2.77
455.175	2.88
455.379	2.99
455.582	2.97
455.785	3.1
455.988	3.09
456.192	3.12
456.395	3.07
456.598	3.11
456.801	3.13
457.005	3.14
457.208	3.16
457.411	3.11
457.614	3.12
457.817	3.11
458.021	3.07
458.224	3.04
458.427	2.94
458.63	3.01
458.833	2.94
459.036	2.92
459.239	2.89
459.442	2.94
459.645	2.91
459.848	2.89
460.051	2.85
460.254	2.9
460.457	2.96
460.66	3.12
460.863	3.06
461.066	3.09
461.269	3.07
461.472	3.14
461.675	3.13
461.878	3.17
462.081	3.22
462.284	3.32
462.486	3.32
462.689	3.31
462.892	3.23
463.095	3.25
463.298	3.36
463.5	3.31
463.703	3.2
463.906	3.09
464.109	3.12
464.311	3.1
464.514	3.11
464.717	3.14
464.92	3.21
465.122	3.2
465.325	3.24
465.528	3.15
465.73	3.18
465.933	3.2
466.135	3.26
466.338	3.32
466.541	3.3
466.743	3.29
466.946	3.24
467.148	3.22
467.351	3.2
467.553	3.18
467.756	3.2
467.958	3.36
468.161	3.37
468.363	3.34
468.566	3.25
468.768	3.33
468.971	3.25
469.173	3.4
469.375	3.45
469.578	3.54
469.78	3.58
469.983	3.49
470.185	3.37
470.387	3.35
470.59	3.42
470.792	3.49
470.994	3.41
471.196	3.43
471.399	3.22
471.601	3.14
471.803	2.95
472.005	2.96
472.208	2.95
472.41	2.93
472.612	2.97
472.814	2.93
473.016	2.88
473.218	2.8
473.421	2.89
473.623	2.9
473.825	2.93
474.027	3.06
474.229	3.13
474.431	3.11
474.633	3.18
474.835	3.2
475.037	3.2
475.239	3.2
475.441	3.31
475.643	3.33
475.845	3.35
476.047	3.33
476.249	3.39
476.451	3.26
476.653	3.3
476.855	3.2
477.057	3.1
477.258	3.11
477.46	3.15
477.662	3.08
477.864	3.03
478.066	3.09
478.268	3.13
478.469	3.07
478.671	3.09
478.873	3.21
479.075	3.2
479.276	3.19
479.478	3.19
479.68	3.18
479.882	3.24
480.083	3.25
480.285	3.22
480.487	3.19
480.688	3.23
480.89	3.2
481.091	3.17
481.293	3.23
481.495	3.27
481.696	3.22
481.898	3.19
482.099	3.17
482.301	3.16
482.502	3.16
482.704	3.14
482.905	3.12
483.107	3.14
483.308	3.12
483.51	3.11
483.711	3.08
483.913	3.12
484.114	3.14
484.315	3.16
484.517	3.16
484.718	3.17
484.92	3.17
485.121	3.21
485.322	3.22
485.524	3.22
485.725	3.2
485.926	3.24
486.127	3.21
486.329	3.2
486.53	3.2
486.731	3.19
486.932	3.18
487.134	3.18
487.335	3.16
487.536	3.16
487.737	3.19
487.938	3.17
488.139	3.16
488.341	3.17
488.542	3.2
488.743	3.16
488.944	3.22
489.145	3.27
489.346	3.3
489.547	3.3
489.748	3.26
489.949	3.27
490.15	3.24
490.351	3.26
490.552	3.23
490.753	3.2
490.954	3.23
491.155	3.19
491.356	3.13
491.557	3.15
491.758	3.14
491.959	3.15
492.159	3.13
492.36	3.21
492.561	3.18
492.762	3.27
492.963	3.37
493.164	3.39
493.364	3.43
493.565	3.46
493.766	3.39
493.967	3.43
494.167	3.48
494.368	3.49
494.569	3.46
494.769	3.47
494.97	3.42
495.171	3.43
495.371	3.41
495.572	3.41
495.773	3.45
495.973	3.45
496.174	3.42
496.375	3.39
496.575	3.38
496.776	3.36
496.976	3.33
497.177	3.31
497.377	3.26
497.578	3.24
497.778	3.19
497.979	3.2
498.179	3.33
498.38	3.33
498.58	3.4
498.78	3.46
498.981	3.53
499.181	3.6
499.382	3.66
499.582	3.61
499.782	3.68
499.983	3.79
500.183	3.76
500.383	3.74
500.584	3.79
500.784	3.77
500.984	3.78
501.184	3.75
501.385	3.81
501.585	3.81
501.785	3.86
501.985	3.76
502.185	3.64
502.386	3.62
502.586	3.67
502.786	3.75
502.986	3.77
503.186	3.73
503.386	3.79
503.586	3.77
503.786	3.83
503.987	3.76
504.187	3.76
504.387	3.89
504.587	4.07
504.787	4.02
504.987	3.87
505.187	3.93
505.387	3.95
505.587	3.96
505.786	3.9
505.986	3.86
506.186	4.01
506.386	4.13
506.586	4.19
506.786	4.13
506.986	4.15
507.186	4.2
507.386	4.12
507.585	4.14
507.785	4.18
507.985	4.22
508.185	4.29
508.384	4.25
508.584	4.26
508.784	4.24
508.984	4.22
509.183	4.21
509.383	4.25
509.583	4.34
509.782	4.39
509.982	4.38
510.182	4.42
510.381	4.41
510.581	4.44
510.781	4.52
510.98	4.49
511.18	4.49
511.379	4.52
511.579	4.56
511.778	4.53
511.978	4.52
512.177	4.58
512.377	4.69
512.576	4.68
512.776	4.72
512.975	4.64
513.175	4.68
513.374	4.76
513.573	4.79
513.773	4.85
513.972	4.87
514.172	4.94
514.371	4.91
514.57	4.82
514.77	4.84
514.969	4.87
515.168	4.92
515.367	4.92
515.567	4.93
515.766	5.08
515.965	5.06
516.164	5.07
516.364	5.05
516.563	5.02
516.762	5.08
516.961	5.12
517.16	5.13
517.359	5.18
517.559	5.21
517.758	5.18
517.957	5.14
518.156	5.11
518.355	5.2
518.554	5.26
518.753	5.36
518.952	5.37
519.151	5.39
519.35	5.37
519.549	5.27
519.748	5.28
519.947	5.28
520.146	5.23
520.345	5.36
520.544	5.29
520.743	5.24
520.942	5.19
521.141	5.17
521.339	5.15
521.538	5.2
521.737	5.33
521.936	5.43
522.135	5.47
522.333	5.55
522.532	5.56
522.731	5.61
522.93	5.63
523.129	5.71
523.327	5.75
523.526	5.78
523.725	5.83
523.923	5.81
524.122	5.78
524.321	5.84
524.519	5.84
524.718	5.87
524.917	5.85
525.115	5.92
525.314	5.93
525.512	6.01
525.711	6.07
525.909	6.13
526.108	6.18
526.306	6.19
526.505	6.21
526.703	6.23
526.902	6.24
527.1	6.27
527.299	6.26
527.497	6.27
527.696	6.24
527.894	6.22
528.092	6.2
528.291	6.2
528.489	6.27
528.688	6.27
528.886	6.28
529.084	6.28
529.283	6.29
529.481	6.28
529.679	6.3
529.877	6.34
530.076	6.39
530.274	6.41
530.472	6.44
530.67	6.41
530.869	6.42
531.067	6.43
531.265	6.51
531.463	6.56
531.661	6.61
531.859	6.64
532.057	6.68
532.255	6.72
532.454	6.74
532.652	6.82
532.85	6.81
533.048	6.88
533.246	6.93
533.444	6.91
533.642	6.94
533.84	6.99
534.038	7.01
534.236	7
534.434	7.01
534.632	7.07
534.83	7.06
535.027	7.11
535.225	7.12
535.423	7.19
535.621	7.23
535.819	7.27
536.017	7.27
536.215	7.3
536.412	7.35
536.61	7.36
536.808	7.39
537.006	7.4
537.203	7.41
537.401	7.45
537.599	7.45
537.797	7.46
537.994	7.46
538.192	7.49
538.39	7.52
538.587	7.53
538.785	7.53
538.983	7.53
539.18	7.55
539.378	7.55
539.575	7.54
539.773	7.52
539.97	7.54
540.168	7.59
540.366	7.66
540.563	7.7
540.761	7.74
540.958	7.8
541.155	7.84
541.353	7.88
541.55	7.93
541.748	7.99
541.945	8.01
542.143	8.08
542.34	8.1
542.537	8.08
542.735	8.1
542.932	8.15
543.129	8.18
543.327	8.26
543.524	8.3
543.721	8.33
543.919	8.35
544.116	8.47
544.313	8.5
544.51	8.52
544.708	8.57
544.905	8.69
545.102	8.76
545.299	8.81
545.496	8.79
545.693	8.88
545.891	8.97
546.088	9.05
546.285	9.11
546.482	9.18
546.679	9.25
546.876	9.33
547.073	9.32
547.27	9.3
547.467	9.33
547.664	9.42
547.861	9.4
548.058	9.48
548.255	9.43
548.452	9.43
548.649	9.52
548.846	9.61
549.043	9.69
549.24	9.78
549.437	9.88
549.633	9.93
549.83	9.94
550.027	9.93
550.224	9.97
550.421	10
550.618	10.07
550.814	9.99
551.011	9.94
551.208	9.91
551.405	9.9
551.601	9.85
551.798	9.86
551.995	9.97
552.191	10.03
552.388	10.07
552.585	10.21
552.781	10.18
552.978	10.28
553.175	10.43
553.371	10.53
553.568	10.56
553.764	10.7
553.961	10.84
554.157	10.87
554.354	10.91
554.55	10.93
554.747	10.91
554.943	10.96
555.14	10.94
555.336	10.84
555.533	10.9
555.729	10.9
555.926	10.94
556.122	10.91
556.318	10.9
556.515	10.97
556.711	11.04
556.907	11.07
557.104	11.05
557.3	11.22
557.496	11.34
557.693	11.4
557.889	11.55
558.085	11.52
558.281	11.54
558.478	11.62
558.674	11.78
558.87	11.81
559.066	11.93
559.262	12.1
559.459	12.12
559.655	12.19
559.851	12.24
560.047	12.22
560.243	12.32
560.439	12.45
560.635	12.49
560.831	12.51
561.027	12.68
561.223	12.67
561.419	12.69
561.615	12.72
561.811	12.9
562.007	12.94
562.203	13.08
562.399	13.18
562.595	13.18
562.791	13.26
562.987	13.27
563.183	13.28
563.379	13.37
563.575	13.48
563.771	13.56
563.966	13.45
564.162	13.47
564.358	13.46
564.554	13.5
564.75	13.55
564.945	13.54
565.141	13.62
565.337	13.66
565.533	13.71
565.728	13.81
565.924	13.82
566.12	13.9
566.315	13.94
566.511	14
566.707	14.07
566.902	14.24
567.098	14.29
567.293	14.38
567.489	14.38
567.684	14.46
567.88	14.41
568.076	14.48
568.271	14.56
568.467	14.55
568.662	14.65
568.858	14.65
569.053	14.68
569.248	14.84
569.444	14.96
569.639	15.02
569.835	15.06
570.03	15.1
570.225	15.14
570.421	15.15
570.616	15.3
570.812	15.33
571.007	15.36
571.202	15.33
571.397	15.36
571.593	15.25
571.788	15.34
571.983	15.34
572.178	15.41
572.374	15.53
572.569	15.6
572.764	15.58
572.959	15.67
573.154	15.74
573.35	15.79
573.545	15.8
573.74	15.87
573.935	15.95
574.13	16.03
574.325	16.15
574.52	16.15
574.715	16.21
574.91	16.39
575.105	16.35
575.3	16.47
575.495	16.54
575.69	16.69
575.885	16.82
576.08	16.76
576.275	16.8
576.47	16.73
576.665	16.68
576.86	16.78
577.055	16.74
577.25	16.77
577.444	16.72
577.639	16.81
577.834	16.76
578.029	16.7
578.224	16.79
578.418	16.83
578.613	16.97
578.808	17.02
579.003	16.96
579.197	16.98
579.392	17.07
579.587	17.13
579.781	17.21
579.976	17.14
580.171	17.34
580.365	17.29
580.56	17.35
580.755	17.34
580.949	17.5
581.144	17.52
581.338	17.53
581.533	17.64
581.727	17.66
581.922	17.64
582.116	17.78
582.311	17.75
582.505	17.8
582.7	17.83
582.894	17.93
583.089	17.84
583.283	17.86
583.478	17.87
583.672	17.87
583.866	17.84
584.061	17.88
584.255	17.8
584.449	17.84
584.644	17.97
584.838	17.93
585.032	17.88
585.226	17.95
585.421	18.01
585.615	18.01
585.809	18.02
586.003	18.19
586.198	18.17
586.392	18.29
586.586	18.31
586.78	18.27
586.974	18.34
587.168	18.36
587.363	18.38
587.557	18.38
587.751	18.53
587.945	18.66
588.139	18.61
588.333	18.69
588.527	18.7
588.721	18.72
588.915	18.92
589.109	18.93
589.303	18.96
589.497	18.98
589.691	19.17
589.885	19.18
590.079	18.98
590.273	18.97
590.466	19.01
590.66	18.89
590.854	18.93
591.048	18.88
591.242	18.79
591.436	18.9
591.629	19.01
591.823	18.89
592.017	18.9
592.211	18.96
592.404	19.01
592.598	19.09
592.792	19.26
592.986	19.25
593.179	19.17
593.373	19.4
593.567	19.35
593.76	19.28
593.954	19.36
594.147	19.31
594.341	19.5
594.535	19.58
594.728	19.58
594.922	19.62
595.115	19.65
595.309	19.77
595.502	19.64
595.696	19.59
595.889	19.67
596.083	19.71
596.276	19.64
596.47	19.67
596.663	19.65
596.856	19.56
597.05	19.63
597.243	19.74
597.437	19.71
597.63	19.84
597.823	19.97
598.017	20.03
598.21	19.98
598.403	20.23
598.596	20.11
598.79	20.04
598.983	20.21
599.176	20.09
599.369	19.98
599.563	19.96
599.756	20.05
599.949	20
600.142	19.95
600.335	19.92
600.528	19.92
600.722	20.02
600.915	20.17
601.108	20.13
601.301	20.18
601.494	20.27
601.687	20.27
601.88	20.21
602.073	20.3
602.266	20.29
602.459	20.38
602.652	20.26
602.845	20.2
603.038	20.35
603.231	20.38
603.424	20.35
603.617	20.36
603.809	20.4
604.002	20.45
604.195	20.42
604.388	20.49
604.581	20.6
604.774	20.77
604.966	20.84
605.159	20.73
605.352	20.72
605.545	20.8
605.737	20.9
605.93	21.09
606.123	21.27
606.316	21.27
606.508	21.31
606.701	21.21
606.894	21.22
607.086	21.42
607.279	21.51
607.471	21.5
607.664	21.4
607.857	21.3
608.049	21.18
608.242	21.05
608.434	21.06
608.627	21.11
608.819	21.13
609.012	21.09
609.204	20.96
609.397	20.95
609.589	20.99
609.782	21.12
609.974	21.1
610.166	21.06
610.359	21.11
610.551	21.09
610.743	21.06
610.936	21.12
611.128	21.29
611.32	21.31
611.513	21.18
611.705	21.09
611.897	20.99
612.09	21.03
612.282	21.1
612.474	21.25
612.666	21.41
612.858	21.38
613.051	21.32
613.243	21.16
613.435	21.31
613.627	21.39
613.819	21.65
614.011	21.79
614.203	21.76
614.395	21.85
614.588	21.78
614.78	21.72
614.972	21.63
615.164	21.72
615.356	21.8
615.548	21.74
615.74	21.71
615.932	21.5
616.124	21.42
616.315	21.51
616.507	21.3
616.699	21.31
616.891	21.2
617.083	21.42
617.275	21.55
617.467	21.52
617.659	21.45
617.85	21.5
618.042	21.42
618.234	21.53
618.426	21.6
618.618	21.82
618.809	21.72
619.001	21.74
619.193	21.62
619.384	21.35
619.576	21.39
619.768	21.56
619.959	21.46
620.151	21.75
620.343	21.57
620.534	21.37
620.726	21.21
620.917	21.3
621.109	21.38
621.301	21.42
621.492	21.51
621.684	21.47
621.875	21.23
622.067	21.34
622.258	21.02
622.45	21.27
622.641	21.45
622.832	21.71
623.024	21.71
623.215	21.76
623.407	21.76
623.598	21.89
623.789	21.88
623.981	21.99
624.172	22.11
624.363	22.17
624.555	22.03
624.746	22.13
624.937	21.99
625.129	21.93
625.32	21.89
625.511	21.87
625.702	21.93
625.893	22.03
626.085	22.11
626.276	22.07
626.467	22.27
626.658	22.44
626.849	22.25
627.04	22.21
627.231	22.27
627.422	22.32
627.614	22.38
627.805	22.25
627.996	22.29
628.187	22.1
628.378	22.03
628.569	22.05
628.76	21.93
628.951	22.11
629.142	22.29
629.332	22.21
629.523	22.27
629.714	22.36
629.905	22.65
630.096	22.66
630.287	22.78
630.478	22.94
630.669	22.96
630.859	23.15
631.05	23.2
631.241	23.09
631.432	23.18
631.623	23.21
631.813	23.25
632.004	23.2
632.195	23.27
632.385	23.39
632.576	23.38
632.767	23.34
632.957	23.38
633.148	23.37
633.339	23.47
633.529	23.55
633.72	23.7
633.91	23.64
634.101	23.49
634.292	23.29
634.482	23.33
634.673	23.27
634.863	23.24
635.054	23.12
635.244	23.19
635.435	23.09
635.625	22.98
635.815	22.8
636.006	22.71
636.196	22.51
636.387	22.59
636.577	22.49
636.767	22.57
636.958	22.65
637.148	22.67
637.338	22.32
637.529	22.43
637.719	22.59
637.909	22.64
638.099	22.89
638.29	23.14
638.48	23.36
638.67	23.46
638.86	23.52
639.05	23.49
639.241	23.55
639.431	23.93
639.621	23.91
639.811	23.73
640.001	23.72
640.191	23.51
640.381	23.34
640.571	23.07
640.761	23.01
640.951	23.15
641.141	23.38
641.331	23.13
641.521	22.94
641.711	23.15
641.901	23.19
642.091	23.12
642.281	23.26
642.471	23.42
642.661	23.61
642.851	23.61
643.041	23.5
643.231	23.27
643.42	23.38
643.61	23.34
643.8	23.29
643.99	23.3
644.18	23.22
644.369	23.12
644.559	23.19
644.749	23.02
644.939	23.12
645.128	23.02
645.318	22.93
645.508	23.05
645.697	23.23
645.887	23.1
646.076	23.29
646.266	23.39
646.456	23.39
646.645	23.3
646.835	23.59
647.024	23.76
647.214	23.59
647.403	23.65
647.593	23.64
647.782	23.62
647.972	23.53
648.161	23.4
648.351	23.5
648.54	23.62
648.73	23.81
648.919	23.9
649.108	23.68
649.298	23.9
649.487	23.89
649.677	23.97
649.866	23.86
650.055	24.08
650.244	24.16
650.434	24.14
650.623	24.37
650.812	24.2
651.002	23.88
651.191	24
651.38	23.81
651.569	23.96
651.758	23.95
651.947	24.31
652.137	24.23
652.326	23.99
652.515	24
652.704	23.85
652.893	23.74
653.082	23.84
653.271	23.8
653.46	23.97
653.649	24
653.838	24.03
654.027	23.85
654.216	23.83
654.405	24.07
654.594	24.29
654.783	24.15
654.972	24.25
655.161	24.27
655.35	24.06
655.539	24.22
655.728	24.07
655.916	24.19
656.105	24.28
656.294	24.4
656.483	24.41
656.672	24.54
656.86	24.54
657.049	24.51
657.238	24.6
657.427	24.57
657.615	24.61
657.804	24.63
657.993	24.47
658.181	24.56
658.37	24.48
658.559	24.6
658.747	24.52
658.936	24.59
659.125	25.03
659.313	25.06
659.502	25.33
659.69	25.36
659.879	25.43
660.067	25.61
660.256	25.57
660.444	25.65
660.633	25.56
660.821	25.42
661.01	25.54
661.198	25.11
661.387	25.08
661.575	25.16
661.763	25.09
661.952	24.93
662.14	24.44
662.328	24.15
662.517	24.34
662.705	24.46
662.893	24.46
663.082	24.47
663.27	24.54
663.458	24.32
663.646	24.31
663.834	24.23
664.023	24.52
664.211	25.11
664.399	25.37
664.587	25.13
664.775	25.14
664.963	25.34
665.152	25.4
665.34	25.59
665.528	25.87
665.716	25.77
665.904	25.74
666.092	25.68
666.28	25.49
666.468	25.26
666.656	25.37
666.844	25.27
667.032	25.26
667.22	24.95
667.408	24.97
667.596	24.72
667.784	24.74
667.971	24.76
668.159	24.76
668.347	24.98
668.535	25.29
668.723	25.28
668.911	25.11
669.098	24.98
669.286	25.19
669.474	25.03
669.662	25.28
669.849	25.34
670.037	25.62
670.225	25.56
670.413	25.49
670.6	25.57
670.788	25.55
670.976	25.79
671.163	25.84
671.351	25.74
671.538	25.7
671.726	25.49
671.913	25.27
672.101	24.93
672.289	24.96
672.476	24.91
672.664	24.59
672.851	24.48
673.039	24.53
673.226	24.44
673.413	24.53
673.601	24.63
673.788	24.97
673.976	25.18
674.163	25.5
674.35	25.64
674.538	25.85
674.725	26
674.912	26.24
675.1	26.39
675.287	26.57
675.474	26.81
675.662	26.93
675.849	26.79
676.036	26.93
676.223	26.65
676.411	26.66
676.598	26.41
676.785	26.21
676.972	26.04
677.159	25.91
677.346	25.81
677.533	25.81
677.721	25.81
677.908	25.89
678.095	25.85
678.282	25.79
678.469	25.89
678.656	25.91
678.843	26.15
679.03	26.51
679.217	26.62
679.404	26.83
679.591	26.51
679.778	26.53
679.964	26.49
680.151	26.4
680.338	26.45
680.525	26.37
680.712	26.24
680.899	26.09
681.086	25.69
681.272	25.69
681.459	25.52
681.646	25.61
681.833	25.61
682.02	25.57
682.206	25.64
682.393	25.85
682.58	25.84
682.766	26.08
682.953	25.92
683.14	26.09
683.326	26.14
683.513	26.13
683.7	26.17
683.886	25.93
684.073	25.84
684.259	25.89
684.446	25.96
684.632	25.91
684.819	25.82
685.005	26.16
685.192	26.21
685.378	26.15
685.565	25.84
685.751	25.87
685.938	26.26
686.124	26.57
686.31	26.43
686.497	26.43
686.683	26.64
686.87	26.8
687.056	26.89
687.242	26.93
687.429	26.83
687.615	26.99
687.801	27.28
687.987	27.09
688.174	26.79
688.36	26.89
688.546	26.77
688.732	26.72
688.918	26.6
689.105	26.44
689.291	26.55
689.477	26.55
689.663	26.98
689.849	26.89
690.035	26.72
690.221	26.93
690.407	27.16
690.593	27.44
690.779	27.61
690.965	27.59
691.151	27.55
691.337	27.46
691.523	27.32
691.709	27.34
691.895	27.15
692.081	27.29
692.267	27.2
692.453	27
692.639	26.99
692.825	26.83
693.011	26.85
693.196	26.85
693.382	26.7
693.568	26.92
693.754	26.51
693.94	26.7
694.125	26.81
694.311	26.72
694.497	26.78
694.682	26.75
694.868	26.51
695.054	26.45
695.239	26.56
695.425	26.6
695.611	26.55
695.796	26.57
695.982	26.61
696.168	26.61
696.353	26.58
696.539	26.53
696.724	26.56
696.91	26.46
697.095	26.69
697.281	26.62
697.466	26.82
697.652	26.98
697.837	27.29
698.023	27.4
698.208	27.5
698.393	27.59
698.579	27.53
698.764	27.37
698.949	27.68
699.135	27.63
699.32	27.94
699.505	27.86
699.691	27.93
699.876	27.68
700.061	27.55
700.246	27.48
700.432	27.5
700.617	27.73
700.802	27.98
700.987	27.97
701.172	27.99
701.358	27.71
701.543	27.74
701.728	27.45
701.913	27.65
702.098	27.51
702.283	27.32
702.468	27.06
702.653	26.87
702.838	26.51
703.023	26.39
703.208	26.45
703.393	26.57
703.578	26.7
703.763	26.5
703.948	26.6
704.133	26.63
704.318	26.56
704.503	26.97
704.688	27.1
704.873	27.22
705.057	27.48
705.242	27.09
705.427	27.05
705.612	27.01
705.797	27.56
705.981	27.66
706.166	27.8
706.351	28.08
706.536	27.98
706.72	27.83
706.905	27.73
707.09	27.65
707.274	28
707.459	27.79
707.644	27.88
707.828	27.72
708.013	27.49
708.197	27.53
708.382	27.74
708.567	27.89
708.751	27.77
708.936	28.05
709.12	28.16
709.305	27.96
709.489	28.26
709.673	27.85
709.858	27.59
710.042	27.31
710.227	27.09
710.411	26.89
710.596	26.91
710.78	27.33
710.964	27.13
711.149	27.1
711.333	27.37
711.517	27.7
711.702	27.82
711.886	27.94
712.07	28.02
712.254	28.08
712.438	28.35
712.623	28.44
712.807	28.33
712.991	28.45
713.175	28.25
713.359	28.23
713.544	27.96
713.728	28.3
713.912	28.42
714.096	28.33
714.28	28.49
714.464	28.05
714.648	27.84
714.832	27.87
715.016	27.86
715.2	27.87
715.384	27.84
715.568	27.62
715.752	27.27
715.936	27.08
716.12	27.4
716.304	27.56
716.488	28.18
716.671	28.43
716.855	28.25
717.039	28.04
717.223	28.04
717.407	27.73
717.59	28.27
717.774	28.59
717.958	28.85
718.142	28.8
718.325	28.77
718.509	28.35
718.693	27.9
718.877	28.21
719.06	28.62
719.244	28.28
719.428	28.84
719.611	28.7
719.795	28.35
719.978	28.46
720.162	28.27
720.345	28.19
720.529	28.13
720.713	28.49
720.896	28.35
721.08	28.63
721.263	28.94
721.446	28.8
721.63	28.67
721.813	28.41
721.997	28.24
722.18	28.17
722.364	27.92
722.547	27.3
722.73	26.91
722.914	26.17
723.097	25.83
723.28	26.12
723.464	25.73
723.647	25.66
723.83	25.86
724.013	25.8
724.197	26.18
724.38	25.94
724.563	26.43
724.746	26.5
724.929	27.12
725.112	26.98
725.296	27.14
725.479	27.5
725.662	27.16
725.845	27.19
726.028	27.08
726.211	27
726.394	27.16
726.577	27.15
726.76	27.34
726.943	27.28
727.126	27.39
727.309	26.9
727.492	26.96
727.675	26.78
727.858	27.28
728.041	27.34
728.224	27.6
728.407	28.33
728.589	28.28
728.772	27.97
728.955	28.08
729.138	28.3
729.321	28.42
729.503	28.24
729.686	28.64
729.869	28.58
730.052	28.64
730.234	28.22
730.417	27.56
730.6	28.02
730.782	28.23
730.965	28.39
731.148	27.77
731.33	27.87
731.513	27.78
731.695	28.1
731.878	28.21
732.061	28.46
732.243	28.31
732.426	28.64
732.608	28.44
732.791	28.77
732.973	28.78
733.156	29.28
733.338	29.24
733.52	29.5
733.703	29.05
733.885	28.8
734.068	28.77
734.25	28.8
734.432	28.44
734.615	28.74
734.797	28.28
734.979	27.88
735.162	27.55
735.344	27.67
735.526	26.92
735.708	27.07
735.891	26.78
736.073	26.48
736.255	26.82
736.437	27.06
736.619	27.01
736.802	27.19
736.984	27.98
737.166	28.15
737.348	28.41
737.53	29.35
737.712	29.38
737.894	29.73
738.076	29.93
738.258	30.31
738.44	30.16
738.622	29.98
738.804	30.14
738.986	29.64
739.168	29.31
739.35	29.07
739.532	28.52
739.714	28.37
739.896	28.53
740.078	28.43
740.259	28.27
740.441	28.46
740.623	27.97
740.805	27.82
740.987	27.06
741.168	27.66
741.35	28.15
741.532	28.37
741.714	29.01
741.895	28.13
742.077	28.19
742.259	28.08
742.44	28.13
742.622	28.96
742.804	28.71
742.985	29.64
743.167	29.48
743.348	29.16
743.53	29.46
743.711	29.18
743.893	30.22
744.075	30.21
744.256	29.97
744.438	30.29
744.619	29.8
744.8	30.07
744.982	30.07
745.163	30.21
745.345	29.39
745.526	29.47
745.707	29.32
745.889	29.23
746.07	29.4
746.252	29.56
746.433	29
746.614	28.93
746.795	28.93
746.977	28.83
747.158	28.79
747.339	29.88
747.52	29.48
747.702	29.33
747.883	29.44
748.064	29.33
748.245	29.12
748.426	29.04
748.607	28.8
748.788	28.66
748.97	28.26
749.151	28.24
749.332	28.23
749.513	28.15
749.694	28.55
749.875	28.27
750.056	28.6
750.237	28.64
750.418	28.15
750.599	28.9
750.78	29.04
750.96	29.66
751.141	29.44
751.322	28.86
751.503	29.02
751.684	28.91
751.865	28.83
752.046	28.78
752.226	29.07
752.407	29.96
752.588	29.66
752.769	29.99
752.949	29.82
753.13	30.43
753.311	30.76
753.492	30.89
753.672	30.39
753.853	30.75
754.034	30.84
754.214	30.21
754.395	30.02
754.575	30.22
754.756	29.89
754.937	29.83
755.117	28.73
755.298	28.87
755.478	28.64
755.659	28.82
755.839	28.16
756.02	27.65
756.2	27.86
756.381	27.53
756.561	27.26
756.741	27
756.922	26.89
757.102	27.26
757.283	27.24
757.463	27.31
757.643	27.64
757.823	27.87
758.004	27.93
758.184	28.56
758.364	28.92
758.545	28.93
758.725	29.54
758.905	29.16
759.085	29.62
759.265	30.12
759.446	30.31
759.626	30.34
759.806	30.23
759.986	30.39
760.166	30.57
760.346	30.31
760.526	30.46
760.706	31.02
760.886	31.27
761.066	31.4
761.246	31.01
761.426	30.89
761.606	30.59
761.786	30.62
761.966	30.72
762.146	30.2
762.326	29.93
762.506	29.82
762.686	29.2
762.866	29.49
763.046	28.9
763.225	28.85
763.405	28.35
763.585	27.99
763.765	28.15
763.945	27.98
764.124	28.26
764.304	28.7
764.484	28.81
764.664	28.41
764.843	28.81
765.023	28.24
765.203	28.39
765.382	28.82
765.562	29.52
765.741	28.9
765.921	28.74
766.101	28.01
766.28	27.64
766.46	27.01
766.639	27.34
766.819	26.56
766.998	27.52
767.178	27.11
767.357	27.63
767.537	28.12
767.716	28.58
767.896	28.66
768.075	29.25
768.254	29.43
768.434	29.66
768.613	29.6
768.792	29.7
768.972	29.9
769.151	30.04
769.33	29.22
769.51	28.97
769.689	28.82
769.868	29.25
770.047	29.28
770.226	28.92
770.406	28.25
770.585	28.25
770.764	28.38
770.943	28.68
771.122	28.8
771.301	29.06
771.48	27.94
771.66	28.23
771.839	27.09
772.018	27.47
772.197	27.19
772.376	28.58
772.555	28.74
772.734	29.31
772.913	29
773.092	28.74
773.271	28.75
773.449	29.43
773.628	29.91
773.807	30.73
773.986	30.15
774.165	30.96
774.344	30.61
774.523	31.15
774.701	30.49
774.88	30.66
775.059	29.38
775.238	29.45
775.417	29.67
775.595	29.05
775.774	28.92
775.953	29.17
776.131	29.37
776.31	29.4
776.489	29.47
776.667	29.01
776.846	28.69
777.025	29
777.203	29.96
777.382	29.37
777.56	29.17
777.739	28.93
777.917	28.98
778.096	28.83
778.274	28.69
778.453	28.09
778.631	28.76
778.81	29.05
778.988	30.47
779.166	30.11
779.345	29.06
779.523	28.88
779.702	29.83
779.88	29.28
780.058	28.66
780.237	28.7
780.415	29.14
780.593	29.09
780.771	30.08
780.95	29.83
781.128	29.45
781.306	30.24
781.484	30.72
781.662	29.68
781.841	30.65
782.019	30.13
782.197	30.09
782.375	29.71
782.553	28.33
782.731	28.26
782.909	28.31
783.087	27.4
783.265	28.41
783.443	28.64
783.621	29.64
783.799	28.94
783.977	30.37
784.155	30.71
784.333	30.93
784.511	32.15
784.689	31.56
784.867	30.72
785.045	31.68
785.223	31.19
785.4	31
785.578	30.44
785.756	30.49
785.934	29.81
786.112	29.53
786.289	29.91
786.467	29.26
786.645	29.27
786.823	29.95
787	29.96
787.178	30.18
787.356	30.43
787.533	31.34
787.711	30.8
787.889	31.07
788.066	30.8
788.244	30.9
788.421	31.12
788.599	31.3
788.776	30.84
788.954	30.93
789.131	30.49
789.309	30.06
789.486	28.03
789.664	28.82
789.841	28.78
790.019	29.11
790.196	28.47
790.373	29.03
790.551	28.35
790.728	28.92
790.906	29.2
791.083	28.93
791.26	29.62
791.437	31.63
791.615	31.66
791.792	32.32
791.969	32.64
792.146	32.57
792.324	31.83
792.501	32.03
792.678	31.39
792.855	31.25
793.032	32.05
793.209	32.17
793.387	31.82
793.564	31.27
793.741	30.62
793.918	30.06
794.095	30.15
794.272	29.64
794.449	29.29
794.626	28.97
794.803	28.04
794.98	27.61
795.157	27.15
795.334	27.17
795.511	27.74
795.688	28.2
795.864	28.41
796.041	27.99
796.218	28.7
796.395	28.5
796.572	29.23
796.749	29.52
796.925	30.15
797.102	30.57
797.279	30.06
797.456	29.85
797.632	28.7
797.809	29.05
797.986	30.02
798.162	30.85
798.339	31.61
798.516	31.71
798.692	32.69
798.869	32.17
799.046	31.69
799.222	32.87
799.399	32.59
799.575	32.93
799.752	32.49
799.928	32.2
800.105	31.26
800.281	30.3
800.458	30.68
800.634	30.04
800.811	30.11
800.987	29.86
801.163	29.18
801.34	29.45
801.516	29.99
801.692	31.61
801.869	31.74
802.045	32.37
802.221	33.92
802.398	33.47
802.574	33.49
802.75	33.72
802.926	34.22
803.103	33.24
803.279	34.51
803.455	34.59
803.631	34.41
803.807	34.11
803.983	32.92
804.16	32.6
804.336	31.62
804.512	30.84
804.688	31.05
804.864	31.67
805.04	31.73
805.216	30.68
805.392	30.8
805.568	29.3
805.744	29.29
805.92	31.55
806.096	29.95
806.272	30.54
806.448	30.92
806.623	30.64
806.799	29.81
806.975	29.15
807.151	28.07
807.327	27.68
807.503	28.64
807.678	29.58
807.854	28.57
808.03	29.58
808.206	30.31
808.381	29.86
808.557	29.53
808.733	30.08
808.908	31.09
809.084	32.69
809.26	32.28
809.435	32.56
809.611	31.75
809.787	31.4
809.962	32.45
810.138	32.2
810.313	33.46
810.489	33.21
810.664	32.99
810.84	33.04
811.015	32.39
811.191	32.87
811.366	32.62
811.542	32.61
811.717	33.71
811.892	32.16
812.068	31.13
812.243	30.54
812.419	30.95
812.594	30.38
812.769	31.96
812.944	31.61
813.12	32.63
813.295	32.97
813.47	34.16
813.645	33.27
813.821	33.54
813.996	33.59
814.171	32.32
814.346	33.29
814.521	34.89
814.697	32.73
814.872	34.31
815.047	33.9
815.222	33.39
815.397	31.72
815.572	32.07
815.747	32.95
815.922	32.69
816.097	34.19
816.272	34.07
816.447	33.29
816.622	34.8
816.797	33.11
816.972	32.43
817.147	32.35
817.322	32.74
817.496	31.26
817.671	31.44
817.846	32.59
818.021	31.42
818.196	31.3
818.371	31.39
818.545	29.71
818.72	29.64
818.895	30.4
819.069	29.5
819.244	29.76
819.419	30.5
819.594	30.49
819.768	30.87
819.943	31.43
820.117	31.64
820.292	31.73
820.467	31.78
820.641	32.18
820.816	31.83
820.99	31.93
821.165	31.76
821.339	31.83
821.514	31.42
821.688	31.37
821.863	31.22
822.037	30.96
822.212	30.74
822.386	30.84
822.56	30.73
822.735	30.57
822.909	30.54
823.084	30.68
823.258	30.55
823.432	30.7
823.606	30.6
823.781	30.54
823.955	30.53
824.129	30.55
824.303	30.64
824.478	30.74
824.652	30.84
824.826	31.09
825	31.15
825.174	31.16
825.348	30.99
825.523	30.63
825.697	30.9
825.871	31.22
826.045	31.4
826.219	31.15
826.393	30.9
826.567	31.31
826.741	31.59
826.915	30.98
827.089	31.17
827.263	31.34
827.437	31.44
827.611	31.33
827.784	31.15
827.958	31.07
828.132	31.14
828.306	31.49
828.48	31.17
828.654	30.34
828.827	31.08
829.001	31.17
829.175	31.02
829.349	31.09
829.522	31.25
829.696	30.49
829.87	30.22
830.044	30.73
830.217	31.06
830.391	30.66
830.565	31.27
830.738	30.56
830.912	30.28
831.085	30.45
831.259	30.7
831.432	30.19
831.606	31.66
831.779	31.7
831.953	31.84
832.126	31.04
832.3	31
832.473	31.07
832.647	31.45
832.82	31.2
832.994	32.15
833.167	32.49
833.34	32.66
833.514	31.97
833.687	31.81
833.86	30.93
834.034	30.44
834.207	30.74
834.38	30.31
834.553	30.29
834.727	30.36
834.9	29.74
835.073	29.72
835.246	28.67
835.419	28.97
835.593	28.83
835.766	29.51
835.939	30.64
836.112	30.05
836.285	30.76
836.458	30.12
836.631	30.27
836.804	29.79
836.977	29.84
837.15	31.98
837.323	31.88
837.496	31.94
837.669	34.12
837.842	33.48
838.015	33.65
838.188	33.27
838.361	34.44
838.533	34.58
838.706	35.85
838.879	35.28
839.052	34.09
839.225	35.04
839.398	35.72
839.57	33.88
839.743	34.39
839.916	35.54
840.088	35.79
840.261	35.39
840.434	35.71
840.607	34.33
840.779	33.47
840.952	35.34
841.124	36.17
841.297	37.08
841.47	37.37
841.642	37.84
841.815	38.76
841.987	37.82
842.16	38.39
842.332	37.82
842.505	37.11
842.677	37.37
842.85	36.25
843.022	34.58
843.194	32.99
843.367	31.99
843.539	31.53
843.712	31.14
843.884	31.5
844.056	30.31
844.229	30.01
844.401	32.26
844.573	34.13
844.745	31.56
844.918	32.2
845.09	34.16
845.262	35.08
845.434	35.01
845.606	35.19
845.779	38.71
845.951	40.82
846.123	41.95
846.295	43.5
846.467	41.65
846.639	47.38
846.811	46.1
846.983	45.75
847.155	44.43
847.327	45.07
847.499	40.66
847.671	37.64
847.843	36.3
848.015	40.79
848.187	38.94
848.359	40.93
848.531	37.12
848.703	37.23
848.875	33.22
849.047	32.57
849.218	30.84
849.39	34.03
849.562	32.22
849.734	29.98
849.905	27.13
850.077	26.76
850.249	23.95
850.421	26.03
850.592	27.43
850.764	26.38
850.936	27.81
851.107	27.28
851.279	27.43
851.451	29.29
851.622	27.3
851.794	25.71
851.965	27.03
852.137	27
852.308	28.89
852.48	28.3
852.651	33.95
852.823	31.23
852.994	32.48
853.166	30.65
853.337	35.09
853.509	38.84
853.68	37.34
853.851	38.64
854.023	39.83
854.194	36.26
854.365	36.64
854.537	34
854.708	39.84
854.879	37.4
855.05	40.5
855.222	36.2
855.393	35.09
855.564	39.56
855.735	40.52
855.906	40.95
856.078	40.7
856.249	40.86
856.42	41.4
856.591	41.98
856.762	46.86
856.933	50.55
857.104	51.57
857.275	48.99
857.446	47.68
857.617	44.87
857.788	45.84
857.959	47.97
858.13	46.86
858.301	50.45
858.472	46.62
858.643	44.17
858.814	39.73
858.985	38.63
859.155	41.93
859.326	37.22
859.497	37.06
859.668	35.96
859.839	32.35
860.009	33.01
860.18	32.05
860.351	33.65
860.522	28.46
860.692	27.59
860.863	30.1
861.034	30.93
861.204	32.41
861.375	33.03
861.546	34.98
861.716	40.34
861.887	37.95
862.057	35.36
862.228	32.53
862.398	33.93
862.569	38.35
862.739	39.69
862.91	34.74
863.08	37.34
863.251	35.02
863.421	31.76
863.592	27.79
863.762	28.52
863.932	29.31
864.103	33.18
864.273	36.86
864.443	38.58
864.614	33.93
864.784	35.96
864.954	34.64
865.125	35.94
865.295	38.09
865.465	38.72
865.635	40.37
865.805	42.94
865.976	42.26
866.146	40.61
866.316	38.56
866.486	40.96
866.656	42.28
866.826	46.74
866.996	43.44
867.166	41.22
867.336	40.33
867.506	36.23
867.676	30.25
867.846	25.09
868.016	25.29
868.186	21.99
868.356	16.57
868.526	12.63
868.696	1.58
868.866	4.2
869.036	15.11
869.206	14.39
869.376	22.98
869.545	20.64
869.715	23.97
869.885	27.51
870.055	28.22
870.224	32.9
870.394	34.76
870.564	39.57
870.734	35.46
870.903	26.46
871.073	28.63
871.243	24.77
871.412	30.57
871.582	31.3
871.751	32.86
871.921	33.81
872.091	31.75
872.26	36.92
872.43	34.03
872.599	41.81
872.769	45.2
872.938	42.14
873.108	43.06
873.277	40.29
873.446	39.88
873.616	41.28
873.785	43.33
873.955	45.3
874.124	40.88
874.293	41.1
874.463	38.61
874.632	38.94
874.801	38.62
874.971	35.19
875.14	34.53
875.309	34.27
875.478	32.46
875.647	32.11
875.817	29.37
875.986	32.67
876.155	34.13
876.324	33.17
876.493	29.42
876.662	28.35
876.831	31.97
877	34.77
877.17	34.51
877.339	29.98
877.508	32.14
877.677	30.02
877.846	24.56
878.015	24.48
878.184	28.65
878.352	30.04
878.521	31.57
878.69	30.98
878.859	28.74
879.028	30.01
879.197	32.62
879.366	30.19
879.534	32.11
879.703	33.27
879.872	32.88
880.041	31.01
880.21	32.49
880.378	32.6
880.547	32.59
880.716	33.69
880.884	31.95
881.053	31.96
881.222	31.85
881.39	32.46
881.559	33.43
881.727	33.99
881.896	33.31
882.065	32.56
882.233	32.96
882.402	33.15
882.57	32.96
882.739	33.64
882.907	32.95
883.076	33.06
883.244	32.45
883.412	31.74
883.581	31.45
883.749	32.06
883.918	32.38
884.086	32.4
884.254	32.88
884.423	33.75
884.591	33.5
884.759	35.06
884.927	34.52
885.096	34.48
885.264	34.82
885.432	34.31
885.6	33.38
885.769	32.93
885.937	31.7
886.105	30.83
886.273	30.68
886.441	30.85
886.609	27.95
886.777	27.49
886.945	29.69
887.113	32.49
887.281	34.81
887.449	36.9
887.617	38.62
887.785	41.96
887.953	42.26
888.121	40.62
888.289	41.6
888.457	43.92
888.625	43.57
888.793	43.25
888.961	40.74
889.129	39.35
889.296	39.84
889.464	38.68
889.632	35.92
889.8	34.14
889.967	33.36
890.135	35.55
