Data from 2938461_Reflection_3.txt Node
Date: Wed Jun 17 14:01:19 EDT 2015
User: robert
Spectrometer: USB4E03002
Autoset integration time: false
Trigger mode: 4
Integration Time (sec): 1.000000E-1
Scans to average: 10
Electric dark correction enabled: true
Nonlinearity correction enabled: false
Boxcar width: 5
Stray light correction enabled: false
XAxis mode: Wavelengths
Stop averaging: false
Number of Pixels in Spectrum: 3648
>>>>>Begin Spectral Data<<<<<
177.575	-171.71
177.794	-290.12
178.014	-155.67
178.233	-387.48
178.452	426.51
178.672	505.93
178.891	74.18
179.11	-151.85
179.33	1675.52
179.549	-7358.02
179.768	-779.83
179.987	-229.07
180.207	-1297.49
180.426	-436.3
180.645	374.21
180.864	275.47
181.084	293.38
181.303	290.43
181.522	294.36
181.741	515.03
181.96	313.9
182.179	350.11
182.398	274.8
182.618	216.5
182.837	241.12
183.056	842.96
183.275	588.47
183.494	660.97
183.713	544.11
183.932	3777.61
184.151	1463.15
184.37	708.93
184.589	385.02
184.808	380.11
185.027	1210.52
185.246	582.99
185.465	372.4
185.684	362.11
185.903	427.3
186.122	334.49
186.341	222.5
186.56	257.18
186.779	321.84
186.998	384.86
187.216	228.66
187.435	178.41
187.654	163.72
187.873	144.97
188.092	151.55
188.311	110.87
188.53	142.53
188.748	173.15
188.967	169.5
189.186	198.2
189.405	227.04
189.623	175.2
189.842	233.92
190.061	-2004.4
190.28	-171.06
190.498	-199.11
190.717	-1377.2
190.936	-454.69
191.154	-330.37
191.373	-287.62
191.592	-1867.18
191.81	455.34
192.029	-1254.01
192.248	1922.24
192.466	830.88
192.685	232.86
192.904	272.57
193.122	290.53
193.341	299.82
193.559	297.54
193.778	237.37
193.996	283.78
194.215	265.3
194.433	215.17
194.652	219.28
194.87	178.04
195.089	213.65
195.307	205.57
195.526	420.95
195.744	340.22
195.963	257.72
196.181	287.61
196.399	198.78
196.618	216.89
196.836	240.85
197.055	245.9
197.273	259.16
197.491	222.26
197.71	193.34
197.928	186.72
198.146	160.55
198.365	215.64
198.583	212.29
198.801	185.05
199.019	156.24
199.238	169.26
199.456	135.34
199.674	93.86
199.892	127.53
200.111	109.34
200.329	91.88
200.547	123.38
200.765	94.99
200.983	105.53
201.202	121.13
201.42	176.07
201.638	166.42
201.856	185.61
202.074	174.06
202.292	156.82
202.51	178.32
202.728	181.3
202.946	199.31
203.165	155.38
203.383	125.34
203.601	130.94
203.819	112.32
204.037	111.94
204.255	102.59
204.473	134.2
204.691	155.11
204.909	166.12
205.127	133.43
205.345	122.46
205.562	144.2
205.78	189.52
205.998	210.56
206.216	231.11
206.434	172.09
206.652	182.09
206.87	165.45
207.088	165.75
207.306	145.45
207.523	147.86
207.741	147.82
207.959	156.44
208.177	133.85
208.395	117.31
208.612	112.59
208.83	132.07
209.048	133.06
209.266	133.46
209.483	123.11
209.701	121.22
209.919	118.43
210.136	137.36
210.354	103.08
210.572	97.36
210.79	88.73
211.007	92.79
211.225	85.81
211.442	95.56
211.66	103.86
211.878	96.77
212.095	166.21
212.313	163.75
212.53	153.27
212.748	188.5
212.966	201.78
213.183	187.19
213.401	165.63
213.618	152.99
213.836	141.76
214.053	127.57
214.271	133.11
214.488	75.03
214.705	86.32
214.923	77.94
215.14	72.92
215.358	79.01
215.575	88.84
215.793	86.08
216.01	72.96
216.227	75.17
216.445	71.94
216.662	76.8
216.879	78.78
217.097	68.63
217.314	70.4
217.531	76.46
217.749	76.8
217.966	69.02
218.183	60.49
218.4	55.58
218.618	49.33
218.835	26.74
219.052	12.04
219.269	6.5
219.487	18.03
219.704	32.93
219.921	38.93
220.138	40.6
220.355	44.42
220.572	52.72
220.79	58.18
221.007	64.36
221.224	72.02
221.441	76.31
221.658	71.14
221.875	72.14
222.092	67.5
222.309	55.63
222.526	62.47
222.743	66.64
222.96	63.7
223.177	64.32
223.394	58.36
223.611	54.44
223.828	58.98
224.045	57.72
224.262	51.69
224.479	48.89
224.696	51.43
224.913	42.28
225.13	37.7
225.347	34.15
225.564	31.59
225.781	28.19
225.997	28.28
226.214	24.9
226.431	20.81
226.648	20.27
226.865	19.38
227.082	18.57
227.298	19.37
227.515	18.26
227.732	18.5
227.949	19.25
228.165	18.63
228.382	17.37
228.599	16.23
228.816	17.24
229.032	16.95
229.249	16.3
229.466	16.82
229.682	16.96
229.899	19.09
230.116	18.73
230.332	16.22
230.549	17.89
230.765	19.27
230.982	20.76
231.199	24.02
231.415	23.18
231.632	25.06
231.848	26
232.065	23.83
232.281	23.44
232.498	23.06
232.714	25.85
232.931	26.82
233.147	25.78
233.364	25.01
233.58	22.34
233.797	25.55
234.013	24.16
234.23	22.05
234.446	23.72
234.662	23.01
234.879	22.38
235.095	20.59
235.312	19.72
235.528	19.2
235.744	18.93
235.961	18.7
236.177	14.23
236.393	14.76
236.61	13.94
236.826	12.08
237.042	12.07
237.258	16.38
237.475	15.73
237.691	14.06
237.907	12.17
238.123	11.44
238.339	11.8
238.556	14.69
238.772	13.93
238.988	13.87
239.204	13.23
239.42	13.94
239.636	12.87
239.853	12.81
240.069	13.55
240.285	13.44
240.501	13.33
240.717	12.95
240.933	11.45
241.149	11.73
241.365	12.19
241.581	12.39
241.797	11.85
242.013	11
242.229	11.21
242.445	11.51
242.661	12.26
242.877	13.19
243.093	12.82
243.309	13.46
243.525	12.48
243.741	11.67
243.957	11.27
244.173	10.65
244.388	10.6
244.604	9.98
244.82	9.21
245.036	8.58
245.252	7.81
245.468	7.76
245.683	7.91
245.899	7.99
246.115	7.72
246.331	7.45
246.547	7.23
246.762	7.13
246.978	7.3
247.194	7.82
247.409	8.59
247.625	8.6
247.841	9.04
248.057	8.51
248.272	8.54
248.488	8.84
248.703	9.05
248.919	9.62
249.135	9.22
249.35	9.09
249.566	8.35
249.782	7.49
249.997	8.45
250.213	7.84
250.428	8.29
250.644	8.32
250.859	8.98
251.075	9.68
251.29	10.39
251.506	11.05
251.721	11.53
251.937	11.53
252.152	11.26
252.368	11.72
252.583	13.13
252.798	12.5
253.014	13.08
253.229	13.35
253.445	13.02
253.66	13.06
253.875	12.33
254.091	13.12
254.306	12.04
254.521	12.82
254.737	11.65
254.952	9.93
255.167	10.09
255.383	9.44
255.598	7.74
255.813	7.79
256.028	7.57
256.244	8.01
256.459	6.28
256.674	6.71
256.889	6.25
257.104	5.6
257.32	5.83
257.535	5.81
257.75	6.06
257.965	6.03
258.18	5.66
258.395	5.52
258.61	5.45
258.826	5.87
259.041	6.02
259.256	6.13
259.471	6.54
259.686	6.59
259.901	6.98
260.116	7.01
260.331	7.68
260.546	8.09
260.761	7.9
260.976	8.13
261.191	7.79
261.406	7.6
261.621	7.29
261.836	7.48
262.05	7.72
262.265	7.53
262.48	7.08
262.695	6.61
262.91	7.04
263.125	6.92
263.34	6.85
263.555	7.6
263.769	7.7
263.984	8.28
264.199	8.44
264.414	7.62
264.629	7.85
264.843	7.72
265.058	7.65
265.273	7.56
265.488	8.01
265.702	8.18
265.917	7.44
266.132	7.46
266.346	7.34
266.561	7.21
266.776	8.08
266.99	7.77
267.205	7.77
267.42	7.35
267.634	7.62
267.849	7.21
268.063	7.16
268.278	8.29
268.492	8.29
268.707	8.25
268.922	7.99
269.136	7.52
269.351	7.42
269.565	7.5
269.78	7.34
269.994	7.04
270.209	7.03
270.423	6.62
270.637	5.95
270.852	6.23
271.066	6.65
271.281	6.54
271.495	6.1
271.709	6.25
271.924	6.01
272.138	6.45
272.353	6.71
272.567	6.96
272.781	7.13
272.996	6.82
273.21	6.4
273.424	5.94
273.638	5.76
273.853	6.38
274.067	6.15
274.281	6.82
274.495	6.85
274.71	6.31
274.924	5.72
275.138	5.68
275.352	5.5
275.566	5.39
275.781	5.17
275.995	5.78
276.209	5.95
276.423	6.1
276.637	5.55
276.851	5.47
277.065	5.65
277.279	6.65
277.493	6.9
277.707	7.74
277.921	7.9
278.135	7.52
278.349	7
278.563	6.69
278.777	6.3
278.991	6.25
279.205	6.34
279.419	5.91
279.633	5.78
279.847	5.74
280.061	5.17
280.275	5.12
280.489	5.41
280.703	5.32
280.917	5.14
281.131	5.83
281.344	6.14
281.558	5.97
281.772	6.26
281.986	6.03
282.2	5.87
282.414	6.24
282.627	6.05
282.841	6.01
283.055	6.32
283.269	6.47
283.482	6.35
283.696	5.85
283.91	5.65
284.123	5.56
284.337	5.62
284.551	5.82
284.764	6.29
284.978	6.41
285.192	6.54
285.405	6.49
285.619	6.66
285.833	6.53
286.046	6.61
286.26	7.23
286.473	7.42
286.687	7.47
286.9	7.68
287.114	6.75
287.327	6.75
287.541	6.62
287.754	7.09
287.968	6.92
288.181	6.68
288.395	7.43
288.608	6.91
288.822	6.5
289.035	6.31
289.248	6.4
289.462	6.82
289.675	7.18
289.889	7.45
290.102	7
290.315	6.61
290.529	7.18
290.742	6.76
290.955	7.27
291.169	7.49
291.382	8.04
291.595	7.89
291.808	8.1
292.022	7.78
292.235	7.33
292.448	8.02
292.661	8.51
292.875	8.2
293.088	8.07
293.301	7.99
293.514	7.88
293.727	7.69
293.94	7.38
294.153	7.55
294.367	7.37
294.58	7.41
294.793	6.78
295.006	7.04
295.219	7.36
295.432	7.43
295.645	7.61
295.858	7.98
296.071	7.83
296.284	7.88
296.497	7.78
296.71	8.02
296.923	8.48
297.136	8.65
297.349	8.89
297.562	8.72
297.775	8.98
297.988	9.11
298.201	9.13
298.414	9.07
298.626	9.23
298.839	9.38
299.052	9.14
299.265	8.8
299.478	8.88
299.691	8.81
299.903	8.53
300.116	8.85
300.329	8.67
300.542	8.85
300.755	9.33
300.967	9.81
301.18	9.82
301.393	10.07
301.605	10.11
301.818	10.05
302.031	10.12
302.243	10.47
302.456	10.37
302.669	10.05
302.881	9.76
303.094	9.58
303.307	9.6
303.519	9.91
303.732	10.31
303.944	10.47
304.157	10.83
304.37	10.6
304.582	10.85
304.795	10.65
305.007	11.48
305.22	11.94
305.432	11.62
305.645	11.48
305.857	11.21
306.069	11.19
306.282	11.43
306.494	11.43
306.707	11.57
306.919	11.35
307.132	11.35
307.344	10.75
307.556	11.03
307.769	11.56
307.981	11.24
308.193	11.05
308.406	10.77
308.618	11.19
308.83	11.09
309.043	10.74
309.255	11.05
309.467	10.84
309.679	11.16
309.892	11.24
310.104	11.2
310.316	11.56
310.528	11.98
310.74	12.33
310.953	12.05
311.165	12.18
311.377	12.61
311.589	12.73
311.801	13.67
312.013	13.73
312.225	13.51
312.437	13.93
312.649	14.1
312.862	14.24
313.074	14.33
313.286	14.47
313.498	15.06
313.71	15.72
313.922	15.77
314.134	15.33
314.346	15.37
314.558	15.46
314.77	15.58
314.982	15.56
315.193	15.62
315.405	15.84
315.617	15.6
315.829	15.58
316.041	15.36
316.253	15.23
316.465	15.8
316.677	16.58
316.888	17.24
317.1	17.2
317.312	17.41
317.524	17.21
317.736	17.82
317.947	18.3
318.159	18.37
318.371	18.73
318.583	19.27
318.794	19.15
319.006	18.79
319.218	18.51
319.43	18.73
319.641	18.82
319.853	18.87
320.064	18.7
320.276	18.91
320.488	18.84
320.699	18.85
320.911	18.63
321.123	18.48
321.334	18.64
321.546	19.03
321.757	19.09
321.969	19.87
322.18	20.32
322.392	20.26
322.603	20.76
322.815	21.09
323.026	21.52
323.238	21.84
323.449	22.37
323.661	22.5
323.872	22.53
324.083	23.04
324.295	23.29
324.506	23.65
324.718	23.79
324.929	24.2
325.14	25.01
325.352	25.21
325.563	26.41
325.774	27.04
325.986	27.84
326.197	28.07
326.408	28.46
326.62	28.41
326.831	29.06
327.042	29.84
327.253	30.01
327.464	30.45
327.676	31.32
327.887	31.29
328.098	31.37
328.309	31.96
328.52	33.09
328.732	33.47
328.943	34.51
329.154	35.36
329.365	35.82
329.576	36.66
329.787	37.79
329.998	38.39
330.209	39.4
330.42	40.45
330.631	40.92
330.842	41.46
331.053	42.27
331.264	42.7
331.475	42.75
331.686	43.44
331.897	43.64
332.108	43.18
332.319	43.3
332.53	42.98
332.741	43.5
332.952	44.13
333.163	44.55
333.374	44.84
333.585	45.12
333.795	45.53
334.006	45.77
334.217	46.22
334.428	47.07
334.639	47.33
334.849	48.2
335.06	48.39
335.271	48.64
335.482	48.36
335.692	48.97
335.903	49.19
336.114	49.25
336.325	49.55
336.535	49.55
336.746	49.67
336.957	49.88
337.167	50.11
337.378	50.09
337.589	50.36
337.799	50.75
338.01	50.88
338.22	50.76
338.431	51.17
338.642	51.65
338.852	52.45
339.063	52.5
339.273	52.79
339.484	52.38
339.694	52.59
339.905	52.01
340.115	52.07
340.326	51.68
340.536	52.18
340.746	52.12
340.957	51.83
341.167	51.27
341.378	51.11
341.588	50.83
341.799	50.98
342.009	50.79
342.219	51.23
342.43	51.24
342.64	51.46
342.85	51.41
343.061	51.34
343.271	51.5
343.481	51.73
343.691	51.39
343.902	51.21
344.112	50.94
344.322	50.81
344.532	50.46
344.743	50.19
344.953	50.37
345.163	50.1
345.373	49.93
345.583	49.41
345.793	49.54
346.004	50.18
346.214	50.36
346.424	50.45
346.634	50.68
346.844	50.92
347.054	50.98
347.264	50.67
347.474	50.87
347.684	50.83
347.894	51.29
348.104	50.89
348.314	50.71
348.524	50.51
348.734	50.68
348.944	50.55
349.154	50.2
349.364	50.5
349.574	50.3
349.784	50.27
349.994	50.83
350.204	50.56
350.413	50.89
350.623	50.7
350.833	51.07
351.043	50.86
351.253	51.15
351.463	51.18
351.672	50.83
351.882	50.95
352.092	51.02
352.302	50.45
352.511	50.3
352.721	49.8
352.931	49.9
353.141	49.7
353.35	49.85
353.56	49.46
353.77	49.59
353.979	49.88
354.189	50.01
354.399	49.44
354.608	49.27
354.818	49.19
355.027	49.29
355.237	49.1
355.447	48.69
355.656	48.45
355.866	48.43
356.075	48.81
356.285	48.66
356.494	48.3
356.704	48.5
356.913	48.48
357.123	48.65
357.332	48.68
357.542	48.59
357.751	48.84
357.96	48.93
358.17	48.96
358.379	48.77
358.589	48.78
358.798	49.17
359.007	48.94
359.217	48.89
359.426	48.75
359.635	48.72
359.845	48.54
360.054	48.28
360.263	48.16
360.472	48.17
360.682	48.02
360.891	47.93
361.1	47.68
361.309	47.8
361.519	48.12
361.728	48.07
361.937	48.11
362.146	48.2
362.355	48.12
362.564	48.02
362.774	48
362.983	47.8
363.192	47.58
363.401	47.33
363.61	47.13
363.819	47.01
364.028	46.77
364.237	46.4
364.446	46.27
364.655	46.34
364.864	46.28
365.073	46.14
365.282	46.19
365.491	46.24
365.7	46.66
365.909	46.57
366.118	46.42
366.327	46.31
366.536	46.55
366.745	46.63
366.954	46.86
367.162	46.87
367.371	46.67
367.58	46.49
367.789	46.24
367.998	45.45
368.207	45.68
368.415	45.5
368.624	45.97
368.833	45.53
369.042	45.28
369.25	45
369.459	45.02
369.668	44.79
369.877	44.62
370.085	44.75
370.294	44.97
370.503	44.39
370.711	44.59
370.92	44.25
371.129	44.15
371.337	44.25
371.546	44
371.754	43.96
371.963	43.95
372.171	44
372.38	43.96
372.589	44.21
372.797	44.55
373.006	44.17
373.214	44.17
373.423	44.29
373.631	44.18
373.84	44.12
374.048	44.01
374.256	44.21
374.465	44.15
374.673	44.18
374.882	43.8
375.09	43.68
375.298	43.65
375.507	43.52
375.715	43.4
375.923	43.19
376.132	43.19
376.34	43.13
376.548	43
376.757	42.82
376.965	42.63
377.173	42.51
377.381	42.48
377.59	42.39
377.798	42.21
378.006	42.14
378.214	42.22
378.423	42.34
378.631	42.15
378.839	41.88
379.047	41.93
379.255	41.71
379.463	41.66
379.671	41.5
379.879	41.44
380.088	41.45
380.296	41.04
380.504	40.84
380.712	40.71
380.92	40.69
381.128	40.86
381.336	40.59
381.544	40.51
381.752	40.31
381.96	40.19
382.168	40.1
382.376	39.88
382.584	40.21
382.791	39.91
382.999	39.84
383.207	39.52
383.415	39.37
383.623	39.36
383.831	39.25
384.039	39.22
384.247	39.07
384.454	38.78
384.662	38.86
384.87	38.72
385.078	38.89
385.285	38.54
385.493	38.6
385.701	38.31
385.909	38.23
386.116	38.26
386.324	37.98
386.532	37.97
386.739	37.99
386.947	38.02
387.155	38.07
387.362	38.14
387.57	38.21
387.778	38.25
387.985	38.2
388.193	38.13
388.4	38.08
388.608	38.41
388.816	38.28
389.023	38.26
389.231	37.89
389.438	37.78
389.646	37.48
389.853	37.39
390.061	37.1
390.268	37.17
390.475	37.12
390.683	37
390.89	36.75
391.098	36.69
391.305	36.75
391.512	36.81
391.72	36.66
391.927	36.72
392.135	36.6
392.342	36.78
392.549	36.73
392.756	36.62
392.964	36.56
393.171	36.53
393.378	36.44
393.586	36.35
393.793	36.35
394	36.15
394.207	36.14
394.414	36.34
394.622	36.23
394.829	36.12
395.036	36.03
395.243	36.08
395.45	36.25
395.657	36.22
395.864	36.19
396.072	36.27
396.279	36.64
396.486	36.49
396.693	36.47
396.9	36.29
397.107	36.27
397.314	36.49
397.521	36.42
397.728	36.24
397.935	36.62
398.142	36.59
398.349	36.34
398.556	36.17
398.763	36.18
398.97	36.11
399.177	36.26
399.383	36.37
399.59	36.18
399.797	36.17
400.004	36.16
400.211	35.66
400.418	35.45
400.625	35.46
400.831	35.08
401.038	35.04
401.245	34.94
401.452	34.84
401.658	34.68
401.865	34.62
402.072	34.63
402.279	34.74
402.485	34.82
402.692	35.02
402.899	34.94
403.105	35.16
403.312	35.06
403.519	35.01
403.725	34.87
403.932	34.91
404.138	34.8
404.345	34.67
404.552	34.53
404.758	34.67
404.965	34.31
405.171	34.32
405.378	34.25
405.584	34.27
405.791	34.06
405.997	34.21
406.204	34.2
406.41	34.33
406.617	34.27
406.823	34.38
407.029	34.35
407.236	34.47
407.442	34.51
407.649	34.64
407.855	34.47
408.061	34.57
408.268	34.42
408.474	34.25
408.68	34.2
408.887	34.15
409.093	33.93
409.299	33.75
409.505	33.68
409.712	33.59
409.918	33.18
410.124	33.17
410.33	33.18
410.537	33.05
410.743	33
410.949	32.98
411.155	33.02
411.361	32.79
411.567	32.77
411.773	32.64
411.98	32.62
412.186	32.84
412.392	32.9
412.598	32.95
412.804	32.88
413.01	33
413.216	32.99
413.422	32.88
413.628	32.97
413.834	32.92
414.04	32.86
414.246	32.59
414.452	32.61
414.658	32.49
414.864	32.27
415.07	32.31
415.275	32.14
415.481	31.85
415.687	31.68
415.893	31.55
416.099	31.44
416.305	31.44
416.511	31.53
416.716	31.41
416.922	31.48
417.128	31.48
417.334	31.44
417.539	31.35
417.745	31.37
417.951	31.42
418.157	31.5
418.362	31.44
418.568	31.4
418.774	31.34
418.979	31.3
419.185	31.26
419.391	31.14
419.596	31.07
419.802	31.09
420.008	31.08
420.213	30.82
420.419	30.77
420.624	30.76
420.83	30.72
421.035	30.69
421.241	30.68
421.446	30.55
421.652	30.59
421.857	30.57
422.063	30.51
422.268	30.53
422.474	30.72
422.679	30.64
422.885	30.65
423.09	30.62
423.295	30.57
423.501	30.54
423.706	30.55
423.911	30.52
424.117	30.64
424.322	30.61
424.527	30.57
424.733	30.54
424.938	30.53
425.143	30.49
425.349	30.46
425.554	30.47
425.759	30.49
425.964	30.54
426.169	30.56
426.375	30.3
426.58	30.55
426.785	30.61
426.99	30.72
427.195	30.78
427.4	30.66
427.605	30.89
427.811	30.9
428.016	30.8
428.221	30.77
428.426	30.71
428.631	30.67
428.836	30.49
429.041	30.32
429.246	30.27
429.451	30.27
429.656	30.41
429.861	30.32
430.066	30.32
430.271	30.27
430.476	30.36
430.681	30.39
430.886	30.47
431.09	30.58
431.295	30.58
431.5	30.57
431.705	30.51
431.91	30.59
432.115	30.53
432.32	30.52
432.524	30.55
432.729	30.56
432.934	30.58
433.139	30.64
433.343	30.52
433.548	30.61
433.753	30.64
433.958	30.68
434.162	30.62
434.367	30.64
434.572	30.71
434.776	30.83
434.981	30.65
435.186	30.58
435.39	30.6
435.595	30.74
435.799	30.82
436.004	30.75
436.209	30.76
436.413	30.77
436.618	30.65
436.822	30.67
437.027	30.64
437.231	30.83
437.436	30.88
437.64	30.89
437.845	30.85
438.049	30.84
438.253	30.88
438.458	30.88
438.662	30.88
438.867	30.99
439.071	31.05
439.275	31.04
439.48	30.9
439.684	30.78
439.888	30.79
440.093	30.72
440.297	30.63
440.501	30.6
440.706	30.59
440.91	30.64
441.114	30.63
441.318	30.52
441.523	30.47
441.727	30.66
441.931	30.9
442.135	30.8
442.339	30.78
442.543	30.87
442.748	30.83
442.952	30.84
443.156	30.7
443.36	30.74
443.564	30.83
443.768	30.86
443.972	30.77
444.176	30.64
444.38	30.73
444.584	30.68
444.788	30.58
444.992	30.58
445.196	30.54
445.4	30.6
445.604	30.44
445.808	30.45
446.012	30.45
446.216	30.42
446.42	30.42
446.624	30.29
446.828	30.31
447.032	30.37
447.235	30.4
447.439	30.49
447.643	30.46
447.847	30.59
448.051	30.55
448.254	30.53
448.458	30.62
448.662	30.7
448.866	30.73
449.069	30.8
449.273	30.72
449.477	30.61
449.681	30.61
449.884	30.57
450.088	30.62
450.292	30.64
450.495	30.67
450.699	30.59
450.902	30.6
451.106	30.65
451.31	30.53
451.513	30.57
451.717	30.6
451.92	30.43
452.124	30.47
452.327	30.42
452.531	30.39
452.734	30.27
452.938	30.27
453.141	30.17
453.345	30.1
453.548	30.1
453.752	30.1
453.955	30.22
454.158	30.25
454.362	30.23
454.565	30.29
454.769	30.26
454.972	30.5
455.175	30.55
455.379	30.51
455.582	30.53
455.785	30.6
455.988	30.7
456.192	30.5
456.395	30.63
456.598	30.6
456.801	30.61
457.005	30.54
457.208	30.42
457.411	30.36
457.614	30.33
457.817	30.45
458.021	30.44
458.224	30.4
458.427	30.43
458.63	30.3
458.833	30.39
459.036	30.31
459.239	30.35
459.442	30.22
459.645	30.22
459.848	30.3
460.051	30.18
460.254	30.23
460.457	30.22
460.66	30.3
460.863	30.41
461.066	30.41
461.269	30.45
461.472	30.53
461.675	30.61
461.878	30.58
462.081	30.66
462.284	30.72
462.486	30.68
462.689	30.65
462.892	30.69
463.095	30.74
463.298	30.83
463.5	30.92
463.703	30.77
463.906	30.97
464.109	31.12
464.311	31.14
464.514	31.22
464.717	31.31
464.92	31.39
465.122	31.37
465.325	31.35
465.528	31.3
465.73	31.24
465.933	31.36
466.135	31.31
466.338	31.28
466.541	31.2
466.743	31.12
466.946	31.07
467.148	31.07
467.351	31.1
467.553	31.16
467.756	31.09
467.958	31.17
468.161	31.15
468.363	31.12
468.566	31.1
468.768	31.12
468.971	31.15
469.173	31.24
469.375	31.23
469.578	31.14
469.78	31.11
469.983	31.24
470.185	31.31
470.387	31.41
470.59	31.46
470.792	31.4
470.994	31.43
471.196	31.45
471.399	31.38
471.601	31.41
471.803	31.53
472.005	31.55
472.208	31.47
472.41	31.34
472.612	31.22
472.814	31.2
473.016	31.33
473.218	31.35
473.421	31.36
473.623	31.43
473.825	31.45
474.027	31.4
474.229	31.33
474.431	31.43
474.633	31.44
474.835	31.48
475.037	31.46
475.239	31.39
475.441	31.38
475.643	31.45
475.845	31.45
476.047	31.4
476.249	31.45
476.451	31.48
476.653	31.45
476.855	31.57
477.057	31.52
477.258	31.51
477.46	31.51
477.662	31.47
477.864	31.35
478.066	31.28
478.268	31.32
478.469	31.35
478.671	31.35
478.873	31.31
479.075	31.2
479.276	31.21
479.478	31.18
479.68	31.2
479.882	31.24
480.083	31.34
480.285	31.4
480.487	31.43
480.688	31.39
480.89	31.39
481.091	31.38
481.293	31.37
481.495	31.3
481.696	31.29
481.898	31.25
482.099	31.23
482.301	31.17
482.502	31.06
482.704	30.96
482.905	30.91
483.107	30.88
483.308	30.8
483.51	30.73
483.711	30.68
483.913	30.65
484.114	30.64
484.315	30.58
484.517	30.54
484.718	30.59
484.92	30.66
485.121	30.72
485.322	30.74
485.524	30.83
485.725	30.89
485.926	30.97
486.127	31.03
486.329	31.04
486.53	31.06
486.731	31.06
486.932	31.08
487.134	31.02
487.335	31.02
487.536	31.02
487.737	31
487.938	31.03
488.139	31.05
488.341	31.04
488.542	31.01
488.743	31.1
488.944	31.2
489.145	31.18
489.346	31.32
489.547	31.32
489.748	31.32
489.949	31.34
490.15	31.37
490.351	31.41
490.552	31.41
490.753	31.42
490.954	31.37
491.155	31.31
491.356	31.36
491.557	31.37
491.758	31.33
491.959	31.39
492.159	31.37
492.36	31.38
492.561	31.37
492.762	31.36
492.963	31.48
493.164	31.61
493.364	31.69
493.565	31.72
493.766	31.72
493.967	31.87
494.167	31.84
494.368	31.89
494.569	31.89
494.769	31.99
494.97	32.08
495.171	32.05
495.371	32.06
495.572	32.16
495.773	32.2
495.973	32.23
496.174	32.24
496.375	32.35
496.575	32.41
496.776	32.48
496.976	32.52
497.177	32.53
497.377	32.5
497.578	32.48
497.778	32.44
497.979	32.4
498.179	32.44
498.38	32.51
498.58	32.55
498.78	32.53
498.981	32.64
499.181	32.67
499.382	32.77
499.582	32.96
499.782	33.14
499.983	33.35
500.183	33.52
500.383	33.71
500.584	33.65
500.784	33.72
500.984	33.74
501.184	33.73
501.385	33.71
501.585	33.8
501.785	33.79
501.985	33.66
502.185	33.68
502.386	33.72
502.586	33.62
502.786	33.84
502.986	33.89
503.186	33.96
503.386	33.95
503.586	34.12
503.786	34.11
503.987	34.16
504.187	34.29
504.387	34.38
504.587	34.53
504.787	34.56
504.987	34.68
505.187	34.77
505.387	34.93
505.587	35.08
505.786	35.11
505.986	35.29
506.186	35.35
506.386	35.5
506.586	35.63
506.786	35.62
506.986	35.8
507.186	35.77
507.386	35.88
507.585	35.93
507.785	35.93
507.985	36.01
508.185	36
508.384	36.08
508.584	36.12
508.784	36.09
508.984	36.22
509.183	36.3
509.383	36.4
509.583	36.41
509.782	36.57
509.982	36.73
510.182	36.79
510.381	37
510.581	37.14
510.781	37.21
510.98	37.35
511.18	37.38
511.379	37.38
511.579	37.45
511.778	37.52
511.978	37.52
512.177	37.64
512.377	37.81
512.576	37.83
512.776	37.83
512.975	37.97
513.175	37.98
513.374	38.19
513.573	38.36
513.773	38.58
513.972	38.75
514.172	38.87
514.371	39.07
514.57	39.09
514.77	39.21
514.969	39.38
515.168	39.58
515.367	39.79
515.567	39.92
515.766	40.04
515.965	40.17
516.164	40.29
516.364	40.38
516.563	40.47
516.762	40.54
516.961	40.56
517.16	40.61
517.359	40.59
517.559	40.7
517.758	40.69
517.957	40.74
518.156	40.77
518.355	40.83
518.554	40.97
518.753	40.96
518.952	41.05
519.151	41.17
519.35	41.34
519.549	41.45
519.748	41.51
519.947	41.76
520.146	41.92
520.345	41.93
520.544	42.04
520.743	42.16
520.942	42.34
521.141	42.53
521.339	42.79
521.538	42.99
521.737	43.16
521.936	43.31
522.135	43.38
522.333	43.56
522.532	43.79
522.731	44.04
522.93	44.24
523.129	44.37
523.327	44.49
523.526	44.61
523.725	44.66
523.923	44.86
524.122	45.03
524.321	45.1
524.519	45.2
524.718	45.28
524.917	45.27
525.115	45.4
525.314	45.54
525.512	45.72
525.711	45.93
525.909	46.15
526.108	46.28
526.306	46.4
526.505	46.56
526.703	46.68
526.902	46.78
527.1	46.79
527.299	46.71
527.497	46.65
527.696	46.62
527.894	46.51
528.092	46.43
528.291	46.37
528.489	46.28
528.688	46.21
528.886	46.14
529.084	46.12
529.283	46.24
529.481	46.34
529.679	46.62
529.877	46.71
530.076	46.98
530.274	47.27
530.472	47.52
530.67	47.87
530.869	48.13
531.067	48.37
531.265	48.52
531.463	48.69
531.661	48.82
531.859	48.84
532.057	48.93
532.255	48.89
532.454	48.83
532.652	48.88
532.85	48.8
533.048	48.74
533.246	48.7
533.444	48.72
533.642	48.72
533.84	48.86
534.038	48.99
534.236	49.19
534.434	49.4
534.632	49.55
534.83	49.64
535.027	49.8
535.225	50.01
535.423	50.2
535.621	50.22
535.819	50.21
536.017	50.14
536.215	50.07
536.412	50.06
536.61	50.07
536.808	50.11
537.006	50.18
537.203	50.26
537.401	50.26
537.599	50.37
537.797	50.62
537.994	50.96
538.192	51.25
538.39	51.54
538.587	51.85
538.785	52.03
538.983	52.23
539.18	52.37
539.378	52.38
539.575	52.53
539.773	52.52
539.97	52.46
540.168	52.36
540.366	52.23
540.563	52.08
540.761	51.86
540.958	51.79
541.155	51.66
541.353	51.52
541.55	51.51
541.748	51.34
541.945	51.23
542.143	51.25
542.34	51.29
542.537	51.39
542.735	51.49
542.932	51.66
543.129	51.74
543.327	51.83
543.524	51.98
543.721	52.14
543.919	52.32
544.116	52.45
544.313	52.59
544.51	52.71
544.708	52.74
544.905	52.8
545.102	52.84
545.299	52.92
545.496	52.94
545.693	52.94
545.891	52.94
546.088	52.88
546.285	52.88
546.482	52.76
546.679	52.67
546.876	52.7
547.073	52.76
547.27	52.78
547.467	52.81
547.664	52.89
547.861	53.04
548.058	53.04
548.255	53.2
548.452	53.42
548.649	53.65
548.846	53.85
549.043	53.88
549.24	54.05
549.437	54.1
549.633	54.1
549.83	54.28
550.027	54.34
550.224	54.47
550.421	54.57
550.618	54.57
550.814	54.51
551.011	54.44
551.208	54.49
551.405	54.5
551.601	54.52
551.798	54.56
551.995	54.4
552.191	54.38
552.388	54.16
552.585	54.07
552.781	54.08
552.978	54.03
553.175	54.16
553.371	54.16
553.568	54.2
553.764	54.35
553.961	54.31
554.157	54.35
554.354	54.31
554.55	54.58
554.747	54.67
554.943	54.65
555.14	54.78
555.336	54.65
555.533	54.89
555.729	54.94
555.926	54.81
556.122	54.91
556.318	54.89
556.515	54.88
556.711	54.83
556.907	54.76
557.104	54.86
557.3	54.97
557.496	54.94
557.693	54.82
557.889	54.83
558.085	54.91
558.281	54.97
558.478	55.23
558.674	55.39
558.87	55.47
559.066	55.59
559.262	55.64
559.459	55.63
559.655	55.77
559.851	55.86
560.047	55.84
560.243	55.84
560.439	55.82
560.635	55.75
560.831	55.76
561.027	55.83
561.223	55.77
561.419	55.75
561.615	55.81
561.811	55.95
562.007	56.01
562.203	56.04
562.399	56.18
562.595	56.16
562.791	56.39
562.987	56.39
563.183	56.52
563.379	56.67
563.575	56.76
563.771	56.73
563.966	56.85
564.162	56.84
564.358	56.81
564.554	56.82
564.75	56.97
564.945	56.8
565.141	56.81
565.337	56.71
565.533	56.72
565.728	56.51
565.924	56.52
566.12	56.38
566.315	56.35
566.511	56.2
566.707	56.12
566.902	56.04
567.098	56.13
567.293	56.1
567.489	56.06
567.684	56.07
567.88	56.22
568.076	56.27
568.271	56.3
568.467	56.42
568.662	56.62
568.858	56.77
569.053	56.85
569.248	56.85
569.444	57.09
569.639	57.24
569.835	57.34
570.03	57.41
570.225	57.38
570.421	57.35
570.616	57.33
570.812	57.34
571.007	57.27
571.202	57.27
571.397	57.28
571.593	57.24
571.788	57.08
571.983	57.06
572.178	57.1
572.374	57.07
572.569	57.25
572.764	57.34
572.959	57.34
573.154	57.41
573.35	57.36
573.545	57.38
573.74	57.17
573.935	57.35
574.13	57.21
574.325	57.22
574.52	57.23
574.715	57.16
574.91	57.08
575.105	57.13
575.3	57.1
575.495	57.24
575.69	57.29
575.885	57.52
576.08	57.5
576.275	57.71
576.47	57.61
576.665	57.64
576.86	57.63
577.055	57.64
577.25	57.8
577.444	57.9
577.639	57.91
577.834	57.99
578.029	57.94
578.224	57.93
578.418	57.89
578.613	58.06
578.808	58.09
579.003	58.18
579.197	58.18
579.392	58.09
579.587	58.17
579.781	58.17
579.976	58.14
580.171	58.12
580.365	58.09
580.56	58.14
580.755	58.24
580.949	58.44
581.144	58.55
581.338	58.66
581.533	58.71
581.727	58.63
581.922	58.79
582.116	58.86
582.311	59.19
582.505	59.37
582.7	59.27
582.894	59.26
583.089	59.36
583.283	59.28
583.478	59.3
583.672	59.28
583.866	59.32
584.061	59.24
584.255	59.4
584.449	59.38
584.644	59.53
584.838	59.68
585.032	59.67
585.226	59.7
585.421	59.78
585.615	59.86
585.809	59.88
586.003	59.96
586.198	59.92
586.392	59.78
586.586	59.83
586.78	59.83
586.974	60.06
587.168	60.06
587.363	59.97
587.557	59.98
587.751	60.2
587.945	60.38
588.139	60.4
588.333	60.51
588.527	60.62
588.721	60.59
588.915	60.5
589.109	60.28
589.303	60.47
589.497	60.52
589.691	60.49
589.885	60.37
590.079	60.2
590.273	60.28
590.466	60.29
590.66	60.27
590.854	60.4
591.048	60.37
591.242	60.57
591.436	60.52
591.629	60.71
591.823	60.74
592.017	60.88
592.211	61.04
592.404	61.08
592.598	61.19
592.792	61.25
592.986	61.22
593.179	61.33
593.373	61.39
593.567	61.5
593.76	61.45
593.954	61.67
594.147	61.77
594.341	61.9
594.535	62.12
594.728	62.27
594.922	62.23
595.115	62.26
595.309	62.43
595.502	62.5
595.696	62.47
595.889	62.39
596.083	62.35
596.276	62.25
596.47	62.11
596.663	61.9
596.856	61.75
597.05	61.78
597.243	61.87
597.437	61.72
597.63	61.61
597.823	61.66
598.017	61.8
598.21	61.76
598.403	61.87
598.596	62.09
598.79	62.39
598.983	62.59
599.176	62.69
599.369	62.7
599.563	62.85
599.756	63.2
599.949	63.11
600.142	63.38
600.335	63.54
600.528	63.7
600.722	63.74
600.915	63.75
601.108	63.88
601.301	64.01
601.494	63.91
601.687	64.07
601.88	63.91
602.073	64.22
602.266	64.13
602.459	64.11
602.652	63.99
602.845	64
603.038	63.81
603.231	63.77
603.424	63.9
603.617	63.94
603.809	63.71
604.002	63.69
604.195	63.44
604.388	63.27
604.581	63.34
604.774	63.28
604.966	63.13
605.159	63.13
605.352	63.16
605.545	62.93
605.737	63
605.93	63.4
606.123	63.63
606.316	63.98
606.508	64.23
606.701	64.45
606.894	64.56
607.086	64.84
607.279	65.03
607.471	65.14
607.664	65.39
607.857	65.43
608.049	65.45
608.242	65.31
608.434	65.14
608.627	64.99
608.819	64.83
609.012	64.89
609.204	64.94
609.397	64.94
609.589	64.76
609.782	64.67
609.974	64.7
610.166	64.62
610.359	64.6
610.551	64.69
610.743	64.91
610.936	65.04
611.128	65.1
611.32	65.14
611.513	65.24
611.705	65.32
611.897	65.25
612.09	65.28
612.282	65.1
612.474	65.25
612.666	65.33
612.858	65.43
613.051	65.44
613.243	65.16
613.435	65.1
613.627	65.03
613.819	65
614.011	65.4
614.203	65.35
614.395	65.42
614.588	65.26
614.78	65.1
614.972	65.11
615.164	64.95
615.356	65.12
615.548	64.83
615.74	64.8
615.932	64.82
616.124	64.42
616.315	64.67
616.507	64.64
616.699	64.82
616.891	64.8
617.083	64.87
617.275	64.85
617.467	64.93
617.659	65.14
617.85	65.29
618.042	65.17
618.234	65.35
618.426	65.04
618.618	65.12
618.809	65.07
619.001	65.17
619.193	65.11
619.384	65.09
619.576	65.23
619.768	65.13
619.959	65.26
620.151	65.49
620.343	65.4
620.534	65.39
620.726	65.46
620.917	65.6
621.109	65.54
621.301	65.37
621.492	65.71
621.684	65.62
621.875	65.63
622.067	65.33
622.258	65.37
622.45	65.27
622.641	65.5
622.832	65.57
623.024	65.34
623.215	65.56
623.407	65.75
623.598	65.35
623.789	65.51
623.981	65.56
624.172	65.88
624.363	65.74
624.555	65.96
624.746	65.93
624.937	66.04
625.129	66.18
625.32	66.09
625.511	66.1
625.702	66.25
625.893	65.94
626.085	65.97
626.276	65.87
626.467	65.98
626.658	65.9
626.849	65.8
627.04	65.65
627.231	65.49
627.422	65.49
627.614	65.37
627.805	65.41
627.996	65.5
628.187	65.64
628.378	65.56
628.569	65.48
628.76	65.6
628.951	65.51
629.142	65.49
629.332	65.57
629.523	65.51
629.714	65.48
629.905	65.58
630.096	65.51
630.287	65.39
630.478	65.35
630.669	65.32
630.859	65.39
631.05	65.62
631.241	65.64
631.432	65.78
631.623	65.75
631.813	65.89
632.004	65.72
632.195	65.68
632.385	65.69
632.576	65.78
632.767	65.98
632.957	65.78
633.148	65.87
633.339	65.83
633.529	65.72
633.72	65.82
633.91	65.86
634.101	65.84
634.292	66.11
634.482	66.04
634.673	65.9
634.863	65.67
635.054	65.78
635.244	65.45
635.435	65.49
635.625	65.46
635.815	65.25
636.006	65.11
636.196	65.13
636.387	65.04
636.577	65.09
636.767	65.11
636.958	65.19
637.148	65.15
637.338	65.51
637.529	65.6
637.719	65.88
637.909	66.2
638.099	66.32
638.29	66.37
638.48	66.54
638.67	66.66
638.86	66.84
639.05	66.95
639.241	66.81
639.431	66.75
639.621	66.89
639.811	66.58
640.001	66.47
640.191	66.57
640.381	66.49
640.571	66.46
640.761	66.08
640.951	66.14
641.141	66.03
641.331	66.18
641.521	65.99
641.711	65.9
641.901	66.11
642.091	66.08
642.281	65.89
642.471	66.09
642.661	66.1
642.851	66.48
643.041	66.38
643.231	66.46
643.42	66.21
643.61	66.43
643.8	66.26
643.99	66.21
644.18	66.28
644.369	66.26
644.559	66.21
644.749	66.05
644.939	65.96
645.128	65.74
645.318	65.96
645.508	66.17
645.697	66.04
645.887	65.94
646.076	65.9
646.266	65.82
646.456	66.2
646.645	66.47
646.835	66.54
647.024	66.57
647.214	66.87
647.403	66.66
647.593	66.76
647.782	66.8
647.972	66.93
648.161	67.22
648.351	67.4
648.54	67.04
648.73	66.92
648.919	67.04
649.108	67.02
649.298	67.1
649.487	67.17
649.677	67.09
649.866	67.28
650.055	67.52
650.244	67.2
650.434	67.03
650.623	67.37
650.812	67.24
651.002	67.38
651.191	67.54
651.38	67.41
651.569	67.28
651.758	67.1
651.947	66.59
652.137	66.31
652.326	66.73
652.515	66.78
652.704	66.68
652.893	66.92
653.082	66.81
653.271	66.67
653.46	66.55
653.649	66.69
653.838	66.95
654.027	67.4
654.216	67.32
654.405	67.14
654.594	67.09
654.783	66.85
654.972	66.63
655.161	66.75
655.35	66.8
655.539	67.22
655.728	67.18
655.916	67.28
656.105	67.28
656.294	67.76
656.483	67.67
656.672	67.98
656.86	67.97
657.049	68.25
657.238	67.77
657.427	67.89
657.615	67.91
657.804	68.02
657.993	67.85
658.181	67.72
658.37	67.6
658.559	67.52
658.747	67.16
658.936	67.34
659.125	66.84
659.313	67.27
659.502	67.21
659.69	67.1
659.879	66.93
660.067	66.95
660.256	67.02
660.444	66.88
660.633	66.93
660.821	67.04
661.01	66.93
661.198	67.22
661.387	67.07
661.575	67.03
661.763	67
661.952	67.08
662.14	67.05
662.328	67.02
662.517	67.21
662.705	67.07
662.893	67.1
663.082	67.27
663.27	67.47
663.458	67.36
663.646	67.4
663.834	67.18
664.023	67.29
664.211	67.35
664.399	67.38
664.587	67.24
664.775	67.43
664.963	67.38
665.152	67.28
665.34	67.35
665.528	67.54
665.716	67.73
665.904	67.8
666.092	67.73
666.28	67.64
666.468	67.68
666.656	67.8
666.844	67.84
667.032	67.99
667.22	67.91
667.408	67.88
667.596	68.16
667.784	67.77
667.971	67.85
668.159	67.81
668.347	67.94
668.535	68.18
668.723	68.02
668.911	68.09
669.098	68.02
669.286	68.15
669.474	68.17
669.662	67.84
669.849	67.94
670.037	68.17
670.225	68.33
670.413	68.42
670.6	68.02
670.788	67.93
670.976	67.81
671.163	67.98
671.351	67.78
671.538	67.45
671.726	67.43
671.913	67.38
672.101	67.11
672.289	67.11
672.476	66.83
672.664	67.11
672.851	66.99
673.039	67.04
673.226	67.02
673.413	67.37
673.601	67.64
673.788	67.66
673.976	67.65
674.163	67.84
674.35	68.02
674.538	68.11
674.725	67.91
674.912	68.11
675.1	68.11
675.287	68.4
675.474	68.22
675.662	68.11
675.849	68.33
676.036	68.38
676.223	68.28
676.411	67.92
676.598	67.71
676.785	68.04
676.972	68.33
677.159	68.29
677.346	68.08
677.533	68.15
677.721	68.02
677.908	67.94
678.095	68.24
678.282	68.28
678.469	68.27
678.656	68.54
678.843	68.57
679.03	68.36
679.217	68.54
679.404	68.59
679.591	68.37
679.778	68.13
679.964	68.04
680.151	67.85
680.338	67.59
680.525	67.96
680.712	67.92
680.899	67.75
681.086	67.81
681.272	67.42
681.459	67.35
681.646	67.59
681.833	67.97
682.02	67.96
682.206	67.7
682.393	67.74
682.58	67.5
682.766	67.82
682.953	67.62
683.14	67.45
683.326	68.28
683.513	68.14
683.7	68
683.886	68.14
684.073	67.89
684.259	68.3
684.446	68.91
684.632	68.74
684.819	68.52
685.005	68.51
685.192	68.76
685.378	68.39
685.565	68.68
685.751	68.81
685.938	68.79
686.124	69.12
686.31	68.74
686.497	68.58
686.683	68.89
686.87	68.69
687.056	68.76
687.242	68.5
687.429	68.59
687.615	68.34
687.801	68.45
687.987	68.48
688.174	68.64
688.36	69.04
688.546	68.82
688.732	68.57
688.918	68.73
689.105	68.86
689.291	69.3
689.477	69.02
689.663	69.27
689.849	69.22
690.035	69.27
690.221	69.06
690.407	69.12
690.593	68.75
690.779	68.68
690.965	68.54
691.151	68.57
691.337	68.02
691.523	67.77
691.709	67.43
691.895	67.25
692.081	67.06
692.267	67.21
692.453	66.87
692.639	67.3
692.825	67.36
693.011	67.37
693.196	67.4
693.382	67.58
693.568	67.55
693.754	67.67
693.94	67.96
694.125	68.2
694.311	68.2
694.497	68.32
694.682	68.5
694.868	68.95
695.054	69.24
695.239	69.41
695.425	69.44
695.611	69.79
695.796	69.98
695.982	69.66
696.168	69.6
696.353	69.71
696.539	69.72
696.724	69.93
696.91	69.68
697.095	69.6
697.281	69.32
697.466	69.52
697.652	69.38
697.837	69.14
698.023	69.08
698.208	68.83
698.393	68.65
698.579	68.56
698.764	68.18
698.949	68.03
699.135	67.82
699.32	67.82
699.505	67.41
699.691	67.31
699.876	67.32
700.061	67.05
700.246	67.22
700.432	67.1
700.617	67.26
700.802	67.2
700.987	67.37
701.172	67.68
701.358	67.82
701.543	68.24
701.728	68.13
701.913	68.4
702.098	68.83
702.283	69
702.468	69.01
702.653	69
702.838	69.24
703.023	69.31
703.208	69.35
703.393	69.45
703.578	69.62
703.763	70.1
703.948	69.81
704.133	70.15
704.318	70
704.503	70.38
704.688	70.54
704.873	70.31
705.057	70.2
705.242	70.09
705.427	69.8
705.612	69.61
705.797	69.46
705.981	69.31
706.166	69.07
706.351	69.57
706.536	69.5
706.72	69.19
706.905	69.51
707.09	69.48
707.274	69.5
707.459	69.78
707.644	69.75
707.828	69.65
708.013	69.81
708.197	69.64
708.382	69.27
708.567	68.47
708.751	68.56
708.936	68.24
709.12	68.48
709.305	68.13
709.489	67.93
709.673	67.9
709.858	68.1
710.042	67.73
710.227	67.75
710.411	67.58
710.596	67.99
710.78	67.91
710.964	67.93
711.149	67.73
711.333	67.65
711.517	67.67
711.702	67.52
711.886	67.55
712.07	67.76
712.254	67.56
712.438	67.77
712.623	68.1
712.807	68
712.991	68.06
713.175	68.07
713.359	68.63
713.544	68.62
713.728	68.8
713.912	68.49
714.096	68.93
714.28	69.23
714.464	69.26
714.648	69.08
714.832	69.09
715.016	69.32
715.2	68.98
715.384	68.73
715.568	68.5
715.752	67.88
715.936	68.27
716.12	67.97
716.304	68.18
716.488	67.41
716.671	67.05
716.855	67.46
717.039	66.88
717.223	66.86
717.407	66.93
717.59	67.24
717.774	67.58
717.958	67.43
718.142	67.35
718.325	67.28
718.509	68.21
718.693	68.5
718.877	68.39
719.06	68.78
719.244	69.38
719.428	69.48
719.611	69.35
719.795	70.12
719.978	70.04
720.162	70.46
720.345	70.34
720.529	70.04
720.713	70.42
720.896	70.16
721.08	70.12
721.263	70.21
721.446	70.05
721.63	70.2
721.813	69.79
721.997	69.64
722.18	69.48
722.364	69.64
722.547	69.37
722.73	68.83
722.914	69.09
723.097	69.1
723.28	68.78
723.464	68.86
723.647	68.8
723.83	68.42
724.013	68.98
724.197	68.95
724.38	68.95
724.563	69.54
724.746	70.36
724.929	70.36
725.112	70.39
725.296	70.23
725.479	70.61
725.662	70.63
725.845	71.32
726.028	71.15
726.211	71.12
726.394	71.09
726.577	70.74
726.76	70.13
726.943	70.25
727.126	70.25
727.309	70.44
727.492	70.28
727.675	70.57
727.858	70.07
728.041	69.84
728.224	69.9
728.407	69.32
728.589	69.63
728.772	69.75
728.955	69.46
729.138	68.81
729.321	68.71
729.503	69.02
729.686	68.7
729.869	69.04
730.052	69.42
730.234	69.44
730.417	69.84
730.6	69.43
730.782	69.27
730.965	69.51
731.148	70.03
731.33	70.1
731.513	69.85
731.695	69.92
731.878	69.69
732.061	69.61
732.243	69.74
732.426	70.09
732.608	70.59
732.791	70.93
732.973	70.96
733.156	71.06
733.338	71.17
733.52	70.88
733.703	70.93
733.885	70.74
734.068	70.34
734.25	70.63
734.432	70.12
734.615	69.8
734.797	69.52
734.979	68.63
735.162	68.52
735.344	68.35
735.526	68.47
735.708	68.54
735.891	69.17
736.073	69.42
736.255	69.05
736.437	68.99
736.619	68.9
736.802	68.78
736.984	69
737.166	69.39
737.348	69.1
737.53	68.96
737.712	68.85
737.894	68.33
738.076	68.05
738.258	68.2
738.44	67.71
738.622	67.8
738.804	68.07
738.986	68.46
739.168	67.85
739.35	68.19
739.532	68.22
739.714	68.49
739.896	68.5
740.078	68.87
740.259	68.57
740.441	69.99
740.623	69.98
740.805	70.56
740.987	70.14
741.168	70.53
741.35	71.15
741.532	70.91
741.714	70.28
741.895	70.35
742.077	70.53
742.259	70.17
742.44	69.6
742.622	70.08
742.804	70.01
742.985	70.47
743.167	70.26
743.348	69.21
743.53	70.03
743.711	70.15
743.893	70.56
744.075	70.62
744.256	70.59
744.438	71.7
744.619	71.6
744.8	71.55
744.982	71.47
745.163	72.09
745.345	72.22
745.526	71.45
745.707	72.21
745.889	72.06
746.07	71.62
746.252	72.47
746.433	71.4
746.614	71.73
746.795	71.31
746.977	71.38
747.158	71.84
747.339	71.85
747.52	71.99
747.702	71.17
747.883	70.67
748.064	70.83
748.245	70.84
748.426	70.19
748.607	69.55
748.788	69.83
748.97	70.35
749.151	69.8
749.332	70.81
749.513	71.15
749.694	71.44
749.875	72.63
750.056	72.85
750.237	72.45
750.418	72.46
750.599	72.23
750.78	71.96
750.96	71.66
751.141	71.42
751.322	71.03
751.503	70.7
751.684	70.43
751.865	69.66
752.046	69.27
752.226	69.21
752.407	69.66
752.588	69.5
752.769	69.8
752.949	69.7
753.13	69.96
753.311	70.28
753.492	70.05
753.672	70.86
753.853	71.29
754.034	70.69
754.214	71.22
754.395	71.07
754.575	72.27
754.756	71.81
754.937	71.19
755.117	71.41
755.298	70.68
755.478	71.37
755.659	70.91
755.839	70.74
756.02	71.24
756.2	70.34
756.381	70.56
756.561	69.94
756.741	70.33
756.922	70.78
757.102	70.37
757.283	70.8
757.463	70.26
757.643	70.54
757.823	70.42
758.004	70.36
758.184	70.76
758.364	71.26
758.545	71.35
758.725	70.87
758.905	70.93
759.085	70.26
759.265	69.9
759.446	69.79
759.626	69.76
759.806	70.02
759.986	69.92
760.166	70.41
760.346	70.07
760.526	69.97
760.706	70.62
760.886	70.65
761.066	70.92
761.246	70.75
761.426	71.04
761.606	70.29
761.786	69.82
761.966	70.12
762.146	69.47
762.326	69.66
762.506	69.65
762.686	68.68
762.866	68.29
763.046	68.35
763.225	68.51
763.405	68.63
763.585	69
763.765	68.95
763.945	68.48
764.124	68.6
764.304	68.56
764.484	68.54
764.664	68.86
764.843	69.24
765.023	69.87
765.203	69.88
765.382	69.66
765.562	69.79
765.741	69.92
765.921	70.74
766.101	70.8
766.28	70.9
766.46	70.85
766.639	71.51
766.819	72.11
766.998	71.9
767.178	71.97
767.357	71.43
767.537	71.75
767.716	71.4
767.896	71.71
768.075	71.48
768.254	70.69
768.434	70.88
768.613	70.61
768.792	70.17
768.972	70.47
769.151	70.39
769.33	71
769.51	71.31
769.689	71.61
769.868	71.25
770.047	72.31
770.226	72.74
770.406	72.11
770.585	72.44
770.764	72.21
770.943	71.63
771.122	71.85
771.301	72.87
771.48	72.76
771.66	72.9
771.839	72.28
772.018	72.09
772.197	71.91
772.376	72.88
772.555	72.33
772.734	72.64
772.913	71.97
773.092	72.05
773.271	71.4
773.449	71.16
773.628	72.13
773.807	73.01
773.986	73.09
774.165	73.19
774.344	72.63
774.523	73.43
774.701	73.8
774.88	74.37
775.059	74.32
775.238	74.29
775.417	73.77
775.595	72.96
775.774	72.62
775.953	72.23
776.131	71.67
776.31	71.8
776.489	71.19
776.667	70.73
776.846	70.84
777.025	71.12
777.203	71.29
777.382	72.96
777.56	73.06
777.739	72.73
777.917	72.94
778.096	73.57
778.274	73.46
778.453	74.26
778.631	74.75
778.81	74.54
778.988	75.19
779.166	74.79
779.345	73.07
779.523	73.16
779.702	73.34
779.88	73.13
780.058	73.49
780.237	73.45
780.415	72.42
780.593	71.85
780.771	72.64
780.95	71.51
781.128	71.52
781.306	71.71
781.484	72.37
781.662	71.74
781.841	71.93
782.019	71.31
782.197	71.36
782.375	70.63
782.553	70.23
782.731	68.8
782.909	68.46
783.087	68.47
783.265	68.16
783.443	67.53
783.621	68.74
783.799	69.44
783.977	70.47
784.155	69.76
784.333	71.29
784.511	72.33
784.689	72.82
784.867	73.42
785.045	72.63
785.223	73.31
785.4	73.49
785.578	72.41
785.756	70.71
785.934	70.24
786.112	71.85
786.289	70.01
786.467	69.55
786.645	70.2
786.823	69.16
787	69.76
787.178	69.41
787.356	69.6
787.533	69.73
787.711	70.7
787.889	71.3
788.066	69.99
788.244	71.3
788.421	71.03
788.599	70.21
788.776	71.97
788.954	71.65
789.131	71.36
789.309	70.85
789.486	71.44
789.664	72.31
789.841	71.44
790.019	72.48
790.196	72.29
790.373	73.03
790.551	74.45
790.728	73.03
790.906	74.28
791.083	73.09
791.26	73.26
791.437	73.04
791.615	72.63
791.792	72.83
791.969	72.07
792.146	72.71
792.324	71.87
792.501	71.17
792.678	72.43
792.855	72.05
793.032	74.18
793.209	74.61
793.387	75.16
793.564	75.84
793.741	75.97
793.918	76.44
794.095	76.98
794.272	77.01
794.449	76.81
794.626	76.06
794.803	75.4
794.98	74.54
795.157	73.71
795.334	73.07
795.511	71.33
795.688	70.31
795.864	70.06
796.041	69.22
796.218	70.15
796.395	69.57
796.572	69.38
796.749	70.22
796.925	69.9
797.102	70.98
797.279	71.15
797.456	71.64
797.632	72.13
797.809	71.65
797.986	71.69
798.162	71.23
798.339	71.46
798.516	71.77
798.692	71.38
798.869	72.05
799.046	70.77
799.222	70.85
799.399	70.22
799.575	70.17
799.752	70.74
799.928	71.07
800.105	71.18
800.281	71.21
800.458	70.99
800.634	70.85
800.811	70.91
800.987	72.47
801.163	72.01
801.34	73.1
801.516	73.01
801.692	74.89
801.869	74.71
802.045	75.16
802.221	75.56
802.398	75.75
802.574	75.79
802.75	75.21
802.926	74.14
803.103	74.03
803.279	74.17
803.455	74.27
803.631	72.31
803.807	72.41
803.983	71.38
804.16	70.49
804.336	70.17
804.512	70.21
804.688	70.96
804.864	71.35
805.04	70.7
805.216	69.74
805.392	70.35
805.568	70.57
805.744	70.42
805.92	70.83
806.096	72.07
806.272	72.97
806.448	72.79
806.623	72.92
806.799	72.84
806.975	73.94
807.151	74.1
807.327	74.38
807.503	74.76
807.678	75.41
807.854	76.13
808.03	76.69
808.206	76.93
808.381	77.48
808.557	77.56
808.733	78.44
808.908	78
809.084	78.67
809.26	77.66
809.435	76.22
809.611	75.93
809.787	74.85
809.962	73.41
810.138	73.79
810.313	73.1
810.489	72.78
810.664	71.32
810.84	72.32
811.015	71.96
811.191	71.58
811.366	70.87
811.542	70.41
811.717	69.93
811.892	70.53
812.068	69.44
812.243	69.85
812.419	70.62
812.594	70.77
812.769	71.11
812.944	69.6
813.12	70.44
813.295	72.79
813.47	71.54
813.645	72.03
813.821	71.67
813.996	71.92
814.171	71.82
814.346	71.07
814.521	70.94
814.697	70.12
814.872	72.39
815.047	72.63
815.222	73.22
815.397	72.58
815.572	72.39
815.747	71.84
815.922	72.13
816.097	72.91
816.272	73.03
816.447	73.4
816.622	74.06
816.797	74.06
816.972	74.03
817.147	72.54
817.322	74.23
817.496	73.35
817.671	73.59
817.846	72.82
818.021	70.64
818.196	69.69
818.371	68.39
818.545	67.95
818.72	67.88
818.895	68.42
819.069	68.71
819.244	68.87
819.419	69.82
819.594	68.9
819.768	68.67
819.943	70.46
820.117	71.09
820.292	71.14
820.467	71.13
820.641	70.75
820.816	71.18
820.99	71.03
821.165	70.49
821.339	70.2
821.514	70.13
821.688	70.12
821.863	69.44
822.037	68.93
822.212	68.83
822.386	68.14
822.56	67.75
822.735	67
822.909	66.57
823.084	66.39
823.258	66.09
823.432	65.94
823.606	65.49
823.781	65.42
823.955	65.32
824.129	64.92
824.303	64.91
824.478	64.82
824.652	64.62
824.826	64.52
825	64.5
825.174	64.48
825.348	64.35
825.523	64.38
825.697	64.54
825.871	65.1
826.045	65.15
826.219	66.14
826.393	66.47
826.567	66.57
826.741	67.09
826.915	67.05
827.089	67.4
827.263	67.28
827.437	67.24
827.611	66.96
827.784	66.27
827.958	66.34
828.132	65.53
828.306	65.21
828.48	65.12
828.654	64.69
828.827	64.12
829.001	63.76
829.175	65.06
829.349	65.13
829.522	64.82
829.696	64.51
829.87	64.4
830.044	64.91
830.217	64.39
830.391	65.66
830.565	66.28
830.738	68.06
830.912	68.55
831.085	66.79
831.259	68.63
831.432	69.45
831.606	71.36
831.779	71.9
831.953	72.18
832.126	73.36
832.3	72.66
832.473	72.51
832.647	70.6
832.82	70.34
832.994	70.8
833.167	69.78
833.34	69.82
833.514	69.41
833.687	69.36
833.86	69.42
834.034	68.83
834.207	68.34
834.38	68.23
834.553	68.65
834.727	68.96
834.9	68.85
835.073	68.91
835.246	68.38
835.419	68.06
835.593	67.91
835.766	67.45
835.939	68.65
836.112	68.83
836.285	67.7
836.458	69.62
836.631	68.38
836.804	68.33
836.977	69.45
837.15	70.06
837.323	70.46
837.496	70.87
837.669	69.39
837.842	67.58
838.015	68.59
838.188	69.2
838.361	66.06
838.533	67.83
838.706	68.3
838.879	65.73
839.052	65.35
839.225	65.1
839.398	65.54
839.57	69.39
839.743	70.36
839.916	68.44
840.088	70.39
840.261	72.74
840.434	70.87
840.607	70.78
840.779	72.72
840.952	73.53
841.124	73.69
841.297	73.86
841.47	71.91
841.642	73.39
841.815	74.51
841.987	72.53
842.16	71.25
842.332	72.38
842.505	70.62
842.677	69.16
842.85	71.82
843.022	71
843.194	72.27
843.367	71.66
843.539	69.03
843.712	69.5
843.884	70.08
844.056	70.58
844.229	73.15
844.401	76.07
844.573	78.94
844.745	76.29
844.918	79.57
845.09	78.06
845.262	78.26
845.434	80.63
845.606	84.6
845.779	86.74
845.951	87.56
846.123	83.76
846.295	82.81
846.467	83.43
846.639	87.24
846.811	88.43
846.983	87.14
847.155	86.59
847.327	86.72
847.499	80.58
847.671	79.52
847.843	79.18
848.015	78.45
848.187	81.71
848.359	79.53
848.531	75.25
848.703	74.76
848.875	77.87
849.047	78.18
849.218	77.35
849.39	79.54
849.562	80.01
849.734	77.64
849.905	81.76
850.077	80.18
850.249	80.66
850.421	82.96
850.592	77.9
850.764	79.7
850.936	82.17
851.107	84.87
851.279	89.76
851.451	89.86
851.622	89.53
851.794	88.16
851.965	88.08
852.137	86.3
852.308	82.71
852.48	85.56
852.651	80.9
852.823	81.31
852.994	78.1
853.166	76.26
853.337	75.69
853.509	77.93
853.68	79.7
853.851	78.55
854.023	78.48
854.194	81.55
854.365	82.55
854.537	84.19
854.708	88.35
854.879	91.28
855.05	89.96
855.222	91.22
855.393	92
855.564	89.06
855.735	91.04
855.906	91.68
856.078	88.07
856.249	90.09
856.42	88.1
856.591	81.59
856.762	82.52
856.933	83.3
857.104	77.94
857.275	79.47
857.446	79.8
857.617	78.94
857.788	80.71
857.959	81.44
858.13	79.57
858.301	82.37
858.472	84.85
858.643	81
858.814	79.47
858.985	81.03
859.155	80.87
859.326	84.18
859.497	82.12
859.668	79.91
859.839	78.75
860.009	78.71
860.18	75.34
860.351	70.74
860.522	70.74
860.692	73.97
860.863	77.13
861.034	77.79
861.204	74.82
861.375	76.82
861.546	78.77
861.716	81.18
861.887	81.29
862.057	80.75
862.228	86.52
862.398	88.88
862.569	84.55
862.739	87.74
862.91	87.3
863.08	84.84
863.251	83.98
863.421	80.29
863.592	83.49
863.762	80.27
863.932	80.21
864.103	76.14
864.273	79.89
864.443	82.87
864.614	80.49
864.784	82.6
864.954	85.36
865.125	88.7
865.295	92.8
865.465	87.09
865.635	90.3
865.805	92.4
865.976	91.71
866.146	85.17
866.316	82.38
866.486	78.46
866.656	78.16
866.826	78.43
866.996	78.87
867.166	76.79
867.336	80.44
867.506	85.88
867.676	86.52
867.846	84.24
868.016	87.68
868.186	93.08
868.356	99.88
868.526	90.53
868.696	92.06
868.866	89.01
869.036	90.39
869.206	86.49
869.376	82.93
869.545	81.32
869.715	89.18
869.885	86.03
870.055	81.07
870.224	82.26
870.394	87.33
870.564	88.98
870.734	90.34
870.903	89.16
871.073	93.99
871.243	92.03
871.412	89.74
871.582	86.05
871.751	90.98
871.921	92.27
872.091	86.88
872.26	83.29
872.43	76.47
872.599	76.09
872.769	74.79
872.938	76.3
873.108	75.31
873.277	76.56
873.446	77.48
873.616	72.72
873.785	75.16
873.955	73.21
874.124	75.84
874.293	76.51
874.463	75.23
874.632	75.72
874.801	71.32
874.971	73.43
875.14	73.27
875.309	74.09
875.478	77.53
875.647	75.42
875.817	79.09
875.986	80.84
876.155	85.76
876.324	85.07
876.493	85.03
876.662	85.16
876.831	82.97
877	84.82
877.17	85.74
877.339	83.75
877.508	82.44
877.677	84.4
877.846	80.08
878.015	76.93
878.184	79.5
878.352	77.4
878.521	76.36
878.69	77.16
878.859	79.24
879.028	74.45
879.197	73.47
879.366	73.48
879.534	71.51
879.703	71.68
879.872	70.66
880.041	67.5
880.21	67.91
880.378	69.25
880.547	69.36
880.716	66.04
880.884	66.8
881.053	67.02
881.222	67.7
881.39	66.97
881.559	67.23
881.727	66.67
881.896	66.16
882.065	65.78
882.233	64.5
882.402	64.09
882.57	65.18
882.739	64.38
882.907	64.79
883.076	63.08
883.244	62.15
883.412	61.64
883.581	61.67
883.749	62.13
883.918	62.62
884.086	62.83
884.254	62.98
884.423	62.71
884.591	62.78
884.759	61.26
884.927	61.9
885.096	63.66
885.264	64.28
885.432	65.27
885.6	67.31
885.769	66.6
885.937	66.61
886.105	66.95
886.273	67.7
886.441	70.34
886.609	72.51
886.777	73.28
886.945	71.88
887.113	71.93
887.281	71.65
887.449	70.72
887.617	71.37
887.785	75.09
887.953	74.54
888.121	72.28
888.289	70.99
888.457	72.16
888.625	73.19
888.793	77.24
888.961	77.07
889.129	76.47
889.296	71.42
889.464	73.66
889.632	71.89
889.8	71.09
889.967	72.21
890.135	71.58
