Data from 2938455_Reflection_3.txt Node
Date: Fri Jun 19 17:48:11 EDT 2015
User: robert
Spectrometer: USB4E03002
Autoset integration time: false
Trigger mode: 4
Integration Time (sec): 1.000000E-1
Scans to average: 10
Electric dark correction enabled: true
Nonlinearity correction enabled: false
Boxcar width: 5
Stray light correction enabled: false
XAxis mode: Wavelengths
Stop averaging: false
Number of Pixels in Spectrum: 3648
>>>>>Begin Spectral Data<<<<<
177.575	718.93
177.794	-2270.83
178.014	527.16
178.233	-27.48
178.452	-25.5
178.672	-98.75
178.891	-184.64
179.11	-87.97
179.33	-77.72
179.549	-117.89
179.768	-88.65
179.987	80.82
180.207	637.92
180.426	153.54
180.645	-35.35
180.864	13.4
181.084	-29.03
181.303	23.34
181.522	7.94
181.741	72.37
181.96	90.85
182.179	66.88
182.398	30.06
182.618	53.31
182.837	68.78
183.056	130.41
183.275	94.65
183.494	73.76
183.713	72.07
183.932	152.52
184.151	18.63
184.37	-89.62
184.589	-24.45
184.808	-6.52
185.027	-30.57
185.246	1620.56
185.465	540.99
185.684	345.41
185.903	179.43
186.122	196.29
186.341	205.3
186.56	206.58
186.779	145.28
186.998	144.09
187.216	163
187.435	214.36
187.654	397.06
187.873	354.84
188.092	-8273.91
188.311	-355.16
188.53	773
188.748	314.87
188.967	289.29
189.186	397.78
189.405	35.12
189.623	307.17
189.842	-6.92
190.061	-120.07
190.28	-38.72
190.498	-19.84
190.717	12.96
190.936	-32.77
191.154	-57.39
191.373	-51.36
191.592	-10.43
191.81	-1.48
192.029	10.92
192.248	18.6
192.466	26.52
192.685	14.81
192.904	11.49
193.122	-0.5
193.341	0.89
193.559	29.6
193.778	18.26
193.996	3.18
194.215	14.83
194.433	-4.07
194.652	-22.49
194.87	-27.87
195.089	-13.81
195.307	7.46
195.526	16.69
195.744	48.37
195.963	23.03
196.181	34.83
196.399	47.61
196.618	29.98
196.836	42.4
197.055	53.45
197.273	52.36
197.491	65.83
197.71	55.59
197.928	47.25
198.146	13.89
198.365	30.63
198.583	54.85
198.801	47.15
199.019	59.79
199.238	58.66
199.456	47.37
199.674	51.98
199.892	45.91
200.111	40.3
200.329	70.16
200.547	75.56
200.765	77.8
200.983	65.18
201.202	69.97
201.42	90.96
201.638	64.47
201.856	138.85
202.074	87.67
202.292	184.41
202.51	168.17
202.728	-25.71
202.946	84.52
203.165	126.45
203.383	13.46
203.601	30.52
203.819	-23.23
204.037	0.28
204.255	-16.24
204.473	-17.9
204.691	-7.24
204.909	-51.98
205.127	-32.64
205.345	-55.14
205.562	-156.44
205.78	-44.68
205.998	-65.2
206.216	-24.19
206.434	5.71
206.652	-10.51
206.87	11.78
207.088	15.02
207.306	-936.79
207.523	383.33
207.741	70.86
207.959	88.55
208.177	473.71
208.395	-286.79
208.612	10.92
208.83	-0.24
209.048	45.08
209.266	12.17
209.483	15.61
209.701	11.72
209.919	16.24
210.136	37.32
210.354	44.32
210.572	27.88
210.79	64.44
211.007	59.66
211.225	66.08
211.442	64.86
211.66	99.8
211.878	51.02
212.095	-253.91
212.313	-89.6
212.53	-69.38
212.748	-103.74
212.966	-43.56
213.183	114.74
213.401	-124.35
213.618	116.06
213.836	618.9
214.053	107.99
214.271	-545.29
214.488	3.67
214.705	51.3
214.923	32.44
215.14	5.13
215.358	5.83
215.575	4.79
215.793	-1.7
216.01	25.55
216.227	16.53
216.445	45.01
216.662	44.5
216.879	79.47
217.097	57.3
217.314	41.96
217.531	42.18
217.749	48.83
217.966	77.91
218.183	44.03
218.4	6.95
218.618	17.37
218.835	17.22
219.052	19.59
219.269	2.79
219.487	4.92
219.704	13.64
219.921	6.59
220.138	13.13
220.355	-12.87
220.572	19.6
220.79	33.17
221.007	28.61
221.224	17.16
221.441	22.33
221.658	36.2
221.875	27.85
222.092	20.74
222.309	25.54
222.526	33.18
222.743	40.65
222.96	13.45
223.177	14.62
223.394	13.94
223.611	20.51
223.828	14.62
224.045	7.69
224.262	19.11
224.479	21.91
224.696	31.74
224.913	23.39
225.13	23.15
225.347	30.16
225.564	28.09
225.781	27.54
225.997	25.09
226.214	22.41
226.431	23.7
226.648	19.38
226.865	20.23
227.082	17.76
227.298	17.95
227.515	18.64
227.732	17.06
227.949	15.95
228.165	17.35
228.382	15.59
228.599	16.83
228.816	15.21
229.032	14.77
229.249	13.04
229.466	12.92
229.682	10.56
229.899	9.7
230.116	6.64
230.332	6.82
230.549	-2.49
230.765	3.04
230.982	-1.78
231.199	-0.1
231.415	3.55
231.632	1.99
231.848	2.09
232.065	5
232.281	6.16
232.498	9.4
232.714	7.56
232.931	12.34
233.147	7.55
233.364	8.95
233.58	9.75
233.797	11.61
234.013	12
234.23	11.44
234.446	16.4
234.662	14.74
234.879	20.03
235.095	22.31
235.312	20.94
235.528	21.7
235.744	24.4
235.961	23.46
236.177	17.5
236.393	20.71
236.61	19.94
236.826	19.26
237.042	20.55
237.258	16.99
237.475	16.33
237.691	15.04
237.907	14.45
238.123	11.79
238.339	16.06
238.556	19.41
238.772	16.75
238.988	15.92
239.204	13.07
239.42	11.97
239.636	13.97
239.853	13.39
240.069	14.71
240.285	15.83
240.501	16.89
240.717	13.73
240.933	13.62
241.149	14.22
241.365	16.12
241.581	16.37
241.797	16.6
242.013	14.73
242.229	15.43
242.445	15.11
242.661	14.38
242.877	13.71
243.093	15.02
243.309	13.93
243.525	13.46
243.741	12.15
243.957	13.06
244.173	12.79
244.388	13.67
244.604	13.17
244.82	13.11
245.036	12.79
245.252	12.33
245.468	12.7
245.683	12.79
245.899	12.46
246.115	12.93
246.331	12.64
246.547	12.33
246.762	11.95
246.978	12.13
247.194	12.12
247.409	12.9
247.625	13.47
247.841	12.39
248.057	13.02
248.272	13.46
248.488	12.01
248.703	11.23
248.919	12.16
249.135	11.65
249.35	12.23
249.566	12.81
249.782	11.65
249.997	11.97
250.213	11.38
250.428	10.84
250.644	12.15
250.859	12.22
251.075	12.31
251.29	11.78
251.506	13.28
251.721	12.67
251.937	11.41
252.152	12.31
252.368	11.87
252.583	13.95
252.798	14.57
253.014	13.62
253.229	15.07
253.445	16.56
253.66	17.57
253.875	16.17
254.091	16.39
254.306	17.17
254.521	15.68
254.737	14.87
254.952	13.09
255.167	11.45
255.383	12.08
255.598	11.18
255.813	9.91
256.028	8.99
256.244	8.98
256.459	8.33
256.674	7.87
256.889	8.45
257.104	8.24
257.32	8.7
257.535	8.63
257.75	8.77
257.965	9.11
258.18	9.15
258.395	9.18
258.61	9.4
258.826	9.71
259.041	9.55
259.256	9.32
259.471	9.84
259.686	9.83
259.901	9.82
260.116	9.47
260.331	8.37
260.546	8.52
260.761	7.95
260.976	7.1
261.191	6.22
261.406	6.09
261.621	6.4
261.836	5.68
262.05	4.78
262.265	4.08
262.48	4.45
262.695	5.7
262.91	5.27
263.125	5.82
263.34	6.49
263.555	6.94
263.769	7.62
263.984	6.37
264.199	7.17
264.414	7.68
264.629	8.02
264.843	7.14
265.058	6.82
265.273	7.06
265.488	7.76
265.702	8.13
265.917	7.74
266.132	7.4
266.346	9.07
266.561	9.03
266.776	8.8
266.99	9.45
267.205	9.12
267.42	9.7
267.634	9.55
267.849	8.57
268.063	8.32
268.278	8.09
268.492	8.14
268.707	7.24
268.922	6.9
269.136	7.05
269.351	5.84
269.565	5.77
269.78	5.38
269.994	4.88
270.209	6.06
270.423	6.74
270.637	7.14
270.852	6.97
271.066	7.46
271.281	7.83
271.495	8.49
271.709	9.15
271.924	9.31
272.138	9.03
272.353	9.73
272.567	9.4
272.781	9.31
272.996	9.23
273.21	10.27
273.424	10.31
273.638	10.36
273.853	9.75
274.067	10.34
274.281	11.33
274.495	12.16
274.71	12.52
274.924	11.93
275.138	11.19
275.352	11.41
275.566	11.46
275.781	11.16
275.995	11.36
276.209	11.62
276.423	11.41
276.637	11.14
276.851	10.15
277.065	9.31
277.279	9.48
277.493	9.71
277.707	10.05
277.921	9.98
278.135	9.75
278.349	8.74
278.563	9.38
278.777	9.63
278.991	9.5
279.205	10.22
279.419	10.31
279.633	10.37
279.847	10.36
280.061	10.47
280.275	9.23
280.489	9.07
280.703	9.87
280.917	9.49
281.131	9.01
281.344	9.12
281.558	8.66
281.772	8.78
281.986	8.86
282.2	8.92
282.414	9.61
282.627	10.17
282.841	10.59
283.055	10.14
283.269	10.29
283.482	10.63
283.696	10.68
283.91	10.68
284.123	10.64
284.337	10.74
284.551	10.49
284.764	10.27
284.978	10.09
285.192	9.76
285.405	9.93
285.619	8.88
285.833	9.11
286.046	8.44
286.26	9.2
286.473	9.06
286.687	9.11
286.9	9.46
287.114	9.11
287.327	9.92
287.541	10.31
287.754	10.18
287.968	11
288.181	9.69
288.395	10.11
288.608	10.39
288.822	10.86
289.035	10.5
289.248	10.27
289.462	10.63
289.675	9.9
289.889	9.14
290.102	8.83
290.315	8.85
290.529	10.01
290.742	10.52
290.955	9.88
291.169	9.42
291.382	9.81
291.595	10.56
291.808	10.13
292.022	11.64
292.235	12.55
292.448	12.73
292.661	12.7
292.875	13.08
293.088	12.73
293.301	13.78
293.514	15.05
293.727	14.91
293.94	14.47
294.153	14.36
294.367	13.45
294.58	12.83
294.793	12.97
295.006	13.62
295.219	13.44
295.432	13.55
295.645	12.96
295.858	13.04
296.071	13.33
296.284	13.53
296.497	13.81
296.71	14.12
296.923	15.04
297.136	15.38
297.349	14.9
297.562	14.61
297.775	15.21
297.988	15.44
298.201	15.1
298.414	15.22
298.626	15.44
298.839	15.51
299.052	14.52
299.265	14.63
299.478	14.89
299.691	15.47
299.903	15.57
300.116	15.01
300.329	15.39
300.542	15.79
300.755	15.68
300.967	15.87
301.18	16.1
301.393	16.4
301.605	16.25
301.818	16.58
302.031	16.27
302.243	16.5
302.456	17.24
302.669	17.15
302.881	16.74
303.094	17.23
303.307	16.55
303.519	16.26
303.732	17.01
303.944	17.39
304.157	16.79
304.37	16.99
304.582	17.58
304.795	17.4
305.007	17.11
305.22	17.41
305.432	17.34
305.645	18.37
305.857	18.78
306.069	19.4
306.282	19.12
306.494	19.25
306.707	19.33
306.919	19.18
307.132	19.7
307.344	19.94
307.556	19.49
307.769	19.13
307.981	19.01
308.193	19.18
308.406	18.87
308.618	18.91
308.83	19.22
309.043	19.81
309.255	19.97
309.467	19.94
309.679	19.74
309.892	20.13
310.104	20.88
310.316	20.64
310.528	20.63
310.74	21.24
310.953	20.98
311.165	21.52
311.377	20.86
311.589	21.03
311.801	21.18
312.013	21.99
312.225	22.5
312.437	22.17
312.649	23.2
312.862	23.45
313.074	22.91
313.286	23.31
313.498	22.75
313.71	23.33
313.922	23.45
314.134	23.3
314.346	22.69
314.558	22.92
314.77	22.72
314.982	22.39
315.193	23.25
315.405	23.18
315.617	23.8
315.829	24.98
316.041	25.57
316.253	26.2
316.465	26.32
316.677	26.79
316.888	26.79
317.1	26.98
317.312	27.2
317.524	26.23
317.736	26.65
317.947	26.36
318.159	25.3
318.371	24.91
318.583	24.54
318.794	23.88
319.006	24.26
319.218	23.38
319.43	24.15
319.641	23.51
319.853	24.47
320.064	25.62
320.276	25.54
320.488	26.3
320.699	26.82
320.911	27.17
321.123	28.74
321.334	27.99
321.546	28.6
321.757	28.81
321.969	28.97
322.18	27.98
322.392	27.38
322.603	28.18
322.815	28.11
323.026	28.51
323.238	28.44
323.449	28.02
323.661	29.44
323.872	30.3
324.083	30.21
324.295	30.85
324.506	31.7
324.718	32.22
324.929	32.57
325.14	32.98
325.352	32.8
325.563	33.72
325.774	34.37
325.986	34.77
326.197	35.42
326.408	36.43
326.62	37.3
326.831	37.31
327.042	37.95
327.253	37.67
327.464	38.27
327.676	38.54
327.887	39.14
328.098	39.37
328.309	39.42
328.52	39.32
328.732	39.41
328.943	39.97
329.154	41.17
329.365	41.26
329.576	41.93
329.787	42.34
329.998	44.04
330.209	43.8
330.42	43.78
330.631	44.2
330.842	44.4
331.053	44.33
331.264	43.8
331.475	44.34
331.686	44.64
331.897	45.03
332.108	45.42
332.319	44.92
332.53	45.6
332.741	46.32
332.952	46.22
333.163	45.82
333.374	46.12
333.585	47.04
333.795	46.26
334.006	46.19
334.217	46.56
334.428	46.56
334.639	46.78
334.849	47
335.06	46.96
335.271	47.09
335.482	47.79
335.692	47.33
335.903	47
336.114	47.28
336.325	48.17
336.535	48.36
336.746	48.55
336.957	49.2
337.167	49.4
337.378	49.3
337.589	49.27
337.799	48.56
338.01	49.37
338.22	49.63
338.431	49.44
338.642	48.15
338.852	47.86
339.063	47.57
339.273	46.66
339.484	45.86
339.694	46.82
339.905	47.36
340.115	47.8
340.326	47.85
340.536	47.39
340.746	47.39
340.957	48.01
341.167	48
341.378	48.19
341.588	48.64
341.799	49.36
342.009	48.41
342.219	48.01
342.43	48.28
342.64	48.28
342.85	48.31
343.061	48.24
343.271	47.81
343.481	48.16
343.691	47.65
343.902	47.63
344.112	47.6
344.322	47.19
344.532	47.36
344.743	46.89
344.953	46.36
345.163	46.51
345.373	46.7
345.583	46.98
345.793	47.29
346.004	47.9
346.214	47.27
346.424	47.41
346.634	47.25
346.844	47.39
347.054	48.2
347.264	49.06
347.474	48.91
347.684	48.95
347.894	49.79
348.104	49.02
348.314	47.98
348.524	47.8
348.734	46.98
348.944	48.02
349.154	48.14
349.364	47.84
349.574	46.71
349.784	46.93
349.994	47.13
350.204	46.11
350.413	46.53
350.623	47.11
350.833	47.37
351.043	47.79
351.253	47.53
351.463	47.39
351.672	46.82
351.882	47.48
352.092	46.81
352.302	47.08
352.511	47.46
352.721	47.02
352.931	47.12
353.141	46.7
353.35	47
353.56	47.3
353.77	47.05
353.979	46.7
354.189	46.36
354.399	46.78
354.608	46.19
354.818	46.09
355.027	46.34
355.237	45.96
355.447	46.82
355.656	46.04
355.866	46.13
356.075	46.5
356.285	46.78
356.494	46.74
356.704	46.74
356.913	47
357.123	46.69
357.332	46.16
357.542	46.65
357.751	46.21
357.96	46.29
358.17	45.7
358.379	45.09
358.589	45.35
358.798	45.91
359.007	45.33
359.217	45.37
359.426	45.38
359.635	45.67
359.845	45.33
360.054	45.18
360.263	44.85
360.472	44.95
360.682	45.19
360.891	45.25
361.1	45.08
361.309	45.13
361.519	45.05
361.728	44.85
361.937	44.76
362.146	44.77
362.355	45.03
362.564	45.83
362.774	45.96
362.983	45.55
363.192	45.34
363.401	44.67
363.61	44.99
363.819	44.56
364.028	44.54
364.237	44.01
364.446	43.71
364.655	42.99
364.864	42.3
365.073	41.65
365.282	41.71
365.491	41.22
365.7	41.6
365.909	41.52
366.118	41.4
366.327	41.34
366.536	41.54
366.745	41.53
366.954	41.66
367.162	41.56
367.371	42.1
367.58	41.78
367.789	41.86
367.998	41.2
368.207	40.8
368.415	40.61
368.624	40.65
368.833	40.45
369.042	40.43
369.25	40.7
369.459	40.67
369.668	40.12
369.877	40.28
370.085	39.93
370.294	39.93
370.503	39.98
370.711	40.15
370.92	39.92
371.129	39.57
371.337	39.35
371.546	39.06
371.754	38.7
371.963	38.1
372.171	37.81
372.38	38.27
372.589	38.51
372.797	38.18
373.006	37.68
373.214	37.38
373.423	37.56
373.631	37.67
373.84	37.5
374.048	37.41
374.256	37.59
374.465	37.41
374.673	37.06
374.882	36.68
375.09	36.58
375.298	36.36
375.507	36.32
375.715	36.5
375.923	35.98
376.132	35.78
376.34	35.49
376.548	35.35
376.757	35.43
376.965	35.24
377.173	35.38
377.381	35.4
377.59	35.64
377.798	35.64
378.006	35.19
378.214	35.25
378.423	35.2
378.631	35.45
378.839	35.29
379.047	35.1
379.255	35.09
379.463	34.78
379.671	34.44
379.879	34.32
380.088	34.18
380.296	34.07
380.504	34.34
380.712	34.33
380.92	33.78
381.128	33.76
381.336	33.38
381.544	32.89
381.752	32.56
381.96	32.46
382.168	32.38
382.376	32.01
382.584	31.95
382.791	31.41
382.999	30.96
383.207	30.94
383.415	31.06
383.623	30.92
383.831	30.71
384.039	30.69
384.247	30.2
384.454	29.92
384.662	29.62
384.87	29.36
385.078	29.17
385.285	28.73
385.493	28.77
385.701	28.42
385.909	28.48
386.116	28.62
386.324	28.27
386.532	28.21
386.739	27.96
386.947	27.94
387.155	27.74
387.362	27.7
387.57	27.43
387.778	27.22
387.985	26.91
388.193	26.51
388.4	26.06
388.608	26.23
388.816	26.38
389.023	26.18
389.231	25.94
389.438	25.67
389.646	25.5
389.853	25.64
390.061	25.15
390.268	24.99
390.475	24.94
390.683	25.02
390.89	24.51
391.098	24.22
391.305	24.21
391.512	24.13
391.72	23.9
391.927	23.61
392.135	23.53
392.342	23.65
392.549	23.51
392.756	23.1
392.964	22.85
393.171	22.96
393.378	22.95
393.586	22.72
393.793	22.77
394	22.93
394.207	22.94
394.414	22.95
394.622	22.82
394.829	22.99
395.036	23.11
395.243	23.07
395.45	23
395.657	23.05
395.864	22.99
396.072	22.95
396.279	22.71
396.486	22.73
396.693	22.35
396.9	22.32
397.107	21.99
397.314	21.97
397.521	21.67
397.728	21.41
397.935	21.23
398.142	21.26
398.349	20.98
398.556	20.97
398.763	20.7
398.97	20.71
399.177	20.46
399.383	20.36
399.59	20.42
399.797	20.52
400.004	20.66
400.211	20.56
400.418	20.57
400.625	20.54
400.831	20.57
401.038	20.42
401.245	20.56
401.452	20.59
401.658	20.63
401.865	20.51
402.072	20.49
402.279	20.41
402.485	20.28
402.692	20.13
402.899	19.99
403.105	19.87
403.312	19.94
403.519	19.74
403.725	19.77
403.932	19.65
404.138	19.51
404.345	19.41
404.552	19.26
404.758	19.31
404.965	19.24
405.171	19.25
405.378	19.26
405.584	19.26
405.791	19.2
405.997	19.2
406.204	19.32
406.41	19.41
406.617	19.46
406.823	19.49
407.029	19.35
407.236	19.2
407.442	19.4
407.649	19.34
407.855	19.18
408.061	19.32
408.268	19.25
408.474	19.27
408.68	19.27
408.887	19.24
409.093	19.21
409.299	19.37
409.505	19.57
409.712	19.45
409.918	19.34
410.124	19.36
410.33	19.25
410.537	19.11
410.743	19.17
410.949	19.01
411.155	19.02
411.361	19.03
411.567	18.64
411.773	18.34
411.98	18.22
412.186	18.36
412.392	18.33
412.598	18.23
412.804	18.19
413.01	17.88
413.216	17.91
413.422	18.06
413.628	17.89
413.834	17.96
414.04	18.16
414.246	18.05
414.452	17.98
414.658	18.03
414.864	17.96
415.07	18.06
415.275	18.14
415.481	18.14
415.687	17.8
415.893	17.96
416.099	17.88
416.305	17.73
416.511	17.88
416.716	17.77
416.922	17.75
417.128	17.65
417.334	17.52
417.539	17.46
417.745	17.39
417.951	17.45
418.157	17.28
418.362	17.35
418.568	17.32
418.774	17.18
418.979	17.19
419.185	17.13
419.391	17.18
419.596	17.12
419.802	17.04
420.008	16.94
420.213	16.42
420.419	16.46
420.624	16.39
420.83	16.38
421.035	16.29
421.241	16.31
421.446	16.22
421.652	16.18
421.857	16.18
422.063	16.23
422.268	16.32
422.474	16.76
422.679	16.65
422.885	16.66
423.09	16.63
423.295	16.73
423.501	16.68
423.706	16.69
423.911	16.66
424.117	16.61
424.322	16.58
424.527	16.47
424.733	16.43
424.938	16.47
425.143	16.47
425.349	16.4
425.554	16.32
425.759	16.24
425.964	16.19
426.169	16.2
426.375	16.15
426.58	16.11
426.785	16.27
426.99	16.29
427.195	16.35
427.4	16.27
427.605	16.26
427.811	16.25
428.016	16.27
428.221	16.21
428.426	16.17
428.631	16.29
428.836	16.31
429.041	16.2
429.246	16.21
429.451	16.12
429.656	16.14
429.861	16.23
430.066	16.17
430.271	16.2
430.476	16.38
430.681	16.38
430.886	16.39
431.09	16.34
431.295	16.38
431.5	16.41
431.705	16.48
431.91	16.45
432.115	16.42
432.32	16.51
432.524	16.41
432.729	16.32
432.934	16.36
433.139	16.31
433.343	16.29
433.548	16.24
433.753	16.18
433.958	16.12
434.162	16.24
434.367	16.19
434.572	16.21
434.776	16.26
434.981	16.32
435.186	16.28
435.39	16.39
435.595	16.45
435.799	16.45
436.004	16.53
436.209	16.62
436.413	16.72
436.618	16.81
436.822	16.74
437.027	16.8
437.231	16.77
437.436	16.88
437.64	16.7
437.845	16.67
438.049	16.63
438.253	16.56
438.458	16.51
438.662	16.41
438.867	16.32
439.071	16.37
439.275	16.28
439.48	16.27
439.684	16.13
439.888	16.2
440.093	16.21
440.297	16.14
440.501	16.25
440.706	16.22
440.91	16.15
441.114	16.18
441.318	16.13
441.523	16.17
441.727	16.25
441.931	16.31
442.135	16.36
442.339	16.35
442.543	16.48
442.748	16.33
442.952	16.28
443.156	16.28
443.36	16.26
443.564	16.3
443.768	16.24
443.972	16.24
444.176	16.24
444.38	16.2
444.584	16.1
444.788	16.06
444.992	16.06
445.196	16.07
445.4	16.01
445.604	15.97
445.808	15.95
446.012	15.93
446.216	15.8
446.42	15.76
446.624	15.66
446.828	15.66
447.032	15.62
447.235	15.52
447.439	15.44
447.643	15.46
447.847	15.44
448.051	15.41
448.254	15.39
448.458	15.44
448.662	15.45
448.866	15.47
449.069	15.54
449.273	15.6
449.477	15.84
449.681	15.76
449.884	15.73
450.088	15.85
450.292	15.72
450.495	15.67
450.699	15.68
450.902	15.65
451.106	15.67
451.31	15.6
451.513	15.52
451.717	15.28
451.92	15.4
452.124	15.4
452.327	15.36
452.531	15.55
452.734	15.74
452.938	15.69
453.141	15.72
453.345	15.71
453.548	15.64
453.752	15.7
453.955	15.69
454.158	15.7
454.362	15.76
454.565	15.7
454.769	15.63
454.972	15.57
455.175	15.55
455.379	15.47
455.582	15.51
455.785	15.56
455.988	15.58
456.192	15.59
456.395	15.62
456.598	15.59
456.801	15.73
457.005	15.75
457.208	15.75
457.411	15.79
457.614	15.84
457.817	15.85
458.021	15.83
458.224	15.79
458.427	15.86
458.63	15.82
458.833	15.79
459.036	15.69
459.239	15.75
459.442	15.65
459.645	15.69
459.848	15.76
460.051	15.71
460.254	15.71
460.457	15.72
460.66	15.8
460.863	15.87
461.066	15.99
461.269	16.04
461.472	15.94
461.675	16.12
461.878	16.04
462.081	15.96
462.284	16.05
462.486	16.24
462.689	16.31
462.892	16.19
463.095	16.3
463.298	16.27
463.5	16.39
463.703	16.37
463.906	16.38
464.109	16.47
464.311	16.58
464.514	16.75
464.717	16.76
464.92	16.81
465.122	16.91
465.325	16.85
465.528	16.93
465.73	16.83
465.933	16.89
466.135	16.95
466.338	16.92
466.541	16.86
466.743	16.78
466.946	16.77
467.148	16.77
467.351	16.78
467.553	16.79
467.756	16.7
467.958	16.73
468.161	16.82
468.363	16.8
468.566	16.8
468.768	16.78
468.971	16.73
469.173	16.75
469.375	16.62
469.578	16.5
469.78	16.43
469.983	16.43
470.185	16.43
470.387	16.36
470.59	16.33
470.792	16.36
470.994	16.33
471.196	16.37
471.399	16.36
471.601	16.42
471.803	16.49
472.005	16.54
472.208	16.62
472.41	16.53
472.612	16.51
472.814	16.53
473.016	16.56
473.218	16.7
473.421	16.73
473.623	16.74
473.825	16.8
474.027	16.81
474.229	16.96
474.431	16.97
474.633	16.99
474.835	16.99
475.037	16.99
475.239	16.95
475.441	16.83
475.643	16.74
475.845	16.7
476.047	16.72
476.249	16.68
476.451	16.57
476.653	16.46
476.855	16.43
477.057	16.43
477.258	16.4
477.46	16.43
477.662	16.4
477.864	16.4
478.066	16.39
478.268	16.38
478.469	16.44
478.671	16.41
478.873	16.46
479.075	16.52
479.276	16.41
479.478	16.37
479.68	16.41
479.882	16.46
480.083	16.5
480.285	16.6
480.487	16.63
480.688	16.69
480.89	16.75
481.091	16.72
481.293	16.7
481.495	16.68
481.696	16.64
481.898	16.56
482.099	16.54
482.301	16.51
482.502	16.38
482.704	16.32
482.905	16.24
483.107	16.16
483.308	16.13
483.51	16.12
483.711	16.14
483.913	16.16
484.114	16.18
484.315	16.15
484.517	16.16
484.718	16.24
484.92	16.26
485.121	16.31
485.322	16.35
485.524	16.36
485.725	16.33
485.926	16.27
486.127	16.22
486.329	16.22
486.53	16.22
486.731	16.18
486.932	16.17
487.134	16.14
487.335	16.12
487.536	16.12
487.737	16.14
487.938	16.11
488.139	16.19
488.341	16.24
488.542	16.28
488.743	16.34
488.944	16.44
489.145	16.48
489.346	16.54
489.547	16.57
489.748	16.57
489.949	16.65
490.15	16.74
490.351	16.73
490.552	16.75
490.753	16.71
490.954	16.7
491.155	16.73
491.356	16.73
491.557	16.76
491.758	16.82
491.959	16.91
492.159	16.91
492.36	16.94
492.561	17.03
492.762	17.15
492.963	17.26
493.164	17.34
493.364	17.43
493.565	17.51
493.766	17.56
493.967	17.57
494.167	17.61
494.368	17.67
494.569	17.66
494.769	17.74
494.97	17.72
495.171	17.77
495.371	17.84
495.572	17.83
495.773	17.93
495.973	18
496.174	18.07
496.375	18.05
496.575	18.07
496.776	18.12
496.976	18.15
497.177	18.21
497.377	18.32
497.578	18.38
497.778	18.45
497.979	18.44
498.179	18.51
498.38	18.57
498.58	18.62
498.78	18.74
498.981	18.86
499.181	18.97
499.382	19.03
499.582	19.07
499.782	19.14
499.983	19.25
500.183	19.37
500.383	19.49
500.584	19.59
500.784	19.8
500.984	19.82
501.184	19.9
501.385	19.94
501.585	20.01
501.785	20.1
501.985	20.23
502.185	20.27
502.386	20.33
502.586	20.27
502.786	20.41
502.986	20.46
503.186	20.58
503.386	20.67
503.586	20.67
503.786	20.76
503.987	20.87
504.187	20.85
504.387	20.91
504.587	21.07
504.787	21.27
504.987	21.29
505.187	21.4
505.387	21.41
505.587	21.49
505.786	21.68
505.986	21.66
506.186	21.69
506.386	21.81
506.586	21.99
506.786	22.05
506.986	22.1
507.186	22.24
507.386	22.31
507.585	22.44
507.785	22.55
507.985	22.63
508.185	22.82
508.384	22.95
508.584	23
508.784	23
508.984	23.06
509.183	23.18
509.383	23.27
509.583	23.39
509.782	23.54
509.982	23.66
510.182	23.67
510.381	23.72
510.581	23.73
510.781	23.87
510.98	24.06
511.18	24.14
511.379	24.21
511.579	24.22
511.778	24.26
511.978	24.36
512.177	24.39
512.377	24.58
512.576	24.64
512.776	24.81
512.975	24.9
513.175	24.89
513.374	25.03
513.573	25.24
513.773	25.46
513.972	25.49
514.172	25.58
514.371	25.76
514.57	25.85
514.77	26.05
514.969	26.16
515.168	26.27
515.367	26.4
515.567	26.57
515.766	26.61
515.965	26.72
516.164	26.81
516.364	26.83
516.563	26.77
516.762	26.81
516.961	26.82
517.16	26.91
517.359	26.97
517.559	26.97
517.758	26.99
517.957	27.02
518.156	27
518.355	27.09
518.554	27.13
518.753	27.24
518.952	27.3
519.151	27.38
519.35	27.44
519.549	27.56
519.748	27.65
519.947	27.68
520.146	27.81
520.345	27.95
520.544	28.02
520.743	28.12
520.942	28.32
521.141	28.47
521.339	28.6
521.538	28.69
521.737	28.66
521.936	28.76
522.135	28.83
522.333	28.91
522.532	29.03
522.731	29.1
522.93	29.21
523.129	29.2
523.327	29.27
523.526	29.39
523.725	29.42
523.923	29.42
524.122	29.48
524.321	29.57
524.519	29.63
524.718	29.66
524.917	29.72
525.115	29.74
525.314	29.85
525.512	29.96
525.711	30.07
525.909	30.16
526.108	30.26
526.306	30.33
526.505	30.35
526.703	30.36
526.902	30.34
527.1	30.36
527.299	30.35
527.497	30.25
527.696	30.15
527.894	30.04
528.092	29.99
528.291	29.93
528.489	29.86
528.688	29.84
528.886	29.78
529.084	29.81
529.283	29.78
529.481	29.81
529.679	30
529.877	30.11
530.076	30.26
530.274	30.43
530.472	30.64
530.67	30.83
530.869	30.86
531.067	30.95
531.265	30.99
531.463	31.03
531.661	31.05
531.859	30.99
532.057	30.96
532.255	30.94
532.454	30.87
532.652	30.74
532.85	30.68
533.048	30.73
533.246	30.71
533.444	30.71
533.642	30.78
533.84	30.89
534.038	31.01
534.236	31.09
534.434	31.13
534.632	31.16
534.83	31.27
535.027	31.32
535.225	31.37
535.423	31.41
535.621	31.41
535.819	31.37
536.017	31.32
536.215	31.23
536.412	31.24
536.61	31.23
536.808	31.27
537.006	31.25
537.203	31.32
537.401	31.35
537.599	31.37
537.797	31.45
537.994	31.5
538.192	31.5
538.39	31.65
538.587	31.76
538.785	31.81
538.983	31.83
539.18	31.91
539.378	31.79
539.575	31.75
539.773	31.76
539.97	31.71
540.168	31.69
540.366	31.72
540.563	31.67
540.761	31.57
540.958	31.53
541.155	31.49
541.353	31.46
541.55	31.51
541.748	31.5
541.945	31.47
542.143	31.45
542.34	31.48
542.537	31.4
542.735	31.44
542.932	31.42
543.129	31.51
543.327	31.61
543.524	31.7
543.721	31.7
543.919	31.78
544.116	31.84
544.313	31.93
544.51	31.94
544.708	32.04
544.905	31.99
545.102	32.18
545.299	32.16
545.496	32.13
545.693	31.99
545.891	31.96
546.088	31.98
546.285	31.94
546.482	31.87
546.679	31.82
546.876	31.79
547.073	31.82
547.27	31.65
547.467	31.66
547.664	31.66
547.861	31.76
548.058	31.9
548.255	31.85
548.452	32.02
548.649	32.07
548.846	32.08
549.043	32.1
549.24	32.14
549.437	32.28
549.633	32.28
549.83	32.27
550.027	32.28
550.224	32.11
550.421	32.16
550.618	32.09
550.814	32.15
551.011	32.22
551.208	32.28
551.405	32.11
551.601	32.17
551.798	32.09
551.995	32.21
552.191	32.1
552.388	32.29
552.585	32.31
552.781	32.28
552.978	32.25
553.175	32.31
553.371	32.24
553.568	32.39
553.764	32.37
553.961	32.39
554.157	32.28
554.354	32.38
554.55	32.39
554.747	32.4
554.943	32.48
555.14	32.49
555.336	32.55
555.533	32.62
555.729	32.63
555.926	32.76
556.122	32.85
556.318	33
556.515	33.1
556.711	32.89
556.907	32.9
557.104	32.86
557.3	32.87
557.496	32.93
557.693	32.97
557.889	33.11
558.085	32.88
558.281	32.85
558.478	32.89
558.674	32.86
558.87	32.86
559.066	32.81
559.262	32.86
559.459	32.93
559.655	32.96
559.851	32.91
560.047	32.84
560.243	32.98
560.439	33.16
560.635	33.03
560.831	32.99
561.027	33.17
561.223	33.13
561.419	33.21
561.615	33.11
561.811	33.01
562.007	33.12
562.203	33.13
562.399	33.14
562.595	33.04
562.791	33.25
562.987	33.52
563.183	33.52
563.379	33.68
563.575	33.74
563.771	33.79
563.966	33.78
564.162	33.81
564.358	33.78
564.554	33.81
564.75	33.76
564.945	33.72
565.141	33.64
565.337	33.7
565.533	33.51
565.728	33.42
565.924	33.47
566.12	33.52
566.315	33.4
566.511	33.43
566.707	33.41
566.902	33.54
567.098	33.47
567.293	33.39
567.489	33.37
567.684	33.66
567.88	33.67
568.076	33.67
568.271	33.77
568.467	33.83
568.662	33.94
568.858	33.99
569.053	33.94
569.248	34.02
569.444	34.13
569.639	34.13
569.835	34.1
570.03	34.2
570.225	34.22
570.421	34.16
570.616	34.2
570.812	34.08
571.007	34.03
571.202	34.03
571.397	33.98
571.593	33.98
571.788	34.11
571.983	34.07
572.178	34.1
572.374	34.23
572.569	34.24
572.764	34.24
572.959	34.33
573.154	34.38
573.35	34.44
573.545	34.6
573.74	34.54
573.935	34.47
574.13	34.44
574.325	34.39
574.52	34.23
574.715	34.39
574.91	34.4
575.105	34.48
575.3	34.53
575.495	34.52
575.69	34.45
575.885	34.5
576.08	34.48
576.275	34.61
576.47	34.72
576.665	34.77
576.86	34.68
577.055	34.7
577.25	34.67
577.444	34.7
577.639	34.86
577.834	34.8
578.029	34.94
578.224	35.06
578.418	35.17
578.613	35.24
578.808	35.42
579.003	35.4
579.197	35.43
579.392	35.46
579.587	35.53
579.781	35.43
579.976	35.56
580.171	35.38
580.365	35.41
580.56	35.38
580.755	35.28
580.949	35.05
581.144	35
581.338	35.11
581.533	35.2
581.727	35.21
581.922	35.39
582.116	35.45
582.311	35.6
582.505	35.47
582.7	35.36
582.894	35.2
583.089	35.48
583.283	35.75
583.478	35.83
583.672	35.87
583.866	35.86
584.061	35.75
584.255	35.61
584.449	35.62
584.644	35.79
584.838	35.89
585.032	36.23
585.226	36.09
585.421	35.8
585.615	35.79
585.809	35.74
586.003	35.79
586.198	35.9
586.392	36.01
586.586	36.09
586.78	36
586.974	35.95
587.168	35.84
587.363	35.93
587.557	36.15
587.751	36.02
587.945	36.11
588.139	36.14
588.333	36.04
588.527	36.03
588.721	35.87
588.915	36.06
589.109	36.2
589.303	36.24
589.497	36.3
589.691	36.11
589.885	36.26
590.079	36.2
590.273	36.08
590.466	36.1
590.66	36.06
590.854	36.32
591.048	36.25
591.242	36.12
591.436	35.99
591.629	35.94
591.823	36.2
592.017	36.17
592.211	36.12
592.404	36.21
592.598	36.42
592.792	36.47
592.986	36.44
593.179	36.49
593.373	36.32
593.567	36.53
593.76	36.5
593.954	36.45
594.147	36.53
594.341	36.7
594.535	36.75
594.728	36.66
594.922	36.63
595.115	36.53
595.309	36.56
595.502	36.72
595.696	36.67
595.889	36.76
596.083	36.81
596.276	36.83
596.47	36.76
596.663	36.68
596.856	36.59
597.05	36.67
597.243	36.65
597.437	36.51
597.63	36.56
597.823	36.56
598.017	36.47
598.21	36.38
598.403	36.28
598.596	36.33
598.79	36.51
598.983	36.65
599.176	36.71
599.369	36.83
599.563	36.8
599.756	36.95
599.949	37.12
600.142	37.31
600.335	37.38
600.528	37.37
600.722	37.52
600.915	37.47
601.108	37.53
601.301	37.59
601.494	37.61
601.687	37.87
601.88	37.73
602.073	37.74
602.266	37.74
602.459	37.7
602.652	37.7
602.845	37.51
603.038	37.49
603.231	37.49
603.424	37.39
603.617	37.38
603.809	37.26
604.002	37.15
604.195	37.16
604.388	37
604.581	37.04
604.774	37.15
604.966	37.15
605.159	37.25
605.352	37.25
605.545	37.26
605.737	37.26
605.93	37.3
606.123	37.45
606.316	37.41
606.508	37.61
606.701	37.71
606.894	37.64
607.086	37.8
607.279	37.78
607.471	37.83
607.664	37.81
607.857	37.93
608.049	37.96
608.242	37.98
608.434	37.9
608.627	37.78
608.819	37.66
609.012	37.71
609.204	37.57
609.397	37.45
609.589	37.32
609.782	37.52
609.974	37.32
610.166	37.24
610.359	37.25
610.551	37.26
610.743	37.23
610.936	37.33
611.128	37.3
611.32	37.31
611.513	37.48
611.705	37.47
611.897	37.3
612.09	37.63
612.282	37.58
612.474	37.57
612.666	37.68
612.858	37.83
613.051	38.01
613.243	38.02
613.435	38.21
613.627	38.06
613.819	38.07
614.011	38.31
614.203	38.08
614.395	38.11
614.588	38.18
614.78	38
614.972	38.12
615.164	37.9
615.356	37.91
615.548	37.63
615.74	37.75
615.932	37.73
616.124	37.45
616.315	37.7
616.507	37.87
616.699	37.93
616.891	37.9
617.083	37.96
617.275	38.01
617.467	38.04
617.659	38.18
617.85	38.26
618.042	38.31
618.234	38.56
618.426	38.39
618.618	38.33
618.809	38.17
619.001	38.33
619.193	38.21
619.384	38.07
619.576	38.06
619.768	38.15
619.959	38.06
620.151	38.2
620.343	37.96
620.534	37.84
620.726	37.75
620.917	37.91
621.109	37.75
621.301	37.78
621.492	37.86
621.684	37.82
621.875	37.82
622.067	37.91
622.258	37.84
622.45	38.15
622.641	38.25
622.832	38.45
623.024	38.57
623.215	38.79
623.407	38.6
623.598	38.73
623.789	38.72
623.981	38.59
624.172	38.59
624.363	38.75
624.555	38.64
624.746	38.66
624.937	38.53
625.129	38.44
625.32	38.32
625.511	38.39
625.702	38.31
625.893	38.28
626.085	38.24
626.276	38.14
626.467	37.93
626.658	37.8
626.849	37.72
627.04	37.72
627.231	37.72
627.422	37.84
627.614	37.78
627.805	37.67
627.996	37.65
628.187	37.65
628.378	37.88
628.569	37.92
628.76	37.97
628.951	38.01
629.142	37.81
629.332	37.75
629.523	37.8
629.714	37.95
629.905	38.16
630.096	38.39
630.287	38.68
630.478	38.39
630.669	38.34
630.859	38.25
631.05	38.22
631.241	38.53
631.432	38.48
631.623	38.29
631.813	38.21
632.004	38.17
632.195	38.09
632.385	37.89
632.576	37.89
632.767	37.84
632.957	38.11
633.148	38.14
633.339	38.11
633.529	38.29
633.72	38.4
633.91	38.41
634.101	38.32
634.292	38.22
634.482	38.09
634.673	38.35
634.863	38.38
635.054	38.08
635.244	38.15
635.435	38.07
635.625	37.92
635.815	37.77
636.006	37.88
636.196	37.96
636.387	37.71
636.577	37.88
636.767	37.86
636.958	37.97
637.148	38.14
637.338	38.11
637.529	38.06
637.719	38.25
637.909	38.43
638.099	38.45
638.29	38.22
638.48	38.52
638.67	38.67
638.86	38.6
639.05	38.53
639.241	38.53
639.431	38.49
639.621	38.5
639.811	38.43
640.001	38.51
640.191	38.46
640.381	38.82
640.571	39.02
640.761	39.08
640.951	38.93
641.141	38.91
641.331	38.85
641.521	38.83
641.711	38.83
641.901	38.6
642.091	38.47
642.281	38.28
642.471	38.18
642.661	38.09
642.851	37.78
643.041	37.82
643.231	37.86
643.42	37.8
643.61	37.98
643.8	37.96
643.99	38.12
644.18	37.93
644.369	38.02
644.559	37.99
644.749	37.97
644.939	37.97
645.128	37.94
645.318	37.95
645.508	38.15
645.697	38.06
645.887	38.16
646.076	38.05
646.266	38.19
646.456	38.3
646.645	38.44
646.835	38.12
647.024	38.04
647.214	38.11
647.403	38.08
647.593	38.3
647.782	38.34
647.972	38.3
648.161	38.52
648.351	38.46
648.54	38.49
648.73	38.37
648.919	38.62
649.108	38.86
649.298	38.95
649.487	39.05
649.677	38.69
649.866	38.54
650.055	38.6
650.244	38.45
650.434	38.61
650.623	38.56
650.812	38.55
651.002	38.67
651.191	38.64
651.38	38.6
651.569	38.53
651.758	38.52
651.947	38.68
652.137	38.58
652.326	38.68
652.515	38.67
652.704	38.64
652.893	38.73
653.082	38.73
653.271	39.06
653.46	39.18
653.649	39.38
653.838	39.67
654.027	39.54
654.216	39.67
654.405	39.68
654.594	39.57
654.783	39.61
654.972	39.62
655.161	39.72
655.35	39.5
655.539	39.36
655.728	39.34
655.916	39.19
656.105	39.17
656.294	39.11
656.483	39.06
656.672	39.12
656.86	39.14
657.049	38.92
657.238	38.82
657.427	38.65
657.615	38.47
657.804	38.27
657.993	38.34
658.181	38.38
658.37	38.34
658.559	38.29
658.747	38.2
658.936	38.12
659.125	37.98
659.313	37.82
659.502	37.79
659.69	37.81
659.879	37.89
660.067	37.9
660.256	37.85
660.444	37.99
660.633	38.01
660.821	38.12
661.01	38.21
661.198	38.64
661.387	38.72
661.575	38.71
661.763	38.93
661.952	38.79
662.14	38.76
662.328	38.72
662.517	38.79
662.705	38.51
662.893	38.64
663.082	38.26
663.27	37.9
663.458	38.01
663.646	38.22
663.834	38.24
664.023	38.27
664.211	38.21
664.399	38.42
664.587	38.1
664.775	38.52
664.963	38.27
665.152	38.72
665.34	39.02
665.528	38.77
665.716	38.76
665.904	38.56
666.092	38.86
666.28	38.6
666.468	38.53
666.656	38.84
666.844	38.92
667.032	39.16
667.22	39.19
667.408	39.29
667.596	39.54
667.784	39.15
667.971	39.32
668.159	39.13
668.347	39.31
668.535	39.41
668.723	39.29
668.911	39.04
669.098	38.74
669.286	38.62
669.474	38.41
669.662	38.31
669.849	38.66
670.037	38.69
670.225	38.67
670.413	38.59
670.6	38.46
670.788	38.6
670.976	38.74
671.163	38.7
671.351	38.65
671.538	38.68
671.726	38.74
671.913	38.55
672.101	38.35
672.289	38.45
672.476	38.28
672.664	38.4
672.851	38.17
673.039	38.08
673.226	38.5
673.413	38.55
673.601	38.31
673.788	38.35
673.976	38.51
674.163	38.65
674.35	38.49
674.538	38.5
674.725	38.56
674.912	38.51
675.1	38.52
675.287	38.27
675.474	38.41
675.662	38.81
675.849	38.7
676.036	38.65
676.223	38.52
676.411	38.62
676.598	39.05
676.785	38.85
676.972	38.89
677.159	38.66
677.346	38.59
677.533	38.46
677.721	38.33
677.908	38.37
678.095	38.44
678.282	38.86
678.469	38.81
678.656	38.61
678.843	38.73
679.03	38.86
679.217	39.11
679.404	39.11
679.591	38.99
679.778	38.95
679.964	38.94
680.151	38.96
680.338	38.72
680.525	38.65
680.712	38.75
680.899	38.59
681.086	38.66
681.272	38.51
681.459	38.65
681.646	38.89
681.833	38.75
682.02	38.81
682.206	38.86
682.393	39.16
682.58	39.39
682.766	39.1
682.953	39.35
683.14	39.17
683.326	39.58
683.513	39.74
683.7	39.59
683.886	39.89
684.073	39.64
684.259	39.64
684.446	39.22
684.632	39.2
684.819	39.45
685.005	39.29
685.192	39.43
685.378	39.29
685.565	39.12
685.751	39.11
685.938	39.04
686.124	39.49
686.31	39.32
686.497	39.05
686.683	38.8
686.87	38.56
687.056	38.34
687.242	38.29
687.429	38.18
687.615	38.21
687.801	38.34
687.987	38.42
688.174	38.3
688.36	38.43
688.546	38.63
688.732	38.72
688.918	38.91
689.105	38.9
689.291	38.63
689.477	38.64
689.663	38.53
689.849	38.44
690.035	38.21
690.221	38.07
690.407	38.21
690.593	38.26
690.779	38.6
690.965	38.56
691.151	38.94
691.337	39.14
691.523	39.16
691.709	39.45
691.895	39.43
692.081	39.57
692.267	39.61
692.453	39.33
692.639	39.43
692.825	39.06
693.011	39.28
693.196	39.12
693.382	39.07
693.568	38.85
693.754	39.04
693.94	38.95
694.125	39.04
694.311	38.82
694.497	38.86
694.682	38.75
694.868	39.06
695.054	39.07
695.239	39.46
695.425	39.54
695.611	39.7
695.796	39.28
695.982	39.47
696.168	39.05
696.353	38.92
696.539	38.99
696.724	38.84
696.91	38.76
697.095	38.79
697.281	38.55
697.466	38.57
697.652	38.5
697.837	38.55
698.023	38.36
698.208	38.46
698.393	38.61
698.579	38.42
698.764	38.44
698.949	38.38
699.135	38.14
699.32	38
699.505	37.85
699.691	37.78
699.876	37.53
700.061	37.57
700.246	37.58
700.432	37.62
700.617	38
700.802	38.03
700.987	37.95
701.172	37.98
701.358	38.14
701.543	38.34
701.728	38.36
701.913	38.19
702.098	38.52
702.283	38.79
702.468	38.71
702.653	38.83
702.838	39.1
703.023	39.31
703.208	39.3
703.393	38.96
703.578	38.83
703.763	39.04
703.948	39.12
704.133	38.73
704.318	38.04
704.503	38.03
704.688	37.43
704.873	37.3
705.057	37.36
705.242	37.4
705.427	37.51
705.612	37.73
705.797	37.62
705.981	38.21
706.166	38.44
706.351	39.04
706.536	39.15
706.72	39.54
706.905	39.78
707.09	39.28
707.274	39.05
707.459	39.19
707.644	39.1
707.828	39.44
708.013	39.1
708.197	38.72
708.382	38.73
708.567	38.63
708.751	38.63
708.936	38.18
709.12	38.44
709.305	38.31
709.489	38.5
709.673	38.24
709.858	38.1
710.042	38.09
710.227	38.46
710.411	38.4
710.596	38.73
710.78	38.83
710.964	38.93
711.149	38.88
711.333	39.54
711.517	39.27
711.702	39.7
711.886	39.25
712.07	39.08
712.254	39.07
712.438	38.95
712.623	38.72
712.807	38.55
712.991	38.64
713.175	38.72
713.359	38.6
713.544	38.36
713.728	38.18
713.912	38.08
714.096	38.51
714.28	38.36
714.464	38.26
714.648	38.26
714.832	38.13
715.016	37.72
715.2	37.49
715.384	37.24
715.568	37.66
715.752	37.51
715.936	38.35
716.12	38.02
716.304	38.06
716.488	38.09
716.671	38.04
716.855	38.3
717.039	38.79
717.223	39.02
717.407	38.95
717.59	39.07
717.774	39.25
717.958	38.81
718.142	38.8
718.325	38.74
718.509	38.82
718.693	38.85
718.877	38.42
719.06	38.52
719.244	39.11
719.428	38.8
719.611	39.01
719.795	39.08
719.978	39.06
720.162	39.43
720.345	39.4
720.529	39.31
720.713	39.35
720.896	39.96
721.08	39.51
721.263	38.75
721.446	39.64
721.63	39.14
721.813	38.64
721.997	37.88
722.18	37.78
722.364	37.82
722.547	38.01
722.73	37.77
722.914	37.8
723.097	38.3
723.28	38.12
723.464	37.53
723.647	37.81
723.83	37.92
724.013	38.75
724.197	38.28
724.38	38.14
724.563	38.22
724.746	38.53
724.929	37.92
725.112	38.09
725.296	38.61
725.479	38.77
725.662	38.58
725.845	38.51
726.028	38
726.211	38.26
726.394	38.67
726.577	39.13
726.76	38.93
726.943	39.16
727.126	38.6
727.309	38.54
727.492	38.78
727.675	38.85
727.858	38.96
728.041	39.02
728.224	39.24
728.407	38.82
728.589	38.37
728.772	38.28
728.955	38.86
729.138	38.82
729.321	38.77
729.503	38.59
729.686	38.38
729.869	38.43
730.052	38.73
730.234	38.69
730.417	39.21
730.6	39.07
730.782	39.3
730.965	38.6
731.148	38.72
731.33	38.48
731.513	38.42
731.695	38.51
731.878	38.96
732.061	38.55
732.243	38.53
732.426	38.14
732.608	38.27
732.791	38.2
732.973	37.96
733.156	38.31
733.338	38.01
733.52	38.08
733.703	38.18
733.885	37.36
734.068	37.94
734.25	38
734.432	37.97
734.615	38
734.797	37.75
734.979	37.73
735.162	37.37
735.344	38.29
735.526	37.71
735.708	37.67
735.891	38.28
736.073	37.72
736.255	37.54
736.437	37.32
736.619	37.1
736.802	37.21
736.984	37.5
737.166	37.65
737.348	37.73
737.53	38.75
737.712	39.02
737.894	38.74
738.076	38.92
738.258	39
738.44	39.32
738.622	39.38
738.804	39.7
738.986	39.53
739.168	39.57
739.35	39.35
739.532	38.49
739.714	38.21
739.896	38.08
740.078	38.13
740.259	37.86
740.441	37.47
740.623	37.63
740.805	37.19
740.987	37.38
741.168	37.21
741.35	37.04
741.532	37.15
741.714	37.06
741.895	36.97
742.077	36.62
742.259	37.24
742.44	37.83
742.622	37.57
742.804	37.64
742.985	37.95
743.167	37.98
743.348	38.6
743.53	38.53
743.711	38.48
743.893	38.99
744.075	39.48
744.256	38.36
744.438	38.71
744.619	38.31
744.8	38.16
744.982	37.87
745.163	37.87
745.345	37.69
745.526	38.08
745.707	38.25
745.889	38.46
746.07	38.13
746.252	39.15
746.433	38.73
746.614	39.29
746.795	39.55
746.977	39.44
747.158	39.96
747.339	39.13
747.52	39.12
747.702	39.15
747.883	38.32
748.064	38.62
748.245	37.98
748.426	37.89
748.607	37.32
748.788	37.48
748.97	37.63
749.151	37.26
749.332	38.01
749.513	37.81
749.694	37.21
749.875	37.67
750.056	37.78
750.237	37.99
750.418	38.12
750.599	37.92
750.78	37.49
750.96	36.82
751.141	36.91
751.322	36.48
751.503	36.67
751.684	37.39
751.865	37.29
752.046	36.94
752.226	36.93
752.407	36.81
752.588	36.69
752.769	37.22
752.949	37.54
753.13	37.43
753.311	36.55
753.492	36.75
753.672	36.52
753.853	36.7
754.034	37.03
754.214	37.25
754.395	37.23
754.575	38.14
754.756	37.78
754.937	38.03
755.117	37.17
755.298	37.81
755.478	37.6
755.659	37.68
755.839	38.2
756.02	37.96
756.2	37.15
756.381	36.65
756.561	36.59
756.741	36.56
756.922	37.04
757.102	37.67
757.283	38.48
757.463	38.26
757.643	38.58
757.823	37.95
758.004	38.18
758.184	38.48
758.364	38.76
758.545	38.65
758.725	38.77
758.905	38.52
759.085	38.53
759.265	37.73
759.446	37.33
759.626	37.35
759.806	37.44
759.986	37.14
760.166	37.56
760.346	37.28
760.526	37.25
760.706	37.73
760.886	37.62
761.066	38.29
761.246	38.63
761.426	38.64
761.606	37.67
761.786	37.67
761.966	37.95
762.146	37.99
762.326	38.71
762.506	38.79
762.686	38.4
762.866	38.71
763.046	38.23
763.225	38.28
763.405	38.66
763.585	39.43
763.765	39.67
763.945	39.14
764.124	38.72
764.304	38.79
764.484	39.35
764.664	39.33
764.843	39.06
765.023	38.98
765.203	38.4
765.382	38.91
765.562	38.46
765.741	38.16
765.921	38.33
766.101	38.83
766.28	38.54
766.46	37.71
766.639	37.5
766.819	37.87
766.998	38.6
767.178	38.9
767.357	38.35
767.537	38.66
767.716	38.46
767.896	39.12
768.075	39.08
768.254	38.46
768.434	38.97
768.613	40.11
768.792	40.26
768.972	39.97
769.151	39.94
769.33	39.69
769.51	39.72
769.689	40.23
769.868	40.49
770.047	40.61
770.226	40.58
770.406	39.93
770.585	39.47
770.764	38.89
770.943	38.73
771.122	39.06
771.301	39.46
771.48	39.24
771.66	38.84
771.839	37.6
772.018	37.21
772.197	37.48
772.376	38.03
772.555	37.18
772.734	36.73
772.913	35.49
773.092	35.38
773.271	34.97
773.449	34.65
773.628	34.27
773.807	35
773.986	34.3
774.165	34.03
774.344	34.61
774.523	36.07
774.701	36.57
774.88	37.88
775.059	37.28
775.238	37.54
775.417	38.23
775.595	38.42
775.774	38.64
775.953	39.65
776.131	39.94
776.31	38.94
776.489	36.92
776.667	36.4
776.846	36.05
777.025	36.35
777.203	36.34
777.382	35.88
777.56	36.37
777.739	35.87
777.917	36.63
778.096	37.53
778.274	36.93
778.453	37.69
778.631	38.17
778.81	37.99
778.988	38.3
779.166	37.34
779.345	38.35
779.523	38.83
779.702	38.97
779.88	38.8
780.058	38.03
780.237	39.41
780.415	39.07
780.593	39.33
780.771	39.56
780.95	39.6
781.128	40.33
781.306	39.06
781.484	38.63
781.662	38.16
781.841	36.92
782.019	36.29
782.197	35.21
782.375	36.79
782.553	36.07
782.731	36.73
782.909	36.35
783.087	35.98
783.265	35.59
783.443	35.3
783.621	36.64
783.799	36.99
783.977	37.75
784.155	38.83
784.333	38.22
784.511	39.02
784.689	37.59
784.867	38.06
785.045	38.3
785.223	39.32
785.4	38.76
785.578	38.51
785.756	38.58
785.934	38.49
786.112	38.06
786.289	37.26
786.467	36.67
786.645	36.99
786.823	37.2
787	37.53
787.178	37.15
787.356	37.5
787.533	36.38
787.711	37.27
787.889	37.33
788.066	37.68
788.244	37.95
788.421	38.34
788.599	38.34
788.776	38.31
788.954	37.52
789.131	37.7
789.309	37.99
789.486	38.16
789.664	37.85
789.841	37.89
790.019	37.26
790.196	37.27
790.373	36.89
790.551	37.77
790.728	37.03
790.906	39.05
791.083	38.52
791.26	37.96
791.437	38.2
791.615	38.21
791.792	37.24
791.969	37.46
792.146	37.66
792.324	36.76
792.501	37
792.678	37.62
792.855	35.74
793.032	35.77
793.209	35.61
793.387	35.46
793.564	34.51
793.741	36.06
793.918	36.48
794.095	37.33
794.272	37.45
794.449	37.22
794.626	38.13
794.803	38.89
794.98	39.56
795.157	39.75
795.334	39.56
795.511	39.69
795.688	38.21
795.864	38.3
796.041	37.56
796.218	38.44
796.395	38.7
796.572	37.6
796.749	37.63
796.925	37.12
797.102	38.41
797.279	39.06
797.456	39.66
797.632	40.56
797.809	39.81
797.986	39.93
798.162	39.47
798.339	39.4
798.516	40.99
798.692	40.64
798.869	41.19
799.046	39.71
799.222	39.13
799.399	38.27
799.575	38.62
799.752	39.82
799.928	39.31
800.105	39.99
800.281	39.02
800.458	38.02
800.634	37.57
800.811	37.25
800.987	37.98
801.163	38.86
801.34	38.77
801.516	37.86
801.692	37.18
801.869	37.22
802.045	38.67
802.221	39.3
802.398	38.29
802.574	38.87
802.75	38.32
802.926	38.12
803.103	36.44
803.279	36.14
803.455	37.28
803.631	37.46
803.807	37.9
803.983	35.81
804.16	35.57
804.336	36.62
804.512	36.6
804.688	37.3
804.864	36.21
805.04	38.07
805.216	39.1
805.392	38.89
805.568	38.75
805.744	39.39
805.92	39.96
806.096	40.82
806.272	41.12
806.448	42
806.623	41.78
806.799	43.17
806.975	41.64
807.151	42.21
807.327	41.21
807.503	40.8
807.678	40.12
807.854	40.21
808.03	39.69
808.206	39.42
808.381	36.23
808.557	37.01
808.733	36.35
808.908	36.27
809.084	35.53
809.26	35.99
809.435	35.97
809.611	35.17
809.787	34.56
809.962	33.97
810.138	33.8
810.313	34.51
810.489	33.97
810.664	34.41
810.84	34.91
811.015	35.54
811.191	35.71
811.366	36.83
811.542	37.2
811.717	38.11
811.892	39.43
812.068	38.75
812.243	40.87
812.419	40.13
812.594	41.12
812.769	42.84
812.944	42.51
813.12	41.27
813.295	41.19
813.47	41.13
813.645	41.47
813.821	40.2
813.996	40.37
814.171	40.75
814.346	40.03
814.521	39.1
814.697	39.24
814.872	40.17
815.047	41.85
815.222	42.38
815.397	41.79
815.572	40.63
815.747	40.36
815.922	39.15
816.097	39.6
816.272	41.05
816.447	40.61
816.622	39.82
816.797	39.37
816.972	37.9
817.147	36.18
817.322	37.54
817.496	37.95
817.671	38.32
817.846	39.58
818.021	38.49
818.196	38.08
818.371	37.68
818.545	38.5
818.72	38.53
818.895	39.18
819.069	40.31
819.244	39.92
819.419	40.13
819.594	39.23
819.768	38.24
819.943	38.51
820.117	38.48
820.292	39.06
820.467	38.67
820.641	38.31
820.816	39.16
820.99	39.04
821.165	39.33
821.339	39.02
821.514	39.66
821.688	40.07
821.863	39.91
822.037	39.72
822.212	39.78
822.386	39.48
822.56	39.41
822.735	38.94
822.909	38.81
823.084	38.41
823.258	38.41
823.432	37.88
823.606	37.51
823.781	37.39
823.955	37.36
824.129	37.15
824.303	37.48
824.478	37.45
824.652	37.46
824.826	37.02
825	36.79
825.174	36.68
825.348	36.54
825.523	36.59
825.697	36.47
825.871	37.2
826.045	36.68
826.219	36.47
826.393	36.77
826.567	36.88
826.741	36.85
826.915	37.28
827.089	37.54
827.263	37.48
827.437	37.52
827.611	37.83
827.784	37.03
827.958	37.18
828.132	37.25
828.306	36.99
828.48	36.39
828.654	37.06
828.827	36.69
829.001	36.58
829.175	37.01
829.349	37.5
829.522	36.34
829.696	35.89
829.87	36.57
830.044	36
830.217	35.7
830.391	36.47
830.565	36.65
830.738	37.98
830.912	36.97
831.085	37.38
831.259	37.2
831.432	38.69
831.606	39.93
831.779	39.08
831.953	39.93
832.126	40.3
832.3	39.69
832.473	39.14
832.647	38.83
832.82	39.54
832.994	39.19
833.167	38.79
833.34	38.72
833.514	38.19
833.687	38
833.86	37.71
834.034	37.38
834.207	38.28
834.38	37.73
834.553	37.49
834.727	37.56
834.9	37.62
835.073	37.02
835.246	36.99
835.419	37.23
835.593	37.51
835.766	37.01
835.939	36.6
836.112	35.37
836.285	36.34
836.458	35.18
836.631	34.87
836.804	34.63
836.977	35.99
837.15	35.05
837.323	34.1
837.496	34.1
837.669	33.32
837.842	34.7
838.015	33.91
838.188	33.39
838.361	33.46
838.533	33.21
838.706	33.3
838.879	33.02
839.052	34.35
839.225	35.49
839.398	36.35
839.57	38.19
839.743	36.92
839.916	38.6
840.088	38.15
840.261	39.21
840.434	41.35
840.607	42.29
840.779	42.8
840.952	41.93
841.124	40.91
841.297	40.8
841.47	39.72
841.642	39.21
841.815	36.78
841.987	34.49
842.16	33.84
842.332	31.14
842.505	29.82
842.677	28.63
842.85	28.45
843.022	28.31
843.194	26.49
843.367	24.71
843.539	24.83
843.712	26.92
843.884	28.21
844.056	31.32
844.229	32.26
844.401	32.42
844.573	31.63
844.745	30.45
844.918	32.13
845.09	33.7
845.262	36.56
845.434	37.26
845.606	36.82
845.779	38.55
845.951	32.88
846.123	30.92
846.295	28.62
846.467	28.39
846.639	29.3
846.811	28.39
846.983	28.36
847.155	29.16
847.327	30.28
847.499	27.12
847.671	24.33
847.843	26.06
848.015	27.44
848.187	30.9
848.359	30.98
848.531	30.34
848.703	32.11
848.875	28.87
849.047	26.13
849.218	25.9
849.39	30.77
849.562	33.01
849.734	35.82
849.905	38.89
850.077	36.62
850.249	35.57
850.421	38.4
850.592	34.69
850.764	36.85
850.936	35.88
851.107	34.13
851.279	32.7
851.451	33.43
851.622	28.56
851.794	25.41
851.965	31.35
852.137	32.61
852.308	28.24
852.48	32.04
852.651	33.88
852.823	39.36
852.994	40.48
853.166	41.81
853.337	39.12
853.509	42.8
853.68	41.37
853.851	34.97
854.023	32.38
854.194	34.23
854.365	34.53
854.537	35.81
854.708	32.43
854.879	37.51
855.05	35.88
855.222	39.92
855.393	41.75
855.564	40.73
855.735	40.7
855.906	43.03
856.078	45.06
856.249	44.81
856.42	40.02
856.591	38.81
856.762	33.79
856.933	33.36
857.104	28.15
857.275	27.43
857.446	31.6
857.617	35.17
857.788	35.9
857.959	35.8
858.13	41.07
858.301	42.63
858.472	44.14
858.643	43.16
858.814	43.91
858.985	45.54
859.155	41.36
859.326	36.94
859.497	32.56
859.668	29.05
859.839	29.24
860.009	24.81
860.18	24.51
860.351	25.37
860.522	21.58
860.692	23.79
860.863	26.6
861.034	30.4
861.204	32.93
861.375	32.55
861.546	34.61
861.716	31.2
861.887	28.61
862.057	31.04
862.228	28.67
862.398	30.59
862.569	30.66
862.739	29.97
862.91	28
863.08	31.45
863.251	35.35
863.421	33.47
863.592	31.36
863.762	31.86
863.932	29.1
864.103	30.7
864.273	33.61
864.443	33.31
864.614	31.33
864.784	34.61
864.954	30.18
865.125	28.27
865.295	33.51
865.465	39.08
865.635	38.94
865.805	40.51
865.976	41.93
866.146	39.46
866.316	38.02
866.486	41.03
866.656	40.99
866.826	38.47
866.996	37.55
867.166	36.13
867.336	36.85
867.506	34.48
867.676	30.32
867.846	30.87
868.016	30.43
868.186	31.53
868.356	31.02
868.526	26.43
868.696	29.7
868.866	32.62
869.036	31.4
869.206	28.18
869.376	35.05
869.545	36.38
869.715	39
869.885	42.86
870.055	45.82
870.224	43.28
870.394	48.86
870.564	50.65
870.734	47.29
870.903	43.92
871.073	43.51
871.243	38.94
871.412	44.49
871.582	39.37
871.751	44.37
871.921	42.21
872.091	42.98
872.26	38.3
872.43	36.54
872.599	41.62
872.769	42.57
872.938	46.56
873.108	46.68
873.277	37.31
873.446	38.41
873.616	31.44
873.785	30.19
873.955	29.98
874.124	30.78
874.293	27.73
874.463	25.71
874.632	27.12
874.801	24.76
874.971	27.44
875.14	29.87
875.309	30.6
875.478	32.17
875.647	30.57
875.817	31.23
875.986	28.92
876.155	30.2
876.324	31.25
876.493	29.19
876.662	31.18
876.831	29.13
877	34.36
877.17	29.91
877.339	25.63
877.508	27.98
877.677	24.95
877.846	27.48
878.015	28.07
878.184	26.01
878.352	31.63
878.521	27.16
878.69	28.01
878.859	24.57
879.028	29.88
879.197	28.46
879.366	28.44
879.534	30.4
879.703	31.26
879.872	30.56
880.041	31.52
880.21	29.76
880.378	31.87
880.547	31.95
880.716	32.96
880.884	32.37
881.053	34.55
881.222	35.16
881.39	35.49
881.559	35.44
881.727	36.36
881.896	36.68
882.065	36.86
882.233	36.82
882.402	36.96
882.57	37.16
882.739	36.96
882.907	36.83
883.076	36.65
883.244	36.62
883.412	36.94
883.581	37.04
883.749	36.35
883.918	36.19
884.086	35.7
884.254	36.32
884.423	36.51
884.591	36.21
884.759	35.77
884.927	35.41
885.096	35.55
885.264	36.12
885.432	36.15
885.6	36.78
885.769	36.85
885.937	35.72
886.105	33.95
886.273	31.52
886.441	31.72
886.609	32.95
886.777	32.55
886.945	30.91
887.113	28.03
887.281	26.86
887.449	26.84
887.617	27.17
887.785	29.76
887.953	28.26
888.121	27.13
888.289	29.16
888.457	30.01
888.625	31.22
888.793	32.55
888.961	33.79
889.129	33.39
889.296	30.56
889.464	30.33
889.632	32.07
889.8	34.42
889.967	41.08
890.135	39.84
