Data from 2938530_Reflection_2.txt Node
Date: Tue Jun 16 00:13:04 EDT 2015
User: robert
Spectrometer: USB4E03002
Autoset integration time: false
Trigger mode: 4
Integration Time (sec): 1.000000E-1
Scans to average: 10
Electric dark correction enabled: true
Nonlinearity correction enabled: false
Boxcar width: 6
Stray light correction enabled: false
XAxis mode: Wavelengths
Stop averaging: false
Number of Pixels in Spectrum: 3648
>>>>>Begin Spectral Data<<<<<
177.575	-365.8
177.794	-229
178.014	-67.76
178.233	-86.83
178.452	-121.82
178.672	-82.81
178.891	-14.29
179.11	-80.56
179.33	-186.08
179.549	-128.42
179.768	-127.59
179.987	-166.53
180.207	-188.63
180.426	-251.6
180.645	-216.22
180.864	-151.05
181.084	-222.18
181.303	-601.56
181.522	-511.56
181.741	-676.4
181.96	-864.39
182.179	-493.75
182.398	-872.66
182.618	-812.5
182.837	-1118.52
183.056	14957.14
183.275	1203.85
183.494	1608.75
183.713	1289.41
183.932	520.83
184.151	1118.03
184.37	700
184.589	736.28
184.808	520.32
185.027	443.64
185.246	303.44
185.465	282.64
185.684	294.8
185.903	288.41
186.122	376.29
186.341	309.55
186.56	271.35
186.779	298.32
186.998	363.22
187.216	343
187.435	335.5
187.654	305.73
187.873	267.54
188.092	395.63
188.311	327.27
188.53	318.18
188.748	443.14
188.967	345.27
189.186	701.82
189.405	502.81
189.623	475.5
189.842	276.87
190.061	291.98
190.28	228.68
190.498	280.52
190.717	285.84
190.936	265.6
191.154	250
191.373	339.84
191.592	398.24
191.81	630.29
192.029	392.84
192.248	566.16
192.466	-4350
192.685	-2061.54
192.904	754.17
193.122	1527.27
193.341	652.03
193.559	1213.95
193.778	738.46
193.996	1690.32
194.215	392.16
194.433	406.99
194.652	482.43
194.87	592.35
195.089	557.87
195.307	416.4
195.526	473.78
195.744	920.95
195.963	570.23
196.181	588.97
196.399	423.06
196.618	575.79
196.836	593.13
197.055	833.33
197.273	1665.79
197.491	986.89
197.71	1129.37
197.928	1104.03
198.146	1614.67
198.365	-1232.61
198.583	-1034.48
198.801	-456.41
199.019	-221
199.238	-176.92
199.456	-410.71
199.674	-782.95
199.892	-459.3
200.111	-2696.77
200.329	1589.58
200.547	584.5
200.765	674.29
200.983	439.13
201.202	307.17
201.42	210.67
201.638	267.3
201.856	199.06
202.074	235.38
202.292	268.12
202.51	343.33
202.728	557.41
202.946	1128.18
203.165	536.07
203.383	1094.35
203.601	762.05
203.819	7666.67
204.037	919.88
204.255	1381.63
204.473	473.95
204.691	-2760
204.909	-988.51
205.127	-237.65
205.345	-726.97
205.562	-671.43
205.78	-120.18
205.998	-135.23
206.216	-123.3
206.434	-37.04
206.652	-81.49
206.87	-92.16
207.088	-52.31
207.306	-98.88
207.523	-163.64
207.741	-695.71
207.959	397.9
208.177	396.36
208.395	315.7
208.612	191.12
208.83	233.33
209.048	161.01
209.266	166.84
209.483	201.96
209.701	254.69
209.919	228.66
210.136	339.58
210.354	259.32
210.572	279.6
210.79	377.28
211.007	474.45
211.225	467.73
211.442	471.97
211.66	381.52
211.878	162.61
212.095	120.84
212.313	88.51
212.53	74.71
212.748	81.06
212.966	59.77
213.183	54.32
213.401	59.23
213.618	58.17
213.836	62.52
214.053	38
214.271	11.07
214.488	40.09
214.705	178.25
214.923	174.22
215.14	203.92
215.358	193.79
215.575	174.49
215.793	176.17
216.01	165.55
216.227	165.3
216.445	139.46
216.662	130.49
216.879	161.16
217.097	168.57
217.314	160.6
217.531	180.96
217.749	189.17
217.966	169.37
218.183	150.98
218.4	149.28
218.618	141.85
218.835	118.52
219.052	110.23
219.269	121.69
219.487	120.99
219.704	114.78
219.921	111.28
220.138	86.34
220.355	81.08
220.572	81.57
220.79	77.51
221.007	80.13
221.224	69.07
221.441	76.05
221.658	78.48
221.875	66.18
222.092	56.41
222.309	49.55
222.526	50.93
222.743	51.98
222.96	52.68
223.177	47.47
223.394	42.75
223.611	39.07
223.828	34.74
224.045	40.74
224.262	37.59
224.479	31.02
224.696	32.4
224.913	30.9
225.13	29.53
225.347	25.13
225.564	20.9
225.781	18.72
225.997	18.12
226.214	16.62
226.431	17.22
226.648	16.87
226.865	16.06
227.082	14.41
227.298	15.34
227.515	14.97
227.732	14.48
227.949	14.1
228.165	14.41
228.382	14.02
228.599	14.9
228.816	14.72
229.032	15.59
229.249	15.41
229.466	15.44
229.682	15.49
229.899	15.89
230.116	16.85
230.332	17.28
230.549	17.85
230.765	21.18
230.982	21.04
231.199	21.85
231.415	21.66
231.632	22.41
231.848	21.98
232.065	21.96
232.281	20.67
232.498	20.74
232.714	22.49
232.931	22.01
233.147	19.15
233.364	20.47
233.58	19.96
233.797	19.9
234.013	18.86
234.23	17.59
234.446	16.82
234.662	17.35
234.879	17.06
235.095	18.35
235.312	19.17
235.528	17.78
235.744	16.02
235.961	17.9
236.177	17.54
236.393	16.25
236.61	15.94
236.826	17.89
237.042	17.45
237.258	19.2
237.475	17.73
237.691	17.16
237.907	17.52
238.123	16.27
238.339	15.83
238.556	16.75
238.772	16.44
238.988	16.88
239.204	17.2
239.42	16.45
239.636	16.22
239.853	16.08
240.069	15.36
240.285	15.63
240.501	14.95
240.717	14.05
240.933	13.93
241.149	14.58
241.365	14.33
241.581	14.48
241.797	13.43
242.013	12.39
242.229	12.81
242.445	12.29
242.661	12.24
242.877	12.44
243.093	12.04
243.309	12.44
243.525	12.67
243.741	12.86
243.957	11.52
244.173	11.53
244.388	11.48
244.604	11.17
244.82	11.15
245.036	10.58
245.252	10.07
245.468	9.86
245.683	9.46
245.899	9.43
246.115	8.95
246.331	9
246.547	8.47
246.762	8.8
246.978	8.45
247.194	8.25
247.409	8.46
247.625	8.31
247.841	8.45
248.057	9.29
248.272	9.96
248.488	10.34
248.703	10.36
248.919	10.77
249.135	10.7
249.35	10.6
249.566	10.36
249.782	10.98
249.997	9.68
250.213	9.38
250.428	9.54
250.644	9.91
250.859	9.54
251.075	9.16
251.29	8.9
251.506	8.56
251.721	9.07
251.937	9.31
252.152	9.79
252.368	10.74
252.583	10.76
252.798	12.01
253.014	12.8
253.229	12.68
253.445	12.63
253.66	11.68
253.875	11.75
254.091	12.19
254.306	12.47
254.521	12.44
254.737	11.93
254.952	12.61
255.167	11.32
255.383	10.19
255.598	9.93
255.813	9.97
256.028	9.55
256.244	9.49
256.459	9.65
256.674	9.44
256.889	8.37
257.104	8.27
257.32	7.7
257.535	7.5
257.75	6.88
257.965	6.86
258.18	7.17
258.395	7.18
258.61	7
258.826	7.08
259.041	7.07
259.256	6.91
259.471	6.95
259.686	7.19
259.901	7.21
260.116	7.47
260.331	7.86
260.546	8.08
260.761	7.91
260.976	8
261.191	7.99
261.406	8
261.621	8.41
261.836	7.94
262.05	8.28
262.265	8.11
262.48	8.76
262.695	9.28
262.91	9.29
263.125	9.16
263.34	9.38
263.555	10.05
263.769	9.38
263.984	9.95
264.199	10.06
264.414	9.83
264.629	10.25
264.843	10.26
265.058	9.8
265.273	9.24
265.488	8.52
265.702	8.85
265.917	8.71
266.132	8.6
266.346	8.58
266.561	8.62
266.776	8.81
266.99	8.62
267.205	8.66
267.42	8.35
267.634	8.08
267.849	8.64
268.063	9.12
268.278	9.29
268.492	8.9
268.707	9.07
268.922	8.56
269.136	7.99
269.351	7.95
269.565	6.95
269.78	7.2
269.994	7.75
270.209	7.78
270.423	7.8
270.637	7.36
270.852	7.16
271.066	6.91
271.281	7.3
271.495	7.2
271.709	7.01
271.924	7.57
272.138	8.16
272.353	8.64
272.567	8.27
272.781	7.33
272.996	7.74
273.21	7.93
273.424	8.23
273.638	8.09
273.853	8.82
274.067	8.25
274.281	7.86
274.495	9.05
274.71	8.55
274.924	8.11
275.138	8.24
275.352	8.4
275.566	8.84
275.781	8.77
275.995	9.01
276.209	8.85
276.423	8.58
276.637	7.9
276.851	7.98
277.065	8.12
277.279	7.73
277.493	8.03
277.707	7.89
277.921	7.54
278.135	7.58
278.349	7.82
278.563	7.49
278.777	7.23
278.991	7.1
279.205	6.94
279.419	7.12
279.633	7.2
279.847	7.42
280.061	7.08
280.275	7.84
280.489	7.69
280.703	8.28
280.917	8.64
281.131	8.37
281.344	8.35
281.558	8.53
281.772	8.77
281.986	8.78
282.2	8.51
282.414	8.37
282.627	8.19
282.841	8.25
283.055	7.83
283.269	7.86
283.482	7.37
283.696	6.73
283.91	6.35
284.123	6.19
284.337	6.13
284.551	6.22
284.764	6.43
284.978	6.73
285.192	6.87
285.405	6.84
285.619	6.93
285.833	6.76
286.046	6.47
286.26	6.7
286.473	7.11
286.687	7.39
286.9	7.61
287.114	7.65
287.327	7.55
287.541	7.66
287.754	7.41
287.968	7.21
288.181	7.28
288.395	7.45
288.608	6.81
288.822	7.21
289.035	7.35
289.248	7.44
289.462	7.7
289.675	7.92
289.889	7.44
290.102	7.49
290.315	7.33
290.529	7.27
290.742	7.59
290.955	7.82
291.169	8.03
291.382	8.58
291.595	8.6
291.808	8.64
292.022	8.79
292.235	8.76
292.448	8.27
292.661	8.59
292.875	8.43
293.088	8.88
293.301	8.99
293.514	8.97
293.727	8.63
293.94	8.43
294.153	8.66
294.367	8.27
294.58	7.96
294.793	7.81
295.006	7.6
295.219	7.73
295.432	7.71
295.645	7.75
295.858	7.6
296.071	7.79
296.284	7.77
296.497	8.19
296.71	8.09
296.923	7.9
297.136	8.31
297.349	8.46
297.562	8.57
297.775	8.86
297.988	8.84
298.201	8.87
298.414	9.04
298.626	9.16
298.839	9.21
299.052	9.22
299.265	8.93
299.478	9.13
299.691	9.23
299.903	9.15
300.116	9.61
300.329	9.38
300.542	9.4
300.755	9.46
300.967	9.34
301.18	9.23
301.393	9.3
301.605	9.43
301.818	9.56
302.031	9.5
302.243	9.25
302.456	8.91
302.669	9.36
302.881	9.27
303.094	9.25
303.307	9.36
303.519	9.46
303.732	9.63
303.944	9.68
304.157	9.57
304.37	9.47
304.582	9.37
304.795	9.4
305.007	9.8
305.22	10.3
305.432	10.25
305.645	9.85
305.857	10.08
306.069	9.84
306.282	10.05
306.494	10.3
306.707	10.34
306.919	10.23
307.132	9.85
307.344	9.97
307.556	9.96
307.769	9.76
307.981	9.41
308.193	8.96
308.406	9.23
308.618	8.76
308.83	8.76
309.043	8.55
309.255	8.28
309.467	8.1
309.679	8.46
309.892	8.59
310.104	8.44
310.316	8.58
310.528	8.61
310.74	8.81
310.953	8.87
311.165	8.53
311.377	8.92
311.589	9.26
311.801	9.81
312.013	10.1
312.225	10.62
312.437	10.2
312.649	10.16
312.862	9.78
313.074	9.85
313.286	9.57
313.498	9.67
313.71	9.45
313.922	9.73
314.134	10.11
314.346	9.94
314.558	9.29
314.77	9.29
314.982	8.99
315.193	9.38
315.405	9.66
315.617	9.98
315.829	9.84
316.041	10.03
316.253	10.07
316.465	10.39
316.677	10.65
316.888	10.7
317.1	10.17
317.312	10.19
317.524	10.1
317.736	10.61
317.947	10.79
318.159	10.68
318.371	11.04
318.583	11.09
318.794	11.34
319.006	11.45
319.218	11.79
319.43	11.33
319.641	10.99
319.853	11.79
320.064	11.76
320.276	11.59
320.488	11.19
320.699	10.63
320.911	10.72
321.123	10.53
321.334	10.74
321.546	10.42
321.757	10.52
321.969	10.4
322.18	10.34
322.392	10.67
322.603	9.8
322.815	10.09
323.026	10.06
323.238	10.05
323.449	10.58
323.661	10.66
323.872	10.34
324.083	9.99
324.295	10.26
324.506	10.02
324.718	10.26
324.929	10.39
325.14	10.33
325.352	10.99
325.563	11.22
325.774	11.4
325.986	11.27
326.197	11.12
326.408	10.84
326.62	11.31
326.831	11.03
327.042	10.87
327.253	10.49
327.464	10.22
327.676	10.18
327.887	10.03
328.098	9.6
328.309	9.37
328.52	9.34
328.732	9.37
328.943	9.13
329.154	9.22
329.365	9.21
329.576	9.8
329.787	10.26
329.998	10.83
330.209	10.79
330.42	11
330.631	10.75
330.842	10.87
331.053	10.72
331.264	10.94
331.475	11.07
331.686	11.49
331.897	11.58
332.108	11.35
332.319	11.17
332.53	10.87
332.741	10.69
332.952	10.8
333.163	10.53
333.374	10.2
333.585	10.32
333.795	10.36
334.006	10.19
334.217	10.12
334.428	9.79
334.639	10
334.849	10.37
335.06	10.58
335.271	10.5
335.482	10.49
335.692	10.41
335.903	10.38
336.114	10.88
336.325	10.93
336.535	10.94
336.746	10.82
336.957	10.86
337.167	10.71
337.378	10.79
337.589	10.64
337.799	10.41
338.01	10.5
338.22	10.72
338.431	10.79
338.642	10.55
338.852	10.56
339.063	10.43
339.273	10.38
339.484	10.64
339.694	10.9
339.905	10.91
340.115	10.54
340.326	10.34
340.536	10.12
340.746	9.96
340.957	9.45
341.167	9.21
341.378	9.62
341.588	9.58
341.799	9.45
342.009	9.33
342.219	9.06
342.43	8.85
342.64	9
342.85	9.29
343.061	9.78
343.271	10.07
343.481	10.38
343.691	10.64
343.902	10.78
344.112	10.66
344.322	10.81
344.532	10.85
344.743	10.93
344.953	10.6
345.163	10.36
345.373	10.45
345.583	10.47
345.793	9.97
346.004	10.02
346.214	9.39
346.424	9.33
346.634	9.46
346.844	9.08
347.054	8.86
347.264	9.2
347.474	9.34
347.684	10.06
347.894	10.18
348.104	9.79
348.314	9.66
348.524	9.35
348.734	9.09
348.944	9.72
349.154	9.56
349.364	9.22
349.574	9.2
349.784	9.15
349.994	9.05
350.204	8.97
350.413	8.68
350.623	8.43
350.833	8.45
351.043	8.2
351.253	8.48
351.463	8.51
351.672	8.23
351.882	8.16
352.092	8.38
352.302	8.62
352.511	8.57
352.721	8.1
352.931	7.91
353.141	7.99
353.35	8.2
353.56	8.59
353.77	8.43
353.979	8.72
354.189	8.75
354.399	8.92
354.608	9.16
354.818	9.08
355.027	8.88
355.237	8.94
355.447	9.14
355.656	9.2
355.866	9.37
356.075	9.33
356.285	9.13
356.494	9.03
356.704	8.66
356.913	8.52
357.123	8.35
357.332	8.29
357.542	8.45
357.751	8.6
357.96	8.49
358.17	8.46
358.379	8.46
358.589	7.88
358.798	7.87
359.007	7.76
359.217	7.95
359.426	7.97
359.635	8.29
359.845	8.27
360.054	8.12
360.263	7.86
360.472	7.98
360.682	8.01
360.891	8.06
361.1	8.18
361.309	8.4
361.519	8.35
361.728	8.55
361.937	8.53
362.146	8.54
362.355	8.38
362.564	8.34
362.774	8.57
362.983	8.72
363.192	8.65
363.401	8.47
363.61	8.38
363.819	8.12
364.028	8.13
364.237	8.22
364.446	8.23
364.655	8.28
364.864	8.42
365.073	8.34
365.282	8.28
365.491	8.12
365.7	8.08
365.909	7.96
366.118	8.22
366.327	8.35
366.536	8.22
366.745	8.25
366.954	8.18
367.162	8.01
367.371	7.94
367.58	7.97
367.789	7.65
367.998	7.78
368.207	7.86
368.415	7.67
368.624	7.54
368.833	7.48
369.042	7.67
369.25	8.05
369.459	8.1
369.668	8.16
369.877	7.88
370.085	7.95
370.294	7.88
370.503	8.1
370.711	7.85
370.92	7.54
371.129	7.64
371.337	7.64
371.546	7.56
371.754	7.3
371.963	7.2
372.171	7.15
372.38	7.19
372.589	7.41
372.797	7.39
373.006	7.25
373.214	7
373.423	7.06
373.631	7.08
373.84	7.32
374.048	7.26
374.256	7.41
374.465	7.26
374.673	7.34
374.882	7.26
375.09	7.09
375.298	7.02
375.507	6.97
375.715	6.97
375.923	7.26
376.132	7.18
376.34	7.45
376.548	7.36
376.757	7.66
376.965	7.39
377.173	7.32
377.381	7.13
377.59	7.18
377.798	7.05
378.006	7.15
378.214	6.96
378.423	6.99
378.631	6.59
378.839	6.61
379.047	6.4
379.255	6.23
379.463	6.17
379.671	6.29
379.879	6.59
380.088	6.64
380.296	6.59
380.504	6.51
380.712	6.35
380.92	6.61
381.128	6.43
381.336	6.67
381.544	6.77
381.752	6.77
381.96	6.76
382.168	6.42
382.376	6.51
382.584	6.38
382.791	6.3
382.999	6.29
383.207	6.59
383.415	6.59
383.623	6.49
383.831	6.63
384.039	6.59
384.247	6.62
384.454	6.61
384.662	6.61
384.87	6.48
385.078	6.27
385.285	6.34
385.493	6.24
385.701	6.23
385.909	6.07
386.116	6
386.324	5.75
386.532	5.65
386.739	5.51
386.947	5.35
387.155	5.48
387.362	5.37
387.57	5.75
387.778	5.72
387.985	5.6
388.193	5.63
388.4	5.79
388.608	5.74
388.816	5.88
389.023	6.19
389.231	6.16
389.438	6.33
389.646	6.26
389.853	6.01
390.061	6.04
390.268	5.89
390.475	5.91
390.683	5.64
390.89	5.61
391.098	5.45
391.305	5.42
391.512	5.32
391.72	5.14
391.927	5.1
392.135	4.93
392.342	4.95
392.549	4.92
392.756	4.94
392.964	4.9
393.171	4.79
393.378	5.04
393.586	4.9
393.793	4.74
394	4.72
394.207	4.8
394.414	4.87
394.622	4.87
394.829	4.79
395.036	4.78
395.243	5.03
395.45	5.09
395.657	5.05
395.864	5.02
396.072	4.86
396.279	4.93
396.486	5.05
396.693	5.1
396.9	5.1
397.107	5.01
397.314	5
397.521	5.05
397.728	4.97
397.935	4.7
398.142	4.47
398.349	4.49
398.556	4.73
398.763	4.98
398.97	4.95
399.177	4.81
399.383	4.78
399.59	4.67
399.797	4.65
400.004	4.73
400.211	4.92
400.418	5
400.625	5.03
400.831	5.11
401.038	5.19
401.245	4.97
401.452	4.65
401.658	4.84
401.865	4.75
402.072	4.69
402.279	4.64
402.485	4.61
402.692	4.49
402.899	4.32
403.105	4.37
403.312	4.46
403.519	4.47
403.725	4.39
403.932	4.42
404.138	4.46
404.345	4.34
404.552	4.62
404.758	4.66
404.965	4.62
405.171	4.6
405.378	4.64
405.584	4.56
405.791	4.57
405.997	4.61
406.204	4.57
406.41	4.43
406.617	4.52
406.823	4.57
407.029	4.63
407.236	4.45
407.442	4.53
407.649	4.58
407.855	4.62
408.061	4.54
408.268	4.57
408.474	4.47
408.68	4.32
408.887	4.29
409.093	4.45
409.299	4.34
409.505	4.24
409.712	4.14
409.918	4.2
410.124	4.1
410.33	4.06
410.537	4.12
410.743	4.15
410.949	4.23
411.155	4.2
411.361	4.29
411.567	4.45
411.773	4.51
411.98	4.54
412.186	4.7
412.392	4.83
412.598	4.54
412.804	4.54
413.01	4.63
413.216	4.68
413.422	4.71
413.628	4.61
413.834	4.59
414.04	4.41
414.246	4.42
414.452	4.23
414.658	4.22
414.864	4.12
415.07	4
415.275	4.05
415.481	4
415.687	3.85
415.893	3.79
416.099	3.63
416.305	3.7
416.511	3.76
416.716	3.74
416.922	3.66
417.128	3.68
417.334	3.69
417.539	3.7
417.745	3.69
417.951	3.73
418.157	3.71
418.362	3.63
418.568	3.55
418.774	3.63
418.979	3.57
419.185	3.54
419.391	3.54
419.596	3.52
419.802	3.58
420.008	3.58
420.213	3.55
420.419	3.55
420.624	3.52
420.83	3.5
421.035	3.55
421.241	3.59
421.446	3.51
421.652	3.5
421.857	3.53
422.063	3.53
422.268	3.53
422.474	3.46
422.679	3.43
422.885	3.45
423.09	3.46
423.295	3.45
423.501	3.48
423.706	3.58
423.911	3.65
424.117	3.74
424.322	3.78
424.527	3.75
424.733	3.8
424.938	3.84
425.143	3.86
425.349	3.8
425.554	3.77
425.759	3.71
425.964	3.77
426.169	3.75
426.375	3.65
426.58	3.53
426.785	3.4
426.99	3.41
427.195	3.32
427.4	3.28
427.605	3.02
427.811	3.03
428.016	3.1
428.221	3.07
428.426	3.17
428.631	3.2
428.836	3.22
429.041	3.25
429.246	3.21
429.451	3.33
429.656	3.25
429.861	3.29
430.066	3.29
430.271	3.42
430.476	3.38
430.681	3.47
430.886	3.59
431.09	3.61
431.295	3.6
431.5	3.57
431.705	3.54
431.91	3.62
432.115	3.61
432.32	3.65
432.524	3.64
432.729	3.6
432.934	3.67
433.139	3.63
433.343	3.58
433.548	3.49
433.753	3.44
433.958	3.33
434.162	3.3
434.367	3.34
434.572	3.32
434.776	3.38
434.981	3.41
435.186	3.39
435.39	3.41
435.595	3.31
435.799	3.35
436.004	3.3
436.209	3.24
436.413	3.2
436.618	3.23
436.822	3.33
437.027	3.25
437.231	3.1
437.436	2.98
437.64	2.98
437.845	2.99
438.049	3.09
438.253	3.11
438.458	3.1
438.662	3.08
438.867	3.11
439.071	3.08
439.275	3.05
439.48	3
439.684	2.96
439.888	3.06
440.093	3.18
440.297	3.16
440.501	3.08
440.706	2.96
440.91	2.91
441.114	2.92
441.318	2.92
441.523	2.91
441.727	2.89
441.931	2.94
442.135	2.87
442.339	3
442.543	2.96
442.748	2.94
442.952	2.96
443.156	3.09
443.36	3.13
443.564	3.18
443.768	3.16
443.972	3.1
444.176	3.07
444.38	3.12
444.584	3.05
444.788	3.09
444.992	3.04
445.196	3.03
445.4	2.96
445.604	2.9
445.808	2.83
446.012	2.75
446.216	2.71
446.42	2.75
446.624	2.81
446.828	2.75
447.032	2.69
447.235	2.7
447.439	2.73
447.643	2.72
447.847	2.73
448.051	2.73
448.254	2.81
448.458	2.87
448.662	2.97
448.866	3.01
449.069	2.9
449.273	2.89
449.477	3
449.681	3.09
449.884	3.16
450.088	3.11
450.292	3.11
450.495	3.15
450.699	3.06
450.902	2.97
451.106	2.87
451.31	2.86
451.513	2.89
451.717	2.94
451.92	2.96
452.124	3.02
452.327	2.98
452.531	2.96
452.734	3.01
452.938	2.92
453.141	2.89
453.345	2.93
453.548	2.91
453.752	2.93
453.955	2.9
454.158	2.88
454.362	2.77
454.565	2.72
454.769	2.65
454.972	2.68
455.175	2.68
455.379	2.54
455.582	2.59
455.785	2.49
455.988	2.4
456.192	2.4
456.395	2.37
456.598	2.35
456.801	2.47
457.005	2.53
457.208	2.58
457.411	2.59
457.614	2.5
457.817	2.55
458.021	2.57
458.224	2.64
458.427	2.65
458.63	2.75
458.833	2.81
459.036	2.87
459.239	2.84
459.442	2.76
459.645	2.78
459.848	2.76
460.051	2.68
460.254	2.82
460.457	2.8
460.66	2.85
460.863	2.79
461.066	2.88
461.269	2.84
461.472	2.8
461.675	2.84
461.878	2.92
462.081	2.86
462.284	2.9
462.486	2.93
462.689	3.1
462.892	3.08
463.095	2.95
463.298	2.94
463.5	2.99
463.703	2.92
463.906	2.93
464.109	2.97
464.311	2.85
464.514	2.87
464.717	3
464.92	3
465.122	2.96
465.325	3
465.528	2.95
465.73	3.03
465.933	3.12
466.135	3.14
466.338	3.17
466.541	3.27
466.743	3.3
466.946	3.44
467.148	3.5
467.351	3.55
467.553	3.55
467.756	3.59
467.958	3.52
468.161	3.46
468.363	3.37
468.566	3.26
468.768	3.2
468.971	3.25
469.173	3.07
469.375	3.07
469.578	3.07
469.78	3.02
469.983	2.92
470.185	2.95
470.387	2.96
470.59	2.95
470.792	3.08
470.994	3.11
471.196	3.18
471.399	3.15
471.601	3
471.803	3.16
472.005	3.09
472.208	3.05
472.41	3.12
472.612	3.13
472.814	3.09
473.016	3.04
473.218	2.92
473.421	2.87
473.623	2.96
473.825	2.94
474.027	2.95
474.229	3.1
474.431	2.98
474.633	3.03
474.835	3.04
475.037	2.96
475.239	2.93
475.441	2.92
475.643	2.95
475.845	2.98
476.047	3.02
476.249	2.91
476.451	2.83
476.653	2.8
476.855	2.7
477.057	2.73
477.258	2.66
477.46	2.64
477.662	2.62
477.864	2.61
478.066	2.57
478.268	2.58
478.469	2.68
478.671	2.58
478.873	2.58
479.075	2.65
479.276	2.63
479.478	2.64
479.68	2.63
479.882	2.6
480.083	2.58
480.285	2.53
480.487	2.5
480.688	2.53
480.89	2.5
481.091	2.46
481.293	2.43
481.495	2.44
481.696	2.42
481.898	2.43
482.099	2.44
482.301	2.43
482.502	2.45
482.704	2.46
482.905	2.48
483.107	2.5
483.308	2.49
483.51	2.49
483.711	2.49
483.913	2.53
484.114	2.53
484.315	2.53
484.517	2.53
484.718	2.53
484.92	2.58
485.121	2.59
485.322	2.59
485.524	2.6
485.725	2.58
485.926	2.55
486.127	2.53
486.329	2.57
486.53	2.56
486.731	2.56
486.932	2.53
487.134	2.54
487.335	2.54
487.536	2.54
487.737	2.55
487.938	2.51
488.139	2.51
488.341	2.52
488.542	2.52
488.743	2.53
488.944	2.48
489.145	2.48
489.346	2.52
489.547	2.55
489.748	2.6
489.949	2.61
490.15	2.61
490.351	2.59
490.552	2.59
490.753	2.63
490.954	2.66
491.155	2.7
491.356	2.71
491.557	2.74
491.758	2.76
491.959	2.76
492.159	2.78
492.36	2.75
492.561	2.78
492.762	2.76
492.963	2.82
493.164	2.88
493.364	2.84
493.565	2.81
493.766	2.74
493.967	2.85
494.167	2.9
494.368	2.88
494.569	2.89
494.769	2.99
494.97	2.98
495.171	2.98
495.371	3.01
495.572	2.97
495.773	3.01
495.973	2.99
496.174	3.05
496.375	3.16
496.575	3.15
496.776	3.16
496.976	3.18
497.177	3.23
497.377	3.23
497.578	3.3
497.778	3.29
497.979	3.33
498.179	3.36
498.38	3.38
498.58	3.39
498.78	3.37
498.981	3.39
499.181	3.38
499.382	3.31
499.582	3.42
499.782	3.33
499.983	3.38
500.183	3.26
500.383	3.27
500.584	3.34
500.784	3.39
500.984	3.34
501.184	3.36
501.385	3.36
501.585	3.27
501.785	3.27
501.985	3.24
502.185	3.16
502.386	3.21
502.586	3.27
502.786	3.36
502.986	3.37
503.186	3.31
503.386	3.33
503.586	3.43
503.786	3.45
503.987	3.44
504.187	3.55
504.387	3.56
504.587	3.67
504.787	3.7
504.987	3.74
505.187	3.67
505.387	3.69
505.587	3.9
505.786	3.93
505.986	3.94
506.186	3.98
506.386	4.03
506.586	4.1
506.786	4.12
506.986	4.2
507.186	4.3
507.386	4.43
507.585	4.45
507.785	4.52
507.985	4.57
508.185	4.45
508.384	4.45
508.584	4.48
508.784	4.53
508.984	4.59
509.183	4.64
509.383	4.75
509.583	4.76
509.782	4.76
509.982	4.72
510.182	4.7
510.381	4.73
510.581	4.75
510.781	4.73
510.98	4.8
511.18	4.82
511.379	4.76
511.579	4.79
511.778	4.86
511.978	4.79
512.177	4.75
512.377	4.71
512.576	4.8
512.776	4.93
512.975	4.92
513.175	5
513.374	5.15
513.573	5.21
513.773	5.24
513.972	5.35
514.172	5.37
514.371	5.38
514.57	5.4
514.77	5.46
514.969	5.58
515.168	5.58
515.367	5.58
515.567	5.63
515.766	5.64
515.965	5.66
516.164	5.63
516.364	5.69
516.563	5.7
516.762	5.74
516.961	5.81
517.16	5.82
517.359	5.87
517.559	5.84
517.758	5.89
517.957	5.96
518.156	6.01
518.355	6.09
518.554	6.1
518.753	6.22
518.952	6.25
519.151	6.31
519.35	6.31
519.549	6.35
519.748	6.48
519.947	6.5
520.146	6.53
520.345	6.48
520.544	6.45
520.743	6.47
520.942	6.49
521.141	6.56
521.339	6.59
521.538	6.57
521.737	6.64
521.936	6.72
522.135	6.75
522.333	6.82
522.532	6.92
522.731	7.04
522.93	7.11
523.129	7.18
523.327	7.28
523.526	7.21
523.725	7.24
523.923	7.28
524.122	7.35
524.321	7.35
524.519	7.39
524.718	7.41
524.917	7.45
525.115	7.51
525.314	7.56
525.512	7.58
525.711	7.66
525.909	7.62
526.108	7.73
526.306	7.72
526.505	7.72
526.703	7.74
526.902	7.76
527.1	7.78
527.299	7.82
527.497	7.84
527.696	7.86
527.894	7.87
528.092	7.97
528.291	7.98
528.489	8.05
528.688	8.06
528.886	8.12
529.084	8.18
529.283	8.27
529.481	8.32
529.679	8.42
529.877	8.47
530.076	8.49
530.274	8.54
530.472	8.58
530.67	8.59
530.869	8.64
531.067	8.67
531.265	8.7
531.463	8.76
531.661	8.81
531.859	8.85
532.057	8.91
532.255	8.88
532.454	8.93
532.652	9.02
532.85	9.07
533.048	9.11
533.246	9.13
533.444	9.15
533.642	9.18
533.84	9.27
534.038	9.29
534.236	9.34
534.434	9.42
534.632	9.43
534.83	9.55
535.027	9.55
535.225	9.55
535.423	9.5
535.621	9.53
535.819	9.59
536.017	9.65
536.215	9.78
536.412	9.8
536.61	9.87
536.808	9.92
537.006	9.96
537.203	10.06
537.401	10.08
537.599	10.22
537.797	10.28
537.994	10.46
538.192	10.53
538.39	10.61
538.587	10.61
538.785	10.64
538.983	10.73
539.18	10.73
539.378	10.77
539.575	10.8
539.773	10.81
539.97	10.84
540.168	10.85
540.366	10.88
540.563	10.87
540.761	10.94
540.958	10.98
541.155	11.08
541.353	11.07
541.55	11.04
541.748	11.1
541.945	11.1
542.143	11.15
542.34	11.24
542.537	11.35
542.735	11.36
542.932	11.38
543.129	11.49
543.327	11.56
543.524	11.6
543.721	11.62
543.919	11.75
544.116	11.93
544.313	12.04
544.51	12.12
544.708	12.19
544.905	12.19
545.102	12.17
545.299	12.29
545.496	12.4
545.693	12.43
545.891	12.48
546.088	12.53
546.285	12.57
546.482	12.61
546.679	12.58
546.876	12.58
547.073	12.63
547.27	12.65
547.467	12.65
547.664	12.75
547.861	12.91
548.058	12.94
548.255	13.01
548.452	13.15
548.649	13.26
548.846	13.39
549.043	13.47
549.24	13.65
549.437	13.73
549.633	13.84
549.83	13.84
550.027	14.03
550.224	14.03
550.421	13.98
550.618	14.19
550.814	14.31
551.011	14.31
551.208	14.36
551.405	14.4
551.601	14.46
551.798	14.46
551.995	14.57
552.191	14.63
552.388	14.73
552.585	14.75
552.781	14.95
552.978	15.07
553.175	14.98
553.371	14.99
553.568	15
553.764	15.04
553.961	15.16
554.157	15.2
554.354	15.35
554.55	15.43
554.747	15.5
554.943	15.65
555.14	15.68
555.336	15.8
555.533	15.99
555.729	16.11
555.926	16.23
556.122	16.32
556.318	16.52
556.515	16.64
556.711	16.77
556.907	16.71
557.104	16.76
557.3	16.89
557.496	16.96
557.693	17.22
557.889	17.22
558.085	17.09
558.281	17.21
558.478	17.23
558.674	17.37
558.87	17.4
559.066	17.34
559.262	17.44
559.459	17.59
559.655	17.72
559.851	17.79
560.047	17.95
560.243	18.02
560.439	18
560.635	18.2
560.831	18.32
561.027	18.48
561.223	18.5
561.419	18.57
561.615	18.74
561.811	18.82
562.007	18.84
562.203	18.93
562.399	18.91
562.595	18.95
562.791	18.86
562.987	18.91
563.183	18.94
563.379	19.06
563.575	19.14
563.771	19.21
563.966	19.25
564.162	19.34
564.358	19.3
564.554	19.44
564.75	19.49
564.945	19.57
565.141	19.67
565.337	19.81
565.533	19.91
565.728	20.05
565.924	19.95
566.12	19.96
566.315	20.07
566.511	20.18
566.707	20.19
566.902	20.28
567.098	20.36
567.293	20.54
567.489	20.65
567.684	20.59
567.88	20.75
568.076	20.81
568.271	20.83
568.467	21.04
568.662	21.16
568.858	21.22
569.053	21.29
569.248	21.37
569.444	21.47
569.639	21.58
569.835	21.43
570.03	21.49
570.225	21.66
570.421	21.71
570.616	21.81
570.812	21.89
571.007	21.86
571.202	21.93
571.397	21.93
571.593	21.99
571.788	22.09
571.983	22.11
572.178	22.12
572.374	22.22
572.569	22.31
572.764	22.28
572.959	22.22
573.154	22.23
573.35	22.24
573.545	22.31
573.74	22.35
573.935	22.42
574.13	22.33
574.325	22.36
574.52	22.45
574.715	22.44
574.91	22.44
575.105	22.51
575.3	22.5
575.495	22.53
575.69	22.62
575.885	22.69
576.08	22.71
576.275	22.72
576.47	22.8
576.665	22.99
576.86	22.99
577.055	23.05
577.25	23.2
577.444	23.27
577.639	23.16
577.834	23.35
578.029	23.41
578.224	23.46
578.418	23.53
578.613	23.56
578.808	23.5
579.003	23.52
579.197	23.52
579.392	23.56
579.587	23.58
579.781	23.54
579.976	23.7
580.171	23.82
580.365	23.93
580.56	24.15
580.755	24.25
580.949	24.31
581.144	24.4
581.338	24.55
581.533	24.66
581.727	24.68
581.922	24.89
582.116	25
582.311	25.04
582.505	25.1
582.7	25.06
582.894	24.94
583.089	24.78
583.283	24.87
583.478	24.95
583.672	24.96
583.866	25.01
584.061	25
584.255	25.09
584.449	25.05
584.644	24.98
584.838	25.03
585.032	24.97
585.226	25.16
585.421	25.21
585.615	25.37
585.809	25.35
586.003	25.3
586.198	25.35
586.392	25.31
586.586	25.37
586.78	25.48
586.974	25.45
587.168	25.48
587.363	25.53
587.557	25.73
587.751	25.81
587.945	25.84
588.139	25.97
588.333	26
588.527	26.08
588.721	26.22
588.915	26.35
589.109	26.3
589.303	26.31
589.497	26.27
589.691	26.42
589.885	26.47
590.079	26.33
590.273	26.33
590.466	26.46
590.66	26.35
590.854	26.38
591.048	26.37
591.242	26.27
591.436	26.28
591.629	26.41
591.823	26.38
592.017	26.46
592.211	26.49
592.404	26.46
592.598	26.61
592.792	26.64
592.986	26.72
593.179	26.78
593.373	26.84
593.567	26.9
593.76	27.11
593.954	27.07
594.147	27.01
594.341	27.05
594.535	27.16
594.728	27.16
594.922	27.19
595.115	27.1
595.309	27.15
595.502	27.14
595.696	27.12
595.889	27.04
596.083	27
596.276	26.84
596.47	26.99
596.663	27.05
596.856	27.08
597.05	27.06
597.243	27.16
597.437	27.24
597.63	27.37
597.823	27.36
598.017	27.33
598.21	27.48
598.403	27.67
598.596	27.76
598.79	27.82
598.983	27.72
599.176	27.77
599.369	27.68
599.563	27.74
599.756	27.65
599.949	27.63
600.142	27.63
600.335	27.63
600.528	27.73
600.722	27.79
600.915	27.66
601.108	27.62
601.301	27.69
601.494	27.85
601.687	27.9
601.88	27.95
602.073	27.99
602.266	27.95
602.459	28.04
602.652	28.13
602.845	28.13
603.038	28.14
603.231	28.07
603.424	28.07
603.617	28.11
603.809	28.11
604.002	28.12
604.195	28.07
604.388	28.12
604.581	28.15
604.774	28.24
604.966	28.17
605.159	28.06
605.352	28.12
605.545	28.08
605.737	28.15
605.93	28.23
606.123	28.33
606.316	28.41
606.508	28.4
606.701	28.51
606.894	28.46
607.086	28.33
607.279	28.41
607.471	28.38
607.664	28.47
607.857	28.5
608.049	28.49
608.242	28.45
608.434	28.6
608.627	28.66
608.819	28.55
609.012	28.59
609.204	28.56
609.397	28.7
609.589	28.86
609.782	28.82
609.974	29.03
610.166	29.11
610.359	29.27
610.551	29.29
610.743	29.34
610.936	29.15
611.128	29.03
611.32	29.07
611.513	28.9
611.705	29.03
611.897	28.99
612.09	29.08
612.282	29.1
612.474	28.84
612.666	28.83
612.858	28.87
613.051	28.94
613.243	28.86
613.435	29.01
613.627	28.99
613.819	29.37
614.011	29.55
614.203	29.69
614.395	29.56
614.588	29.43
614.78	29.52
614.972	29.71
615.164	29.76
615.356	29.64
615.548	29.85
615.74	29.97
615.932	29.98
616.124	30.14
616.315	29.87
616.507	29.83
616.699	29.72
616.891	29.69
617.083	29.63
617.275	29.52
617.467	29.74
617.659	29.87
617.85	29.84
618.042	29.85
618.234	29.72
618.426	29.79
618.618	29.68
618.809	29.64
619.001	29.91
619.193	29.92
619.384	30.23
619.576	30.38
619.768	30.61
619.959	30.45
620.151	30.34
620.343	30.41
620.534	30.42
620.726	30.56
620.917	30.3
621.109	30.44
621.301	30.6
621.492	30.31
621.684	30.3
621.875	30.13
622.067	30.2
622.258	30.08
622.45	30.04
622.641	30.16
622.832	30.02
623.024	30.08
623.215	30.13
623.407	30.31
623.598	30.3
623.789	30.25
623.981	30.37
624.172	30.45
624.363	30.61
624.555	30.54
624.746	30.64
624.937	30.67
625.129	30.62
625.32	30.8
625.511	30.7
625.702	30.73
625.893	30.72
626.085	30.72
626.276	30.76
626.467	30.76
626.658	30.7
626.849	30.66
627.04	30.76
627.231	30.64
627.422	30.61
627.614	30.53
627.805	30.55
627.996	30.58
628.187	30.65
628.378	30.8
628.569	30.81
628.76	30.94
628.951	31.1
629.142	31.16
629.332	31.32
629.523	31.21
629.714	31.35
629.905	31.52
630.096	31.61
630.287	31.6
630.478	31.89
630.669	32.07
630.859	31.98
631.05	31.88
631.241	31.73
631.432	31.48
631.623	31.71
631.813	31.48
632.004	31.47
632.195	31.46
632.385	31.32
632.576	31.32
632.767	31.21
632.957	30.92
633.148	30.45
633.339	30.57
633.529	30.69
633.72	30.74
633.91	30.84
634.101	30.68
634.292	30.74
634.482	30.76
634.673	30.8
634.863	30.91
635.054	30.82
635.244	30.85
635.435	30.91
635.625	31.15
635.815	31.17
636.006	31.27
636.196	31.29
636.387	31.45
636.577	31.38
636.767	31.43
636.958	31.6
637.148	31.6
637.338	31.49
637.529	31.77
637.719	31.6
637.909	31.66
638.099	31.78
638.29	31.72
638.48	31.6
638.67	31.82
638.86	31.62
639.05	31.74
639.241	31.73
639.431	31.66
639.621	31.62
639.811	31.52
640.001	31.21
640.191	31.48
640.381	31.3
640.571	31.29
640.761	31.28
640.951	31.36
641.141	31.01
641.331	31.06
641.521	31.03
641.711	30.96
641.901	31.1
642.091	31.17
642.281	31.49
642.471	31.64
642.661	31.64
642.851	31.82
643.041	31.8
643.231	31.76
643.42	31.9
643.61	31.99
643.8	32.07
643.99	32.04
644.18	32.33
644.369	32.07
644.559	32.11
644.749	31.91
644.939	31.78
645.128	31.85
645.318	31.91
645.508	32.04
645.697	32.23
645.887	32.05
646.076	32.26
646.266	32.43
646.456	32.55
646.645	32.59
646.835	32.44
647.024	32.37
647.214	32.57
647.403	32.75
647.593	32.91
647.782	32.93
647.972	32.99
648.161	33.01
648.351	33.1
648.54	33.14
648.73	32.92
648.919	32.94
649.108	32.68
649.298	33.04
649.487	33.11
649.677	33
649.866	32.98
650.055	32.85
650.244	32.73
650.434	32.59
650.623	32.43
650.812	32.6
651.002	32.34
651.191	32.45
651.38	32.44
651.569	32.66
651.758	32.52
651.947	32.46
652.137	32.66
652.326	32.64
652.515	32.73
652.704	32.76
652.893	32.7
653.082	32.91
653.271	32.76
653.46	32.84
653.649	32.91
653.838	32.93
654.027	32.78
654.216	32.91
654.405	32.92
654.594	32.92
654.783	33.07
654.972	33.12
655.161	33.15
655.35	33.16
655.539	33.2
655.728	33.28
655.916	33.24
656.105	33.26
656.294	33.14
656.483	33.32
656.672	33.41
656.86	33.45
657.049	33.29
657.238	33.23
657.427	33.25
657.615	33.21
657.804	33.27
657.993	33.19
658.181	33.15
658.37	33.3
658.559	33.19
658.747	33.23
658.936	32.92
659.125	32.87
659.313	32.99
659.502	33.09
659.69	33.02
659.879	32.9
660.067	33
660.256	32.94
660.444	32.83
660.633	32.78
660.821	33.04
661.01	33.29
661.198	33.52
661.387	33.9
661.575	33.94
661.763	33.76
661.952	33.61
662.14	33.85
662.328	33.93
662.517	33.79
662.705	33.96
662.893	34.21
663.082	34.32
663.27	33.99
663.458	33.8
663.646	33.55
663.834	33.4
664.023	33.62
664.211	33.62
664.399	33.79
664.587	33.52
664.775	33.67
664.963	33.9
665.152	33.78
665.34	33.6
665.528	33.67
665.716	33.59
665.904	33.67
666.092	33.72
666.28	33.83
666.468	33.65
666.656	33.75
666.844	33.82
667.032	34.12
667.22	33.87
667.408	33.97
667.596	34.06
667.784	34.09
667.971	34.17
668.159	34.2
668.347	34.26
668.535	34.34
668.723	34.23
668.911	34.34
669.098	34.51
669.286	34.4
669.474	34.3
669.662	34.56
669.849	34.53
670.037	34.6
670.225	34.38
670.413	34.26
670.6	34.34
670.788	34.18
670.976	34.24
671.163	34.49
671.351	34.25
671.538	34.22
671.726	34.26
671.913	34.19
672.101	34.05
672.289	33.79
672.476	33.87
672.664	34.09
672.851	34.09
673.039	33.99
673.226	34.15
673.413	33.87
673.601	33.91
673.788	34.11
673.976	33.76
674.163	33.84
674.35	34.09
674.538	34.06
674.725	34.16
674.912	34.06
675.1	34.1
675.287	34.13
675.474	34.33
675.662	34.29
675.849	34.61
676.036	34.34
676.223	34.16
676.411	34.22
676.598	34.37
676.785	34.3
676.972	34.31
677.159	34.27
677.346	34.15
677.533	34.25
677.721	34.25
677.908	34.37
678.095	34.44
678.282	34.28
678.469	34.64
678.656	34.64
678.843	34.8
679.03	34.72
679.217	34.7
679.404	34.63
679.591	34.86
679.778	35.17
679.964	35.11
680.151	35.08
680.338	34.85
680.525	34.75
680.712	34.86
680.899	34.71
681.086	34.7
681.272	34.57
681.459	34.51
681.646	34.42
681.833	34.28
682.02	34.25
682.206	34.18
682.393	34.23
682.58	34.48
682.766	34.71
682.953	34.79
683.14	34.79
683.326	34.84
683.513	35.06
683.7	35.58
683.886	35.56
684.073	35.76
684.259	35.9
684.446	35.93
684.632	35.99
684.819	36.07
685.005	36.02
685.192	35.94
685.378	35.89
685.565	35.82
685.751	35.71
685.938	35.62
686.124	35.18
686.31	35.12
686.497	34.95
686.683	35.09
686.87	34.71
687.056	34.4
687.242	34.31
687.429	34.07
687.615	34.16
687.801	34.32
687.987	34.31
688.174	34.31
688.36	34.47
688.546	34.54
688.732	34.58
688.918	34.78
689.105	34.7
689.291	34.85
689.477	34.76
689.663	34.85
689.849	34.97
690.035	35.12
690.221	35.2
690.407	35.16
690.593	35.33
690.779	35.17
690.965	35.29
691.151	35.1
691.337	35.2
691.523	35.18
691.709	35.38
691.895	35.71
692.081	35.65
692.267	35.63
692.453	35.35
692.639	35.26
692.825	35.45
693.011	35.48
693.196	35.76
693.382	35.67
693.568	35.92
693.754	35.56
693.94	35.68
694.125	35.56
694.311	35.51
694.497	35.51
694.682	35.55
694.868	35.64
695.054	35.63
695.239	35.75
695.425	35.73
695.611	35.4
695.796	35.59
695.982	35.71
696.168	35.76
696.353	35.87
696.539	35.96
696.724	35.81
696.91	35.94
697.095	35.93
697.281	36
697.466	36.02
697.652	35.96
697.837	35.77
698.023	35.95
698.208	35.71
698.393	35.72
698.579	35.68
698.764	35.9
698.949	35.86
699.135	36.05
699.32	35.85
699.505	35.84
699.691	35.62
699.876	35.45
700.061	35.15
700.246	35.22
700.432	35.11
700.617	35.25
700.802	35.09
700.987	35.56
701.172	35.16
701.358	35.35
701.543	35.09
701.728	35.17
701.913	35.09
702.098	35.64
702.283	35.78
702.468	36.05
702.653	36.25
702.838	36.21
703.023	36.36
703.208	36.42
703.393	36.03
703.578	36.11
703.763	35.99
703.948	36.57
704.133	36.82
704.318	36.6
704.503	36.23
704.688	36.43
704.873	36.73
705.057	36.79
705.242	36.95
705.427	37
705.612	37.07
705.797	37.23
705.981	37.58
706.166	37.32
706.351	36.99
706.536	36.78
706.72	37.18
706.905	37.29
707.09	37.05
707.274	36.88
707.459	36.76
707.644	36.71
707.828	36.73
708.013	36.8
708.197	36.95
708.382	36.47
708.567	36.41
708.751	36.22
708.936	36.17
709.12	36.06
709.305	35.99
709.489	36.19
709.673	36.01
709.858	36
710.042	35.99
710.227	36.07
710.411	35.68
710.596	35.51
710.78	35.65
710.964	35.67
711.149	35.92
711.333	35.79
711.517	36.13
711.702	36.35
711.886	36.1
712.07	36.22
712.254	36.4
712.438	36.33
712.623	36.19
712.807	36.49
712.991	36.38
713.175	36.59
713.359	36.79
713.544	36.56
713.728	36.91
713.912	36.81
714.096	36.45
714.28	36.82
714.464	36.97
714.648	36.7
714.832	36.94
715.016	36.73
715.2	36.78
715.384	37.18
715.568	36.95
715.752	36.78
715.936	37.12
716.12	36.99
716.304	36.74
716.488	36.95
716.671	36.98
716.855	37.06
717.039	37.21
717.223	36.7
717.407	36.9
717.59	37.02
717.774	36.84
717.958	37
718.142	37.34
718.325	36.83
718.509	36.57
718.693	36.66
718.877	36.71
719.06	36.14
719.244	36.02
719.428	36.27
719.611	36.55
719.795	36.79
719.978	36.44
720.162	36.46
720.345	36.8
720.529	36.79
720.713	37.33
720.896	37.86
721.08	37.46
721.263	37.18
721.446	37.78
721.63	37.64
721.813	36.9
721.997	36.66
722.18	36.78
722.364	36.73
722.547	36.7
722.73	36.22
722.914	35.95
723.097	35.99
723.28	35.54
723.464	35.54
723.647	35.65
723.83	35.18
724.013	34.86
724.197	35.27
724.38	35.67
724.563	35.33
724.746	35.94
724.929	36.4
725.112	35.95
725.296	36.01
725.479	35.36
725.662	35.51
725.845	36.04
726.028	36.04
726.211	36.14
726.394	36.1
726.577	36.04
726.76	35.97
726.943	35.81
727.126	35.77
727.309	35.13
727.492	35.62
727.675	35.65
727.858	36.13
728.041	36.38
728.224	36.07
728.407	36.12
728.589	36.22
728.772	36.85
728.955	37.19
729.138	37.16
729.321	37.69
729.503	37.49
729.686	37.37
729.869	37.01
730.052	37.17
730.234	37.25
730.417	36.86
730.6	36.98
730.782	37.15
730.965	37.21
731.148	37.05
731.33	37.12
731.513	37.13
731.695	36.93
731.878	36.79
732.061	36.88
732.243	37.01
732.426	36.99
732.608	37.03
732.791	36.97
732.973	37.11
733.156	36.98
733.338	36.95
733.52	36.73
733.703	36.58
733.885	37.04
734.068	36.99
734.25	36.93
734.432	37.14
734.615	37.34
734.797	37.49
734.979	37.46
735.162	38
735.344	37.85
735.526	37.79
735.708	38
735.891	38.25
736.073	38.01
736.255	37.63
736.437	37.47
736.619	37.8
736.802	37.89
736.984	38.26
737.166	38.01
737.348	37.98
737.53	37.83
737.712	37.59
737.894	37.73
738.076	37.61
738.258	37.53
738.44	37.77
738.622	37.74
738.804	37.51
738.986	37.2
739.168	37.45
739.35	37.16
739.532	36.73
739.714	36.64
739.896	36.77
740.078	36.65
740.259	36.72
740.441	36.23
740.623	36.27
740.805	36.47
740.987	36.39
741.168	36.84
741.35	37.33
741.532	36.83
741.714	36.46
741.895	36.79
742.077	36.77
742.259	36.74
742.44	36.81
742.622	37.05
742.804	37.17
742.985	36.78
743.167	36.27
743.348	36.43
743.53	36.01
743.711	36.33
743.893	36.78
744.075	36.15
744.256	36.83
744.438	36.88
744.619	36.64
744.8	37.51
744.982	36.92
745.163	37.33
745.345	37.12
745.526	37.26
745.707	36.72
745.889	37.17
746.07	37.1
746.252	36.81
746.433	37.68
746.614	37.33
746.795	37.3
746.977	37.03
747.158	36.68
747.339	36.92
747.52	36.98
747.702	37.4
747.883	37.74
748.064	37.88
748.245	37.79
748.426	37.65
748.607	37.36
748.788	37.8
748.97	37.43
749.151	37.96
749.332	38.38
749.513	38.19
749.694	37.68
749.875	37.4
750.056	37.32
750.237	37.18
750.418	37.53
750.599	37.64
750.78	37.27
750.96	37.5
751.141	37.54
751.322	38.21
751.503	37.75
751.684	37.89
751.865	37.58
752.046	37.7
752.226	37.83
752.407	37.83
752.588	37.74
752.769	37.91
752.949	38.18
753.13	38.38
753.311	38.08
753.492	37.53
753.672	37.64
753.853	37.72
754.034	37.53
754.214	38.05
754.395	38.93
754.575	38.71
754.756	39.48
754.937	39.72
755.117	40.02
755.298	40.17
755.478	39.77
755.659	39.55
755.839	39.83
756.02	39.2
756.2	39.46
756.381	39.21
756.561	39.44
756.741	39.13
756.922	39.19
757.102	39.11
757.283	39.3
757.463	39.07
757.643	39.03
757.823	39.03
758.004	39.81
758.184	40.06
758.364	40.58
758.545	40.61
758.725	41.07
758.905	41.13
759.085	40.7
759.265	40.72
759.446	40.34
759.626	39.68
759.806	39.44
759.986	38.85
760.166	38.93
760.346	38.93
760.526	38.43
760.706	37.67
760.886	37.45
761.066	36.79
761.246	36.3
761.426	36.74
761.606	36.58
761.786	36.66
761.966	36.75
762.146	36.99
762.326	37.25
762.506	37.55
762.686	37.24
762.866	37.29
763.046	37.5
763.225	37.61
763.405	37.79
763.585	37.92
763.765	37.69
763.945	38.23
764.124	38.29
764.304	38.47
764.484	38.26
764.664	38.26
764.843	38.47
765.023	38.28
765.203	38.28
765.382	38.95
765.562	38.53
765.741	39.28
765.921	39.58
766.101	40.01
766.28	39.83
766.46	39.47
766.639	39.06
766.819	39.64
766.998	39.49
767.178	38.83
767.357	39.33
767.537	39.29
767.716	39
767.896	39.42
768.075	39.16
768.254	39.4
768.434	39.29
768.613	39.37
768.792	39.88
768.972	40.3
769.151	39.09
769.33	39.65
769.51	39.97
769.689	39.72
769.868	40.16
770.047	39.67
770.226	39.71
770.406	39.8
770.585	38.83
770.764	38.68
770.943	38.1
771.122	38.19
771.301	38.17
771.48	38.55
771.66	37.69
771.839	37.53
772.018	37.86
772.197	37.76
772.376	37.91
772.555	38.29
772.734	38.15
772.913	38.19
773.092	38.21
773.271	38.65
773.449	38.39
773.628	38.26
773.807	38.26
773.986	38.61
774.165	39.27
774.344	39.41
774.523	39.09
774.701	39.15
774.88	39.14
775.059	39.12
775.238	39.46
775.417	39.38
775.595	38.91
775.774	38.6
775.953	38.38
776.131	38.57
776.31	39.3
776.489	38.54
776.667	37.94
776.846	38.21
777.025	37.65
777.203	37.49
777.382	36.71
777.56	36.59
777.739	37.06
777.917	38.6
778.096	38.3
778.274	38.57
778.453	39.15
778.631	38.77
778.81	39.4
778.988	40.26
779.166	39.99
779.345	39.93
779.523	40.08
779.702	41.5
779.88	41.29
780.058	40.97
780.237	39.41
780.415	40.28
780.593	40.49
780.771	40.68
780.95	40.25
781.128	39.6
781.306	39.62
781.484	39.7
781.662	40.78
781.841	39.88
782.019	39.11
782.197	39.09
782.375	38.8
782.553	39.86
782.731	40.11
782.909	39.65
783.087	39.77
783.265	40.23
783.443	40
783.621	40.18
783.799	39.92
783.977	38.33
784.155	38.95
784.333	38.25
784.511	38.37
784.689	38.79
784.867	38.24
785.045	38.09
785.223	38.14
785.4	37.9
785.578	38.38
785.756	38.29
785.934	38.1
786.112	37.94
786.289	39.58
786.467	39.28
786.645	39.98
786.823	40.93
787	40.89
787.178	41.3
787.356	40.56
787.533	41.1
787.711	40.59
787.889	40.12
788.066	40.34
788.244	38.87
788.421	39.67
788.599	39.33
788.776	39.35
788.954	39.26
789.131	38.38
789.309	38.2
789.486	37.66
789.664	38.02
789.841	37.66
790.019	37.84
790.196	37.37
790.373	38.5
790.551	39.5
790.728	39.54
790.906	39.55
791.083	40.02
791.26	39.1
791.437	39.8
791.615	40.06
791.792	40.81
791.969	40.32
792.146	41.09
792.324	42.08
792.501	43.24
792.678	42.55
792.855	42.53
793.032	42.02
793.209	42.82
793.387	42.35
793.564	42.47
793.741	41.7
793.918	41.37
794.095	39.92
794.272	40.28
794.449	39.32
794.626	38.39
794.803	37.97
794.98	37.2
795.157	37.21
795.334	37.35
795.511	36.92
795.688	37.18
795.864	38.32
796.041	39.11
796.218	39.34
796.395	39.69
796.572	39.27
796.749	39.1
796.925	39.49
797.102	39.59
797.279	40.11
797.456	40.43
797.632	41.02
797.809	40
797.986	39.89
798.162	39.75
798.339	40.09
798.516	39.83
798.692	40.54
798.869	41.07
799.046	40.97
799.222	40.21
799.399	39.44
799.575	39.47
799.752	39.83
799.928	39.5
800.105	40.71
800.281	42.15
800.458	41.86
800.634	40.77
800.811	41.1
800.987	41.61
801.163	42.58
801.34	42.72
801.516	44.2
801.692	44.04
801.869	45.08
802.045	44.61
802.221	44.25
802.398	43.15
802.574	41.84
802.75	42.1
802.926	42.89
803.103	43.08
803.279	41.95
803.455	41.29
803.631	42.12
803.807	42.12
803.983	42.66
804.16	41.24
804.336	40.93
804.512	41.06
804.688	41.94
804.864	42.7
805.04	42.47
805.216	41.93
805.392	42.07
805.568	43
805.744	42.71
805.92	42.1
806.096	40.84
806.272	40.95
806.448	41.26
806.623	41.49
806.799	42.25
806.975	41.29
807.151	40.52
807.327	40.21
807.503	41.13
807.678	40.65
807.854	38.75
808.03	38.93
808.206	39.35
808.381	39.34
808.557	38.74
808.733	38.43
808.908	38.31
809.084	38.64
809.26	40.21
809.435	39.76
809.611	40.69
809.787	40.3
809.962	40.75
810.138	42.11
810.313	42.2
810.489	42.24
810.664	42.43
810.84	41.94
811.015	41.98
811.191	42.12
811.366	41.87
811.542	40.39
811.717	41.73
811.892	40.79
812.068	40.28
812.243	39.58
812.419	38.73
812.594	38.09
812.769	38.55
812.944	38.76
813.12	40.91
813.295	40.34
813.47	39.64
813.645	38.65
813.821	37.97
813.996	36.53
814.171	36.92
814.346	37.41
814.521	38.25
814.697	40
814.872	40.95
815.047	40.93
815.222	42.43
815.397	41.74
815.572	43.36
815.747	43.49
815.922	43.28
816.097	45.17
816.272	46.09
816.447	47.52
816.622	47.69
816.797	46.53
816.972	46.63
817.147	45.87
817.322	45.02
817.496	43.52
817.671	43.54
817.846	42.38
818.021	42.45
818.196	43.19
818.371	42.14
818.545	41.71
818.72	40.8
818.895	40.34
819.069	40.43
819.244	39.7
819.419	39.98
819.594	39.39
819.768	39.54
819.943	39.37
820.117	39.64
820.292	39.32
820.467	38.57
820.641	38.59
820.816	38.21
820.99	38.07
821.165	38.11
821.339	38.06
821.514	38.11
821.688	37.72
821.863	37.79
822.037	37.66
822.212	37.6
822.386	37.56
822.56	37.61
822.735	37.83
822.909	37.85
823.084	37.89
823.258	37.9
823.432	37.82
823.606	38
823.781	37.86
823.955	38.08
824.129	38.18
824.303	38.22
824.478	38.37
824.652	38.31
824.826	38.19
825	38.22
825.174	37.9
825.348	37.86
825.523	37.93
825.697	38.08
825.871	37.93
826.045	37.53
826.219	37.92
826.393	38.09
826.567	38.31
826.741	38.1
826.915	38.32
827.089	38.26
827.263	38.25
827.437	39.01
827.611	39.19
827.784	39.2
827.958	39.16
828.132	39.3
828.306	39.82
828.48	39.75
828.654	39.63
828.827	39.36
829.001	39.4
829.175	39.71
829.349	40.48
829.522	40.71
829.696	41.38
829.87	41
830.044	40.95
830.217	40.95
830.391	40.93
830.565	42.02
830.738	41.42
830.912	41.22
831.085	41.88
831.259	42.09
831.432	41.67
831.606	41.4
831.779	41.19
831.953	40.2
832.126	41.38
832.3	41.15
832.473	41.14
832.647	40.88
832.82	40.28
832.994	40.8
833.167	41.21
833.34	40.82
833.514	40.47
833.687	39.6
833.86	39.52
834.034	39.51
834.207	38.66
834.38	38.15
834.553	37.89
834.727	37.92
834.9	38.15
835.073	38.17
835.246	37.51
835.419	37.76
835.593	37.94
835.766	38.76
835.939	39.77
836.112	39.48
836.285	39.32
836.458	40.58
836.631	40.76
836.804	41.57
836.977	41.98
837.15	42.19
837.323	41.75
837.496	42.25
837.669	41.7
837.842	41.73
838.015	41.6
838.188	40.37
838.361	41.87
838.533	42.17
838.706	41.85
838.879	42.58
839.052	43.06
839.225	40.81
839.398	40.34
839.57	41.74
839.743	42.13
839.916	42.34
840.088	42.04
840.261	41.22
840.434	41.53
840.607	40.65
840.779	39.13
840.952	38.51
841.124	38.95
841.297	38.78
841.47	40.9
841.642	40.66
841.815	41.12
841.987	42.09
842.16	42.48
842.332	45.03
842.505	45.44
842.677	45.92
842.85	46.96
843.022	50.21
843.194	51.15
843.367	50.6
843.539	51.07
843.712	50.71
843.884	52.19
844.056	52.84
844.229	53.05
844.401	53.13
844.573	51.04
844.745	52.36
844.918	52
845.09	53.11
845.262	51.67
845.434	52.6
845.606	55.87
845.779	58.75
845.951	60.4
846.123	59.18
846.295	58.95
846.467	57.6
846.639	57.05
846.811	55.97
846.983	54.14
847.155	55.04
847.327	54.19
847.499	53.82
847.671	52.88
847.843	49.93
848.015	45.12
848.187	45.64
848.359	47.3
848.531	45.72
848.703	44.45
848.875	44.22
849.047	43.05
849.218	42.99
849.39	43.99
849.562	45.61
849.734	47.55
849.905	46.26
850.077	45.45
850.249	47.66
850.421	45.36
850.592	43.35
850.764	45.05
850.936	47.15
851.107	47.55
851.279	49.01
851.451	50.47
851.622	52.9
851.794	50.7
851.965	49.61
852.137	53.73
852.308	55.68
852.48	55.99
852.651	56.56
852.823	54.41
852.994	51.38
853.166	52.34
853.337	51.69
853.509	51.16
853.68	48.88
853.851	45.39
854.023	46.1
854.194	45.99
854.365	46.16
854.537	43.45
854.708	42.1
854.879	43.31
855.05	45.53
855.222	49.87
855.393	50.05
855.564	51.87
855.735	52.03
855.906	51.86
856.078	56.99
856.249	54.62
856.42	55.46
856.591	51.87
856.762	51.68
856.933	51.82
857.104	51.53
857.275	50.66
857.446	51.13
857.617	48.85
857.788	47.04
857.959	46.56
858.13	49.6
858.301	43.18
858.472	46.97
858.643	46.51
858.814	45.68
858.985	48.28
859.155	49.57
859.326	48.47
859.497	50.4
859.668	49.3
859.839	47.89
860.009	46.94
860.18	50.2
860.351	47.13
860.522	49.38
860.692	48.48
860.863	49.04
861.034	52.47
861.204	50.58
861.375	49.32
861.546	51.67
861.716	52.51
861.887	55.47
862.057	57.72
862.228	60.5
862.398	58.76
862.569	60.81
862.739	60.32
862.91	59.99
863.08	60.03
863.251	58.95
863.421	63.87
863.592	65.96
863.762	59.93
863.932	61.92
864.103	56.86
864.273	59.11
864.443	56.11
864.614	54.21
864.784	56.46
864.954	57.87
865.125	57.08
865.295	59.1
865.465	57.26
865.635	59.17
865.805	60.51
865.976	65.8
866.146	64.68
866.316	65.01
866.486	66.6
866.656	67.85
866.826	69.39
866.996	67.69
867.166	68.75
867.336	72.74
867.506	75.04
867.676	79.1
867.846	69.7
868.016	69.97
868.186	68.16
868.356	67.57
868.526	69.01
868.696	63.72
868.866	63.78
869.036	66.8
869.206	61.6
869.376	59.5
869.545	55.89
869.715	49.15
869.885	46.03
870.055	49.42
870.224	49.59
870.394	54.62
870.564	54.74
870.734	51.25
870.903	48.68
871.073	51.25
871.243	50.36
871.412	57
871.582	52.42
871.751	54.84
871.921	61.02
872.091	64.25
872.26	64.64
872.43	61.1
872.599	57.62
872.769	60.05
872.938	62.48
873.108	60.57
873.277	58.67
873.446	59.19
873.616	54.55
873.785	57.56
873.955	55.07
874.124	53.44
874.293	51.5
874.463	49.61
874.632	50.7
874.801	51.2
874.971	48.58
875.14	47.78
875.309	49.58
875.478	49.6
875.647	47.94
875.817	47.57
875.986	49.97
876.155	50.95
876.324	51.49
876.493	48.36
876.662	50.17
876.831	48.73
877	48.63
877.17	48
877.339	47.9
877.508	51.54
877.677	54.06
877.846	55.84
878.015	57.04
878.184	54.15
878.352	52.08
878.521	52.75
878.69	53.94
878.859	54.18
879.028	53.53
879.197	53.18
879.366	54.92
879.534	51.19
879.703	49.54
879.872	46.98
880.041	43.73
880.21	42.66
880.378	43.22
880.547	43.29
880.716	42.45
880.884	40.84
881.053	39.21
881.222	39.29
881.39	37.92
881.559	36.67
881.727	37.62
881.896	37.43
882.065	37.33
882.233	37.58
882.402	38.32
882.57	37.19
882.739	36.95
882.907	36.64
883.076	37.1
883.244	38.26
883.412	38.39
883.581	38.91
883.749	38.51
883.918	38.79
884.086	38.96
884.254	38.99
884.423	38.97
884.591	37.64
884.759	39.28
884.927	40.05
885.096	40.57
885.264	40.99
885.432	40.66
885.6	41.25
885.769	42.5
885.937	43.23
886.105	43.76
886.273	44.97
886.441	46.33
886.609	49.2
886.777	52.45
886.945	51.95
887.113	54.44
887.281	54.84
887.449	57.41
887.617	57.08
887.785	56.63
887.953	54.78
888.121	54.14
888.289	58.5
888.457	59.44
888.625	62.07
888.793	59.98
888.961	56.44
889.129	60.45
889.296	57.69
889.464	58.21
889.632	57.56
889.8	58.26
889.967	60.14
890.135	65.41
