Data from 2938546_Reflection_2.txt Node
Date: Mon Jun 15 00:21:41 EDT 2015
User: robert
Spectrometer: USB4E03002
Autoset integration time: false
Trigger mode: 4
Integration Time (sec): 1.000000E-1
Scans to average: 10
Electric dark correction enabled: true
Nonlinearity correction enabled: false
Boxcar width: 5
Stray light correction enabled: false
XAxis mode: Wavelengths
Stop averaging: false
Number of Pixels in Spectrum: 3648
>>>>>Begin Spectral Data<<<<<
177.575	42.99
177.794	16.08
178.014	43.95
178.233	52.77
178.452	57.93
178.672	63.02
178.891	49.1
179.11	92.55
179.33	128.38
179.549	-0.12
179.768	-0.71
179.987	-4.5
180.207	-32.7
180.426	-119.81
180.645	-52.89
180.864	-133.33
181.084	-158.19
181.303	-905.11
181.522	1027.72
181.741	-896.06
181.96	4172.92
182.179	304.77
182.398	459.29
182.618	355.89
182.837	-5273.97
183.056	-689.77
183.275	-296.21
183.494	1263.5
183.713	-270.35
183.932	196.2
184.151	110.65
184.37	101.1
184.589	179.12
184.808	215.24
185.027	233.12
185.246	174.83
185.465	175.96
185.684	220.47
185.903	258.72
186.122	234.12
186.341	849.71
186.56	1212.14
186.779	-359.93
186.998	-254.97
187.216	-171.14
187.435	-67.12
187.654	10.06
187.873	-9.48
188.092	-3.62
188.311	28.04
188.53	42.34
188.748	69
188.967	65.41
189.186	35.76
189.405	19.56
189.623	13.12
189.842	-2.12
190.061	-45.54
190.28	-46.29
190.498	-41.47
190.717	-27.99
190.936	-332.02
191.154	-426.26
191.373	-3795
191.592	-439.11
191.81	82.44
192.029	81.16
192.248	59.19
192.466	88.25
192.685	91.63
192.904	76.72
193.122	117.19
193.341	144.97
193.559	158.34
193.778	69.99
193.996	35.6
194.215	33.62
194.433	59.91
194.652	84.4
194.87	-15.81
195.089	659.89
195.307	96.08
195.526	399.72
195.744	1609.77
195.963	46.58
196.181	731.22
196.399	380.53
196.618	189.15
196.836	329.05
197.055	151.15
197.273	308.04
197.491	144.05
197.71	125.44
197.928	145.97
198.146	200.29
198.365	245.77
198.583	480.94
198.801	-612.55
199.019	937.43
199.238	-16331.03
199.456	-47.39
199.674	-455.2
199.892	-514.57
200.111	-6.68
200.329	-79.48
200.547	-14.87
200.765	-785.98
200.983	-175.4
201.202	-1273.68
201.42	-827.34
201.638	-419.75
201.856	585.53
202.074	1298.49
202.292	-439.72
202.51	-357.71
202.728	-426.97
202.946	1146.92
203.165	431.92
203.383	364.9
203.601	330.05
203.819	328.84
204.037	140.54
204.255	120.6
204.473	68.15
204.691	61.93
204.909	28.8
205.127	-25.06
205.345	-60.32
205.562	-39.63
205.78	-40.51
205.998	-193.81
206.216	-201.63
206.434	-2525.2
206.652	286.77
206.87	189.95
207.088	254.85
207.306	56.92
207.523	21.22
207.741	6.53
207.959	21.65
208.177	151.71
208.395	-61.35
208.612	-54.48
208.83	125.61
209.048	165.57
209.266	148.57
209.483	113.35
209.701	83.27
209.919	75.31
210.136	108.59
210.354	156.93
210.572	141.42
210.79	82.23
211.007	91.04
211.225	144.3
211.442	148.6
211.66	179.26
211.878	226.2
212.095	215.12
212.313	149.54
212.53	114.81
212.748	70.01
212.966	71.66
213.183	69.29
213.401	59.17
213.618	32.05
213.836	10.3
214.053	30.19
214.271	51.63
214.488	9.44
214.705	-12.17
214.923	-13.68
215.14	8.88
215.358	1.36
215.575	12.52
215.793	14.89
216.01	-18.98
216.227	-8.19
216.445	-22.86
216.662	-22.5
216.879	4.29
217.097	21.49
217.314	19.94
217.531	21.02
217.749	20.6
217.966	15.16
218.183	-2.9
218.4	13.94
218.618	13.73
218.835	6.3
219.052	-0.29
219.269	-4.05
219.487	-15.63
219.704	-21.72
219.921	-21.13
220.138	-20.01
220.355	-26
220.572	-22.32
220.79	-26.61
221.007	-25.09
221.224	-33.99
221.441	-18.83
221.658	-0.54
221.875	12.1
222.092	17.92
222.309	9.42
222.526	16.58
222.743	6.26
222.96	3.98
223.177	3.24
223.394	8.44
223.611	7.25
223.828	-0.03
224.045	-8.13
224.262	-15.74
224.479	-9.26
224.696	-2.56
224.913	-5.78
225.13	0.32
225.347	3.84
225.564	4.6
225.781	2.32
225.997	5.04
226.214	5.27
226.431	5.3
226.648	4.77
226.865	4.2
227.082	4.05
227.298	6.13
227.515	7.18
227.732	6.61
227.949	7.27
228.165	7.6
228.382	8.32
228.599	8.8
228.816	9.72
229.032	10.38
229.249	10.3
229.466	7.87
229.682	7.32
229.899	6.26
230.116	7.06
230.332	7.14
230.549	5.85
230.765	2.65
230.982	3.6
231.199	3.23
231.415	4.42
231.632	5.64
231.848	9.87
232.065	9.15
232.281	9.15
232.498	8.68
232.714	6.78
232.931	7.34
233.147	9.74
233.364	9.12
233.58	7.74
233.797	9.79
234.013	8.98
234.23	9.17
234.446	8.09
234.662	9.75
234.879	11.7
235.095	13.18
235.312	13.39
235.528	14.99
235.744	16.48
235.961	16.95
236.177	15.52
236.393	15.38
236.61	15.21
236.826	15.29
237.042	14.56
237.258	13.34
237.475	11.94
237.691	12.5
237.907	9.51
238.123	9.72
238.339	10.8
238.556	9.8
238.772	10.56
238.988	10.84
239.204	10.53
239.42	9.21
239.636	8.45
239.853	8.99
240.069	8.92
240.285	9.71
240.501	9.06
240.717	8.31
240.933	9.1
241.149	8.33
241.365	8.05
241.581	8.39
241.797	8.75
242.013	9.24
242.229	8.98
242.445	9.23
242.661	8.84
242.877	9.48
243.093	9.73
243.309	10.13
243.525	10.09
243.741	9.52
243.957	8.98
244.173	8.89
244.388	8.68
244.604	8.46
244.82	8.51
245.036	8.5
245.252	7.64
245.468	7.4
245.683	6.97
245.899	6.55
246.115	6.65
246.331	6.47
246.547	6.19
246.762	6.15
246.978	5.85
247.194	5.7
247.409	5.38
247.625	5.73
247.841	5.66
248.057	6.4
248.272	6.81
248.488	6.66
248.703	7.11
248.919	7.64
249.135	7.31
249.35	7.76
249.566	7.47
249.782	8.16
249.997	7.93
250.213	7.26
250.428	5.77
250.644	6.47
250.859	6.52
251.075	6.13
251.29	6.39
251.506	6.07
251.721	5.66
251.937	5.8
252.152	5.68
252.368	5.82
252.583	6.41
252.798	6.57
253.014	6.12
253.229	5.81
253.445	5.11
253.66	5.55
253.875	5.29
254.091	6.81
254.306	5.98
254.521	5.57
254.737	6.29
254.952	5.98
255.167	6.2
255.383	6.91
255.598	6.51
255.813	6.64
256.028	6.3
256.244	6.49
256.459	6.38
256.674	6.03
256.889	5.69
257.104	5.29
257.32	5.72
257.535	5.66
257.75	5.37
257.965	5.44
258.18	5.64
258.395	5.45
258.61	5.61
258.826	5.3
259.041	5.79
259.256	5.96
259.471	6.22
259.686	5.95
259.901	6.13
260.116	6.2
260.331	6.5
260.546	6.56
260.761	7.07
260.976	7.01
261.191	7.29
261.406	6.73
261.621	6.25
261.836	5.8
262.05	6.84
262.265	6.99
262.48	6.46
262.695	6.05
262.91	5.29
263.125	4.36
263.34	5.18
263.555	5.41
263.769	5.64
263.984	5.81
264.199	6.18
264.414	5.25
264.629	5.17
264.843	5.07
265.058	6.07
265.273	6.16
265.488	6.57
265.702	5.54
265.917	5.68
266.132	5.77
266.346	6.03
266.561	5.79
266.776	5.99
266.99	6.09
267.205	6.78
267.42	5.88
267.634	6.38
267.849	6.35
268.063	6.61
268.278	6.05
268.492	5.78
268.707	5.46
268.922	5.83
269.136	6.3
269.351	6.14
269.565	5.85
269.78	6.23
269.994	6.02
270.209	5.62
270.423	5.28
270.637	5.14
270.852	5.22
271.066	5.01
271.281	4.67
271.495	4.33
271.709	4.43
271.924	4.11
272.138	3.72
272.353	3.77
272.567	3.77
272.781	3.87
272.996	4.05
273.21	3.83
273.424	4.21
273.638	4.61
273.853	4.71
274.067	4.04
274.281	4.19
274.495	4.36
274.71	4.74
274.924	4.7
275.138	4.86
275.352	4.61
275.566	4.5
275.781	4.44
275.995	4.29
276.209	3.64
276.423	4.11
276.637	4.42
276.851	4.44
277.065	4.04
277.279	4.37
277.493	4.47
277.707	4.79
277.921	5.02
278.135	5.15
278.349	4.42
278.563	4.51
278.777	4.34
278.991	3.86
279.205	3.59
279.419	3.72
279.633	4.06
279.847	4.08
280.061	4.26
280.275	4.57
280.489	4.65
280.703	5.45
280.917	5.8
281.131	5.58
281.344	5.86
281.558	6.1
281.772	6.02
281.986	5.81
282.2	6.04
282.414	6.33
282.627	5.77
282.841	5.64
283.055	5.52
283.269	5.29
283.482	5.81
283.696	5.68
283.91	5.34
284.123	5.37
284.337	5.37
284.551	5.32
284.764	5.17
284.978	5.21
285.192	5
285.405	4.52
285.619	4.53
285.833	3.74
286.046	3.61
286.26	3.97
286.473	3.62
286.687	3.47
286.9	3.17
287.114	2.98
287.327	3.22
287.541	3.23
287.754	3.14
287.968	3.02
288.181	3.57
288.395	3.47
288.608	3.3
288.822	3.31
289.035	2.71
289.248	2.89
289.462	2.72
289.675	2.85
289.889	3.33
290.102	3.42
290.315	3.38
290.529	3.17
290.742	3.59
290.955	3.6
291.169	3.37
291.382	4.2
291.595	4.33
291.808	4.54
292.022	4.63
292.235	4.04
292.448	4.18
292.661	4.37
292.875	4.24
293.088	4.24
293.301	4.25
293.514	4.65
293.727	4.62
293.94	4.54
294.153	4.46
294.367	4.17
294.58	4.3
294.793	4
295.006	4.24
295.219	4.25
295.432	4.15
295.645	4.39
295.858	4.27
296.071	4.09
296.284	3.97
296.497	3.92
296.71	3.56
296.923	3.85
297.136	4.27
297.349	3.86
297.562	4.04
297.775	3.94
297.988	3.83
298.201	3.68
298.414	3.72
298.626	3.81
298.839	4.02
299.052	4.41
299.265	4.49
299.478	4.48
299.691	4.44
299.903	4.53
300.116	4.85
300.329	4.86
300.542	5.43
300.755	5.67
300.967	5.76
301.18	5.3
301.393	5.54
301.605	4.83
301.818	4.81
302.031	5.15
302.243	4.86
302.456	4.54
302.669	4.32
302.881	4.25
303.094	4.25
303.307	4.1
303.519	4.87
303.732	5.08
303.944	5.52
304.157	5.33
304.37	5.32
304.582	5.6
304.795	5.86
305.007	5.94
305.22	5.77
305.432	5.76
305.645	5.86
305.857	5.74
306.069	5.19
306.282	5.28
306.494	5.3
306.707	5.14
306.919	5.09
307.132	4.6
307.344	4.57
307.556	4.88
307.769	4.73
307.981	4.62
308.193	4.3
308.406	4.65
308.618	4.31
308.83	4.65
309.043	4.62
309.255	4.73
309.467	5.16
309.679	5.29
309.892	4.8
310.104	5.04
310.316	5.12
310.528	5.08
310.74	5.14
310.953	5.45
311.165	5.26
311.377	5.6
311.589	5.45
311.801	5.17
312.013	4.95
312.225	4.97
312.437	4.56
312.649	4.37
312.862	4.45
313.074	4.37
313.286	4.48
313.498	4.33
313.71	3.89
313.922	3.99
314.134	3.98
314.346	3.92
314.558	4.34
314.77	4.79
314.982	5.33
315.193	5.29
315.405	5.07
315.617	4.9
315.829	4.98
316.041	5.24
316.253	4.89
316.465	4.88
316.677	5.11
316.888	5.08
317.1	4.72
317.312	4.29
317.524	4.62
317.736	5.11
317.947	5.48
318.159	5.56
318.371	5.61
318.583	5.69
318.794	6
319.006	6.1
319.218	6.25
319.43	6.17
319.641	5.81
319.853	5.6
320.064	5.34
320.276	4.94
320.488	5.35
320.699	5.3
320.911	5.15
321.123	5.6
321.334	5.35
321.546	5.5
321.757	5.71
321.969	6.26
322.18	6.15
322.392	5.74
322.603	6.03
322.815	5.53
323.026	5.73
323.238	5.98
323.449	5.89
323.661	5.92
323.872	5.47
324.083	6.03
324.295	6.01
324.506	6.37
324.718	6.75
324.929	6.55
325.14	6.41
325.352	6.92
325.563	7.26
325.774	7
325.986	7.35
326.197	7.5
326.408	7.43
326.62	7.41
326.831	7.47
327.042	7.48
327.253	7.32
327.464	7.64
327.676	7.17
327.887	7.1
328.098	7.46
328.309	7.43
328.52	7.26
328.732	7.17
328.943	7.21
329.154	6.91
329.365	7.27
329.576	7.23
329.787	7.76
329.998	7.88
330.209	8.12
330.42	7.98
330.631	7.95
330.842	8.53
331.053	8.33
331.264	8.08
331.475	8.19
331.686	8.21
331.897	8.34
332.108	7.46
332.319	7.37
332.53	7.63
332.741	7.72
332.952	7.41
333.163	7.22
333.374	6.81
333.585	6.89
333.795	7.04
334.006	6.73
334.217	7.18
334.428	7.82
334.639	7.85
334.849	7.3
335.06	6.89
335.271	7.29
335.482	7.25
335.692	7.69
335.903	7.72
336.114	7.25
336.325	7.43
336.535	7.74
336.746	7.71
336.957	7.91
337.167	8.34
337.378	8.37
337.589	8.25
337.799	8.28
338.01	8.5
338.22	8.83
338.431	9.09
338.642	8.73
338.852	8.03
339.063	7.93
339.273	7.65
339.484	7.19
339.694	7.38
339.905	7.42
340.115	7.44
340.326	7.32
340.536	6.95
340.746	6.95
340.957	7.16
341.167	7.1
341.378	7.16
341.588	6.96
341.799	7.24
342.009	7.23
342.219	7.11
342.43	7.3
342.64	7.02
342.85	6.93
343.061	7.03
343.271	7.35
343.481	7.4
343.691	7.2
343.902	7.33
344.112	7.13
344.322	7.15
344.532	7.14
344.743	6.94
344.953	7.22
345.163	7.64
345.373	7.66
345.583	7.39
345.793	7.45
346.004	7.51
346.214	7.68
346.424	7.62
346.634	7.47
346.844	7.59
347.054	7.77
347.264	7.45
347.474	7.52
347.684	7.59
347.894	7.8
348.104	7.56
348.314	7.76
348.524	7.74
348.734	7.58
348.944	7.42
349.154	7.67
349.364	7.43
349.574	7.63
349.784	7.52
349.994	7.52
350.204	7.42
350.413	7.68
350.623	7.37
350.833	7.37
351.043	7.55
351.253	7.93
351.463	7.55
351.672	7.56
351.882	7.7
352.092	7.64
352.302	7.56
352.511	7.21
352.721	7.11
352.931	7.29
353.141	7.35
353.35	7.23
353.56	7.22
353.77	7.17
353.979	6.93
354.189	6.72
354.399	6.62
354.608	6.52
354.818	6.75
355.027	7.08
355.237	7.1
355.447	6.66
355.656	6.8
355.866	6.64
356.075	6.55
356.285	6.66
356.494	6.74
356.704	6.78
356.913	6.58
357.123	6.52
357.332	6.26
357.542	6.33
357.751	6.58
357.96	6.72
358.17	6.97
358.379	6.85
358.589	6.79
358.798	6.74
359.007	6.49
359.217	6.72
359.426	6.6
359.635	6.65
359.845	6.44
360.054	6.5
360.263	6.44
360.472	6.21
360.682	6.39
360.891	6.53
361.1	6.38
361.309	6.57
361.519	6.47
361.728	6.32
361.937	6.17
362.146	6.19
362.355	6
362.564	5.65
362.774	5.57
362.983	5.5
363.192	5.5
363.401	5.7
363.61	5.85
363.819	5.87
364.028	6.19
364.237	6.43
364.446	6.34
364.655	6.49
364.864	6.83
365.073	6.91
365.282	7.16
365.491	6.94
365.7	6.83
365.909	6.56
366.118	6.56
366.327	6.36
366.536	6.22
366.745	6.31
366.954	6.06
367.162	6.03
367.371	6.17
367.58	5.81
367.789	5.87
367.998	5.9
368.207	5.89
368.415	5.82
368.624	6.09
368.833	5.7
369.042	5.65
369.25	5.93
369.459	5.94
369.668	5.85
369.877	6.06
370.085	5.96
370.294	6.1
370.503	5.93
370.711	5.86
370.92	5.5
371.129	5.85
371.337	5.8
371.546	5.68
371.754	5.65
371.963	5.4
372.171	5.04
372.38	4.99
372.589	4.64
372.797	4.63
373.006	4.8
373.214	5.35
373.423	5.68
373.631	5.58
373.84	5.4
374.048	5.53
374.256	5.57
374.465	5.75
374.673	5.75
374.882	5.93
375.09	6.04
375.298	5.91
375.507	5.75
375.715	5.44
375.923	5.48
376.132	5.75
376.34	5.68
376.548	5.77
376.757	5.9
376.965	5.95
377.173	5.72
377.381	5.64
377.59	5.56
377.798	5.11
378.006	5
378.214	5.12
378.423	5.04
378.631	4.98
378.839	4.62
379.047	4.61
379.255	4.63
379.463	4.91
379.671	4.94
379.879	5
380.088	5.17
380.296	5.22
380.504	5
380.712	4.83
380.92	4.76
381.128	5
381.336	4.73
381.544	4.61
381.752	4.54
381.96	4.54
382.168	4.54
382.376	4.56
382.584	4.72
382.791	4.8
382.999	4.96
383.207	4.86
383.415	5.02
383.623	5.03
383.831	5.27
384.039	5.08
384.247	5.03
384.454	5.21
384.662	5.28
384.87	5.13
385.078	5
385.285	4.85
385.493	4.9
385.701	4.87
385.909	4.95
386.116	4.75
386.324	4.76
386.532	4.62
386.739	4.44
386.947	4.29
387.155	4.47
387.362	4.71
387.57	4.51
387.778	4.36
387.985	4.16
388.193	4.19
388.4	4.04
388.608	4.1
388.816	4.26
389.023	4.4
389.231	4.38
389.438	4.14
389.646	4.01
389.853	3.96
390.061	4.2
390.268	4.36
390.475	4.36
390.683	4.43
390.89	4.39
391.098	4.47
391.305	4.37
391.512	4.34
391.72	4.35
391.927	4.1
392.135	4.34
392.342	4.18
392.549	4.15
392.756	4.19
392.964	4.29
393.171	4.2
393.378	3.96
393.586	3.82
393.793	3.96
394	3.93
394.207	4.19
394.414	3.98
394.622	3.8
394.829	3.76
395.036	3.57
395.243	3.58
395.45	3.61
395.657	3.61
395.864	3.69
396.072	3.59
396.279	3.62
396.486	3.67
396.693	3.81
396.9	3.86
397.107	3.72
397.314	3.63
397.521	3.6
397.728	3.62
397.935	3.77
398.142	3.79
398.349	3.92
398.556	3.86
398.763	3.7
398.97	3.89
399.177	3.98
399.383	4.01
399.59	4.12
399.797	4.08
400.004	3.96
400.211	3.87
400.418	3.84
400.625	3.52
400.831	3.4
401.038	3.5
401.245	3.07
401.452	2.98
401.658	2.81
401.865	2.84
402.072	2.6
402.279	2.71
402.485	2.72
402.692	2.68
402.899	2.77
403.105	2.87
403.312	2.78
403.519	3.12
403.725	3.02
403.932	3.13
404.138	2.98
404.345	3.17
404.552	3.26
404.758	3.37
404.965	3.32
405.171	3.4
405.378	3.42
405.584	3.46
405.791	3.26
405.997	3.51
406.204	3.5
406.41	3.58
406.617	3.67
406.823	3.53
407.029	3.44
407.236	3.44
407.442	3.37
407.649	3.27
407.855	3.35
408.061	3.25
408.268	3.19
408.474	3.19
408.68	3.25
408.887	3.23
409.093	3.09
409.299	3.16
409.505	3.21
409.712	3.2
409.918	3.24
410.124	3.32
410.33	3.37
410.537	3.39
410.743	3.52
410.949	3.27
411.155	3.05
411.361	3.17
411.567	3.02
411.773	2.95
411.98	2.95
412.186	2.9
412.392	2.81
412.598	2.88
412.804	2.97
413.01	2.72
413.216	3.03
413.422	3.18
413.628	3.16
413.834	3.18
414.04	3.18
414.246	3.17
414.452	3.28
414.658	3.34
414.864	3.47
415.07	3.57
415.275	3.64
415.481	3.58
415.687	3.58
415.893	3.59
416.099	3.55
416.305	3.56
416.511	3.51
416.716	3.44
416.922	3.4
417.128	3.27
417.334	3.1
417.539	3.06
417.745	3.06
417.951	2.98
418.157	2.98
418.362	3.03
418.568	2.98
418.774	3.02
418.979	2.91
419.185	2.78
419.391	2.83
419.596	2.81
419.802	2.85
420.008	2.85
420.213	2.12
420.419	2.05
420.624	2.08
420.83	2.13
421.035	2.11
421.241	2.21
421.446	2.29
421.652	2.27
421.857	2.25
422.063	2.21
422.268	2.22
422.474	2.96
422.679	2.96
422.885	2.87
423.09	2.87
423.295	2.84
423.501	2.81
423.706	2.68
423.911	2.61
424.117	2.55
424.322	2.51
424.527	2.44
424.733	2.41
424.938	2.43
425.143	2.44
425.349	2.4
425.554	2.31
425.759	2.32
425.964	2.45
426.169	2.57
426.375	2.69
426.58	2.8
426.785	2.74
426.99	2.8
427.195	2.92
427.4	2.92
427.605	2.96
427.811	3.12
428.016	3.07
428.221	3.01
428.426	2.89
428.631	2.94
428.836	2.8
429.041	2.97
429.246	3
429.451	2.82
429.656	2.75
429.861	2.73
430.066	2.74
430.271	2.7
430.476	2.66
430.681	2.63
430.886	2.51
431.09	2.63
431.295	2.49
431.5	2.52
431.705	2.55
431.91	2.63
432.115	2.52
432.32	2.52
432.524	2.56
432.729	2.68
432.934	2.64
433.139	2.68
433.343	2.7
433.548	2.71
433.753	2.5
433.958	2.46
434.162	2.35
434.367	2.29
434.572	2.26
434.776	2.21
434.981	2.23
435.186	2.23
435.39	2.23
435.595	2.13
435.799	2.17
436.004	2.37
436.209	2.5
436.413	2.54
436.618	2.68
436.822	2.68
437.027	2.65
437.231	2.62
437.436	2.63
437.64	2.55
437.845	2.57
438.049	2.61
438.253	2.49
438.458	2.42
438.662	2.49
438.867	2.58
439.071	2.6
439.275	2.62
439.48	2.58
439.684	2.63
439.888	2.66
440.093	2.66
440.297	2.7
440.501	2.76
440.706	2.76
440.91	2.73
441.114	2.58
441.318	2.56
441.523	2.5
441.727	2.57
441.931	2.5
442.135	2.64
442.339	2.72
442.543	2.6
442.748	2.66
442.952	2.65
443.156	2.62
443.36	2.63
443.564	2.65
443.768	2.66
443.972	2.63
444.176	2.66
444.38	2.51
444.584	2.49
444.788	2.44
444.992	2.38
445.196	2.42
445.4	2.4
445.604	2.44
445.808	2.41
446.012	2.42
446.216	2.38
446.42	2.4
446.624	2.41
446.828	2.36
447.032	2.39
447.235	2.38
447.439	2.29
447.643	2.34
447.847	2.38
448.051	2.3
448.254	2.27
448.458	2.33
448.662	2.3
448.866	2.3
449.069	2.33
449.273	2.33
449.477	2.31
449.681	2.39
449.884	2.37
450.088	2.32
450.292	2.36
450.495	2.35
450.699	2.39
450.902	2.35
451.106	2.28
451.31	2.31
451.513	2.36
451.717	2.32
451.92	2.29
452.124	2.22
452.327	2.23
452.531	2.24
452.734	2.21
452.938	2.14
453.141	2.15
453.345	2.23
453.548	2.18
453.752	2.11
453.955	2.24
454.158	2.36
454.362	2.44
454.565	2.4
454.769	2.44
454.972	2.49
455.175	2.46
455.379	2.41
455.582	2.28
455.785	2.27
455.988	2.36
456.192	2.3
456.395	2.25
456.598	2.24
456.801	2.3
457.005	2.32
457.208	2.37
457.411	2.45
457.614	2.46
457.817	2.61
458.021	2.55
458.224	2.6
458.427	2.6
458.63	2.63
458.833	2.6
459.036	2.59
459.239	2.58
459.442	2.53
459.645	2.45
459.848	2.57
460.051	2.51
460.254	2.55
460.457	2.39
460.66	2.43
460.863	2.3
461.066	2.3
461.269	2.25
461.472	2.19
461.675	2.15
461.878	2.23
462.081	2.05
462.284	1.96
462.486	1.92
462.689	2.03
462.892	2.13
463.095	2.16
463.298	2.22
463.5	2.21
463.703	2.23
463.906	2.4
464.109	2.34
464.311	2.36
464.514	2.47
464.717	2.5
464.92	2.48
465.122	2.39
465.325	2.47
465.528	2.52
465.73	2.58
465.933	2.55
466.135	2.52
466.338	2.52
466.541	2.55
466.743	2.6
466.946	2.58
467.148	2.63
467.351	2.59
467.553	2.47
467.756	2.35
467.958	2.3
468.161	2.31
468.363	2.24
468.566	2.23
468.768	2.21
468.971	2.12
469.173	2.09
469.375	1.98
469.578	1.93
469.78	2.05
469.983	2.02
470.185	2.03
470.387	2
470.59	2.14
470.792	2.2
470.994	2.16
471.196	2.2
471.399	2.21
471.601	2.17
471.803	2.23
472.005	2.14
472.208	2.14
472.41	2.17
472.612	2.26
472.814	2.17
473.016	2.11
473.218	2.25
473.421	2.21
473.623	2.33
473.825	2.45
474.027	2.47
474.229	2.53
474.431	2.64
474.633	2.66
474.835	2.64
475.037	2.64
475.239	2.69
475.441	2.54
475.643	2.51
475.845	2.47
476.047	2.52
476.249	2.52
476.451	2.56
476.653	2.59
476.855	2.47
477.057	2.45
477.258	2.44
477.46	2.43
477.662	2.57
477.864	2.63
478.066	2.7
478.268	2.6
478.469	2.54
478.671	2.48
478.873	2.45
479.075	2.51
479.276	2.46
479.478	2.46
479.68	2.46
479.882	2.45
480.083	2.44
480.285	2.42
480.487	2.49
480.688	2.51
480.89	2.51
481.091	2.47
481.293	2.53
481.495	2.58
481.696	2.54
481.898	2.51
482.099	2.52
482.301	2.5
482.502	2.52
482.704	2.52
482.905	2.51
483.107	2.49
483.308	2.53
483.51	2.51
483.711	2.48
483.913	2.51
484.114	2.54
484.315	2.52
484.517	2.54
484.718	2.52
484.92	2.51
485.121	2.51
485.322	2.52
485.524	2.5
485.725	2.47
485.926	2.49
486.127	2.47
486.329	2.46
486.53	2.49
486.731	2.48
486.932	2.46
487.134	2.46
487.335	2.41
487.536	2.44
487.737	2.43
487.938	2.42
488.139	2.41
488.341	2.43
488.542	2.4
488.743	2.37
488.944	2.33
489.145	2.35
489.346	2.32
489.547	2.41
489.748	2.38
489.949	2.37
490.15	2.39
490.351	2.41
490.552	2.39
490.753	2.45
490.954	2.47
491.155	2.49
491.356	2.48
491.557	2.5
491.758	2.49
491.959	2.52
492.159	2.48
492.36	2.52
492.561	2.44
492.762	2.49
492.963	2.43
493.164	2.42
493.364	2.44
493.565	2.44
493.766	2.41
493.967	2.49
494.167	2.43
494.368	2.52
494.569	2.54
494.769	2.6
494.97	2.5
495.171	2.47
495.371	2.48
495.572	2.5
495.773	2.55
495.973	2.58
496.174	2.51
496.375	2.54
496.575	2.49
496.776	2.46
496.976	2.51
497.177	2.62
497.377	2.64
497.578	2.6
497.778	2.7
497.979	2.69
498.179	2.62
498.38	2.7
498.58	2.68
498.78	2.74
498.981	2.79
499.181	2.8
499.382	2.82
499.582	2.79
499.782	2.91
499.983	2.75
500.183	2.78
500.383	2.92
500.584	2.79
500.784	2.91
500.984	3.06
501.184	3
501.385	2.96
501.585	2.97
501.785	3.04
501.985	3.04
502.185	3.07
502.386	3.03
502.586	3.02
502.786	3.16
502.986	3.07
503.186	2.89
503.386	2.99
503.586	3.1
503.786	3.11
503.987	3.08
504.187	3.07
504.387	3.14
504.587	3.24
504.787	3.25
504.987	3.27
505.187	3.33
505.387	3.44
505.587	3.41
505.786	3.35
505.986	3.33
506.186	3.43
506.386	3.45
506.586	3.5
506.786	3.51
506.986	3.58
507.186	3.55
507.386	3.59
507.585	3.6
507.785	3.63
507.985	3.68
508.185	3.76
508.384	3.71
508.584	3.75
508.784	3.74
508.984	3.7
509.183	3.64
509.383	3.77
509.583	3.82
509.782	3.8
509.982	3.9
510.182	3.87
510.381	3.89
510.581	3.93
510.781	3.99
510.98	4.07
511.18	4.19
511.379	4.23
511.579	4.19
511.778	4.16
511.978	4.25
512.177	4.22
512.377	4.24
512.576	4.29
512.776	4.29
512.975	4.26
513.175	4.25
513.374	4.23
513.573	4.36
513.773	4.45
513.972	4.47
514.172	4.51
514.371	4.55
514.57	4.58
514.77	4.57
514.969	4.67
515.168	4.69
515.367	4.79
515.567	4.88
515.766	4.74
515.965	4.66
516.164	4.73
516.364	4.73
516.563	4.74
516.762	4.77
516.961	4.8
517.16	4.82
517.359	4.84
517.559	4.77
517.758	4.73
517.957	4.79
518.156	4.86
518.355	4.88
518.554	4.94
518.753	4.95
518.952	4.94
519.151	4.97
519.35	4.96
519.549	4.96
519.748	4.98
519.947	4.96
520.146	4.93
520.345	4.95
520.544	4.94
520.743	4.98
520.942	5.02
521.141	5.12
521.339	5.13
521.538	5.13
521.737	5.18
521.936	5.24
522.135	5.3
522.333	5.43
522.532	5.45
522.731	5.61
522.93	5.68
523.129	5.76
523.327	5.76
523.526	5.76
523.725	5.81
523.923	5.83
524.122	5.85
524.321	5.92
524.519	5.91
524.718	5.94
524.917	5.9
525.115	5.86
525.314	5.85
525.512	5.91
525.711	5.98
525.909	6.03
526.108	6.07
526.306	6.13
526.505	6.13
526.703	6.15
526.902	6.16
527.1	6.18
527.299	6.21
527.497	6.2
527.696	6.21
527.894	6.22
528.092	6.22
528.291	6.21
528.489	6.19
528.688	6.17
528.886	6.19
529.084	6.18
529.283	6.21
529.481	6.25
529.679	6.3
529.877	6.31
530.076	6.37
530.274	6.42
530.472	6.5
530.67	6.55
530.869	6.62
531.067	6.65
531.265	6.71
531.463	6.69
531.661	6.66
531.859	6.69
532.057	6.72
532.255	6.7
532.454	6.7
532.652	6.7
532.85	6.69
533.048	6.7
533.246	6.73
533.444	6.73
533.642	6.73
533.84	6.77
534.038	6.75
534.236	6.74
534.434	6.76
534.632	6.78
534.83	6.81
535.027	6.81
535.225	6.86
535.423	6.88
535.621	6.92
535.819	6.94
536.017	6.96
536.215	7.03
536.412	7.09
536.61	7.09
536.808	7.13
537.006	7.17
537.203	7.28
537.401	7.35
537.599	7.33
537.797	7.38
537.994	7.46
538.192	7.45
538.39	7.46
538.587	7.46
538.785	7.47
538.983	7.52
539.18	7.54
539.378	7.54
539.575	7.48
539.773	7.52
539.97	7.51
540.168	7.52
540.366	7.58
540.563	7.58
540.761	7.58
540.958	7.63
541.155	7.66
541.353	7.67
541.55	7.66
541.748	7.72
541.945	7.74
542.143	7.77
542.34	7.76
542.537	7.72
542.735	7.75
542.932	7.88
543.129	7.92
543.327	7.92
543.524	7.96
543.721	8.09
543.919	8.14
544.116	8.16
544.313	8.29
544.51	8.4
544.708	8.42
544.905	8.49
545.102	8.44
545.299	8.44
545.496	8.45
545.693	8.38
545.891	8.35
546.088	8.29
546.285	8.26
546.482	8.21
546.679	8.21
546.876	8.31
547.073	8.34
547.27	8.36
547.467	8.35
547.664	8.56
547.861	8.72
548.058	8.84
548.255	9.02
548.452	9.16
548.649	9.24
548.846	9.27
549.043	9.33
549.24	9.31
549.437	9.43
549.633	9.5
549.83	9.35
550.027	9.28
550.224	9.27
550.421	9.36
550.618	9.37
550.814	9.42
551.011	9.53
551.208	9.59
551.405	9.64
551.601	9.65
551.798	9.67
551.995	9.7
552.191	9.79
552.388	9.81
552.585	9.8
552.781	9.93
552.978	9.98
553.175	9.98
553.371	10.05
553.568	10.24
553.764	10.29
553.961	10.31
554.157	10.42
554.354	10.45
554.55	10.62
554.747	10.55
554.943	10.46
555.14	10.45
555.336	10.57
555.533	10.6
555.729	10.53
555.926	10.53
556.122	10.55
556.318	10.63
556.515	10.77
556.711	10.76
556.907	10.88
557.104	10.97
557.3	10.96
557.496	10.98
557.693	11
557.889	10.98
558.085	11.08
558.281	11.25
558.478	11.25
558.674	11.22
558.87	11.23
559.066	11.29
559.262	11.39
559.459	11.59
559.655	11.56
559.851	11.68
560.047	11.86
560.243	11.92
560.439	11.91
560.635	12.03
560.831	12.15
561.027	12.23
561.223	12.35
561.419	12.43
561.615	12.43
561.811	12.47
562.007	12.42
562.203	12.44
562.399	12.43
562.595	12.52
562.791	12.58
562.987	12.66
563.183	12.68
563.379	12.74
563.575	12.77
563.771	12.85
563.966	12.9
564.162	12.97
564.358	12.96
564.554	13.08
564.75	13.08
564.945	13.07
565.141	13.15
565.337	13.37
565.533	13.31
565.728	13.31
565.924	13.32
566.12	13.44
566.315	13.47
566.511	13.61
566.707	13.57
566.902	13.67
567.098	13.67
567.293	13.63
567.489	13.51
567.684	13.56
567.88	13.63
568.076	13.68
568.271	13.66
568.467	13.84
568.662	13.88
568.858	13.95
569.053	13.93
569.248	14.06
569.444	14.24
569.639	14.29
569.835	14.45
570.03	14.62
570.225	14.71
570.421	14.88
570.616	14.84
570.812	14.94
571.007	15.09
571.202	15.25
571.397	15.26
571.593	15.24
571.788	15.35
571.983	15.42
572.178	15.42
572.374	15.39
572.569	15.43
572.764	15.46
572.959	15.5
573.154	15.47
573.35	15.46
573.545	15.55
573.74	15.68
573.935	15.66
574.13	15.65
574.325	15.66
574.52	15.78
574.715	15.83
574.91	15.92
575.105	15.93
575.3	16.03
575.495	16.13
575.69	16.32
575.885	16.26
576.08	16.26
576.275	16.34
576.47	16.35
576.665	16.41
576.86	16.45
577.055	16.55
577.25	16.46
577.444	16.54
577.639	16.52
577.834	16.37
578.029	16.43
578.224	16.42
578.418	16.58
578.613	16.6
578.808	16.55
579.003	16.62
579.197	16.68
579.392	16.96
579.587	16.92
579.781	17.03
579.976	17.13
580.171	17.12
580.365	17.13
580.56	17.07
580.755	17.12
580.949	17.31
581.144	17.37
581.338	17.25
581.533	17.11
581.727	17.18
581.922	17.3
582.116	17.36
582.311	17.45
582.505	17.7
582.7	17.64
582.894	17.77
583.089	17.75
583.283	17.68
583.478	17.9
583.672	17.89
583.866	18.03
584.061	17.96
584.255	17.92
584.449	18.07
584.644	18.13
584.838	18.23
585.032	18.16
585.226	18.11
585.421	18.05
585.615	17.99
585.809	18
586.003	18.04
586.198	18.1
586.392	18.21
586.586	18.09
586.78	17.99
586.974	17.96
587.168	18.05
587.363	18.17
587.557	18.24
587.751	18.33
587.945	18.44
588.139	18.26
588.333	18.31
588.527	18.27
588.721	18.4
588.915	18.48
589.109	18.5
589.303	18.53
589.497	18.51
589.691	18.61
589.885	18.6
590.079	18.67
590.273	18.84
590.466	18.78
590.66	18.79
590.854	18.84
591.048	18.79
591.242	18.98
591.436	19.06
591.629	19.12
591.823	19.12
592.017	19.12
592.211	19.16
592.404	19.2
592.598	19.39
592.792	19.44
592.986	19.48
593.179	19.58
593.373	19.5
593.567	19.52
593.76	19.64
593.954	19.69
594.147	19.76
594.341	19.84
594.535	19.91
594.728	19.79
594.922	19.83
595.115	19.85
595.309	19.93
595.502	20.04
595.696	20.03
595.889	20
596.083	20.08
596.276	20.01
596.47	19.98
596.663	19.95
596.856	19.98
597.05	20.01
597.243	20.05
597.437	20.11
597.63	20.2
597.823	20.4
598.017	20.38
598.21	20.3
598.403	20.53
598.596	20.63
598.79	20.76
598.983	20.91
599.176	21.03
599.369	20.89
599.563	20.92
599.756	20.94
599.949	20.85
600.142	20.87
600.335	20.91
600.528	20.79
600.722	20.64
600.915	20.41
601.108	20.36
601.301	20.29
601.494	20.34
601.687	20.36
601.88	20.31
602.073	20.3
602.266	20.26
602.459	20.25
602.652	20.31
602.845	20.47
603.038	20.57
603.231	20.67
603.424	20.66
603.617	20.68
603.809	20.58
604.002	20.57
604.195	20.66
604.388	20.7
604.581	20.84
604.774	20.81
604.966	20.74
605.159	20.91
605.352	20.85
605.545	20.91
605.737	21.02
605.93	21.05
606.123	21
606.316	20.9
606.508	20.88
606.701	20.94
606.894	21.1
607.086	21.26
607.279	21.14
607.471	21.11
607.664	21.19
607.857	21.21
608.049	21.34
608.242	21.37
608.434	21.35
608.627	21.52
608.819	21.47
609.012	21.44
609.204	21.32
609.397	21.43
609.589	21.45
609.782	21.38
609.974	21.38
610.166	21.34
610.359	21.39
610.551	21.48
610.743	21.27
610.936	21.21
611.128	21.24
611.32	21.41
611.513	21.34
611.705	21.39
611.897	21.52
612.09	21.61
612.282	21.53
612.474	21.62
612.666	21.77
612.858	21.93
613.051	22.03
613.243	21.94
613.435	21.88
613.627	21.84
613.819	21.86
614.011	22.02
614.203	21.94
614.395	22.05
614.588	22.04
614.78	21.78
614.972	21.8
615.164	21.92
615.356	22.07
615.548	22.02
615.74	22.1
615.932	22.12
616.124	21.89
616.315	21.89
616.507	21.89
616.699	21.93
616.891	22.04
617.083	22.05
617.275	21.88
617.467	21.77
617.659	21.74
617.85	21.66
618.042	21.72
618.234	21.81
618.426	21.76
618.618	21.92
618.809	21.8
619.001	21.91
619.193	22
619.384	21.9
619.576	21.87
619.768	21.92
619.959	22.1
620.151	22.3
620.343	22.25
620.534	22.33
620.726	22.16
620.917	22.11
621.109	22.13
621.301	22.23
621.492	22.36
621.684	22.45
621.875	22.75
622.067	22.67
622.258	22.48
622.45	22.46
622.641	22.42
622.832	22.43
623.024	22.8
623.215	22.75
623.407	22.6
623.598	22.72
623.789	22.94
623.981	22.72
624.172	22.82
624.363	22.85
624.555	23.04
624.746	23.18
624.937	23.25
625.129	23.08
625.32	23.25
625.511	23.32
625.702	23.24
625.893	23.09
626.085	23.2
626.276	23.13
626.467	23.21
626.658	23.13
626.849	23.22
627.04	23.2
627.231	23.28
627.422	23.18
627.614	23.12
627.805	23.18
627.996	23.28
628.187	23.35
628.378	23.31
628.569	23.26
628.76	23.26
628.951	23.03
629.142	23.16
629.332	23.25
629.523	23.32
629.714	23.56
629.905	23.61
630.096	23.47
630.287	23.14
630.478	23.12
630.669	23.17
630.859	23.2
631.05	23.11
631.241	23.04
631.432	22.79
631.623	22.69
631.813	22.52
632.004	22.45
632.195	22.49
632.385	22.7
632.576	22.89
632.767	22.73
632.957	22.75
633.148	23.01
633.339	23.06
633.529	23.29
633.72	23.31
633.91	23.35
634.101	23.43
634.292	23.53
634.482	23.53
634.673	23.54
634.863	23.8
635.054	23.72
635.244	23.93
635.435	23.98
635.625	23.89
635.815	23.76
636.006	23.77
636.196	23.97
636.387	23.91
636.577	23.97
636.767	23.96
636.958	23.91
637.148	24.15
637.338	23.91
637.529	23.83
637.719	23.95
637.909	24.17
638.099	24.18
638.29	23.93
638.48	23.89
638.67	23.64
638.86	23.65
639.05	23.55
639.241	23.48
639.431	23.62
639.621	23.65
639.811	23.51
640.001	23.53
640.191	23.6
640.381	23.75
640.571	23.85
640.761	24.18
640.951	24.38
641.141	24.53
641.331	24.54
641.521	24.5
641.711	24.5
641.901	24.57
642.091	24.45
642.281	24.6
642.471	24.56
642.661	24.55
642.851	24.32
643.041	24.19
643.231	24.12
643.42	24.08
643.61	23.86
643.8	23.99
643.99	24.07
644.18	24.23
644.369	24.3
644.559	24.3
644.749	24.46
644.939	24.76
645.128	24.71
645.318	24.87
645.508	24.85
645.697	25.03
645.887	24.84
646.076	24.92
646.266	25.02
646.456	24.93
646.645	25.08
646.835	24.94
647.024	24.81
647.214	24.89
647.403	24.85
647.593	25.02
647.782	25.09
647.972	25.27
648.161	25.23
648.351	25.28
648.54	25.3
648.73	25.22
648.919	25.31
649.108	25.48
649.298	25.43
649.487	25.37
649.677	25.42
649.866	25.36
650.055	25.33
650.244	25.24
650.434	25.05
650.623	24.88
650.812	24.83
651.002	24.85
651.191	24.67
651.38	24.71
651.569	24.72
651.758	24.57
651.947	24.69
652.137	24.87
652.326	24.94
652.515	24.99
652.704	25.18
652.893	25.41
653.082	25.42
653.271	25.55
653.46	25.51
653.649	25.63
653.838	25.8
654.027	25.84
654.216	25.64
654.405	25.78
654.594	25.98
654.783	26.17
654.972	25.83
655.161	25.99
655.35	25.98
655.539	25.94
655.728	25.81
655.916	25.64
656.105	25.67
656.294	25.61
656.483	25.48
656.672	25.55
656.86	25.34
657.049	25.65
657.238	25.61
657.427	25.73
657.615	25.85
657.804	25.95
657.993	26.02
658.181	26.09
658.37	26.34
658.559	26.37
658.747	26.09
658.936	26.18
659.125	25.96
659.313	25.79
659.502	25.77
659.69	25.63
659.879	25.55
660.067	25.73
660.256	25.65
660.444	25.46
660.633	25.3
660.821	25.45
661.01	25.44
661.198	25.65
661.387	25.82
661.575	25.76
661.763	25.91
661.952	26.02
662.14	25.94
662.328	25.92
662.517	25.96
662.705	26.15
662.893	26.31
663.082	26.2
663.27	26.14
663.458	25.96
663.646	26.23
663.834	26.17
664.023	26.36
664.211	26.32
664.399	26.38
664.587	26.4
664.775	26.55
664.963	26.65
665.152	26.79
665.34	26.83
665.528	26.96
665.716	26.76
665.904	26.78
666.092	26.76
666.28	26.79
666.468	27.02
666.656	27.06
666.844	27.02
667.032	26.76
667.22	26.75
667.408	26.81
667.596	26.87
667.784	26.82
667.971	27
668.159	26.7
668.347	26.59
668.535	26.15
668.723	25.96
668.911	25.82
669.098	25.86
669.286	25.99
669.474	26.06
669.662	26.01
669.849	25.97
670.037	25.72
670.225	26.06
670.413	25.93
670.6	26.25
670.788	26.23
670.976	26.2
671.163	26.19
671.351	26.18
671.538	26.08
671.726	26.18
671.913	26.24
672.101	26.54
672.289	26.47
672.476	26.47
672.664	26.49
672.851	26.67
673.039	27.03
673.226	27.16
673.413	26.93
673.601	26.9
673.788	26.9
673.976	26.94
674.163	26.83
674.35	26.72
674.538	27.13
674.725	27.06
674.912	27.24
675.1	27.19
675.287	27.21
675.474	27.1
675.662	27.01
675.849	27
676.036	27.06
676.223	27.26
676.411	27.21
676.598	26.98
676.785	27.08
676.972	27.12
677.159	26.88
677.346	26.8
677.533	27.03
677.721	27.23
677.908	27.28
678.095	27.11
678.282	27.17
678.469	27.23
678.656	27.21
678.843	27.05
679.03	27.14
679.217	27.29
679.404	27.23
679.591	27.09
679.778	27.05
679.964	27.03
680.151	27.12
680.338	26.88
680.525	26.86
680.712	26.91
680.899	26.98
681.086	26.72
681.272	26.69
681.459	26.88
681.646	27.03
681.833	27.13
682.02	27.34
682.206	27.45
682.393	27.45
682.58	27.65
682.766	27.73
682.953	27.98
683.14	28.1
683.326	28.13
683.513	28.09
683.7	28.41
683.886	28.48
684.073	28.53
684.259	28.5
684.446	28.93
684.632	29.07
684.819	29.19
685.005	29.21
685.192	29.61
685.378	29.33
685.565	29.32
685.751	28.91
685.938	28.94
686.124	28.79
686.31	28.62
686.497	28.53
686.683	28.32
686.87	28.22
687.056	28.14
687.242	28.02
687.429	28.39
687.615	28.24
687.801	28.62
687.987	28.38
688.174	28.29
688.36	28.5
688.546	28.54
688.732	28.67
688.918	28.53
689.105	28.57
689.291	28.45
689.477	28.45
689.663	28.66
689.849	28.51
690.035	28.35
690.221	28.5
690.407	28.64
690.593	28.25
690.779	28.24
690.965	28.43
691.151	28.21
691.337	28.12
691.523	27.97
691.709	28.05
691.895	28.29
692.081	28.76
692.267	28.6
692.453	28.36
692.639	28.69
692.825	28.79
693.011	29.12
693.196	29.44
693.382	29.46
693.568	29.72
693.754	29.54
693.94	29.12
694.125	29.01
694.311	29.09
694.497	29.13
694.682	28.99
694.868	28.84
695.054	28.41
695.239	28.3
695.425	28.29
695.611	28.12
695.796	28.37
695.982	28.59
696.168	28.5
696.353	28.48
696.539	28.4
696.724	28.36
696.91	28.46
697.095	28.54
697.281	28.3
697.466	28.25
697.652	28.21
697.837	27.96
698.023	27.84
698.208	27.91
698.393	27.89
698.579	27.91
698.764	27.76
698.949	27.73
699.135	27.76
699.32	28.03
699.505	27.99
699.691	28.09
699.876	28.23
700.061	28.4
700.246	28.4
700.432	28.61
700.617	28.83
700.802	29.21
700.987	28.93
701.172	29.09
701.358	29.02
701.543	29.35
701.728	29.39
701.913	29.61
702.098	29.65
702.283	29.56
702.468	29.6
702.653	29.55
702.838	29.62
703.023	29.62
703.208	29.44
703.393	29.08
703.578	28.84
703.763	29.05
703.948	29.01
704.133	28.79
704.318	28.81
704.503	28.56
704.688	28.54
704.873	28.51
705.057	28.68
705.242	28.55
705.427	28.7
705.612	28.83
705.797	28.34
705.981	28.69
706.166	28.59
706.351	28.68
706.536	28.85
706.72	28.7
706.905	28.84
707.09	28.72
707.274	28.92
707.459	29.14
707.644	29.4
707.828	29.59
708.013	29.05
708.197	29.14
708.382	29.25
708.567	29.01
708.751	29.46
708.936	29.34
709.12	29.69
709.305	29.67
709.489	29.7
709.673	29.17
709.858	29.22
710.042	29.38
710.227	29.56
710.411	29.62
710.596	30.03
710.78	30.03
710.964	29.95
711.149	29.89
711.333	30.28
711.517	29.99
711.702	30.37
711.886	30.28
712.07	30.32
712.254	30.21
712.438	30.17
712.623	29.95
712.807	29.35
712.991	29.74
713.175	29.55
713.359	29.09
713.544	29.36
713.728	28.87
713.912	28.92
714.096	28.92
714.28	29.07
714.464	28.99
714.648	29.08
714.832	29.46
715.016	29.37
715.2	29.49
715.384	29.43
715.568	29.66
715.752	29.99
715.936	30.25
716.12	30.26
716.304	30.32
716.488	30.53
716.671	30.57
716.855	30.47
717.039	29.95
717.223	29.99
717.407	30.19
717.59	30
717.774	30.26
717.958	30.17
718.142	30.1
718.325	30.33
718.509	30.19
718.693	29.92
718.877	29.8
719.06	29.9
719.244	30.09
719.428	29.86
719.611	30.06
719.795	29.72
719.978	30.09
720.162	29.96
720.345	29.53
720.529	29.13
720.713	28.84
720.896	28.96
721.08	29.1
721.263	28.87
721.446	28.93
721.63	28.97
721.813	28.97
721.997	28.67
722.18	28.68
722.364	29.04
722.547	29.09
722.73	29.47
722.914	29.89
723.097	30.01
723.28	29.91
723.464	29.54
723.647	29.18
723.83	29.48
724.013	29.76
724.197	29.86
724.38	29.62
724.563	29.82
724.746	30.28
724.929	29.99
725.112	29.58
725.296	29.74
725.479	30.38
725.662	30.19
725.845	30.17
726.028	29.83
726.211	30.2
726.394	30.23
726.577	30.04
726.76	29.5
726.943	28.73
727.126	28.98
727.309	28.78
727.492	28.46
727.675	28.61
727.858	28.62
728.041	28.8
728.224	28.45
728.407	28.33
728.589	28.22
728.772	28.23
728.955	29.03
729.138	28.96
729.321	29.28
729.503	29.44
729.686	29.49
729.869	29.17
730.052	29.28
730.234	28.9
730.417	28.9
730.6	29.18
730.782	28.93
730.965	29.19
731.148	29.14
731.33	29.23
731.513	29.34
731.695	29.45
731.878	29.9
732.061	29.55
732.243	30.14
732.426	29.75
732.608	29.91
732.791	30.25
732.973	30.22
733.156	30.49
733.338	30.39
733.52	30.81
733.703	30.79
733.885	30.68
734.068	30.71
734.25	30.36
734.432	30.79
734.615	30.85
734.797	30.99
734.979	30.63
735.162	30.66
735.344	30.31
735.526	29.62
735.708	29.71
735.891	29.76
736.073	29.97
736.255	30.08
736.437	29.97
736.619	29.53
736.802	29.77
736.984	29.98
737.166	29.7
737.348	29.98
737.53	30.47
737.712	30.46
737.894	30.12
738.076	30.06
738.258	30.1
738.44	30.25
738.622	30.91
738.804	30.68
738.986	31.04
739.168	31.19
739.35	31.44
739.532	30.86
739.714	30.79
739.896	30.97
740.078	31.19
740.259	31.69
740.441	31.84
740.623	31.42
740.805	31.53
740.987	30.85
741.168	31.13
741.35	30.87
741.532	31.33
741.714	31.15
741.895	31.1
742.077	31.04
742.259	30.71
742.44	31.07
742.622	31.1
742.804	30.44
742.985	30.65
743.167	30.38
743.348	29.96
743.53	29.97
743.711	29.52
743.893	29.82
744.075	29.82
744.256	29.74
744.438	30.08
744.619	30.06
744.8	31.06
744.982	30.6
745.163	30.73
745.345	31.28
745.526	31.37
745.707	31.93
745.889	31.71
746.07	31.69
746.252	31.87
746.433	31.15
746.614	31.12
746.795	30.75
746.977	32.36
747.158	32.16
747.339	32.56
747.52	32.12
747.702	32.31
747.883	32.61
748.064	32.4
748.245	32.61
748.426	32.22
748.607	31.69
748.788	31.21
748.97	30.24
749.151	29.81
749.332	28.92
749.513	28.3
749.694	28.34
749.875	28.8
750.056	28.99
750.237	28.57
750.418	29.1
750.599	29.63
750.78	29.77
750.96	29.45
751.141	30
751.322	30.92
751.503	31.72
751.684	31.29
751.865	30.64
752.046	30.84
752.226	31.22
752.407	31.08
752.588	31.41
752.769	31.84
752.949	31.39
753.13	31.24
753.311	30.56
753.492	30.2
753.672	30.65
753.853	30.48
754.034	30.45
754.214	29.14
754.395	28.91
754.575	28.16
754.756	28.17
754.937	29.12
755.117	29.77
755.298	29.82
755.478	30.07
755.659	29.77
755.839	29.69
756.02	29.34
756.2	30.3
756.381	30.28
756.561	31.67
756.741	32.39
756.922	31.49
757.102	31.38
757.283	31.37
757.463	31.87
757.643	32.14
757.823	32.45
758.004	32.5
758.184	32.66
758.364	33.04
758.545	32.2
758.725	30.79
758.905	31.29
759.085	31.21
759.265	31.62
759.446	30.81
759.626	30.89
759.806	30.95
759.986	30.88
760.166	30.88
760.346	30.9
760.526	30.57
760.706	30.77
760.886	31.03
761.066	31.05
761.246	31.18
761.426	31.44
761.606	31.27
761.786	30.69
761.966	30.74
762.146	30.96
762.326	31.12
762.506	31.71
762.686	31.96
762.866	31.79
763.046	31.81
763.225	31.71
763.405	32.08
763.585	31.63
763.765	31.8
763.945	31.76
764.124	31.94
764.304	31.62
764.484	31.58
764.664	31.78
764.843	32.03
765.023	31.91
765.203	31.86
765.382	31.61
765.562	31.28
765.741	31.21
765.921	31.15
766.101	30.64
766.28	30.84
766.46	31.02
766.639	30.54
766.819	30.62
766.998	30.66
767.178	31.3
767.357	31.13
767.537	32.51
767.716	32.54
767.896	33.15
768.075	33.2
768.254	32.78
768.434	31.91
768.613	32.14
768.792	31.61
768.972	31.69
769.151	31.29
769.33	31.58
769.51	31.32
769.689	31.62
769.868	31.81
770.047	32.48
770.226	32.58
770.406	33.5
770.585	33.82
770.764	33.7
770.943	33.47
771.122	33.38
771.301	33.84
771.48	32.97
771.66	33.07
771.839	32.47
772.018	31.77
772.197	32.04
772.376	32.12
772.555	32.27
772.734	32.5
772.913	32.72
773.092	31.7
773.271	31.29
773.449	31.81
773.628	31.92
773.807	32.42
773.986	32.23
774.165	32.48
774.344	32.96
774.523	32.84
774.701	33.11
774.88	32.72
775.059	33.19
775.238	32.64
775.417	33.09
775.595	32.88
775.774	32.58
775.953	32.29
776.131	32.22
776.31	31.54
776.489	31.6
776.667	32.32
776.846	33.09
777.025	32.77
777.203	33.8
777.382	34.2
777.56	34.49
777.739	34.2
777.917	34.88
778.096	35.02
778.274	35
778.453	34.7
778.631	34.31
778.81	33.27
778.988	33.93
779.166	33.04
779.345	32.94
779.523	32.14
779.702	31.95
779.88	31.4
780.058	30.76
780.237	30.95
780.415	31.04
780.593	30.72
780.771	30.82
780.95	30.56
781.128	31.21
781.306	30.11
781.484	31.08
781.662	30.81
781.841	32.23
782.019	32.83
782.197	32.31
782.375	32.16
782.553	31.99
782.731	32.46
782.909	32.71
783.087	31.68
783.265	32.52
783.443	31.83
783.621	32.68
783.799	31.73
783.977	31.48
784.155	32.16
784.333	32.53
784.511	32.51
784.689	32
784.867	31.54
785.045	32.55
785.223	32.55
785.4	32.57
785.578	32.43
785.756	33
785.934	32.99
786.112	32.54
786.289	31.89
786.467	32.05
786.645	32.78
786.823	32.83
787	32.92
787.178	33.35
787.356	33.54
787.533	32.57
787.711	32.01
787.889	32.67
788.066	33.01
788.244	33.49
788.421	33.7
788.599	33.49
788.776	33.95
788.954	33.59
789.131	33.12
789.309	33.57
789.486	36.3
789.664	36.26
789.841	35.32
790.019	34.17
790.196	33.81
790.373	33.55
790.551	34.13
790.728	33.96
790.906	33.64
791.083	34.87
791.26	34.07
791.437	31.76
791.615	31.71
791.792	31.52
791.969	31.75
792.146	32.44
792.324	32.72
792.501	32.35
792.678	33.61
792.855	33.86
793.032	32.81
793.209	33.52
793.387	33.78
793.564	33.66
793.741	34.59
793.918	35.55
794.095	35.39
794.272	35.45
794.449	34.64
794.626	33.72
794.803	33.99
794.98	32.92
795.157	32.07
795.334	32.18
795.511	31.94
795.688	31.99
795.864	31.23
796.041	31.11
796.218	30.92
796.395	31.05
796.572	31.57
796.749	31.73
796.925	32.01
797.102	33.07
797.279	33.37
797.456	33.1
797.632	33.31
797.809	33.51
797.986	32.99
798.162	32.41
798.339	33.1
798.516	32.39
798.692	31.39
798.869	32.33
799.046	31.93
799.222	32.41
799.399	32.82
799.575	31.56
799.752	31.83
799.928	32.17
800.105	32.72
800.281	31.34
800.458	32.34
800.634	32.94
800.811	32.36
800.987	32.05
801.163	30.87
801.34	31.17
801.516	31.79
801.692	32.37
801.869	32.36
802.045	32.04
802.221	33.94
802.398	32.59
802.574	32.99
802.75	33.85
802.926	34.84
803.103	35.58
803.279	34.35
803.455	36.14
803.631	34.25
803.807	34.34
803.983	34.58
804.16	33.96
804.336	33.5
804.512	33.38
804.688	32.9
804.864	32.56
805.04	31.99
805.216	33.54
805.392	31.3
805.568	32.39
805.744	31.77
805.92	31.29
806.096	31.4
806.272	31.96
806.448	30.89
806.623	31.62
806.799	30.08
806.975	30.69
807.151	30.42
807.327	30.64
807.503	30.68
807.678	32.1
807.854	33.09
808.03	33.33
808.206	33.61
808.381	34.41
808.557	32.94
808.733	33.98
808.908	34.71
809.084	34.8
809.26	34.87
809.435	35.7
809.611	34.93
809.787	34.77
809.962	33.68
810.138	32.97
810.313	33.52
810.489	33.93
810.664	35.29
810.84	34.34
811.015	33.76
811.191	33.13
811.366	32.64
811.542	31.95
811.717	31.17
811.892	32.08
812.068	33.06
812.243	32
812.419	32.3
812.594	29.31
812.769	29.43
812.944	30.42
813.12	31.49
813.295	29.64
813.47	31.08
813.645	30.54
813.821	30.07
813.996	28.22
814.171	28.59
814.346	27.53
814.521	29.76
814.697	29.21
814.872	27.91
815.047	27.65
815.222	28.45
815.397	27.48
815.572	29.58
815.747	30.01
815.922	31.63
816.097	31.71
816.272	32.71
816.447	31.94
816.622	31.53
816.797	32.64
816.972	32.9
817.147	33.6
817.322	34.1
817.496	31.9
817.671	31.29
817.846	30.83
818.021	32.05
818.196	32.22
818.371	32.69
818.545	33.57
818.72	34.6
818.895	34.76
819.069	34.57
819.244	33.84
819.419	34.75
819.594	34.61
819.768	35.52
819.943	34.5
820.117	34.53
820.292	33.85
820.467	33.57
820.641	33.03
820.816	32.5
820.99	32.39
821.165	32.5
821.339	32.52
821.514	32.34
821.688	32.3
821.863	32.47
822.037	32.33
822.212	32.46
822.386	32.3
822.56	32.23
822.735	32.69
822.909	32.74
823.084	32.72
823.258	32.43
823.432	32.69
823.606	32.4
823.781	32.58
823.955	32.46
824.129	32.44
824.303	32.49
824.478	32.49
824.652	31.91
824.826	31.51
825	31.51
825.174	31.38
825.348	31.48
825.523	31.36
825.697	30.54
825.871	30.79
826.045	30.43
826.219	30.7
826.393	30.62
826.567	30.25
826.741	30.51
826.915	30.83
827.089	31.33
827.263	31.32
827.437	31.36
827.611	31.4
827.784	31.08
827.958	31.6
828.132	31.75
828.306	31.87
828.48	32.7
828.654	32.51
828.827	32.13
829.001	31.83
829.175	32.08
829.349	31.93
829.522	31.99
829.696	33.17
829.87	33.44
830.044	33.12
830.217	33.52
830.391	33.96
830.565	35.05
830.738	35.26
830.912	35.25
831.085	33.61
831.259	34.49
831.432	35.23
831.606	34.72
831.779	33.91
831.953	33.37
832.126	33.53
832.3	31.86
832.473	32.1
832.647	32.11
832.82	33.26
832.994	33.82
833.167	33.36
833.34	32.98
833.514	32.47
833.687	31.89
833.86	32.02
834.034	31.46
834.207	32.33
834.38	32.5
834.553	32.81
834.727	32.27
834.9	32.92
835.073	33.07
835.246	33.43
835.419	33.7
835.593	34.81
835.766	34.13
835.939	34.12
836.112	33.87
836.285	33
836.458	32.56
836.631	31.67
836.804	31.53
836.977	30.61
837.15	30.16
837.323	30.96
837.496	30.22
837.669	31.81
837.842	31.21
838.015	30.65
838.188	30.47
838.361	29.67
838.533	30.73
838.706	27.88
838.879	29.86
839.052	30.01
839.225	27.46
839.398	25.08
839.57	25.68
839.743	26.59
839.916	27.39
840.088	28.72
840.261	29.37
840.434	30.13
840.607	31.1
840.779	30.43
840.952	30.63
841.124	30.95
841.297	34.14
841.47	33.95
841.642	33.16
841.815	33.98
841.987	33.66
842.16	33.86
842.332	32.03
842.505	33.24
842.677	32.78
842.85	33.21
843.022	34.42
843.194	30.97
843.367	31.14
843.539	33.67
843.712	30.77
843.884	29.18
844.056	27.31
844.229	31.85
844.401	35.06
844.573	35.45
844.745	34.48
844.918	34.23
845.09	36.25
845.262	35.57
845.434	33
845.606	35.29
845.779	37.77
845.951	38.58
846.123	35.4
846.295	27.61
846.467	28.33
846.639	28.46
846.811	28.2
846.983	29.56
847.155	27.99
847.327	30.56
847.499	32
847.671	30.16
847.843	34.51
848.015	33.92
848.187	36.85
848.359	36.63
848.531	34.94
848.703	35.67
848.875	38.39
849.047	41.09
849.218	37.04
849.39	34.42
849.562	33.59
849.734	33.42
849.905	35.26
850.077	36.98
850.249	37.51
850.421	39.85
850.592	40.01
850.764	39.16
850.936	37.18
851.107	38.59
851.279	36.97
851.451	39.85
851.622	35.63
851.794	37.14
851.965	37.49
852.137	37.08
852.308	34.23
852.48	33.36
852.651	31.68
852.823	31.86
852.994	34.64
853.166	37.69
853.337	39.06
853.509	40.06
853.68	38.34
853.851	38.54
854.023	36.44
854.194	40.18
854.365	40.47
854.537	38.18
854.708	40.18
854.879	39.72
855.05	37.65
855.222	35.68
855.393	37.85
855.564	38.19
855.735	38.11
855.906	40.34
856.078	37.25
856.249	38.05
856.42	39.7
856.591	40.66
856.762	42.12
856.933	41.26
857.104	38.02
857.275	31.48
857.446	32.66
857.617	33.35
857.788	30.83
857.959	34.05
858.13	37.45
858.301	38.97
858.472	36.07
858.643	33.82
858.814	37.26
858.985	38.97
859.155	42.83
859.326	39.78
859.497	34.92
859.668	38.14
859.839	36.41
860.009	30.61
860.18	31.05
860.351	32.4
860.522	35.99
860.692	37.61
860.863	39.58
861.034	40.31
861.204	40.39
861.375	43.77
861.546	41.02
861.716	42.4
861.887	44.29
862.057	44.64
862.228	45.15
862.398	43.42
862.569	39.1
862.739	38.7
862.91	39.47
863.08	41.73
863.251	45.51
863.421	44.5
863.592	42.18
863.762	47.1
863.932	46.35
864.103	45.46
864.273	46.4
864.443	45.07
864.614	37.52
864.784	32.29
864.954	30.98
865.125	28.81
865.295	32.01
865.465	37.24
865.635	36.29
865.805	35.67
865.976	35.27
866.146	32.21
866.316	35.86
866.486	45.1
866.656	47.15
866.826	48.76
866.996	43.7
867.166	44.42
867.336	43.49
867.506	45.75
867.676	48.56
867.846	49.59
868.016	50.54
868.186	51.54
868.356	48.52
868.526	47.51
868.696	43.24
868.866	41.13
869.036	42.13
869.206	41.1
869.376	35.5
869.545	28.8
869.715	25.15
869.885	27.72
870.055	23.25
870.224	22.33
870.394	22.83
870.564	33.9
870.734	37.58
870.903	35.84
871.073	38.15
871.243	36.3
871.412	43.06
871.582	46
871.751	48.18
871.921	49.05
872.091	53.42
872.26	50.83
872.43	46.53
872.599	47.98
872.769	47.34
872.938	42.81
873.108	45.73
873.277	45.15
873.446	45.13
873.616	40.3
873.785	43.89
873.955	40.2
874.124	43.59
874.293	38.43
874.463	39.15
874.632	42.26
874.801	39.66
874.971	36.51
875.14	33.39
875.309	37.55
875.478	35.4
875.647	32.56
875.817	33.65
875.986	36.54
876.155	40.31
876.324	42.09
876.493	41.98
876.662	46.14
876.831	48.54
877	45.97
877.17	42.56
877.339	43.46
877.508	42.63
877.677	39.85
877.846	36.34
878.015	33.08
878.184	26.97
878.352	22.64
878.521	23.46
878.69	21.24
878.859	27
879.028	25.19
879.197	28.49
879.366	28.97
879.534	29.47
879.703	31.47
879.872	34.28
880.041	36.77
880.21	37.52
880.378	36.56
880.547	37.11
880.716	35.18
880.884	35.06
881.053	33.95
881.222	34.94
881.39	35.99
881.559	35.69
881.727	35.33
881.896	35.33
882.065	35.42
882.233	35.61
882.402	34.98
882.57	35.47
882.739	35.65
882.907	36.3
883.076	35.46
883.244	34.68
883.412	35.17
883.581	34.36
883.749	33.55
883.918	32.85
884.086	33.01
884.254	33.53
884.423	32.71
884.591	33.18
884.759	31.8
884.927	32.04
885.096	32.5
885.264	30.29
885.432	30
885.6	30.59
885.769	29.06
885.937	28.14
886.105	27.8
886.273	30.03
886.441	29.38
886.609	31.42
886.777	32.68
886.945	33.46
887.113	35.39
887.281	36.2
887.449	37.32
887.617	38.93
887.785	39.46
887.953	40.64
888.121	39.49
888.289	35.98
888.457	33.33
888.625	30.74
888.793	28.77
888.961	28.23
889.129	29.9
889.296	33.55
889.464	37.54
889.632	36.06
889.8	33.73
889.967	32.28
890.135	37.25
