Data from 2938471_Reflection_1.txt Node
Date: Wed Jun 17 13:33:23 EDT 2015
User: robert
Spectrometer: USB4E03002
Autoset integration time: false
Trigger mode: 4
Integration Time (sec): 1.000000E-1
Scans to average: 10
Electric dark correction enabled: true
Nonlinearity correction enabled: false
Boxcar width: 5
Stray light correction enabled: false
XAxis mode: Wavelengths
Stop averaging: false
Number of Pixels in Spectrum: 3648
>>>>>Begin Spectral Data<<<<<
177.575	-27.78
177.794	24.44
178.014	5.1
178.233	18.26
178.452	22
178.672	21.59
178.891	101.78
179.11	-29.31
179.33	-5.24
179.549	14.74
179.768	38.46
179.987	30.32
180.207	22.81
180.426	39.05
180.645	37.85
180.864	30.76
181.084	62.98
181.303	95.23
181.522	-66.67
181.741	53.75
181.96	43.57
182.179	33.42
182.398	13.73
182.618	-9.03
182.837	14.35
183.056	-9.1
183.275	-44.04
183.494	34.78
183.713	27.59
183.932	50.42
184.151	8.04
184.37	66.62
184.589	110.09
184.808	111.19
185.027	122.96
185.246	206.22
185.465	156.45
185.684	201.46
185.903	238.13
186.122	315.37
186.341	2059.37
186.56	2055.31
186.779	239.78
186.998	576.34
187.216	-87.05
187.435	-446.67
187.654	3505.81
187.873	-438.48
188.092	105.63
188.311	260.44
188.53	282.99
188.748	135.48
188.967	525.63
189.186	50.99
189.405	-6874.19
189.623	220.91
189.842	17.8
190.061	56.69
190.28	169.01
190.498	-64.88
190.717	-344.24
190.936	1176.6
191.154	384.92
191.373	228.64
191.592	275.95
191.81	316.43
192.029	240.04
192.248	488.65
192.466	-413.18
192.685	-357.1
192.904	135.86
193.122	219.58
193.341	159.4
193.559	232.53
193.778	183.85
193.996	223.79
194.215	999.1
194.433	302.53
194.652	61.88
194.87	44.22
195.089	43.31
195.307	13.09
195.526	23.77
195.744	-27.73
195.963	21.64
196.181	77.06
196.399	72.9
196.618	67.56
196.836	87.85
197.055	206.66
197.273	441.28
197.491	259.18
197.71	191.61
197.928	225.51
198.146	336.08
198.365	428.96
198.583	4700
198.801	-142.83
199.019	-237.51
199.238	-391.67
199.456	-108.07
199.674	-97.22
199.892	-606.48
200.111	-597.25
200.329	654.78
200.547	7816.44
200.765	-337.65
200.983	-366.89
201.202	509.55
201.42	521.87
201.638	374.14
201.856	215.38
202.074	185.89
202.292	233.46
202.51	179.51
202.728	265.46
202.946	134.93
203.165	121.69
203.383	116.68
203.601	77.42
203.819	73.92
204.037	82.86
204.255	121.63
204.473	639.86
204.691	286.82
204.909	739.61
205.127	424.54
205.345	517.05
205.562	199.36
205.78	281.02
205.998	-709.12
206.216	-939.34
206.434	-986.03
206.652	296.07
206.87	237.54
207.088	210.08
207.306	63.6
207.523	-10.91
207.741	11.9
207.959	-3.17
208.177	-18.07
208.395	-16.78
208.612	-47.71
208.83	-51.74
209.048	-70.63
209.266	-49.31
209.483	-52.37
209.701	-59.76
209.919	-66.67
210.136	-28
210.354	-20.32
210.572	-14.23
210.79	-5.75
211.007	16.52
211.225	23.56
211.442	35.67
211.66	18.14
211.878	14.35
212.095	26.23
212.313	25.52
212.53	18.58
212.748	26.65
212.966	33.45
213.183	22.2
213.401	18.37
213.618	21.94
213.836	8.78
214.053	15.54
214.271	18.33
214.488	17.16
214.705	17.14
214.923	29.21
215.14	1
215.358	0.94
215.575	-2.17
215.793	-150.57
216.01	-24.98
216.227	30.12
216.445	24.83
216.662	6.7
216.879	9.89
217.097	11.29
217.314	16.01
217.531	29.33
217.749	39.82
217.966	47.78
218.183	57.88
218.4	51.12
218.618	44.74
218.835	56.08
219.052	71.02
219.269	64.75
219.487	51.1
219.704	58.39
219.921	52.4
220.138	41.74
220.355	40.01
220.572	45.09
220.79	49.79
221.007	39.66
221.224	42.47
221.441	44.91
221.658	47.34
221.875	55.62
222.092	47.68
222.309	41.22
222.526	40.56
222.743	27.18
222.96	22.59
223.177	15.11
223.394	13.6
223.611	6.8
223.828	15.23
224.045	17.59
224.262	17.61
224.479	18.97
224.696	18.15
224.913	17.48
225.13	15.44
225.347	11.58
225.564	13.75
225.781	13.1
225.997	12.1
226.214	10.65
226.431	9.25
226.648	8.17
226.865	7.67
227.082	7.32
227.298	8.6
227.515	8.66
227.732	8.76
227.949	7.52
228.165	6.82
228.382	8.37
228.599	7.73
228.816	7.64
229.032	7.57
229.249	5.99
229.466	5.1
229.682	2.96
229.899	3.12
230.116	3.01
230.332	3.33
230.549	4.31
230.765	1.07
230.982	-0.3
231.199	-1.56
231.415	-2.38
231.632	-1.14
231.848	3.06
232.065	2.74
232.281	3.22
232.498	3.72
232.714	4.36
232.931	5.33
233.147	4.95
233.364	5.85
233.58	5.81
233.797	7.87
234.013	8.78
234.23	7.1
234.446	8.12
234.662	9.23
234.879	10.71
235.095	12.18
235.312	10.41
235.528	11.49
235.744	9.19
235.961	11.68
236.177	9.03
236.393	7.05
236.61	8.59
236.826	7.16
237.042	6.08
237.258	4.1
237.475	2.13
237.691	3.21
237.907	3.25
238.123	6.3
238.339	4.16
238.556	4.32
238.772	4.99
238.988	2.78
239.204	3.67
239.42	4.57
239.636	4.93
239.853	3.6
240.069	4.07
240.285	3.69
240.501	2.75
240.717	3.16
240.933	3.24
241.149	3.4
241.365	3.69
241.581	3.61
241.797	2.88
242.013	2.6
242.229	4.05
242.445	3.2
242.661	2.84
242.877	3.72
243.093	3.71
243.309	4.37
243.525	4.58
243.741	5.51
243.957	5.89
244.173	5.5
244.388	5.4
244.604	4.87
244.82	5.43
245.036	5.23
245.252	4.84
245.468	4.76
245.683	4.93
245.899	4.45
246.115	4.32
246.331	3.84
246.547	4.05
246.762	3.78
246.978	3.99
247.194	3.45
247.409	3.47
247.625	3.36
247.841	3.72
248.057	2.78
248.272	3.07
248.488	2.96
248.703	3.9
248.919	3.59
249.135	3.38
249.35	2.18
249.566	3.58
249.782	3.62
249.997	4.05
250.213	3.35
250.428	3.5
250.644	3.08
250.859	3.31
251.075	2.85
251.29	2.77
251.506	3.47
251.721	4.49
251.937	3.19
252.152	2.79
252.368	2.87
252.583	2.2
252.798	3.17
253.014	3.56
253.229	3.07
253.445	3.35
253.66	4.31
253.875	4.86
254.091	3.82
254.306	4.13
254.521	5.34
254.737	4.92
254.952	5.96
255.167	4.58
255.383	4.89
255.598	4.64
255.813	4.52
256.028	4.52
256.244	4.11
256.459	4.86
256.674	4.77
256.889	4.16
257.104	3.71
257.32	3.61
257.535	3.42
257.75	2.93
257.965	3
258.18	2.71
258.395	2.73
258.61	2.77
258.826	2.03
259.041	1.98
259.256	2.03
259.471	2.12
259.686	1.91
259.901	1.98
260.116	2.37
260.331	2.48
260.546	2.19
260.761	1.62
260.976	1.19
261.191	1.55
261.406	1.38
261.621	1.43
261.836	1.7
262.05	1.92
262.265	2.12
262.48	1.38
262.695	0.94
262.91	1.82
263.125	2.68
263.34	3.17
263.555	4.15
263.769	4.62
263.984	4.58
264.199	4.62
264.414	3.96
264.629	4.47
264.843	4.74
265.058	4.21
265.273	4.46
265.488	4.19
265.702	4.36
265.917	3.69
266.132	3.36
266.346	3.04
266.561	2.55
266.776	3.14
266.99	2.72
267.205	2.82
267.42	3.33
267.634	2.84
267.849	2.37
268.063	1.49
268.278	1.95
268.492	2.36
268.707	2.56
268.922	2.61
269.136	2.44
269.351	2.24
269.565	1.9
269.78	1.54
269.994	1.71
270.209	2.29
270.423	2.59
270.637	2.36
270.852	2.31
271.066	2.15
271.281	2.2
271.495	2.19
271.709	2.74
271.924	2.78
272.138	3
272.353	3.27
272.567	2.17
272.781	2.09
272.996	1.84
273.21	1.7
273.424	1.72
273.638	1.9
273.853	2.03
274.067	1.86
274.281	2.03
274.495	2.47
274.71	1.88
274.924	2.97
275.138	2.91
275.352	3.76
275.566	3.43
275.781	3.8
275.995	2.92
276.209	3.62
276.423	3.1
276.637	3.08
276.851	2.4
277.065	2.37
277.279	2.64
277.493	2.78
277.707	2.27
277.921	2.27
278.135	2.09
278.349	2.46
278.563	1.35
278.777	1.69
278.991	1.74
279.205	1.87
279.419	1.77
279.633	1.05
279.847	1.63
280.061	1.82
280.275	2.1
280.489	1.88
280.703	2.89
280.917	3.23
281.131	3.41
281.344	3.03
281.558	3.01
281.772	3.12
281.986	3.34
282.2	2.92
282.414	2.49
282.627	2.32
282.841	2.44
283.055	1.91
283.269	1.78
283.482	1.45
283.696	1.7
283.91	1.88
284.123	1.98
284.337	2.28
284.551	2.4
284.764	2.46
284.978	2.54
285.192	2.45
285.405	2.59
285.619	2.51
285.833	2.5
286.046	2.89
286.26	2.64
286.473	2.91
286.687	2.38
286.9	2.3
287.114	2.59
287.327	2.65
287.541	3.12
287.754	2.96
287.968	3.08
288.181	2.87
288.395	2.92
288.608	3.09
288.822	3.04
289.035	3.7
289.248	3.83
289.462	3.81
289.675	3.53
289.889	3.42
290.102	3.33
290.315	3.49
290.529	4.22
290.742	3.86
290.955	4.12
291.169	4.18
291.382	3.93
291.595	4.13
291.808	4.26
292.022	4.88
292.235	4.98
292.448	4.54
292.661	4.51
292.875	4.08
293.088	4.41
293.301	4.54
293.514	4.41
293.727	4.23
293.94	4.13
294.153	4.11
294.367	4.25
294.58	4.15
294.793	5.01
295.006	5.45
295.219	5.59
295.432	5.57
295.645	5.24
295.858	5.23
296.071	5.55
296.284	5.71
296.497	6.08
296.71	5.91
296.923	5.87
297.136	5.83
297.349	5.68
297.562	5.89
297.775	6.17
297.988	6.71
298.201	7.16
298.414	6.97
298.626	6.84
298.839	6.53
299.052	6.46
299.265	6.29
299.478	6.15
299.691	6
299.903	5.88
300.116	5.67
300.329	5.5
300.542	5.51
300.755	5.94
300.967	5.9
301.18	6.48
301.393	6.82
301.605	7.55
301.818	7.44
302.031	7.42
302.243	7.45
302.456	7.69
302.669	7.79
302.881	7.52
303.094	7.44
303.307	7.68
303.519	7.02
303.732	7.07
303.944	7.07
304.157	7.09
304.37	7.36
304.582	7.25
304.795	7.11
305.007	7.07
305.22	7.25
305.432	7.05
305.645	6.98
305.857	7.3
306.069	7.44
306.282	7.22
306.494	7.58
306.707	7.77
306.919	8.19
307.132	8.14
307.344	8.27
307.556	8.34
307.769	8.53
307.981	8.52
308.193	8.3
308.406	8.32
308.618	8.4
308.83	8.4
309.043	8.09
309.255	7.84
309.467	7.91
309.679	7.97
309.892	7.52
310.104	7.36
310.316	7.18
310.528	7.63
310.74	7.62
310.953	7.53
311.165	7.46
311.377	7.86
311.589	7.92
311.801	7.96
312.013	7.86
312.225	8.37
312.437	8.41
312.649	8.62
312.862	8.7
313.074	8.48
313.286	8.77
313.498	8.52
313.71	8.21
313.922	8.5
314.134	8.62
314.346	8.37
314.558	8.31
314.77	8.46
314.982	8.54
315.193	8.43
315.405	8.33
315.617	8.42
315.829	8.62
316.041	8.57
316.253	8.79
316.465	8.88
316.677	9
316.888	9.51
317.1	9.83
317.312	9.82
317.524	9.37
317.736	9.41
317.947	9.29
318.159	9.41
318.371	9.45
318.583	9.25
318.794	9.2
319.006	9.24
319.218	8.3
319.43	8.23
319.641	8.69
319.853	9.13
320.064	9.69
320.276	9.87
320.488	9.74
320.699	9.43
320.911	9.9
321.123	9.71
321.334	10.29
321.546	10.98
321.757	10.77
321.969	10.25
322.18	10.15
322.392	10.19
322.603	10.34
322.815	10.12
323.026	10.75
323.238	10.35
323.449	10.86
323.661	10.38
323.872	10.85
324.083	11.66
324.295	12.24
324.506	12.48
324.718	12.33
324.929	12.51
325.14	13.09
325.352	13.86
325.563	14.72
325.774	14.73
325.986	15.33
326.197	15.3
326.408	15.1
326.62	15.35
326.831	15.64
327.042	15.88
327.253	16.07
327.464	16.65
327.676	16.42
327.887	16.14
328.098	16.98
328.309	17.36
328.52	17.55
328.732	17.77
328.943	17.78
329.154	18.21
329.365	18.92
329.576	19.21
329.787	19.46
329.998	19.61
330.209	19.77
330.42	19.42
330.631	19.2
330.842	19.38
331.053	19.58
331.264	20.1
331.475	20.25
331.686	20.25
331.897	20.44
332.108	20.25
332.319	20.53
332.53	20.78
332.741	20.8
332.952	21.35
333.163	21.91
333.374	22.48
333.585	22.58
333.795	23.04
334.006	23.41
334.217	23.66
334.428	24.26
334.639	24.39
334.849	25.03
335.06	25.36
335.271	25.27
335.482	25.15
335.692	25.33
335.903	25.59
336.114	25.37
336.325	25.25
336.535	25.71
336.746	25.43
336.957	25.39
337.167	25.06
337.378	25.15
337.589	25.3
337.799	24.97
338.01	24.66
338.22	24.49
338.431	24.3
338.642	24.22
338.852	23.84
339.063	23.98
339.273	23.72
339.484	23.63
339.694	23.77
339.905	23.76
340.115	24.04
340.326	24.13
340.536	24.05
340.746	24.16
340.957	24.27
341.167	23.99
341.378	24.04
341.588	24.45
341.799	24.21
342.009	23.95
342.219	23.79
342.43	23.96
342.64	23.69
342.85	23.67
343.061	23.84
343.271	23.83
343.481	23.95
343.691	24.01
343.902	23.79
344.112	24.05
344.322	24.34
344.532	24.53
344.743	24.44
344.953	24.66
345.163	24.69
345.373	24.57
345.583	24.35
345.793	24.35
346.004	24.18
346.214	24.21
346.424	24.08
346.634	24.04
346.844	24.08
347.054	24
347.264	23.82
347.474	23.78
347.684	23.76
347.894	24.11
348.104	23.99
348.314	23.92
348.524	23.94
348.734	24.38
348.944	24.15
349.154	24.2
349.364	24.3
349.574	24.21
349.784	24.45
349.994	24.38
350.204	24.3
350.413	24.3
350.623	24.27
350.833	24
351.043	23.6
351.253	23.65
351.463	23.5
351.672	23.47
351.882	23.69
352.092	23.27
352.302	23.44
352.511	23.33
352.721	23.67
352.931	23.79
353.141	23.93
353.35	23.8
353.56	24.08
353.77	24.16
353.979	23.81
354.189	23.73
354.399	23.96
354.608	23.93
354.818	24.27
355.027	24.12
355.237	23.64
355.447	23.49
355.656	23.61
355.866	23.23
356.075	23.33
356.285	23.63
356.494	23.63
356.704	23.5
356.913	23.29
357.123	23.16
357.332	23.12
357.542	23.35
357.751	23.8
357.96	23.98
358.17	24.26
358.379	24.08
358.589	24.04
358.798	23.94
359.007	23.69
359.217	23.95
359.426	23.73
359.635	23.83
359.845	23.92
360.054	23.68
360.263	23.36
360.472	23.1
360.682	23.21
360.891	23.09
361.1	23.19
361.309	23.38
361.519	23.11
361.728	23.28
361.937	23.19
362.146	23.18
362.355	23.02
362.564	23.45
362.774	23.39
362.983	23.23
363.192	23.35
363.401	23.39
363.61	23.43
363.819	23.71
364.028	23.72
364.237	23.69
364.446	23.75
364.655	23.83
364.864	23.57
365.073	23.59
365.282	23.68
365.491	23.76
365.7	23.64
365.909	23.63
366.118	23.5
366.327	23.38
366.536	23.84
366.745	23.96
366.954	24.11
367.162	24.01
367.371	24.09
367.58	24.23
367.789	24.04
367.998	24.17
368.207	24.27
368.415	23.98
368.624	23.76
368.833	23.32
369.042	23.26
369.25	23.07
369.459	23.21
369.668	23.29
369.877	23.14
370.085	23.3
370.294	23.1
370.503	23.01
370.711	23.47
370.92	23.54
371.129	23.37
371.337	23.1
371.546	22.94
371.754	22.67
371.963	22.49
372.171	22.56
372.38	22.2
372.589	22.12
372.797	22.25
373.006	21.88
373.214	22.01
373.423	22.1
373.631	22.38
373.84	22.75
374.048	23.13
374.256	23.3
374.465	23
374.673	23.18
374.882	23.47
375.09	23.43
375.298	23.47
375.507	23.47
375.715	23.43
375.923	23.37
376.132	23.38
376.34	23.29
376.548	23.18
376.757	23.31
376.965	23.23
377.173	22.93
377.381	22.76
377.59	22.84
377.798	22.99
378.006	22.87
378.214	22.93
378.423	22.85
378.631	22.63
378.839	22.77
379.047	22.91
379.255	23.16
379.463	23.26
379.671	23.32
379.879	23.12
380.088	22.91
380.296	23.08
380.504	22.97
380.712	22.95
380.92	23
381.128	22.75
381.336	22.58
381.544	22.31
381.752	22.41
381.96	22.55
382.168	22.82
382.376	22.5
382.584	22.34
382.791	22.39
382.999	22.42
383.207	22.46
383.415	22.7
383.623	22.81
383.831	22.85
384.039	22.74
384.247	22.58
384.454	22.32
384.662	22.44
384.87	22.57
385.078	22.22
385.285	22.15
385.493	22.06
385.701	21.93
385.909	21.95
386.116	22.12
386.324	22.09
386.532	21.96
386.739	22
386.947	22.15
387.155	22.09
387.362	22.32
387.57	22.39
387.778	22.5
387.985	22.72
388.193	22.66
388.4	22.75
388.608	22.95
388.816	23.23
389.023	23.36
389.231	23.48
389.438	23.62
389.646	23.76
389.853	23.85
390.061	23.86
390.268	23.76
390.475	23.88
390.683	23.64
390.89	23.49
391.098	23.39
391.305	23.44
391.512	23.42
391.72	23.35
391.927	23.28
392.135	23.27
392.342	23.27
392.549	23.25
392.756	23.16
392.964	23.47
393.171	23.58
393.378	23.63
393.586	23.78
393.793	23.78
394	23.92
394.207	23.93
394.414	24.01
394.622	24.06
394.829	24.16
395.036	24.18
395.243	24.02
395.45	24.11
395.657	24.2
395.864	24.09
396.072	24.33
396.279	24.33
396.486	24.38
396.693	24.44
396.9	24.41
397.107	24.41
397.314	24.51
397.521	24.59
397.728	24.74
397.935	24.78
398.142	24.73
398.349	24.46
398.556	24.5
398.763	24.64
398.97	24.54
399.177	24.54
399.383	24.6
399.59	24.61
399.797	24.57
400.004	24.4
400.211	24.44
400.418	24.53
400.625	24.78
400.831	24.61
401.038	24.5
401.245	24.58
401.452	24.83
401.658	24.85
401.865	24.96
402.072	24.89
402.279	24.85
402.485	24.66
402.692	24.57
402.899	24.41
403.105	24.55
403.312	24.71
403.519	24.61
403.725	24.57
403.932	24.54
404.138	24.5
404.345	24.64
404.552	24.59
404.758	24.83
404.965	24.89
405.171	25.01
405.378	24.89
405.584	24.83
405.791	24.91
405.997	24.84
406.204	24.74
406.41	24.75
406.617	24.67
406.823	24.79
407.029	24.59
407.236	24.53
407.442	24.41
407.649	24.54
407.855	24.53
408.061	24.49
408.268	24.32
408.474	24.4
408.68	24.46
408.887	24.56
409.093	24.42
409.299	24.58
409.505	24.58
409.712	24.61
409.918	24.67
410.124	24.56
410.33	24.57
410.537	24.76
410.743	24.75
410.949	24.61
411.155	24.53
411.361	24.56
411.567	24.42
411.773	24.44
411.98	24.42
412.186	24.29
412.392	24.27
412.598	24.31
412.804	24.32
413.01	24.23
413.216	24.16
413.422	24.09
413.628	24.28
413.834	24.37
414.04	24.22
414.246	24.13
414.452	24.11
414.658	24.1
414.864	24.07
415.07	24.2
415.275	24.21
415.481	24.18
415.687	24.21
415.893	24.14
416.099	23.93
416.305	23.96
416.511	23.95
416.716	23.91
416.922	23.88
417.128	23.81
417.334	23.71
417.539	23.58
417.745	23.52
417.951	23.38
418.157	23.34
418.362	23.41
418.568	23.32
418.774	23.35
418.979	23.38
419.185	23.28
419.391	23.24
419.596	23.08
419.802	23.06
420.008	23.04
420.213	23.08
420.419	23.02
420.624	23.03
420.83	23.06
421.035	22.96
421.241	22.94
421.446	22.95
421.652	22.88
421.857	22.88
422.063	22.92
422.268	22.91
422.474	22.86
422.679	22.81
422.885	22.7
423.09	22.67
423.295	22.69
423.501	22.6
423.706	22.54
423.911	22.53
424.117	22.45
424.322	22.39
424.527	22.33
424.733	22.29
424.938	22.25
425.143	22.3
425.349	22.3
425.554	22.34
425.759	22.3
425.964	22.29
426.169	22.27
426.375	22.35
426.58	22.32
426.785	22.23
426.99	22.24
427.195	22.23
427.4	22.07
427.605	22.07
427.811	21.91
428.016	21.91
428.221	22.03
428.426	22.13
428.631	22.23
428.836	22.3
429.041	22.32
429.246	22.25
429.451	22.26
429.656	22.43
429.861	22.5
430.066	22.58
430.271	22.53
430.476	22.55
430.681	22.44
430.886	22.35
431.09	22.33
431.295	22.45
431.5	22.4
431.705	22.35
431.91	22.29
432.115	22.2
432.32	22.06
432.524	21.96
432.729	21.83
432.934	21.79
433.139	21.73
433.343	21.64
433.548	21.61
433.753	21.65
433.958	21.8
434.162	21.74
434.367	21.7
434.572	21.68
434.776	21.77
434.981	21.88
435.186	21.93
435.39	21.95
435.595	22.03
435.799	21.92
436.004	21.97
436.209	21.89
436.413	21.91
436.618	21.99
436.822	22.13
437.027	22.17
437.231	22.09
437.436	22.14
437.64	22.05
437.845	21.96
438.049	21.98
438.253	21.98
438.458	22.05
438.662	22.07
438.867	22
439.071	21.93
439.275	21.82
439.48	21.8
439.684	21.75
439.888	21.78
440.093	21.8
440.297	21.83
440.501	21.72
440.706	21.65
440.91	21.49
441.114	21.48
441.318	21.48
441.523	21.56
441.727	21.59
441.931	21.55
442.135	21.57
442.339	21.64
442.543	21.51
442.748	21.59
442.952	21.38
443.156	21.47
443.36	21.56
443.564	21.56
443.768	21.55
443.972	21.53
444.176	21.51
444.38	21.47
444.584	21.38
444.788	21.43
444.992	21.41
445.196	21.47
445.4	21.4
445.604	21.28
445.808	21.23
446.012	21.15
446.216	21.16
446.42	21.07
446.624	21
446.828	20.96
447.032	20.85
447.235	20.82
447.439	20.82
447.643	20.83
447.847	20.73
448.051	20.7
448.254	20.72
448.458	20.66
448.662	20.68
448.866	20.7
449.069	20.65
449.273	20.79
449.477	20.77
449.681	20.78
449.884	20.84
450.088	20.91
450.292	20.85
450.495	20.72
450.699	20.84
450.902	20.85
451.106	20.96
451.31	21.04
451.513	21.04
451.717	20.89
451.92	20.82
452.124	20.67
452.327	20.63
452.531	20.61
452.734	20.71
452.938	20.56
453.141	20.5
453.345	20.46
453.548	20.34
453.752	20.28
453.955	20.32
454.158	20.32
454.362	20.38
454.565	20.41
454.769	20.57
454.972	20.54
455.175	20.55
455.379	20.57
455.582	20.59
455.785	20.5
455.988	20.4
456.192	20.46
456.395	20.49
456.598	20.55
456.801	20.6
457.005	20.5
457.208	20.56
457.411	20.55
457.614	20.53
457.817	20.58
458.021	20.7
458.224	20.81
458.427	20.83
458.63	20.81
458.833	20.81
459.036	20.77
459.239	20.81
459.442	20.74
459.645	20.74
459.848	20.81
460.051	20.81
460.254	20.87
460.457	20.81
460.66	20.79
460.863	20.87
461.066	20.86
461.269	20.93
461.472	20.98
461.675	20.9
461.878	21
462.081	21.04
462.284	21
462.486	20.96
462.689	21.02
462.892	21.09
463.095	20.98
463.298	21.09
463.5	21.13
463.703	21.26
463.906	21.43
464.109	21.4
464.311	21.46
464.514	21.43
464.717	21.46
464.92	21.51
465.122	21.57
465.325	21.69
465.528	21.71
465.73	21.67
465.933	21.47
466.135	21.48
466.338	21.44
466.541	21.37
466.743	21.37
466.946	21.46
467.148	21.43
467.351	21.35
467.553	21.36
467.756	21.19
467.958	21.16
468.161	21.21
468.363	21.21
468.566	21.33
468.768	21.29
468.971	21.37
469.173	21.26
469.375	21.24
469.578	21.23
469.78	21.23
469.983	21.36
470.185	21.41
470.387	21.44
470.59	21.44
470.792	21.33
470.994	21.41
471.196	21.34
471.399	21.52
471.601	21.47
471.803	21.53
472.005	21.52
472.208	21.33
472.41	21.34
472.612	21.3
472.814	21.25
473.016	21.29
473.218	21.32
473.421	21.51
473.623	21.35
473.825	21.52
474.027	21.52
474.229	21.52
474.431	21.61
474.633	21.63
474.835	21.68
475.037	21.76
475.239	21.8
475.441	21.72
475.643	21.56
475.845	21.56
476.047	21.55
476.249	21.62
476.451	21.64
476.653	21.78
476.855	21.83
477.057	21.79
477.258	21.75
477.46	21.73
477.662	21.78
477.864	21.76
478.066	21.86
478.268	21.9
478.469	21.86
478.671	21.86
478.873	21.87
479.075	21.81
479.276	21.83
479.478	21.81
479.68	21.77
479.882	21.81
480.083	21.88
480.285	21.85
480.487	21.79
480.688	21.8
480.89	21.76
481.091	21.73
481.293	21.74
481.495	21.74
481.696	21.72
481.898	21.73
482.099	21.64
482.301	21.58
482.502	21.52
482.704	21.44
482.905	21.38
483.107	21.33
483.308	21.24
483.51	21.19
483.711	21.13
483.913	21.11
484.114	21.07
484.315	21.05
484.517	21.08
484.718	21.09
484.92	21.13
485.121	21.25
485.322	21.28
485.524	21.36
485.725	21.46
485.926	21.48
486.127	21.5
486.329	21.48
486.53	21.47
486.731	21.43
486.932	21.39
487.134	21.42
487.335	21.35
487.536	21.32
487.737	21.26
487.938	21.18
488.139	21.23
488.341	21.22
488.542	21.3
488.743	21.35
488.944	21.39
489.145	21.44
489.346	21.48
489.547	21.53
489.748	21.58
489.949	21.63
490.15	21.63
490.351	21.62
490.552	21.65
490.753	21.59
490.954	21.61
491.155	21.57
491.356	21.59
491.557	21.57
491.758	21.58
491.959	21.56
492.159	21.62
492.36	21.64
492.561	21.61
492.762	21.62
492.963	21.72
493.164	21.72
493.364	21.83
493.565	21.85
493.766	21.82
493.967	21.87
494.167	21.95
494.368	21.92
494.569	22.16
494.769	22.23
494.97	22.2
495.171	22.27
495.371	22.28
495.572	22.31
495.773	22.33
495.973	22.44
496.174	22.33
496.375	22.35
496.575	22.37
496.776	22.23
496.976	22.24
497.177	22.28
497.377	22.24
497.578	22.22
497.778	22.23
497.979	22.25
498.179	22.26
498.38	22.45
498.58	22.48
498.78	22.51
498.981	22.53
499.181	22.53
499.382	22.62
499.582	22.65
499.782	22.65
499.983	22.71
500.183	22.86
500.383	22.87
500.584	22.89
500.784	22.97
500.984	23.04
501.184	23.17
501.385	23.24
501.585	23.3
501.785	23.34
501.985	23.49
502.185	23.51
502.386	23.49
502.586	23.59
502.786	23.65
502.986	23.6
503.186	23.61
503.386	23.57
503.586	23.61
503.786	23.62
503.987	23.64
504.187	23.76
504.387	23.8
504.587	23.84
504.787	23.87
504.987	23.83
505.187	23.98
505.387	24.01
505.587	24.13
505.786	24.3
505.986	24.41
506.186	24.6
506.386	24.68
506.586	24.79
506.786	24.79
506.986	24.79
507.186	24.91
507.386	24.9
507.585	24.97
507.785	24.95
507.985	24.89
508.185	24.94
508.384	24.92
508.584	24.94
508.784	24.91
508.984	24.98
509.183	25.04
509.383	25.07
509.583	25.09
509.782	25.23
509.982	25.35
510.182	25.48
510.381	25.49
510.581	25.53
510.781	25.6
510.98	25.72
511.18	25.85
511.379	25.9
511.579	26
511.778	26.11
511.978	26.15
512.177	26.26
512.377	26.37
512.576	26.47
512.776	26.53
512.975	26.58
513.175	26.61
513.374	26.69
513.573	26.82
513.773	26.84
513.972	27.05
514.172	27.13
514.371	27.16
514.57	27.21
514.77	27.35
514.969	27.53
515.168	27.65
515.367	27.82
515.567	27.93
515.766	28.09
515.965	28.27
516.164	28.34
516.364	28.45
516.563	28.47
516.762	28.51
516.961	28.58
517.16	28.61
517.359	28.67
517.559	28.68
517.758	28.75
517.957	28.7
518.156	28.71
518.355	28.7
518.554	28.67
518.753	28.75
518.952	28.85
519.151	28.92
519.35	29.08
519.549	29.09
519.748	29.2
519.947	29.29
520.146	29.52
520.345	29.6
520.544	29.74
520.743	29.95
520.942	30.09
521.141	30.26
521.339	30.35
521.538	30.4
521.737	30.59
521.936	30.71
522.135	30.76
522.333	30.73
522.532	30.86
522.731	30.95
522.93	31.06
523.129	31.12
523.327	31.19
523.526	31.28
523.725	31.3
523.923	31.41
524.122	31.44
524.321	31.5
524.519	31.63
524.718	31.67
524.917	31.75
525.115	31.79
525.314	31.86
525.512	31.93
525.711	32.01
525.909	32.15
526.108	32.17
526.306	32.26
526.505	32.35
526.703	32.35
526.902	32.4
527.1	32.42
527.299	32.42
527.497	32.5
527.696	32.46
527.894	32.43
528.092	32.43
528.291	32.46
528.489	32.46
528.688	32.47
528.886	32.51
529.084	32.54
529.283	32.57
529.481	32.61
529.679	32.63
529.877	32.73
530.076	32.86
530.274	32.94
530.472	33.07
530.67	33.2
530.869	33.33
531.067	33.4
531.265	33.52
531.463	33.65
531.661	33.7
531.859	33.83
532.057	33.89
532.255	33.91
532.454	33.93
532.652	33.94
532.85	33.94
533.048	33.87
533.246	33.92
533.444	33.93
533.642	33.96
533.84	33.96
534.038	33.89
534.236	33.92
534.434	34.03
534.632	34.15
534.83	34.21
535.027	34.23
535.225	34.34
535.423	34.31
535.621	34.26
535.819	34.25
536.017	34.43
536.215	34.39
536.412	34.4
536.61	34.3
536.808	34.2
537.006	34.24
537.203	34.3
537.401	34.33
537.599	34.48
537.797	34.67
537.994	34.74
538.192	34.82
538.39	35.05
538.587	35.29
538.785	35.58
538.983	35.77
539.18	35.85
539.378	35.88
539.575	35.95
539.773	35.9
539.97	35.87
540.168	35.87
540.366	35.87
540.563	35.81
540.761	35.76
540.958	35.6
541.155	35.53
541.353	35.47
541.55	35.41
541.748	35.38
541.945	35.4
542.143	35.4
542.34	35.4
542.537	35.34
542.735	35.38
542.932	35.38
543.129	35.47
543.327	35.47
543.524	35.53
543.721	35.71
543.919	35.72
544.116	35.82
544.313	35.92
544.51	35.97
544.708	36.02
544.905	36.13
545.102	36.15
545.299	36.2
545.496	36.19
545.693	36.15
545.891	36.03
546.088	36.02
546.285	35.95
546.482	35.97
546.679	35.94
546.876	35.88
547.073	35.81
547.27	35.78
547.467	35.78
547.664	35.73
547.861	35.77
548.058	35.8
548.255	35.89
548.452	35.99
548.649	35.85
548.846	35.88
549.043	35.97
549.24	36.01
549.437	36.1
549.633	36.15
549.83	36.31
550.027	36.39
550.224	36.41
550.421	36.43
550.618	36.36
550.814	36.38
551.011	36.36
551.208	36.49
551.405	36.58
551.601	36.6
551.798	36.57
551.995	36.52
552.191	36.46
552.388	36.49
552.585	36.51
552.781	36.59
552.978	36.65
553.175	36.74
553.371	36.64
553.568	36.6
553.764	36.6
553.961	36.7
554.157	36.72
554.354	36.78
554.55	36.9
554.747	36.9
554.943	36.94
555.14	37.01
555.336	36.96
555.533	36.9
555.729	36.9
555.926	36.79
556.122	36.68
556.318	36.79
556.515	36.82
556.711	36.67
556.907	36.78
557.104	36.98
557.3	37.03
557.496	37.17
557.693	37.19
557.889	37.22
558.085	37.38
558.281	37.47
558.478	37.4
558.674	37.49
558.87	37.52
559.066	37.47
559.262	37.29
559.459	37.25
559.655	37.23
559.851	37.43
560.047	37.39
560.243	37.42
560.439	37.43
560.635	37.54
560.831	37.53
561.027	37.66
561.223	37.59
561.419	37.52
561.615	37.63
561.811	37.65
562.007	37.56
562.203	37.45
562.399	37.44
562.595	37.57
562.791	37.61
562.987	37.83
563.183	37.87
563.379	38.04
563.575	38.22
563.771	38.29
563.966	38.26
564.162	38.33
564.358	38.46
564.554	38.46
564.75	38.41
564.945	38.37
565.141	38.2
565.337	38.22
565.533	38.16
565.728	38.13
565.924	38.08
566.12	38.14
566.315	38.18
566.511	38.25
566.707	38.33
566.902	38.4
567.098	38.54
567.293	38.66
567.489	38.63
567.684	38.64
567.88	38.71
568.076	38.74
568.271	38.81
568.467	38.81
568.662	38.9
568.858	38.9
569.053	38.91
569.248	38.91
569.444	38.95
569.639	39.05
569.835	39.15
570.03	39.14
570.225	39.23
570.421	39.19
570.616	39.23
570.812	39.17
571.007	39.11
571.202	39.11
571.397	39.17
571.593	39.01
571.788	38.97
571.983	38.96
572.178	39.01
572.374	38.89
572.569	38.89
572.764	38.88
572.959	38.84
573.154	38.91
573.35	38.87
573.545	38.88
573.74	39.04
573.935	39.06
574.13	39.01
574.325	39.13
574.52	39.27
574.715	39.3
574.91	39.26
575.105	39.32
575.3	39.25
575.495	39.19
575.69	39.07
575.885	39.04
576.08	38.97
576.275	39.01
576.47	38.86
576.665	38.75
576.86	38.74
577.055	38.76
577.25	38.77
577.444	38.91
577.639	39.11
577.834	39.18
578.029	39.2
578.224	39.29
578.418	39.42
578.613	39.36
578.808	39.51
579.003	39.6
579.197	39.63
579.392	39.75
579.587	39.7
579.781	39.67
579.976	39.81
580.171	39.8
580.365	39.89
580.56	39.81
580.755	39.77
580.949	39.71
581.144	39.54
581.338	39.54
581.533	39.49
581.727	39.43
581.922	39.36
582.116	39.21
582.311	39.35
582.505	39.27
582.7	39.26
582.894	39.41
583.089	39.4
583.283	39.5
583.478	39.45
583.672	39.55
583.866	39.56
584.061	39.66
584.255	39.66
584.449	39.66
584.644	39.72
584.838	39.78
585.032	39.78
585.226	39.85
585.421	39.96
585.615	39.99
585.809	39.93
586.003	39.99
586.198	40.02
586.392	40.16
586.586	40.09
586.78	40.04
586.974	39.99
587.168	40.03
587.363	40.09
587.557	40.08
587.751	40.07
587.945	40.13
588.139	40.18
588.333	40.17
588.527	40
588.721	40.03
588.915	40.13
589.109	40.34
589.303	40.34
589.497	40.2
589.691	40.14
589.885	40.26
590.079	40.24
590.273	40.18
590.466	40.18
590.66	40.32
590.854	40.31
591.048	40.21
591.242	40.07
591.436	40.11
591.629	40.27
591.823	40.38
592.017	40.29
592.211	40.32
592.404	40.55
592.598	40.6
592.792	40.65
592.986	40.84
593.179	41.08
593.373	41.23
593.567	41.44
593.76	41.52
593.954	41.49
594.147	41.79
594.341	41.94
594.535	41.96
594.728	42.19
594.922	42.27
595.115	42.25
595.309	42.17
595.502	42.19
595.696	42.21
595.889	42.07
596.083	42.09
596.276	42.04
596.47	41.95
596.663	41.83
596.856	41.71
597.05	41.73
597.243	41.7
597.437	41.68
597.63	41.5
597.823	41.31
598.017	41.42
598.21	41.41
598.403	41.29
598.596	41.24
598.79	41.29
598.983	41.22
599.176	41.2
599.369	41.12
599.563	41.14
599.756	41.19
599.949	41.32
600.142	41.33
600.335	41.4
600.528	41.56
600.722	41.57
600.915	41.63
601.108	41.71
601.301	41.68
601.494	41.77
601.687	41.85
601.88	42
602.073	42.02
602.266	42.17
602.459	42.24
602.652	42.17
602.845	42.11
603.038	42.06
603.231	42.17
603.424	42.19
603.617	42.26
603.809	42.14
604.002	42.03
604.195	41.88
604.388	41.76
604.581	41.75
604.774	41.77
604.966	41.92
605.159	41.8
605.352	41.57
605.545	41.58
605.737	41.43
605.93	41.54
606.123	41.69
606.316	41.86
606.508	41.87
606.701	41.92
606.894	41.99
607.086	42.07
607.279	42.27
607.471	42.38
607.664	42.29
607.857	42.33
608.049	42.39
608.242	42.39
608.434	42.37
608.627	42.45
608.819	42.44
609.012	42.26
609.204	42.22
609.397	42.3
609.589	42.39
609.782	42.43
609.974	42.3
610.166	42.1
610.359	42.05
610.551	42.08
610.743	41.96
610.936	41.94
611.128	42.05
611.32	41.97
611.513	41.94
611.705	41.81
611.897	41.87
612.09	42
612.282	42.3
612.474	42.35
612.666	42.21
612.858	42.27
613.051	42.23
613.243	42.46
613.435	42.4
613.627	42.44
613.819	42.46
614.011	42.67
614.203	42.51
614.395	42.44
614.588	42.39
614.78	42.53
614.972	42.48
615.164	42.54
615.356	42.4
615.548	42.55
615.74	42.56
615.932	42.52
616.124	42.25
616.315	42.68
616.507	42.84
616.699	42.79
616.891	42.89
617.083	42.79
617.275	42.69
617.467	42.71
617.659	42.63
617.85	42.63
618.042	42.59
618.234	42.57
618.426	42.3
618.618	41.99
618.809	42.01
619.001	42.05
619.193	42.24
619.384	42.15
619.576	42.14
619.768	42.15
619.959	41.96
620.151	42.1
620.343	42.07
620.534	41.96
620.726	41.95
620.917	41.89
621.109	41.72
621.301	41.79
621.492	42.01
621.684	42.13
621.875	42.02
622.067	42.14
622.258	42.14
622.45	42.31
622.641	42.36
622.832	42.45
623.024	42.59
623.215	42.66
623.407	42.65
623.598	42.78
623.789	42.67
623.981	42.82
624.172	42.84
624.363	42.9
624.555	42.91
624.746	43.05
624.937	43.06
625.129	43.12
625.32	43.1
625.511	43.2
625.702	43.02
625.893	43.13
626.085	43.09
626.276	43.04
626.467	43.16
626.658	42.99
626.849	42.96
627.04	43.04
627.231	42.98
627.422	42.81
627.614	42.66
627.805	42.58
627.996	42.42
628.187	42.47
628.378	42.47
628.569	42.25
628.76	42.5
628.951	42.4
629.142	42.22
629.332	42.16
629.523	42.26
629.714	42.25
629.905	42.59
630.096	42.69
630.287	42.65
630.478	42.64
630.669	42.48
630.859	42.49
631.05	42.52
631.241	42.65
631.432	42.72
631.623	42.77
631.813	42.78
632.004	42.62
632.195	42.57
632.385	42.5
632.576	42.6
632.767	42.64
632.957	42.42
633.148	42.34
633.339	42.44
633.529	42.54
633.72	42.52
633.91	42.45
634.101	42.51
634.292	42.61
634.482	42.53
634.673	42.55
634.863	42.64
635.054	42.83
635.244	43.08
635.435	42.8
635.625	42.72
635.815	42.75
636.006	42.67
636.196	42.46
636.387	42.34
636.577	42.5
636.767	42.58
636.958	42.55
637.148	42.52
637.338	42.43
637.529	42.66
637.719	42.56
637.909	42.76
638.099	43.18
638.29	43.35
638.48	43.28
638.67	43.29
638.86	43.26
639.05	43.39
639.241	43.35
639.431	43.33
639.621	43.29
639.811	43.26
640.001	43.19
640.191	43.01
640.381	42.99
640.571	43.17
640.761	43.15
640.951	43.15
641.141	42.82
641.331	42.78
641.521	42.77
641.711	42.81
641.901	42.89
642.091	42.76
642.281	42.65
642.471	42.61
642.661	42.46
642.851	42.32
643.041	42.33
643.231	42.55
643.42	42.7
643.61	42.93
643.8	42.9
643.99	42.97
644.18	42.8
644.369	42.9
644.559	42.9
644.749	43.07
644.939	43.27
645.128	43.15
645.318	43.08
645.508	42.92
645.697	42.77
645.887	42.9
646.076	42.7
646.266	42.89
646.456	42.68
646.645	42.71
646.835	42.44
647.024	42.5
647.214	42.63
647.403	42.62
647.593	42.56
647.782	42.58
647.972	42.48
648.161	42.5
648.351	42.51
648.54	42.75
648.73	42.86
648.919	43.12
649.108	43.05
649.298	42.86
649.487	42.89
649.677	43.04
649.866	43.12
650.055	43.11
650.244	43.19
650.434	43.22
650.623	43.09
650.812	42.97
651.002	42.88
651.191	43.03
651.38	43.17
651.569	43.43
651.758	43.35
651.947	43.3
652.137	43.27
652.326	43.25
652.515	43.23
652.704	43.22
652.893	43.14
653.082	43.09
653.271	43.02
653.46	42.95
653.649	42.94
653.838	43.13
654.027	43.15
654.216	43.34
654.405	43.43
654.594	43.64
654.783	43.9
654.972	44.12
655.161	44.37
655.35	44.43
655.539	44.29
655.728	44.12
655.916	43.97
656.105	44.06
656.294	44.03
656.483	44.24
656.672	44.13
656.86	44.09
657.049	43.91
657.238	43.86
657.427	43.86
657.615	44
657.804	43.96
657.993	43.97
658.181	43.78
658.37	43.65
658.559	43.46
658.747	43.19
658.936	43.25
659.125	43.67
659.313	43.58
659.502	43.56
659.69	43.57
659.879	43.69
660.067	43.8
660.256	44.08
660.444	44.13
660.633	44.3
660.821	44.77
661.01	44.72
661.198	44.12
661.387	44.17
661.575	44
661.763	43.92
661.952	43.97
662.14	43.98
662.328	43.74
662.517	43.83
662.705	43.69
662.893	43.58
663.082	43.41
663.27	43.49
663.458	43.35
663.646	43.2
663.834	43.33
664.023	42.97
664.211	42.75
664.399	42.69
664.587	42.59
664.775	42.31
664.963	42.33
665.152	42.17
665.34	42.22
665.528	42.24
665.716	42.48
665.904	42.65
666.092	42.94
666.28	43
666.468	43.18
666.656	43.45
666.844	43.9
667.032	43.83
667.22	44.05
667.408	43.92
667.596	44.11
667.784	44.07
667.971	43.85
668.159	43.75
668.347	43.87
668.535	43.92
668.723	43.66
668.911	43.46
669.098	43.4
669.286	43.35
669.474	43.41
669.662	43.31
669.849	43.27
670.037	43.49
670.225	43.61
670.413	43.63
670.6	43.56
670.788	43.48
670.976	43.53
671.163	43.59
671.351	43.6
671.538	43.67
671.726	43.62
671.913	43.75
672.101	43.55
672.289	43.7
672.476	43.54
672.664	43.64
672.851	43.6
673.039	43.42
673.226	43.28
673.413	43.52
673.601	43.67
673.788	43.6
673.976	43.54
674.163	43.68
674.35	43.39
674.538	43.42
674.725	43.55
674.912	43.7
675.1	44.08
675.287	44.39
675.474	44.17
675.662	44.11
675.849	44.2
676.036	44.1
676.223	44.13
676.411	44.01
676.598	44
676.785	43.82
676.972	43.92
677.159	44.1
677.346	44.17
677.533	44.22
677.721	44.18
677.908	44.35
678.095	44.51
678.282	44.37
678.469	44.61
678.656	44.62
678.843	44.67
679.03	44.67
679.217	44.55
679.404	44.25
679.591	44.42
679.778	44.41
679.964	44.56
680.151	44.3
680.338	44.42
680.525	44.27
680.712	44.21
680.899	44.2
681.086	44.2
681.272	43.95
681.459	44.2
681.646	44.14
681.833	44.04
682.02	43.79
682.206	43.98
682.393	43.87
682.58	44.03
682.766	44.13
682.953	43.86
683.14	43.59
683.326	43.52
683.513	43.52
683.7	43.44
683.886	43.52
684.073	43.5
684.259	43.65
684.446	43.58
684.632	43.74
684.819	43.85
685.005	44.01
685.192	44.14
685.378	44.36
685.565	44.07
685.751	44.27
685.938	44.24
686.124	44.27
686.31	44.33
686.497	44.13
686.683	43.79
686.87	43.83
687.056	43.79
687.242	43.89
687.429	43.85
687.615	43.86
687.801	43.55
687.987	43.71
688.174	43.87
688.36	44.07
688.546	44.46
688.732	44.62
688.918	44.62
689.105	44.59
689.291	44.51
689.477	44.69
689.663	45.02
689.849	45.34
690.035	45.44
690.221	45.46
690.407	45.24
690.593	45.16
690.779	45.2
690.965	44.8
691.151	44.86
691.337	45.16
691.523	45.09
691.709	44.97
691.895	44.64
692.081	44.4
692.267	44.58
692.453	44.48
692.639	44.49
692.825	44.34
693.011	44.53
693.196	44.38
693.382	44.22
693.568	44.24
693.754	44.42
693.94	44.49
694.125	44.53
694.311	44.55
694.497	44.7
694.682	44.56
694.868	44.74
695.054	44.81
695.239	45.11
695.425	45.17
695.611	45.07
695.796	44.97
695.982	45.05
696.168	45.1
696.353	45.12
696.539	45.29
696.724	45.42
696.91	45.33
697.095	45.37
697.281	45.66
697.466	45.71
697.652	45.75
697.837	45.77
698.023	45.69
698.208	45.63
698.393	45.38
698.579	45.22
698.764	45.3
698.949	45.31
699.135	45.32
699.32	44.92
699.505	44.65
699.691	44.45
699.876	44.17
700.061	44.25
700.246	44.13
700.432	43.92
700.617	43.63
700.802	43.35
700.987	43.49
701.172	43.19
701.358	43.24
701.543	43.44
701.728	43.67
701.913	43.77
702.098	43.73
702.283	43.88
702.468	44.17
702.653	44.25
702.838	44.34
703.023	43.91
703.208	44.18
703.393	44.18
703.578	44.03
703.763	43.69
703.948	43.86
704.133	44.12
704.318	44.25
704.503	44.38
704.688	44.59
704.873	44.49
705.057	44.71
705.242	44.76
705.427	44.65
705.612	44.84
705.797	44.71
705.981	44.91
706.166	44.82
706.351	44.59
706.536	44.34
706.72	44.23
706.905	44.64
707.09	44.73
707.274	44.86
707.459	44.98
707.644	44.85
707.828	45.44
708.013	45.37
708.197	45.15
708.382	45.37
708.567	45.53
708.751	45.37
708.936	45.26
709.12	44.89
709.305	44.84
709.489	45.04
709.673	44.91
709.858	44.82
710.042	45.03
710.227	44.92
710.411	45.12
710.596	45.16
710.78	45.47
710.964	45.54
711.149	45.74
711.333	45.97
711.517	45.68
711.702	46.18
711.886	45.7
712.07	45.45
712.254	45.75
712.438	45.77
712.623	45.72
712.807	45.67
712.991	45.76
713.175	45.9
713.359	45.81
713.544	45.98
713.728	45.53
713.912	45.79
714.096	45.8
714.28	45.48
714.464	45.45
714.648	45.56
714.832	45.46
715.016	45.12
715.2	45.04
715.384	44.87
715.568	44.78
715.752	44.79
715.936	45.11
716.12	44.81
716.304	44.91
716.488	44.54
716.671	44.29
716.855	44.22
717.039	44.09
717.223	44.18
717.407	44.17
717.59	44.3
717.774	44.26
717.958	43.76
718.142	43.92
718.325	44.2
718.509	44.21
718.693	44.34
718.877	44.01
719.06	44.31
719.244	44.08
719.428	43.99
719.611	43.96
719.795	44.55
719.978	44.51
720.162	44.71
720.345	44.3
720.529	44.16
720.713	43.9
720.896	44.41
721.08	44.31
721.263	44.5
721.446	44.88
721.63	44.85
721.813	44.05
721.997	44.32
722.18	43.87
722.364	44.1
722.547	44.46
722.73	44.44
722.914	44.39
723.097	44.49
723.28	44.25
723.464	44.05
723.647	43.85
723.83	44.35
724.013	44.45
724.197	44.85
724.38	45.19
724.563	45.13
724.746	45.85
724.929	46.05
725.112	45.29
725.296	45.18
725.479	45.4
725.662	45.35
725.845	45.51
726.028	45.6
726.211	45.58
726.394	44.92
726.577	44.97
726.76	44.6
726.943	44.58
727.126	45.41
727.309	45.68
727.492	45.28
727.675	45.31
727.858	45.03
728.041	44.85
728.224	44.55
728.407	44.63
728.589	44.58
728.772	44.59
728.955	44.86
729.138	44.56
729.321	44.73
729.503	44.78
729.686	44.8
729.869	44.99
730.052	45.04
730.234	45.43
730.417	45.56
730.6	45.49
730.782	45.37
730.965	44.69
731.148	44.94
731.33	45.01
731.513	45.13
731.695	45.27
731.878	45.02
732.061	45.03
732.243	45
732.426	45.3
732.608	45.6
732.791	45.91
732.973	45.98
733.156	45.6
733.338	45.13
733.52	45.36
733.703	45.23
733.885	45.17
734.068	44.74
734.25	43.98
734.432	43.19
734.615	42.93
734.797	43.23
734.979	43.75
735.162	43.93
735.344	44.43
735.526	44.11
735.708	44.11
735.891	44.26
736.073	44.62
736.255	45.19
736.437	46
736.619	46.13
736.802	45.2
736.984	44.08
737.166	44.23
737.348	43.71
737.53	43.52
737.712	43.6
737.894	43.52
738.076	43.63
738.258	43.71
738.44	43.49
738.622	43.49
738.804	44.04
738.986	44.96
739.168	45.18
739.35	45.62
739.532	45.92
739.714	45.56
739.896	45.45
740.078	45.77
740.259	46.05
740.441	46.41
740.623	46.12
740.805	45.98
740.987	45.96
741.168	46.11
741.35	46.11
741.532	45.58
741.714	45.87
741.895	46.13
742.077	45.81
742.259	45.49
742.44	45.18
742.622	45.16
742.804	45.54
742.985	45.39
743.167	44.94
743.348	44.57
743.53	45.35
743.711	45.29
743.893	45.4
744.075	45.12
744.256	44.72
744.438	44.67
744.619	45.3
744.8	44.89
744.982	45.05
745.163	44.91
745.345	45.55
745.526	45.17
745.707	45
745.889	44.05
746.07	43.81
746.252	44.6
746.433	44.68
746.614	44.43
746.795	44.34
746.977	44.36
747.158	44.57
747.339	44.33
747.52	44.16
747.702	44.37
747.883	45.35
748.064	45.68
748.245	45.57
748.426	45.58
748.607	45
748.788	44.74
748.97	44.81
749.151	45.04
749.332	44.61
749.513	45.06
749.694	45.15
749.875	45.15
750.056	45.3
750.237	45.23
750.418	45.6
750.599	45.58
750.78	45.39
750.96	44.94
751.141	44.73
751.322	45.08
751.503	44.98
751.684	44.98
751.865	44.83
752.046	44.27
752.226	44.01
752.407	42.99
752.588	43.09
752.769	42.41
752.949	42.48
753.13	42.45
753.311	42.67
753.492	43.07
753.672	43.6
753.853	43.68
754.034	43.97
754.214	44.46
754.395	44.93
754.575	44.94
754.756	45.69
754.937	45.83
755.117	45.81
755.298	45.59
755.478	44.97
755.659	44.93
755.839	44.67
756.02	44.61
756.2	44.89
756.381	45.19
756.561	45.4
756.741	45.5
756.922	45.43
757.102	44.75
757.283	44.19
757.463	44.68
757.643	43.54
757.823	43.5
758.004	44.42
758.184	43.68
758.364	43.61
758.545	43.41
758.725	43.83
758.905	43.59
759.085	44.65
759.265	44.85
759.446	44.27
759.626	44.66
759.806	44.17
759.986	43.27
760.166	43.82
760.346	43.44
760.526	43.43
760.706	43.56
760.886	43.54
761.066	43.31
761.246	43.83
761.426	43.87
761.606	44.27
761.786	44.61
761.966	44.28
762.146	43.72
762.326	44.1
762.506	44.09
762.686	43.81
762.866	43.93
763.046	44.05
763.225	43.97
763.405	43.99
763.585	43.69
763.765	43.91
763.945	43.96
764.124	43.91
764.304	43.57
764.484	43.73
764.664	43.77
764.843	44.02
765.023	43.47
765.203	43.08
765.382	43.32
765.562	43.51
765.741	43.62
765.921	44.79
766.101	44.81
766.28	45.09
766.46	45.13
766.639	45.38
766.819	45.34
766.998	45.67
767.178	45.68
767.357	45.38
767.537	44.95
767.716	44.73
767.896	43.81
768.075	44.13
768.254	44.35
768.434	44.85
768.613	44.1
768.792	43.55
768.972	43.41
769.151	43.39
769.33	43.29
769.51	43.27
769.689	43.83
769.868	44.23
770.047	44.49
770.226	44.48
770.406	43.97
770.585	45.01
770.764	45.29
770.943	45.55
771.122	46.03
771.301	46.6
771.48	46.43
771.66	45.63
771.839	44.82
772.018	44.18
772.197	44.1
772.376	43.78
772.555	44.09
772.734	44.66
772.913	44.57
773.092	44.93
773.271	44.21
773.449	44.91
773.628	45.41
773.807	46.19
773.986	46.11
774.165	45.83
774.344	46.28
774.523	45.44
774.701	45.54
774.88	44.74
775.059	44.44
775.238	44.86
775.417	44.32
775.595	44
775.774	43.67
775.953	44.21
776.131	45.36
776.31	44.54
776.489	44.72
776.667	44.48
776.846	45.47
777.025	45.55
777.203	45.49
777.382	45.71
777.56	45.01
777.739	45.03
777.917	45.61
778.096	45.13
778.274	46.27
778.453	46.38
778.631	46.39
778.81	46.53
778.988	46.32
779.166	46.14
779.345	46.34
779.523	46.92
779.702	45.91
779.88	44.6
780.058	44.29
780.237	43.84
780.415	44.1
780.593	44.22
780.771	44.51
780.95	44.51
781.128	45.02
781.306	45.38
781.484	45.01
781.662	45.71
781.841	46.82
782.019	46.14
782.197	45.82
782.375	45.73
782.553	45.34
782.731	45.13
782.909	45.36
783.087	45.24
783.265	45
783.443	45.78
783.621	47.37
783.799	47.51
783.977	48.45
784.155	48.95
784.333	47.96
784.511	48.09
784.689	48.25
784.867	47.91
785.045	48.12
785.223	48.98
785.4	48.49
785.578	47.1
785.756	46.22
785.934	45.75
786.112	45.93
786.289	47.43
786.467	47.6
786.645	47.41
786.823	47.06
787	47.26
787.178	46.55
787.356	47.4
787.533	46.87
787.711	46.96
787.889	46.72
788.066	46.17
788.244	44.85
788.421	44.9
788.599	44.71
788.776	44.69
788.954	44.22
789.131	44.54
789.309	43.74
789.486	44.87
789.664	45.05
789.841	45.83
790.019	46.04
790.196	46.69
790.373	46.49
790.551	46.14
790.728	46.71
790.906	47.1
791.083	47.11
791.26	46.76
791.437	46.56
791.615	46.93
791.792	46.77
791.969	46.76
792.146	46.92
792.324	47.43
792.501	47.46
792.678	47.35
792.855	46.69
793.032	45.43
793.209	46.07
793.387	45.47
793.564	45.23
793.741	44.15
793.918	43.41
794.095	43.3
794.272	42.03
794.449	41.9
794.626	41.94
794.803	41.97
794.98	42.97
795.157	42.86
795.334	42.59
795.511	43.19
795.688	42.81
795.864	43.8
796.041	43.35
796.218	43.93
796.395	43.95
796.572	43.94
796.749	43.84
796.925	43.33
797.102	43.6
797.279	43.33
797.456	42.39
797.632	43.2
797.809	43.41
797.986	43.87
798.162	43.57
798.339	44.59
798.516	44.54
798.692	44.17
798.869	44.62
799.046	44.26
799.222	44.96
799.399	45.01
799.575	45.29
799.752	45.23
799.928	45.23
800.105	45.67
800.281	45.78
800.458	46.39
800.634	46.83
800.811	47.52
800.987	47.85
801.163	48.05
801.34	48.34
801.516	48.39
801.692	48.37
801.869	47.94
802.045	48.06
802.221	47
802.398	46.6
802.574	46.85
802.75	45.85
802.926	47.21
803.103	47.17
803.279	47.51
803.455	47.31
803.631	46.77
803.807	46.78
803.983	46.77
804.16	47.61
804.336	48.14
804.512	49.25
804.688	50.2
804.864	48.95
805.04	48.97
805.216	48.37
805.392	47.66
805.568	47.57
805.744	48.15
805.92	47.59
806.096	45.71
806.272	45.04
806.448	44.45
806.623	44.96
806.799	44.8
806.975	44.63
807.151	45.07
807.327	46.3
807.503	46.42
807.678	46.71
807.854	47.07
808.03	48.4
808.206	48.11
808.381	48.09
808.557	47.61
808.733	47.84
808.908	48.23
809.084	49.57
809.26	49.7
809.435	49.17
809.611	47.92
809.787	47.38
809.962	47.06
810.138	48.03
810.313	47.9
810.489	46.46
810.664	46.49
810.84	45.15
811.015	44.34
811.191	44.04
811.366	45.6
811.542	46.42
811.717	47
811.892	46.89
812.068	46.34
812.243	44.85
812.419	45.09
812.594	43.93
812.769	45.56
812.944	44.29
813.12	42.78
813.295	41.67
813.47	41.35
813.645	40.49
813.821	40.98
813.996	41.46
814.171	41.44
814.346	41.26
814.521	41.93
814.697	41.41
814.872	40.99
815.047	41.75
815.222	41.87
815.397	40.47
815.572	40.73
815.747	40.83
815.922	39.94
816.097	40.9
816.272	41.58
816.447	41.95
816.622	42.76
816.797	44.8
816.972	45.51
817.147	46.8
817.322	48.53
817.496	49.08
817.671	49.15
817.846	49.97
818.021	49.58
818.196	49.37
818.371	50.07
818.545	49.02
818.72	48.76
818.895	48.37
819.069	46.16
819.244	45.68
819.419	46.31
819.594	46.25
819.768	45.4
819.943	45
820.117	45.01
820.292	43.69
820.467	44.05
820.641	43.35
820.816	43.63
820.99	43.87
821.165	43.78
821.339	43.19
821.514	43.03
821.688	43.04
821.863	43.03
822.037	42.74
822.212	42.8
822.386	42.52
822.56	42.59
822.735	42.48
822.909	42.43
823.084	42.26
823.258	42.31
823.432	42.06
823.606	42.23
823.781	42.64
823.955	42.75
824.129	42.77
824.303	42.8
824.478	42.67
824.652	42.09
824.826	42.19
825	42.33
825.174	42.44
825.348	42.32
825.523	42.19
825.697	41.55
825.871	41.79
826.045	42.02
826.219	42.11
826.393	42.58
826.567	43.19
826.741	43.02
826.915	42.74
827.089	42.77
827.263	43.37
827.437	43.35
827.611	43.47
827.784	43.35
827.958	43.52
828.132	43.24
828.306	42.5
828.48	42.92
828.654	43.93
828.827	44.6
829.001	44.5
829.175	44.35
829.349	44.47
829.522	44.96
829.696	44.53
829.87	44.19
830.044	44.73
830.217	45.09
830.391	44.96
830.565	44
830.738	44.55
830.912	44.78
831.085	45.86
831.259	45.38
831.432	44.6
831.606	45.54
831.779	45.67
831.953	45.45
832.126	45.51
832.3	44.59
832.473	44.4
832.647	43.31
832.82	42.47
832.994	41.18
833.167	41.53
833.34	42.12
833.514	41.65
833.687	42
833.86	42.94
834.034	42.94
834.207	42.95
834.38	42.74
834.553	43
834.727	44.14
834.9	44.59
835.073	44.78
835.246	44.47
835.419	44.63
835.593	44.56
835.766	43.76
835.939	43.26
836.112	43.05
836.285	42.57
836.458	42.69
836.631	42.44
836.804	44.25
836.977	43.78
837.15	44.19
837.323	44.17
837.496	44.75
837.669	45.49
837.842	47.03
838.015	46.38
838.188	47.55
838.361	46.77
838.533	47.48
838.706	46.25
838.879	46.41
839.052	47.95
839.225	49.73
839.398	48.39
839.57	47.98
839.743	46.54
839.916	47.72
840.088	48.94
840.261	50.22
840.434	47.44
840.607	47.22
840.779	46.76
840.952	43.46
841.124	42
841.297	42.73
841.47	43.19
841.642	43.63
841.815	44.13
841.987	41.46
842.16	42.64
842.332	43.69
842.505	44.66
842.677	47.06
842.85	48.31
843.022	47.56
843.194	47.02
843.367	45.99
843.539	48.24
843.712	47.84
843.884	50.39
844.056	48.91
844.229	48.39
844.401	46.93
844.573	43.76
844.745	44.54
844.918	47.31
845.09	45.41
845.262	48.68
845.434	49.85
845.606	47.37
845.779	46.22
845.951	46.43
846.123	45.81
846.295	45.83
846.467	46.61
846.639	50.61
846.811	50.51
846.983	55.53
847.155	51.46
847.327	50.27
847.499	53.37
847.671	54.45
847.843	53.08
848.015	54.43
848.187	56.48
848.359	59.93
848.531	58.04
848.703	60
848.875	57.64
849.047	58.82
849.218	58.43
849.39	57.59
849.562	57.52
849.734	60.38
849.905	61.09
850.077	60.96
850.249	55.79
850.421	54.13
850.592	48.81
850.764	50.05
850.936	50.92
851.107	50.86
851.279	53.41
851.451	56.26
851.622	54.79
851.794	55.62
851.965	51.35
852.137	54.58
852.308	54.23
852.48	56.88
852.651	53.47
852.823	56.34
852.994	55.17
853.166	52.57
853.337	50.7
853.509	52.59
853.68	56.65
853.851	59.61
854.023	58.09
854.194	58.13
854.365	58.65
854.537	59.87
854.708	59.59
854.879	58.16
855.05	58.63
855.222	56.36
855.393	59.95
855.564	56.7
855.735	55.74
855.906	55.95
856.078	56.58
856.249	56.45
856.42	56.7
856.591	59.38
856.762	60.62
856.933	56.39
857.104	59.08
857.275	51.74
857.446	49.51
857.617	50.37
857.788	52.13
857.959	52.74
858.13	56.38
858.301	54.5
858.472	49.32
858.643	52.14
858.814	50.31
858.985	47.68
859.155	47.61
859.326	47.81
859.497	48.78
859.668	43.99
859.839	41.45
860.009	35.45
860.18	34.68
860.351	28.97
860.522	25.2
860.692	35.18
860.863	37.91
861.034	43.55
861.204	46.81
861.375	41.89
861.546	47.66
861.716	48.13
861.887	49.61
862.057	56.01
862.228	63.87
862.398	63.66
862.569	59.37
862.739	60.39
862.91	58.82
863.08	56.68
863.251	58.7
863.421	54.94
863.592	56.56
863.762	58.21
863.932	51.75
864.103	45.48
864.273	47.19
864.443	48.9
864.614	44.13
864.784	43.48
864.954	40.58
865.125	45.78
865.295	45.64
865.465	45.1
865.635	39.24
865.805	45.45
865.976	45.29
866.146	47.31
866.316	45.25
866.486	50.24
866.656	53.42
866.826	54.49
866.996	51.31
867.166	60.13
867.336	60.03
867.506	64.71
867.676	60.94
867.846	64.16
868.016	66.77
868.186	63.72
868.356	61.77
868.526	58.96
868.696	60.99
868.866	57.1
869.036	50.86
869.206	47.12
869.376	43.95
869.545	41.74
869.715	41.35
869.885	35.77
870.055	40.23
870.224	38.07
870.394	31.85
870.564	32.31
870.734	36.35
870.903	34.5
871.073	34.7
871.243	39.92
871.412	43.94
871.582	42.31
871.751	44.8
871.921	44.59
872.091	45.79
872.26	47.73
872.43	44.16
872.599	45.77
872.769	47.49
872.938	52.39
873.108	46.9
873.277	44.81
873.446	44.67
873.616	45.34
873.785	45.98
873.955	47.94
874.124	50.1
874.293	51.55
874.463	48.1
874.632	46.55
874.801	44.32
874.971	47.04
875.14	46.22
875.309	46.39
875.478	46.46
875.647	45.26
875.817	45.79
875.986	47.66
876.155	46.04
876.324	44.75
876.493	48.16
876.662	49.64
876.831	52.22
877	55.24
877.17	57.7
877.339	57.86
877.508	56.75
877.677	57.83
877.846	55.09
878.015	58.02
878.184	56.03
878.352	51.5
878.521	50.17
878.69	48.26
878.859	45.82
879.028	43.18
879.197	44.04
879.366	42.87
879.534	40.43
879.703	40.99
879.872	41.42
880.041	40.73
880.21	41.61
880.378	41.44
880.547	41.17
880.716	42.52
880.884	42.6
881.053	40.74
881.222	41.78
881.39	41.96
881.559	41.86
881.727	40.35
881.896	41.83
882.065	41.34
882.233	41.58
882.402	42.09
882.57	41.26
882.739	41.44
882.907	42.62
883.076	42.57
883.244	42.77
883.412	43.13
883.581	44.21
883.749	43.26
883.918	44.55
884.086	43.64
884.254	43.6
884.423	45.14
884.591	45.65
884.759	44.99
884.927	44.14
885.096	43.34
885.264	44.68
885.432	44.45
885.6	44.6
885.769	43.7
885.937	47.38
886.105	47.15
886.273	46.6
886.441	46.89
886.609	47.26
886.777	49.7
886.945	52.56
887.113	51.64
887.281	53.92
887.449	56.98
887.617	57.12
887.785	54.72
887.953	56.49
888.121	57
888.289	53.41
888.457	54.65
888.625	53.86
888.793	54.96
888.961	50.16
889.129	50.42
889.296	48.24
889.464	47.82
889.632	47.22
889.8	43.43
889.967	42.57
890.135	47.58
