Data from 2938460_Reflection_1.txt Node
Date: Wed Jun 17 14:03:44 EDT 2015
User: robert
Spectrometer: USB4E03002
Autoset integration time: false
Trigger mode: 4
Integration Time (sec): 1.000000E-1
Scans to average: 10
Electric dark correction enabled: true
Nonlinearity correction enabled: false
Boxcar width: 5
Stray light correction enabled: false
XAxis mode: Wavelengths
Stop averaging: false
Number of Pixels in Spectrum: 3648
>>>>>Begin Spectral Data<<<<<
177.575	-208.19
177.794	-297.57
178.014	-138.14
178.233	-346.53
178.452	372.29
178.672	195.03
178.891	-90.96
179.11	-286.07
179.33	3321.35
179.549	-11756.79
179.768	-1028.6
179.987	-326.1
180.207	-1250.25
180.426	-359.81
180.645	335.52
180.864	241.26
181.084	231.54
181.303	232.45
181.522	249.87
181.741	436.31
181.96	264.29
182.179	277.05
182.398	206.47
182.618	203.96
182.837	193.36
183.056	638.27
183.275	488.38
183.494	469.89
183.713	407.13
183.932	2982.39
184.151	1111.41
184.37	488.56
184.589	284.29
184.808	242.7
185.027	670.55
185.246	406.7
185.465	243.47
185.684	246.32
185.903	324.39
186.122	266.93
186.341	180.57
186.56	194.93
186.779	274.9
186.998	325.52
187.216	235.1
187.435	231.58
187.654	256.58
187.873	265.03
188.092	286.77
188.311	259.24
188.53	279.4
188.748	292.74
188.967	292.51
189.186	343.73
189.405	443.57
189.623	363.82
189.842	527.93
190.061	-3996.4
190.28	-276.94
190.498	-261.13
190.717	-1565.8
190.936	-600.16
191.154	-408.65
191.373	-327.74
191.592	-1986.51
191.81	351.32
192.029	-1006.59
192.248	1487.7
192.466	579.76
192.685	200.2
192.904	212.86
193.122	200.71
193.341	199.14
193.559	219.69
193.778	201.26
193.996	237.32
194.215	277.55
194.433	215.19
194.652	201.59
194.87	201.04
195.089	225.24
195.307	231.81
195.526	537.19
195.744	436.87
195.963	347.99
196.181	394.22
196.399	264.34
196.618	254.63
196.836	299.44
197.055	274.18
197.273	264.07
197.491	235.97
197.71	222.64
197.928	184.88
198.146	176.11
198.365	190.1
198.583	159.3
198.801	143.38
199.019	151.41
199.238	139.03
199.456	132.19
199.674	113.08
199.892	128.74
200.111	123.97
200.329	149.83
200.547	157.63
200.765	144.27
200.983	154.02
201.202	149.97
201.42	144.27
201.638	174.23
201.856	186.21
202.074	170.09
202.292	151.38
202.51	164.12
202.728	164.31
202.946	196.8
203.165	181.83
203.383	170
203.601	175.03
203.819	172.97
204.037	173.81
204.255	162.72
204.473	187.79
204.691	203.75
204.909	209.88
205.127	170.98
205.345	147.16
205.562	173.63
205.78	196.29
205.998	216.54
206.216	218.48
206.434	166.24
206.652	181.65
206.87	165.68
207.088	172.38
207.306	149.52
207.523	157.95
207.741	142.33
207.959	137.78
208.177	127.69
208.395	116.63
208.612	106.71
208.83	123.75
209.048	113.85
209.266	115.32
209.483	115.55
209.701	127.27
209.919	117.69
210.136	140.19
210.354	114.71
210.572	104.22
210.79	102.11
211.007	121.31
211.225	110.26
211.442	119.35
211.66	137.97
211.878	136.23
212.095	131.31
212.313	134.02
212.53	130.3
212.748	144.81
212.966	152.54
213.183	151.18
213.401	122.23
213.618	120.07
213.836	111.75
214.053	95.33
214.271	89.27
214.488	81.63
214.705	97.9
214.923	102.4
215.14	103.69
215.358	116.8
215.575	107.36
215.793	116.62
216.01	125.38
216.227	130.78
216.445	132.17
216.662	133.64
216.879	131.98
217.097	112.87
217.314	98.05
217.531	113.89
217.749	111.78
217.966	124.46
218.183	113.4
218.4	86.12
218.618	84.62
218.835	71.52
219.052	76.97
219.269	71.38
219.487	60.19
219.704	68.85
219.921	50.68
220.138	41.99
220.355	34.27
220.572	44.42
220.79	58.94
221.007	74.32
221.224	75.66
221.441	65.18
221.658	68.61
221.875	78.45
222.092	76.48
222.309	77.22
222.526	82.38
222.743	93.24
222.96	91.67
223.177	88.21
223.394	75.34
223.611	67.95
223.828	71.21
224.045	63.69
224.262	56.5
224.479	48.92
224.696	46.52
224.913	41.27
225.13	34.86
225.347	29.81
225.564	28.22
225.781	25.25
225.997	25.17
226.214	23.1
226.431	21.64
226.648	20.49
226.865	19.99
227.082	20.06
227.298	18.4
227.515	17.85
227.732	18.18
227.949	18.27
228.165	18.82
228.382	17.74
228.599	17.66
228.816	17.34
229.032	17.3
229.249	17.03
229.466	16.92
229.682	18.1
229.899	20.18
230.116	20.79
230.332	19.01
230.549	17.86
230.765	19.64
230.982	18.95
231.199	22.98
231.415	23.5
231.632	24.91
231.848	25.19
232.065	26.22
232.281	23.84
232.498	22.44
232.714	24.51
232.931	26.42
233.147	27.55
233.364	25.76
233.58	24.1
233.797	25.83
234.013	26.3
234.23	25.36
234.446	24.23
234.662	24.48
234.879	24.59
235.095	24.43
235.312	23.91
235.528	23.44
235.744	25.33
235.961	23.74
236.177	21.34
236.393	21.59
236.61	21.46
236.826	21.92
237.042	22.53
237.258	24.86
237.475	23.62
237.691	22.68
237.907	21
238.123	21.72
238.339	22.2
238.556	23.16
238.772	22.08
238.988	21.19
239.204	20.5
239.42	20.72
239.636	19.61
239.853	18.67
240.069	18.65
240.285	17.65
240.501	17.19
240.717	17
240.933	16.39
241.149	16.12
241.365	16.72
241.581	16.9
241.797	16.54
242.013	15.54
242.229	16.46
242.445	15.8
242.661	16.7
242.877	17.3
243.093	16.34
243.309	16.17
243.525	15.79
243.741	14.55
243.957	13.96
244.173	13.05
244.388	13.68
244.604	13.21
244.82	13.4
245.036	12.93
245.252	12.11
245.468	12.02
245.683	11.99
245.899	12.43
246.115	12.35
246.331	12.16
246.547	12.11
246.762	11.85
246.978	11.83
247.194	12.23
247.409	12.46
247.625	12.74
247.841	13.16
248.057	13.12
248.272	12.87
248.488	13.46
248.703	13.19
248.919	13.62
249.135	13.62
249.35	13.42
249.566	12.9
249.782	12.67
249.997	12.71
250.213	12.82
250.428	12.97
250.644	12.41
250.859	12.52
251.075	13.41
251.29	13.69
251.506	13.69
251.721	13.88
251.937	14.16
252.152	14.08
252.368	15.11
252.583	16.1
252.798	16.03
253.014	17.3
253.229	16.96
253.445	16.25
253.66	16.72
253.875	17.42
254.091	17.75
254.306	17.09
254.521	17.33
254.737	16.06
254.952	14.59
255.167	14.73
255.383	13.98
255.598	13.86
255.813	13.92
256.028	13.03
256.244	12.35
256.459	11.56
256.674	11.33
256.889	11.08
257.104	10.69
257.32	10.95
257.535	10.54
257.75	10.44
257.965	9.95
258.18	9.69
258.395	9.86
258.61	9.88
258.826	10.11
259.041	10.07
259.256	10.03
259.471	10.26
259.686	9.94
259.901	10.39
260.116	10.38
260.331	11.14
260.546	11.38
260.761	10.85
260.976	10.85
261.191	10.52
261.406	10.89
261.621	10.91
261.836	10.75
262.05	11.61
262.265	11.51
262.48	11.27
262.695	9.97
262.91	10.75
263.125	11.14
263.34	11.45
263.555	12.19
263.769	12.33
263.984	12.04
264.199	12.16
264.414	11.46
264.629	10.95
264.843	10.72
265.058	11.06
265.273	10.21
265.488	10.51
265.702	10.55
265.917	10.08
266.132	10.17
266.346	10.21
266.561	10.29
266.776	10.45
266.99	10.45
267.205	10.32
267.42	9.93
267.634	10.31
267.849	10.13
268.063	9.83
268.278	10.88
268.492	10.21
268.707	10.23
268.922	9.99
269.136	9.56
269.351	9.73
269.565	10.42
269.78	10.46
269.994	10.32
270.209	10.44
270.423	10.43
270.637	9.43
270.852	9.98
271.066	10.11
271.281	10.11
271.495	10.17
271.709	10.03
271.924	9.41
272.138	9.75
272.353	9.64
272.567	9.55
272.781	9.44
272.996	9.65
273.21	9.24
273.424	8.93
273.638	8.8
273.853	8.79
274.067	8.99
274.281	9.43
274.495	9.19
274.71	9.48
274.924	9.2
275.138	8.9
275.352	8.83
275.566	8.81
275.781	9.35
275.995	9.41
276.209	9.83
276.423	9.68
276.637	9.2
276.851	9.72
277.065	9.8
277.279	10.6
277.493	11.4
277.707	11.72
277.921	11.57
278.135	10.75
278.349	11.05
278.563	10.96
278.777	10.86
278.991	11.32
279.205	11.14
279.419	10.78
279.633	10.22
279.847	10.02
280.061	10.08
280.275	10.19
280.489	10.91
280.703	10.47
280.917	10.2
281.131	10.34
281.344	10.07
281.558	9.86
281.772	10.14
281.986	10.15
282.2	10.05
282.414	9.62
282.627	9.83
282.841	9.3
283.055	9.42
283.269	9.9
283.482	9.84
283.696	9.86
283.91	9.67
284.123	9.63
284.337	9.51
284.551	9.49
284.764	9.74
284.978	9.5
285.192	9.58
285.405	9.97
285.619	9.77
285.833	9.53
286.046	9.18
286.26	9.78
286.473	9.1
286.687	9.46
286.9	9.51
287.114	9.33
287.327	9.55
287.541	9.44
287.754	9.05
287.968	8.72
288.181	8.68
288.395	9.28
288.608	9.11
288.822	9.42
289.035	9.05
289.248	9.37
289.462	9.08
289.675	8.74
289.889	8.83
290.102	8.85
290.315	8.73
290.529	9.14
290.742	8.45
290.955	8.4
291.169	8.14
291.382	8.97
291.595	8.41
291.808	8.76
292.022	8.83
292.235	8.88
292.448	9.25
292.661	9.55
292.875	9.48
293.088	9.81
293.301	9.27
293.514	9.19
293.727	8.35
293.94	8.56
294.153	8.71
294.367	8.3
294.58	8.18
294.793	7.7
295.006	8.03
295.219	8.36
295.432	8.17
295.645	8.27
295.858	8.58
296.071	8.48
296.284	8.09
296.497	7.73
296.71	8.45
296.923	8.85
297.136	8.7
297.349	8.83
297.562	8.53
297.775	8.95
297.988	9.29
298.201	9.13
298.414	9.49
298.626	9.96
298.839	10.37
299.052	9.72
299.265	8.91
299.478	9.55
299.691	9.49
299.903	9.34
300.116	9.31
300.329	9.1
300.542	9.2
300.755	9.12
300.967	9.42
301.18	9.64
301.393	9.84
301.605	9.88
301.818	9.27
302.031	8.78
302.243	8.48
302.456	8.6
302.669	8.41
302.881	8.48
303.094	8.36
303.307	8.14
303.519	8.45
303.732	8.93
303.944	9.25
304.157	9.7
304.37	9.93
304.582	10.4
304.795	10.39
305.007	10.83
305.22	10.81
305.432	10.82
305.645	11
305.857	10.06
306.069	9.48
306.282	9.58
306.494	9.58
306.707	9.71
306.919	9.33
307.132	8.99
307.344	8.8
307.556	9.33
307.769	9.78
307.981	9.51
308.193	9.45
308.406	9.5
308.618	9.6
308.83	9.42
309.043	9.41
309.255	9.68
309.467	9.58
309.679	9.78
309.892	9.51
310.104	9.21
310.316	9.18
310.528	9.66
310.74	9.71
310.953	9.72
311.165	9.56
311.377	8.99
311.589	8.84
311.801	9.44
312.013	9.28
312.225	9.13
312.437	9.3
312.649	9.77
312.862	9.68
313.074	10.25
313.286	10.12
313.498	10.65
313.71	11.37
313.922	11.45
314.134	11.11
314.346	11.29
314.558	11.49
314.77	11.57
314.982	11.1
315.193	11.2
315.405	10.74
315.617	10.66
315.829	10.71
316.041	10.37
316.253	10.14
316.465	10.54
316.677	10.54
316.888	10.79
317.1	10.6
317.312	11.16
317.524	11
317.736	11.57
317.947	11.74
318.159	11.88
318.371	12.2
318.583	12.76
318.794	12.31
319.006	12.3
319.218	11.81
319.43	11.89
319.641	11.83
319.853	11.49
320.064	11.22
320.276	11.35
320.488	11.03
320.699	10.91
320.911	10.45
321.123	10.62
321.334	10.4
321.546	10.66
321.757	10.35
321.969	9.94
322.18	10.24
322.392	9.64
322.603	9.82
322.815	10.1
323.026	10.32
323.238	10.46
323.449	10.12
323.661	10.09
323.872	10.02
324.083	10.37
324.295	10.75
324.506	10.6
324.718	11.01
324.929	11.46
325.14	11.8
325.352	11.5
325.563	11.68
325.774	12.18
325.986	12.59
326.197	12.41
326.408	12.52
326.62	12.23
326.831	12.79
327.042	12.65
327.253	11.99
327.464	11.68
327.676	11.96
327.887	11.87
328.098	11.38
328.309	11.19
328.52	11.32
328.732	10.97
328.943	11.17
329.154	10.56
329.365	10.64
329.576	10.42
329.787	10.8
329.998	10.78
330.209	10.67
330.42	10.98
330.631	11.06
330.842	11.45
331.053	10.85
331.264	10.69
331.475	10.91
331.686	11.2
331.897	11
332.108	10.53
332.319	10.17
332.53	10.19
332.741	10.07
332.952	9.88
333.163	9.64
333.374	9.87
333.585	10
333.795	10.06
334.006	9.87
334.217	10.32
334.428	10.36
334.639	10.37
334.849	10.44
335.06	10.07
335.271	9.96
335.482	9.65
335.692	9.71
335.903	9.18
336.114	8.74
336.325	8.74
336.535	8.32
336.746	8.3
336.957	8.4
337.167	8.8
337.378	9.37
337.589	9.46
337.799	9.66
338.01	10.38
338.22	10.7
338.431	10.9
338.642	10.56
338.852	10.84
339.063	10.75
339.273	10.66
339.484	10.34
339.694	9.82
339.905	9.84
340.115	10.3
340.326	10.22
340.536	10.2
340.746	10.44
340.957	10.5
341.167	10.64
341.378	10.22
341.588	10.31
341.799	10.69
342.009	10.87
342.219	10.8
342.43	10.27
342.64	10.19
342.85	10.46
343.061	9.87
343.271	9.65
343.481	9.66
343.691	9.73
343.902	9.7
344.112	9.01
344.322	9.02
344.532	8.67
344.743	8.54
344.953	8.31
345.163	7.92
345.373	8.43
345.583	8.72
345.793	8.48
346.004	9.33
346.214	9.1
346.424	9.4
346.634	9.22
346.844	10
347.054	10.1
347.264	10.52
347.474	10.87
347.684	10.44
347.894	10.25
348.104	10.43
348.314	9.82
348.524	9.9
348.734	9.7
348.944	9.76
349.154	9.46
349.364	9.27
349.574	8.5
349.784	8.3
349.994	8.75
350.204	9.09
350.413	9.49
350.623	9.73
350.833	10.18
351.043	10.09
351.253	10.29
351.463	10.09
351.672	9.88
351.882	10.3
352.092	10.02
352.302	9.74
352.511	9.39
352.721	9.1
352.931	8.73
353.141	8.59
353.35	8.82
353.56	8.85
353.77	8.67
353.979	9.04
354.189	8.66
354.399	8.73
354.608	8.37
354.818	8.52
355.027	8.19
355.237	8.22
355.447	7.94
355.656	7.91
355.866	7.71
356.075	8.01
356.285	7.84
356.494	7.95
356.704	7.81
356.913	8.01
357.123	7.9
357.332	7.76
357.542	7.84
357.751	7.98
357.96	7.6
358.17	7.6
358.379	7.32
358.589	7.31
358.798	7.31
359.007	7.41
359.217	7.51
359.426	7.37
359.635	7.42
359.845	7.41
360.054	7.46
360.263	7.78
360.472	7.8
360.682	7.89
360.891	8
361.1	8.17
361.309	8.15
361.519	8.17
361.728	8.28
361.937	8.47
362.146	8.49
362.355	8.2
362.564	8.04
362.774	7.94
362.983	7.98
363.192	7.92
363.401	7.73
363.61	7.63
363.819	7.65
364.028	7.53
364.237	7.42
364.446	7.29
364.655	7.28
364.864	7.46
365.073	7.48
365.282	7.47
365.491	7.37
365.7	7.4
365.909	7.43
366.118	7.64
366.327	7.51
366.536	7.51
366.745	7.61
366.954	7.79
367.162	7.75
367.371	7.85
367.58	7.95
367.789	7.86
367.998	7.61
368.207	7.86
368.415	7.39
368.624	7.63
368.833	7.55
369.042	7.21
369.25	7.31
369.459	7.21
369.668	7.01
369.877	6.86
370.085	6.87
370.294	7
370.503	6.62
370.711	6.94
370.92	7.02
371.129	7.25
371.337	7.6
371.546	7.17
371.754	7.35
371.963	7.43
372.171	7.29
372.38	7.39
372.589	7.75
372.797	8.03
373.006	7.67
373.214	7.84
373.423	7.6
373.631	7.39
373.84	7.61
374.048	7.42
374.256	7.41
374.465	7.72
374.673	7.68
374.882	7.27
375.09	7.05
375.298	7.05
375.507	6.95
375.715	7.22
375.923	7.26
376.132	7.4
376.34	7.11
376.548	7.27
376.757	7.11
376.965	7.15
377.173	7.26
377.381	7.43
377.59	7.53
377.798	7.58
378.006	7.28
378.214	7.22
378.423	7.2
378.631	7.28
378.839	6.94
379.047	6.85
379.255	6.86
379.463	6.64
379.671	6.33
379.879	6.17
380.088	5.94
380.296	5.88
380.504	5.89
380.712	6.03
380.92	6.15
381.128	6.34
381.336	6.35
381.544	6.12
381.752	6.28
381.96	6.4
382.168	6.57
382.376	6.75
382.584	6.79
382.791	6.77
382.999	6.48
383.207	6.29
383.415	6.36
383.623	6.43
383.831	6.41
384.039	6.32
384.247	6.3
384.454	6.14
384.662	5.91
384.87	5.92
385.078	5.91
385.285	5.8
385.493	5.91
385.701	5.56
385.909	5.43
386.116	5.66
386.324	5.51
386.532	5.32
386.739	5.4
386.947	5.48
387.155	5.43
387.362	5.35
387.57	5.46
387.778	5.46
387.985	5.63
388.193	5.57
388.4	5.32
388.608	5.75
388.816	5.85
389.023	5.83
389.231	5.75
389.438	5.66
389.646	5.71
389.853	5.65
390.061	5.5
390.268	5.53
390.475	5.59
390.683	5.62
390.89	5.45
391.098	5.62
391.305	5.46
391.512	5.46
391.72	5.53
391.927	5.51
392.135	5.38
392.342	5.58
392.549	5.51
392.756	5.64
392.964	5.83
393.171	5.84
393.378	5.54
393.586	5.81
393.793	5.64
394	5.47
394.207	5.58
394.414	5.73
394.622	5.58
394.829	5.68
395.036	5.56
395.243	5.5
395.45	5.53
395.657	5.58
395.864	5.35
396.072	5.62
396.279	5.7
396.486	5.45
396.693	5.57
396.9	5.52
397.107	5.52
397.314	5.68
397.521	5.56
397.728	5.59
397.935	6.06
398.142	6.2
398.349	5.8
398.556	6.02
398.763	6.13
398.97	5.98
399.177	6.19
399.383	6.17
399.59	6.07
399.797	6.15
400.004	6.04
400.211	5.72
400.418	5.72
400.625	6.11
400.831	5.77
401.038	5.63
401.245	5.69
401.452	5.55
401.658	5.49
401.865	5.35
402.072	5.27
402.279	5.43
402.485	5.49
402.692	5.48
402.899	5.42
403.105	5.66
403.312	5.81
403.519	5.69
403.725	5.66
403.932	5.71
404.138	5.65
404.345	5.68
404.552	5.57
404.758	5.67
404.965	5.46
405.171	5.56
405.378	5.51
405.584	5.47
405.791	5.48
405.997	5.55
406.204	5.62
406.41	5.81
406.617	5.74
406.823	5.77
407.029	5.73
407.236	6.08
407.442	5.96
407.649	6.01
407.855	5.79
408.061	5.82
408.268	5.84
408.474	5.76
408.68	5.68
408.887	5.9
409.093	5.84
409.299	5.86
409.505	5.68
409.712	5.57
409.918	5.46
410.124	5.53
410.33	5.52
410.537	5.38
410.743	5.37
410.949	5.4
411.155	5.21
411.361	5.12
411.567	4.96
411.773	4.9
411.98	5.14
412.186	5.01
412.392	5.15
412.598	5.25
412.804	5.28
413.01	5.24
413.216	5.19
413.422	5.39
413.628	5.44
413.834	5.46
414.04	5.39
414.246	5.12
414.452	5.21
414.658	5.2
414.864	5.02
415.07	5.08
415.275	5.03
415.481	4.99
415.687	4.61
415.893	4.59
416.099	4.47
416.305	4.5
416.511	4.68
416.716	4.6
416.922	4.62
417.128	4.71
417.334	4.69
417.539	4.7
417.745	4.71
417.951	4.82
418.157	4.78
418.362	4.76
418.568	4.71
418.774	4.54
418.979	4.56
419.185	4.53
419.391	4.4
419.596	4.39
419.802	4.3
420.008	4.3
420.213	4.32
420.419	4.34
420.624	4.38
420.83	4.36
421.035	4.33
421.241	4.39
421.446	4.41
421.652	4.48
421.857	4.43
422.063	4.48
422.268	4.47
422.474	4.54
422.679	4.5
422.885	4.52
423.09	4.54
423.295	4.57
423.501	4.51
423.706	4.46
423.911	4.52
424.117	4.59
424.322	4.58
424.527	4.61
424.733	4.6
424.938	4.69
425.143	4.68
425.349	4.77
425.554	4.84
425.759	4.92
425.964	4.85
426.169	4.81
426.375	4.77
426.58	4.89
426.785	4.9
426.99	4.85
427.195	4.8
427.4	4.73
427.605	4.68
427.811	4.66
428.016	4.62
428.221	4.78
428.426	4.73
428.631	4.69
428.836	4.65
429.041	4.58
429.246	4.53
429.451	4.45
429.656	4.54
429.861	4.59
430.066	4.69
430.271	4.63
430.476	4.59
430.681	4.71
430.886	4.68
431.09	4.67
431.295	4.65
431.5	4.64
431.705	4.77
431.91	4.77
432.115	4.71
432.32	4.61
432.524	4.58
432.729	4.65
432.934	4.65
433.139	4.68
433.343	4.74
433.548	4.73
433.753	4.76
433.958	4.68
434.162	4.61
434.367	4.58
434.572	4.66
434.776	4.61
434.981	4.55
435.186	4.47
435.39	4.45
435.595	4.45
435.799	4.47
436.004	4.51
436.209	4.47
436.413	4.49
436.618	4.36
436.822	4.35
437.027	4.51
437.231	4.44
437.436	4.42
437.64	4.46
437.845	4.35
438.049	4.47
438.253	4.49
438.458	4.48
438.662	4.48
438.867	4.61
439.071	4.73
439.275	4.68
439.48	4.66
439.684	4.71
439.888	4.69
440.093	4.75
440.297	4.67
440.501	4.61
440.706	4.72
440.91	4.78
441.114	4.82
441.318	4.66
441.523	4.66
441.727	4.73
441.931	4.88
442.135	4.87
442.339	4.77
442.543	4.79
442.748	4.78
442.952	4.71
443.156	4.63
443.36	4.57
443.564	4.56
443.768	4.52
443.972	4.46
444.176	4.36
444.38	4.33
444.584	4.31
444.788	4.25
444.992	4.2
445.196	4.2
445.4	4.28
445.604	4.23
445.808	4.26
446.012	4.27
446.216	4.29
446.42	4.23
446.624	4.3
446.828	4.29
447.032	4.32
447.235	4.36
447.439	4.37
447.643	4.31
447.847	4.42
448.051	4.46
448.254	4.49
448.458	4.58
448.662	4.66
448.866	4.6
449.069	4.82
449.273	4.76
449.477	4.75
449.681	4.8
449.884	4.81
450.088	4.85
450.292	4.87
450.495	4.77
450.699	4.73
450.902	4.78
451.106	4.76
451.31	4.58
451.513	4.67
451.717	4.65
451.92	4.55
452.124	4.47
452.327	4.39
452.531	4.42
452.734	4.48
452.938	4.41
453.141	4.34
453.345	4.35
453.548	4.36
453.752	4.4
453.955	4.54
454.158	4.49
454.362	4.54
454.565	4.68
454.769	4.68
454.972	4.79
455.175	4.86
455.379	4.85
455.582	4.92
455.785	4.97
455.988	4.9
456.192	4.78
456.395	4.82
456.598	4.85
456.801	4.73
457.005	4.6
457.208	4.54
457.411	4.49
457.614	4.4
457.817	4.32
458.021	4.28
458.224	4.36
458.427	4.31
458.63	4.36
458.833	4.36
459.036	4.38
459.239	4.39
459.442	4.35
459.645	4.34
459.848	4.38
460.051	4.33
460.254	4.37
460.457	4.31
460.66	4.39
460.863	4.37
461.066	4.39
461.269	4.34
461.472	4.43
461.675	4.36
461.878	4.35
462.081	4.56
462.284	4.69
462.486	4.69
462.689	4.67
462.892	4.7
463.095	4.72
463.298	4.71
463.5	4.72
463.703	4.54
463.906	4.69
464.109	4.7
464.311	4.55
464.514	4.51
464.717	4.66
464.92	4.71
465.122	4.69
465.325	4.66
465.528	4.68
465.73	4.7
465.933	4.71
466.135	4.7
466.338	4.62
466.541	4.6
466.743	4.55
466.946	4.44
467.148	4.45
467.351	4.43
467.553	4.36
467.756	4.38
467.958	4.41
468.161	4.53
468.363	4.5
468.566	4.5
468.768	4.53
468.971	4.57
469.173	4.6
469.375	4.5
469.578	4.36
469.78	4.42
469.983	4.41
470.185	4.44
470.387	4.49
470.59	4.58
470.792	4.58
470.994	4.61
471.196	4.58
471.399	4.53
471.601	4.58
471.803	4.69
472.005	4.79
472.208	4.71
472.41	4.59
472.612	4.52
472.814	4.43
473.016	4.55
473.218	4.54
473.421	4.56
473.623	4.55
473.825	4.49
474.027	4.49
474.229	4.44
474.431	4.46
474.633	4.46
474.835	4.44
475.037	4.46
475.239	4.36
475.441	4.32
475.643	4.37
475.845	4.32
476.047	4.38
476.249	4.44
476.451	4.29
476.653	4.28
476.855	4.29
477.057	4.34
477.258	4.31
477.46	4.32
477.662	4.35
477.864	4.3
478.066	4.28
478.268	4.27
478.469	4.33
478.671	4.41
478.873	4.5
479.075	4.47
479.276	4.46
479.478	4.43
479.68	4.53
479.882	4.49
480.083	4.49
480.285	4.52
480.487	4.47
480.688	4.35
480.89	4.38
481.091	4.31
481.293	4.32
481.495	4.27
481.696	4.25
481.898	4.2
482.099	4.17
482.301	4.15
482.502	4.13
482.704	4.11
482.905	4.12
483.107	4.07
483.308	4.07
483.51	4.03
483.711	4.04
483.913	4.03
484.114	4.02
484.315	4.01
484.517	4
484.718	4.01
484.92	4.01
485.121	3.99
485.322	3.99
485.524	3.98
485.725	4.03
485.926	3.97
486.127	4.01
486.329	4.03
486.53	4.03
486.731	4.06
486.932	4.07
487.134	4.1
487.335	4.13
487.536	4.19
487.737	4.21
487.938	4.21
488.139	4.25
488.341	4.24
488.542	4.23
488.743	4.24
488.944	4.26
489.145	4.28
489.346	4.28
489.547	4.29
489.748	4.24
489.949	4.23
490.15	4.24
490.351	4.26
490.552	4.28
490.753	4.27
490.954	4.3
491.155	4.27
491.356	4.23
491.557	4.25
491.758	4.27
491.959	4.29
492.159	4.34
492.36	4.32
492.561	4.32
492.762	4.26
492.963	4.31
493.164	4.32
493.364	4.37
493.565	4.35
493.766	4.35
493.967	4.29
494.167	4.29
494.368	4.15
494.569	4.19
494.769	4.18
494.97	4.27
495.171	4.27
495.371	4.32
495.572	4.34
495.773	4.37
495.973	4.39
496.174	4.46
496.375	4.55
496.575	4.68
496.776	4.67
496.976	4.72
497.177	4.73
497.377	4.73
497.578	4.65
497.778	4.66
497.979	4.68
498.179	4.64
498.38	4.53
498.58	4.49
498.78	4.46
498.981	4.48
499.181	4.51
499.382	4.57
499.582	4.56
499.782	4.64
499.983	4.64
500.183	4.69
500.383	4.72
500.584	4.83
500.784	4.78
500.984	4.7
501.184	4.67
501.385	4.6
501.585	4.53
501.785	4.54
501.985	4.44
502.185	4.43
502.386	4.44
502.586	4.42
502.786	4.46
502.986	4.51
503.186	4.59
503.386	4.66
503.586	4.71
503.786	4.7
503.987	4.75
504.187	4.8
504.387	4.84
504.587	4.84
504.787	4.79
504.987	4.78
505.187	4.73
505.387	4.71
505.587	4.74
505.786	4.72
505.986	4.87
506.186	4.85
506.386	4.88
506.586	4.92
506.786	4.9
506.986	5.02
507.186	5.05
507.386	5.09
507.585	5.1
507.785	5.11
507.985	5.08
508.185	4.97
508.384	5.01
508.584	5.06
508.784	5.06
508.984	5.16
509.183	5.16
509.383	5.15
509.583	5.29
509.782	5.39
509.982	5.38
510.182	5.47
510.381	5.5
510.581	5.48
510.781	5.47
510.98	5.55
511.18	5.49
511.379	5.48
511.579	5.49
511.778	5.38
511.978	5.19
512.177	5.22
512.377	5.21
512.576	5.21
512.776	5.21
512.975	5.26
513.175	5.13
513.374	5.14
513.573	5.15
513.773	5.14
513.972	5.14
514.172	5.32
514.371	5.4
514.57	5.37
514.77	5.39
514.969	5.44
515.168	5.38
515.367	5.4
515.567	5.4
515.766	5.44
515.965	5.42
516.164	5.44
516.364	5.43
516.563	5.34
516.762	5.37
516.961	5.38
517.16	5.34
517.359	5.32
517.559	5.39
517.758	5.37
517.957	5.39
518.156	5.46
518.355	5.5
518.554	5.52
518.753	5.56
518.952	5.53
519.151	5.55
519.35	5.65
519.549	5.74
519.748	5.74
519.947	5.79
520.146	5.79
520.345	5.78
520.544	5.71
520.743	5.73
520.942	5.71
521.141	5.77
521.339	5.83
521.538	5.8
521.737	5.74
521.936	5.76
522.135	5.79
522.333	5.76
522.532	5.77
522.731	5.85
522.93	5.86
523.129	5.89
523.327	5.84
523.526	5.81
523.725	5.89
523.923	5.89
524.122	5.92
524.321	5.92
524.519	5.96
524.718	5.98
524.917	5.98
525.115	5.98
525.314	5.95
525.512	5.98
525.711	6
525.909	5.97
526.108	5.97
526.306	5.96
526.505	5.92
526.703	5.91
526.902	5.9
527.1	5.88
527.299	5.9
527.497	5.9
527.696	5.91
527.894	5.91
528.092	5.93
528.291	5.96
528.489	6.01
528.688	6.07
528.886	6.1
529.084	6.14
529.283	6.19
529.481	6.19
529.679	6.31
529.877	6.37
530.076	6.4
530.274	6.45
530.472	6.48
530.67	6.46
530.869	6.44
531.067	6.42
531.265	6.41
531.463	6.42
531.661	6.46
531.859	6.41
532.057	6.4
532.255	6.42
532.454	6.39
532.652	6.42
532.85	6.46
533.048	6.48
533.246	6.52
533.444	6.55
533.642	6.6
533.84	6.65
534.038	6.69
534.236	6.7
534.434	6.75
534.632	6.76
534.83	6.77
535.027	6.74
535.225	6.74
535.423	6.8
535.621	6.84
535.819	6.84
536.017	6.76
536.215	6.76
536.412	6.85
536.61	6.89
536.808	6.93
537.006	6.89
537.203	6.99
537.401	7.11
537.599	7.15
537.797	7.24
537.994	7.21
538.192	7.34
538.39	7.4
538.587	7.4
538.785	7.36
538.983	7.34
539.18	7.38
539.378	7.33
539.575	7.33
539.773	7.38
539.97	7.33
540.168	7.35
540.366	7.37
540.563	7.34
540.761	7.34
540.958	7.39
541.155	7.43
541.353	7.44
541.55	7.45
541.748	7.45
541.945	7.41
542.143	7.43
542.34	7.46
542.537	7.49
542.735	7.52
542.932	7.56
543.129	7.57
543.327	7.66
543.524	7.75
543.721	7.8
543.919	7.83
544.116	7.85
544.313	7.92
544.51	7.96
544.708	7.93
544.905	7.98
545.102	7.99
545.299	8.08
545.496	8.06
545.693	8.04
545.891	8.13
546.088	8.19
546.285	8.25
546.482	8.27
546.679	8.35
546.876	8.47
547.073	8.58
547.27	8.62
547.467	8.65
547.664	8.81
547.861	8.99
548.058	9.01
548.255	9.04
548.452	9.11
548.649	9.24
548.846	9.26
549.043	9.24
549.24	9.17
549.437	9.21
549.633	9.37
549.83	9.41
550.027	9.3
550.224	9.36
550.421	9.41
550.618	9.43
550.814	9.49
551.011	9.5
551.208	9.6
551.405	9.78
551.601	9.86
551.798	9.85
551.995	9.69
552.191	9.83
552.388	9.74
552.585	9.87
552.781	9.99
552.978	9.99
553.175	10.11
553.371	10.13
553.568	10.13
553.764	10.18
553.961	10.11
554.157	10.32
554.354	10.35
554.55	10.55
554.747	10.55
554.943	10.5
555.14	10.46
555.336	10.37
555.533	10.5
555.729	10.52
555.926	10.56
556.122	10.62
556.318	10.71
556.515	10.76
556.711	10.79
556.907	10.81
557.104	10.86
557.3	11.05
557.496	11.08
557.693	11.07
557.889	11.2
558.085	11.21
558.281	11.34
558.478	11.33
558.674	11.41
558.87	11.43
559.066	11.65
559.262	11.73
559.459	11.66
559.655	11.86
559.851	11.91
560.047	11.98
560.243	12.07
560.439	12.18
560.635	12.26
560.831	12.29
561.027	12.4
561.223	12.33
561.419	12.37
561.615	12.46
561.811	12.65
562.007	12.78
562.203	12.79
562.399	12.82
562.595	12.71
562.791	12.93
562.987	13.03
563.183	13.24
563.379	13.38
563.575	13.52
563.771	13.61
563.966	13.57
564.162	13.69
564.358	13.74
564.554	13.75
564.75	13.93
564.945	13.9
565.141	13.82
565.337	13.77
565.533	13.84
565.728	13.82
565.924	13.84
566.12	13.88
566.315	13.95
566.511	13.97
566.707	14.11
566.902	14.15
567.098	14.25
567.293	14.54
567.489	14.56
567.684	14.64
567.88	14.74
568.076	14.89
568.271	14.96
568.467	14.94
568.662	15.08
568.858	15.19
569.053	15.26
569.248	15.27
569.444	15.12
569.639	15.28
569.835	15.41
570.03	15.5
570.225	15.41
570.421	15.46
570.616	15.56
570.812	15.61
571.007	15.6
571.202	15.74
571.397	15.79
571.593	15.95
571.788	15.87
571.983	15.8
572.178	15.92
572.374	16.18
572.569	16.25
572.764	16.33
572.959	16.36
573.154	16.49
573.35	16.48
573.545	16.62
573.74	16.65
573.935	16.8
574.13	16.9
574.325	16.89
574.52	17.03
574.715	17.06
574.91	17.08
575.105	17.24
575.3	17.24
575.495	17.4
575.69	17.32
575.885	17.42
576.08	17.57
576.275	17.77
576.47	17.86
576.665	17.88
576.86	18.04
577.055	18.2
577.25	18.33
577.444	18.56
577.639	18.59
577.834	18.76
578.029	18.87
578.224	18.85
578.418	18.88
578.613	19.02
578.808	19.06
579.003	19.08
579.197	19.02
579.392	18.95
579.587	18.93
579.781	18.9
579.976	19.01
580.171	19.02
580.365	19.14
580.56	19.16
580.755	19.2
580.949	19.29
581.144	19.41
581.338	19.29
581.533	19.45
581.727	19.5
581.922	19.56
582.116	19.56
582.311	19.58
582.505	19.61
582.7	19.57
582.894	19.67
583.089	19.63
583.283	19.7
583.478	19.98
583.672	19.88
583.866	19.98
584.061	20.1
584.255	20.23
584.449	20.33
584.644	20.38
584.838	20.58
585.032	20.55
585.226	20.54
585.421	20.53
585.615	20.55
585.809	20.64
586.003	20.72
586.198	20.58
586.392	20.62
586.586	20.7
586.78	20.73
586.974	20.78
587.168	20.87
587.363	20.85
587.557	20.82
587.751	21
587.945	21.06
588.139	21.11
588.333	21.41
588.527	21.39
588.721	21.39
588.915	21.38
589.109	21.32
589.303	21.34
589.497	21.45
589.691	21.43
589.885	21.4
590.079	21.36
590.273	21.3
590.466	21.19
590.66	21.29
590.854	21.35
591.048	21.38
591.242	21.42
591.436	21.47
591.629	21.56
591.823	21.77
592.017	21.75
592.211	21.92
592.404	21.95
592.598	22.04
592.792	22.04
592.986	22.1
593.179	22.11
593.373	22.07
593.567	22.06
593.76	22.03
593.954	22.04
594.147	22.25
594.341	22.28
594.535	22.44
594.728	22.38
594.922	22.36
595.115	22.27
595.309	22.34
595.502	22.5
595.696	22.54
595.889	22.62
596.083	22.7
596.276	22.59
596.47	22.58
596.663	22.36
596.856	22.54
597.05	22.58
597.243	22.64
597.437	22.57
597.63	22.47
597.823	22.38
598.017	22.4
598.21	22.25
598.403	22.17
598.596	22.27
598.79	22.63
598.983	22.57
599.176	22.54
599.369	22.6
599.563	22.71
599.756	22.73
599.949	22.87
600.142	22.95
600.335	23.13
600.528	23.22
600.722	23.23
600.915	23.18
601.108	23.21
601.301	23.31
601.494	23.39
601.687	23.61
601.88	23.65
602.073	23.57
602.266	23.48
602.459	23.41
602.652	23.43
602.845	23.33
603.038	23.15
603.231	23.22
603.424	23.24
603.617	23.24
603.809	23.11
604.002	23.08
604.195	23.17
604.388	23.23
604.581	23.38
604.774	23.49
604.966	23.57
605.159	23.62
605.352	23.6
605.545	23.64
605.737	23.64
605.93	23.74
606.123	23.92
606.316	24.02
606.508	24.03
606.701	24.01
606.894	23.92
607.086	24.06
607.279	24.3
607.471	24.1
607.664	24.03
607.857	24.2
608.049	24.22
608.242	24.15
608.434	23.95
608.627	23.94
608.819	23.82
609.012	23.79
609.204	23.75
609.397	23.68
609.589	23.87
609.782	23.86
609.974	23.73
610.166	23.72
610.359	23.84
610.551	24.15
610.743	24.18
610.936	24.3
611.128	24.37
611.32	24.31
611.513	24.32
611.705	24.28
611.897	24.39
612.09	24.49
612.282	24.57
612.474	24.59
612.666	24.47
612.858	24.61
613.051	24.7
613.243	24.82
613.435	24.7
613.627	24.52
613.819	24.56
614.011	24.85
614.203	24.79
614.395	24.8
614.588	24.61
614.78	24.67
614.972	24.71
615.164	24.67
615.356	24.58
615.548	24.67
615.74	24.92
615.932	25.03
616.124	24.53
616.315	24.83
616.507	24.77
616.699	24.93
616.891	24.96
617.083	24.87
617.275	24.91
617.467	24.89
617.659	25.06
617.85	25.03
618.042	24.98
618.234	25.11
618.426	24.73
618.618	24.7
618.809	24.65
619.001	24.58
619.193	24.73
619.384	24.69
619.576	24.7
619.768	24.57
619.959	24.58
620.151	24.67
620.343	24.87
620.534	24.92
620.726	24.79
620.917	24.89
621.109	24.85
621.301	24.68
621.492	24.87
621.684	24.95
621.875	24.95
622.067	25
622.258	24.79
622.45	24.66
622.641	24.75
622.832	24.98
623.024	24.86
623.215	24.82
623.407	24.89
623.598	24.72
623.789	24.78
623.981	24.65
624.172	24.71
624.363	24.76
624.555	25.05
624.746	25.04
624.937	25
625.129	25.18
625.32	25.27
625.511	25.38
625.702	25.29
625.893	25.13
626.085	25.29
626.276	25.22
626.467	25.28
626.658	25.02
626.849	24.96
627.04	24.98
627.231	24.96
627.422	25.06
627.614	24.95
627.805	25.13
627.996	25.33
628.187	25.41
628.378	25.36
628.569	25.38
628.76	25.56
628.951	25.74
629.142	25.65
629.332	25.66
629.523	25.49
629.714	25.51
629.905	25.38
630.096	25.33
630.287	25.26
630.478	25.3
630.669	25.31
630.859	25.39
631.05	25.37
631.241	25.53
631.432	25.37
631.623	25.43
631.813	25.25
632.004	25.3
632.195	25.25
632.385	25.31
632.576	25.57
632.767	25.6
632.957	25.65
633.148	25.7
633.339	25.51
633.529	25.57
633.72	25.65
633.91	25.71
634.101	25.66
634.292	25.71
634.482	25.68
634.673	25.46
634.863	25.53
635.054	25.47
635.244	25.38
635.435	25.51
635.625	25.35
635.815	25.29
636.006	25.44
636.196	25.36
636.387	25.16
636.577	25.24
636.767	25.31
636.958	25.14
637.148	24.96
637.338	24.93
637.529	25.03
637.719	25.13
637.909	25.09
638.099	25.15
638.29	25.32
638.48	25.61
638.67	25.55
638.86	25.78
639.05	25.6
639.241	25.7
639.431	25.64
639.621	25.77
639.811	25.91
640.001	25.96
640.191	25.9
640.381	26.03
640.571	25.9
640.761	25.84
640.951	25.7
641.141	26.13
641.331	26.09
641.521	26.25
641.711	26.15
641.901	26.06
642.091	26.23
642.281	26.28
642.471	26.12
642.661	26.19
642.851	26.3
643.041	26.37
643.231	26.12
643.42	26
643.61	25.94
643.8	25.85
643.99	25.86
644.18	25.83
644.369	25.78
644.559	25.89
644.749	26.04
644.939	26.02
645.128	25.81
645.318	25.9
645.508	26.26
645.697	26.38
645.887	26.39
646.076	26.32
646.266	26.22
646.456	26.27
646.645	26.52
646.835	26.45
647.024	26.63
647.214	26.75
647.403	26.93
647.593	26.8
647.782	26.76
647.972	26.86
648.161	27.18
648.351	27.18
648.54	27.12
648.73	26.77
648.919	26.56
649.108	26.33
649.298	26.36
649.487	26.2
649.677	26.19
649.866	26.17
650.055	26.29
650.244	26.11
650.434	26.06
650.623	26.09
650.812	26.15
651.002	26.31
651.191	26.4
651.38	26.26
651.569	26.42
651.758	26.17
651.947	26.25
652.137	26.14
652.326	26.41
652.515	26.52
652.704	26.71
652.893	26.9
653.082	26.88
653.271	26.92
653.46	26.98
653.649	26.93
653.838	27.31
654.027	27.2
654.216	27.05
654.405	26.83
654.594	26.85
654.783	26.74
654.972	26.84
655.161	27.06
655.35	27.19
655.539	27.33
655.728	27.24
655.916	26.96
656.105	27
656.294	27.21
656.483	27.11
656.672	27.05
656.86	27.07
657.049	26.83
657.238	26.76
657.427	26.49
657.615	26.56
657.804	26.58
657.993	26.71
658.181	26.9
658.37	26.86
658.559	26.95
658.747	26.95
658.936	26.94
659.125	27.09
659.313	27
659.502	27.19
659.69	27.22
659.879	27.23
660.067	27.25
660.256	27.09
660.444	27.13
660.633	26.98
660.821	26.91
661.01	26.91
661.198	26.78
661.387	26.93
661.575	26.74
661.763	26.63
661.952	26.59
662.14	26.56
662.328	26.44
662.517	26.49
662.705	26.38
662.893	26.45
663.082	26.59
663.27	26.53
663.458	26.51
663.646	26.78
663.834	26.67
664.023	26.75
664.211	26.79
664.399	26.91
664.587	26.67
664.775	27.03
664.963	27.05
665.152	26.77
665.34	27.02
665.528	26.93
665.716	26.93
665.904	27.09
666.092	27.29
666.28	27.41
666.468	27.53
666.656	27.62
666.844	27.53
667.032	27.48
667.22	27.55
667.408	27.4
667.596	27.77
667.784	27.5
667.971	27.46
668.159	27.34
668.347	27.07
668.535	27.07
668.723	27.1
668.911	27.23
669.098	27.32
669.286	27.46
669.474	27.66
669.662	27.66
669.849	28.07
670.037	28.18
670.225	28.01
670.413	28.12
670.6	28.07
670.788	28.07
670.976	28.07
671.163	28.13
671.351	27.96
671.538	27.88
671.726	27.64
671.913	27.56
672.101	27.49
672.289	27.68
672.476	27.54
672.664	27.66
672.851	27.57
673.039	27.56
673.226	27.37
673.413	27.47
673.601	27.53
673.788	27.36
673.976	27.18
674.163	27.29
674.35	26.97
674.538	27.2
674.725	26.96
674.912	26.85
675.1	27.01
675.287	27.19
675.474	27.16
675.662	27.09
675.849	27.45
676.036	27.53
676.223	27.51
676.411	27.78
676.598	27.63
676.785	28.01
676.972	28.36
677.159	28.23
677.346	28.35
677.533	28.22
677.721	28.15
677.908	27.88
678.095	27.93
678.282	27.78
678.469	27.88
678.656	28.16
678.843	27.98
679.03	27.86
679.217	28
679.404	28.21
679.591	28.43
679.778	28.32
679.964	28.55
680.151	28.53
680.338	28.5
680.525	28.58
680.712	28.32
680.899	28.18
681.086	28.37
681.272	27.95
681.459	27.73
681.646	27.76
681.833	27.8
682.02	27.86
682.206	27.73
682.393	27.6
682.58	27.5
682.766	27.58
682.953	27.7
683.14	27.44
683.326	28.26
683.513	28.46
683.7	28.3
683.886	28.4
684.073	28.02
684.259	28.18
684.446	28.68
684.632	28.76
684.819	28.81
685.005	28.53
685.192	28.77
685.378	28.55
685.565	28.21
685.751	28.37
685.938	28.35
686.124	28.43
686.31	28.29
686.497	28.26
686.683	28.14
686.87	28.08
687.056	28.43
687.242	28.32
687.429	28.02
687.615	28.04
687.801	27.78
687.987	27.84
688.174	27.92
688.36	28.42
688.546	28.41
688.732	28.57
688.918	28.39
689.105	28.44
689.291	28.46
689.477	28.41
689.663	28.53
689.849	28.91
690.035	28.99
690.221	29.12
690.407	29.13
690.593	28.98
690.779	28.97
690.965	29.23
691.151	29.35
691.337	29.38
691.523	29.53
691.709	29.54
691.895	29.42
692.081	29.36
692.267	29.54
692.453	29.4
692.639	29.32
692.825	29.12
693.011	29.16
693.196	29.09
693.382	28.87
693.568	28.38
693.754	28.43
693.94	28.34
694.125	28.54
694.311	28.32
694.497	27.98
694.682	28.12
694.868	28.27
695.054	28.32
695.239	28.27
695.425	28.46
695.611	28.97
695.796	29.14
695.982	29.35
696.168	29.26
696.353	29.05
696.539	29.07
696.724	28.91
696.91	28.71
697.095	28.71
697.281	28.57
697.466	28.71
697.652	28.75
697.837	28.64
698.023	28.59
698.208	28.41
698.393	28.49
698.579	28.5
698.764	28.67
698.949	28.84
699.135	28.86
699.32	28.95
699.505	28.65
699.691	28.48
699.876	28.47
700.061	28.2
700.246	28.21
700.432	28.01
700.617	28.11
700.802	27.98
700.987	27.86
701.172	28.22
701.358	28
701.543	28.35
701.728	28.47
701.913	28.3
702.098	28.43
702.283	28.74
702.468	29.1
702.653	29.13
702.838	29.27
703.023	29.62
703.208	29
703.393	29.34
703.578	29.62
703.763	29.57
703.948	29.49
704.133	29.67
704.318	29.5
704.503	29.54
704.688	29.61
704.873	29.8
705.057	29.98
705.242	30.59
705.427	30.34
705.612	29.85
705.797	29.73
705.981	30.04
706.166	29.7
706.351	29.86
706.536	29.77
706.72	29.41
706.905	29.19
707.09	28.66
707.274	28.47
707.459	28.48
707.644	28.7
707.828	28.86
708.013	28.37
708.197	28.95
708.382	29.03
708.567	28.92
708.751	29.07
708.936	29.04
709.12	29.12
709.305	28.84
709.489	29.01
709.673	28.87
709.858	28.58
710.042	28.83
710.227	28.62
710.411	28.46
710.596	28.15
710.78	28.4
710.964	28.2
711.149	28.22
711.333	28.32
711.517	28.07
711.702	28.16
711.886	28.06
712.07	28.32
712.254	28.03
712.438	27.74
712.623	28.23
712.807	27.79
712.991	27.83
713.175	27.94
713.359	28.31
713.544	28.45
713.728	28.47
713.912	28.57
714.096	28.33
714.28	28.53
714.464	28.97
714.648	28.85
714.832	29.2
715.016	29.2
715.2	29.27
715.384	28.98
715.568	29.02
715.752	28.84
715.936	29.2
716.12	29.14
716.304	29.57
716.488	29.31
716.671	29.01
716.855	29.28
717.039	29.3
717.223	28.98
717.407	29.12
717.59	29.25
717.774	29.48
717.958	29.38
718.142	29.42
718.325	28.87
718.509	29.29
718.693	29.56
718.877	29.15
719.06	29.41
719.244	29.75
719.428	29.45
719.611	29.34
719.795	29.29
719.978	29.37
720.162	29.34
720.345	29.66
720.529	29.49
720.713	29.5
720.896	29.57
721.08	29.2
721.263	29.34
721.446	29.64
721.63	29.96
721.813	29.63
721.997	29.46
722.18	29.8
722.364	30.02
722.547	29.73
722.73	30.09
722.914	30.05
723.097	30.05
723.28	29.69
723.464	29.3
723.647	29.1
723.83	28.71
724.013	28.73
724.197	28.74
724.38	28.25
724.563	28.23
724.746	27.9
724.929	28.38
725.112	28.54
725.296	28.84
725.479	29.12
725.662	28.85
725.845	29.4
726.028	29.24
726.211	29.03
726.394	29.37
726.577	29.58
726.76	29.74
726.943	29.2
727.126	29.17
727.309	29.3
727.492	29.61
727.675	29.69
727.858	29.42
728.041	29.82
728.224	30.2
728.407	29.84
728.589	29.74
728.772	29.39
728.955	29.56
729.138	29.42
729.321	28.9
729.503	28.72
729.686	29.25
729.869	29.36
730.052	29.5
730.234	29.46
730.417	29.56
730.6	29.56
730.782	30.18
730.965	29.89
731.148	30.63
731.33	31.03
731.513	30.8
731.695	30.52
731.878	30.61
732.061	30.28
732.243	30.16
732.426	30.37
732.608	30.34
732.791	29.67
732.973	29.92
733.156	29.47
733.338	29.41
733.52	29.28
733.703	28.89
733.885	28.96
734.068	29.37
734.25	29.77
734.432	29.53
734.615	29.15
734.797	29.64
734.979	29.65
735.162	29.78
735.344	29.35
735.526	29.43
735.708	29.65
735.891	29.69
736.073	29.13
736.255	28.53
736.437	28.71
736.619	29.17
736.802	29.2
736.984	29.13
737.166	29.38
737.348	29.58
737.53	29.81
737.712	30.08
737.894	29.98
738.076	29.95
738.258	30.04
738.44	29.83
738.622	30.23
738.804	30.19
738.986	30.15
739.168	29.98
739.35	30.05
739.532	29.95
739.714	29.56
739.896	29.47
740.078	29.15
740.259	29.38
740.441	30.05
740.623	29.28
740.805	29.5
740.987	29.17
741.168	28.98
741.35	28.98
741.532	29.1
741.714	29.08
741.895	29.63
742.077	30.27
742.259	30.1
742.44	29.53
742.622	29.63
742.804	29.44
742.985	29.98
743.167	29.92
743.348	29.4
743.53	29.51
743.711	30
743.893	29.56
744.075	29.33
744.256	28.68
744.438	29.11
744.619	29.32
744.8	28.92
744.982	28.43
745.163	28.78
745.345	29.4
745.526	29.34
745.707	29.96
745.889	30.3
746.07	30.22
746.252	31.43
746.433	30.58
746.614	31.1
746.795	31.31
746.977	31.92
747.158	31.76
747.339	31.8
747.52	31.93
747.702	31.01
747.883	30.36
748.064	30.76
748.245	30.15
748.426	30.64
748.607	30.04
748.788	29.9
748.97	29.32
749.151	29.24
749.332	29.31
749.513	29.12
749.694	28.92
749.875	29.88
750.056	29.72
750.237	29.45
750.418	29.63
750.599	30.41
750.78	30.71
750.96	31.1
751.141	30.75
751.322	30.79
751.503	30.24
751.684	30.54
751.865	29.51
752.046	29.94
752.226	30.03
752.407	29.34
752.588	28.5
752.769	28.76
752.949	28.58
753.13	29.87
753.311	30.12
753.492	30.28
753.672	30.5
753.853	30.88
754.034	30.28
754.214	30.2
754.395	30.63
754.575	31.42
754.756	31.06
754.937	32.02
755.117	31.48
755.298	31.2
755.478	32.09
755.659	31.9
755.839	32.15
756.02	32.27
756.2	32.65
756.381	32.48
756.561	32.37
756.741	32.34
756.922	31.38
757.102	31.07
757.283	31.52
757.463	30.62
757.643	30.62
757.823	30.22
758.004	29.96
758.184	29.65
758.364	30.29
758.545	30.47
758.725	30.33
758.905	30.82
759.085	30.6
759.265	30.27
759.446	30.51
759.626	30.33
759.806	31.13
759.986	31.41
760.166	31.81
760.346	31.8
760.526	31.65
760.706	32.24
760.886	32.07
761.066	31.89
761.246	31.95
761.426	31.77
761.606	31.63
761.786	30.68
761.966	30.67
762.146	30.2
762.326	30.06
762.506	29.82
762.686	29.43
762.866	29.31
763.046	29.52
763.225	29.72
763.405	29.78
763.585	29.77
763.765	29.81
763.945	29.76
764.124	29.73
764.304	29.68
764.484	30.17
764.664	30.26
764.843	30.54
765.023	30.84
765.203	30.54
765.382	30.47
765.562	30.56
765.741	31.07
765.921	31.75
766.101	32.29
766.28	32.02
766.46	31.38
766.639	31.26
766.819	31.28
766.998	31.47
767.178	31.19
767.357	31.67
767.537	31.79
767.716	32.04
767.896	31.04
768.075	31.29
768.254	31.26
768.434	32.24
768.613	32.7
768.792	32.76
768.972	32.4
769.151	32.63
769.33	32.47
769.51	33.4
769.689	33.14
769.868	33.29
770.047	33.01
770.226	32.68
770.406	31.74
770.585	32.24
770.764	31.85
770.943	31.4
771.122	31.4
771.301	31.64
771.48	31.4
771.66	31.84
771.839	31.82
772.018	31.25
772.197	31.49
772.376	31.85
772.555	31.32
772.734	31.63
772.913	31.73
773.092	32.13
773.271	32.24
773.449	32.17
773.628	31.37
773.807	31.96
773.986	32.45
774.165	33.01
774.344	33.4
774.523	33.65
774.701	33.79
774.88	33.91
775.059	33.68
775.238	33.59
775.417	32.85
775.595	33.15
775.774	33.6
775.953	33.79
776.131	33.52
776.31	33.15
776.489	33.04
776.667	32.5
776.846	32.3
777.025	31.73
777.203	31.98
777.382	32.83
777.56	32.85
777.739	31.38
777.917	31.59
778.096	31.42
778.274	30.75
778.453	30.31
778.631	31
778.81	30.66
778.988	31.77
779.166	31.53
779.345	30.74
779.523	30.42
779.702	31.19
779.88	30.31
780.058	30.18
780.237	30.65
780.415	31.03
780.593	30.64
780.771	31.34
780.95	30.55
781.128	29.98
781.306	30.25
781.484	30.79
781.662	29.54
781.841	29.97
782.019	30.14
782.197	29.62
782.375	28.56
782.553	28.19
782.731	27.66
782.909	27.48
783.087	28.32
783.265	28.5
783.443	29.15
783.621	29.96
783.799	29.92
783.977	31.2
784.155	31.51
784.333	33.08
784.511	32.94
784.689	33.21
784.867	33.87
785.045	33.2
785.223	33.31
785.4	32.16
785.578	32.76
785.756	32.08
785.934	31.12
786.112	32.01
786.289	31.54
786.467	32.67
786.645	33.06
786.823	32.39
787	31.81
787.178	31.07
787.356	31.44
787.533	30.39
787.711	30.67
787.889	30.83
788.066	29.5
788.244	29.13
788.421	28.07
788.599	27.89
788.776	28.52
788.954	29.12
789.131	29.67
789.309	29.96
789.486	32.01
789.664	32.16
789.841	32.36
790.019	33.33
790.196	33.61
790.373	34.12
790.551	34.23
790.728	33.67
790.906	34.31
791.083	33.75
791.26	33.54
791.437	31.74
791.615	31.24
791.792	31.16
791.969	30.64
792.146	30.36
792.324	30.09
792.501	29.75
792.678	30.64
792.855	29.35
793.032	29.86
793.209	31.27
793.387	32.85
793.564	34.14
793.741	34.96
793.918	35.22
794.095	35.99
794.272	34.98
794.449	35.16
794.626	34.18
794.803	34.09
794.98	33.7
795.157	32.02
795.334	31.74
795.511	31
795.688	29.65
795.864	30.48
796.041	30.4
796.218	32.21
796.395	32.46
796.572	32.7
796.749	33.3
796.925	33.26
797.102	34.04
797.279	33.94
797.456	35.04
797.632	35.11
797.809	34.37
797.986	33.69
798.162	33.66
798.339	33.87
798.516	33.75
798.692	33.68
798.869	34.18
799.046	33.25
799.222	33.28
799.399	32.21
799.575	32.42
799.752	31.92
799.928	32.89
800.105	32.01
800.281	31.22
800.458	31.9
800.634	32.61
800.811	33.17
800.987	34.84
801.163	34.44
801.34	34.9
801.516	34.72
801.692	35.32
801.869	35.06
802.045	35.84
802.221	36.9
802.398	35.77
802.574	35.39
802.75	34.47
802.926	33.62
803.103	34.15
803.279	34.03
803.455	35.51
803.631	35.98
803.807	35.56
803.983	35.33
804.16	35.52
804.336	37.17
804.512	38.13
804.688	38.51
804.864	38.29
805.04	36.97
805.216	36.94
805.392	36.15
805.568	36.26
805.744	37.04
805.92	37.75
806.096	37.09
806.272	36.48
806.448	35.55
806.623	36.19
806.799	36.42
806.975	36.77
807.151	36.65
807.327	35.68
807.503	34.51
807.678	33.75
807.854	33.36
808.03	34.46
808.206	33.75
808.381	32.78
808.557	31.49
808.733	31.66
808.908	31.96
809.084	32.57
809.26	33.59
809.435	33.11
809.611	33.46
809.787	31.56
809.962	31.53
810.138	32.57
810.313	33.68
810.489	35.06
810.664	34.96
810.84	34.54
811.015	34.31
811.191	33.77
811.366	35.4
811.542	35.66
811.717	37.56
811.892	37.23
812.068	37.91
812.243	38.08
812.419	37.96
812.594	36.72
812.769	37.03
812.944	37.5
813.12	37.63
813.295	37.97
813.47	37.27
813.645	37.57
813.821	36.58
813.996	35.11
814.171	33.49
814.346	34.44
814.521	36.02
814.697	37.41
814.872	37.16
815.047	37.85
815.222	37.33
815.397	37.66
815.572	36.68
815.747	36.69
815.922	36.48
816.097	37.32
816.272	36.53
816.447	36.14
816.622	35.29
816.797	35.84
816.972	35.82
817.147	35.16
817.322	34.44
817.496	33.51
817.671	33.59
817.846	34.63
818.021	33.91
818.196	32.34
818.371	32.08
818.545	32.64
818.72	31.86
818.895	31.58
819.069	31.59
819.244	32.44
819.419	33.14
819.594	32.76
819.768	32.38
819.943	33.38
820.117	33.78
820.292	33.95
820.467	33.69
820.641	33.29
820.816	33.35
820.99	33.26
821.165	32.49
821.339	32.1
821.514	32.25
821.688	32.04
821.863	31.53
822.037	31.23
822.212	31.01
822.386	30.4
822.56	30.22
822.735	29.98
822.909	29.81
823.084	30.23
823.258	30.07
823.432	29.95
823.606	29.67
823.781	30.01
823.955	30.16
824.129	30.31
824.303	30.91
824.478	31.26
824.652	31.49
824.826	31.87
825	31.37
825.174	31.52
825.348	31.3
825.523	31.53
825.697	31.45
825.871	32.24
826.045	32.15
826.219	32.35
826.393	32.06
826.567	32
826.741	32.2
826.915	32.37
827.089	33.03
827.263	33.19
827.437	33.07
827.611	32.99
827.784	31.82
827.958	31.77
828.132	31.38
828.306	31.76
828.48	31.84
828.654	31.04
828.827	30.84
829.001	30.52
829.175	30.71
829.349	31.43
829.522	31.22
829.696	32.03
829.87	32.64
830.044	34.72
830.217	35.07
830.391	35.13
830.565	35.98
830.738	37.69
830.912	37.83
831.085	37.89
831.259	37.91
831.432	37.66
831.606	38.26
831.779	37.18
831.953	34.12
832.126	33.33
832.3	33.29
832.473	33.66
832.647	33.1
832.82	32.81
832.994	33.21
833.167	33.15
833.34	33.16
833.514	33.07
833.687	32.74
833.86	33.73
834.034	34.03
834.207	34.15
834.38	33.74
834.553	33.3
834.727	32.72
834.9	32.34
835.073	32.55
835.246	32.71
835.419	32.8
835.593	33.81
835.766	33.63
835.939	34.59
836.112	34.34
836.285	33.76
836.458	34.92
836.631	35.84
836.804	36.39
836.977	37.18
837.15	37.32
837.323	37.04
837.496	36.6
837.669	34.15
837.842	33.9
838.015	35.43
838.188	36.05
838.361	33.84
838.533	34.54
838.706	33.75
838.879	31.26
839.052	32.9
839.225	31.91
839.398	32.99
839.57	35.68
839.743	36.18
839.916	33.77
840.088	35.25
840.261	36.37
840.434	37.41
840.607	36.56
840.779	38.44
840.952	37.45
841.124	38.36
841.297	38.1
841.47	37.89
841.642	37.29
841.815	39.01
841.987	38.41
842.16	37.9
842.332	35.55
842.505	36.25
842.677	35.1
842.85	37.34
843.022	36.76
843.194	38.19
843.367	39.3
843.539	37.69
843.712	36.27
843.884	36.59
844.056	37.7
844.229	39.21
844.401	42.18
844.573	43.48
844.745	43.46
844.918	45.55
845.09	44.28
845.262	42.77
845.434	45.13
845.606	48.77
845.779	49.7
845.951	50.15
846.123	47.62
846.295	48.08
846.467	47.83
846.639	47.94
846.811	52.12
846.983	50.88
847.155	52.25
847.327	52.4
847.499	50.54
847.671	50.07
847.843	49.14
848.015	48.54
848.187	46.71
848.359	45.72
848.531	43.29
848.703	38.59
848.875	40.1
849.047	40.14
849.218	37.74
849.39	38.32
849.562	36.3
849.734	38.38
849.905	42.6
850.077	44.21
850.249	46.53
850.421	47.15
850.592	44.34
850.764	41.99
850.936	41.96
851.107	42.65
851.279	42.97
851.451	47.63
851.622	45.08
851.794	43.93
851.965	43.64
852.137	42.89
852.308	44.74
852.48	48.3
852.651	51.71
852.823	50.95
852.994	50.49
853.166	49.96
853.337	47.2
853.509	49.68
853.68	52.11
853.851	51.84
854.023	49.57
854.194	51.56
854.365	52.05
854.537	51.52
854.708	53.84
854.879	53.76
855.05	53.55
855.222	54.3
855.393	54.73
855.564	53.31
855.735	53.76
855.906	54
856.078	49.73
856.249	51.44
856.42	50.75
856.591	49.35
856.762	54.99
856.933	55.38
857.104	54.8
857.275	56.32
857.446	53.59
857.617	52.09
857.788	56.68
857.959	57.39
858.13	55.61
858.301	57.97
858.472	58.29
858.643	52.38
858.814	50.08
858.985	49.05
859.155	47.35
859.326	46.16
859.497	46.22
859.668	43.26
859.839	43.88
860.009	46.47
860.18	40.84
860.351	37.18
860.522	38.06
860.692	42.49
860.863	44.22
861.034	43.43
861.204	46.21
861.375	49.95
861.546	49.96
861.716	48.48
861.887	44.86
862.057	48.4
862.228	54.51
862.398	59.63
862.569	57.95
862.739	60.77
862.91	58.77
863.08	56.17
863.251	52.59
863.421	53.8
863.592	55.08
863.762	55.45
863.932	55.91
864.103	51.72
864.273	48.21
864.443	49.36
864.614	45.41
864.784	46.94
864.954	51.8
865.125	54.9
865.295	52.78
865.465	50.38
865.635	50.72
865.805	51.27
865.976	51.32
866.146	50.66
866.316	46.24
866.486	46.64
866.656	52.21
866.826	54.22
866.996	52.83
867.166	52.8
867.336	52.67
867.506	53.36
867.676	51.03
867.846	50.3
868.016	54.48
868.186	56.71
868.356	60.06
868.526	48.97
868.696	43.31
868.866	40.33
869.036	35.45
869.206	31.72
869.376	35.11
869.545	36.86
869.715	39.27
869.885	34.81
870.055	35.42
870.224	38.82
870.394	40.47
870.564	45.84
870.734	46.21
870.903	50.71
871.073	56.18
871.243	51.41
871.412	52.67
871.582	52.85
871.751	59.01
871.921	59.56
872.091	52.5
872.26	54.54
872.43	52.16
872.599	54.83
872.769	56.36
872.938	53.71
873.108	53.01
873.277	53.33
873.446	52.69
873.616	48.15
873.785	52.09
873.955	49.69
874.124	49.74
874.293	47.91
874.463	47.06
874.632	43.18
874.801	49.44
874.971	53.07
875.14	54.85
875.309	55
875.478	58.09
875.647	53.51
875.817	53.99
875.986	56.4
876.155	63.12
876.324	66.18
876.493	72.62
876.662	65.83
876.831	64.39
877	59.35
877.17	57.42
877.339	56.13
877.508	55.64
877.677	60.6
877.846	56.59
878.015	52.3
878.184	50.36
878.352	47.53
878.521	48.48
878.69	48.23
878.859	49.13
879.028	49.4
879.197	47.08
879.366	45.07
879.534	43.01
879.703	43.22
879.872	42.81
880.041	40.7
880.21	39.09
880.378	39.84
880.547	37.76
880.716	36.66
880.884	36.66
881.053	36.87
881.222	37.1
881.39	35.76
881.559	35.25
881.727	34.7
881.896	34.18
882.065	34.75
882.233	33.95
882.402	34.55
882.57	34.23
882.739	34.08
882.907	34.56
883.076	34.54
883.244	35.17
883.412	35.52
883.581	35.48
883.749	36.56
883.918	36.3
884.086	37.44
884.254	38
884.423	38.25
884.591	38.69
884.759	36.8
884.927	37.37
885.096	36.7
885.264	37.61
885.432	38.95
885.6	39.84
885.769	40.62
885.937	39.66
886.105	39.95
886.273	42.08
886.441	43.3
886.609	47.63
886.777	48.95
886.945	51.42
887.113	49.04
887.281	45.07
887.449	42.48
887.617	40.96
887.785	41.95
887.953	41.57
888.121	40.69
888.289	39.84
888.457	41.52
888.625	38.76
888.793	40.02
888.961	40.99
889.129	44.81
889.296	46.31
889.464	49.44
889.632	49.13
889.8	47.71
889.967	49.14
890.135	46.99
