Data from 2938544_Reflection_3.txt Node
Date: Mon Jun 15 00:29:36 EDT 2015
User: robert
Spectrometer: USB4E03002
Autoset integration time: false
Trigger mode: 4
Integration Time (sec): 1.000000E-1
Scans to average: 10
Electric dark correction enabled: true
Nonlinearity correction enabled: false
Boxcar width: 5
Stray light correction enabled: false
XAxis mode: Wavelengths
Stop averaging: false
Number of Pixels in Spectrum: 3648
>>>>>Begin Spectral Data<<<<<
177.575	76.51
177.794	82.2
178.014	59.39
178.233	400.75
178.452	-2980.49
178.672	115.78
178.891	86.44
179.11	76.76
179.33	60.52
179.549	62.83
179.768	75.89
179.987	85.16
180.207	81.71
180.426	-120.82
180.645	-98
180.864	-95.07
181.084	-138.55
181.303	-109.32
181.522	-109.06
181.741	-99.44
181.96	-158.11
182.179	-197.7
182.398	-130.26
182.618	-104.31
182.837	-110.85
183.056	-100.21
183.275	-87.39
183.494	-99.42
183.713	-139.42
183.932	-106.37
184.151	-146.7
184.37	-117.57
184.589	-78.14
184.808	-58.21
185.027	-39.94
185.246	-30.43
185.465	-8.28
185.684	-22.89
185.903	-0.75
186.122	4.89
186.341	1.39
186.56	10.1
186.779	29.71
186.998	33.67
187.216	41.16
187.435	54.21
187.654	56.69
187.873	47.29
188.092	53.06
188.311	58.43
188.53	56.05
188.748	63.99
188.967	65.05
189.186	57.1
189.405	50.85
189.623	39.13
189.842	-5.01
190.061	-4.86
190.28	-10.3
190.498	-7.45
190.717	-8.25
190.936	-20.01
191.154	-38.37
191.373	-18.1
191.592	-36.86
191.81	-34.78
192.029	-29.52
192.248	-17.53
192.466	7.7
192.685	14.42
192.904	11.92
193.122	-9.92
193.341	-1.86
193.559	32.53
193.778	-8.58
193.996	-6.01
194.215	-11.71
194.433	-4.51
194.652	28.26
194.87	0.49
195.089	5.16
195.307	10.88
195.526	-6.27
195.744	-0.96
195.963	1.61
196.181	20.35
196.399	20.73
196.618	-29.59
196.836	-36.48
197.055	-140.72
197.273	-195.87
197.491	-435.36
197.71	-169.16
197.928	-81.67
198.146	-79.05
198.365	-135
198.583	-122.81
198.801	-40.61
199.019	-14.66
199.238	4.35
199.456	2
199.674	-3.35
199.892	-22.17
200.111	-25.23
200.329	-48.72
200.547	-34.5
200.765	-35.15
200.983	-28.53
201.202	-30.6
201.42	-30.3
201.638	-42.03
201.856	-26.36
202.074	-39.66
202.292	-26.65
202.51	-23.88
202.728	-18.54
202.946	-23.84
203.165	-25.66
203.383	-41.06
203.601	-39.23
203.819	-53.43
204.037	-55.94
204.255	-47.74
204.473	-15.19
204.691	-18.86
204.909	2.02
205.127	9.5
205.345	22.67
205.562	20.13
205.78	23.92
205.998	22.38
206.216	30.42
206.434	43.74
206.652	56.98
206.87	19.11
207.088	17.98
207.306	1.28
207.523	0.13
207.741	-0.42
207.959	-1.34
208.177	5.11
208.395	8.06
208.612	17
208.83	17.29
209.048	10.18
209.266	27.3
209.483	32.78
209.701	27.78
209.919	19.85
210.136	15.03
210.354	18.03
210.572	8.79
210.79	6.67
211.007	3.85
211.225	-0.18
211.442	19.56
211.66	15.77
211.878	23.78
212.095	-53.86
212.313	-37.02
212.53	-42.51
212.748	-29.04
212.966	-18.2
213.183	-15.77
213.401	-28.88
213.618	-16.83
213.836	-26.31
214.053	-32.89
214.271	-42.72
214.488	12.59
214.705	-2.89
214.923	-8.36
215.14	-8.15
215.358	-13.9
215.575	-13.08
215.793	4.44
216.01	9.44
216.227	5.89
216.445	13.67
216.662	16.11
216.879	14.54
217.097	33.61
217.314	33.24
217.531	19.7
217.749	16.17
217.966	26.6
218.183	22.28
218.4	13.57
218.618	9.1
218.835	1.61
219.052	-3.38
219.269	-3.11
219.487	-2.73
219.704	1.78
219.921	7.52
220.138	15.63
220.355	1.76
220.572	-0.86
220.79	7.08
221.007	13.73
221.224	11.78
221.441	13.66
221.658	12.18
221.875	7.33
222.092	1.04
222.309	-1.17
222.526	-7.1
222.743	-1.15
222.96	4.06
223.177	1.47
223.394	0.26
223.611	2.48
223.828	-5.72
224.045	-9.01
224.262	-11.2
224.479	-0.66
224.696	1.86
224.913	1.72
225.13	-1.41
225.347	-0.04
225.564	1.81
225.781	1.95
225.997	2.02
226.214	5.5
226.431	5.8
226.648	5.28
226.865	2.8
227.082	2.8
227.298	2.93
227.515	3.49
227.732	3.98
227.949	3.82
228.165	5.19
228.382	5.99
228.599	6.19
228.816	6.96
229.032	8.47
229.249	11.15
229.466	12.15
229.682	13.44
229.899	13.92
230.116	12.99
230.332	13.38
230.549	10.99
230.765	11.47
230.982	12.72
231.199	11.12
231.415	12.19
231.632	9.17
231.848	6.05
232.065	6.55
232.281	4.95
232.498	3.9
232.714	2.83
232.931	4.28
233.147	3.57
233.364	1.85
233.58	3.96
233.797	2.33
234.013	1.52
234.23	4.06
234.446	3.95
234.662	5.91
234.879	7.73
235.095	6.88
235.312	7.64
235.528	5.19
235.744	4.98
235.961	4.01
236.177	4.1
236.393	5.59
236.61	5.57
236.826	2.84
237.042	1.36
237.258	1.12
237.475	2.5
237.691	2.46
237.907	5.41
238.123	5.88
238.339	5.21
238.556	6.08
238.772	6.18
238.988	6.28
239.204	6.46
239.42	6.29
239.636	5.1
239.853	4.79
240.069	4.15
240.285	3.93
240.501	4.3
240.717	4.2
240.933	4.06
241.149	4.18
241.365	3.91
241.581	4.11
241.797	4.06
242.013	4.86
242.229	4.79
242.445	4.93
242.661	5.55
242.877	5.48
243.093	5.92
243.309	6.28
243.525	5.75
243.741	5.44
243.957	5.89
244.173	5.76
244.388	5.42
244.604	5.64
244.82	6.21
245.036	5.43
245.252	5.44
245.468	5.4
245.683	5.11
245.899	5.49
246.115	6.04
246.331	6.01
246.547	6.42
246.762	6.63
246.978	6.79
247.194	6.07
247.409	6.48
247.625	6.68
247.841	6.88
248.057	6.92
248.272	6.57
248.488	6.7
248.703	6.63
248.919	6.61
249.135	6.27
249.35	5.9
249.566	6.81
249.782	6.21
249.997	5.66
250.213	5.29
250.428	5.89
250.644	5.66
250.859	4.69
251.075	4.24
251.29	4.22
251.506	3.12
251.721	3.04
251.937	2.31
252.152	2.43
252.368	2.21
252.583	1.7
252.798	0.41
253.014	1.24
253.229	1.08
253.445	1.45
253.66	1.01
253.875	2.44
254.091	1.22
254.306	2.59
254.521	3.31
254.737	4.36
254.952	4.79
255.167	5.01
255.383	4.6
255.598	5.08
255.813	5.04
256.028	5.05
256.244	4.84
256.459	5.35
256.674	5.21
256.889	4.97
257.104	4.26
257.32	4.35
257.535	4.03
257.75	3.85
257.965	3.96
258.18	4
258.395	3.76
258.61	3.97
258.826	3.96
259.041	3.68
259.256	3.64
259.471	3.74
259.686	4.1
259.901	4.5
260.116	4.51
260.331	4.3
260.546	3.77
260.761	3.91
260.976	3.92
261.191	3.78
261.406	3.97
261.621	3.91
261.836	3.77
262.05	3.08
262.265	2.95
262.48	2.61
262.695	2.64
262.91	3.21
263.125	3.19
263.34	2.84
263.555	2.43
263.769	2.49
263.984	2.1
264.199	2.39
264.414	2.11
264.629	1.8
264.843	2.4
265.058	2.25
265.273	2.27
265.488	2.17
265.702	2.51
265.917	3.18
266.132	3.04
266.346	2.89
266.561	2.5
266.776	2.51
266.99	2.17
267.205	1.64
267.42	1.38
267.634	1.67
267.849	1.81
268.063	1.51
268.278	0.76
268.492	0.86
268.707	1.19
268.922	1.75
269.136	2.19
269.351	3.06
269.565	3.46
269.78	3.9
269.994	3.81
270.209	4
270.423	3.84
270.637	4.26
270.852	4.23
271.066	4.46
271.281	4.46
271.495	4.08
271.709	3.78
271.924	3.72
272.138	4.07
272.353	3.7
272.567	3.37
272.781	3.66
272.996	3.83
273.21	3.68
273.424	3.13
273.638	3.17
273.853	2.91
274.067	2.88
274.281	2.93
274.495	2.28
274.71	2.39
274.924	2.34
275.138	2.51
275.352	2.59
275.566	2.59
275.781	3.02
275.995	2.86
276.209	3.51
276.423	3.75
276.637	3.64
276.851	3.44
277.065	3.73
277.279	4.16
277.493	3.69
277.707	3.91
277.921	4.25
278.135	4.3
278.349	4.13
278.563	3.79
278.777	3.49
278.991	3.83
279.205	3.87
279.419	3.57
279.633	3.38
279.847	3.78
280.061	3.2
280.275	2.88
280.489	2.55
280.703	2.63
280.917	2.83
281.131	2.88
281.344	2.27
281.558	2.95
281.772	3.29
281.986	3.02
282.2	2.64
282.414	2.97
282.627	3.01
282.841	3.37
283.055	3.17
283.269	3.28
283.482	3.47
283.696	3.85
283.91	3.36
284.123	3.1
284.337	3.02
284.551	3.56
284.764	3.19
284.978	3.58
285.192	3.5
285.405	3.63
285.619	3.78
285.833	3.62
286.046	3.58
286.26	4.16
286.473	4.57
286.687	4.75
286.9	4.62
287.114	5.08
287.327	4.56
287.541	4.66
287.754	4.87
287.968	4.55
288.181	4.17
288.395	4.4
288.608	3.82
288.822	3.61
289.035	3.91
289.248	3.39
289.462	3.34
289.675	3.63
289.889	3.36
290.102	3.39
290.315	3.29
290.529	3.7
290.742	3.35
290.955	3.23
291.169	3.67
291.382	3.42
291.595	3.83
291.808	3.91
292.022	3.88
292.235	3.86
292.448	3.88
292.661	4.09
292.875	4.07
293.088	4.08
293.301	4.27
293.514	3.9
293.727	4.34
293.94	4.58
294.153	4.33
294.367	4.22
294.58	4.15
294.793	4.34
295.006	4.65
295.219	4.77
295.432	5.19
295.645	5.1
295.858	5.44
296.071	4.94
296.284	4.81
296.497	4.9
296.71	4.81
296.923	5.35
297.136	5
297.349	4.68
297.562	4.59
297.775	4.18
297.988	4.34
298.201	4.32
298.414	4.89
298.626	4.76
298.839	4.89
299.052	5.08
299.265	4.73
299.478	4.86
299.691	4.93
299.903	5.16
300.116	5.1
300.329	4.9
300.542	4.74
300.755	4.65
300.967	4.54
301.18	4.03
301.393	4.13
301.605	4.54
301.818	4.61
302.031	4.51
302.243	4.32
302.456	4.46
302.669	4.76
302.881	4.71
303.094	5.07
303.307	5.28
303.519	5.72
303.732	5.67
303.944	5.46
304.157	5.28
304.37	5.32
304.582	5.31
304.795	5.65
305.007	5.38
305.22	5.35
305.432	5.33
305.645	5.22
305.857	5.57
306.069	5.53
306.282	5.49
306.494	5.44
306.707	5.7
306.919	5.54
307.132	5.29
307.344	5.72
307.556	5.51
307.769	4.8
307.981	4.84
308.193	4.71
308.406	4.94
308.618	5.1
308.83	5.52
309.043	5.3
309.255	5.58
309.467	5.48
309.679	4.85
309.892	4.92
310.104	5.08
310.316	5.09
310.528	4.79
310.74	4.95
310.953	4.53
311.165	4.28
311.377	4.31
311.589	4.41
311.801	4.57
312.013	5.25
312.225	5.05
312.437	5.22
312.649	5.16
312.862	5.53
313.074	5.04
313.286	5.65
313.498	5.74
313.71	5.57
313.922	5.18
314.134	5.11
314.346	4.96
314.558	5.32
314.77	5.58
314.982	5.59
315.193	4.99
315.405	4.89
315.617	4.38
315.829	4.2
316.041	4.69
316.253	4.68
316.465	4.51
316.677	4.48
316.888	4.58
317.1	4.85
317.312	5.22
317.524	5.43
317.736	5.86
317.947	5.86
318.159	5.82
318.371	5.57
318.583	5.42
318.794	5.58
319.006	5.47
319.218	5.37
319.43	5.25
319.641	5.19
319.853	5.56
320.064	5.02
320.276	5.17
320.488	5.08
320.699	5.09
320.911	5.94
321.123	6.15
321.334	5.99
321.546	6.17
321.757	5.76
321.969	5.69
322.18	5.94
322.392	6.51
322.603	6.67
322.815	6.79
323.026	6.9
323.238	6.43
323.449	6.41
323.661	6.67
323.872	6.63
324.083	7.07
324.295	7.29
324.506	7.36
324.718	7.45
324.929	7.6
325.14	7.56
325.352	7.93
325.563	7.9
325.774	7.64
325.986	7.89
326.197	7.38
326.408	7.12
326.62	7.13
326.831	6.73
327.042	6.55
327.253	6.42
327.464	6.62
327.676	6.12
327.887	6.1
328.098	6.66
328.309	6.25
328.52	6.67
328.732	6.37
328.943	5.94
329.154	6.26
329.365	6.56
329.576	6.71
329.787	6.95
329.998	7.32
330.209	7.43
330.42	6.91
330.631	7.11
330.842	7.15
331.053	7.14
331.264	7.51
331.475	7.63
331.686	7.68
331.897	7.41
332.108	7.08
332.319	7.25
332.53	7.41
332.741	7.8
332.952	7.82
333.163	7.96
333.374	8
333.585	7.86
333.795	7.76
334.006	7.54
334.217	7.7
334.428	7.85
334.639	7.49
334.849	7.67
335.06	7.77
335.271	7.37
335.482	7.23
335.692	7.29
335.903	7.27
336.114	7.15
336.325	7.13
336.535	6.81
336.746	6.93
336.957	6.64
337.167	6.45
337.378	5.82
337.589	6.18
337.799	6.08
338.01	6.01
338.22	6.1
338.431	5.96
338.642	5.82
338.852	6.24
339.063	6.4
339.273	6.79
339.484	6.57
339.694	6.76
339.905	6.71
340.115	6.98
340.326	7.18
340.536	7.27
340.746	7.63
340.957	7.73
341.167	7.36
341.378	7.29
341.588	7.13
341.799	7.54
342.009	7.29
342.219	7.12
342.43	6.98
342.64	6.72
342.85	6.59
343.061	6.57
343.271	6.78
343.481	6.72
343.691	6.72
343.902	6.79
344.112	6.27
344.322	6.66
344.532	6.83
344.743	6.69
344.953	7.04
345.163	7.05
345.373	6.84
345.583	6.75
345.793	7.16
346.004	7.32
346.214	7.18
346.424	7.49
346.634	7.49
346.844	7.62
347.054	7.66
347.264	7.4
347.474	7.27
347.684	7.09
347.894	6.98
348.104	6.7
348.314	6.28
348.524	6.68
348.734	6.83
348.944	6.74
349.154	6.61
349.364	6.72
349.574	6.86
349.784	6.9
349.994	7.15
350.204	7.37
350.413	7.32
350.623	7.45
350.833	7.33
351.043	7.05
351.253	7.19
351.463	7.17
351.672	7.08
351.882	6.94
352.092	6.93
352.302	6.63
352.511	6.49
352.721	6.69
352.931	6.33
353.141	6.06
353.35	5.94
353.56	5.87
353.77	5.85
353.979	6.02
354.189	6.15
354.399	6.14
354.608	6.41
354.818	6.34
355.027	6.12
355.237	6.56
355.447	6.78
355.656	6.81
355.866	6.56
356.075	6.53
356.285	6.36
356.494	6.33
356.704	6.32
356.913	6.12
357.123	6.19
357.332	6.25
357.542	6.1
357.751	5.93
357.96	5.95
358.17	5.99
358.379	6.09
358.589	6.07
358.798	6.04
359.007	6.05
359.217	6.37
359.426	6.31
359.635	6.3
359.845	6.37
360.054	6.39
360.263	6.48
360.472	6.47
360.682	6.62
360.891	6.62
361.1	6.54
361.309	6.55
361.519	6.22
361.728	5.99
361.937	5.91
362.146	5.69
362.355	5.85
362.564	5.85
362.774	5.76
362.983	5.57
363.192	5.55
363.401	5.63
363.61	5.82
363.819	5.98
364.028	6.03
364.237	6.01
364.446	6.27
364.655	5.92
364.864	5.92
365.073	6.3
365.282	6.43
365.491	6.22
365.7	6.16
365.909	5.86
366.118	5.69
366.327	5.8
366.536	5.97
366.745	5.69
366.954	5.88
367.162	5.46
367.371	5.34
367.58	5.1
367.789	5.42
367.998	5.31
368.207	5.23
368.415	5.25
368.624	5.18
368.833	5.04
369.042	5.13
369.25	5.12
369.459	5.34
369.668	5.03
369.877	4.97
370.085	4.63
370.294	4.87
370.503	4.77
370.711	4.71
370.92	4.59
371.129	4.82
371.337	4.77
371.546	4.57
371.754	4.83
371.963	4.97
372.171	5.17
372.38	5.62
372.589	5.59
372.797	5.92
373.006	5.85
373.214	6.12
373.423	6.01
373.631	6.03
373.84	6.18
374.048	6.07
374.256	6
374.465	5.9
374.673	5.49
374.882	5.16
375.09	5.13
375.298	5.16
375.507	5.1
375.715	5.09
375.923	5.24
376.132	5.31
376.34	5.2
376.548	5.47
376.757	5.36
376.965	5.58
377.173	5.71
377.381	5.53
377.59	5.53
377.798	5.55
378.006	5.52
378.214	5.42
378.423	5.27
378.631	5.29
378.839	5.07
379.047	5.14
379.255	4.98
379.463	5.09
379.671	5.22
379.879	5.17
380.088	5.21
380.296	5.09
380.504	5.07
380.712	5.11
380.92	5.09
381.128	5.02
381.336	4.93
381.544	4.86
381.752	4.91
381.96	4.78
382.168	4.91
382.376	5.02
382.584	5.06
382.791	4.92
382.999	4.83
383.207	4.83
383.415	4.84
383.623	4.88
383.831	4.93
384.039	4.76
384.247	4.81
384.454	4.9
384.662	4.52
384.87	4.49
385.078	4.24
385.285	4.19
385.493	4.16
385.701	4.2
385.909	4.08
386.116	4.24
386.324	4.18
386.532	4.06
386.739	3.85
386.947	4.05
387.155	4.09
387.362	4.3
387.57	4.32
387.778	4.13
387.985	3.86
388.193	3.9
388.4	3.5
388.608	3.47
388.816	3.84
389.023	3.85
389.231	3.9
389.438	3.84
389.646	4
389.853	4.12
390.061	4.16
390.268	4.45
390.475	4.42
390.683	4.7
390.89	4.68
391.098	4.36
391.305	4.34
391.512	4.22
391.72	4.22
391.927	4.14
392.135	3.94
392.342	4.12
392.549	4
392.756	4.19
392.964	4.19
393.171	4.32
393.378	4.43
393.586	4.51
393.793	4.74
394	4.8
394.207	4.81
394.414	4.85
394.622	4.69
394.829	4.67
395.036	4.29
395.243	4.31
395.45	4.25
395.657	4.29
395.864	4.28
396.072	4.04
396.279	3.93
396.486	3.82
396.693	4.06
396.9	3.91
397.107	4.02
397.314	3.95
397.521	3.8
397.728	3.8
397.935	3.57
398.142	3.44
398.349	3.43
398.556	3.27
398.763	3.2
398.97	3.04
399.177	3.26
399.383	3.19
399.59	3.41
399.797	3.38
400.004	3.35
400.211	3.32
400.418	3.44
400.625	3.38
400.831	3.54
401.038	3.7
401.245	3.67
401.452	3.76
401.658	3.78
401.865	3.68
402.072	3.78
402.279	3.76
402.485	3.77
402.692	3.55
402.899	3.55
403.105	3.58
403.312	3.5
403.519	3.46
403.725	3.42
403.932	3.39
404.138	3.38
404.345	3.3
404.552	3.4
404.758	3.57
404.965	3.61
405.171	3.65
405.378	3.56
405.584	3.54
405.791	3.55
405.997	3.45
406.204	3.44
406.41	3.52
406.617	3.58
406.823	3.51
407.029	3.5
407.236	3.69
407.442	3.64
407.649	3.72
407.855	3.77
408.061	3.64
408.268	3.57
408.474	3.55
408.68	3.51
408.887	3.53
409.093	3.49
409.299	3.42
409.505	3.27
409.712	3.26
409.918	3.25
410.124	3.27
410.33	3.45
410.537	3.47
410.743	3.36
410.949	3.32
411.155	3.38
411.361	3.39
411.567	3.25
411.773	3.4
411.98	3.44
412.186	3.33
412.392	3.25
412.598	3.13
412.804	3.06
413.01	3.07
413.216	3.21
413.422	3.01
413.628	3.13
413.834	3.14
414.04	3.15
414.246	2.94
414.452	2.84
414.658	2.79
414.864	2.88
415.07	2.9
415.275	2.88
415.481	2.89
415.687	2.87
415.893	2.81
416.099	2.76
416.305	2.74
416.511	2.81
416.716	2.87
416.922	2.92
417.128	2.92
417.334	2.88
417.539	2.98
417.745	2.91
417.951	2.95
418.157	2.86
418.362	2.99
418.568	2.96
418.774	2.92
418.979	2.97
419.185	3
419.391	2.97
419.596	3.02
419.802	2.95
420.008	2.94
420.213	2.18
420.419	2.29
420.624	2.26
420.83	2.24
421.035	2.31
421.241	2.32
421.446	2.27
421.652	2.23
421.857	2.19
422.063	2.22
422.268	2.24
422.474	3
422.679	2.91
422.885	2.88
423.09	2.94
423.295	2.88
423.501	2.83
423.706	2.86
423.911	2.98
424.117	2.97
424.322	3
424.527	2.96
424.733	2.95
424.938	2.97
425.143	2.95
425.349	2.93
425.554	3.02
425.759	3.03
425.964	3
426.169	2.9
426.375	2.96
426.58	2.81
426.785	2.9
426.99	2.86
427.195	2.92
427.4	2.94
427.605	2.87
427.811	2.75
428.016	2.83
428.221	2.82
428.426	2.73
428.631	2.7
428.836	2.87
429.041	2.71
429.246	2.84
429.451	2.75
429.656	2.73
429.861	2.75
430.066	2.88
430.271	2.72
430.476	2.77
430.681	2.93
430.886	3
431.09	2.99
431.295	3.07
431.5	2.99
431.705	3
431.91	3.01
432.115	2.99
432.32	2.81
432.524	2.94
432.729	2.89
432.934	2.87
433.139	2.82
433.343	2.8
433.548	2.77
433.753	2.77
433.958	2.83
434.162	2.75
434.367	2.79
434.572	3
434.776	2.93
434.981	3.08
435.186	3
435.39	2.99
435.595	2.99
435.799	2.98
436.004	2.91
436.209	2.87
436.413	3
436.618	2.89
436.822	2.76
437.027	2.69
437.231	2.54
437.436	2.63
437.64	2.61
437.845	2.59
438.049	2.59
438.253	2.59
438.458	2.55
438.662	2.43
438.867	2.41
439.071	2.53
439.275	2.58
439.48	2.67
439.684	2.54
439.888	2.51
440.093	2.46
440.297	2.51
440.501	2.55
440.706	2.5
440.91	2.58
441.114	2.6
441.318	2.43
441.523	2.49
441.727	2.3
441.931	2.33
442.135	2.39
442.339	2.41
442.543	2.37
442.748	2.36
442.952	2.38
443.156	2.42
443.36	2.43
443.564	2.48
443.768	2.45
443.972	2.52
444.176	2.46
444.38	2.46
444.584	2.44
444.788	2.47
444.992	2.38
445.196	2.44
445.4	2.39
445.604	2.47
445.808	2.56
446.012	2.59
446.216	2.52
446.42	2.6
446.624	2.56
446.828	2.55
447.032	2.53
447.235	2.61
447.439	2.66
447.643	2.7
447.847	2.56
448.051	2.43
448.254	2.43
448.458	2.49
448.662	2.43
448.866	2.51
449.069	2.54
449.273	2.55
449.477	2.51
449.681	2.49
449.884	2.39
450.088	2.48
450.292	2.43
450.495	2.41
450.699	2.49
450.902	2.54
451.106	2.48
451.31	2.47
451.513	2.39
451.717	2.53
451.92	2.5
452.124	2.58
452.327	2.62
452.531	2.68
452.734	2.63
452.938	2.51
453.141	2.44
453.345	2.48
453.548	2.49
453.752	2.62
453.955	2.52
454.158	2.46
454.362	2.42
454.565	2.24
454.769	2.28
454.972	2.25
455.175	2.31
455.379	2.44
455.582	2.39
455.785	2.41
455.988	2.37
456.192	2.22
456.395	2.17
456.598	2.24
456.801	2.42
457.005	2.34
457.208	2.37
457.411	2.38
457.614	2.32
457.817	2.31
458.021	2.35
458.224	2.34
458.427	2.51
458.63	2.59
458.833	2.54
459.036	2.51
459.239	2.54
459.442	2.5
459.645	2.4
459.848	2.4
460.051	2.43
460.254	2.37
460.457	2.37
460.66	2.3
460.863	2.34
461.066	2.34
461.269	2.3
461.472	2.42
461.675	2.39
461.878	2.53
462.081	2.56
462.284	2.52
462.486	2.56
462.689	2.51
462.892	2.57
463.095	2.43
463.298	2.4
463.5	2.41
463.703	2.27
463.906	2.35
464.109	2.36
464.311	2.36
464.514	2.39
464.717	2.33
464.92	2.38
465.122	2.3
465.325	2.36
465.528	2.41
465.73	2.41
465.933	2.39
466.135	2.43
466.338	2.46
466.541	2.4
466.743	2.38
466.946	2.47
467.148	2.49
467.351	2.53
467.553	2.53
467.756	2.52
467.958	2.55
468.161	2.6
468.363	2.57
468.566	2.55
468.768	2.58
468.971	2.52
469.173	2.44
469.375	2.43
469.578	2.46
469.78	2.45
469.983	2.48
470.185	2.49
470.387	2.54
470.59	2.57
470.792	2.4
470.994	2.47
471.196	2.56
471.399	2.59
471.601	2.57
471.803	2.57
472.005	2.55
472.208	2.62
472.41	2.65
472.612	2.68
472.814	2.73
473.016	2.81
473.218	2.74
473.421	2.72
473.623	2.73
473.825	2.75
474.027	2.68
474.229	2.75
474.431	2.7
474.633	2.66
474.835	2.65
475.037	2.64
475.239	2.6
475.441	2.59
475.643	2.59
475.845	2.61
476.047	2.53
476.249	2.59
476.451	2.53
476.653	2.49
476.855	2.5
477.057	2.45
477.258	2.32
477.46	2.35
477.662	2.4
477.864	2.48
478.066	2.48
478.268	2.47
478.469	2.46
478.671	2.44
478.873	2.32
479.075	2.26
479.276	2.3
479.478	2.43
479.68	2.39
479.882	2.37
480.083	2.26
480.285	2.25
480.487	2.29
480.688	2.25
480.89	2.24
481.091	2.36
481.293	2.42
481.495	2.4
481.696	2.38
481.898	2.47
482.099	2.47
482.301	2.51
482.502	2.48
482.704	2.48
482.905	2.49
483.107	2.5
483.308	2.5
483.51	2.49
483.711	2.48
483.913	2.48
484.114	2.44
484.315	2.43
484.517	2.41
484.718	2.43
484.92	2.46
485.121	2.44
485.322	2.46
485.524	2.43
485.725	2.45
485.926	2.47
486.127	2.46
486.329	2.47
486.53	2.45
486.731	2.46
486.932	2.45
487.134	2.45
487.335	2.48
487.536	2.48
487.737	2.53
487.938	2.54
488.139	2.52
488.341	2.56
488.542	2.54
488.743	2.59
488.944	2.58
489.145	2.61
489.346	2.62
489.547	2.59
489.748	2.59
489.949	2.56
490.15	2.52
490.351	2.53
490.552	2.5
490.753	2.53
490.954	2.57
491.155	2.59
491.356	2.59
491.557	2.59
491.758	2.6
491.959	2.63
492.159	2.62
492.36	2.64
492.561	2.64
492.762	2.65
492.963	2.64
493.164	2.59
493.364	2.59
493.565	2.57
493.766	2.6
493.967	2.7
494.167	2.66
494.368	2.66
494.569	2.69
494.769	2.71
494.97	2.73
495.171	2.71
495.371	2.77
495.572	2.72
495.773	2.68
495.973	2.67
496.174	2.65
496.375	2.7
496.575	2.71
496.776	2.71
496.976	2.78
497.177	2.79
497.377	2.83
497.578	2.74
497.778	2.84
497.979	2.86
498.179	2.88
498.38	2.9
498.58	2.87
498.78	2.88
498.981	2.8
499.181	2.79
499.382	2.79
499.582	2.76
499.782	2.77
499.983	2.68
500.183	2.76
500.383	2.73
500.584	2.67
500.784	2.75
500.984	2.75
501.184	2.9
501.385	2.8
501.585	2.86
501.785	2.96
501.985	3.1
502.185	3.17
502.386	3.14
502.586	3.15
502.786	3.21
502.986	3.12
503.186	3.09
503.386	3.03
503.586	3.18
503.786	3.12
503.987	3.05
504.187	3.03
504.387	3.03
504.587	3.08
504.787	3.05
504.987	2.98
505.187	3.07
505.387	3.13
505.587	3.13
505.786	3.15
505.986	3.17
506.186	3.22
506.386	3.2
506.586	3.18
506.786	3.2
506.986	3.25
507.186	3.32
507.386	3.33
507.585	3.37
507.785	3.39
507.985	3.29
508.185	3.43
508.384	3.44
508.584	3.43
508.784	3.48
508.984	3.5
509.183	3.56
509.383	3.6
509.583	3.54
509.782	3.53
509.982	3.57
510.182	3.71
510.381	3.66
510.581	3.67
510.781	3.62
510.98	3.61
511.18	3.58
511.379	3.59
511.579	3.54
511.778	3.6
511.978	3.68
512.177	3.71
512.377	3.62
512.576	3.53
512.776	3.5
512.975	3.56
513.175	3.6
513.374	3.72
513.573	3.75
513.773	3.9
513.972	3.99
514.172	3.97
514.371	3.97
514.57	3.97
514.77	4.07
514.969	4.12
515.168	4.18
515.367	4.19
515.567	4.15
515.766	4.15
515.965	4.14
516.164	4.09
516.364	4.08
516.563	4.1
516.762	4.17
516.961	4.19
517.16	4.21
517.359	4.2
517.559	4.27
517.758	4.31
517.957	4.32
518.156	4.32
518.355	4.37
518.554	4.37
518.753	4.45
518.952	4.53
519.151	4.51
519.35	4.57
519.549	4.72
519.748	4.74
519.947	4.74
520.146	4.78
520.345	4.86
520.544	4.87
520.743	4.95
520.942	4.92
521.141	4.94
521.339	5.01
521.538	5.02
521.737	5.04
521.936	4.91
522.135	4.94
522.333	4.95
522.532	4.95
522.731	5.01
522.93	5.01
523.129	4.99
523.327	4.91
523.526	4.99
523.725	5.03
523.923	4.92
524.122	5.08
524.321	5.09
524.519	5.07
524.718	5.04
524.917	5.09
525.115	5.1
525.314	5.17
525.512	5.21
525.711	5.2
525.909	5.22
526.108	5.28
526.306	5.3
526.505	5.33
526.703	5.39
526.902	5.42
527.1	5.43
527.299	5.49
527.497	5.5
527.696	5.54
527.894	5.58
528.092	5.62
528.291	5.67
528.489	5.66
528.688	5.68
528.886	5.7
529.084	5.73
529.283	5.75
529.481	5.77
529.679	5.78
529.877	5.84
530.076	5.84
530.274	5.82
530.472	5.86
530.67	5.91
530.869	6
531.067	6
531.265	6.04
531.463	6.07
531.661	6.07
531.859	6.13
532.057	6.11
532.255	6.1
532.454	6.12
532.652	6.07
532.85	6.06
533.048	6.01
533.246	6.02
533.444	6.02
533.642	5.99
533.84	6.03
534.038	6.03
534.236	6.08
534.434	6.18
534.632	6.19
534.83	6.23
535.027	6.31
535.225	6.39
535.423	6.42
535.621	6.42
535.819	6.47
536.017	6.39
536.215	6.42
536.412	6.45
536.61	6.44
536.808	6.45
537.006	6.49
537.203	6.49
537.401	6.51
537.599	6.54
537.797	6.6
537.994	6.61
538.192	6.7
538.39	6.7
538.587	6.67
538.785	6.72
538.983	6.76
539.18	6.79
539.378	6.8
539.575	6.79
539.773	6.8
539.97	6.78
540.168	6.83
540.366	6.85
540.563	6.83
540.761	6.83
540.958	6.83
541.155	6.86
541.353	6.88
541.55	6.86
541.748	6.91
541.945	6.93
542.143	6.99
542.34	6.99
542.537	7.03
542.735	7.12
542.932	7.18
543.129	7.17
543.327	7.21
543.524	7.2
543.721	7.29
543.919	7.32
544.116	7.4
544.313	7.45
544.51	7.41
544.708	7.41
544.905	7.41
545.102	7.47
545.299	7.48
545.496	7.44
545.693	7.46
545.891	7.44
546.088	7.41
546.285	7.42
546.482	7.44
546.679	7.56
546.876	7.61
547.073	7.6
547.27	7.62
547.467	7.67
547.664	7.78
547.861	7.86
548.058	7.93
548.255	7.96
548.452	7.95
548.649	8.03
548.846	8.04
549.043	8.06
549.24	8.21
549.437	8.31
549.633	8.28
549.83	8.31
550.027	8.28
550.224	8.24
550.421	8.24
550.618	8.29
550.814	8.29
551.011	8.26
551.208	8.27
551.405	8.24
551.601	8.13
551.798	8.32
551.995	8.41
552.191	8.46
552.388	8.5
552.585	8.7
552.781	8.86
552.978	8.86
553.175	8.92
553.371	9.02
553.568	9.06
553.764	9.11
553.961	9.02
554.157	8.98
554.354	9.03
554.55	8.95
554.747	8.81
554.943	8.78
555.14	8.83
555.336	8.84
555.533	8.86
555.729	8.97
555.926	9.01
556.122	8.97
556.318	8.95
556.515	9.04
556.711	9.26
556.907	9.32
557.104	9.25
557.3	9.13
557.496	9.29
557.693	9.35
557.889	9.3
558.085	9.27
558.281	9.34
558.478	9.5
558.674	9.66
558.87	9.56
559.066	9.69
559.262	9.69
559.459	9.94
559.655	10.03
559.851	9.89
560.047	9.92
560.243	10.11
560.439	10.28
560.635	10.13
560.831	10.06
561.027	10.26
561.223	10.25
561.419	10.41
561.615	10.46
561.811	10.32
562.007	10.5
562.203	10.46
562.399	10.52
562.595	10.49
562.791	10.54
562.987	10.62
563.183	10.62
563.379	10.71
563.575	10.72
563.771	10.73
563.966	10.88
564.162	10.87
564.358	10.96
564.554	10.95
564.75	11.05
564.945	11.15
565.141	11.16
565.337	11.2
565.533	11.2
565.728	11.19
565.924	11.16
566.12	11.19
566.315	11.27
566.511	11.3
566.707	11.35
566.902	11.35
567.098	11.37
567.293	11.36
567.489	11.29
567.684	11.32
567.88	11.28
568.076	11.29
568.271	11.25
568.467	11.31
568.662	11.42
568.858	11.44
569.053	11.5
569.248	11.61
569.444	11.58
569.639	11.71
569.835	11.76
570.03	11.76
570.225	11.89
570.421	11.94
570.616	11.94
570.812	11.93
571.007	11.88
571.202	11.9
571.397	11.84
571.593	11.9
571.788	11.89
571.983	11.88
572.178	11.99
572.374	11.98
572.569	12
572.764	12.01
572.959	12.03
573.154	12.13
573.35	12.22
573.545	12.29
573.74	12.42
573.935	12.47
574.13	12.57
574.325	12.63
574.52	12.63
574.715	12.53
574.91	12.61
575.105	12.59
575.3	12.6
575.495	12.51
575.69	12.51
575.885	12.36
576.08	12.31
576.275	12.22
576.47	12.21
576.665	12.19
576.86	12.2
577.055	12.2
577.25	12.26
577.444	12.22
577.639	12.34
577.834	12.41
578.029	12.45
578.224	12.6
578.418	12.68
578.613	12.73
578.808	12.76
579.003	13
579.197	13.11
579.392	13.08
579.587	13.15
579.781	13.02
579.976	13.02
580.171	12.97
580.365	12.78
580.56	12.85
580.755	12.8
580.949	12.83
581.144	12.95
581.338	12.89
581.533	12.89
581.727	12.88
581.922	12.96
582.116	13.06
582.311	13.18
582.505	13.56
582.7	13.47
582.894	13.49
583.089	13.47
583.283	13.34
583.478	13.18
583.672	13.33
583.866	13.56
584.061	13.61
584.255	13.52
584.449	13.54
584.644	13.37
584.838	13.48
585.032	13.38
585.226	13.56
585.421	13.5
585.615	13.64
585.809	13.64
586.003	13.47
586.198	13.42
586.392	13.48
586.586	13.48
586.78	13.35
586.974	13.38
587.168	13.53
587.363	13.46
587.557	13.54
587.751	13.61
587.945	13.65
588.139	13.73
588.333	13.75
588.527	13.77
588.721	13.88
588.915	14.01
589.109	14.01
589.303	13.94
589.497	13.96
589.691	13.95
589.885	13.97
590.079	14.1
590.273	14.16
590.466	14.3
590.66	14.34
590.854	14.35
591.048	14.32
591.242	14.35
591.436	14.54
591.629	14.5
591.823	14.57
592.017	14.56
592.211	14.53
592.404	14.61
592.598	14.68
592.792	14.75
592.986	14.74
593.179	14.69
593.373	14.65
593.567	14.7
593.76	14.78
593.954	14.73
594.147	14.75
594.341	14.64
594.535	14.53
594.728	14.54
594.922	14.56
595.115	14.53
595.309	14.67
595.502	14.75
595.696	14.69
595.889	14.72
596.083	14.7
596.276	14.7
596.47	14.74
596.663	14.89
596.856	14.8
597.05	14.67
597.243	14.78
597.437	14.81
597.63	14.77
597.823	14.79
598.017	14.83
598.21	14.87
598.403	14.99
598.596	15.08
598.79	14.91
598.983	14.9
599.176	14.94
599.369	14.93
599.563	14.99
599.756	14.95
599.949	15.01
600.142	14.86
600.335	14.77
600.528	14.64
600.722	14.68
600.915	14.74
601.108	14.79
601.301	14.99
601.494	14.92
601.687	14.86
601.88	14.93
602.073	14.75
602.266	14.68
602.459	14.9
602.652	14.79
602.845	14.67
603.038	14.76
603.231	14.89
603.424	14.79
603.617	14.82
603.809	14.79
604.002	14.85
604.195	15.02
604.388	15.24
604.581	15.13
604.774	15.34
604.966	15.5
605.159	15.48
605.352	15.37
605.545	15.43
605.737	15.43
605.93	15.56
606.123	15.6
606.316	15.52
606.508	15.57
606.701	15.63
606.894	15.6
607.086	15.51
607.279	15.47
607.471	15.5
607.664	15.56
607.857	15.75
608.049	15.72
608.242	15.72
608.434	15.76
608.627	15.74
608.819	15.7
609.012	15.69
609.204	15.82
609.397	15.95
609.589	16.06
609.782	15.95
609.974	15.87
610.166	15.83
610.359	15.71
610.551	15.71
610.743	15.75
610.936	15.59
611.128	15.71
611.32	15.47
611.513	15.22
611.705	15.06
611.897	15.18
612.09	15.18
612.282	15.13
612.474	15.11
612.666	15.03
612.858	15.05
613.051	15.16
613.243	15.13
613.435	15.31
613.627	15.31
613.819	15.22
614.011	15.12
614.203	14.96
614.395	15.05
614.588	15.29
614.78	15.42
614.972	15.34
615.164	15.74
615.356	15.81
615.548	15.94
615.74	16.08
615.932	16.3
616.124	16.4
616.315	16.52
616.507	16.61
616.699	16.45
616.891	16.5
617.083	16.44
617.275	16.21
617.467	16.15
617.659	15.99
617.85	15.98
618.042	15.72
618.234	15.77
618.426	15.8
618.618	15.7
618.809	15.8
619.001	15.83
619.193	16
619.384	16.04
619.576	15.89
619.768	15.85
619.959	15.88
620.151	16.1
620.343	16.22
620.534	16.24
620.726	16.34
620.917	16.49
621.109	16.34
621.301	16.31
621.492	16.38
621.684	16.57
621.875	16.69
622.067	16.67
622.258	16.61
622.45	16.49
622.641	16.68
622.832	16.61
623.024	16.39
623.215	16.57
623.407	16.45
623.598	16.56
623.789	16.5
623.981	16.42
624.172	16.4
624.363	16.55
624.555	16.45
624.746	16.43
624.937	16.55
625.129	16.61
625.32	16.64
625.511	16.62
625.702	16.46
625.893	16.37
626.085	16.48
626.276	16.55
626.467	16.47
626.658	16.59
626.849	16.56
627.04	16.57
627.231	16.68
627.422	16.5
627.614	16.57
627.805	16.68
627.996	16.81
628.187	16.7
628.378	16.55
628.569	16.51
628.76	16.52
628.951	16.35
629.142	16.35
629.332	16.24
629.523	16.36
629.714	16.42
629.905	16.32
630.096	16.33
630.287	16.37
630.478	16.55
630.669	16.56
630.859	16.61
631.05	16.63
631.241	16.59
631.432	16.76
631.623	16.83
631.813	16.91
632.004	16.95
632.195	16.9
632.385	16.9
632.576	16.95
632.767	17.1
632.957	16.92
633.148	17.02
633.339	17.03
633.529	16.87
633.72	16.88
633.91	16.85
634.101	16.83
634.292	16.86
634.482	16.84
634.673	16.81
634.863	16.69
635.054	16.67
635.244	16.76
635.435	16.82
635.625	16.83
635.815	16.8
636.006	16.77
636.196	16.8
636.387	16.8
636.577	17.01
636.767	17.18
636.958	17.37
637.148	17.43
637.338	17.23
637.529	17.1
637.719	17.1
637.909	17.25
638.099	17.27
638.29	17.34
638.48	17.42
638.67	17.32
638.86	17.32
639.05	17.16
639.241	17.27
639.431	17.39
639.621	17.38
639.811	17.6
640.001	17.52
640.191	17.6
640.381	17.69
640.571	17.57
640.761	17.49
640.951	17.36
641.141	17.54
641.331	17.73
641.521	17.79
641.711	17.75
641.901	17.59
642.091	17.61
642.281	17.63
642.471	17.36
642.661	17.57
642.851	17.66
643.041	17.6
643.231	17.47
643.42	17.38
643.61	17.48
643.8	17.63
643.99	17.53
644.18	17.62
644.369	17.23
644.559	17.47
644.749	17.32
644.939	17.31
645.128	17.38
645.318	17.51
645.508	17.37
645.697	17.19
645.887	17.3
646.076	17.3
646.266	17.25
646.456	17.43
646.645	17.44
646.835	17.42
647.024	17.33
647.214	17.29
647.403	17.42
647.593	17.56
647.782	17.49
647.972	17.26
648.161	17.29
648.351	17.33
648.54	17.47
648.73	17.28
648.919	17.48
649.108	17.71
649.298	17.78
649.487	17.52
649.677	17.35
649.866	17.52
650.055	17.66
650.244	17.62
650.434	17.57
650.623	17.66
650.812	17.86
651.002	17.73
651.191	17.76
651.38	17.81
651.569	17.82
651.758	17.95
651.947	17.81
652.137	18.01
652.326	18.02
652.515	18.02
652.704	17.93
652.893	17.91
653.082	18.1
653.271	18.02
653.46	18.07
653.649	18.14
653.838	18.15
654.027	18.33
654.216	18.11
654.405	18.08
654.594	18.05
654.783	17.99
654.972	18.17
655.161	18.09
655.35	18.13
655.539	18.19
655.728	18.32
655.916	18.25
656.105	18.41
656.294	18.48
656.483	18.58
656.672	18.56
656.86	18.62
657.049	18.41
657.238	18.57
657.427	18.7
657.615	18.58
657.804	18.4
657.993	18.53
658.181	18.3
658.37	18.4
658.559	18.38
658.747	18.55
658.936	18.51
659.125	19.07
659.313	18.87
659.502	18.65
659.69	18.66
659.879	18.66
660.067	18.73
660.256	18.83
660.444	18.71
660.633	18.86
660.821	18.54
661.01	18.57
661.198	17.96
661.387	17.81
661.575	17.84
661.763	17.54
661.952	17.71
662.14	17.46
662.328	17.66
662.517	17.76
662.705	17.7
662.893	17.98
663.082	18.16
663.27	17.95
663.458	18.28
663.646	18.53
663.834	19.05
664.023	18.92
664.211	18.99
664.399	18.95
664.587	18.94
664.775	19.05
664.963	18.94
665.152	18.78
665.34	18.99
665.528	18.77
665.716	18.4
665.904	18.36
666.092	18.39
666.28	18.58
666.468	18.63
666.656	18.9
666.844	18.96
667.032	18.97
667.22	18.94
667.408	19.05
667.596	19.27
667.784	19.5
667.971	19.34
668.159	19.18
668.347	19.13
668.535	19.19
668.723	18.88
668.911	18.84
669.098	19.06
669.286	19.26
669.474	19.12
669.662	19.11
669.849	19.09
670.037	19.07
670.225	19.36
670.413	19.05
670.6	18.84
670.788	18.86
670.976	18.58
671.163	18.48
671.351	18.56
671.538	18.73
671.726	18.5
671.913	18.69
672.101	18.5
672.289	18.35
672.476	18.73
672.664	18.95
672.851	18.66
673.039	18.94
673.226	18.81
673.413	18.73
673.601	18.59
673.788	18.87
673.976	18.75
674.163	18.91
674.35	18.91
674.538	18.61
674.725	18.23
674.912	18.61
675.1	18.29
675.287	18.54
675.474	18.57
675.662	18.65
675.849	18.73
676.036	18.78
676.223	19
676.411	19.08
676.598	19.18
676.785	19.56
676.972	19.66
677.159	20.09
677.346	20.06
677.533	20.03
677.721	19.94
677.908	19.58
678.095	19.27
678.282	19.34
678.469	19.2
678.656	19.37
678.843	19.08
679.03	18.98
679.217	18.9
679.404	18.87
679.591	18.81
679.778	18.92
679.964	19.15
680.151	19.38
680.338	19.37
680.525	19.51
680.712	19.36
680.899	19.71
681.086	19.69
681.272	19.64
681.459	19.41
681.646	19.52
681.833	19.14
682.02	19.15
682.206	19.1
682.393	19.15
682.58	19.19
682.766	19.2
682.953	19.03
683.14	19.13
683.326	19.16
683.513	19.28
683.7	19.18
683.886	19.53
684.073	19.37
684.259	19.44
684.446	19.23
684.632	19.09
684.819	19.34
685.005	19.39
685.192	19.31
685.378	19.07
685.565	19.1
685.751	19.31
685.938	19.24
686.124	19.52
686.31	19.44
686.497	19.45
686.683	19.71
686.87	19.71
687.056	19.47
687.242	19.54
687.429	19.71
687.615	19.55
687.801	19.31
687.987	19.24
688.174	19.24
688.36	19.13
688.546	19.12
688.732	18.94
688.918	19.4
689.105	19.41
689.291	19.53
689.477	20.01
689.663	19.98
689.849	20.29
690.035	20.65
690.221	20.72
690.407	20.96
690.593	20.86
690.779	20.84
690.965	20.49
691.151	20.77
691.337	20.3
691.523	19.74
691.709	20.22
691.895	20.16
692.081	20.11
692.267	19.71
692.453	19.91
692.639	20.22
692.825	20.47
693.011	20.68
693.196	20.54
693.382	20.49
693.568	20.93
693.754	20.95
693.94	20.67
694.125	20.64
694.311	20.93
694.497	20.7
694.682	20.61
694.868	20.23
695.054	20.22
695.239	20.35
695.425	20.77
695.611	20.43
695.796	20.26
695.982	20.33
696.168	20.35
696.353	20.15
696.539	20.16
696.724	20.24
696.91	20.45
697.095	20.26
697.281	20.05
697.466	20.03
697.652	20
697.837	19.92
698.023	19.85
698.208	19.76
698.393	19.91
698.579	19.95
698.764	20.01
698.949	20.03
699.135	20.11
699.32	20.43
699.505	20.22
699.691	20.38
699.876	20.78
700.061	20.95
700.246	21
700.432	21.2
700.617	21.1
700.802	21.15
700.987	21.37
701.172	21.34
701.358	21.33
701.543	21.66
701.728	21.42
701.913	20.81
702.098	20.85
702.283	20.88
702.468	20.91
702.653	20.89
702.838	20.72
703.023	20.53
703.208	20.55
703.393	20.64
703.578	20.38
703.763	20.67
703.948	20.87
704.133	20.74
704.318	20.7
704.503	20.51
704.688	20.67
704.873	20.59
705.057	20.29
705.242	20.17
705.427	19.93
705.612	19.97
705.797	19.88
705.981	19.89
706.166	20.13
706.351	20.04
706.536	20.14
706.72	20.17
706.905	20.33
707.09	20.58
707.274	20.39
707.459	20.21
707.644	20.21
707.828	20.4
708.013	20.6
708.197	20.5
708.382	20.98
708.567	20.55
708.751	20.53
708.936	20.18
709.12	20.32
709.305	20.21
709.489	20.14
709.673	20.34
709.858	20.21
710.042	20.04
710.227	19.88
710.411	19.69
710.596	20.16
710.78	19.96
710.964	20.25
711.149	20.2
711.333	20.45
711.517	20.8
711.702	20.52
711.886	20.54
712.07	20.66
712.254	20.5
712.438	20.07
712.623	20.11
712.807	20.19
712.991	20.08
713.175	20.07
713.359	20.26
713.544	20.3
713.728	20.56
713.912	20.88
714.096	20.89
714.28	21.15
714.464	21.35
714.648	21.13
714.832	20.94
715.016	20.75
715.2	20.66
715.384	20.58
715.568	20.38
715.752	20.44
715.936	20.2
716.12	20.44
716.304	20.52
716.488	20.52
716.671	20.61
716.855	21
717.039	21.27
717.223	21.24
717.407	21.29
717.59	21.26
717.774	20.95
717.958	20.71
718.142	20.56
718.325	20.44
718.509	20.56
718.693	20.7
718.877	20.36
719.06	20.42
719.244	20.69
719.428	20.63
719.611	20.67
719.795	20.82
719.978	20.6
720.162	20.69
720.345	21.18
720.529	21.24
720.713	20.58
720.896	20.76
721.08	20.96
721.263	20.53
721.446	20.65
721.63	20.6
721.813	20.27
721.997	20.76
722.18	20.61
722.364	20.38
722.547	20.21
722.73	20.46
722.914	20.5
723.097	20.52
723.28	20.72
723.464	20.66
723.647	21.22
723.83	21.75
724.013	21.47
724.197	21.61
724.38	21.62
724.563	21.96
724.746	22.1
724.929	21.74
725.112	21.46
725.296	21.79
725.479	21.51
725.662	21.37
725.845	20.85
726.028	20.79
726.211	20.66
726.394	20.31
726.577	19.9
726.76	20.18
726.943	20.33
727.126	20.27
727.309	19.81
727.492	19.72
727.675	19.28
727.858	19.47
728.041	19.85
728.224	19.51
728.407	19.44
728.589	19.93
728.772	19.78
728.955	19.89
729.138	19.98
729.321	19.88
729.503	20.06
729.686	20.48
729.869	20.8
730.052	20.66
730.234	20.91
730.417	21.22
730.6	20.59
730.782	20.39
730.965	20.51
731.148	20.83
731.33	20.87
731.513	21.21
731.695	21.14
731.878	20.87
732.061	20.62
732.243	20.38
732.426	20.22
732.608	20.57
732.791	21.17
732.973	21.31
733.156	21.43
733.338	21.74
733.52	21.42
733.703	21.44
733.885	21.55
734.068	22.21
734.25	22.47
734.432	22.44
734.615	22
734.797	21.43
734.979	21.22
735.162	20.83
735.344	20.66
735.526	20.89
735.708	20.53
735.891	20.25
736.073	19.83
736.255	20.11
736.437	20.27
736.619	20.89
736.802	21.02
736.984	20.89
737.166	21.49
737.348	21.28
737.53	20.68
737.712	21.25
737.894	21.36
738.076	21.02
738.258	20.89
738.44	21.29
738.622	20.98
738.804	20.89
738.986	20.77
739.168	20.07
739.35	20.26
739.532	20.64
739.714	20.46
739.896	20.63
740.078	21.03
740.259	21.08
740.441	20.19
740.623	20.39
740.805	19.98
740.987	20.13
741.168	20.2
741.35	20.54
741.532	20.3
741.714	20.35
741.895	20.85
742.077	21.17
742.259	21.03
742.44	21.48
742.622	21.66
742.804	22.22
742.985	22.59
743.167	22.87
743.348	22.89
743.53	22.94
743.711	23.42
743.893	23.17
744.075	22.58
744.256	22.51
744.438	22.44
744.619	22.46
744.8	22.16
744.982	22.19
745.163	22.39
745.345	22.15
745.526	22.57
745.707	21.56
745.889	20.68
746.07	20.63
746.252	20.71
746.433	20.61
746.614	21
746.795	21.35
746.977	21.07
747.158	20.31
747.339	20.87
747.52	20.98
747.702	20.82
747.883	21.62
748.064	21.72
748.245	21.71
748.426	21.9
748.607	21.4
748.788	21.2
748.97	20.96
749.151	21.3
749.332	21.04
749.513	21.28
749.694	21.94
749.875	21.74
750.056	21.79
750.237	21.99
750.418	22.35
750.599	21.87
750.78	21.88
750.96	22.17
751.141	21.84
751.322	21.82
751.503	21.43
751.684	22
751.865	22.14
752.046	22.16
752.226	22.01
752.407	22.11
752.588	22.24
752.769	22.6
752.949	22.61
753.13	23.22
753.311	22.7
753.492	22.31
753.672	21.86
753.853	22.46
754.034	23.03
754.214	22.74
754.395	22.19
754.575	22.39
754.756	21.5
754.937	21.57
755.117	21.27
755.298	21.98
755.478	22.39
755.659	22.26
755.839	21.39
756.02	20.78
756.2	20.55
756.381	21.61
756.561	21.67
756.741	22.74
756.922	22.14
757.102	22.18
757.283	21.65
757.463	21.87
757.643	21.59
757.823	21.83
758.004	21.68
758.184	22
758.364	21.44
758.545	21.44
758.725	21.09
758.905	21.74
759.085	22.01
759.265	22.27
759.446	21.83
759.626	21.05
759.806	21.17
759.986	21.32
760.166	21.57
760.346	21.85
760.526	22.18
760.706	22.55
760.886	22.6
761.066	22.32
761.246	22.47
761.426	22.5
761.606	23.39
761.786	23.27
761.966	23.12
762.146	22.95
762.326	22.37
762.506	22.12
762.686	21.81
762.866	22.03
763.046	21.96
763.225	21.48
763.405	21.33
763.585	21.34
763.765	21.31
763.945	21.42
764.124	21.64
764.304	21.94
764.484	21.84
764.664	22.13
764.843	21.56
765.023	21.71
765.203	22.48
765.382	22.75
765.562	22.32
765.741	22.45
765.921	22.62
766.101	22.15
766.28	22.21
766.46	22.46
766.639	22.05
766.819	22.32
766.998	22.38
767.178	21.47
767.357	21.6
767.537	21.94
767.716	21.15
767.896	20.57
768.075	21.07
768.254	20.47
768.434	20.44
768.613	20.78
768.792	21.68
768.972	21.48
769.151	22.42
769.33	22.29
769.51	21.78
769.689	23.18
769.868	23.65
770.047	23.17
770.226	23.39
770.406	23.15
770.585	22.9
770.764	20.79
770.943	20.93
771.122	20.2
771.301	20.27
771.48	20.52
771.66	20.4
771.839	20.69
772.018	20.55
772.197	20.75
772.376	20.38
772.555	20.76
772.734	22.46
772.913	22.66
773.092	23
773.271	22.73
773.449	23.1
773.628	23.24
773.807	23.95
773.986	23.7
774.165	23.2
774.344	23.35
774.523	22.43
774.701	21.59
774.88	20.87
775.059	20.73
775.238	20.74
775.417	20.21
775.595	19.55
775.774	18.89
775.953	20.11
776.131	20.63
776.31	21.46
776.489	21.49
776.667	22.37
776.846	23.42
777.025	23.67
777.203	24.02
777.382	24.64
777.56	24.24
777.739	23.9
777.917	22.28
778.096	22.31
778.274	21.25
778.453	21.54
778.631	21.34
778.81	20.71
778.988	20.47
779.166	20.2
779.345	20.26
779.523	20.94
779.702	21.12
779.88	22.75
780.058	22.75
780.237	23.4
780.415	23.41
780.593	22.65
780.771	22.97
780.95	22.8
781.128	22.8
781.306	22.7
781.484	22.35
781.662	22.53
781.841	21.36
782.019	21.1
782.197	21.37
782.375	22.36
782.553	23.31
782.731	23.56
782.909	23.94
783.087	24.28
783.265	23.16
783.443	22.95
783.621	23.25
783.799	23.11
783.977	23.14
784.155	22.77
784.333	21.65
784.511	21.61
784.689	21.29
784.867	21.03
785.045	20.2
785.223	20.32
785.4	20.91
785.578	20.63
785.756	21.51
785.934	22.08
786.112	21.54
786.289	21.62
786.467	21.55
786.645	21.49
786.823	20.62
787	21.11
787.178	22.01
787.356	22.08
787.533	21.71
787.711	21.77
787.889	20.43
788.066	21.19
788.244	21.93
788.421	21.22
788.599	20.97
788.776	21.72
788.954	22.7
789.131	23.09
789.309	22.55
789.486	23.13
789.664	23.4
789.841	24.3
790.019	24.3
790.196	23.85
790.373	24.54
790.551	24.14
790.728	24.4
790.906	23.26
791.083	21.43
791.26	20.99
791.437	20.55
791.615	20.75
791.792	20.79
791.969	19.74
792.146	19.21
792.324	18.18
792.501	17.95
792.678	18.11
792.855	17.62
793.032	18.69
793.209	18.89
793.387	18.59
793.564	18.6
793.741	18.63
793.918	19.93
794.095	20.96
794.272	21.65
794.449	23.09
794.626	23.31
794.803	24.54
794.98	26.05
795.157	27.28
795.334	27.48
795.511	28
795.688	27.06
795.864	26.7
796.041	25.66
796.218	25.76
796.395	25.06
796.572	24.2
796.749	23.74
796.925	22.95
797.102	21.14
797.279	21.87
797.456	21.45
797.632	22.43
797.809	23.12
797.986	23.57
798.162	23.98
798.339	24.19
798.516	24.94
798.692	25.09
798.869	24.71
799.046	26.15
799.222	24.72
799.399	24.35
799.575	24.86
799.752	23.98
799.928	24.91
800.105	24.05
800.281	23.78
800.458	23.01
800.634	22.3
800.811	22.08
800.987	21.76
801.163	22.78
801.34	22.32
801.516	21.16
801.692	22.42
801.869	21.67
802.045	21.3
802.221	21.24
802.398	22.33
802.574	22.17
802.75	22.64
802.926	22.95
803.103	22.16
803.279	22.47
803.455	23.35
803.631	21.67
803.807	21.73
803.983	21.91
804.16	22.59
804.336	22.07
804.512	22.57
804.688	22.35
804.864	22.6
805.04	22.86
805.216	22.64
805.392	23.07
805.568	24.9
805.744	23.88
805.92	24.52
806.096	23.49
806.272	24.34
806.448	25.37
806.623	26.33
806.799	25.41
806.975	25.08
807.151	25.28
807.327	23.79
807.503	22.06
807.678	24.19
807.854	24.28
808.03	24.94
808.206	24.72
808.381	25.15
808.557	24.88
808.733	24.77
808.908	26.49
809.084	26.16
809.26	26.82
809.435	26.08
809.611	24.86
809.787	24.56
809.962	24.18
810.138	23.25
810.313	22.56
810.489	21.9
810.664	22.94
810.84	21.93
811.015	21.47
811.191	20.7
811.366	22.35
811.542	22.44
811.717	22.81
811.892	23.06
812.068	24.24
812.243	21.87
812.419	20.72
812.594	20.28
812.769	19.73
812.944	20.31
813.12	21.47
813.295	19.58
813.47	19.52
813.645	18.46
813.821	17.89
813.996	15.79
814.171	17.48
814.346	17.68
814.521	17.02
814.697	17.92
814.872	17.63
815.047	18.1
815.222	19.43
815.397	19.24
815.572	20.33
815.747	21.61
815.922	22.67
816.097	22.56
816.272	23.72
816.447	23.15
816.622	22.99
816.797	22.52
816.972	22.3
817.147	22.29
817.322	22.67
817.496	22.21
817.671	22.14
817.846	22.55
818.021	23.29
818.196	23.2
818.371	24.05
818.545	23.68
818.72	24.52
818.895	24.17
819.069	24.17
819.244	24.6
819.419	25.44
819.594	24.52
819.768	23.82
819.943	23.58
820.117	23.53
820.292	23.42
820.467	23.44
820.641	23.47
820.816	23.43
820.99	23.08
821.165	22.95
821.339	23.11
821.514	23.31
821.688	23.44
821.863	23.5
822.037	23.72
822.212	23.8
822.386	23.75
822.56	23.7
822.735	23.69
822.909	23.93
823.084	24.13
823.258	23.87
823.432	23.65
823.606	23.46
823.781	23.42
823.955	23.3
824.129	23.38
824.303	23.55
824.478	23.33
824.652	23.29
824.826	22.8
825	22.33
825.174	21.91
825.348	22.4
825.523	22.89
825.697	23.36
825.871	22.96
826.045	22.92
826.219	22.84
826.393	23.49
826.567	23.72
826.741	24.21
826.915	24.24
827.089	25.3
827.263	25.03
827.437	24.97
827.611	25.01
827.784	25.33
827.958	25.81
828.132	25.59
828.306	25.27
828.48	24.99
828.654	25.77
828.827	25.69
829.001	23.89
829.175	24.55
829.349	24.03
829.522	22.36
829.696	21.53
829.87	20.72
830.044	20.9
830.217	20.63
830.391	21.67
830.565	20.67
830.738	20.75
830.912	21.96
831.085	21.31
831.259	21.49
831.432	21.12
831.606	22.41
831.779	22.73
831.953	22.83
832.126	22.88
832.3	22.82
832.473	22.95
832.647	24.06
832.82	24.3
832.994	23.87
833.167	24.52
833.34	25.23
833.514	25.19
833.687	25.48
833.86	25.32
834.034	24.72
834.207	24.83
834.38	24.49
834.553	23.74
834.727	24.49
834.9	25.18
835.073	25.22
835.246	25.32
835.419	24.92
835.593	24.07
835.766	24.12
835.939	25.16
836.112	24.75
836.285	24.96
836.458	25.46
836.631	25.32
836.804	24.56
836.977	24.99
837.15	25.54
837.323	25.99
837.496	27.18
837.669	27.34
837.842	27.17
838.015	27.04
838.188	27.79
838.361	27.54
838.533	27.39
838.706	27.47
838.879	26.66
839.052	27.07
839.225	26.96
839.398	25.57
839.57	25.53
839.743	26.03
839.916	25.44
840.088	24.1
840.261	24.05
840.434	23.91
840.607	24.17
840.779	23.73
840.952	22.85
841.124	22.53
841.297	23.29
841.47	23.37
841.642	23.85
841.815	24.15
841.987	25.77
842.16	25
842.332	23
842.505	24.78
842.677	25.48
842.85	26.17
843.022	27.87
843.194	26.89
843.367	27.23
843.539	25.68
843.712	25.05
843.884	24.71
844.056	24.86
844.229	26.91
844.401	24.19
844.573	24.04
844.745	22.37
844.918	20.6
845.09	20
845.262	21.2
845.434	21.23
845.606	22.94
845.779	21.54
845.951	21.62
846.123	21.58
846.295	21.64
846.467	19.79
846.639	22.6
846.811	24.69
846.983	27.5
847.155	25.68
847.327	27.24
847.499	26.77
847.671	25.54
847.843	27.33
848.015	25.82
848.187	25.42
848.359	25.8
848.531	26.46
848.703	26.79
848.875	24.51
849.047	24.55
849.218	24.25
849.39	24.93
849.562	26.51
849.734	24.8
849.905	24.44
850.077	27.97
850.249	27.97
850.421	21.96
850.592	15.96
850.764	16.59
850.936	15.83
851.107	14.08
851.279	12.35
851.451	10.44
851.622	9.14
851.794	12.17
851.965	11.88
852.137	12.07
852.308	18.91
852.48	23.08
852.651	22.4
852.823	22.32
852.994	19.78
853.166	18.54
853.337	20.29
853.509	21.03
853.68	17.1
853.851	14.22
854.023	15.56
854.194	10.37
854.365	6.46
854.537	5.81
854.708	8.75
854.879	11.08
855.05	14.98
855.222	13.43
855.393	17.31
855.564	18.73
855.735	19.6
855.906	16.51
856.078	20.37
856.249	22.17
856.42	24.23
856.591	24.14
856.762	23.68
856.933	23.46
857.104	26.09
857.275	24.68
857.446	24.61
857.617	21.56
857.788	23.55
857.959	19.94
858.13	19.7
858.301	17.69
858.472	14.87
858.643	18.22
858.814	18.24
858.985	15.16
859.155	15.21
859.326	15.37
859.497	17.31
859.668	13.85
859.839	13.11
860.009	16.16
860.18	19.54
860.351	20.59
860.522	19.36
860.692	17.57
860.863	17.37
861.034	17.94
861.204	17.91
861.375	19.3
861.546	18.88
861.716	18.11
861.887	16.77
862.057	14.46
862.228	14.96
862.398	13.33
862.569	11.31
862.739	12.53
862.91	10.88
863.08	11.42
863.251	13.36
863.421	20.26
863.592	22.4
863.762	20.19
863.932	20.52
864.103	21.61
864.273	26.72
864.443	26.68
864.614	25.42
864.784	22.77
864.954	21.75
865.125	19.96
865.295	16.07
865.465	15.91
865.635	19.8
865.805	17.28
865.976	14.93
866.146	10.31
866.316	11.03
866.486	16.84
866.656	18.66
866.826	20.28
866.996	18.61
867.166	19.33
867.336	20.37
867.506	14.9
867.676	17.79
867.846	24.68
868.016	25.06
868.186	27.68
868.356	28.44
868.526	28.33
868.696	29.14
868.866	30.43
869.036	30.93
869.206	29.87
869.376	32.26
869.545	32.68
869.715	29.74
869.885	29.51
870.055	30.84
870.224	27.2
870.394	24.92
870.564	20.37
870.734	22.71
870.903	24
871.073	24.48
871.243	22.37
871.412	20.28
871.582	17.68
871.751	17.7
871.921	17.34
872.091	18.22
872.26	22.16
872.43	20.58
872.599	15.8
872.769	12.84
872.938	15.32
873.108	17.04
873.277	21.03
873.446	20.07
873.616	22.49
873.785	22.85
873.955	20.13
874.124	18.39
874.293	22.65
874.463	25.9
874.632	26.19
874.801	27.28
874.971	28.34
875.14	26.06
875.309	27.05
875.478	26.1
875.647	26.64
875.817	27.93
875.986	29.02
876.155	30.74
876.324	30.47
876.493	34.13
876.662	33.16
876.831	33.17
877	31.74
877.17	33.1
877.339	30.6
877.508	30.92
877.677	31.93
877.846	30.13
878.015	28.58
878.184	29.81
878.352	26.77
878.521	23.92
878.69	23.29
878.859	25
879.028	23.91
879.197	26.13
879.366	25.39
879.534	25.39
879.703	25.95
879.872	25.84
880.041	24.71
880.21	25.86
880.378	25.81
880.547	25.15
880.716	24.71
880.884	25.63
881.053	24.98
881.222	24.58
881.39	23.56
881.559	24.26
881.727	24.51
881.896	23.93
882.065	23.29
882.233	23.73
882.402	24.66
882.57	24.59
882.739	24.68
882.907	25.06
883.076	25.42
883.244	26.6
883.412	26.67
883.581	26.39
883.749	26.88
883.918	26.98
884.086	26.09
884.254	25.34
884.423	25.01
884.591	25.01
884.759	24.24
884.927	23.07
885.096	22.32
885.264	20.53
885.432	20.08
885.6	19.2
885.769	18.51
885.937	20.87
886.105	21.2
886.273	22.5
886.441	19.68
886.609	20.92
886.777	20.07
886.945	20.41
887.113	21.1
887.281	20.16
887.449	20.79
887.617	23.55
887.785	26.17
887.953	23.34
888.121	20.68
888.289	21.52
888.457	18.56
888.625	22.14
888.793	19.97
888.961	18.97
889.129	21.86
889.296	23.49
889.464	21.18
889.632	13.28
889.8	17.21
889.967	19.44
890.135	21.52
