Data from 2938530_Reflection_1.txt Node
Date: Tue Jun 16 00:12:54 EDT 2015
User: robert
Spectrometer: USB4E03002
Autoset integration time: false
Trigger mode: 4
Integration Time (sec): 1.000000E-1
Scans to average: 10
Electric dark correction enabled: true
Nonlinearity correction enabled: false
Boxcar width: 6
Stray light correction enabled: false
XAxis mode: Wavelengths
Stop averaging: false
Number of Pixels in Spectrum: 3648
>>>>>Begin Spectral Data<<<<<
177.575	-109.82
177.794	-63.75
178.014	10.07
178.233	-19.49
178.452	20.69
178.672	-6.36
178.891	-78.57
179.11	-34.26
179.33	37.34
179.549	51.21
179.768	22.07
179.987	-21.44
180.207	-7.82
180.426	7.87
180.645	35.9
180.864	52.96
181.084	5.06
181.303	-20.83
181.522	-52.89
181.741	-52.8
181.96	-44.7
182.179	-12.05
182.398	-155.47
182.618	-118.75
182.837	123.46
183.056	-157.14
183.275	242.31
183.494	381.25
183.713	383.53
183.932	127.78
184.151	227.87
184.37	120.3
184.589	181.86
184.808	131.94
185.027	152.99
185.246	119.59
185.465	130.26
185.684	138.69
185.903	123.92
186.122	142.51
186.341	128.47
186.56	122.14
186.779	141.37
186.998	153.4
187.216	150.37
187.435	155.92
187.654	187.26
187.873	163.74
188.092	244.26
188.311	178.47
188.53	235.12
188.748	366.67
188.967	216.05
189.186	461.82
189.405	298.88
189.623	305
189.842	188.56
190.061	233.24
190.28	137.24
190.498	157.12
190.717	172.35
190.936	129.49
191.154	107.07
191.373	90.11
191.592	99.41
191.81	142.79
192.029	97.91
192.248	135.35
192.466	-670
192.685	-448.72
192.904	42.5
193.122	263.64
193.341	109.76
193.559	213.95
193.778	187.18
193.996	703.23
194.215	171.47
194.433	191.61
194.652	240.17
194.87	308.24
195.089	368.02
195.307	251.13
195.526	238.46
195.744	593.92
195.963	346.18
196.181	333.84
196.399	268.17
196.618	409.92
196.836	422.75
197.055	561.82
197.273	1232.89
197.491	818.85
197.71	783.33
197.928	664.52
198.146	877.33
198.365	-690.22
198.583	-474.14
198.801	-204.7
199.019	-97.5
199.238	-80.22
199.456	-167.41
199.674	-246.51
199.892	-170.35
200.111	-932.26
200.329	425
200.547	184.5
200.765	144.76
200.983	144.02
201.202	132.91
201.42	112
201.638	158.41
201.856	118.98
202.074	134.56
202.292	178.74
202.51	250
202.728	391.67
202.946	734.55
203.165	372.95
203.383	671.77
203.601	443.08
203.819	3866.67
204.037	489.44
204.255	643.88
204.473	235.25
204.691	-852.5
204.909	-159.77
205.127	42.91
205.345	-79.78
205.562	39.68
205.78	60.09
205.998	45.55
206.216	21.04
206.434	32.59
206.652	-5.37
206.87	40
207.088	53.74
207.306	56.72
207.523	45.45
207.741	-195.71
207.959	230.77
208.177	126.67
208.395	68.6
208.612	63.94
208.83	45.96
209.048	26.32
209.266	28.12
209.483	24.2
209.701	22.36
209.919	46.15
210.136	66.98
210.354	71.68
210.572	36.6
210.79	-12.59
211.007	-2.8
211.225	4.79
211.442	17.65
211.66	54.35
211.878	-72.22
212.095	-58.87
212.313	-37.07
212.53	-41.11
212.748	-58.11
212.966	-53.26
213.183	-78.71
213.401	-61.94
213.618	-50.2
213.836	-59.03
214.053	-66.15
214.271	-83.3
214.488	-98.9
214.705	52.85
214.923	30.97
215.14	36.17
215.358	59.51
215.575	67.29
215.793	57.47
216.01	51.03
216.227	67.48
216.445	83.5
216.662	80.75
216.879	98.77
217.097	85.8
217.314	87.72
217.531	81.81
217.749	120.69
217.966	103.32
218.183	89.64
218.4	100.36
218.618	115.04
218.835	86.49
219.052	85.45
219.269	88.15
219.487	83.97
219.704	70.54
219.921	62.19
220.138	46.04
220.355	51.23
220.572	41.31
220.79	40
221.007	29.59
221.224	10.08
221.441	8.82
221.658	11.9
221.875	3.6
222.092	8.36
222.309	12.34
222.526	19.05
222.743	22.47
222.96	21.01
223.177	14.58
223.394	12.41
223.611	5.57
223.828	2.35
224.045	6.61
224.262	8.48
224.479	6.35
224.696	3.42
224.913	-1.78
225.13	0.8
225.347	1.42
225.564	2.05
225.781	4.81
225.997	6.84
226.214	8.16
226.431	10.3
226.648	12.03
226.865	11.48
227.082	10.84
227.298	10.86
227.515	12.45
227.732	13.25
227.949	13.47
228.165	13.16
228.382	13.12
228.599	13.24
228.816	13.11
229.032	12.37
229.249	11.07
229.466	10.67
229.682	11.74
229.899	10.38
230.116	10.26
230.332	8.34
230.549	7.95
230.765	6.49
230.982	6.37
231.199	7.08
231.415	5.53
231.632	5.59
231.848	6.74
232.065	9.2
232.281	9.14
232.498	9.45
232.714	13.04
232.931	15.57
233.147	15.54
233.364	14.97
233.58	16.46
233.797	17.32
234.013	16.33
234.23	16.15
234.446	14.87
234.662	15.61
234.879	15.43
235.095	16.11
235.312	15.43
235.528	14.6
235.744	11.9
235.961	11.37
236.177	10.78
236.393	9.93
236.61	7.6
236.826	9.24
237.042	7.11
237.258	8.21
237.475	8.13
237.691	7.23
237.907	8.08
238.123	8.73
238.339	6.34
238.556	8.35
238.772	10.54
238.988	11.64
239.204	10.73
239.42	10.52
239.636	10.17
239.853	11.85
240.069	11.91
240.285	11.57
240.501	11.06
240.717	10.38
240.933	10.11
241.149	11.06
241.365	10.58
241.581	9.56
241.797	9.44
242.013	9.6
242.229	10.32
242.445	9.98
242.661	9.64
242.877	9.45
243.093	9.6
243.309	10.06
243.525	9.87
243.741	9.59
243.957	8.79
244.173	8.67
244.388	8.8
244.604	7.94
244.82	8.24
245.036	7.9
245.252	8.03
245.468	8.32
245.683	8.1
245.899	8.03
246.115	8.06
246.331	8.29
246.547	8.21
246.762	8.97
246.978	9.13
247.194	9.08
247.409	9.8
247.625	9.12
247.841	9.26
248.057	9.54
248.272	9.17
248.488	9.61
248.703	9.21
248.919	8.67
249.135	8.82
249.35	8.16
249.566	7.22
249.782	6.8
249.997	6.79
250.213	6.47
250.428	6.92
250.644	7.55
250.859	7.51
251.075	7.8
251.29	7.69
251.506	7.74
251.721	8.29
251.937	8.14
252.152	8.68
252.368	9.32
252.583	9.62
252.798	9.93
253.014	10.62
253.229	10.96
253.445	10.33
253.66	9.82
253.875	9.41
254.091	9.33
254.306	9.89
254.521	9.81
254.737	9.37
254.952	9.51
255.167	9.08
255.383	8.65
255.598	8.06
255.813	7.31
256.028	6.96
256.244	6.4
256.459	6.71
256.674	6.62
256.889	6.09
257.104	6.23
257.32	5.84
257.535	5.74
257.75	5.61
257.965	5.39
258.18	5.68
258.395	5.59
258.61	5.53
258.826	5.65
259.041	5.97
259.256	5.88
259.471	6.01
259.686	6.16
259.901	6.06
260.116	6.01
260.331	6.04
260.546	5.95
260.761	5.74
260.976	5.44
261.191	5.57
261.406	5.27
261.621	5.5
261.836	4.57
262.05	4.52
262.265	4.38
262.48	4.3
262.695	4.29
262.91	4.42
263.125	4.96
263.34	5.64
263.555	6.29
263.769	5.49
263.984	5.99
264.199	7.73
264.414	7.44
264.629	8.47
264.843	8.49
265.058	7.71
265.273	8.13
265.488	7.21
265.702	7.67
265.917	7.5
266.132	7.29
266.346	6.93
266.561	7.35
266.776	6.88
266.99	6.17
267.205	5.83
267.42	5.6
267.634	5.64
267.849	6.18
268.063	6.31
268.278	6.75
268.492	6.87
268.707	6.6
268.922	6.2
269.136	5.94
269.351	5.94
269.565	5.77
269.78	5.39
269.994	6.29
270.209	6.09
270.423	5.73
270.637	5.24
270.852	4.75
271.066	4.87
271.281	4.71
271.495	4.93
271.709	5.24
271.924	5.75
272.138	5.96
272.353	6.38
272.567	6.44
272.781	5.92
272.996	6.14
273.21	6.4
273.424	7.34
273.638	7.84
273.853	7.92
274.067	7.71
274.281	7.49
274.495	8.04
274.71	7.42
274.924	7.19
275.138	7.19
275.352	7.38
275.566	7.56
275.781	7.71
275.995	7.79
276.209	7.82
276.423	7.09
276.637	6.91
276.851	6.84
277.065	7.03
277.279	6.68
277.493	6.77
277.707	6.83
277.921	6.82
278.135	6.42
278.349	6.32
278.563	6.21
278.777	6.39
278.991	6.09
279.205	6.49
279.419	6.62
279.633	7.06
279.847	7.11
280.061	6.61
280.275	7.29
280.489	6.83
280.703	6.37
280.917	6.41
281.131	6.14
281.344	5.92
281.558	5.63
281.772	5.54
281.986	5.39
282.2	5.23
282.414	4.99
282.627	4.61
282.841	4.67
283.055	4.25
283.269	4.52
283.482	4.92
283.696	5.03
283.91	4.91
284.123	5.05
284.337	5.18
284.551	5.2
284.764	5.23
284.978	5.42
285.192	5.66
285.405	5.97
285.619	6.07
285.833	5.94
286.046	5.95
286.26	6.1
286.473	6.19
286.687	6.45
286.9	6.44
287.114	6.35
287.327	6.06
287.541	6.16
287.754	6.16
287.968	5.82
288.181	6.15
288.395	6.25
288.608	6.45
288.822	6.77
289.035	6.91
289.248	7.27
289.462	7.67
289.675	7.79
289.889	7.84
290.102	8.16
290.315	8.09
290.529	8.14
290.742	8.36
290.955	8.21
291.169	8.39
291.382	8.66
291.595	8.72
291.808	8.78
292.022	8.61
292.235	8.52
292.448	7.97
292.661	7.91
292.875	8.32
293.088	8.47
293.301	8.26
293.514	7.86
293.727	7.69
293.94	7.72
294.153	7.57
294.367	7.14
294.58	6.81
294.793	6.79
295.006	6.42
295.219	6.7
295.432	7.03
295.645	6.76
295.858	6.69
296.071	6.8
296.284	7.23
296.497	7.14
296.71	7.11
296.923	7.23
297.136	7.29
297.349	7.47
297.562	7.59
297.775	8.17
297.988	8.07
298.201	7.66
298.414	7.85
298.626	8.11
298.839	8.23
299.052	8.02
299.265	8.15
299.478	8.15
299.691	7.82
299.903	8.09
300.116	8.49
300.329	8.11
300.542	8.26
300.755	8.38
300.967	8.44
301.18	8.56
301.393	8.2
301.605	8.27
301.818	8.49
302.031	8.62
302.243	8.5
302.456	8.48
302.669	8.85
302.881	8.56
303.094	8.78
303.307	8.72
303.519	9.13
303.732	9.47
303.944	9.19
304.157	9.65
304.37	9.53
304.582	9.8
304.795	9.8
305.007	9.98
305.22	10.36
305.432	10.32
305.645	10.23
305.857	10.3
306.069	9.84
306.282	9.82
306.494	9.9
306.707	9.83
306.919	9.42
307.132	9.3
307.344	8.82
307.556	8.85
307.769	8.81
307.981	8.47
308.193	8.37
308.406	8.49
308.618	8.4
308.83	8.5
309.043	8.56
309.255	8.52
309.467	8.48
309.679	8.73
309.892	8.69
310.104	8.76
310.316	8.5
310.528	8.57
310.74	8.88
310.953	8.69
311.165	8.5
311.377	8.52
311.589	8.73
311.801	8.63
312.013	8.43
312.225	8.64
312.437	8.47
312.649	8.26
312.862	7.9
313.074	8.55
313.286	8.51
313.498	8.21
313.71	8.27
313.922	8.22
314.134	8.22
314.346	7.89
314.558	7.69
314.77	8.02
314.982	7.92
315.193	8.08
315.405	8.54
315.617	9.25
315.829	8.49
316.041	8.33
316.253	8.74
316.465	8.81
316.677	9.04
316.888	9.29
317.1	8.89
317.312	9.18
317.524	9.23
317.736	9.44
317.947	9.4
318.159	9.4
318.371	8.76
318.583	9.08
318.794	9.45
319.006	9.16
319.218	8.83
319.43	8.66
319.641	8.35
319.853	8.84
320.064	8.47
320.276	8.13
320.488	8.42
320.699	8.36
320.911	8.27
321.123	8.92
321.334	9.33
321.546	8.92
321.757	9.25
321.969	9.39
322.18	9.67
322.392	10.05
322.603	9.95
322.815	10.17
323.026	10.1
323.238	9.94
323.449	10.2
323.661	10.56
323.872	10.15
324.083	10.05
324.295	10.04
324.506	9.86
324.718	10.08
324.929	10.04
325.14	9.91
325.352	9.78
325.563	9.78
325.774	9.87
325.986	9.59
326.197	9.49
326.408	8.97
326.62	9.11
326.831	8.84
327.042	9.14
327.253	8.94
327.464	9.06
327.676	8.97
327.887	9.21
328.098	9.67
328.309	9.84
328.52	10.04
328.732	10.04
328.943	10.1
329.154	10.75
329.365	10.73
329.576	10.91
329.787	11.2
329.998	11.22
330.209	11.22
330.42	11.36
330.631	10.78
330.842	10.75
331.053	10.48
331.264	10.49
331.475	10.94
331.686	11.11
331.897	11.3
332.108	11.56
332.319	11.74
332.53	11.09
332.741	11.1
332.952	11.17
333.163	11.06
333.374	11.37
333.585	11.06
333.795	11.04
334.006	11
334.217	10.82
334.428	10.52
334.639	10.41
334.849	10.43
335.06	10.38
335.271	10.63
335.482	10.78
335.692	10.85
335.903	10.69
336.114	10.75
336.325	10.98
336.535	11.16
336.746	11.52
336.957	11.51
337.167	11.5
337.378	11.51
337.589	11.53
337.799	11.75
338.01	11.71
338.22	11.63
338.431	11.52
338.642	11.63
338.852	11.35
339.063	11.03
339.273	11.06
339.484	10.81
339.694	10.46
339.905	10.63
340.115	10.26
340.326	10.33
340.536	9.73
340.746	9.82
340.957	9.83
341.167	9.32
341.378	9.19
341.588	9.44
341.799	9.47
342.009	9.32
342.219	9.26
342.43	9.54
342.64	9.57
342.85	9.88
343.061	9.84
343.271	9.93
343.481	10.03
343.691	10.12
343.902	10.4
344.112	10.33
344.322	10.21
344.532	10.02
344.743	9.97
344.953	9.39
345.163	9.48
345.373	9.51
345.583	9.48
345.793	9.12
346.004	9.31
346.214	9
346.424	8.83
346.634	9.01
346.844	9
347.054	8.97
347.264	9.29
347.474	9.21
347.684	10
347.894	10
348.104	10.08
348.314	9.87
348.524	9.64
348.734	9.58
348.944	9.73
349.154	9.67
349.364	9.54
349.574	9.27
349.784	9.47
349.994	9.15
350.204	9.08
350.413	9.07
350.623	8.73
350.833	8.34
351.043	8.18
351.253	8.57
351.463	8.47
351.672	8.43
351.882	8.64
352.092	8.82
352.302	9.14
352.511	8.96
352.721	8.98
352.931	9.16
353.141	8.95
353.35	9.07
353.56	9.27
353.77	9.4
353.979	9.43
354.189	9.46
354.399	9.55
354.608	9.6
354.818	9.43
355.027	9.19
355.237	9.25
355.447	9.45
355.656	9.37
355.866	9.4
356.075	9.38
356.285	9.48
356.494	9.38
356.704	9.23
356.913	9.22
357.123	9.27
357.332	9.1
357.542	9.14
357.751	9.46
357.96	9.45
358.17	9.68
358.379	9.75
358.589	9.58
358.798	9.61
359.007	9.43
359.217	9.28
359.426	9.36
359.635	9.33
359.845	9.17
360.054	9.19
360.263	9.14
360.472	9.11
360.682	9.02
360.891	8.67
361.1	8.55
361.309	8.5
361.519	8.42
361.728	8.59
361.937	8.75
362.146	8.68
362.355	8.8
362.564	8.68
362.774	8.65
362.983	8.63
363.192	8.6
363.401	8.59
363.61	8.71
363.819	8.6
364.028	8.49
364.237	8.41
364.446	8.35
364.655	8.42
364.864	8.42
365.073	8.21
365.282	8.41
365.491	8.39
365.7	8.38
365.909	8.42
366.118	8.51
366.327	8.43
366.536	8.51
366.745	8.86
366.954	8.79
367.162	8.49
367.371	8.54
367.58	8.6
367.789	8.49
367.998	8.69
368.207	8.67
368.415	8.47
368.624	8.2
368.833	8.21
369.042	8.56
369.25	8.8
369.459	8.57
369.668	8.77
369.877	8.73
370.085	8.49
370.294	8.32
370.503	8.5
370.711	8.2
370.92	8.14
371.129	8.19
371.337	8.23
371.546	8.14
371.754	7.59
371.963	7.45
372.171	7.59
372.38	7.36
372.589	7.49
372.797	7.71
373.006	7.68
373.214	7.63
373.423	7.43
373.631	7.42
373.84	7.52
374.048	7.37
374.256	7.32
374.465	7.44
374.673	7.13
374.882	7.15
375.09	7.16
375.298	7.1
375.507	6.79
375.715	6.91
375.923	6.97
376.132	7.05
376.34	7.16
376.548	7.23
376.757	7.29
376.965	7.2
377.173	7.13
377.381	7.25
377.59	7.13
377.798	7.26
378.006	7.21
378.214	7.2
378.423	7.3
378.631	6.93
378.839	7.01
379.047	6.88
379.255	6.53
379.463	6.67
379.671	6.76
379.879	6.98
380.088	6.98
380.296	7.03
380.504	6.87
380.712	6.86
380.92	7.08
381.128	6.79
381.336	6.88
381.544	6.86
381.752	6.85
381.96	6.9
382.168	6.68
382.376	6.8
382.584	6.84
382.791	6.8
382.999	6.86
383.207	6.89
383.415	6.88
383.623	6.71
383.831	6.72
384.039	6.76
384.247	6.66
384.454	6.57
384.662	6.65
384.87	6.72
385.078	6.39
385.285	6.3
385.493	6.44
385.701	6.32
385.909	6.31
386.116	6.28
386.324	6.3
386.532	6.31
386.739	6.19
386.947	6.15
387.155	6.21
387.362	6.28
387.57	6.41
387.778	6.63
387.985	6.59
388.193	6.48
388.4	6.5
388.608	6.45
388.816	6.52
389.023	6.58
389.231	6.48
389.438	6.62
389.646	6.58
389.853	6.51
390.061	6.29
390.268	6.17
390.475	6.05
390.683	5.9
390.89	5.88
391.098	5.82
391.305	5.8
391.512	5.67
391.72	5.66
391.927	5.56
392.135	5.29
392.342	5.31
392.549	5.26
392.756	5.36
392.964	5.19
393.171	5.01
393.378	5.14
393.586	5.2
393.793	5.04
394	5
394.207	5.07
394.414	4.89
394.622	5
394.829	5.13
395.036	5.09
395.243	5.2
395.45	5.2
395.657	5.2
395.864	5.22
396.072	5.1
396.279	4.99
396.486	5.01
396.693	5.02
396.9	5.07
397.107	5.21
397.314	5.19
397.521	5.18
397.728	5.05
397.935	4.8
398.142	4.75
398.349	4.84
398.556	5.02
398.763	5.16
398.97	5.1
399.177	5.23
399.383	5.2
399.59	5.2
399.797	5.13
400.004	5.2
400.211	5.24
400.418	5.43
400.625	5.69
400.831	5.63
401.038	5.59
401.245	5.42
401.452	5.3
401.658	5.39
401.865	5.18
402.072	5.14
402.279	4.96
402.485	4.87
402.692	4.79
402.899	4.73
403.105	4.75
403.312	4.74
403.519	4.75
403.725	4.8
403.932	4.83
404.138	4.82
404.345	4.71
404.552	4.93
404.758	4.94
404.965	4.89
405.171	5.04
405.378	5.07
405.584	5.04
405.791	5
405.997	4.98
406.204	5.04
406.41	4.72
406.617	4.81
406.823	4.66
407.029	4.71
407.236	4.55
407.442	4.59
407.649	4.6
407.855	4.49
408.061	4.44
408.268	4.48
408.474	4.48
408.68	4.35
408.887	4.29
409.093	4.66
409.299	4.68
409.505	4.64
409.712	4.66
409.918	4.76
410.124	4.78
410.33	4.89
410.537	4.89
410.743	4.8
410.949	4.85
411.155	4.81
411.361	4.89
411.567	4.89
411.773	4.71
411.98	4.76
412.186	4.93
412.392	4.84
412.598	4.65
412.804	4.45
413.01	4.4
413.216	4.42
413.422	4.6
413.628	4.51
413.834	4.53
414.04	4.46
414.246	4.52
414.452	4.47
414.658	4.34
414.864	4.3
415.07	4.31
415.275	4.34
415.481	4.49
415.687	4.34
415.893	4.45
416.099	4.38
416.305	4.4
416.511	4.43
416.716	4.42
416.922	4.35
417.128	4.39
417.334	4.39
417.539	4.34
417.745	4.33
417.951	4.35
418.157	4.21
418.362	4.26
418.568	4.11
418.774	4.07
418.979	4.04
419.185	3.96
419.391	3.89
419.596	3.91
419.802	3.92
420.008	4.62
420.213	4.61
420.419	4.62
420.624	4.57
420.83	4.58
421.035	4.53
421.241	4.47
421.446	4.43
421.652	4.47
421.857	4.47
422.063	4.49
422.268	4.43
422.474	4.35
422.679	3.58
422.885	3.6
423.09	3.57
423.295	3.62
423.501	3.67
423.706	3.68
423.911	3.81
424.117	3.88
424.322	3.85
424.527	3.8
424.733	3.81
424.938	3.83
425.143	3.81
425.349	3.84
425.554	3.88
425.759	3.87
425.964	3.78
426.169	3.78
426.375	3.75
426.58	3.63
426.785	3.51
426.99	3.53
427.195	3.41
427.4	3.46
427.605	3.24
427.811	3.29
428.016	3.21
428.221	3.1
428.426	3.1
428.631	3.23
428.836	3.22
429.041	3.33
429.246	3.34
429.451	3.38
429.656	3.31
429.861	3.49
430.066	3.4
430.271	3.64
430.476	3.68
430.681	3.78
430.886	3.89
431.09	3.87
431.295	3.83
431.5	3.83
431.705	3.74
431.91	3.86
432.115	3.91
432.32	3.91
432.524	3.88
432.729	3.92
432.934	3.9
433.139	3.86
433.343	3.79
433.548	3.69
433.753	3.75
433.958	3.7
434.162	3.63
434.367	3.66
434.572	3.56
434.776	3.55
434.981	3.48
435.186	3.43
435.39	3.32
435.595	3.22
435.799	3.28
436.004	3.34
436.209	3.3
436.413	3.22
436.618	3.2
436.822	3.36
437.027	3.31
437.231	3.28
437.436	3.21
437.64	3.3
437.845	3.32
438.049	3.39
438.253	3.39
438.458	3.31
438.662	3.25
438.867	3.33
439.071	3.28
439.275	3.26
439.48	3.16
439.684	3.13
439.888	3.17
440.093	3.17
440.297	3.16
440.501	3.16
440.706	3.17
440.91	3.2
441.114	3.2
441.318	3.24
441.523	3.12
441.727	3.17
441.931	3.2
442.135	3.11
442.339	3.19
442.543	3.15
442.748	3.19
442.952	3.21
443.156	3.25
443.36	3.24
443.564	3.27
443.768	3.33
443.972	3.3
444.176	3.36
444.38	3.33
444.584	3.33
444.788	3.36
444.992	3.29
445.196	3.29
445.4	3.26
445.604	3.23
445.808	3.19
446.012	3.12
446.216	3.07
446.42	3.06
446.624	3.08
446.828	3.06
447.032	3.07
447.235	2.97
447.439	2.96
447.643	3.03
447.847	3.02
448.051	2.98
448.254	3.06
448.458	3.11
448.662	3.2
448.866	3.28
449.069	3.28
449.273	3.24
449.477	3.21
449.681	3.21
449.884	3.32
450.088	3.37
450.292	3.31
450.495	3.33
450.699	3.33
450.902	3.16
451.106	3.09
451.31	3.04
451.513	2.98
451.717	2.9
451.92	2.92
452.124	3.03
452.327	2.94
452.531	2.93
452.734	2.93
452.938	2.79
453.141	2.69
453.345	2.66
453.548	2.75
453.752	2.74
453.955	2.75
454.158	2.75
454.362	2.77
454.565	2.81
454.769	2.76
454.972	2.82
455.175	2.73
455.379	2.72
455.582	2.88
455.785	2.85
455.988	2.86
456.192	2.78
456.395	2.74
456.598	2.72
456.801	2.72
457.005	2.77
457.208	2.74
457.411	2.74
457.614	2.77
457.817	2.82
458.021	2.86
458.224	2.88
458.427	2.89
458.63	2.92
458.833	2.97
459.036	2.99
459.239	2.94
459.442	2.91
459.645	2.92
459.848	2.92
460.051	2.86
460.254	2.9
460.457	2.92
460.66	2.87
460.863	2.86
461.066	3
461.269	2.95
461.472	2.86
461.675	2.91
461.878	2.97
462.081	3
462.284	2.97
462.486	2.96
462.689	3.05
462.892	3.08
463.095	2.99
463.298	2.98
463.5	3.02
463.703	2.93
463.906	2.97
464.109	3.02
464.311	2.99
464.514	3.09
464.717	3.14
464.92	3.17
465.122	3.15
465.325	3.22
465.528	3.15
465.73	3.18
465.933	3.21
466.135	3.18
466.338	3.22
466.541	3.25
466.743	3.3
466.946	3.38
467.148	3.35
467.351	3.4
467.553	3.35
467.756	3.33
467.958	3.28
468.161	3.27
468.363	3.29
468.566	3.27
468.768	3.18
468.971	3.21
469.173	3.16
469.375	3.25
469.578	3.24
469.78	3.29
469.983	3.17
470.185	3.25
470.387	3.34
470.59	3.35
470.792	3.38
470.994	3.49
471.196	3.49
471.399	3.59
471.601	3.49
471.803	3.58
472.005	3.47
472.208	3.49
472.41	3.51
472.612	3.54
472.814	3.5
473.016	3.44
473.218	3.4
473.421	3.41
473.623	3.35
473.825	3.32
474.027	3.19
474.229	3.23
474.431	3.07
474.633	3.1
474.835	3.06
475.037	2.93
475.239	2.98
475.441	2.92
475.643	2.95
475.845	2.97
476.047	2.99
476.249	2.89
476.451	2.95
476.653	3.02
476.855	3.05
477.057	3.06
477.258	3.04
477.46	3
477.662	3.08
477.864	3.03
478.066	3.05
478.268	3.09
478.469	3.07
478.671	2.98
478.873	3
479.075	3.01
479.276	2.99
479.478	2.92
479.68	3
479.882	2.94
480.083	2.93
480.285	2.88
480.487	2.87
480.688	2.89
480.89	2.89
481.091	2.91
481.293	2.91
481.495	2.91
481.696	2.9
481.898	2.92
482.099	2.95
482.301	2.92
482.502	2.91
482.704	2.9
482.905	2.9
483.107	2.91
483.308	2.85
483.51	2.82
483.711	2.8
483.913	2.81
484.114	2.82
484.315	2.79
484.517	2.76
484.718	2.75
484.92	2.8
485.121	2.8
485.322	2.84
485.524	2.87
485.725	2.85
485.926	2.9
486.127	2.91
486.329	2.94
486.53	2.94
486.731	2.93
486.932	2.9
487.134	2.91
487.335	2.89
487.536	2.85
487.737	2.87
487.938	2.83
488.139	2.85
488.341	2.84
488.542	2.83
488.743	2.85
488.944	2.87
489.145	2.86
489.346	2.93
489.547	2.99
489.748	3.04
489.949	3.07
490.15	3.08
490.351	3.1
490.552	3.13
490.753	3.09
490.954	3.12
491.155	3.13
491.356	3.13
491.557	3.09
491.758	3.12
491.959	3.11
492.159	3.1
492.36	3.03
492.561	3.03
492.762	3.07
492.963	3.07
493.164	3.09
493.364	3.08
493.565	3.11
493.766	3.08
493.967	3.19
494.167	3.31
494.368	3.29
494.569	3.28
494.769	3.35
494.97	3.4
495.171	3.38
495.371	3.37
495.572	3.43
495.773	3.45
495.973	3.48
496.174	3.56
496.375	3.67
496.575	3.63
496.776	3.6
496.976	3.63
497.177	3.71
497.377	3.69
497.578	3.71
497.778	3.8
497.979	3.9
498.179	3.87
498.38	3.89
498.58	3.9
498.78	3.79
498.981	3.77
499.181	3.76
499.382	3.71
499.582	3.81
499.782	3.71
499.983	3.75
500.183	3.77
500.383	3.7
500.584	3.77
500.784	3.81
500.984	3.84
501.184	3.93
501.385	3.98
501.585	3.96
501.785	4.02
501.985	4.04
502.185	4.02
502.386	4.05
502.586	4.2
502.786	4.2
502.986	4.26
503.186	4.14
503.386	4.22
503.586	4.28
503.786	4.3
503.987	4.37
504.187	4.42
504.387	4.45
504.587	4.49
504.787	4.5
504.987	4.51
505.187	4.49
505.387	4.54
505.587	4.72
505.786	4.83
505.986	4.82
506.186	4.89
506.386	5.01
506.586	4.98
506.786	5.13
506.986	5.18
507.186	5.28
507.386	5.38
507.585	5.51
507.785	5.53
507.985	5.66
508.185	5.59
508.384	5.62
508.584	5.7
508.784	5.72
508.984	5.75
509.183	5.9
509.383	5.91
509.583	5.88
509.782	5.97
509.982	5.99
510.182	6.02
510.381	6.07
510.581	6.13
510.781	6.1
510.98	6.18
511.18	6.25
511.379	6.23
511.579	6.22
511.778	6.17
511.978	6.15
512.177	6.26
512.377	6.18
512.576	6.17
512.776	6.27
512.975	6.34
513.175	6.3
513.374	6.49
513.573	6.59
513.773	6.61
513.972	6.75
514.172	6.82
514.371	6.98
514.57	7.07
514.77	7.18
514.969	7.33
515.168	7.49
515.367	7.48
515.567	7.52
515.766	7.63
515.965	7.65
516.164	7.66
516.364	7.74
516.563	7.73
516.762	7.76
516.961	7.8
517.16	7.88
517.359	7.87
517.559	7.87
517.758	7.88
517.957	7.96
518.156	8.01
518.355	8.05
518.554	8.08
518.753	8.11
518.952	8.16
519.151	8.26
519.35	8.36
519.549	8.43
519.748	8.52
519.947	8.59
520.146	8.69
520.345	8.67
520.544	8.76
520.743	8.76
520.942	8.85
521.141	8.93
521.339	9
521.538	9.03
521.737	9.13
521.936	9.21
522.135	9.28
522.333	9.32
522.532	9.44
522.731	9.57
522.93	9.67
523.129	9.69
523.327	9.8
523.526	9.81
523.725	9.89
523.923	9.95
524.122	9.98
524.321	10.01
524.519	10.02
524.718	10.11
524.917	10.2
525.115	10.26
525.314	10.32
525.512	10.42
525.711	10.53
525.909	10.59
526.108	10.62
526.306	10.62
526.505	10.64
526.703	10.69
526.902	10.69
527.1	10.68
527.299	10.64
527.497	10.62
527.696	10.59
527.894	10.55
528.092	10.52
528.291	10.47
528.489	10.47
528.688	10.48
528.886	10.46
529.084	10.47
529.283	10.47
529.481	10.53
529.679	10.62
529.877	10.73
530.076	10.82
530.274	10.9
530.472	10.99
530.67	11.08
530.869	11.19
531.067	11.27
531.265	11.33
531.463	11.42
531.661	11.5
531.859	11.51
532.057	11.53
532.255	11.46
532.454	11.46
532.652	11.46
532.85	11.48
533.048	11.56
533.246	11.59
533.444	11.6
533.642	11.58
533.84	11.67
534.038	11.78
534.236	11.8
534.434	11.9
534.632	11.98
534.83	12.18
535.027	12.25
535.225	12.31
535.423	12.37
535.621	12.36
535.819	12.45
536.017	12.49
536.215	12.58
536.412	12.59
536.61	12.58
536.808	12.56
537.006	12.63
537.203	12.68
537.401	12.73
537.599	12.81
537.797	12.92
537.994	13.05
538.192	13.19
538.39	13.27
538.587	13.4
538.785	13.55
538.983	13.6
539.18	13.63
539.378	13.7
539.575	13.68
539.773	13.72
539.97	13.7
540.168	13.68
540.366	13.66
540.563	13.62
540.761	13.62
540.958	13.61
541.155	13.59
541.353	13.52
541.55	13.48
541.748	13.48
541.945	13.5
542.143	13.55
542.34	13.56
542.537	13.64
542.735	13.68
542.932	13.72
543.129	13.82
543.327	13.92
543.524	13.97
543.721	14.05
543.919	14.17
544.116	14.31
544.313	14.45
544.51	14.53
544.708	14.58
544.905	14.66
545.102	14.64
545.299	14.71
545.496	14.79
545.693	14.84
545.891	14.83
546.088	14.86
546.285	14.84
546.482	14.85
546.679	14.86
546.876	14.85
547.073	14.79
547.27	14.83
547.467	14.8
547.664	14.84
547.861	14.97
548.058	14.95
548.255	15.03
548.452	15.18
548.649	15.31
548.846	15.51
549.043	15.62
549.24	15.76
549.437	15.85
549.633	16.03
549.83	16.09
550.027	16.26
550.224	16.25
550.421	16.19
550.618	16.42
550.814	16.5
551.011	16.54
551.208	16.49
551.405	16.5
551.601	16.58
551.798	16.62
551.995	16.66
552.191	16.66
552.388	16.69
552.585	16.62
552.781	16.87
552.978	17.03
553.175	17.11
553.371	17.17
553.568	17.11
553.764	17.2
553.961	17.35
554.157	17.37
554.354	17.45
554.55	17.56
554.747	17.72
554.943	17.92
555.14	18.07
555.336	18.09
555.533	18.21
555.729	18.14
555.926	18.24
556.122	18.39
556.318	18.6
556.515	18.48
556.711	18.67
556.907	18.64
557.104	18.72
557.3	18.72
557.496	18.71
557.693	18.83
557.889	18.93
558.085	18.89
558.281	19.1
558.478	19.12
558.674	19.17
558.87	19.29
559.066	19.31
559.262	19.24
559.459	19.41
559.655	19.51
559.851	19.63
560.047	19.75
560.243	19.85
560.439	19.86
560.635	20.02
560.831	20.06
561.027	20.15
561.223	20.2
561.419	20.2
561.615	20.47
561.811	20.6
562.007	20.58
562.203	20.7
562.399	20.75
562.595	20.84
562.791	20.82
562.987	20.94
563.183	21.01
563.379	21.1
563.575	21.2
563.771	21.32
563.966	21.38
564.162	21.39
564.358	21.41
564.554	21.53
564.75	21.52
564.945	21.6
565.141	21.64
565.337	21.71
565.533	21.77
565.728	21.86
565.924	21.87
566.12	21.88
566.315	21.89
566.511	22.02
566.707	22.13
566.902	22.22
567.098	22.27
567.293	22.35
567.489	22.49
567.684	22.57
567.88	22.71
568.076	22.63
568.271	22.66
568.467	22.7
568.662	22.74
568.858	22.82
569.053	22.88
569.248	22.93
569.444	22.98
569.639	23.12
569.835	23.17
570.03	23.19
570.225	23.23
570.421	23.32
570.616	23.47
570.812	23.53
571.007	23.62
571.202	23.67
571.397	23.78
571.593	23.83
571.788	24.01
571.983	24.09
572.178	24.12
572.374	24.2
572.569	24.31
572.764	24.41
572.959	24.47
573.154	24.52
573.35	24.6
573.545	24.64
573.74	24.72
573.935	24.73
574.13	24.67
574.325	24.54
574.52	24.56
574.715	24.52
574.91	24.51
575.105	24.61
575.3	24.59
575.495	24.68
575.69	24.8
575.885	24.74
576.08	24.8
576.275	24.79
576.47	24.88
576.665	25.13
576.86	25.2
577.055	25.3
577.25	25.44
577.444	25.46
577.639	25.42
577.834	25.59
578.029	25.56
578.224	25.63
578.418	25.78
578.613	25.91
578.808	25.99
579.003	26.12
579.197	26.05
579.392	26.23
579.587	26.25
579.781	26.25
579.976	26.42
580.171	26.46
580.365	26.49
580.56	26.6
580.755	26.59
580.949	26.64
581.144	26.62
581.338	26.63
581.533	26.58
581.727	26.61
581.922	26.52
582.116	26.54
582.311	26.58
582.505	26.64
582.7	26.58
582.894	26.55
583.089	26.44
583.283	26.58
583.478	26.64
583.672	26.63
583.866	26.68
584.061	26.74
584.255	26.81
584.449	26.89
584.644	26.96
584.838	27.02
585.032	26.96
585.226	27.13
585.421	27.13
585.615	27.22
585.809	27.36
586.003	27.31
586.198	27.4
586.392	27.43
586.586	27.45
586.78	27.5
586.974	27.6
587.168	27.59
587.363	27.65
587.557	27.87
587.751	27.96
587.945	28.02
588.139	28.19
588.333	28.01
588.527	28.05
588.721	28.09
588.915	28.13
589.109	28.18
589.303	28.16
589.497	28.09
589.691	28.26
589.885	28.37
590.079	28.25
590.273	28.28
590.466	28.3
590.66	28.24
590.854	28.36
591.048	28.45
591.242	28.46
591.436	28.63
591.629	28.7
591.823	28.78
592.017	28.91
592.211	28.95
592.404	28.88
592.598	28.92
592.792	28.92
592.986	29.09
593.179	29.2
593.373	29.16
593.567	29.23
593.76	29.26
593.954	29.36
594.147	29.4
594.341	29.43
594.535	29.46
594.728	29.49
594.922	29.6
595.115	29.64
595.309	29.77
595.502	29.69
595.696	29.57
595.889	29.56
596.083	29.59
596.276	29.5
596.47	29.42
596.663	29.37
596.856	29.35
597.05	29.41
597.243	29.42
597.437	29.41
597.63	29.47
597.823	29.48
598.017	29.55
598.21	29.67
598.403	29.75
598.596	29.73
598.79	29.98
598.983	29.9
599.176	29.98
599.369	30.04
599.563	30.18
599.756	30.19
599.949	30.26
600.142	30.34
600.335	30.31
600.528	30.45
600.722	30.6
600.915	30.69
601.108	30.7
601.301	30.69
601.494	30.93
601.687	31.02
601.88	31.1
602.073	31.06
602.266	31.09
602.459	31.11
602.652	31.12
602.845	31.1
603.038	31.07
603.231	30.97
603.424	30.97
603.617	30.98
603.809	30.97
604.002	30.99
604.195	30.89
604.388	30.79
604.581	30.81
604.774	30.78
604.966	30.72
605.159	30.65
605.352	30.64
605.545	30.55
605.737	30.61
605.93	30.56
606.123	30.68
606.316	30.79
606.508	30.77
606.701	30.84
606.894	30.99
607.086	30.85
607.279	30.88
607.471	31.02
607.664	31.1
607.857	31.09
608.049	31.11
608.242	31.07
608.434	31.15
608.627	31.09
608.819	31.08
609.012	31.08
609.204	31.09
609.397	31.08
609.589	31.07
609.782	31.14
609.974	31.09
610.166	31.09
610.359	31.21
610.551	31.32
610.743	31.31
610.936	31.16
611.128	31.26
611.32	31.15
611.513	31.12
611.705	31.12
611.897	31.19
612.09	31.5
612.282	31.54
612.474	31.54
612.666	31.65
612.858	31.7
613.051	31.75
613.243	31.82
613.435	31.89
613.627	31.93
613.819	32.31
614.011	32.39
614.203	32.52
614.395	32.4
614.588	32.13
614.78	32.23
614.972	32.24
615.164	32.22
615.356	32.14
615.548	32.16
615.74	32.31
615.932	32.4
616.124	32.26
616.315	32.05
616.507	32.01
616.699	31.95
616.891	32.02
617.083	32.16
617.275	31.98
617.467	32.16
617.659	32.29
617.85	32.28
618.042	32.33
618.234	32.23
618.426	32.39
618.618	32.35
618.809	32.31
619.001	32.5
619.193	32.6
619.384	32.67
619.576	32.7
619.768	32.95
619.959	32.87
620.151	32.71
620.343	32.71
620.534	32.78
620.726	32.95
620.917	32.75
621.109	32.96
621.301	33.19
621.492	33.03
621.684	32.94
621.875	32.99
622.067	32.86
622.258	32.82
622.45	32.76
622.641	32.84
622.832	32.96
623.024	32.88
623.215	32.86
623.407	33
623.598	32.98
623.789	32.94
623.981	33.02
624.172	33.1
624.363	33.18
624.555	33.29
624.746	33.34
624.937	33.37
625.129	33.27
625.32	33.24
625.511	33.19
625.702	33.15
625.893	33.26
626.085	33.26
626.276	33.28
626.467	33.26
626.658	33.28
626.849	33.19
627.04	33.33
627.231	33.31
627.422	33.37
627.614	33.47
627.805	33.56
627.996	33.68
628.187	33.7
628.378	33.72
628.569	33.79
628.76	33.88
628.951	34
629.142	34.08
629.332	34.18
629.523	34.05
629.714	34.14
629.905	34.14
630.096	34.17
630.287	34.02
630.478	34.15
630.669	34.13
630.859	33.97
631.05	33.98
631.241	33.69
631.432	33.55
631.623	33.62
631.813	33.59
632.004	33.53
632.195	33.49
632.385	33.53
632.576	33.4
632.767	33.35
632.957	33.29
633.148	33.29
633.339	33.4
633.529	33.43
633.72	33.54
633.91	33.62
634.101	33.55
634.292	33.6
634.482	33.71
634.673	33.77
634.863	33.62
635.054	33.87
635.244	33.92
635.435	33.95
635.625	33.83
635.815	33.93
636.006	33.96
636.196	34.05
636.387	34.32
636.577	34.32
636.767	34.32
636.958	34.35
637.148	34.28
637.338	34.32
637.529	34.37
637.719	34.57
637.909	34.5
638.099	34.63
638.29	34.41
638.48	34.33
638.67	34.41
638.86	34.16
639.05	34.11
639.241	33.96
639.431	33.84
639.621	33.82
639.811	33.81
640.001	33.6
640.191	33.73
640.381	33.51
640.571	33.51
640.761	33.55
640.951	33.6
641.141	33.53
641.331	33.52
641.521	33.69
641.711	33.85
641.901	34.25
642.091	34.34
642.281	34.38
642.471	34.58
642.661	34.32
642.851	34.49
643.041	34.67
643.231	34.84
643.42	35.17
643.61	35.23
643.8	35.41
643.99	35.29
644.18	35.36
644.369	35.08
644.559	35.07
644.749	35.18
644.939	35.09
645.128	35.12
645.318	35.27
645.508	35.36
645.697	35.19
645.887	34.92
646.076	34.86
646.266	34.78
646.456	34.94
646.645	34.9
646.835	34.93
647.024	34.86
647.214	35.02
647.403	35.12
647.593	35.07
647.782	35.11
647.972	35.1
648.161	35.29
648.351	35.26
648.54	35.45
648.73	35.44
648.919	35.37
649.108	35.27
649.298	35.38
649.487	35.42
649.677	35.22
649.866	35.12
650.055	35.21
650.244	35.16
650.434	35.11
650.623	35.13
650.812	35.3
651.002	35.29
651.191	35.27
651.38	35.32
651.569	35.47
651.758	35.48
651.947	35.42
652.137	35.43
652.326	35.46
652.515	35.65
652.704	35.82
652.893	35.86
653.082	35.82
653.271	35.84
653.46	35.63
653.649	35.78
653.838	35.68
654.027	35.74
654.216	35.64
654.405	35.89
654.594	36.16
654.783	36.33
654.972	36.47
655.161	36.28
655.35	36.16
655.539	36.34
655.728	36.37
655.916	36.55
656.105	36.41
656.294	36.45
656.483	36.43
656.672	36.39
656.86	36.43
657.049	36.28
657.238	36.27
657.427	36.11
657.615	36.07
657.804	36.09
657.993	35.87
658.181	35.8
658.37	35.72
658.559	35.81
658.747	35.85
658.936	35.64
659.125	35.63
659.313	35.58
659.502	35.58
659.69	35.41
659.879	35.37
660.067	35.59
660.256	35.64
660.444	35.65
660.633	35.46
660.821	35.6
661.01	35.57
661.198	35.63
661.387	35.96
661.575	36.18
661.763	36.04
661.952	35.97
662.14	36.11
662.328	36.26
662.517	36.05
662.705	36.17
662.893	36.37
663.082	36.38
663.27	36.44
663.458	36.44
663.646	36.6
663.834	36.68
664.023	36.85
664.211	36.96
664.399	37.19
664.587	37.23
664.775	36.99
664.963	37.41
665.152	37.22
665.34	37.19
665.528	37.42
665.716	37.26
665.904	37.18
666.092	36.93
666.28	36.97
666.468	36.95
666.656	37.04
666.844	36.89
667.032	36.94
667.22	37.06
667.408	36.79
667.596	37.1
667.784	37.15
667.971	37.13
668.159	37.21
668.347	37.28
668.535	37.26
668.723	37.07
668.911	37.06
669.098	37.04
669.286	37.11
669.474	37.15
669.662	37.43
669.849	37.44
670.037	37.37
670.225	37.41
670.413	37.43
670.6	37.43
670.788	37.43
670.976	37.55
671.163	37.75
671.351	37.62
671.538	37.64
671.726	37.61
671.913	37.37
672.101	37.01
672.289	36.81
672.476	36.82
672.664	36.91
672.851	37.07
673.039	37.19
673.226	37.17
673.413	37.21
673.601	36.92
673.788	36.88
673.976	36.68
674.163	36.86
674.35	37.05
674.538	37.12
674.725	37.3
674.912	37.07
675.1	37.1
675.287	37.09
675.474	37
675.662	37.16
675.849	37.14
676.036	37.43
676.223	37.52
676.411	37.51
676.598	37.83
676.785	37.91
676.972	37.93
677.159	37.97
677.346	37.87
677.533	37.81
677.721	37.76
677.908	37.67
678.095	37.69
678.282	37.78
678.469	37.97
678.656	37.85
678.843	37.9
679.03	37.56
679.217	37.53
679.404	37.47
679.591	37.66
679.778	37.94
679.964	37.84
680.151	37.67
680.338	37.74
680.525	37.71
680.712	37.55
680.899	37.46
681.086	37.6
681.272	37.73
681.459	37.51
681.646	37.47
681.833	37.53
682.02	37.38
682.206	37.28
682.393	37.33
682.58	37.56
682.766	37.7
682.953	37.69
683.14	37.7
683.326	37.78
683.513	37.63
683.7	37.51
683.886	37.65
684.073	37.68
684.259	37.77
684.446	37.8
684.632	37.9
684.819	38.03
685.005	38.15
685.192	38.16
685.378	38.15
685.565	38.33
685.751	38.28
685.938	38.43
686.124	38.49
686.31	38.38
686.497	38.32
686.683	38.33
686.87	38.22
687.056	38.19
687.242	38.27
687.429	38.06
687.615	37.87
687.801	37.98
687.987	37.78
688.174	37.47
688.36	37.47
688.546	37.55
688.732	37.73
688.918	37.79
689.105	37.57
689.291	37.63
689.477	37.54
689.663	37.66
689.849	37.74
690.035	38.03
690.221	37.86
690.407	38.04
690.593	38.11
690.779	38.01
690.965	38.02
691.151	38.01
691.337	38.09
691.523	38.35
691.709	38.21
691.895	38.29
692.081	38.02
692.267	37.85
692.453	37.71
692.639	37.96
692.825	37.68
693.011	37.86
693.196	37.94
693.382	38.01
693.568	38.04
693.754	37.96
693.94	37.9
694.125	38.03
694.311	38.13
694.497	38.03
694.682	38.15
694.868	37.97
695.054	37.84
695.239	38.21
695.425	38.13
695.611	37.94
695.796	37.96
695.982	38.24
696.168	38.23
696.353	38.43
696.539	38.65
696.724	38.41
696.91	38.72
697.095	38.61
697.281	38.81
697.466	38.66
697.652	38.57
697.837	38.46
698.023	38.54
698.208	38.3
698.393	38.21
698.579	38.26
698.764	38.07
698.949	37.84
699.135	38.09
699.32	37.9
699.505	38.1
699.691	37.83
699.876	37.96
700.061	37.86
700.246	37.84
700.432	37.86
700.617	37.94
700.802	37.97
700.987	37.66
701.172	37.71
701.358	37.77
701.543	37.54
701.728	37.81
701.913	37.77
702.098	38.17
702.283	38.27
702.468	38.32
702.653	38.59
702.838	38.84
703.023	38.86
703.208	38.93
703.393	39.29
703.578	39.52
703.763	39.91
703.948	40.41
704.133	40.47
704.318	40.6
704.503	40.19
704.688	39.98
704.873	40.12
705.057	40.2
705.242	40.02
705.427	40.06
705.612	40.14
705.797	40.3
705.981	40.17
706.166	39.61
706.351	39.34
706.536	39.09
706.72	38.89
706.905	39.1
707.09	39.41
707.274	39.19
707.459	39.4
707.644	39.66
707.828	39.98
708.013	39.8
708.197	39.82
708.382	39.73
708.567	39.61
708.751	39.6
708.936	39.42
709.12	39.08
709.305	39.09
709.489	38.88
709.673	39.14
709.858	38.73
710.042	38.53
710.227	38.32
710.411	38.04
710.596	37.97
710.78	38.25
710.964	38.34
711.149	38.19
711.333	38.33
711.517	38.8
711.702	38.99
711.886	39
712.07	38.94
712.254	39.03
712.438	39.04
712.623	39.19
712.807	39.49
712.991	39.59
713.175	39.45
713.359	39.76
713.544	39.68
713.728	39.66
713.912	39.48
714.096	39.39
714.28	39.73
714.464	39.86
714.648	39.68
714.832	39.74
715.016	39.26
715.2	39.26
715.384	39.12
715.568	38.81
715.752	38.68
715.936	38.72
716.12	38.73
716.304	38.68
716.488	38.52
716.671	38.11
716.855	38.01
717.039	38.15
717.223	37.9
717.407	38.44
717.59	38.23
717.774	38.18
717.958	38.69
718.142	38.81
718.325	38.67
718.509	38.45
718.693	38.43
718.877	38.31
719.06	38.25
719.244	38.09
719.428	38.18
719.611	38.37
719.795	38.32
719.978	38.57
720.162	38.82
720.345	38.58
720.529	38.37
720.713	38.95
720.896	39.26
721.08	39.19
721.263	39.2
721.446	39.23
721.63	39.33
721.813	38.92
721.997	38.42
722.18	38.68
722.364	38.64
722.547	38.55
722.73	38.43
722.914	38.07
723.097	37.7
723.28	37.45
723.464	37.11
723.647	37.35
723.83	37.32
724.013	37.17
724.197	37.7
724.38	38.3
724.563	38.17
724.746	38.08
724.929	37.92
725.112	37.58
725.296	38.16
725.479	38.14
725.662	38.29
725.845	38.58
726.028	38.27
726.211	38.18
726.394	38.46
726.577	38.59
726.76	38.68
726.943	38.66
727.126	38.72
727.309	39.08
727.492	39.6
727.675	39.61
727.858	39.85
728.041	40
728.224	40.44
728.407	40.79
728.589	40.79
728.772	40.78
728.955	40.79
729.138	40.58
729.321	40.47
729.503	40.59
729.686	40.21
729.869	40.06
730.052	40.1
730.234	39.91
730.417	39.41
730.6	39.09
730.782	38.84
730.965	39.12
731.148	38.94
731.33	39.22
731.513	39.22
731.695	39.15
731.878	38.88
732.061	39.25
732.243	39.11
732.426	38.82
732.608	38.95
732.791	39.32
732.973	39.46
733.156	39.41
733.338	39.51
733.52	39.31
733.703	38.9
733.885	39
734.068	39.07
734.25	38.95
734.432	38.27
734.615	38.4
734.797	38.58
734.979	38.74
735.162	38.98
735.344	38.94
735.526	39.08
735.708	39.12
735.891	39.4
736.073	39.31
736.255	39.02
736.437	38.77
736.619	39.26
736.802	39.73
736.984	40.03
737.166	40.06
737.348	39.29
737.53	38.61
737.712	38.27
737.894	38.54
738.076	38.35
738.258	38.07
738.44	38.37
738.622	38.8
738.804	38.83
738.986	38.3
739.168	38.42
739.35	37.71
739.532	37.98
739.714	38.49
739.896	39.19
740.078	38.88
740.259	38.86
740.441	38.83
740.623	39.6
740.805	39.38
740.987	39.49
741.168	39.79
741.35	39.67
741.532	39.5
741.714	39.45
741.895	39.39
742.077	39.52
742.259	39.21
742.44	39.68
742.622	39.66
742.804	39.18
742.985	38.41
743.167	38.52
743.348	38.03
743.53	37.99
743.711	38.82
743.893	39.18
744.075	39.68
744.256	40.06
744.438	39.87
744.619	40.13
744.8	40.61
744.982	40.56
745.163	41.43
745.345	41.56
745.526	41.22
745.707	41.11
745.889	41.04
746.07	40.45
746.252	40.05
746.433	40.07
746.614	39.47
746.795	39.12
746.977	39.22
747.158	39.39
747.339	39.85
747.52	39.2
747.702	39.52
747.883	39.43
748.064	39.81
748.245	40.27
748.426	40.68
748.607	40.82
748.788	40.97
748.97	40.92
749.151	41.73
749.332	41.25
749.513	41.02
749.694	40
749.875	40.88
750.056	40.52
750.237	40.79
750.418	40.31
750.599	39.48
750.78	39.3
750.96	39.44
751.141	39.55
751.322	39.71
751.503	39.24
751.684	39.58
751.865	39.19
752.046	39.43
752.226	39.05
752.407	38.73
752.588	38.93
752.769	39.33
752.949	39.98
753.13	39.89
753.311	39.45
753.492	38.67
753.672	38.73
753.853	38.38
754.034	38.05
754.214	37.97
754.395	38.47
754.575	38.12
754.756	38.84
754.937	38.54
755.117	39.06
755.298	38.89
755.478	38.72
755.659	38.52
755.839	38.71
756.02	38
756.2	38.63
756.381	38.81
756.561	38.32
756.741	38.26
756.922	38.43
757.102	38.6
757.283	39.11
757.463	38.52
757.643	38.65
757.823	39.01
758.004	39.37
758.184	39.9
758.364	40.35
758.545	40.18
758.725	39.88
758.905	40.9
759.085	41.17
759.265	41.27
759.446	41.07
759.626	40.46
759.806	40.67
759.986	40.26
760.166	40.15
760.346	40.18
760.526	40.15
760.706	39.86
760.886	39.52
761.066	39.54
761.246	39.32
761.426	38.52
761.606	38.33
761.786	37.87
761.966	37.9
762.146	38.12
762.326	38.38
762.506	39.08
762.686	39.03
762.866	38.73
763.046	38.91
763.225	39.2
763.405	38.96
763.585	38.92
763.765	39.45
763.945	39.52
764.124	39.93
764.304	40.08
764.484	39.46
764.664	39.41
764.843	39.02
765.023	38.93
765.203	39.27
765.382	39.59
765.562	39.13
765.741	39.87
765.921	39.55
766.101	39.4
766.28	39.44
766.46	38.94
766.639	38.76
766.819	39.01
766.998	38.78
767.178	38.33
767.357	38.6
767.537	38.16
767.716	37.82
767.896	38.05
768.075	37.83
768.254	38.53
768.434	38.67
768.613	39.1
768.792	39.44
768.972	39.49
769.151	39.13
769.33	39.39
769.51	39.42
769.689	38.93
769.868	39.74
770.047	39.46
770.226	39.83
770.406	40.03
770.585	39.16
770.764	38.9
770.943	38.28
771.122	38.11
771.301	37.48
771.48	37.96
771.66	37.59
771.839	37.59
772.018	37.6
772.197	37.11
772.376	37.5
772.555	37.54
772.734	36.87
772.913	36.99
773.092	36.96
773.271	36.87
773.449	37.92
773.628	38.72
773.807	38.1
773.986	38.26
774.165	39.26
774.344	39.77
774.523	39.51
774.701	39.08
774.88	38.34
775.059	38.91
775.238	38.9
775.417	39.06
775.595	38.67
775.774	37.81
775.953	36.99
776.131	37.14
776.31	37.89
776.489	37.02
776.667	36.56
776.846	36.55
777.025	36.85
777.203	36.88
777.382	36.3
777.56	36.64
777.739	36.45
777.917	37.16
778.096	36.24
778.274	36.42
778.453	37.46
778.631	36.27
778.81	35.78
778.988	36.35
779.166	36.2
779.345	35.72
779.523	37.05
779.702	37.74
779.88	37.94
780.058	37.91
780.237	37.63
780.415	39.14
780.593	40.5
780.771	40.8
780.95	41.31
781.128	42.21
781.306	42.32
781.484	42.43
781.662	43.32
781.841	41.62
782.019	41.53
782.197	40.58
782.375	40.22
782.553	40.09
782.731	39.99
782.909	38.95
783.087	38.62
783.265	38.84
783.443	38.07
783.621	38.3
783.799	37.6
783.977	36.5
784.155	36.94
784.333	35.58
784.511	35.75
784.689	36.53
784.867	37.04
785.045	37.29
785.223	37.35
785.4	37.97
785.578	38.64
785.756	39
785.934	39.03
786.112	39.58
786.289	41.08
786.467	42.09
786.645	42.61
786.823	43.33
787	42.36
787.178	42.16
787.356	41.74
787.533	42.47
787.711	41.89
787.889	41.33
788.066	41.12
788.244	39.89
788.421	40.07
788.599	39.25
788.776	39.55
788.954	39.81
789.131	39.27
789.309	39.79
789.486	39.82
789.664	40.05
789.841	38.72
790.019	38.26
790.196	38.11
790.373	38.78
790.551	39.58
790.728	39.98
790.906	40.23
791.083	39.93
791.26	39.48
791.437	40.54
791.615	40.15
791.792	39.91
791.969	40.01
792.146	41.35
792.324	42.72
792.501	43.06
792.678	42.16
792.855	41.76
793.032	40.5
793.209	40.58
793.387	39.29
793.564	39.85
793.741	38.26
793.918	38.74
794.095	38.57
794.272	37.88
794.449	36.23
794.626	35.28
794.803	35.39
794.98	36.21
795.157	36.73
795.334	38.01
795.511	37.37
795.688	37.46
795.864	36.95
796.041	37.59
796.218	37.22
796.395	37.18
796.572	37.07
796.749	36.84
796.925	36.39
797.102	35.8
797.279	34.39
797.456	34.64
797.632	34.86
797.809	34.78
797.986	35.85
798.162	36.39
798.339	37.08
798.516	37.93
798.692	38.9
798.869	38.74
799.046	39.45
799.222	39.85
799.399	40.14
799.575	40.97
799.752	40.45
799.928	39.76
800.105	40
800.281	40.34
800.458	39.79
800.634	39.43
800.811	39.51
800.987	39.26
801.163	39.95
801.34	39.52
801.516	39.82
801.692	39.11
801.869	40.45
802.045	39.97
802.221	39.48
802.398	39.08
802.574	38.03
802.75	39.22
802.926	40.04
803.103	39.22
803.279	39.2
803.455	39.33
803.631	40.45
803.807	40.68
803.983	40.51
804.16	38.53
804.336	39.56
804.512	40.44
804.688	41.35
804.864	42.02
805.04	40.96
805.216	40.04
805.392	40.17
805.568	39.83
805.744	39.68
805.92	39.75
806.096	38.97
806.272	40.79
806.448	41.36
806.623	41.51
806.799	40.12
806.975	39.49
807.151	39.2
807.327	39.28
807.503	39.24
807.678	39.37
807.854	39.38
808.03	38.8
808.206	38.65
808.381	38.32
808.557	37.73
808.733	38.01
808.908	36.14
809.084	36.99
809.26	37.67
809.435	38.05
809.611	38.21
809.787	37.29
809.962	36.91
810.138	37.33
810.313	37.4
810.489	37.31
810.664	38.07
810.84	37.17
811.015	38.21
811.191	39.32
811.366	40.33
811.542	40.08
811.717	39.99
811.892	40.19
812.068	40.41
812.243	41.1
812.419	40.13
812.594	40.57
812.769	41.7
812.944	42.15
813.12	42.73
813.295	40.4
813.47	40.65
813.645	40.38
813.821	39.45
813.996	38.96
814.171	38.95
814.346	40.14
814.521	40.22
814.697	41.69
814.872	41.89
815.047	41.13
815.222	40.97
815.397	40.86
815.572	42.47
815.747	41.59
815.922	41.14
816.097	42.22
816.272	42.72
816.447	43.55
816.622	42.71
816.797	42.02
816.972	41.25
817.147	41.2
817.322	40.48
817.496	39.55
817.671	39.77
817.846	39.03
818.021	39.16
818.196	39.38
818.371	39.56
818.545	39.35
818.72	38.51
818.895	38.89
819.069	39.07
819.244	39.08
819.419	39.11
819.594	39.12
819.768	39.61
819.943	39.32
820.117	39.9
820.292	39.82
820.467	39.79
820.641	39.19
820.816	38.96
820.99	39.02
821.165	39.12
821.339	39.31
821.514	39.18
821.688	39.03
821.863	39.04
822.037	38.79
822.212	38.68
822.386	38.47
822.56	38.44
822.735	38.33
822.909	38.34
823.084	38.21
823.258	38.07
823.432	37.79
823.606	37.61
823.781	37.51
823.955	37.41
824.129	37.12
824.303	37.2
824.478	37.25
824.652	36.62
824.826	36.51
825	36.48
825.174	36.29
825.348	36.4
825.523	36.55
825.697	36.58
825.871	36.32
826.045	36.49
826.219	36.65
826.393	37.37
826.567	37.67
826.741	37.35
826.915	37.75
827.089	38.01
827.263	37.96
827.437	38.24
827.611	38.47
827.784	38.37
827.958	38.41
828.132	39.08
828.306	38.71
828.48	38.56
828.654	37.57
828.827	37.14
829.001	38.07
829.175	38.83
829.349	39.17
829.522	39.51
829.696	39.85
829.87	39.51
830.044	39.99
830.217	40.56
830.391	39.2
830.565	40.53
830.738	40.33
830.912	40.95
831.085	41.24
831.259	40.15
831.432	39.95
831.606	39.35
831.779	38.43
831.953	38.28
832.126	38.65
832.3	38
832.473	38.71
832.647	38.71
832.82	38.26
832.994	38.1
833.167	38.7
833.34	38.54
833.514	39.03
833.687	38.76
833.86	38.9
834.034	39.56
834.207	39.41
834.38	38.87
834.553	39.2
834.727	38.42
834.9	39.28
835.073	39.21
835.246	39.46
835.419	39.2
835.593	39.32
835.766	39.59
835.939	39.49
836.112	39.37
836.285	38.81
836.458	38.68
836.631	39.12
836.804	38.64
836.977	39.34
837.15	38.1
837.323	38.58
837.496	37.54
837.669	37.37
837.842	37.89
838.015	36.82
838.188	36.69
838.361	36.4
838.533	37.19
838.706	37.81
838.879	37.31
839.052	36.72
839.225	36.12
839.398	37.41
839.57	36.33
839.743	36.91
839.916	37.9
840.088	37.18
840.261	38.09
840.434	38.63
840.607	37.64
840.779	36.65
840.952	36.01
841.124	36.63
841.297	37.75
841.47	39.16
841.642	38.61
841.815	39.57
841.987	40.42
842.16	40.31
842.332	41.06
842.505	40.97
842.677	40.86
842.85	43.32
843.022	45.59
843.194	46.21
843.367	48.13
843.539	47.73
843.712	45.48
843.884	45.84
844.056	46.27
844.229	48.01
844.401	46.4
844.573	45.13
844.745	45.29
844.918	44.68
845.09	43.78
845.262	42.46
845.434	41.92
845.606	42.17
845.779	46.58
845.951	46.51
846.123	46.14
846.295	45.96
846.467	47.28
846.639	47.6
846.811	43.14
846.983	42.02
847.155	41.19
847.327	38.88
847.499	36.65
847.671	38.92
847.843	39.53
848.015	35.55
848.187	35.6
848.359	34.23
848.531	35.35
848.703	31.23
848.875	29.55
849.047	35.08
849.218	33.89
849.39	36.78
849.562	42.53
849.734	47.55
849.905	46.18
850.077	38.83
850.249	36.72
850.421	37.81
850.592	41.06
850.764	42.29
850.936	44.82
851.107	48.51
851.279	48.49
851.451	49.14
851.622	48.88
851.794	46.03
851.965	43.58
852.137	44.55
852.308	49.77
852.48	53.85
852.651	53.89
852.823	48.44
852.994	45.7
853.166	49.57
853.337	48.79
853.509	46.97
853.68	45.39
853.851	41.97
854.023	41.12
854.194	40.78
854.365	40.45
854.537	39.3
854.708	39.34
854.879	40.42
855.05	41.88
855.222	42.3
855.393	42.2
855.564	44.43
855.735	45.44
855.906	45.64
856.078	49.17
856.249	51.19
856.42	51.01
856.591	53.03
856.762	52.12
856.933	52.1
857.104	52.2
857.275	54.28
857.446	56.61
857.617	51.59
857.788	46.27
857.959	45.37
858.13	49.89
858.301	50.5
858.472	49.25
858.643	47.09
858.814	45.63
858.985	46.14
859.155	43.95
859.326	41.34
859.497	41.94
859.668	41.13
859.839	41.2
860.009	45.21
860.18	47.69
860.351	46.2
860.522	41.97
860.692	42.83
860.863	45.07
861.034	45.31
861.204	44.61
861.375	43.31
861.546	42.42
861.716	43.71
861.887	45.71
862.057	47.48
862.228	44.59
862.398	46.22
862.569	46.12
862.739	48.65
862.91	43.76
863.08	40
863.251	40.55
863.421	41.95
863.592	46.74
863.762	46.53
863.932	43.63
864.103	40.71
864.273	39.41
864.443	39.8
864.614	34.72
864.784	35.7
864.954	38.73
865.125	43.43
865.295	48.07
865.465	47.65
865.635	49.76
865.805	50.62
865.976	52.79
866.146	57.18
866.316	60.12
866.486	63.58
866.656	59.2
866.826	61.22
866.996	58.25
867.166	58.43
867.336	58.53
867.506	57.02
867.676	58.17
867.846	52.48
868.016	49.13
868.186	44.24
868.356	36.6
868.526	38.74
868.696	36.97
868.866	38.46
869.036	36.51
869.206	38.06
869.376	36.84
869.545	36.75
869.715	37.5
869.885	34
870.055	34.94
870.224	31.17
870.394	39.12
870.564	43.61
870.734	38.32
870.903	36.23
871.073	41.92
871.243	42.67
871.412	42.61
871.582	44.35
871.751	44.06
871.921	45.58
872.091	46.21
872.26	42.71
872.43	45.98
872.599	43.98
872.769	42.9
872.938	44.36
873.108	43.52
873.277	40.77
873.446	40.89
873.616	40.66
873.785	33.95
873.955	35.87
874.124	38.26
874.293	37.79
874.463	43.85
874.632	44.21
874.801	44.17
874.971	45.91
875.14	45.47
875.309	45.08
875.478	47.75
875.647	46.46
875.817	47.68
875.986	47.5
876.155	47.91
876.324	45.27
876.493	43
876.662	40.74
876.831	42.38
877	40.74
877.17	39.3
877.339	37.32
877.508	39.84
877.677	40.35
877.846	42.85
878.015	40.76
878.184	43.04
878.352	43.04
878.521	44
878.69	44.62
878.859	45.2
879.028	43.3
879.197	43.84
879.366	45.19
879.534	44.65
879.703	42.69
879.872	41.41
880.041	40.23
880.21	39.55
880.378	39.9
880.547	38.07
880.716	38.47
880.884	39.45
881.053	38.85
881.222	38.43
881.39	38.55
881.559	37.73
881.727	38.1
881.896	38.82
882.065	39.09
882.233	38.9
882.402	39.29
882.57	38.85
882.739	39.29
882.907	39.3
883.076	39.27
883.244	39.74
883.412	40.13
883.581	40.1
883.749	39.8
883.918	39.91
884.086	39.19
884.254	38.45
884.423	38.71
884.591	38.3
884.759	38.29
884.927	38.76
885.096	38.72
885.264	38.62
885.432	38.41
885.6	38.4
885.769	38.6
885.937	39.79
886.105	40
886.273	39.54
886.441	39.47
886.609	39.71
886.777	40.18
886.945	41.32
887.113	42.35
887.281	42.94
887.449	40.19
887.617	40.98
887.785	40.21
887.953	37.72
888.121	34.05
888.289	34.5
888.457	39.58
888.625	40.54
888.793	39.41
888.961	39.33
889.129	42.85
889.296	40.53
889.464	36.86
889.632	40.02
889.8	37.47
889.967	38.74
890.135	42.69
