Data from 2938463_Reflection_3.txt Node
Date: Wed Jun 17 13:56:57 EDT 2015
User: robert
Spectrometer: USB4E03002
Autoset integration time: false
Trigger mode: 4
Integration Time (sec): 1.000000E-1
Scans to average: 10
Electric dark correction enabled: true
Nonlinearity correction enabled: false
Boxcar width: 5
Stray light correction enabled: false
XAxis mode: Wavelengths
Stop averaging: false
Number of Pixels in Spectrum: 3648
>>>>>Begin Spectral Data<<<<<
177.575	-75.37
177.794	-181.34
178.014	-99.07
178.233	-128.71
178.452	332.17
178.672	92.93
178.891	35.8
179.11	10.76
179.33	-226.04
179.549	-3059.26
179.768	-366.38
179.987	-85.97
180.207	-719.6
180.426	-176.14
180.645	166.98
180.864	181
181.084	134.83
181.303	139.32
181.522	171.24
181.741	312.4
181.96	207.36
182.179	210.36
182.398	167.08
182.618	109.04
182.837	129.32
183.056	322.05
183.275	234.95
183.494	289.2
183.713	250.78
183.932	1143.28
184.151	575.98
184.37	282.41
184.589	171.82
184.808	176.34
185.027	582.91
185.246	327.55
185.465	253.12
185.684	226.15
185.903	310.48
186.122	299.78
186.341	200.38
186.56	206.35
186.779	320.97
186.998	359.13
187.216	194.08
187.435	179.15
187.654	178.13
187.873	166.17
188.092	216.47
188.311	179.87
188.53	161.15
188.748	196.18
188.967	221.56
189.186	243.02
189.405	304.19
189.623	314.3
189.842	484.64
190.061	-3913.6
190.28	-265.48
190.498	-190.7
190.717	-1055.7
190.936	-407.1
191.154	-153.18
191.373	-66.98
191.592	-415.52
191.81	52.66
192.029	114.25
192.248	-66.4
192.466	-1.04
192.685	34.43
192.904	46.78
193.122	36.27
193.341	96.73
193.559	105.62
193.778	81.91
193.996	100.42
194.215	184.73
194.433	169.42
194.652	158.05
194.87	155.61
195.089	190.06
195.307	206.82
195.526	395.09
195.744	252.32
195.963	215.72
196.181	208.31
196.399	148.79
196.618	113.12
196.836	102.79
197.055	97.36
197.273	106.35
197.491	109.91
197.71	91.06
197.928	82.87
198.146	63.42
198.365	72.44
198.583	90.75
198.801	78.09
199.019	87.6
199.238	93.44
199.456	76.31
199.674	63.07
199.892	45.98
200.111	61.57
200.329	106.89
200.547	131.56
200.765	96.31
200.983	85.05
201.202	112.59
201.42	104.79
201.638	129.2
201.856	143.69
202.074	137.25
202.292	125.76
202.51	127.53
202.728	110.66
202.946	141.24
203.165	131.67
203.383	124.41
203.601	127.89
203.819	144.22
204.037	151.67
204.255	161.28
204.473	167.51
204.691	190.38
204.909	195.78
205.127	160.81
205.345	132.21
205.562	148.23
205.78	161.72
205.998	166.31
206.216	139.42
206.434	118.9
206.652	108.03
206.87	107.89
207.088	106.27
207.306	86.17
207.523	84.18
207.741	91.01
207.959	105.25
208.177	111.32
208.395	97.92
208.612	101.7
208.83	116.38
209.048	111.01
209.266	114.97
209.483	105.4
209.701	113.58
209.919	119.27
210.136	129.24
210.354	100.31
210.572	88.82
210.79	87.75
211.007	85.45
211.225	77.82
211.442	75.75
211.66	75.15
211.878	83.02
212.095	139.14
212.313	125.99
212.53	115.05
212.748	136.82
212.966	159.2
213.183	153.46
213.401	146.45
213.618	122.73
213.836	133.47
214.053	119.58
214.271	118
214.488	62.87
214.705	71.77
214.923	74.52
215.14	75.41
215.358	78.21
215.575	77.32
215.793	87.63
216.01	87.58
216.227	85.63
216.445	85.15
216.662	87.49
216.879	92.28
217.097	83.36
217.314	79.8
217.531	78.92
217.749	61.22
217.966	73.43
218.183	54.21
218.4	66.59
218.618	54.42
218.835	30.81
219.052	18.05
219.269	-14.83
219.487	-4.21
219.704	11.85
219.921	6.65
220.138	13.7
220.355	12.04
220.572	17.37
220.79	13.08
221.007	24.25
221.224	30.67
221.441	33.79
221.658	39.83
221.875	46.13
222.092	46.5
222.309	53.59
222.526	51.62
222.743	48.71
222.96	51.68
223.177	49.47
223.394	42.43
223.611	38.51
223.828	41.72
224.045	36.25
224.262	26.95
224.479	23.49
224.696	24.22
224.913	25.53
225.13	23.68
225.347	19.7
225.564	18.8
225.781	18.79
225.997	18.45
226.214	16.67
226.431	16.59
226.648	16.2
226.865	16.07
227.082	15.37
227.298	16.04
227.515	16.26
227.732	16.26
227.949	16.86
228.165	15.76
228.382	15.54
228.599	15.15
228.816	13.87
229.032	14.37
229.249	12.09
229.466	11.79
229.682	10.37
229.899	11.05
230.116	12.03
230.332	10.43
230.549	11.55
230.765	13.31
230.982	12.22
231.199	17.76
231.415	18.19
231.632	21.74
231.848	22.35
232.065	21
232.281	19.02
232.498	16.93
232.714	17.58
232.931	18.68
233.147	18.19
233.364	16.46
233.58	15.19
233.797	17.57
234.013	15.35
234.23	13.45
234.446	14.12
234.662	13.13
234.879	12.31
235.095	11.82
235.312	11.92
235.528	12.07
235.744	12.42
235.961	8.76
236.177	4.91
236.393	7.51
236.61	8.15
236.826	7.81
237.042	8.61
237.258	11.67
237.475	13.19
237.691	12.47
237.907	10.26
238.123	11.84
238.339	13.76
238.556	15.63
238.772	15.59
238.988	15.4
239.204	13.64
239.42	14.59
239.636	13.69
239.853	12.59
240.069	12.71
240.285	12.07
240.501	12.14
240.717	11.97
240.933	11.75
241.149	10.89
241.365	11.06
241.581	11.72
241.797	11.4
242.013	11.31
242.229	11.62
242.445	10.84
242.661	11.19
242.877	11.7
243.093	10.92
243.309	10.34
243.525	10.53
243.741	9.47
243.957	9.54
244.173	8.8
244.388	8.58
244.604	8.7
244.82	8.6
245.036	8.75
245.252	8.12
245.468	8.06
245.683	8.59
245.899	8.67
246.115	8.77
246.331	8.49
246.547	8.61
246.762	8.57
246.978	7.89
247.194	8.39
247.409	8.28
247.625	8.49
247.841	8.59
248.057	7.93
248.272	7.96
248.488	8.12
248.703	8.13
248.919	8.15
249.135	7.82
249.35	9.48
249.566	9.45
249.782	9.42
249.997	9.62
250.213	9.82
250.428	9.96
250.644	8.97
250.859	8.51
251.075	8.8
251.29	9.08
251.506	9.54
251.721	9.3
251.937	9
252.152	9.54
252.368	9.2
252.583	9.77
252.798	9.84
253.014	11.56
253.229	13.01
253.445	13.92
253.66	14.2
253.875	13.9
254.091	14.09
254.306	13.36
254.521	12.36
254.737	11.85
254.952	10.5
255.167	9.37
255.383	9.05
255.598	8.24
255.813	7.93
256.028	7.81
256.244	7.47
256.459	6.47
256.674	6.94
256.889	7.05
257.104	6.68
257.32	7.21
257.535	7.19
257.75	6.92
257.965	6.38
258.18	5.99
258.395	5.9
258.61	6.05
258.826	6.37
259.041	6.15
259.256	6.02
259.471	6.5
259.686	6.38
259.901	7.01
260.116	6.95
260.331	7.56
260.546	7.44
260.761	7
260.976	6.77
261.191	6.07
261.406	6.37
261.621	6.39
261.836	6.16
262.05	6.06
262.265	5.06
262.48	4.79
262.695	3.82
262.91	4.77
263.125	5.16
263.34	5.26
263.555	5.75
263.769	5.74
263.984	5.54
264.199	6.11
264.414	5.73
264.629	5.93
264.843	5.9
265.058	6.03
265.273	5.68
265.488	5.81
265.702	5.97
265.917	6.15
266.132	6.22
266.346	6.72
266.561	6.39
266.776	7.14
266.99	7.16
267.205	7.31
267.42	6.92
267.634	7.62
267.849	7.9
268.063	8.15
268.278	8.99
268.492	8.46
268.707	8.14
268.922	7.67
269.136	6.91
269.351	6.73
269.565	6.44
269.78	6.77
269.994	6.22
270.209	5.81
270.423	5.57
270.637	4.77
270.852	5.35
271.066	5.76
271.281	5.95
271.495	5.94
271.709	6.09
271.924	6.01
272.138	6
272.353	6.04
272.567	6.15
272.781	5.7
272.996	5.79
273.21	5.62
273.424	4.97
273.638	4.72
273.853	5.11
274.067	5.02
274.281	5.45
274.495	5.39
274.71	5.42
274.924	5.1
275.138	5.11
275.352	4.88
275.566	4.62
275.781	5
275.995	5.99
276.209	5.77
276.423	6
276.637	5.85
276.851	6.05
277.065	6.24
277.279	6.95
277.493	7.38
277.707	8.01
277.921	7.42
278.135	6.82
278.349	5.97
278.563	6.02
278.777	5.13
278.991	5.29
279.205	5.64
279.419	5.45
279.633	5.71
279.847	5.7
280.061	5.39
280.275	5.78
280.489	6.64
280.703	7.01
280.917	7.25
281.131	7.9
281.344	7.87
281.558	7.66
281.772	7.82
281.986	7.42
282.2	7.18
282.414	7.21
282.627	7.15
282.841	7
283.055	6.45
283.269	6.12
283.482	6.38
283.696	6.26
283.91	6.06
284.123	5.85
284.337	5.95
284.551	5.94
284.764	6.27
284.978	6.58
285.192	6.46
285.405	6.93
285.619	7.4
285.833	6.85
286.046	6.83
286.26	7.64
286.473	7.75
286.687	7.94
286.9	8.13
287.114	7.73
287.327	7.28
287.541	6.74
287.754	6.88
287.968	6.16
288.181	6.19
288.395	6.45
288.608	6.14
288.822	5.78
289.035	5.28
289.248	5.61
289.462	5.38
289.675	5.53
289.889	5.99
290.102	5.49
290.315	6
290.529	6.41
290.742	6.25
290.955	6.52
291.169	7.01
291.382	7.51
291.595	7.77
291.808	8.11
292.022	8.73
292.235	8.48
292.448	9.14
292.661	8.85
292.875	8.57
293.088	8.62
293.301	8.52
293.514	8.27
293.727	8.2
293.94	7.92
294.153	8.07
294.367	7.63
294.58	7.74
294.793	7.42
295.006	7.73
295.219	8.29
295.432	8.16
295.645	8.33
295.858	8.21
296.071	8.02
296.284	7.69
296.497	7.36
296.71	7.46
296.923	7.82
297.136	7.52
297.349	7.87
297.562	7.42
297.775	7.48
297.988	7.39
298.201	7.76
298.414	7.93
298.626	8.22
298.839	8.8
299.052	8.55
299.265	8.19
299.478	8.59
299.691	8.47
299.903	8.21
300.116	8.64
300.329	7.8
300.542	7.94
300.755	8.25
300.967	8.52
301.18	8.31
301.393	8.52
301.605	8.11
301.818	7.97
302.031	7.71
302.243	8.03
302.456	7.98
302.669	8.2
302.881	8.38
303.094	8.14
303.307	8.65
303.519	8.94
303.732	9.38
303.944	9.95
304.157	10.15
304.37	10.11
304.582	10.45
304.795	10.43
305.007	10.85
305.22	11.05
305.432	11.04
305.645	10.32
305.857	9.95
306.069	10.08
306.282	10.35
306.494	10.43
306.707	10.66
306.919	10.66
307.132	10.85
307.344	10.63
307.556	10.65
307.769	10.4
307.981	10.6
308.193	10.82
308.406	10.32
308.618	10.44
308.83	10.3
309.043	9.97
309.255	9.98
309.467	9.56
309.679	9.77
309.892	9.84
310.104	9.98
310.316	10.11
310.528	10.41
310.74	10.57
310.953	10.36
311.165	10.41
311.377	10.31
311.589	10.45
311.801	11.04
312.013	11.12
312.225	11
312.437	11.48
312.649	11.76
312.862	11.22
313.074	11.62
313.286	11.5
313.498	11.68
313.71	12.73
313.922	12.16
314.134	11.94
314.346	11.73
314.558	11.88
314.77	12.03
314.982	11.72
315.193	12.17
315.405	11.86
315.617	12.02
315.829	12.09
316.041	11.82
316.253	12.22
316.465	12.41
316.677	12.84
316.888	12.87
317.1	12.39
317.312	12.8
317.524	12.63
317.736	12.96
317.947	12.86
318.159	13.29
318.371	13.37
318.583	13.81
318.794	13.69
319.006	13.88
319.218	13.73
319.43	14.39
319.641	14.24
319.853	14.46
320.064	15.01
320.276	15.11
320.488	15.13
320.699	15.57
320.911	15.4
321.123	15.34
321.334	15.43
321.546	15.31
321.757	15.17
321.969	15.54
322.18	15.47
322.392	15.29
322.603	16.16
322.815	16.46
323.026	16.2
323.238	16.63
323.449	17.23
323.661	17.45
323.872	18.14
324.083	18.81
324.295	18.91
324.506	19.58
324.718	19.78
324.929	20.05
325.14	20.61
325.352	21.01
325.563	21.66
325.774	22.33
325.986	22.93
326.197	23.15
326.408	23.57
326.62	23.8
326.831	24.11
327.042	24.5
327.253	24.95
327.464	24.95
327.676	25.52
327.887	25.65
328.098	25.67
328.309	25.82
328.52	26.83
328.732	27.23
328.943	27.99
329.154	28.34
329.365	28.87
329.576	29.04
329.787	29.83
329.998	30.49
330.209	31.01
330.42	32.09
330.631	32.87
330.842	32.87
331.053	33.14
331.264	33.66
331.475	34.28
331.686	34.86
331.897	35.07
332.108	35.41
332.319	35.68
332.53	35.78
332.741	35.78
332.952	35.79
333.163	36.55
333.374	36.64
333.585	36.94
333.795	36.92
334.006	37.2
334.217	37.63
334.428	37.81
334.639	37.68
334.849	38.33
335.06	38.64
335.271	38.59
335.482	38.14
335.692	38.59
335.903	38.62
336.114	38.55
336.325	38.56
336.535	39.08
336.746	39.35
336.957	39.47
337.167	39.62
337.378	39.2
337.589	39.78
337.799	40.1
338.01	40.53
338.22	40.7
338.431	41.25
338.642	41.23
338.852	41
339.063	40.98
339.273	41.14
339.484	40.63
339.694	40.57
339.905	40.44
340.115	40.58
340.326	40.13
340.536	39.97
340.746	39.95
340.957	39.74
341.167	39.44
341.378	39.03
341.588	39.15
341.799	39.37
342.009	39.53
342.219	39.22
342.43	39.06
342.64	39.1
342.85	39.26
343.061	38.96
343.271	39.23
343.481	39.45
343.691	39.51
343.902	38.99
344.112	38.64
344.322	38.74
344.532	38.61
344.743	38.46
344.953	38.41
345.163	38.1
345.373	37.91
345.583	37.86
345.793	37.64
346.004	38.08
346.214	38.19
346.424	38.48
346.634	38.11
346.844	38.42
347.054	38.2
347.264	38.16
347.474	38.24
347.684	38.39
347.894	38.29
348.104	38.58
348.314	38.23
348.524	38.41
348.734	38.17
348.944	38.51
349.154	38.43
349.364	38.48
349.574	38.35
349.784	38.5
349.994	38.74
350.204	38.7
350.413	38.88
350.623	38.73
350.833	38.89
351.043	38.81
351.253	38.5
351.463	38.3
351.672	38.41
351.882	38.63
352.092	38.16
352.302	37.92
352.511	38.02
352.721	37.68
352.931	37.53
353.141	37.34
353.35	37.47
353.56	37.77
353.77	37.79
353.979	37.87
354.189	37.49
354.399	37.84
354.608	37.69
354.818	37.4
355.027	37.14
355.237	37.31
355.447	36.92
355.656	36.96
355.866	36.85
356.075	37.26
356.285	37.33
356.494	37.2
356.704	37.05
356.913	37.15
357.123	37.21
357.332	37.02
357.542	36.86
357.751	37.09
357.96	37.01
358.17	36.76
358.379	36.53
358.589	36.26
358.798	36.33
359.007	36.16
359.217	36.02
359.426	35.92
359.635	36.13
359.845	36.26
360.054	36.21
360.263	36.09
360.472	36.2
360.682	36.16
360.891	36.07
361.1	36.22
361.309	36.31
361.519	36.43
361.728	36.49
361.937	36.57
362.146	36.32
362.355	36.2
362.564	36.39
362.774	36.3
362.983	36
363.192	35.82
363.401	35.41
363.61	35.41
363.819	35.64
364.028	35.38
364.237	35.06
364.446	35.15
364.655	35.13
364.864	34.79
365.073	34.44
365.282	34.55
365.491	34.6
365.7	34.94
365.909	34.79
366.118	34.6
366.327	34.37
366.536	34.74
366.745	34.83
366.954	35.1
367.162	35.07
367.371	35.32
367.58	35.35
367.789	35.25
367.998	34.79
368.207	34.83
368.415	34.53
368.624	34.94
368.833	34.44
369.042	34.08
369.25	33.85
369.459	34.04
369.668	33.87
369.877	33.63
370.085	33.45
370.294	33.31
370.503	33.02
370.711	33.21
370.92	33
371.129	32.93
371.337	33.1
371.546	32.79
371.754	32.78
371.963	32.57
372.171	32.49
372.38	32.59
372.589	32.8
372.797	32.87
373.006	32.41
373.214	32.4
373.423	32.37
373.631	32.08
373.84	31.91
374.048	31.53
374.256	31.62
374.465	31.85
374.673	31.86
374.882	31.69
375.09	31.49
375.298	31.45
375.507	31.24
375.715	31.32
375.923	31.02
376.132	30.91
376.34	30.85
376.548	30.89
376.757	30.5
376.965	30.39
377.173	30.37
377.381	30.35
377.59	30.31
377.798	30.39
378.006	30.21
378.214	30.42
378.423	30.5
378.631	30.35
378.839	29.95
379.047	30.04
379.255	29.92
379.463	29.77
379.671	29.49
379.879	29.37
380.088	29.46
380.296	29.35
380.504	29.37
380.712	29.38
380.92	29.36
381.128	29.57
381.336	29.28
381.544	29.19
381.752	28.99
381.96	29.2
382.168	29.05
382.376	28.75
382.584	28.66
382.791	28.48
382.999	28.39
383.207	28.13
383.415	28.06
383.623	28.15
383.831	28.14
384.039	28.31
384.247	28.1
384.454	28.18
384.662	28.13
384.87	27.86
385.078	27.67
385.285	27.41
385.493	27.52
385.701	27.38
385.909	27.29
386.116	27.29
386.324	27.02
386.532	27.02
386.739	26.71
386.947	26.62
387.155	26.86
387.362	27.04
387.57	27.02
387.778	27.04
387.985	26.97
388.193	26.8
388.4	26.61
388.608	26.86
388.816	26.68
389.023	26.89
389.231	26.78
389.438	26.55
389.646	26.39
389.853	26.32
390.061	26.23
390.268	26.15
390.475	26.18
390.683	26.17
390.89	26.07
391.098	26.05
391.305	25.9
391.512	25.76
391.72	25.82
391.927	25.78
392.135	25.78
392.342	25.67
392.549	25.64
392.756	25.6
392.964	25.7
393.171	25.51
393.378	25.51
393.586	25.57
393.793	25.44
394	25.22
394.207	25.15
394.414	25.26
394.622	25.13
394.829	25.02
395.036	24.84
395.243	24.72
395.45	24.65
395.657	24.62
395.864	24.5
396.072	24.61
396.279	24.75
396.486	24.63
396.693	24.56
396.9	24.44
397.107	24.32
397.314	24.51
397.521	24.12
397.728	24.07
397.935	24.25
398.142	24.22
398.349	24.1
398.556	24.2
398.763	24.21
398.97	24.21
399.177	24.37
399.383	24.61
399.59	24.32
399.797	24.65
400.004	24.68
400.211	24.59
400.418	24.57
400.625	24.74
400.831	24.45
401.038	24.4
401.245	24.2
401.452	24.34
401.658	24.22
401.865	24.42
402.072	24.14
402.279	24.01
402.485	23.73
402.692	23.84
402.899	23.78
403.105	23.76
403.312	23.78
403.519	23.83
403.725	23.59
403.932	23.43
404.138	23.24
404.345	23.2
404.552	23.19
404.758	23.33
404.965	23.12
405.171	23
405.378	23.07
405.584	22.92
405.791	22.6
405.997	22.7
406.204	22.8
406.41	22.79
406.617	22.89
406.823	23.14
407.029	22.95
407.236	22.95
407.442	23.18
407.649	23.05
407.855	22.82
408.061	22.9
408.268	22.7
408.474	22.58
408.68	22.53
408.887	22.48
409.093	22.21
409.299	22.25
409.505	22.11
409.712	21.91
409.918	21.85
410.124	22.01
410.33	21.95
410.537	21.99
410.743	21.91
410.949	22.02
411.155	22.04
411.361	21.8
411.567	21.81
411.773	21.91
411.98	21.86
412.186	21.8
412.392	21.87
412.598	22.14
412.804	22.01
413.01	22.14
413.216	21.98
413.422	22.02
413.628	22.1
413.834	22.03
414.04	21.81
414.246	21.64
414.452	21.64
414.658	21.49
414.864	21.29
415.07	21.22
415.275	21.09
415.481	20.94
415.687	20.74
415.893	20.76
416.099	20.65
416.305	20.7
416.511	20.85
416.716	20.84
416.922	20.82
417.128	20.81
417.334	20.93
417.539	20.85
417.745	20.85
417.951	20.9
418.157	20.86
418.362	20.81
418.568	20.73
418.774	20.52
418.979	20.5
419.185	20.53
419.391	20.41
419.596	20.25
419.802	20.2
420.008	20.25
420.213	20.64
420.419	20.58
420.624	20.56
420.83	20.46
421.035	20.46
421.241	20.37
421.446	20.3
421.652	20.29
421.857	20.3
422.063	20.31
422.268	20.21
422.474	19.76
422.679	19.69
422.885	19.74
423.09	19.7
423.295	19.64
423.501	19.55
423.706	19.45
423.911	19.42
424.117	19.47
424.322	19.42
424.527	19.43
424.733	19.33
424.938	19.34
425.143	19.2
425.349	19.25
425.554	19.2
425.759	19.31
425.964	19.35
426.169	19.36
426.375	19.17
426.58	19.16
426.785	19.04
426.99	19.04
427.195	19.05
427.4	19.1
427.605	19.2
427.811	19.29
428.016	19.19
428.221	19.09
428.426	19.03
428.631	19.15
428.836	19.26
429.041	19.31
429.246	19.31
429.451	19.29
429.656	19.29
429.861	19.28
430.066	19.36
430.271	19.51
430.476	19.62
430.681	19.76
430.886	19.63
431.09	19.54
431.295	19.51
431.5	19.52
431.705	19.54
431.91	19.61
432.115	19.54
432.32	19.45
432.524	19.33
432.729	19.26
432.934	19.13
433.139	19.23
433.343	19.26
433.548	19.38
433.753	19.39
433.958	19.37
434.162	19.23
434.367	19.28
434.572	19.28
434.776	19.22
434.981	19.16
435.186	19.18
435.39	19.08
435.595	19.12
435.799	18.88
436.004	18.89
436.209	18.77
436.413	18.78
436.618	18.69
436.822	18.66
437.027	18.71
437.231	18.74
437.436	18.75
437.64	18.77
437.845	18.73
438.049	18.89
438.253	18.8
438.458	18.86
438.662	18.9
438.867	18.89
439.071	18.88
439.275	18.92
439.48	18.86
439.684	18.82
439.888	18.77
440.093	18.72
440.297	18.59
440.501	18.6
440.706	18.66
440.91	18.65
441.114	18.7
441.318	18.76
441.523	18.76
441.727	18.98
441.931	19.08
442.135	19.1
442.339	19.11
442.543	19.27
442.748	19.26
442.952	19.3
443.156	19.21
443.36	19.16
443.564	19.25
443.768	19.27
443.972	19.11
444.176	19.04
444.38	19.02
444.584	18.87
444.788	18.74
444.992	18.75
445.196	18.69
445.4	18.74
445.604	18.64
445.808	18.59
446.012	18.46
446.216	18.5
446.42	18.5
446.624	18.49
446.828	18.55
447.032	18.56
447.235	18.6
447.439	18.57
447.643	18.59
447.847	18.73
448.051	18.64
448.254	18.69
448.458	18.71
448.662	18.72
448.866	18.72
449.069	18.85
449.273	18.89
449.477	18.78
449.681	18.83
449.884	18.71
450.088	18.72
450.292	18.77
450.495	18.7
450.699	18.64
450.902	18.65
451.106	18.72
451.31	18.57
451.513	18.51
451.717	18.49
451.92	18.37
452.124	18.38
452.327	18.31
452.531	18.28
452.734	18.36
452.938	18.31
453.141	18.2
453.345	18.09
453.548	18.15
453.752	18.19
453.955	18.38
454.158	18.37
454.362	18.27
454.565	18.32
454.769	18.36
454.972	18.4
455.175	18.46
455.379	18.5
455.582	18.59
455.785	18.57
455.988	18.5
456.192	18.35
456.395	18.39
456.598	18.49
456.801	18.47
457.005	18.38
457.208	18.33
457.411	18.22
457.614	18.12
457.817	18.02
458.021	17.97
458.224	18.05
458.427	17.98
458.63	17.98
458.833	17.96
459.036	17.9
459.239	17.95
459.442	17.9
459.645	17.96
459.848	18.01
460.051	18.08
460.254	18.16
460.457	18.08
460.66	18.2
460.863	18.22
461.066	18.24
461.269	18.19
461.472	18.28
461.675	18.24
461.878	18.19
462.081	18.31
462.284	18.36
462.486	18.3
462.689	18.25
462.892	18.23
463.095	18.24
463.298	18.24
463.5	18.39
463.703	18.32
463.906	18.45
464.109	18.41
464.311	18.3
464.514	18.27
464.717	18.41
464.92	18.47
465.122	18.54
465.325	18.53
465.528	18.56
465.73	18.59
465.933	18.48
466.135	18.52
466.338	18.6
466.541	18.74
466.743	18.73
466.946	18.73
467.148	18.84
467.351	18.82
467.553	18.95
467.756	19
467.958	18.99
468.161	19.1
468.363	19.07
468.566	19.09
468.768	19.04
468.971	19.05
469.173	19.12
469.375	18.91
469.578	18.83
469.78	18.77
469.983	18.82
470.185	18.85
470.387	18.85
470.59	18.99
470.792	18.83
470.994	18.8
471.196	18.8
471.399	18.61
471.601	18.82
471.803	18.86
472.005	18.76
472.208	18.64
472.41	18.53
472.612	18.51
472.814	18.29
473.016	18.59
473.218	18.66
473.421	18.6
473.623	18.69
473.825	18.62
474.027	18.72
474.229	18.81
474.431	18.82
474.633	18.86
474.835	18.87
475.037	18.97
475.239	18.77
475.441	18.76
475.643	18.81
475.845	18.85
476.047	18.87
476.249	18.84
476.451	18.87
476.653	18.86
476.855	18.92
477.057	18.87
477.258	18.88
477.46	18.91
477.662	18.86
477.864	18.8
478.066	18.73
478.268	18.78
478.469	18.8
478.671	18.74
478.873	18.83
479.075	18.8
479.276	18.84
479.478	18.85
479.68	18.93
479.882	18.91
480.083	18.96
480.285	19.02
480.487	18.97
480.688	18.94
480.89	18.94
481.091	18.89
481.293	18.86
481.495	18.82
481.696	18.74
481.898	18.7
482.099	18.68
482.301	18.64
482.502	18.55
482.704	18.47
482.905	18.42
483.107	18.34
483.308	18.34
483.51	18.3
483.711	18.3
483.913	18.32
484.114	18.32
484.315	18.3
484.517	18.3
484.718	18.35
484.92	18.41
485.121	18.46
485.322	18.54
485.524	18.5
485.725	18.51
485.926	18.48
486.127	18.48
486.329	18.48
486.53	18.53
486.731	18.49
486.932	18.46
487.134	18.43
487.335	18.38
487.536	18.38
487.737	18.38
487.938	18.4
488.139	18.42
488.341	18.44
488.542	18.4
488.743	18.41
488.944	18.47
489.145	18.54
489.346	18.59
489.547	18.68
489.748	18.66
489.949	18.64
490.15	18.61
490.351	18.63
490.552	18.59
490.753	18.6
490.954	18.54
491.155	18.52
491.356	18.51
491.557	18.53
491.758	18.49
491.959	18.51
492.159	18.56
492.36	18.58
492.561	18.63
492.762	18.69
492.963	18.76
493.164	18.85
493.364	18.98
493.565	18.94
493.766	18.96
493.967	19.04
494.167	19.01
494.368	19
494.569	19.05
494.769	19.06
494.97	18.98
495.171	18.96
495.371	19.06
495.572	19.04
495.773	19.1
495.973	19.11
496.174	19.09
496.375	19.18
496.575	19.22
496.776	19.29
496.976	19.29
497.177	19.39
497.377	19.34
497.578	19.34
497.778	19.39
497.979	19.48
498.179	19.5
498.38	19.56
498.58	19.57
498.78	19.59
498.981	19.65
499.181	19.68
499.382	19.75
499.582	19.96
499.782	20.03
499.983	20.06
500.183	20.06
500.383	20.09
500.584	20.1
500.784	20.23
500.984	20.33
501.184	20.22
501.385	20.29
501.585	20.37
501.785	20.32
501.985	20.25
502.185	20.41
502.386	20.48
502.586	20.5
502.786	20.61
502.986	20.61
503.186	20.63
503.386	20.71
503.586	20.79
503.786	20.76
503.987	20.9
504.187	21.01
504.387	21
504.587	21.07
504.787	21.23
504.987	21.32
505.187	21.43
505.387	21.57
505.587	21.76
505.786	21.87
505.986	22.05
506.186	22.09
506.386	22.17
506.586	22.26
506.786	22.26
506.986	22.31
507.186	22.31
507.386	22.36
507.585	22.36
507.785	22.34
507.985	22.3
508.185	22.35
508.384	22.45
508.584	22.45
508.784	22.5
508.984	22.62
509.183	22.67
509.383	22.74
509.583	22.83
509.782	22.94
509.982	23.1
510.182	23.22
510.381	23.27
510.581	23.32
510.781	23.45
510.98	23.5
511.18	23.6
511.379	23.67
511.579	23.78
511.778	23.87
511.978	23.85
512.177	23.93
512.377	23.96
512.576	24.04
512.776	24.13
512.975	24.28
513.175	24.34
513.374	24.48
513.573	24.63
513.773	24.76
513.972	24.83
514.172	24.99
514.371	25.16
514.57	25.31
514.77	25.51
514.969	25.63
515.168	25.82
515.367	26
515.567	26.09
515.766	26.14
515.965	26.25
516.164	26.33
516.364	26.48
516.563	26.54
516.762	26.65
516.961	26.72
517.16	26.74
517.359	26.7
517.559	26.74
517.758	26.75
517.957	26.84
518.156	26.96
518.355	27.02
518.554	27.12
518.753	27.14
518.952	27.23
519.151	27.25
519.35	27.48
519.549	27.61
519.748	27.72
519.947	27.89
520.146	27.94
520.345	27.99
520.544	28.12
520.743	28.25
520.942	28.43
521.141	28.51
521.339	28.78
521.538	28.92
521.737	29.02
521.936	29.24
522.135	29.36
522.333	29.55
522.532	29.78
522.731	30
522.93	30.09
523.129	30.23
523.327	30.38
523.526	30.44
523.725	30.47
523.923	30.68
524.122	30.76
524.321	30.83
524.519	30.97
524.718	30.94
524.917	31.01
525.115	31.2
525.314	31.28
525.512	31.42
525.711	31.61
525.909	31.81
526.108	31.9
526.306	32.05
526.505	32.14
526.703	32.24
526.902	32.28
527.1	32.3
527.299	32.26
527.497	32.27
527.696	32.24
527.894	32.15
528.092	32.09
528.291	32.01
528.489	31.95
528.688	31.95
528.886	31.89
529.084	31.92
529.283	31.94
529.481	32.06
529.679	32.18
529.877	32.37
530.076	32.57
530.274	32.81
530.472	33.13
530.67	33.36
530.869	33.54
531.067	33.71
531.265	33.89
531.463	34.06
531.661	34.09
531.859	34.16
532.057	34.12
532.255	34.02
532.454	33.97
532.652	33.89
532.85	33.86
533.048	33.82
533.246	33.85
533.444	33.81
533.642	33.85
533.84	33.87
534.038	33.97
534.236	34.15
534.434	34.47
534.632	34.61
534.83	34.78
535.027	34.97
535.225	35.07
535.423	35.18
535.621	35.32
535.819	35.3
536.017	35.31
536.215	35.25
536.412	35.29
536.61	35.25
536.808	35.27
537.006	35.33
537.203	35.25
537.401	35.32
537.599	35.39
537.797	35.47
537.994	35.72
538.192	36.02
538.39	36.3
538.587	36.46
538.785	36.61
538.983	36.75
539.18	36.82
539.378	36.9
539.575	36.98
539.773	37.01
539.97	36.95
540.168	36.91
540.366	36.8
540.563	36.66
540.761	36.56
540.958	36.52
541.155	36.48
541.353	36.36
541.55	36.29
541.748	36.24
541.945	36.22
542.143	36.24
542.34	36.23
542.537	36.33
542.735	36.41
542.932	36.55
543.129	36.6
543.327	36.66
543.524	36.87
543.721	37.04
543.919	37.12
544.116	37.13
544.313	37.3
544.51	37.47
544.708	37.48
544.905	37.58
545.102	37.65
545.299	37.71
545.496	37.75
545.693	37.7
545.891	37.66
546.088	37.67
546.285	37.66
546.482	37.58
546.679	37.52
546.876	37.51
547.073	37.51
547.27	37.43
547.467	37.45
547.664	37.5
547.861	37.68
548.058	37.83
548.255	37.95
548.452	38.14
548.649	38.3
548.846	38.31
549.043	38.48
549.24	38.6
549.437	38.78
549.633	38.82
549.83	38.87
550.027	38.82
550.224	38.88
550.421	38.94
550.618	38.95
550.814	39.07
551.011	39.14
551.208	39.06
551.405	39.07
551.601	39.03
551.798	39.09
551.995	39.1
552.191	39.1
552.388	38.95
552.585	38.92
552.781	38.95
552.978	38.81
553.175	38.85
553.371	39.03
553.568	39.07
553.764	39.26
553.961	39.26
554.157	39.33
554.354	39.4
554.55	39.58
554.747	39.65
554.943	39.71
555.14	39.82
555.336	39.87
555.533	39.89
555.729	39.97
555.926	39.74
556.122	39.77
556.318	39.85
556.515	39.86
556.711	39.96
556.907	40.01
557.104	39.99
557.3	40.15
557.496	40.15
557.693	40.14
557.889	40.12
558.085	40.29
558.281	40.42
558.478	40.37
558.674	40.54
558.87	40.62
559.066	40.69
559.262	40.68
559.459	40.62
559.655	40.63
559.851	40.72
560.047	40.67
560.243	40.63
560.439	40.64
560.635	40.69
560.831	40.6
561.027	40.55
561.223	40.45
561.419	40.58
561.615	40.6
561.811	40.79
562.007	40.91
562.203	41.09
562.399	41.14
562.595	41.2
562.791	41.4
562.987	41.63
563.183	41.8
563.379	41.93
563.575	42.05
563.771	42.15
563.966	42.19
564.162	42.19
564.358	42.18
564.554	42.21
564.75	42.23
564.945	42.24
565.141	42.15
565.337	42.02
565.533	42
565.728	41.95
565.924	41.83
566.12	41.78
566.315	41.76
566.511	41.73
566.707	41.8
566.902	41.78
567.098	41.71
567.293	41.71
567.489	41.8
567.684	41.9
567.88	41.83
568.076	42
568.271	42.1
568.467	42.15
568.662	42.23
568.858	42.41
569.053	42.49
569.248	42.67
569.444	42.71
569.639	42.77
569.835	42.86
570.03	43.06
570.225	43.04
570.421	43.01
570.616	43.04
570.812	43.1
571.007	43
571.202	43.11
571.397	42.99
571.593	43.03
571.788	42.99
571.983	42.95
572.178	42.9
572.374	43
572.569	43.12
572.764	43.16
572.959	43.16
573.154	43.23
573.35	43.16
573.545	43.23
573.74	43.26
573.935	43.37
574.13	43.4
574.325	43.32
574.52	43.32
574.715	43.36
574.91	43.36
575.105	43.39
575.3	43.33
575.495	43.26
575.69	43.22
575.885	43.22
576.08	43.17
576.275	43.29
576.47	43.44
576.665	43.38
576.86	43.33
577.055	43.29
577.25	43.46
577.444	43.61
577.639	43.64
577.834	43.82
578.029	43.89
578.224	43.93
578.418	43.82
578.613	43.91
578.808	44.03
579.003	44.04
579.197	44.15
579.392	44.14
579.587	44.08
579.781	44.25
579.976	44.24
580.171	44.37
580.365	44.48
580.56	44.57
580.755	44.6
580.949	44.78
581.144	44.78
581.338	44.78
581.533	44.81
581.727	44.95
581.922	45.07
582.116	45.06
582.311	45.08
582.505	45.07
582.7	45.09
582.894	45.19
583.089	45.1
583.283	45.23
583.478	45.31
583.672	45.15
583.866	45.1
584.061	45.16
584.255	45.43
584.449	45.43
584.644	45.56
584.838	45.55
585.032	45.51
585.226	45.57
585.421	45.57
585.615	45.54
585.809	45.73
586.003	45.82
586.198	45.67
586.392	45.51
586.586	45.53
586.78	45.62
586.974	45.88
587.168	45.91
587.363	45.9
587.557	45.96
587.751	46.19
587.945	46.32
588.139	46.46
588.333	46.57
588.527	46.64
588.721	46.79
588.915	46.84
589.109	46.69
589.303	47.04
589.497	47.11
589.691	47.14
589.885	47.11
590.079	46.94
590.273	46.94
590.466	47.04
590.66	47.04
590.854	47.04
591.048	46.95
591.242	47.16
591.436	46.98
591.629	47.04
591.823	46.96
592.017	47.12
592.211	47.45
592.404	47.52
592.598	47.63
592.792	47.7
592.986	47.67
593.179	47.74
593.373	47.74
593.567	47.9
593.76	47.96
593.954	48.18
594.147	48.22
594.341	48.23
594.535	48.33
594.728	48.26
594.922	48.32
595.115	48.46
595.309	48.44
595.502	48.54
595.696	48.39
595.889	48.35
596.083	48.37
596.276	48.28
596.47	48.21
596.663	48.14
596.856	48.18
597.05	48.17
597.243	48.16
597.437	48.21
597.63	48.16
597.823	48.13
598.017	48.26
598.21	48.31
598.403	48.4
598.596	48.48
598.79	48.67
598.983	48.8
599.176	48.76
599.369	48.67
599.563	48.76
599.756	48.82
599.949	48.99
600.142	49.08
600.335	49.1
600.528	49.15
600.722	49.26
600.915	49.29
601.108	49.47
601.301	49.68
601.494	49.78
601.687	49.98
601.88	50.01
602.073	50.08
602.266	50.03
602.459	50.02
602.652	50.03
602.845	49.98
603.038	49.78
603.231	49.67
603.424	49.63
603.617	49.58
603.809	49.45
604.002	49.33
604.195	49.19
604.388	49.11
604.581	49.15
604.774	48.99
604.966	48.88
605.159	48.91
605.352	48.78
605.545	48.66
605.737	48.87
605.93	48.95
606.123	49.15
606.316	49.44
606.508	49.65
606.701	49.65
606.894	49.91
607.086	49.98
607.279	50.16
607.471	50.3
607.664	50.48
607.857	50.39
608.049	50.41
608.242	50.16
608.434	49.89
608.627	49.81
608.819	49.66
609.012	49.51
609.204	49.45
609.397	49.4
609.589	49.18
609.782	49.11
609.974	49.04
610.166	49.04
610.359	49.2
610.551	49.37
610.743	49.46
610.936	49.7
611.128	49.85
611.32	50.08
611.513	50.05
611.705	50.31
611.897	50.2
612.09	50.4
612.282	50.46
612.474	50.45
612.666	50.6
612.858	50.57
613.051	50.52
613.243	50.45
613.435	50.46
613.627	50.52
613.819	50.53
614.011	50.86
614.203	50.66
614.395	50.53
614.588	50.52
614.78	50.49
614.972	50.53
615.164	50.53
615.356	50.63
615.548	50.44
615.74	50.34
615.932	50.25
616.124	50.06
616.315	50.28
616.507	50.34
616.699	50.32
616.891	50.26
617.083	50.41
617.275	50.34
617.467	50.29
617.659	50.38
617.85	50.4
618.042	50.43
618.234	50.45
618.426	50.05
618.618	49.9
618.809	49.91
619.001	49.89
619.193	49.74
619.384	49.78
619.576	49.78
619.768	49.77
619.959	49.83
620.151	50.09
620.343	50.09
620.534	50.29
620.726	50.42
620.917	50.6
621.109	50.43
621.301	50.42
621.492	50.6
621.684	50.63
621.875	50.58
622.067	50.6
622.258	50.27
622.45	50.22
622.641	50.35
622.832	50.53
623.024	50.46
623.215	50.69
623.407	50.81
623.598	50.68
623.789	50.71
623.981	50.69
624.172	50.95
624.363	51.17
624.555	51.37
624.746	51.32
624.937	51.34
625.129	51.39
625.32	51.3
625.511	51.44
625.702	51.34
625.893	51.29
626.085	51.42
626.276	51.27
626.467	51.04
626.658	50.92
626.849	50.89
627.04	50.8
627.231	50.79
627.422	50.85
627.614	50.65
627.805	50.79
627.996	50.95
628.187	51.01
628.378	50.94
628.569	51.19
628.76	51.29
628.951	51.21
629.142	51.23
629.332	51.22
629.523	51.12
629.714	51.02
629.905	50.96
630.096	50.73
630.287	50.71
630.478	50.77
630.669	50.77
630.859	50.91
631.05	51.01
631.241	50.85
631.432	50.83
631.623	51.02
631.813	51.05
632.004	51.02
632.195	51.16
632.385	51.18
632.576	51.25
632.767	51.26
632.957	51.14
633.148	51.17
633.339	51.23
633.529	51.03
633.72	51.05
633.91	51.12
634.101	51.08
634.292	51.2
634.482	51.16
634.673	50.96
634.863	50.88
635.054	50.95
635.244	50.87
635.435	50.82
635.625	50.95
635.815	50.89
636.006	50.91
636.196	50.9
636.387	50.61
636.577	50.5
636.767	50.62
636.958	50.58
637.148	50.58
637.338	50.95
637.529	51.07
637.719	51.18
637.909	51.12
638.099	51.02
638.29	51.15
638.48	51.35
638.67	51.48
638.86	51.47
639.05	51.51
639.241	51.25
639.431	50.95
639.621	51.05
639.811	50.99
640.001	50.83
640.191	51.02
640.381	50.76
640.571	50.77
640.761	50.68
640.951	50.65
641.141	50.6
641.331	50.69
641.521	50.78
641.711	50.52
641.901	50.51
642.091	50.77
642.281	50.46
642.471	50.52
642.661	50.32
642.851	50.46
643.041	50.8
643.231	50.74
643.42	50.73
643.61	50.48
643.8	50.62
643.99	50.56
644.18	50.61
644.369	51.01
644.559	51.42
644.749	51.64
644.939	51.51
645.128	51.09
645.318	51.1
645.508	51.28
645.697	51.53
645.887	51.5
646.076	51.41
646.266	51.35
646.456	51.29
646.645	51.34
646.835	51.41
647.024	51.58
647.214	51.89
647.403	52.13
647.593	51.96
647.782	51.89
647.972	51.82
648.161	52.05
648.351	52.11
648.54	52
648.73	51.73
648.919	51.53
649.108	51.25
649.298	51.24
649.487	51.3
649.677	51.38
649.866	51.53
650.055	51.92
650.244	51.96
650.434	51.98
650.623	52.25
650.812	52.15
651.002	52.24
651.191	52.41
651.38	52.16
651.569	51.92
651.758	51.79
651.947	51.65
652.137	51.37
652.326	51.64
652.515	51.49
652.704	51.54
652.893	51.95
653.082	51.85
653.271	51.87
653.46	52.12
653.649	52.33
653.838	52.46
654.027	52.64
654.216	52.47
654.405	52.24
654.594	52.44
654.783	52.19
654.972	52.03
655.161	52.33
655.35	52.56
655.539	52.68
655.728	52.72
655.916	52.71
656.105	52.54
656.294	52.93
656.483	52.98
656.672	52.9
656.86	53.01
657.049	53.04
657.238	53.03
657.427	52.92
657.615	53.03
657.804	53.13
657.993	53.23
658.181	53.2
658.37	53.17
658.559	53.18
658.747	53.12
658.936	53.04
659.125	52.96
659.313	52.91
659.502	52.82
659.69	52.5
659.879	52.34
660.067	52.31
660.256	52.44
660.444	52.45
660.633	52.3
660.821	52.27
661.01	52.32
661.198	52.14
661.387	52.13
661.575	51.95
661.763	52.2
661.952	52.09
662.14	52.17
662.328	51.95
662.517	51.9
662.705	51.91
662.893	51.96
663.082	51.98
663.27	52.31
663.458	52.29
663.646	52.55
663.834	52.34
664.023	52.48
664.211	52.35
664.399	52.48
664.587	52.3
664.775	52.48
664.963	52.52
665.152	52.31
665.34	52.22
665.528	52.35
665.716	52.47
665.904	52.51
666.092	52.63
666.28	52.56
666.468	52.73
666.656	52.86
666.844	52.79
667.032	52.91
667.22	53.16
667.408	53.12
667.596	53.24
667.784	53.07
667.971	53.14
668.159	53.23
668.347	53.31
668.535	53.22
668.723	53.14
668.911	53.47
669.098	53.4
669.286	53.31
669.474	53.53
669.662	53.36
669.849	53.47
670.037	53.39
670.225	53.21
670.413	53.37
670.6	53.26
670.788	53.08
670.976	52.87
671.163	52.71
671.351	52.48
671.538	52.37
671.726	52.14
671.913	52.01
672.101	52.37
672.289	52.4
672.476	52.25
672.664	52.44
672.851	52.65
673.039	52.63
673.226	52.99
673.413	53.14
673.601	53.18
673.788	53.25
673.976	53.2
674.163	53.18
674.35	53.12
674.538	53.18
674.725	53
674.912	53.18
675.1	53.16
675.287	53.05
675.474	52.99
675.662	52.96
675.849	53.45
676.036	53.46
676.223	53.16
676.411	53.29
676.598	53.04
676.785	53.23
676.972	53.1
677.159	53.14
677.346	53.32
677.533	53.71
677.721	53.71
677.908	53.53
678.095	53.65
678.282	53.81
678.469	53.56
678.656	53.75
678.843	53.77
679.03	53.81
679.217	53.93
679.404	53.69
679.591	53.57
679.778	53.24
679.964	53.12
680.151	53.21
680.338	53.06
680.525	53.42
680.712	53.41
680.899	53.33
681.086	53.33
681.272	52.91
681.459	53.04
681.646	52.87
681.833	53.37
682.02	53.58
682.206	53.5
682.393	53.24
682.58	53.06
682.766	53.08
682.953	53.04
683.14	52.84
683.326	53.49
683.513	53.71
683.7	54
683.886	53.93
684.073	53.2
684.259	53.15
684.446	53.66
684.632	53.56
684.819	53.7
685.005	53.54
685.192	53.8
685.378	53.52
685.565	53.32
685.751	53.2
685.938	53.16
686.124	53.78
686.31	53.75
686.497	53.56
686.683	53.67
686.87	53.35
687.056	53.5
687.242	53.16
687.429	52.91
687.615	53.01
687.801	52.92
687.987	52.8
688.174	52.62
688.36	52.92
688.546	52.78
688.732	52.77
688.918	52.84
689.105	52.79
689.291	53.17
689.477	53.23
689.663	53.05
689.849	53.13
690.035	53.44
690.221	53.54
690.407	53.55
690.593	53.64
690.779	53.61
690.965	53.69
691.151	53.63
691.337	53.44
691.523	53.74
691.709	53.62
691.895	53.86
692.081	53.7
692.267	53.97
692.453	53.96
692.639	53.95
692.825	53.97
693.011	54.23
693.196	54.43
693.382	54.42
693.568	53.89
693.754	54.2
693.94	54.11
694.125	54.32
694.311	53.87
694.497	53.82
694.682	54.15
694.868	54.37
695.054	53.99
695.239	53.94
695.425	54.01
695.611	54.22
695.796	54.22
695.982	54.2
696.168	53.88
696.353	54.07
696.539	53.96
696.724	53.95
696.91	53.69
697.095	53.95
697.281	53.88
697.466	54.01
697.652	53.97
697.837	53.77
698.023	53.84
698.208	53.58
698.393	53.54
698.579	53.41
698.764	53.2
698.949	53.38
699.135	53.1
699.32	52.86
699.505	52.61
699.691	52.55
699.876	52.4
700.061	51.88
700.246	52.07
700.432	52.03
700.617	52.11
700.802	52.13
700.987	51.93
701.172	51.98
701.358	52.1
701.543	52.14
701.728	52.12
701.913	52.2
702.098	52.53
702.283	52.76
702.468	52.69
702.653	52.72
702.838	53.3
703.023	53.17
703.208	53.37
703.393	53.86
703.578	54.12
703.763	54.24
703.948	54.3
704.133	54.31
704.318	54.34
704.503	54.31
704.688	54.35
704.873	53.77
705.057	53.95
705.242	53.98
705.427	53.63
705.612	53.53
705.797	53.58
705.981	53.85
706.166	54.07
706.351	54.36
706.536	54.7
706.72	54.58
706.905	54.73
707.09	54.42
707.274	54.66
707.459	54.92
707.644	54.98
707.828	54.97
708.013	54.44
708.197	54.17
708.382	53.86
708.567	53.6
708.751	53.64
708.936	53.73
709.12	54.12
709.305	53.75
709.489	54
709.673	53.72
709.858	53.58
710.042	53.93
710.227	54.16
710.411	54.33
710.596	54.3
710.78	54.37
710.964	54.35
711.149	54.47
711.333	54.32
711.517	53.89
711.702	53.94
711.886	53.66
712.07	53.78
712.254	53.32
712.438	53.5
712.623	53.59
712.807	53.32
712.991	53.13
713.175	53.03
713.359	53.25
713.544	53.32
713.728	53.57
713.912	53.95
714.096	54.13
714.28	54.32
714.464	53.99
714.648	53.89
714.832	54.13
715.016	54.22
715.2	54.12
715.384	54.29
715.568	54.19
715.752	53.53
715.936	53.71
716.12	53.82
716.304	54.28
716.488	54.09
716.671	54.1
716.855	54.45
717.039	54.37
717.223	54.39
717.407	54.2
717.59	54.34
717.774	54.9
717.958	54.7
718.142	54.37
718.325	53.78
718.509	54.24
718.693	54.34
718.877	53.94
719.06	54.23
719.244	54.73
719.428	54.83
719.611	54.7
719.795	54.91
719.978	54.64
720.162	54.63
720.345	55.3
720.529	55.15
720.713	55.07
720.896	55.62
721.08	54.99
721.263	54.48
721.446	54.33
721.63	54.54
721.813	54.34
721.997	54.5
722.18	54.47
722.364	54.45
722.547	54.23
722.73	54.08
722.914	53.62
723.097	53.88
723.28	53.64
723.464	53.53
723.647	53.86
723.83	53.58
724.013	53.54
724.197	53.64
724.38	53.22
724.563	53.48
724.746	53.68
724.929	53.77
725.112	54.36
725.296	54.1
725.479	54.35
725.662	54.23
725.845	54.54
726.028	54.52
726.211	54.39
726.394	54.67
726.577	54.48
726.76	54.57
726.943	54.48
727.126	53.55
727.309	54.1
727.492	54.46
727.675	54.44
727.858	54.26
728.041	54.97
728.224	55.15
728.407	54.91
728.589	55.13
728.772	55.03
728.955	55.29
729.138	55.4
729.321	55.19
729.503	54.62
729.686	54.72
729.869	55.14
730.052	54.65
730.234	54.79
730.417	54.68
730.6	54.57
730.782	54.62
730.965	54.1
731.148	54.82
731.33	55.19
731.513	55.51
731.695	55.49
731.878	55.51
732.061	55.36
732.243	55.34
732.426	55.63
732.608	55.82
732.791	55.93
732.973	56.2
733.156	56.18
733.338	55.8
733.52	55.53
733.703	55.45
733.885	55
734.068	55.26
734.25	55.28
734.432	54.87
734.615	54.53
734.797	54.54
734.979	53.88
735.162	53.63
735.344	53.45
735.526	53.6
735.708	53.1
735.891	53.48
736.073	53.32
736.255	52.96
736.437	52.69
736.619	52.89
736.802	52.48
736.984	53.07
737.166	53.26
737.348	53.4
737.53	53.58
737.712	53.95
737.894	53.84
738.076	54.4
738.258	54.47
738.44	54.8
738.622	54.45
738.804	54.63
738.986	54.62
739.168	54.76
739.35	54.93
739.532	54.99
739.714	55.74
739.896	55.57
740.078	54.93
740.259	54.85
740.441	55.38
740.623	54.94
740.805	54.95
740.987	54.69
741.168	54.4
741.35	54.93
741.532	54.79
741.714	53.88
741.895	54.13
742.077	54.2
742.259	53.9
742.44	53.35
742.622	54.38
742.804	54.41
742.985	54.71
743.167	54.38
743.348	53.43
743.53	53.39
743.711	53.26
743.893	53.36
744.075	53.77
744.256	53.78
744.438	54.41
744.619	53.89
744.8	54.07
744.982	54.02
745.163	54.63
745.345	55.05
745.526	55.65
745.707	56.36
745.889	56.5
746.07	56.23
746.252	56.68
746.433	56.05
746.614	56.42
746.795	56.65
746.977	57.22
747.158	56.9
747.339	56.64
747.52	56.05
747.702	55.76
747.883	55.53
748.064	55.77
748.245	56.05
748.426	56.02
748.607	55.87
748.788	56.18
748.97	56.02
749.151	55.95
749.332	56.96
749.513	56.99
749.694	56.71
749.875	56.47
750.056	56.22
750.237	55.47
750.418	55.88
750.599	55.68
750.78	55.17
750.96	55.08
751.141	55.3
751.322	54.81
751.503	54.85
751.684	54.9
751.865	54.95
752.046	55.23
752.226	55.68
752.407	55.39
752.588	55.52
752.769	55.84
752.949	56.16
753.13	56.77
753.311	56.98
753.492	56.81
753.672	57.12
753.853	57.13
754.034	57.03
754.214	57.09
754.395	56.48
754.575	56.75
754.756	56.97
754.937	56.6
755.117	56.19
755.298	55.74
755.478	55.58
755.659	55.43
755.839	56.17
756.02	56.23
756.2	56.32
756.381	56.4
756.561	56.51
756.741	56.33
756.922	56.41
757.102	56.06
757.283	56.79
757.463	56.71
757.643	56.99
757.823	55.96
758.004	55.61
758.184	55.34
758.364	55.99
758.545	56.25
758.725	55.89
758.905	55.85
759.085	55.34
759.265	54.54
759.446	54.73
759.626	54.23
759.806	54.71
759.986	54.4
760.166	54.5
760.346	55.18
760.526	55.18
760.706	55.34
760.886	55.11
761.066	55.55
761.246	55.93
761.426	56.01
761.606	56.28
761.786	55.69
761.966	55.77
762.146	55.96
762.326	55.57
762.506	55.74
762.686	55.58
762.866	55.48
763.046	55.21
763.225	55.1
763.405	55.19
763.585	55.34
763.765	55.37
763.945	55.13
764.124	55.22
764.304	55.19
764.484	54.87
764.664	54.69
764.843	54.79
765.023	55.4
765.203	55.4
765.382	55.16
765.562	54.93
765.741	55.03
765.921	56.06
766.101	56.22
766.28	56.13
766.46	55.76
766.639	56.06
766.819	56.32
766.998	55.94
767.178	55.35
767.357	55.44
767.537	55.29
767.716	55.67
767.896	55.21
768.075	54.01
768.254	53.78
768.434	54.67
768.613	54.8
768.792	54.5
768.972	54.05
769.151	54.09
769.33	54.43
769.51	55.05
769.689	55.81
769.868	56.71
770.047	57.84
770.226	57.77
770.406	57.1
770.585	56.41
770.764	56.61
770.943	56.88
771.122	57.71
771.301	57.92
771.48	57.59
771.66	57.23
771.839	56.63
772.018	56.43
772.197	56.38
772.376	55.97
772.555	56.08
772.734	56.48
772.913	56.57
773.092	56.16
773.271	55.97
773.449	55.47
773.628	55
773.807	55.04
773.986	54.98
774.165	54.89
774.344	56.3
774.523	57.19
774.701	57.11
774.88	57.65
775.059	57.66
775.238	57.48
775.417	57.48
775.595	58
775.774	57.52
775.953	57.55
776.131	58.04
776.31	56.04
776.489	55.58
776.667	54.75
776.846	55.02
777.025	55.37
777.203	55.52
777.382	56.52
777.56	56.22
777.739	56.18
777.917	55.85
778.096	55.77
778.274	56.69
778.453	56.41
778.631	57.01
778.81	55.75
778.988	56.57
779.166	56.41
779.345	55.31
779.523	54.86
779.702	54.81
779.88	55.65
780.058	56.03
780.237	56.2
780.415	56.94
780.593	56.73
780.771	57.25
780.95	56.81
781.128	57.38
781.306	57.26
781.484	57.43
781.662	56.83
781.841	55.47
782.019	54.77
782.197	53.91
782.375	52.75
782.553	52.56
782.731	53.16
782.909	52.36
783.087	52.48
783.265	53.54
783.443	54.38
783.621	55.42
783.799	56.77
783.977	57.31
784.155	57.44
784.333	57.95
784.511	58.29
784.689	56.65
784.867	57.37
785.045	56.34
785.223	56.05
785.4	55.82
785.578	55.01
785.756	53.62
785.934	53.7
786.112	54.67
786.289	54.91
786.467	54.96
786.645	56.96
786.823	55.6
787	55.68
787.178	54.26
787.356	54.29
787.533	54.7
787.711	55.17
787.889	55.18
788.066	55.75
788.244	55.37
788.421	55.37
788.599	54.93
788.776	55.96
788.954	56.63
789.131	57.39
789.309	57.46
789.486	58.09
789.664	58.52
789.841	58.22
790.019	57.4
790.196	57.2
790.373	56.92
790.551	57.1
790.728	56.3
790.906	56.62
791.083	55.76
791.26	54.32
791.437	53.47
791.615	53.37
791.792	53.45
791.969	53.27
792.146	54.18
792.324	53.99
792.501	53.33
792.678	54.83
792.855	53.54
793.032	54.35
793.209	56.24
793.387	56.26
793.564	56.98
793.741	57.07
793.918	56.85
794.095	56.96
794.272	56.55
794.449	57.1
794.626	56.39
794.803	57.17
794.98	56.4
795.157	56.23
795.334	56.51
795.511	54.75
795.688	54.24
795.864	54.01
796.041	53.18
796.218	54.27
796.395	53.32
796.572	52.78
796.749	53
796.925	53.45
797.102	53.2
797.279	52.7
797.456	54.13
797.632	54.44
797.809	55.13
797.986	55.72
798.162	55.73
798.339	56.4
798.516	57.6
798.692	57.12
798.869	57.98
799.046	57.29
799.222	58.53
799.399	57.78
799.575	58.2
799.752	58.32
799.928	58.61
800.105	57.94
800.281	57.85
800.458	56.58
800.634	56.16
800.811	56.37
800.987	56.77
801.163	55.96
801.34	56.62
801.516	56.17
801.692	56.58
801.869	56.72
802.045	57.57
802.221	57.74
802.398	58.4
802.574	58.57
802.75	58.23
802.926	57.56
803.103	57.9
803.279	57.82
803.455	57.96
803.631	57.73
803.807	57.64
803.983	55.44
804.16	55.27
804.336	54.3
804.512	54.16
804.688	54.54
804.864	54.92
805.04	53.65
805.216	52.88
805.392	53.04
805.568	52.57
805.744	52.55
805.92	53.24
806.096	53
806.272	54.62
806.448	55.05
806.623	54.93
806.799	55.2
806.975	56.49
807.151	56.48
807.327	55.86
807.503	55.81
807.678	55.32
807.854	56.61
808.03	57.46
808.206	56.52
808.381	56.44
808.557	56.28
808.733	57.2
808.908	57.21
809.084	58.18
809.26	59.03
809.435	58.13
809.611	57.77
809.787	56.99
809.962	56.62
810.138	56.75
810.313	57.39
810.489	56.81
810.664	55.78
810.84	54.77
811.015	54.11
811.191	53.74
811.366	53.9
811.542	54.4
811.717	55.17
811.892	55.25
812.068	56.13
812.243	55.89
812.419	57.3
812.594	57.52
812.769	57.93
812.944	57.43
813.12	55.87
813.295	56.47
813.47	55.74
813.645	54.66
813.821	53.66
813.996	53.53
814.171	52.81
814.346	53.46
814.521	53.18
814.697	54.72
814.872	54.63
815.047	56.98
815.222	57.18
815.397	56.9
815.572	58.29
815.747	58.77
815.922	58.16
816.097	58.67
816.272	57.11
816.447	56.56
816.622	55.58
816.797	56.94
816.972	56.79
817.147	56.21
817.322	56.88
817.496	55.28
817.671	55.95
817.846	55.65
818.021	55.7
818.196	55.4
818.371	54.86
818.545	55.8
818.72	55.21
818.895	54.97
819.069	55.06
819.244	55.73
819.419	56.68
819.594	56.05
819.768	56.72
819.943	57.01
820.117	57.67
820.292	58.24
820.467	57.74
820.641	57.83
820.816	58.46
820.99	58.48
821.165	58.08
821.339	58.06
821.514	57.93
821.688	57.53
821.863	57.1
822.037	56.71
822.212	56.63
822.386	56.43
822.56	56.15
822.735	55.46
822.909	55.09
823.084	54.88
823.258	54.5
823.432	54.18
823.606	53.77
823.781	53.52
823.955	53.43
824.129	53.03
824.303	52.72
824.478	52.72
824.652	53.05
824.826	53.07
825	52.76
825.174	52.76
825.348	52.91
825.523	53.46
825.697	53.95
825.871	54.11
826.045	53.98
826.219	54.24
826.393	54.11
826.567	54.07
826.741	54.43
826.915	54.87
827.089	55.28
827.263	54.67
827.437	54.36
827.611	53.81
827.784	53.62
827.958	53.98
828.132	53.72
828.306	53.84
828.48	53.72
828.654	53.25
828.827	52.62
829.001	52.45
829.175	53.76
829.349	54.03
829.522	54.62
829.696	54.51
829.87	54.47
830.044	55.16
830.217	55.85
830.391	55.71
830.565	56.16
830.738	57.54
830.912	57.43
831.085	57
831.259	56.91
831.432	56.59
831.606	57.08
831.779	56.48
831.953	56.29
832.126	55.85
832.3	56.43
832.473	56.28
832.647	55.06
832.82	54.61
832.994	54.59
833.167	54.87
833.34	54.6
833.514	54.57
833.687	55.63
833.86	55.87
834.034	55.32
834.207	55.05
834.38	55.24
834.553	55.76
834.727	55.33
834.9	55.5
835.073	55.8
835.246	56.73
835.419	56.94
835.593	56.29
835.766	56.2
835.939	56.98
836.112	56.97
836.285	57.39
836.458	56.99
836.631	58.05
836.804	57.52
836.977	56.71
837.15	56.75
837.323	56.19
837.496	55.37
837.669	53.83
837.842	53.48
838.015	52.43
838.188	49.79
838.361	50.46
838.533	50.83
838.706	51.53
838.879	49.95
839.052	49.22
839.225	49.39
839.398	50.84
839.57	53.32
839.743	53.07
839.916	53.89
840.088	57.95
840.261	57.07
840.434	55.91
840.607	54.23
840.779	55.77
840.952	56.22
841.124	57.1
841.297	55.9
841.47	53.22
841.642	54.85
841.815	54.64
841.987	48.88
842.16	48.51
842.332	48.55
842.505	48.27
842.677	49.06
842.85	49.79
843.022	47.46
843.194	48.91
843.367	51.13
843.539	51.01
843.712	47.99
843.884	49.92
844.056	50.97
844.229	52.01
844.401	57.33
844.573	58.41
844.745	57.55
844.918	59.61
845.09	58.29
845.262	56.13
845.434	53.4
845.606	59.54
845.779	63.38
845.951	63.69
846.123	61.12
846.295	58.48
846.467	58.96
846.639	63.54
846.811	66.48
846.983	67.27
847.155	72.58
847.327	74.32
847.499	69.31
847.671	69.11
847.843	68.31
848.015	70.29
848.187	72.16
848.359	72.02
848.531	67.99
848.703	65.51
848.875	67.87
849.047	64.87
849.218	65.55
849.39	69.29
849.562	65.4
849.734	66.21
849.905	65.75
850.077	63.83
850.249	62.05
850.421	60.78
850.592	59.49
850.764	57.22
850.936	57.83
851.107	54.74
851.279	57.38
851.451	60.73
851.622	59.25
851.794	61.35
851.965	63.28
852.137	61.69
852.308	64.68
852.48	67.79
852.651	67.86
852.823	69.33
852.994	67.78
853.166	66.14
853.337	67.65
853.509	68.51
853.68	68.34
853.851	65.3
854.023	65.45
854.194	63.81
854.365	62.31
854.537	61.69
854.708	61.82
854.879	64.1
855.05	64.2
855.222	60.5
855.393	61.03
855.564	59.8
855.735	61.12
855.906	62.64
856.078	62.07
856.249	65.01
856.42	64.25
856.591	63.27
856.762	65.19
856.933	62.99
857.104	62.34
857.275	64.3
857.446	61.8
857.617	62.95
857.788	62.51
857.959	63.5
858.13	61.18
858.301	63.85
858.472	61.4
858.643	59.16
858.814	56.47
858.985	56.84
859.155	55.83
859.326	60.05
859.497	59.08
859.668	60.66
859.839	59.43
860.009	57.54
860.18	56.01
860.351	56.15
860.522	56.52
860.692	64.04
860.863	63.14
861.034	61.23
861.204	60.57
861.375	58.94
861.546	59.49
861.716	59.78
861.887	60.68
862.057	59.1
862.228	62.43
862.398	63.52
862.569	60.14
862.739	62.26
862.91	60.29
863.08	58.29
863.251	59.47
863.421	58.79
863.592	60.29
863.762	58.38
863.932	57.26
864.103	49.09
864.273	50.93
864.443	49.27
864.614	49.81
864.784	56.18
864.954	57.05
865.125	61.29
865.295	56.47
865.465	53.85
865.635	52.95
865.805	55.7
865.976	56.73
866.146	52.42
866.316	52.95
866.486	51.73
866.656	52.18
866.826	53.32
866.996	49.99
867.166	56.09
867.336	52.38
867.506	56.37
867.676	57.24
867.846	56.99
868.016	61.67
868.186	62.98
868.356	67.89
868.526	61.73
868.696	60.7
868.866	62.18
869.036	57.9
869.206	60.36
869.376	61.61
869.545	57.9
869.715	63.97
869.885	59.47
870.055	56.7
870.224	56.49
870.394	57.61
870.564	57.51
870.734	53.28
870.903	55
871.073	58.73
871.243	55.92
871.412	59.1
871.582	55.72
871.751	64.1
871.921	69.02
872.091	66.95
872.26	67.13
872.43	67.07
872.599	68.23
872.769	65.64
872.938	65.1
873.108	63.65
873.277	64.63
873.446	67.22
873.616	62.76
873.785	63.83
873.955	61
874.124	61.4
874.293	56.77
874.463	57.49
874.632	60.08
874.801	59.34
874.971	63.2
875.14	63.12
875.309	61.37
875.478	59.45
875.647	52.59
875.817	53.71
875.986	54.9
876.155	60.16
876.324	59.48
876.493	59.44
876.662	59
876.831	55.14
877	54.23
877.17	52.67
877.339	52.16
877.508	53.82
877.677	54.68
877.846	53.1
878.015	52.68
878.184	53.27
878.352	52.35
878.521	54.24
878.69	57.09
878.859	57.17
879.028	60.72
879.197	60.62
879.366	59.51
879.534	59.72
879.703	58.97
879.872	57.6
880.041	57.32
880.21	58.13
880.378	58.27
880.547	56.96
880.716	57.22
880.884	56.17
881.053	56.29
881.222	57.14
881.39	56.65
881.559	57.02
881.727	56.47
881.896	55.05
882.065	54.3
882.233	52.72
882.402	52.58
882.57	51.91
882.739	51.95
882.907	52.32
883.076	51.72
883.244	51
883.412	51.62
883.581	51.54
883.749	51.54
883.918	51.31
884.086	52.51
884.254	53.21
884.423	52.59
884.591	52.79
884.759	51.57
884.927	51.21
885.096	52.21
885.264	50.79
885.432	50.97
885.6	53.33
885.769	54.96
885.937	54.35
886.105	53.31
886.273	55.29
886.441	55.16
886.609	57.07
886.777	58.23
886.945	56.15
887.113	55.05
887.281	54.72
887.449	53.65
887.617	52.34
887.785	53.95
887.953	53.59
888.121	50.82
888.289	48.85
888.457	48.44
888.625	46.2
888.793	52.71
888.961	54.42
889.129	57.57
889.296	57.5
889.464	57.82
889.632	55.93
889.8	56.23
889.967	60.05
890.135	64.17
