Data from 2938517_Reflection_3.txt Node
Date: Tue Jun 16 22:29:30 EDT 2015
User: robert
Spectrometer: USB4E03002
Autoset integration time: false
Trigger mode: 4
Integration Time (sec): 1.000000E-1
Scans to average: 10
Electric dark correction enabled: true
Nonlinearity correction enabled: false
Boxcar width: 5
Stray light correction enabled: false
XAxis mode: Wavelengths
Stop averaging: false
Number of Pixels in Spectrum: 3648
>>>>>Begin Spectral Data<<<<<
177.575	-27.6
177.794	-17.46
178.014	27.56
178.233	71.7
178.452	94.56
178.672	190.26
178.891	593.98
179.11	-421.82
179.33	-1525.48
179.549	-130.43
179.768	-158.01
179.987	-199.1
180.207	-235.34
180.426	-117.78
180.645	-1968.69
180.864	1190.72
181.084	181.8
181.303	171.69
181.522	163.89
181.741	140.75
181.96	102.76
182.179	116.77
182.398	150.19
182.618	135.96
182.837	164.98
183.056	125.28
183.275	214.29
183.494	296.71
183.713	-260.87
183.932	-590.73
184.151	-572.63
184.37	-3400
184.589	386.33
184.808	182.87
185.027	229.08
185.246	158.85
185.465	178.48
185.684	154.91
185.903	194.65
186.122	159.36
186.341	175.51
186.56	181.29
186.779	240.85
186.998	424.53
187.216	636.7
187.435	429.41
187.654	411
187.873	753.12
188.092	627.64
188.311	407.95
188.53	420.19
188.748	969.76
188.967	6720.43
189.186	337.86
189.405	179.97
189.623	172.1
189.842	139.99
190.061	129.84
190.28	108.07
190.498	121.99
190.717	110.55
190.936	100.5
191.154	99.95
191.373	108.19
191.592	107.38
191.81	119.13
192.029	116.36
192.248	154.74
192.466	206.16
192.685	197
192.904	260.33
193.122	400.79
193.341	-223.37
193.559	-103.28
193.778	-70.96
193.996	-106.16
194.215	-577.77
194.433	-385.67
194.652	-836.16
194.87	2697.99
195.089	463.53
195.307	463.93
195.526	318.33
195.744	307.62
195.963	243.94
196.181	217.03
196.399	215.51
196.618	212.49
196.836	174.2
197.055	156.86
197.273	164.58
197.491	195.07
197.71	137.93
197.928	174.94
198.146	196.92
198.365	182.27
198.583	180.66
198.801	179.04
199.019	138.92
199.238	202.14
199.456	437.08
199.674	281.64
199.892	266.68
200.111	211.48
200.329	124.88
200.547	64.89
200.765	64.07
200.983	76.14
201.202	40.79
201.42	53.24
201.638	45.6
201.856	49.41
202.074	49.75
202.292	59.35
202.51	62.21
202.728	77.52
202.946	147.2
203.165	162.34
203.383	148.63
203.601	143.98
203.819	188.64
204.037	142.34
204.255	103.28
204.473	107.75
204.691	93.6
204.909	120.29
205.127	145.61
205.345	109.25
205.562	99.37
205.78	102.5
205.998	108.6
206.216	61.6
206.434	102.36
206.652	197.74
206.87	219.55
207.088	257.6
207.306	232.8
207.523	146.39
207.741	156.5
207.959	151.22
208.177	144.53
208.395	153.87
208.612	129.96
208.83	111.24
209.048	107.76
209.266	100.65
209.483	85.77
209.701	88.14
209.919	100.27
210.136	104.85
210.354	93.24
210.572	92.08
210.79	86.4
211.007	94.56
211.225	94
211.442	92.53
211.66	93.26
211.878	92.26
212.095	90.71
212.313	90.16
212.53	83.26
212.748	88.72
212.966	90.45
213.183	95.76
213.401	100.83
213.618	101.13
213.836	95.29
214.053	91.86
214.271	100.04
214.488	103.12
214.705	93.86
214.923	102.26
215.14	92.18
215.358	80.22
215.575	64.54
215.793	57.94
216.01	61.2
216.227	91.45
216.445	104.79
216.662	102.02
216.879	90.38
217.097	94.99
217.314	111.81
217.531	115.38
217.749	101.79
217.966	113.04
218.183	101.65
218.4	94.21
218.618	71.18
218.835	75.1
219.052	57.19
219.269	66.36
219.487	67.03
219.704	60.83
219.921	57.76
220.138	72.13
220.355	68.15
220.572	73.95
220.79	76.85
221.007	75.71
221.224	71.95
221.441	81.33
221.658	64.21
221.875	59.05
222.092	49.39
222.309	48.75
222.526	42.74
222.743	43.76
222.96	37.07
223.177	41.3
223.394	48.88
223.611	44.5
223.828	39
224.045	42.47
224.262	38.1
224.479	38.69
224.696	36.15
224.913	32.07
225.13	28.67
225.347	27.86
225.564	21.48
225.781	16.27
225.997	15.05
226.214	15.04
226.431	14.14
226.648	14.49
226.865	14.08
227.082	13.12
227.298	14.2
227.515	13.57
227.732	13.97
227.949	14.86
228.165	14.13
228.382	14.18
228.599	13.95
228.816	14.43
229.032	14.61
229.249	14.26
229.466	15.66
229.682	14.36
229.899	14.34
230.116	13.76
230.332	14.24
230.549	14.95
230.765	14.19
230.982	13.14
231.199	14.9
231.415	13.57
231.632	12.15
231.848	12.86
232.065	14.01
232.281	14.43
232.498	13.9
232.714	12.92
232.931	13.95
233.147	13.71
233.364	15.76
233.58	11.72
233.797	12.07
234.013	14.64
234.23	13.1
234.446	13.6
234.662	12.19
234.879	14.08
235.095	16.33
235.312	16.19
235.528	19.65
235.744	18.36
235.961	21.8
236.177	22.24
236.393	23.16
236.61	23.71
236.826	22.84
237.042	23.75
237.258	21.62
237.475	19.21
237.691	19.3
237.907	16.64
238.123	17.15
238.339	16.49
238.556	15.18
238.772	13.76
238.988	14.96
239.204	15
239.42	14.05
239.636	13.45
239.853	13.59
240.069	14.11
240.285	13.83
240.501	13.92
240.717	13.46
240.933	13.83
241.149	14.15
241.365	12.7
241.581	12.05
241.797	12.32
242.013	12.75
242.229	12.26
242.445	11.97
242.661	12.02
242.877	11.3
243.093	11.42
243.309	11.27
243.525	10.28
243.741	11.05
243.957	11.5
244.173	11.03
244.388	10.78
244.604	10.82
244.82	9.89
245.036	9.42
245.252	9.81
245.468	9.07
245.683	9.18
245.899	8.99
246.115	8.98
246.331	8.8
246.547	8.57
246.762	8.25
246.978	8.28
247.194	8.58
247.409	9.16
247.625	8.66
247.841	9.5
248.057	9.12
248.272	9.68
248.488	9.2
248.703	9.15
248.919	10.12
249.135	10.39
249.35	10.4
249.566	10.93
249.782	10.15
249.997	10.36
250.213	10.04
250.428	10.47
250.644	10
250.859	10.33
251.075	10.58
251.29	10.32
251.506	10.18
251.721	10.26
251.937	10.1
252.152	9.83
252.368	9.89
252.583	10.46
252.798	9.87
253.014	10.09
253.229	10.55
253.445	10.64
253.66	10.05
253.875	10.57
254.091	10.69
254.306	10.08
254.521	10.68
254.737	9.81
254.952	9.42
255.167	9.29
255.383	9.22
255.598	8.62
255.813	7.98
256.028	7.49
256.244	7.61
256.459	7.79
256.674	7.73
256.889	8.38
257.104	8.35
257.32	7.81
257.535	7.87
257.75	7.97
257.965	7.85
258.18	7.97
258.395	8
258.61	8.05
258.826	7.78
259.041	7.89
259.256	7.49
259.471	7.29
259.686	7.57
259.901	7.45
260.116	7.22
260.331	7.32
260.546	7.08
260.761	6.85
260.976	6.71
261.191	6.81
261.406	6.32
261.621	6.51
261.836	7.3
262.05	7.6
262.265	7.87
262.48	8.45
262.695	8.63
262.91	8.68
263.125	8.3
263.34	8.74
263.555	8.49
263.769	9.58
263.984	9.12
264.199	9.23
264.414	8.64
264.629	8.3
264.843	8.42
265.058	8.24
265.273	8.37
265.488	9.72
265.702	9.46
265.917	9.23
266.132	8.55
266.346	9.13
266.561	9.06
266.776	9.33
266.99	9.77
267.205	9.85
267.42	10.03
267.634	9.97
267.849	9.46
268.063	9.16
268.278	9.12
268.492	8.91
268.707	8.72
268.922	8.47
269.136	8.86
269.351	8.5
269.565	8.09
269.78	7.72
269.994	7.54
270.209	7.63
270.423	7.48
270.637	7.57
270.852	8.12
271.066	7.66
271.281	7.57
271.495	7.12
271.709	7.51
271.924	7.3
272.138	7.16
272.353	7.63
272.567	7.29
272.781	7.68
272.996	7.74
273.21	7.17
273.424	7.66
273.638	7.72
273.853	7.55
274.067	7.36
274.281	7.4
274.495	7.48
274.71	6.66
274.924	6.85
275.138	6.81
275.352	6.64
275.566	6.74
275.781	6.34
275.995	6.43
276.209	6.29
276.423	6.03
276.637	5.69
276.851	5.74
277.065	6.6
277.279	6.81
277.493	7.04
277.707	7.1
277.921	7.58
278.135	8.14
278.349	8.04
278.563	8.28
278.777	8.38
278.991	9.32
279.205	9.41
279.419	9.1
279.633	9.03
279.847	8.38
280.061	8.51
280.275	8.51
280.489	8.61
280.703	8.52
280.917	8.66
281.131	8.67
281.344	8.16
281.558	8.16
281.772	8.08
281.986	7.88
282.2	8.38
282.414	8.14
282.627	7.85
282.841	7.31
283.055	7.1
283.269	6.65
283.482	6.47
283.696	6.67
283.91	6.03
284.123	6.02
284.337	6.3
284.551	6.25
284.764	6.25
284.978	6.34
285.192	6.58
285.405	6.83
285.619	7.15
285.833	7.39
286.046	7.15
286.26	7.49
286.473	7.73
286.687	7.81
286.9	7.37
287.114	7.78
287.327	7.34
287.541	7.22
287.754	7.15
287.968	6.92
288.181	6.81
288.395	6.9
288.608	6.79
288.822	6.69
289.035	6.05
289.248	6.6
289.462	6.57
289.675	6.45
289.889	6.35
290.102	6.51
290.315	6.65
290.529	6.51
290.742	6.61
290.955	7.22
291.169	7.36
291.382	8.19
291.595	8.04
291.808	8.08
292.022	8.34
292.235	8.42
292.448	8.46
292.661	8.44
292.875	8.69
293.088	8.22
293.301	8.36
293.514	8.39
293.727	8.19
293.94	7.71
294.153	7.69
294.367	7.71
294.58	7.72
294.793	7.81
295.006	7.62
295.219	7.29
295.432	7.32
295.645	7.06
295.858	6.89
296.071	6.55
296.284	6.78
296.497	6.85
296.71	7.21
296.923	7.27
297.136	7.21
297.349	7.79
297.562	7.99
297.775	8.24
297.988	8.12
298.201	8.12
298.414	8.47
298.626	8.83
298.839	8.93
299.052	8.54
299.265	8.73
299.478	8.69
299.691	8.35
299.903	8.28
300.116	8.6
300.329	8.49
300.542	8.82
300.755	9
300.967	8.51
301.18	8.44
301.393	8.54
301.605	8.5
301.818	8.13
302.031	8.05
302.243	8.33
302.456	7.74
302.669	8.73
302.881	8.54
303.094	8.5
303.307	8.87
303.519	8.69
303.732	9.3
303.944	9.38
304.157	9.84
304.37	9.93
304.582	10.23
304.795	10.29
305.007	9.91
305.22	10.21
305.432	10.29
305.645	10.25
305.857	10.24
306.069	9.67
306.282	9.56
306.494	9.3
306.707	9.12
306.919	9.06
307.132	9.32
307.344	9.06
307.556	8.92
307.769	8.61
307.981	8.64
308.193	8.7
308.406	8.86
308.618	8.67
308.83	9.04
309.043	9.46
309.255	9.26
309.467	9.24
309.679	9.34
309.892	9.27
310.104	9.35
310.316	9.2
310.528	9.34
310.74	9.2
310.953	9.43
311.165	9.18
311.377	9.12
311.589	8.8
311.801	8.86
312.013	9.3
312.225	9.52
312.437	9.64
312.649	10.09
312.862	9.87
313.074	9.97
313.286	9.92
313.498	10.27
313.71	9.92
313.922	10.59
314.134	10.34
314.346	9.91
314.558	10.01
314.77	10.1
314.982	9.39
315.193	9.15
315.405	9.22
315.617	9.53
315.829	8.79
316.041	8.75
316.253	8.42
316.465	8.9
316.677	9.14
316.888	9.3
317.1	9.09
317.312	9.3
317.524	9.51
317.736	9.38
317.947	9.38
318.159	10.13
318.371	10.41
318.583	10.4
318.794	10.12
319.006	10.04
319.218	9.3
319.43	9.82
319.641	9.95
319.853	9.56
320.064	9.66
320.276	9.54
320.488	9.05
320.699	8.97
320.911	9.36
321.123	9.82
321.334	9.94
321.546	10.52
321.757	9.99
321.969	10.29
322.18	10.24
322.392	10.15
322.603	10.58
322.815	10.7
323.026	10.45
323.238	9.94
323.449	9.72
323.661	9.28
323.872	9.1
324.083	9.53
324.295	9.31
324.506	10.29
324.718	10.2
324.929	9.7
325.14	9.69
325.352	9.82
325.563	10.08
325.774	10.59
325.986	10.74
326.197	10.99
326.408	10.7
326.62	11.03
326.831	10.4
327.042	10.1
327.253	10.08
327.464	9.99
327.676	10.18
327.887	10.54
328.098	9.64
328.309	9.67
328.52	9.45
328.732	9.16
328.943	9.09
329.154	8.95
329.365	8.94
329.576	9.11
329.787	9.48
329.998	9.14
330.209	9.02
330.42	9.49
330.631	9.52
330.842	9.37
331.053	9.67
331.264	9.01
331.475	9.07
331.686	9.55
331.897	9.38
332.108	8.97
332.319	9.3
332.53	9.27
332.741	9.03
332.952	8.65
333.163	8.47
333.374	8.44
333.585	8.67
333.795	8.69
334.006	8.89
334.217	8.59
334.428	8.99
334.639	8.76
334.849	8.76
335.06	9.08
335.271	9.27
335.482	9.28
335.692	9.26
335.903	9.34
336.114	9.7
336.325	9.46
336.535	9.8
336.746	9.46
336.957	9.98
337.167	9.86
337.378	9.94
337.589	9.56
337.799	9.6
338.01	9.5
338.22	9.54
338.431	9.28
338.642	9.23
338.852	9.32
339.063	9.4
339.273	8.75
339.484	8.5
339.694	8.29
339.905	8.86
340.115	9.06
340.326	9
340.536	8.84
340.746	8.68
340.957	8.35
341.167	7.96
341.378	7.93
341.588	8
341.799	7.84
342.009	7.92
342.219	7.6
342.43	7.43
342.64	7.38
342.85	7.73
343.061	7.93
343.271	8.31
343.481	8.28
343.691	8.47
343.902	8.48
344.112	9.07
344.322	9.02
344.532	8.94
344.743	9.15
344.953	9.08
345.163	9.01
345.373	8.59
345.583	8.53
345.793	8.59
346.004	8.43
346.214	8.28
346.424	7.9
346.634	7.8
346.844	7.84
347.054	7.68
347.264	7.99
347.474	7.82
347.684	8.18
347.894	8.17
348.104	8.02
348.314	7.62
348.524	7.74
348.734	7.87
348.944	7.98
349.154	8.28
349.364	8.24
349.574	8.22
349.784	8.06
349.994	8.13
350.204	7.85
350.413	8.12
350.623	8.35
350.833	8.38
351.043	8.08
351.253	8.06
351.463	7.9
351.672	7.85
351.882	7.97
352.092	8.51
352.302	8.52
352.511	8.86
352.721	8.73
352.931	8.78
353.141	8.88
353.35	8.83
353.56	8.82
353.77	8.97
353.979	8.73
354.189	8.58
354.399	7.91
354.608	7.6
354.818	7.62
355.027	7.8
355.237	7.44
355.447	7.26
355.656	7.37
355.866	7.29
356.075	7.13
356.285	7.45
356.494	7.37
356.704	7.11
356.913	7.23
357.123	7.04
357.332	6.56
357.542	6.81
357.751	6.68
357.96	6.75
358.17	6.53
358.379	6.64
358.589	6.47
358.798	6.28
359.007	6.61
359.217	6.52
359.426	6.42
359.635	6.64
359.845	6.61
360.054	6.73
360.263	6.86
360.472	6.86
360.682	6.7
360.891	6.56
361.1	6.63
361.309	6.47
361.519	6.35
361.728	6.42
361.937	6.45
362.146	6.4
362.355	6.35
362.564	6.08
362.774	6.26
362.983	6.37
363.192	6.57
363.401	6.57
363.61	6.76
363.819	6.96
364.028	6.99
364.237	6.97
364.446	6.97
364.655	7.04
364.864	7.01
365.073	6.84
365.282	6.61
365.491	6.64
365.7	6.83
365.909	7
366.118	6.92
366.327	6.85
366.536	6.85
366.745	6.89
366.954	6.93
367.162	6.85
367.371	6.77
367.58	6.97
367.789	6.8
367.998	6.75
368.207	6.6
368.415	6.55
368.624	6.66
368.833	6.71
369.042	6.88
369.25	6.54
369.459	6.58
369.668	6.59
369.877	6.5
370.085	6.48
370.294	6.51
370.503	6.48
370.711	6.58
370.92	6.48
371.129	6.41
371.337	6.17
371.546	6.36
371.754	6.19
371.963	6.3
372.171	6.27
372.38	6.23
372.589	6.06
372.797	5.85
373.006	5.81
373.214	5.82
373.423	5.68
373.631	5.85
373.84	5.91
374.048	6.16
374.256	6.06
374.465	6.18
374.673	6.15
374.882	6.09
375.09	5.93
375.298	5.88
375.507	5.81
375.715	5.83
375.923	5.75
376.132	5.62
376.34	5.3
376.548	5.32
376.757	5.25
376.965	5.39
377.173	5.45
377.381	5.76
377.59	5.84
377.798	5.95
378.006	6.13
378.214	6.22
378.423	6.51
378.631	6.63
378.839	6.68
379.047	6.58
379.255	6.42
379.463	6.29
379.671	6.32
379.879	6.1
380.088	5.91
380.296	5.82
380.504	5.74
380.712	5.63
380.92	5.77
381.128	5.74
381.336	5.82
381.544	5.87
381.752	5.9
381.96	5.62
382.168	5.97
382.376	5.93
382.584	5.94
382.791	5.79
382.999	5.75
383.207	5.54
383.415	5.32
383.623	5.17
383.831	5.17
384.039	5.21
384.247	5.41
384.454	5.17
384.662	5.15
384.87	5.07
385.078	5.36
385.285	5.28
385.493	5.25
385.701	5.45
385.909	5.48
386.116	5.39
386.324	5.35
386.532	5.16
386.739	5.12
386.947	5.31
387.155	5.2
387.362	5.02
387.57	5.12
387.778	5.27
387.985	5.19
388.193	5.18
388.4	5.17
388.608	5.38
388.816	5.31
389.023	5.53
389.231	5.42
389.438	5.49
389.646	5.44
389.853	5.28
390.061	5.32
390.268	5.31
390.475	5.29
390.683	5.27
390.89	5.05
391.098	5.21
391.305	5.2
391.512	5.08
391.72	5.09
391.927	5.13
392.135	5.26
392.342	5.01
392.549	5.21
392.756	5.22
392.964	5.41
393.171	5.41
393.378	5.46
393.586	5.21
393.793	5.42
394	5.35
394.207	5.28
394.414	5.11
394.622	5.26
394.829	5.03
395.036	4.86
395.243	4.87
395.45	4.85
395.657	4.69
395.864	4.71
396.072	4.63
396.279	4.66
396.486	4.69
396.693	4.58
396.9	4.49
397.107	4.48
397.314	4.63
397.521	4.34
397.728	4.37
397.935	4.42
398.142	4.58
398.349	4.64
398.556	4.63
398.763	4.66
398.97	4.83
399.177	5.19
399.383	5.07
399.59	5.04
399.797	4.92
400.004	4.87
400.211	4.86
400.418	4.52
400.625	4.36
400.831	4.31
401.038	4.21
401.245	3.95
401.452	3.7
401.658	3.77
401.865	3.88
402.072	3.99
402.279	3.84
402.485	3.75
402.692	3.95
402.899	3.84
403.105	3.91
403.312	3.78
403.519	4.06
403.725	4.01
403.932	4.06
404.138	3.89
404.345	3.9
404.552	4.12
404.758	4.14
404.965	3.94
405.171	4.01
405.378	4.1
405.584	4.22
405.791	4.16
405.997	4.19
406.204	4.07
406.41	4.24
406.617	4.23
406.823	4.28
407.029	4.31
407.236	4.59
407.442	4.6
407.649	4.45
407.855	4.63
408.061	4.57
408.268	4.51
408.474	4.59
408.68	4.5
408.887	4.51
409.093	4.32
409.299	4.31
409.505	4.18
409.712	4.35
409.918	4.32
410.124	4.18
410.33	4.04
410.537	3.96
410.743	4.03
410.949	3.98
411.155	4.14
411.361	4.28
411.567	4.29
411.773	4.32
411.98	4.21
412.186	4.14
412.392	3.92
412.598	4.04
412.804	4.14
413.01	4.13
413.216	4.1
413.422	3.91
413.628	3.9
413.834	3.91
414.04	3.84
414.246	3.87
414.452	3.81
414.658	3.82
414.864	3.86
415.07	3.82
415.275	3.74
415.481	3.81
415.687	3.77
415.893	3.78
416.099	3.8
416.305	3.85
416.511	3.64
416.716	3.72
416.922	3.82
417.128	3.63
417.334	3.67
417.539	3.64
417.745	3.66
417.951	3.66
418.157	3.56
418.362	3.47
418.568	3.44
418.774	3.4
418.979	3.37
419.185	3.42
419.391	3.57
419.596	3.48
419.802	3.43
420.008	3.4
420.213	2.96
420.419	2.98
420.624	2.9
420.83	2.86
421.035	2.98
421.241	2.93
421.446	2.76
421.652	2.67
421.857	2.6
422.063	2.64
422.268	2.61
422.474	3.04
422.679	2.99
422.885	3.05
423.09	3.11
423.295	3.09
423.501	3.12
423.706	3.18
423.911	3.26
424.117	3.34
424.322	3.34
424.527	3.35
424.733	3.3
424.938	3.32
425.143	3.37
425.349	3.32
425.554	3.33
425.759	3.4
425.964	3.42
426.169	3.41
426.375	3.47
426.58	3.48
426.785	3.53
426.99	3.62
427.195	3.6
427.4	3.68
427.605	3.77
427.811	3.73
428.016	3.76
428.221	3.67
428.426	3.63
428.631	3.59
428.836	3.69
429.041	3.71
429.246	3.67
429.451	3.66
429.656	3.57
429.861	3.45
430.066	3.42
430.271	3.28
430.476	3.4
430.681	3.22
430.886	3.22
431.09	3.13
431.295	3.04
431.5	3.17
431.705	3.27
431.91	3.29
432.115	3.29
432.32	3.26
432.524	3.33
432.729	3.37
432.934	3.51
433.139	3.5
433.343	3.59
433.548	3.53
433.753	3.38
433.958	3.26
434.162	3.25
434.367	3.28
434.572	3.23
434.776	3.2
434.981	3.01
435.186	3.01
435.39	2.96
435.595	2.81
435.799	2.82
436.004	2.89
436.209	2.91
436.413	2.95
436.618	2.94
436.822	2.97
437.027	2.99
437.231	3.06
437.436	3.06
437.64	3.08
437.845	3.1
438.049	3.28
438.253	3.23
438.458	3.18
438.662	3.1
438.867	3.09
439.071	3.09
439.275	3.1
439.48	3.19
439.684	3.2
439.888	3.19
440.093	3.25
440.297	3.15
440.501	3.15
440.706	3.27
440.91	3.36
441.114	3.37
441.318	3.47
441.523	3.48
441.727	3.43
441.931	3.47
442.135	3.52
442.339	3.49
442.543	3.48
442.748	3.53
442.952	3.53
443.156	3.48
443.36	3.48
443.564	3.4
443.768	3.39
443.972	3.36
444.176	3.3
444.38	3.22
444.584	3.16
444.788	3.13
444.992	3.02
445.196	2.99
445.4	2.88
445.604	2.87
445.808	2.95
446.012	2.92
446.216	2.92
446.42	2.93
446.624	3
446.828	3.03
447.032	3.03
447.235	3.15
447.439	3.1
447.643	3.22
447.847	3.2
448.051	3.18
448.254	3.14
448.458	3.2
448.662	3.16
448.866	3.04
449.069	3.09
449.273	3.07
449.477	3.09
449.681	3.08
449.884	3.09
450.088	3.08
450.292	3.03
450.495	3.08
450.699	3
450.902	2.96
451.106	3
451.31	2.82
451.513	2.82
451.717	2.71
451.92	2.64
452.124	2.59
452.327	2.56
452.531	2.54
452.734	2.5
452.938	2.47
453.141	2.59
453.345	2.63
453.548	2.77
453.752	2.88
453.955	3.01
454.158	3.08
454.362	3.08
454.565	3.18
454.769	3.18
454.972	3.08
455.175	3.14
455.379	3
455.582	2.96
455.785	2.92
455.988	2.82
456.192	2.77
456.395	2.76
456.598	2.79
456.801	2.71
457.005	2.69
457.208	2.76
457.411	2.71
457.614	2.77
457.817	2.81
458.021	2.84
458.224	2.83
458.427	2.79
458.63	2.73
458.833	2.71
459.036	2.7
459.239	2.79
459.442	2.81
459.645	2.81
459.848	2.76
460.051	2.73
460.254	2.69
460.457	2.72
460.66	2.72
460.863	2.85
461.066	2.92
461.269	3.01
461.472	2.94
461.675	2.96
461.878	2.98
462.081	3.02
462.284	2.97
462.486	2.93
462.689	2.92
462.892	2.88
463.095	2.77
463.298	2.77
463.5	2.77
463.703	2.83
463.906	2.86
464.109	2.86
464.311	2.84
464.514	2.84
464.717	2.9
464.92	2.92
465.122	3.03
465.325	3.05
465.528	3.12
465.73	3.11
465.933	3.14
466.135	3.06
466.338	3.01
466.541	3.04
466.743	3.13
466.946	3.15
467.148	3.07
467.351	3.07
467.553	3.14
467.756	2.99
467.958	2.99
468.161	2.94
468.363	3.01
468.566	3.14
468.768	3.24
468.971	3.22
469.173	3.22
469.375	3.32
469.578	3.25
469.78	3.23
469.983	3.27
470.185	3.24
470.387	3.19
470.59	3.21
470.792	3.13
470.994	3.01
471.196	3.04
471.399	3.02
471.601	2.97
471.803	2.97
472.005	3
472.208	3.04
472.41	3.07
472.612	3.12
472.814	3.04
473.016	3.05
473.218	3.16
473.421	3.19
473.623	3.29
473.825	3.25
474.027	3.33
474.229	3.26
474.431	3.14
474.633	3.15
474.835	3.1
475.037	3.18
475.239	3.23
475.441	3.13
475.643	2.96
475.845	2.86
476.047	2.94
476.249	2.85
476.451	2.79
476.653	2.91
476.855	2.93
477.057	2.9
477.258	2.87
477.46	2.69
477.662	2.7
477.864	2.83
478.066	2.86
478.268	2.83
478.469	2.83
478.671	2.87
478.873	2.79
479.075	2.79
479.276	2.89
479.478	2.87
479.68	2.96
479.882	2.98
480.083	2.9
480.285	2.88
480.487	2.82
480.688	2.86
480.89	2.84
481.091	2.82
481.293	2.74
481.495	2.67
481.696	2.67
481.898	2.64
482.099	2.59
482.301	2.6
482.502	2.59
482.704	2.58
482.905	2.57
483.107	2.55
483.308	2.53
483.51	2.55
483.711	2.55
483.913	2.56
484.114	2.56
484.315	2.58
484.517	2.58
484.718	2.61
484.92	2.66
485.121	2.67
485.322	2.71
485.524	2.74
485.725	2.78
485.926	2.81
486.127	2.76
486.329	2.74
486.53	2.77
486.731	2.74
486.932	2.7
487.134	2.72
487.335	2.7
487.536	2.71
487.737	2.71
487.938	2.65
488.139	2.66
488.341	2.69
488.542	2.73
488.743	2.74
488.944	2.76
489.145	2.8
489.346	2.77
489.547	2.78
489.748	2.76
489.949	2.8
490.15	2.83
490.351	2.82
490.552	2.85
490.753	2.87
490.954	2.85
491.155	2.87
491.356	2.86
491.557	2.92
491.758	2.93
491.959	2.94
492.159	2.95
492.36	2.99
492.561	3.05
492.762	3.03
492.963	3.01
493.164	3.05
493.364	3.09
493.565	3.11
493.766	3.02
493.967	2.98
494.167	2.94
494.368	2.87
494.569	2.82
494.769	2.73
494.97	2.74
495.171	2.76
495.371	2.76
495.572	2.77
495.773	2.77
495.973	2.8
496.174	2.88
496.375	2.94
496.575	2.91
496.776	2.97
496.976	3.06
497.177	3.01
497.377	2.99
497.578	3.02
497.778	3
497.979	2.99
498.179	3.02
498.38	2.98
498.58	2.94
498.78	3.03
498.981	3.03
499.181	2.97
499.382	2.99
499.582	3
499.782	2.94
499.983	2.97
500.183	3.02
500.383	3.02
500.584	3.07
500.784	3.12
500.984	3.14
501.184	3.07
501.385	3.1
501.585	3.13
501.785	3.22
501.985	3.31
502.185	3.36
502.386	3.35
502.586	3.31
502.786	3.18
502.986	3.18
503.186	3.17
503.386	3.21
503.586	3.21
503.786	3.23
503.987	3.26
504.187	3.31
504.387	3.3
504.587	3.29
504.787	3.37
504.987	3.51
505.187	3.52
505.387	3.5
505.587	3.49
505.786	3.55
505.986	3.55
506.186	3.51
506.386	3.46
506.586	3.4
506.786	3.37
506.986	3.36
507.186	3.35
507.386	3.4
507.585	3.48
507.785	3.57
507.985	3.56
508.185	3.65
508.384	3.67
508.584	3.64
508.784	3.67
508.984	3.76
509.183	3.69
509.383	3.64
509.583	3.67
509.782	3.62
509.982	3.59
510.182	3.58
510.381	3.55
510.581	3.5
510.781	3.54
510.98	3.62
511.18	3.56
511.379	3.68
511.579	3.68
511.778	3.67
511.978	3.72
512.177	3.68
512.377	3.64
512.576	3.67
512.776	3.71
512.975	3.72
513.175	3.74
513.374	3.86
513.573	3.87
513.773	3.91
513.972	3.88
514.172	3.92
514.371	4.04
514.57	4.1
514.77	4.13
514.969	4.22
515.168	4.19
515.367	4.17
515.567	4.04
515.766	4.05
515.965	4.04
516.164	4.02
516.364	4.04
516.563	4.06
516.762	4.13
516.961	4.1
517.16	4.06
517.359	4.13
517.559	4.1
517.758	4.18
517.957	4.16
518.156	4.25
518.355	4.29
518.554	4.23
518.753	4.16
518.952	4.07
519.151	4.11
519.35	4.15
519.549	4.13
519.748	4.15
519.947	4.24
520.146	4.28
520.345	4.22
520.544	4.26
520.743	4.26
520.942	4.27
521.141	4.31
521.339	4.27
521.538	4.22
521.737	4.32
521.936	4.37
522.135	4.31
522.333	4.31
522.532	4.35
522.731	4.3
522.93	4.38
523.129	4.42
523.327	4.45
523.526	4.51
523.725	4.55
523.923	4.47
524.122	4.46
524.321	4.46
524.519	4.51
524.718	4.52
524.917	4.58
525.115	4.58
525.314	4.58
525.512	4.59
525.711	4.61
525.909	4.62
526.108	4.64
526.306	4.63
526.505	4.6
526.703	4.58
526.902	4.57
527.1	4.58
527.299	4.58
527.497	4.61
527.696	4.65
527.894	4.65
528.092	4.65
528.291	4.66
528.489	4.69
528.688	4.72
528.886	4.75
529.084	4.79
529.283	4.78
529.481	4.8
529.679	4.86
529.877	4.88
530.076	4.88
530.274	4.95
530.472	5.01
530.67	5.03
530.869	5.08
531.067	5.1
531.265	5.11
531.463	5.14
531.661	5.12
531.859	5.07
532.057	5.07
532.255	5.07
532.454	5.03
532.652	5.03
532.85	5.03
533.048	5.05
533.246	5.08
533.444	5.12
533.642	5.21
533.84	5.31
534.038	5.34
534.236	5.35
534.434	5.4
534.632	5.37
534.83	5.42
535.027	5.5
535.225	5.54
535.423	5.54
535.621	5.61
535.819	5.54
536.017	5.51
536.215	5.57
536.412	5.56
536.61	5.63
536.808	5.67
537.006	5.73
537.203	5.65
537.401	5.62
537.599	5.71
537.797	5.63
537.994	5.74
538.192	5.79
538.39	5.8
538.587	5.83
538.785	5.78
538.983	5.8
539.18	5.74
539.378	5.8
539.575	5.83
539.773	5.79
539.97	5.82
540.168	5.79
540.366	5.83
540.563	5.82
540.761	5.84
540.958	5.91
541.155	5.96
541.353	6
541.55	6.02
541.748	6.06
541.945	6.11
542.143	6.08
542.34	6.1
542.537	6.1
542.735	6.12
542.932	6.19
543.129	6.22
543.327	6.27
543.524	6.23
543.721	6.25
543.919	6.25
544.116	6.32
544.313	6.42
544.51	6.48
544.708	6.5
544.905	6.57
545.102	6.5
545.299	6.51
545.496	6.55
545.693	6.7
545.891	6.7
546.088	6.69
546.285	6.72
546.482	6.71
546.679	6.7
546.876	6.72
547.073	6.74
547.27	6.84
547.467	6.87
547.664	6.86
547.861	6.92
548.058	7.05
548.255	7.1
548.452	7.14
548.649	7.22
548.846	7.46
549.043	7.58
549.24	7.65
549.437	7.78
549.633	7.8
549.83	7.93
550.027	7.91
550.224	7.83
550.421	7.97
550.618	8.02
550.814	8.15
551.011	7.96
551.208	7.91
551.405	7.92
551.601	7.88
551.798	7.82
551.995	7.85
552.191	7.89
552.388	7.96
552.585	7.96
552.781	7.96
552.978	7.9
553.175	8.08
553.371	8.16
553.568	8.22
553.764	8.28
553.961	8.4
554.157	8.36
554.354	8.36
554.55	8.48
554.747	8.5
554.943	8.54
555.14	8.59
555.336	8.56
555.533	8.69
555.729	8.74
555.926	8.69
556.122	8.76
556.318	8.86
556.515	8.95
556.711	9.01
556.907	9.19
557.104	9.16
557.3	9.28
557.496	9.24
557.693	9.33
557.889	9.38
558.085	9.43
558.281	9.41
558.478	9.49
558.674	9.61
558.87	9.71
559.066	9.63
559.262	9.8
559.459	9.81
559.655	10.02
559.851	9.95
560.047	10.06
560.243	10.07
560.439	10.22
560.635	10.14
560.831	10.2
561.027	10.11
561.223	10.14
561.419	10.09
561.615	10.14
561.811	10.19
562.007	10.36
562.203	10.31
562.399	10.54
562.595	10.6
562.791	10.7
562.987	10.62
563.183	10.65
563.379	10.78
563.575	10.77
563.771	10.84
563.966	10.76
564.162	10.7
564.358	10.84
564.554	10.79
564.75	10.79
564.945	10.81
565.141	10.93
565.337	11
565.533	11.03
565.728	11.11
565.924	11.11
566.12	11.23
566.315	11.29
566.511	11.25
566.707	11.35
566.902	11.45
567.098	11.49
567.293	11.58
567.489	11.63
567.684	11.66
567.88	11.82
568.076	11.97
568.271	11.99
568.467	12.07
568.662	12.14
568.858	12.2
569.053	12.29
569.248	12.39
569.444	12.46
569.639	12.56
569.835	12.56
570.03	12.59
570.225	12.54
570.421	12.6
570.616	12.61
570.812	12.73
571.007	12.73
571.202	12.72
571.397	12.83
571.593	12.77
571.788	12.82
571.983	12.9
572.178	12.93
572.374	13.01
572.569	13.04
572.764	13.11
572.959	13.05
573.154	13.1
573.35	13.07
573.545	13.14
573.74	13.23
573.935	13.19
574.13	13.22
574.325	13.2
574.52	13.25
574.715	13.39
574.91	13.47
575.105	13.53
575.3	13.62
575.495	13.82
575.69	13.75
575.885	13.81
576.08	13.89
576.275	14.01
576.47	14.1
576.665	14.07
576.86	14.1
577.055	14.08
577.25	14.07
577.444	14.08
577.639	14.13
577.834	14.12
578.029	14.18
578.224	14.19
578.418	14.18
578.613	14.27
578.808	14.41
579.003	14.48
579.197	14.39
579.392	14.62
579.587	14.55
579.781	14.53
579.976	14.69
580.171	14.7
580.365	14.78
580.56	14.82
580.755	14.8
580.949	14.84
581.144	14.74
581.338	14.98
581.533	14.84
581.727	14.94
581.922	14.88
582.116	14.91
582.311	14.95
582.505	14.89
582.7	14.9
582.894	15.02
583.089	14.99
583.283	15.02
583.478	15.07
583.672	15.26
583.866	15.26
584.061	15.33
584.255	15.27
584.449	15.37
584.644	15.45
584.838	15.49
585.032	15.44
585.226	15.54
585.421	15.52
585.615	15.42
585.809	15.32
586.003	15.42
586.198	15.47
586.392	15.36
586.586	15.13
586.78	15.07
586.974	15.04
587.168	14.93
587.363	14.76
587.557	14.89
587.751	14.89
587.945	15.02
588.139	15.01
588.333	14.91
588.527	14.96
588.721	15.09
588.915	15.19
589.109	15.17
589.303	15.15
589.497	15.32
589.691	15.3
589.885	15.31
590.079	15.32
590.273	15.31
590.466	15.39
590.66	15.48
590.854	15.45
591.048	15.6
591.242	15.55
591.436	15.79
591.629	15.86
591.823	15.87
592.017	16
592.211	15.78
592.404	15.82
592.598	15.84
592.792	15.78
592.986	15.81
593.179	15.79
593.373	15.9
593.567	15.82
593.76	15.72
593.954	15.65
594.147	15.67
594.341	15.91
594.535	15.94
594.728	15.87
594.922	16.02
595.115	16.07
595.309	15.94
595.502	15.96
595.696	16
595.889	15.95
596.083	15.94
596.276	15.8
596.47	15.7
596.663	15.7
596.856	15.67
597.05	15.66
597.243	15.67
597.437	15.79
597.63	15.85
597.823	15.84
598.017	15.96
598.21	15.99
598.403	16.12
598.596	16.07
598.79	16.19
598.983	16.25
599.176	16.28
599.369	16.15
599.563	16.13
599.756	16.19
599.949	16.11
600.142	16.07
600.335	16.1
600.528	16.1
600.722	16.22
600.915	16.19
601.108	16.36
601.301	16.37
601.494	16.53
601.687	16.48
601.88	16.5
602.073	16.68
602.266	16.69
602.459	16.55
602.652	16.65
602.845	16.63
603.038	16.58
603.231	16.64
603.424	16.65
603.617	16.6
603.809	16.57
604.002	16.53
604.195	16.44
604.388	16.58
604.581	16.82
604.774	16.73
604.966	16.78
605.159	16.9
605.352	16.89
605.545	16.88
605.737	17.04
605.93	17.14
606.123	17.07
606.316	17.08
606.508	17.1
606.701	16.95
606.894	16.99
607.086	16.91
607.279	16.74
607.471	16.75
607.664	16.58
607.857	16.32
608.049	16.17
608.242	16.26
608.434	16.34
608.627	16.25
608.819	16.44
609.012	16.35
609.204	16.38
609.397	16.5
609.589	16.52
609.782	16.7
609.974	16.94
610.166	17.15
610.359	17.19
610.551	17.06
610.743	17.16
610.936	16.96
611.128	17.02
611.32	17.17
611.513	17.1
611.705	16.94
611.897	16.91
612.09	16.79
612.282	16.83
612.474	16.81
612.666	16.93
612.858	16.79
613.051	16.93
613.243	17.09
613.435	16.84
613.627	16.86
613.819	16.93
614.011	16.86
614.203	16.96
614.395	16.93
614.588	17.08
614.78	16.88
614.972	17.03
615.164	17.02
615.356	17.04
615.548	17.33
615.74	17.41
615.932	17.46
616.124	17.52
616.315	17.49
616.507	17.47
616.699	17.36
616.891	17.6
617.083	17.6
617.275	17.59
617.467	17.51
617.659	17.37
617.85	17.41
618.042	17.34
618.234	17.3
618.426	17.34
618.618	17.41
618.809	17.38
619.001	17.23
619.193	17.17
619.384	17.15
619.576	17.18
619.768	17.13
619.959	17.04
620.151	17.04
620.343	17.17
620.534	17.16
620.726	17.05
620.917	17.11
621.109	17.22
621.301	17.23
621.492	17.37
621.684	17.33
621.875	17.55
622.067	17.51
622.258	17.59
622.45	17.59
622.641	17.54
622.832	17.55
623.024	17.54
623.215	17.48
623.407	17.44
623.598	17.4
623.789	17.42
623.981	17.34
624.172	17.31
624.363	17.21
624.555	17.09
624.746	17.11
624.937	17.05
625.129	16.95
625.32	16.97
625.511	17
625.702	16.93
625.893	16.79
626.085	16.91
626.276	16.93
626.467	17.03
626.658	17.14
626.849	17.17
627.04	17.38
627.231	17.57
627.422	17.49
627.614	17.47
627.805	17.55
627.996	17.56
628.187	17.45
628.378	17.57
628.569	17.64
628.76	17.64
628.951	17.62
629.142	17.58
629.332	17.56
629.523	17.72
629.714	17.83
629.905	17.76
630.096	17.84
630.287	17.85
630.478	18
630.669	17.94
630.859	17.93
631.05	17.8
631.241	17.81
631.432	17.79
631.623	17.63
631.813	17.62
632.004	17.66
632.195	17.74
632.385	17.76
632.576	17.6
632.767	17.47
632.957	17.29
633.148	17.62
633.339	17.46
633.529	17.45
633.72	17.58
633.91	17.59
634.101	17.54
634.292	17.6
634.482	17.62
634.673	17.56
634.863	17.86
635.054	18.01
635.244	17.91
635.435	18.12
635.625	17.93
635.815	17.92
636.006	17.9
636.196	17.81
636.387	17.78
636.577	17.86
636.767	18.05
636.958	17.88
637.148	18.05
637.338	18.03
637.529	17.92
637.719	18.27
637.909	18.22
638.099	18.2
638.29	18.44
638.48	18.43
638.67	18.18
638.86	18.17
639.05	18.11
639.241	18.08
639.431	18.02
639.621	17.99
639.811	17.86
640.001	17.9
640.191	18.05
640.381	17.86
640.571	18.02
640.761	18.24
640.951	18.43
641.141	18.36
641.331	18.32
641.521	18.43
641.711	18.46
641.901	18.54
642.091	18.69
642.281	18.54
642.471	18.73
642.661	18.56
642.851	18.44
643.041	18.13
643.231	18.31
643.42	18.12
643.61	18.07
643.8	18.31
643.99	18.22
644.18	18.1
644.369	18.18
644.559	18.35
644.749	18.31
644.939	18.52
645.128	18.67
645.318	18.8
645.508	18.98
645.697	18.82
645.887	18.81
646.076	18.64
646.266	18.46
646.456	18.37
646.645	18.08
646.835	18.07
647.024	18
647.214	17.92
647.403	17.77
647.593	17.58
647.782	17.69
647.972	17.56
648.161	17.76
648.351	17.93
648.54	18.05
648.73	18.1
648.919	18.24
649.108	18.23
649.298	18.3
649.487	18.24
649.677	18.47
649.866	18.5
650.055	18.6
650.244	18.72
650.434	18.88
650.623	18.97
650.812	19.04
651.002	18.87
651.191	18.88
651.38	18.78
651.569	18.73
651.758	18.75
651.947	18.96
652.137	18.82
652.326	18.79
652.515	18.85
652.704	18.68
652.893	18.46
653.082	18.59
653.271	18.61
653.46	18.42
653.649	18.49
653.838	18.39
654.027	18.28
654.216	18.4
654.405	18.53
654.594	18.24
654.783	18.37
654.972	18.78
655.161	18.79
655.35	18.56
655.539	18.69
655.728	18.96
655.916	18.92
656.105	18.93
656.294	18.8
656.483	18.4
656.672	18.35
656.86	18.24
657.049	18.03
657.238	18.11
657.427	18.21
657.615	18.37
657.804	18.1
657.993	18.13
658.181	18.04
658.37	18.19
658.559	18.27
658.747	18.28
658.936	18.3
659.125	18.33
659.313	18.24
659.502	18.2
659.69	18.02
659.879	18.04
660.067	17.96
660.256	18.12
660.444	18.11
660.633	18.01
660.821	18.06
661.01	17.86
661.198	17.96
661.387	18.12
661.575	18.33
661.763	18.46
661.952	18.52
662.14	18.68
662.328	18.56
662.517	18.53
662.705	18.81
662.893	18.91
663.082	19.09
663.27	19.11
663.458	18.9
663.646	18.67
663.834	18.64
664.023	18.61
664.211	18.61
664.399	18.54
664.587	18.67
664.775	18.53
664.963	18.53
665.152	18.74
665.34	18.59
665.528	18.56
665.716	18.93
665.904	18.79
666.092	18.91
666.28	18.96
666.468	18.9
666.656	18.7
666.844	18.79
667.032	18.76
667.22	18.66
667.408	18.76
667.596	18.96
667.784	18.92
667.971	19.13
668.159	19.02
668.347	19
668.535	18.94
668.723	18.88
668.911	18.85
669.098	18.99
669.286	18.98
669.474	19.03
669.662	18.86
669.849	18.67
670.037	18.61
670.225	18.78
670.413	18.72
670.6	18.98
670.788	19.1
670.976	18.96
671.163	19.03
671.351	19.09
671.538	19.29
671.726	19.25
671.913	19.25
672.101	19.13
672.289	18.88
672.476	18.89
672.664	18.81
672.851	18.7
673.039	18.98
673.226	18.9
673.413	18.87
673.601	18.65
673.788	18.77
673.976	18.94
674.163	18.97
674.35	19.1
674.538	19.16
674.725	19.27
674.912	19.42
675.1	19.27
675.287	19.35
675.474	19.22
675.662	19.31
675.849	19.37
676.036	19.26
676.223	19.01
676.411	19.25
676.598	19.24
676.785	19.26
676.972	19.21
677.159	19.15
677.346	19.1
677.533	19.3
677.721	19.16
677.908	19.18
678.095	19.29
678.282	19.62
678.469	19.56
678.656	19.61
678.843	19.52
679.03	19.53
679.217	19.52
679.404	19.46
679.591	19.38
679.778	19.46
679.964	19.37
680.151	19.39
680.338	19.46
680.525	19.32
680.712	19.4
680.899	19.56
681.086	19.41
681.272	19.59
681.459	19.58
681.646	19.61
681.833	19.42
682.02	19.63
682.206	19.34
682.393	19.24
682.58	19.66
682.766	19.54
682.953	19.39
683.14	19.7
683.326	19.61
683.513	19.66
683.7	19.61
683.886	19.87
684.073	19.61
684.259	19.71
684.446	19.65
684.632	19.46
684.819	19.5
685.005	19.32
685.192	19.14
685.378	19.19
685.565	19.35
685.751	19.49
685.938	19.35
686.124	19.58
686.31	19.28
686.497	19.28
686.683	19.17
686.87	19.24
687.056	19.46
687.242	19.27
687.429	19.42
687.615	19.54
687.801	19.6
687.987	19.63
688.174	19.77
688.36	20.34
688.546	20.59
688.732	20.73
688.918	20.4
689.105	20.46
689.291	20.78
689.477	20.7
689.663	20.52
689.849	20.51
690.035	20.46
690.221	20.33
690.407	20.39
690.593	20.42
690.779	20.06
690.965	20.24
691.151	20.19
691.337	20.21
691.523	20.17
691.709	19.92
691.895	19.69
692.081	19.73
692.267	19.75
692.453	19.51
692.639	19.29
692.825	19.48
693.011	19.29
693.196	19.37
693.382	19.33
693.568	19.4
693.754	19.81
693.94	20.04
694.125	20.24
694.311	20.15
694.497	19.92
694.682	19.86
694.868	19.87
695.054	20.31
695.239	20.22
695.425	20.15
695.611	20.35
695.796	20.14
695.982	19.92
696.168	20.07
696.353	19.69
696.539	19.87
696.724	19.91
696.91	19.94
697.095	19.73
697.281	19.78
697.466	19.79
697.652	19.72
697.837	19.87
698.023	19.98
698.208	19.67
698.393	19.9
698.579	19.79
698.764	19.7
698.949	19.68
699.135	19.76
699.32	19.78
699.505	19.77
699.691	19.61
699.876	19.47
700.061	19.56
700.246	19.67
700.432	19.91
700.617	19.96
700.802	20.12
700.987	20.12
701.172	20.07
701.358	20.08
701.543	20.44
701.728	20.33
701.913	20
702.098	20.27
702.283	20.39
702.468	20.47
702.653	20.93
702.838	20.62
703.023	20.43
703.208	20.91
703.393	20.62
703.578	20.21
703.763	20.29
703.948	20.49
704.133	19.91
704.318	19.99
704.503	19.76
704.688	19.34
704.873	19.59
705.057	19.59
705.242	19.38
705.427	19.56
705.612	19.33
705.797	18.96
705.981	19.06
706.166	19.25
706.351	19.43
706.536	19.16
706.72	19.28
706.905	19.29
707.09	19.51
707.274	19.59
707.459	19.37
707.644	19.65
707.828	20.23
708.013	20.04
708.197	20.75
708.382	20.29
708.567	20.73
708.751	20.67
708.936	20.85
709.12	20.88
709.305	20.62
709.489	20.94
709.673	20.79
709.858	20.45
710.042	20.67
710.227	19.92
710.411	19.92
710.596	19.91
710.78	19.92
710.964	20.07
711.149	19.92
711.333	20
711.517	19.79
711.702	19.75
711.886	20.07
712.07	20.19
712.254	20.21
712.438	20.37
712.623	19.89
712.807	19.71
712.991	19.28
713.175	19.34
713.359	19.11
713.544	19.27
713.728	19.24
713.912	18.86
714.096	18.55
714.28	18.64
714.464	18.97
714.648	19.3
714.832	19.48
715.016	19.69
715.2	19.87
715.384	19.85
715.568	19.49
715.752	19.8
715.936	20.2
716.12	20.27
716.304	20.22
716.488	19.8
716.671	19.69
716.855	19.55
717.039	19.73
717.223	19.65
717.407	19.65
717.59	19.78
717.774	19.62
717.958	19.28
718.142	19.55
718.325	19.49
718.509	19.8
718.693	19.91
718.877	19.92
719.06	19.65
719.244	19.73
719.428	19.86
719.611	20.24
719.795	20.45
719.978	20.47
720.162	19.58
720.345	20.05
720.529	19.98
720.713	20.2
720.896	20.43
721.08	20.54
721.263	20.41
721.446	20.71
721.63	20.18
721.813	20.18
721.997	20.19
722.18	20.92
722.364	20.82
722.547	20.53
722.73	19.98
722.914	19.74
723.097	19.66
723.28	19.49
723.464	19.33
723.647	19.99
723.83	19.86
724.013	20.39
724.197	20.29
724.38	20.43
724.563	20.49
724.746	21
724.929	21.16
725.112	21.07
725.296	21.11
725.479	21.28
725.662	21.02
725.845	21.05
726.028	20.8
726.211	20.94
726.394	20.7
726.577	20.68
726.76	20.14
726.943	20.26
727.126	20.44
727.309	20.53
727.492	20.21
727.675	20.18
727.858	20.23
728.041	20.14
728.224	20.15
728.407	20.12
728.589	19.79
728.772	20.07
728.955	20.14
729.138	20.12
729.321	19.85
729.503	20.06
729.686	20.27
729.869	20.46
730.052	20.6
730.234	20.54
730.417	20.66
730.6	21.09
730.782	21.13
730.965	21.04
731.148	20.62
731.33	20.76
731.513	21.2
731.695	21.07
731.878	20.83
732.061	20.94
732.243	20.99
732.426	20.58
732.608	20.87
732.791	20.64
732.973	20.81
733.156	21.39
733.338	21.44
733.52	21.43
733.703	21.81
733.885	21.95
734.068	21.5
734.25	21.27
734.432	21.71
734.615	21.73
734.797	22.22
734.979	22.5
735.162	22.51
735.344	22.63
735.526	22.12
735.708	22.22
735.891	22.54
736.073	23.21
736.255	23.74
736.437	23.61
736.619	23.51
736.802	23.24
736.984	22.65
737.166	22.55
737.348	22.59
737.53	22.86
737.712	22.8
737.894	22.35
738.076	22.32
738.258	21.99
738.44	22.01
738.622	21.96
738.804	22.05
738.986	22.43
739.168	21.89
739.35	22.18
739.532	21.77
739.714	21.65
739.896	21.59
740.078	21.71
740.259	22.3
740.441	22.27
740.623	22.1
740.805	22.04
740.987	21.86
741.168	22.4
741.35	22.4
741.532	22.37
741.714	22.21
741.895	22.82
742.077	22.47
742.259	22.03
742.44	22.92
742.622	22.75
742.804	23.2
742.985	23.21
743.167	23.17
743.348	23.5
743.53	23.47
743.711	23.67
743.893	23.05
744.075	22.86
744.256	23.1
744.438	22.44
744.619	22.64
744.8	21.94
744.982	21.52
745.163	21.57
745.345	20.87
745.526	21.57
745.707	21.79
745.889	22.35
746.07	22.2
746.252	22.05
746.433	21.82
746.614	21.08
746.795	21.45
746.977	22.11
747.158	21.81
747.339	22.09
747.52	21.83
747.702	21.58
747.883	21.68
748.064	22.09
748.245	22.33
748.426	22.73
748.607	23.59
748.788	23.1
748.97	22.12
749.151	22.53
749.332	22.52
749.513	22.44
749.694	22.06
749.875	21.3
750.056	21.38
750.237	21.11
750.418	20.5
750.599	20.52
750.78	20.92
750.96	21.58
751.141	21.26
751.322	20.9
751.503	21.15
751.684	21.56
751.865	21.74
752.046	21.62
752.226	21.79
752.407	22.07
752.588	21.99
752.769	22.15
752.949	22.47
753.13	22.6
753.311	23.65
753.492	23.31
753.672	23.03
753.853	23.1
754.034	23.16
754.214	22.95
754.395	22.97
754.575	23.06
754.756	22.47
754.937	22
755.117	22.35
755.298	21.78
755.478	21.37
755.659	21.62
755.839	21.13
756.02	20.92
756.2	21.33
756.381	21.29
756.561	21.22
756.741	21.92
756.922	21.91
757.102	21.12
757.283	20.84
757.463	20.99
757.643	20.56
757.823	20.99
758.004	21.57
758.184	21.42
758.364	21.16
758.545	21.57
758.725	21.33
758.905	21.97
759.085	22.03
759.265	21.55
759.446	21.86
759.626	21.41
759.806	21.67
759.986	21.15
760.166	20.71
760.346	21
760.526	20.76
760.706	20.6
760.886	19.69
761.066	20.14
761.246	20.5
761.426	20.8
761.606	21.03
761.786	21.24
761.966	20.99
762.146	21.43
762.326	20.87
762.506	20.57
762.686	20.55
762.866	20.93
763.046	21.03
763.225	20.96
763.405	20.84
763.585	21.51
763.765	21.16
763.945	21.35
764.124	21.29
764.304	21.77
764.484	21.84
764.664	22.02
764.843	22.24
765.023	22.03
765.203	21.88
765.382	21.39
765.562	20.73
765.741	20.58
765.921	20.87
766.101	20.37
766.28	20.44
766.46	20.24
766.639	20.23
766.819	20.27
766.998	20.55
767.178	21.07
767.357	21.64
767.537	22.11
767.716	22.7
767.896	22.47
768.075	23.03
768.254	22.86
768.434	23.38
768.613	23.66
768.792	23.86
768.972	23.86
769.151	23.88
769.33	23.91
769.51	23.52
769.689	23.54
769.868	23.32
770.047	22.99
770.226	23.35
770.406	24.03
770.585	24.34
770.764	24.08
770.943	23.82
771.122	23.3
771.301	22.71
771.48	22.92
771.66	23.04
771.839	23.5
772.018	24.03
772.197	23.65
772.376	23.41
772.555	22.78
772.734	22.5
772.913	22.5
773.092	23.29
773.271	24.02
773.449	24.27
773.628	23.54
773.807	23.37
773.986	22.51
774.165	22.64
774.344	21.57
774.523	21.84
774.701	22.39
774.88	23.05
775.059	22.75
775.238	23.28
775.417	23.04
775.595	23.5
775.774	23.71
775.953	24.53
776.131	24.86
776.31	25.67
776.489	25.47
776.667	25.13
776.846	25.01
777.025	24.96
777.203	24.12
777.382	24.37
777.56	24.37
777.739	23.85
777.917	23.15
778.096	23.56
778.274	23.89
778.453	24.12
778.631	24.44
778.81	24.37
778.988	23.84
779.166	23.33
779.345	23.14
779.523	22.93
779.702	23.71
779.88	24.36
780.058	23.96
780.237	23.82
780.415	23.64
780.593	23.08
780.771	22.8
780.95	23.24
781.128	24.31
781.306	24.1
781.484	23.43
781.662	23.13
781.841	23.43
782.019	22.37
782.197	22.03
782.375	22.29
782.553	22.84
782.731	22.56
782.909	23.54
783.087	24.03
783.265	23.51
783.443	23.82
783.621	23.35
783.799	22.34
783.977	23.31
784.155	23.75
784.333	23.61
784.511	23.17
784.689	23.9
784.867	23.05
785.045	21.72
785.223	21.66
785.4	22.3
785.578	22.99
785.756	23.83
785.934	23.49
786.112	22.88
786.289	23.86
786.467	23.49
786.645	23.68
786.823	23.14
787	23.87
787.178	24.66
787.356	24.75
787.533	24.63
787.711	24.2
787.889	23.9
788.066	23.56
788.244	23.21
788.421	22.94
788.599	22.73
788.776	23.66
788.954	23.11
789.131	22.53
789.309	22.88
789.486	22.34
789.664	22.61
789.841	23.85
790.019	24.77
790.196	24.96
790.373	26.26
790.551	25.79
790.728	25.09
790.906	25.12
791.083	25.25
791.26	24.63
791.437	24.79
791.615	24.47
791.792	23.55
791.969	22.66
792.146	21.81
792.324	21.1
792.501	21.42
792.678	22.09
792.855	22.68
793.032	23.35
793.209	23.31
793.387	23.7
793.564	23.53
793.741	23.6
793.918	24.59
794.095	25.19
794.272	25.12
794.449	24.41
794.626	24.3
794.803	24.43
794.98	24.72
795.157	25.35
795.334	25.66
795.511	26.79
795.688	26.13
795.864	25.68
796.041	26.17
796.218	26.56
796.395	27.04
796.572	27.42
796.749	26.92
796.925	26.69
797.102	26.68
797.279	26.11
797.456	25.56
797.632	26.83
797.809	27.12
797.986	26.04
798.162	25.89
798.339	25.8
798.516	25.37
798.692	25.55
798.869	25.18
799.046	25.51
799.222	25.93
799.399	25.48
799.575	24.66
799.752	24.98
799.928	25.05
800.105	25.22
800.281	25.69
800.458	25.52
800.634	26.1
800.811	26.1
800.987	25.24
801.163	25.68
801.34	25.1
801.516	26.2
801.692	25.92
801.869	25.43
802.045	26.4
802.221	26.57
802.398	26.95
802.574	26.77
802.75	27.16
802.926	27.74
803.103	26.53
803.279	27.86
803.455	28.11
803.631	28.02
803.807	28.01
803.983	27.19
804.16	26.93
804.336	27.06
804.512	26.34
804.688	26.45
804.864	25.84
805.04	26.71
805.216	26.05
805.392	25.01
805.568	24.81
805.744	24.72
805.92	24.32
806.096	23.87
806.272	23.39
806.448	23.89
806.623	23.75
806.799	24.25
806.975	24.73
807.151	24.27
807.327	24.44
807.503	25.53
807.678	25.28
807.854	26.1
808.03	26.68
808.206	26.85
808.381	26.59
808.557	27.58
808.733	26.73
808.908	25.1
809.084	24.91
809.26	25.2
809.435	24.37
809.611	25.75
809.787	24.82
809.962	24.05
810.138	23.28
810.313	23.6
810.489	22.61
810.664	22.16
810.84	22.37
811.015	24.09
811.191	23.65
811.366	24.12
811.542	23.91
811.717	24.18
811.892	25.09
812.068	25.74
812.243	26.18
812.419	25.89
812.594	26.82
812.769	28.07
812.944	27.91
813.12	27.47
813.295	28
813.47	28.75
813.645	28.71
813.821	27.67
813.996	27.93
814.171	26.97
814.346	26.95
814.521	26.95
814.697	26.48
814.872	24.89
815.047	24.32
815.222	23.36
815.397	23
815.572	22.39
815.747	22.32
815.922	22.08
816.097	22.75
816.272	21.95
816.447	21.94
816.622	22.76
816.797	23.49
816.972	25.12
817.147	24.31
817.322	23.77
817.496	24.27
817.671	24.66
817.846	25
818.021	25.87
818.196	26.49
818.371	26.5
818.545	25.93
818.72	24.88
818.895	24.45
819.069	24.49
819.244	25.3
819.419	25.1
819.594	25.03
819.768	24.8
819.943	23.98
820.117	22.95
820.292	22.49
820.467	21.82
820.641	22.26
820.816	22.03
820.99	22.17
821.165	21.45
821.339	21.22
821.514	21.26
821.688	21.3
821.863	21.29
822.037	21.52
822.212	21.73
822.386	21.67
822.56	21.6
822.735	21.76
822.909	21.61
823.084	21.84
823.258	22.3
823.432	22.22
823.606	22.09
823.781	22.22
823.955	22.34
824.129	22.14
824.303	22.47
824.478	22.83
824.652	22.26
824.826	22.56
825	22.62
825.174	22.54
825.348	22.55
825.523	22.28
825.697	22.11
825.871	22.37
826.045	22.25
826.219	22.45
826.393	22.23
826.567	22.74
826.741	23.03
826.915	23.31
827.089	23.47
827.263	23.4
827.437	23.65
827.611	23.58
827.784	23.26
827.958	23.86
828.132	23.64
828.306	23.71
828.48	23.94
828.654	23.75
828.827	23.75
829.001	23.47
829.175	23.76
829.349	24.56
829.522	24.85
829.696	26.54
829.87	27.04
830.044	27.4
830.217	27.09
830.391	26.66
830.565	26.5
830.738	26.21
830.912	26.58
831.085	27.11
831.259	25.67
831.432	25.65
831.606	24.69
831.779	24.31
831.953	24.25
832.126	24.49
832.3	24.88
832.473	24.22
832.647	23.36
832.82	23.14
832.994	23.18
833.167	24.01
833.34	24.21
833.514	23.36
833.687	22.55
833.86	22.54
834.034	22.93
834.207	22.69
834.38	24.01
834.553	24.59
834.727	25.32
834.9	25.27
835.073	25.77
835.246	25.52
835.419	25.55
835.593	26.43
835.766	26.89
835.939	27.11
836.112	27.07
836.285	26.69
836.458	26.89
836.631	25.98
836.804	25.84
836.977	24.94
837.15	25.31
837.323	26.14
837.496	26.61
837.669	27.3
837.842	26.71
838.015	28.75
838.188	28.27
838.361	28.23
838.533	28.27
838.706	29.55
838.879	30.78
839.052	32.41
839.225	33.4
839.398	34
839.57	34.11
839.743	34.93
839.916	33.33
840.088	32.72
840.261	32.88
840.434	32.43
840.607	31.33
840.779	29.67
840.952	27.92
841.124	26.89
841.297	27.25
841.47	26.64
841.642	27.56
841.815	28.2
841.987	28.47
842.16	28.64
842.332	29.52
842.505	28.45
842.677	30.22
842.85	31.03
843.022	29.3
843.194	27.84
843.367	28.68
843.539	27.37
843.712	26.98
843.884	27.89
844.056	28.98
844.229	30.65
844.401	35.11
844.573	35.5
844.745	35.37
844.918	38.07
845.09	38.18
845.262	39.16
845.434	38.5
845.606	38.19
845.779	36.66
845.951	36.77
846.123	34.75
846.295	30.02
846.467	28.69
846.639	30.11
846.811	30.52
846.983	30.95
847.155	26.89
847.327	27.79
847.499	30.18
847.671	35.06
847.843	33.51
848.015	33.1
848.187	35.52
848.359	35.26
848.531	32.72
848.703	32.07
848.875	32.44
849.047	37.5
849.218	38.79
849.39	36.2
849.562	34.3
849.734	38.62
849.905	37.81
850.077	37.1
850.249	37.59
850.421	40.28
850.592	42.9
850.764	42.92
850.936	43.38
851.107	44.27
851.279	47.57
851.451	44.17
851.622	44.19
851.794	47.56
851.965	50.05
852.137	53.18
852.308	51.74
852.48	50.4
852.651	49.79
852.823	44.15
852.994	40.75
853.166	38.11
853.337	40.91
853.509	37.78
853.68	35.17
853.851	34.94
854.023	34.11
854.194	37.67
854.365	37.06
854.537	40.63
854.708	41.02
854.879	43.61
855.05	41.3
855.222	41.43
855.393	39.99
855.564	41.27
855.735	43.02
855.906	39.48
856.078	36.17
856.249	36.51
856.42	31.28
856.591	32.32
856.762	31.57
856.933	37.72
857.104	38.04
857.275	37.94
857.446	37.91
857.617	34.24
857.788	36.78
857.959	35.66
858.13	32.33
858.301	34.46
858.472	37.95
858.643	37.46
858.814	32.05
858.985	31.63
859.155	31.24
859.326	34.11
859.497	36.25
859.668	37.09
859.839	41.46
860.009	46.97
860.18	46.29
860.351	42.86
860.522	39.99
860.692	43.92
860.863	43.98
861.034	45.31
861.204	40.01
861.375	41.55
861.546	37.51
861.716	32.93
861.887	33.03
862.057	31.17
862.228	31.24
862.398	32.1
862.569	30.44
862.739	28.08
862.91	28.63
863.08	29.24
863.251	27.97
863.421	31.08
863.592	32.12
863.762	28.33
863.932	34.42
864.103	36.93
864.273	37.99
864.443	37.51
864.614	38.85
864.784	39.94
864.954	39.81
865.125	38.18
865.295	38.96
865.465	39.13
865.635	40.97
865.805	39.8
865.976	37.31
866.146	35.82
866.316	37.94
866.486	38.21
866.656	37.35
866.826	38.05
866.996	36.24
867.166	33.66
867.336	34.96
867.506	34.05
867.676	29.78
867.846	28.57
868.016	34.7
868.186	32.68
868.356	30.79
868.526	31.43
868.696	30.86
868.866	33.88
869.036	32.73
869.206	34.11
869.376	34.1
869.545	33.62
869.715	32.6
869.885	28.31
870.055	28.38
870.224	31.99
870.394	30.27
870.564	34.83
870.734	36.88
870.903	41
871.073	41.42
871.243	41.23
871.412	43.24
871.582	47.67
871.751	46.95
871.921	47.53
872.091	46.33
872.26	45.97
872.43	45.43
872.599	46.23
872.769	46.81
872.938	45.19
873.108	46.88
873.277	45.28
873.446	42.4
873.616	42.5
873.785	43.27
873.955	39.78
874.124	41.29
874.293	38.62
874.463	35.03
874.632	31.31
874.801	30.28
874.971	31.06
875.14	27.82
875.309	27.07
875.478	28.08
875.647	27.81
875.817	28.54
875.986	29.89
876.155	27.3
876.324	26.82
876.493	23.24
876.662	25.04
876.831	24.19
877	28.45
877.17	33.45
877.339	33.8
877.508	34.97
877.677	33.07
877.846	28.89
878.015	33.24
878.184	34.55
878.352	36.96
878.521	33.42
878.69	31.01
878.859	30.28
879.028	28.34
879.197	29.86
879.366	27.11
879.534	27.48
879.703	28.46
879.872	27.87
880.041	26.73
880.21	24.72
880.378	26.11
880.547	26.01
880.716	25.19
880.884	24.58
881.053	23.3
881.222	23.72
881.39	23.71
881.559	23.62
881.727	23.21
881.896	23.16
882.065	23.68
882.233	23.51
882.402	23.71
882.57	23.58
882.739	23.37
882.907	23.66
883.076	23.04
883.244	23.65
883.412	23.07
883.581	23.02
883.749	23.14
883.918	23.42
884.086	23.88
884.254	24.63
884.423	25.34
884.591	25.85
884.759	25.46
884.927	26.51
885.096	26.86
885.264	28.77
885.432	29.56
885.6	30.54
885.769	30.22
885.937	29.88
886.105	28.89
886.273	29.84
886.441	30.83
886.609	30.85
886.777	32.14
886.945	32.46
887.113	34.3
887.281	33.59
887.449	35.76
887.617	39.9
887.785	40.65
887.953	39.54
888.121	38.43
888.289	38.94
888.457	43.76
888.625	42.86
888.793	42.42
888.961	39.07
889.129	40.5
889.296	41.31
889.464	39.88
889.632	40.48
889.8	44.36
889.967	47.47
890.135	48.77
