Data from 2938526_Reflection_3.txt Node
Date: Tue Jun 16 22:04:04 EDT 2015
User: robert
Spectrometer: USB4E03002
Autoset integration time: false
Trigger mode: 4
Integration Time (sec): 1.000000E-1
Scans to average: 10
Electric dark correction enabled: true
Nonlinearity correction enabled: false
Boxcar width: 5
Stray light correction enabled: false
XAxis mode: Wavelengths
Stop averaging: false
Number of Pixels in Spectrum: 3648
>>>>>Begin Spectral Data<<<<<
177.575	16.75
177.794	-29.43
178.014	24.85
178.233	84.28
178.452	19.83
178.672	7.77
178.891	34.8
179.11	734.71
179.33	1415.82
179.549	-118.55
179.768	6.52
179.987	-118.31
180.207	80.23
180.426	18.46
180.645	-0.27
180.864	20.01
181.084	28.45
181.303	37.96
181.522	40.33
181.741	45.18
181.96	64.11
182.179	72.39
182.398	70.7
182.618	51.9
182.837	57
183.056	55.29
183.275	65.86
183.494	68.37
183.713	67.18
183.932	57.68
184.151	44.91
184.37	30.59
184.589	31.07
184.808	18.22
185.027	36.84
185.246	38.25
185.465	30.86
185.684	8.63
185.903	-8.25
186.122	-9.47
186.341	11.08
186.56	16.74
186.779	51.92
186.998	28.98
187.216	95.21
187.435	72.35
187.654	102.73
187.873	123.42
188.092	254.56
188.311	-182.25
188.53	-74.05
188.748	-159.21
188.967	-2461.46
189.186	121.49
189.405	66.05
189.623	10.94
189.842	42.09
190.061	7.85
190.28	8.9
190.498	-1.51
190.717	7.04
190.936	2.93
191.154	-18.06
191.373	-2.75
191.592	0.68
191.81	-10.9
192.029	-0.4
192.248	3.6
192.466	-7.75
192.685	1.8
192.904	21.09
193.122	49.9
193.341	74.42
193.559	67.5
193.778	66.77
193.996	86.99
194.215	118.98
194.433	128.37
194.652	108.18
194.87	116.55
195.089	119.91
195.307	118.73
195.526	123.49
195.744	93.09
195.963	114
196.181	94.41
196.399	66.79
196.618	64.67
196.836	64.04
197.055	64.79
197.273	75.24
197.491	55.79
197.71	51.88
197.928	34.86
198.146	58.21
198.365	59.74
198.583	65.95
198.801	81.11
199.019	76.21
199.238	99.54
199.456	95.28
199.674	89.84
199.892	101.13
200.111	96.75
200.329	110.01
200.547	73.13
200.765	54.43
200.983	58.83
201.202	63.37
201.42	67.83
201.638	47.31
201.856	58.82
202.074	52.87
202.292	48.83
202.51	64.6
202.728	59.04
202.946	89.91
203.165	85.13
203.383	110.45
203.601	107.92
203.819	95.07
204.037	74.64
204.255	57.91
204.473	51.45
204.691	50.65
204.909	33.61
205.127	34.65
205.345	42.87
205.562	51.51
205.78	41.5
205.998	37.54
206.216	40.34
206.434	56.73
206.652	60.2
206.87	60.26
207.088	61.53
207.306	60.87
207.523	67.06
207.741	63.16
207.959	71.59
208.177	63.3
208.395	63.27
208.612	69.71
208.83	64.91
209.048	67.87
209.266	58.86
209.483	54.11
209.701	50.25
209.919	44.69
210.136	42.9
210.354	31.04
210.572	40.19
210.79	35.11
211.007	22.59
211.225	20.78
211.442	18.4
211.66	27.04
211.878	42.04
212.095	51.54
212.313	47.03
212.53	52.77
212.748	63.49
212.966	52.29
213.183	54.27
213.401	65.14
213.618	59.17
213.836	62.87
214.053	49.54
214.271	33.83
214.488	28.35
214.705	39.67
214.923	40.52
215.14	28.57
215.358	38.07
215.575	25.59
215.793	20.26
216.01	24.91
216.227	32.72
216.445	41.42
216.662	38.52
216.879	40.85
217.097	39.4
217.314	38.11
217.531	45.78
217.749	43.42
217.966	49.16
218.183	51.35
218.4	34.71
218.618	32.2
218.835	33.01
219.052	36.46
219.269	39.17
219.487	32.94
219.704	41.76
219.921	36.06
220.138	34.65
220.355	32.22
220.572	32.99
220.79	45.93
221.007	40.31
221.224	35.04
221.441	30.58
221.658	27.59
221.875	33.06
222.092	24.28
222.309	24.09
222.526	19.35
222.743	20.54
222.96	20.74
223.177	21.2
223.394	21.48
223.611	25.1
223.828	26.66
224.045	23.85
224.262	23.16
224.479	19.43
224.696	18.91
224.913	20.56
225.13	17.82
225.347	16.2
225.564	11.08
225.781	9.87
225.997	8.17
226.214	7.98
226.431	7.88
226.648	6.47
226.865	7.48
227.082	7.32
227.298	6.82
227.515	7.5
227.732	7.38
227.949	7.71
228.165	8.35
228.382	8.83
228.599	9.02
228.816	8.6
229.032	8.64
229.249	7.79
229.466	8.31
229.682	8.97
229.899	10.27
230.116	9.08
230.332	9.83
230.549	9.02
230.765	8.95
230.982	8.87
231.199	9.38
231.415	11.6
231.632	12.78
231.848	11.63
232.065	10.28
232.281	10.51
232.498	11.95
232.714	11.18
232.931	12.03
233.147	11.3
233.364	11
233.58	12.8
233.797	10.8
234.013	11.24
234.23	11.84
234.446	11.35
234.662	9.23
234.879	9.68
235.095	11.02
235.312	9.59
235.528	11.89
235.744	12.14
235.961	11.22
236.177	11.67
236.393	10.69
236.61	10.6
236.826	13.16
237.042	14.18
237.258	14.57
237.475	12.44
237.691	13.35
237.907	12.56
238.123	12.54
238.339	12.18
238.556	11.41
238.772	11.37
238.988	11.25
239.204	9.95
239.42	8.84
239.636	7.96
239.853	8.29
240.069	7.04
240.285	6.4
240.501	5.76
240.717	5.44
240.933	5.07
241.149	5.14
241.365	5.36
241.581	5.6
241.797	6.13
242.013	6.45
242.229	6.51
242.445	7.23
242.661	6.72
242.877	7.08
243.093	7.55
243.309	8.08
243.525	7.34
243.741	6.55
243.957	6.21
244.173	5.6
244.388	5.83
244.604	5.57
244.82	5.25
245.036	5.52
245.252	5.36
245.468	5.27
245.683	5.18
245.899	5.25
246.115	5.46
246.331	5.2
246.547	5.58
246.762	5.77
246.978	6.49
247.194	6.47
247.409	6.67
247.625	7.31
247.841	7.18
248.057	7.58
248.272	8.08
248.488	7.93
248.703	8.19
248.919	7.17
249.135	6
249.35	4.28
249.566	4.62
249.782	4.48
249.997	4.18
250.213	4.6
250.428	4.17
250.644	3.89
250.859	5.14
251.075	5.77
251.29	5.89
251.506	6.33
251.721	6.84
251.937	6.99
252.152	6.65
252.368	6.6
252.583	6.41
252.798	7
253.014	8.06
253.229	6.38
253.445	7
253.66	7.62
253.875	6.85
254.091	7.26
254.306	6.61
254.521	6.88
254.737	6.08
254.952	5.32
255.167	5.29
255.383	4.78
255.598	4.59
255.813	3.24
256.028	3.26
256.244	4.22
256.459	3.47
256.674	3.92
256.889	3.82
257.104	3.82
257.32	3.96
257.535	3.47
257.75	3.24
257.965	3.03
258.18	3.37
258.395	3.55
258.61	3.02
258.826	3.39
259.041	3.43
259.256	3.59
259.471	3.76
259.686	3.81
259.901	4.03
260.116	4.14
260.331	4.7
260.546	4.51
260.761	4.31
260.976	5.01
261.191	5.07
261.406	4.95
261.621	4.46
261.836	3.81
262.05	4.44
262.265	4.95
262.48	5.69
262.695	5.1
262.91	4.87
263.125	5.22
263.34	4.7
263.555	4.44
263.769	4.68
263.984	5.67
264.199	6.41
264.414	5.45
264.629	5.53
264.843	5.19
265.058	5.34
265.273	5.76
265.488	5.15
265.702	5.16
265.917	5.61
266.132	5.22
266.346	4.86
266.561	5.09
266.776	4.9
266.99	4.4
267.205	4.2
267.42	4.44
267.634	3.99
267.849	4.67
268.063	4.88
268.278	4.27
268.492	4.51
268.707	4.62
268.922	4.27
269.136	4.53
269.351	4.37
269.565	4.06
269.78	3.94
269.994	4.08
270.209	3.77
270.423	3.58
270.637	3.5
270.852	3.13
271.066	2.89
271.281	3.14
271.495	3.18
271.709	3.73
271.924	3.48
272.138	3.45
272.353	3.46
272.567	3.55
272.781	3.75
272.996	4.16
273.21	4.69
273.424	5.44
273.638	5.08
273.853	5.18
274.067	4.68
274.281	5.29
274.495	5.62
274.71	5.86
274.924	5.6
275.138	5.51
275.352	5.12
275.566	5.01
275.781	4.29
275.995	4.15
276.209	4.39
276.423	4.8
276.637	5.44
276.851	5.1
277.065	4.66
277.279	5.25
277.493	5.29
277.707	5.12
277.921	4.97
278.135	5.28
278.349	6.03
278.563	5.5
278.777	5.32
278.991	4.75
279.205	4.75
279.419	4.79
279.633	4.66
279.847	4.49
280.061	4.86
280.275	5.04
280.489	4.62
280.703	4.05
280.917	4.52
281.131	4.08
281.344	3.98
281.558	3.49
281.772	3.91
281.986	3.54
282.2	3.73
282.414	3.54
282.627	3.52
282.841	3.66
283.055	3.67
283.269	3.55
283.482	3.6
283.696	3.34
283.91	3.93
284.123	3.67
284.337	3.87
284.551	3.9
284.764	4.14
284.978	4.02
285.192	3.98
285.405	4.09
285.619	4.09
285.833	4.49
286.046	4.82
286.26	4.81
286.473	4.81
286.687	4.72
286.9	4.62
287.114	4.28
287.327	4.24
287.541	4.32
287.754	4.02
287.968	4.2
288.181	3.94
288.395	3.87
288.608	4.1
288.822	4.24
289.035	3.9
289.248	3.65
289.462	3.9
289.675	4.18
289.889	4.42
290.102	4.49
290.315	4.67
290.529	4.54
290.742	4.3
290.955	3.95
291.169	4.25
291.382	5.15
291.595	5.41
291.808	5.44
292.022	5.23
292.235	5.01
292.448	5.27
292.661	4.79
292.875	5.16
293.088	5.85
293.301	5.71
293.514	5.44
293.727	5.03
293.94	5.22
294.153	5.27
294.367	5.43
294.58	5.27
294.793	5.18
295.006	5.27
295.219	5.22
295.432	5.1
295.645	5.17
295.858	5.14
296.071	5.02
296.284	5
296.497	4.97
296.71	5.1
296.923	5.31
297.136	5.32
297.349	5.45
297.562	5.67
297.775	5.64
297.988	5.89
298.201	5.86
298.414	6.06
298.626	5.7
298.839	5.79
299.052	5.4
299.265	5.85
299.478	6.06
299.691	6.14
299.903	5.87
300.116	5.64
300.329	5.5
300.542	5.81
300.755	5.84
300.967	6.07
301.18	5.84
301.393	6.09
301.605	5.29
301.818	5.13
302.031	5.34
302.243	5.35
302.456	5.69
302.669	5.55
302.881	5.86
303.094	6.13
303.307	6.42
303.519	6.26
303.732	6.71
303.944	7.22
304.157	8.02
304.37	7.93
304.582	8.41
304.795	8.69
305.007	8.9
305.22	8.27
305.432	8.28
305.645	8.02
305.857	8.57
306.069	8.41
306.282	8.01
306.494	7.46
306.707	7.42
306.919	7.05
307.132	6.86
307.344	6.97
307.556	7.38
307.769	7.36
307.981	7.36
308.193	7.21
308.406	6.73
308.618	7
308.83	6.73
309.043	6.76
309.255	6.58
309.467	6.58
309.679	6.38
309.892	6.52
310.104	6.7
310.316	7.19
310.528	7.32
310.74	7.74
310.953	7.78
311.165	7.94
311.377	7.77
311.589	7.93
311.801	7.85
312.013	8.34
312.225	8.43
312.437	8.3
312.649	8.07
312.862	8.31
313.074	8.17
313.286	8.58
313.498	8.62
313.71	8.83
313.922	8.99
314.134	9.21
314.346	9.26
314.558	9.14
314.77	9.27
314.982	8.95
315.193	8.74
315.405	8.88
315.617	8.67
315.829	9.1
316.041	9.15
316.253	9.36
316.465	9.69
316.677	9.05
316.888	8.8
317.1	8.9
317.312	9.6
317.524	9.97
317.736	9.93
317.947	10.66
318.159	10.13
318.371	9.85
318.583	10.13
318.794	9.79
319.006	10.36
319.218	10.37
319.43	10.34
319.641	10.24
319.853	9.94
320.064	10.13
320.276	9.79
320.488	10.18
320.699	10.91
320.911	10.61
321.123	10.26
321.334	10.68
321.546	11.5
321.757	11.21
321.969	11.31
322.18	11.42
322.392	11.57
322.603	11.17
322.815	10.95
323.026	10.88
323.238	11.08
323.449	11.65
323.661	11.28
323.872	10.9
324.083	11.06
324.295	10.75
324.506	10.86
324.718	10.7
324.929	11.16
325.14	11.37
325.352	11.29
325.563	11.22
325.774	11.19
325.986	11.18
326.197	11.57
326.408	11.55
326.62	11.99
326.831	11.78
327.042	11.82
327.253	11.87
327.464	12.2
327.676	12.21
327.887	12.39
328.098	12.21
328.309	12.67
328.52	12.66
328.732	12.99
328.943	12.69
329.154	13.49
329.365	13.7
329.576	13.38
329.787	12.97
329.998	12.98
330.209	13.02
330.42	13.65
330.631	13.39
330.842	13.02
331.053	13.15
331.264	13.62
331.475	13.26
331.686	13.45
331.897	13.58
332.108	13.95
332.319	14.11
332.53	14.07
332.741	13.76
332.952	13.66
333.163	13.59
333.374	13.55
333.585	13.22
333.795	12.98
334.006	13.04
334.217	13.1
334.428	13.15
334.639	13.33
334.849	13.39
335.06	13.42
335.271	13.62
335.482	13.59
335.692	13.49
335.903	13.5
336.114	13.96
336.325	13.64
336.535	14.02
336.746	14.29
336.957	14.18
337.167	14.44
337.378	14.56
337.589	14.77
337.799	14.78
338.01	14.9
338.22	15.11
338.431	15.33
338.642	15.66
338.852	15.3
339.063	14.79
339.273	14.61
339.484	14.45
339.694	14.57
339.905	14.15
340.115	14.46
340.326	14.18
340.536	14.07
340.746	13.42
340.957	13.23
341.167	13.21
341.378	13.09
341.588	13.11
341.799	13.12
342.009	13.09
342.219	13.31
342.43	13
342.64	13.28
342.85	13.23
343.061	13.44
343.271	13.53
343.481	13.27
343.691	13.53
343.902	13.45
344.112	13.42
344.322	13.32
344.532	13.38
344.743	13.54
344.953	13.38
345.163	13.32
345.373	13.43
345.583	13.17
345.793	13.29
346.004	13.46
346.214	13.36
346.424	13.28
346.634	13.22
346.844	13.69
347.054	13.72
347.264	13.63
347.474	13.78
347.684	13.71
347.894	13.52
348.104	13.83
348.314	13.78
348.524	14.36
348.734	13.95
348.944	13.89
349.154	13.28
349.364	13.01
349.574	13.31
349.784	12.97
349.994	12.91
350.204	12.94
350.413	12.75
350.623	12.46
350.833	12.03
351.043	12.72
351.253	12.58
351.463	12.46
351.672	12.86
351.882	12.75
352.092	12.86
352.302	12.73
352.511	13.01
352.721	13.2
352.931	13.68
353.141	13.7
353.35	13.53
353.56	13.7
353.77	14.2
353.979	14.2
354.189	14.04
354.399	14.32
354.608	14.74
354.818	14.71
355.027	14.64
355.237	14.51
355.447	14.65
355.656	14.4
355.866	14.27
356.075	13.83
356.285	13.8
356.494	13.96
356.704	13.87
356.913	13.83
357.123	13.9
357.332	13.75
357.542	13.6
357.751	13.59
357.96	13.5
358.17	13.73
358.379	13.83
358.589	13.98
358.798	13.8
359.007	13.54
359.217	13.52
359.426	13.32
359.635	13.51
359.845	13.5
360.054	13.39
360.263	13.62
360.472	13.48
360.682	13.47
360.891	13.25
361.1	13.39
361.309	13.64
361.519	13.54
361.728	13.81
361.937	13.8
362.146	13.91
362.355	14.05
362.564	13.9
362.774	13.94
362.983	14.01
363.192	14.11
363.401	14.07
363.61	13.98
363.819	13.88
364.028	13.75
364.237	13.54
364.446	13.43
364.655	13.51
364.864	13.63
365.073	13.79
365.282	13.88
365.491	13.68
365.7	13.59
365.909	13.56
366.118	13.55
366.327	13.64
366.536	13.76
366.745	13.93
366.954	13.8
367.162	13.95
367.371	13.99
367.58	13.85
367.789	13.82
367.998	14.26
368.207	14.39
368.415	14.36
368.624	14.27
368.833	14.36
369.042	14.11
369.25	14.31
369.459	14.49
369.668	14.52
369.877	14.49
370.085	14.95
370.294	14.71
370.503	14.55
370.711	14.88
370.92	14.86
371.129	14.89
371.337	14.91
371.546	14.66
371.754	14.61
371.963	14.49
372.171	14.83
372.38	14.73
372.589	14.65
372.797	14.77
373.006	14.52
373.214	14.85
373.423	14.92
373.631	14.96
373.84	15.13
374.048	15.05
374.256	15.19
374.465	15.13
374.673	15.1
374.882	15.25
375.09	15.17
375.298	15.38
375.507	15.3
375.715	15.31
375.923	15.68
376.132	15.73
376.34	15.72
376.548	15.62
376.757	15.36
376.965	15.33
377.173	15.19
377.381	15.43
377.59	15.51
377.798	15.43
378.006	15.42
378.214	15.2
378.423	15.02
378.631	15.01
378.839	15.21
379.047	15.36
379.255	15.39
379.463	15.6
379.671	15.37
379.879	15.14
380.088	15.32
380.296	15.03
380.504	15.1
380.712	15.36
380.92	15.34
381.128	15.42
381.336	15.4
381.544	15.22
381.752	15.2
381.96	15.53
382.168	15.76
382.376	15.79
382.584	16.23
382.791	16.21
382.999	16.27
383.207	16.56
383.415	16.47
383.623	16.67
383.831	17.04
384.039	17.25
384.247	17.24
384.454	17.36
384.662	17.26
384.87	17.05
385.078	17.19
385.285	17.02
385.493	16.98
385.701	16.95
385.909	17.01
386.116	16.9
386.324	16.73
386.532	16.95
386.739	16.85
386.947	17.14
387.155	17.35
387.362	17.37
387.57	17.62
387.778	17.62
387.985	17.84
388.193	17.78
388.4	17.89
388.608	18.18
388.816	18.12
389.023	18.19
389.231	17.99
389.438	18.25
389.646	18.37
389.853	18.55
390.061	18.61
390.268	18.61
390.475	19.02
390.683	19.19
390.89	19.23
391.098	19.3
391.305	19.64
391.512	20.03
391.72	19.95
391.927	20
392.135	19.85
392.342	19.96
392.549	20.08
392.756	19.86
392.964	19.65
393.171	19.6
393.378	19.74
393.586	19.77
393.793	19.7
394	19.85
394.207	20.04
394.414	20.3
394.622	20.51
394.829	20.67
395.036	20.89
395.243	21.28
395.45	21.62
395.657	21.52
395.864	21.44
396.072	21.53
396.279	21.6
396.486	21.58
396.693	21.63
396.9	21.74
397.107	21.63
397.314	21.71
397.521	21.81
397.728	21.73
397.935	22.17
398.142	22.32
398.349	22.36
398.556	22.37
398.763	22.59
398.97	22.76
399.177	22.59
399.383	22.71
399.59	22.55
399.797	22.71
400.004	22.87
400.211	22.82
400.418	22.74
400.625	22.79
400.831	23.04
401.038	22.98
401.245	22.87
401.452	23.15
401.658	23.42
401.865	23.69
402.072	23.61
402.279	23.68
402.485	23.66
402.692	23.88
402.899	23.84
403.105	23.76
403.312	23.8
403.519	23.95
403.725	23.77
403.932	23.82
404.138	23.93
404.345	23.81
404.552	23.8
404.758	23.81
404.965	23.78
405.171	23.92
405.378	23.88
405.584	24
405.791	23.88
405.997	24.11
406.204	24.03
406.41	24.14
406.617	24.17
406.823	24.11
407.029	24.15
407.236	24.12
407.442	23.97
407.649	24.05
407.855	23.9
408.061	24.2
408.268	23.96
408.474	23.85
408.68	23.8
408.887	23.85
409.093	23.91
409.299	23.8
409.505	23.87
409.712	23.97
409.918	24
410.124	24.03
410.33	23.91
410.537	24
410.743	24.06
410.949	23.79
411.155	23.86
411.361	23.72
411.567	23.92
411.773	23.73
411.98	23.91
412.186	23.96
412.392	23.9
412.598	23.67
412.804	23.68
413.01	23.61
413.216	23.64
413.422	23.62
413.628	23.65
413.834	23.52
414.04	23.53
414.246	23.42
414.452	23.27
414.658	23.25
414.864	23.32
415.07	23.34
415.275	23.42
415.481	23.5
415.687	23.57
415.893	23.6
416.099	23.57
416.305	23.62
416.511	23.55
416.716	23.49
416.922	23.56
417.128	23.63
417.334	23.64
417.539	23.47
417.745	23.4
417.951	23.38
418.157	23.43
418.362	23.48
418.568	23.51
418.774	23.49
418.979	23.55
419.185	23.49
419.391	23.41
419.596	23.39
419.802	23.42
420.008	23.4
420.213	23.25
420.419	23.21
420.624	23.09
420.83	22.92
421.035	22.98
421.241	23
421.446	22.96
421.652	22.97
421.857	22.97
422.063	23
422.268	22.91
422.474	22.96
422.679	22.93
422.885	22.82
423.09	22.79
423.295	22.69
423.501	22.49
423.706	22.51
423.911	22.41
424.117	22.39
424.322	22.3
424.527	22.4
424.733	22.28
424.938	22.2
425.143	22.26
425.349	22.4
425.554	22.37
425.759	22.44
425.964	22.38
426.169	22.49
426.375	22.35
426.58	22.39
426.785	22.26
426.99	22.36
427.195	22.34
427.4	22.42
427.605	22.41
427.811	22.49
428.016	22.56
428.221	22.62
428.426	22.51
428.631	22.61
428.836	22.65
429.041	22.78
429.246	22.79
429.451	22.94
429.656	22.88
429.861	22.85
430.066	22.83
430.271	22.85
430.476	22.93
430.681	22.87
430.886	22.81
431.09	22.79
431.295	22.69
431.5	22.67
431.705	22.55
431.91	22.56
432.115	22.56
432.32	22.53
432.524	22.37
432.729	22.26
432.934	22.35
433.139	22.43
433.343	22.45
433.548	22.56
433.753	22.63
433.958	22.6
434.162	22.77
434.367	22.83
434.572	22.76
434.776	22.8
434.981	22.93
435.186	23.01
435.39	22.9
435.595	22.94
435.799	22.82
436.004	22.74
436.209	22.72
436.413	22.59
436.618	22.6
436.822	22.66
437.027	22.83
437.231	22.72
437.436	22.68
437.64	22.68
437.845	22.63
438.049	22.63
438.253	22.65
438.458	22.7
438.662	22.65
438.867	22.59
439.071	22.55
439.275	22.41
439.48	22.46
439.684	22.42
439.888	22.4
440.093	22.36
440.297	22.28
440.501	22.24
440.706	22.26
440.91	22.32
441.114	22.24
441.318	22.21
441.523	22.22
441.727	22.22
441.931	22.3
442.135	22.33
442.339	22.28
442.543	22.43
442.748	22.42
442.952	22.47
443.156	22.47
443.36	22.55
443.564	22.57
443.768	22.56
443.972	22.51
444.176	22.43
444.38	22.45
444.584	22.5
444.788	22.48
444.992	22.44
445.196	22.33
445.4	22.24
445.604	22.22
445.808	22.23
446.012	22.21
446.216	22.19
446.42	22.23
446.624	22.19
446.828	22.15
447.032	22.06
447.235	22.08
447.439	22.09
447.643	22.07
447.847	22.03
448.051	22
448.254	22.03
448.458	22.02
448.662	21.93
448.866	21.91
449.069	22
449.273	22.04
449.477	22.06
449.681	22
449.884	22.08
450.088	22.01
450.292	22
450.495	22.03
450.699	22.09
450.902	22.13
451.106	21.9
451.31	21.8
451.513	21.77
451.717	21.76
451.92	21.78
452.124	21.72
452.327	21.78
452.531	21.81
452.734	21.78
452.938	21.67
453.141	21.61
453.345	21.75
453.548	21.73
453.752	21.69
453.955	21.69
454.158	21.69
454.362	21.7
454.565	21.78
454.769	21.75
454.972	21.73
455.175	21.76
455.379	21.79
455.582	21.9
455.785	21.97
455.988	21.96
456.192	21.95
456.395	22.04
456.598	22.15
456.801	22
457.005	21.99
457.208	22
457.411	21.99
457.614	21.88
457.817	21.83
458.021	21.89
458.224	21.86
458.427	21.8
458.63	21.81
458.833	21.74
459.036	21.72
459.239	21.73
459.442	21.73
459.645	21.73
459.848	21.82
460.051	21.85
460.254	21.71
460.457	21.84
460.66	21.94
460.863	21.87
461.066	21.95
461.269	21.97
461.472	22.11
461.675	22.09
461.878	22.15
462.081	22.09
462.284	22.11
462.486	22.15
462.689	22.02
462.892	22.05
463.095	21.99
463.298	21.96
463.5	22.11
463.703	21.99
463.906	22.1
464.109	22.17
464.311	22.33
464.514	22.4
464.717	22.52
464.92	22.61
465.122	22.64
465.325	22.82
465.528	22.84
465.73	22.85
465.933	22.86
466.135	22.81
466.338	22.77
466.541	22.73
466.743	22.66
466.946	22.62
467.148	22.61
467.351	22.49
467.553	22.44
467.756	22.45
467.958	22.44
468.161	22.51
468.363	22.53
468.566	22.58
468.768	22.59
468.971	22.57
469.173	22.6
469.375	22.52
469.578	22.53
469.78	22.52
469.983	22.52
470.185	22.41
470.387	22.22
470.59	22.2
470.792	22.09
470.994	22.08
471.196	22.14
471.399	22.2
471.601	22.28
471.803	22.28
472.005	22.38
472.208	22.3
472.41	22.37
472.612	22.48
472.814	22.52
473.016	22.62
473.218	22.63
473.421	22.61
473.623	22.51
473.825	22.6
474.027	22.63
474.229	22.63
474.431	22.7
474.633	22.68
474.835	22.76
475.037	22.76
475.239	22.64
475.441	22.68
475.643	22.73
475.845	22.85
476.047	22.81
476.249	22.93
476.451	22.91
476.653	22.97
476.855	23
477.057	22.94
477.258	22.9
477.46	22.97
477.662	22.9
477.864	22.88
478.066	22.85
478.268	22.85
478.469	22.84
478.671	22.79
478.873	22.76
479.075	22.75
479.276	22.77
479.478	22.82
479.68	22.79
479.882	22.91
480.083	22.9
480.285	22.85
480.487	22.82
480.688	22.75
480.89	22.75
481.091	22.72
481.293	22.74
481.495	22.7
481.696	22.68
481.898	22.67
482.099	22.61
482.301	22.59
482.502	22.56
482.704	22.52
482.905	22.48
483.107	22.46
483.308	22.42
483.51	22.36
483.711	22.32
483.913	22.26
484.114	22.26
484.315	22.24
484.517	22.25
484.718	22.25
484.92	22.27
485.121	22.35
485.322	22.37
485.524	22.36
485.725	22.42
485.926	22.44
486.127	22.47
486.329	22.43
486.53	22.43
486.731	22.4
486.932	22.37
487.134	22.36
487.335	22.28
487.536	22.24
487.737	22.26
487.938	22.22
488.139	22.26
488.341	22.25
488.542	22.26
488.743	22.27
488.944	22.31
489.145	22.4
489.346	22.45
489.547	22.53
489.748	22.59
489.949	22.61
490.15	22.58
490.351	22.55
490.552	22.56
490.753	22.51
490.954	22.51
491.155	22.43
491.356	22.37
491.557	22.37
491.758	22.34
491.959	22.29
492.159	22.26
492.36	22.3
492.561	22.33
492.762	22.41
492.963	22.54
493.164	22.54
493.364	22.63
493.565	22.65
493.766	22.68
493.967	22.7
494.167	22.76
494.368	22.82
494.569	22.88
494.769	22.88
494.97	22.86
495.171	22.87
495.371	22.91
495.572	22.91
495.773	22.98
495.973	23
496.174	22.88
496.375	22.85
496.575	22.87
496.776	22.87
496.976	22.88
497.177	22.85
497.377	22.87
497.578	22.9
497.778	22.87
497.979	22.8
498.179	22.68
498.38	22.87
498.58	22.96
498.78	23.02
498.981	23.01
499.181	22.98
499.382	23.02
499.582	23.07
499.782	23.15
499.983	23.23
500.183	23.36
500.383	23.54
500.584	23.49
500.784	23.5
500.984	23.49
501.184	23.56
501.385	23.62
501.585	23.62
501.785	23.6
501.985	23.62
502.185	23.65
502.386	23.68
502.586	23.62
502.786	23.64
502.986	23.68
503.186	23.67
503.386	23.67
503.586	23.74
503.786	23.73
503.987	23.72
504.187	23.69
504.387	23.7
504.587	23.75
504.787	23.89
504.987	23.92
505.187	23.9
505.387	23.95
505.587	24.04
505.786	24.13
505.986	24.22
506.186	24.32
506.386	24.37
506.586	24.5
506.786	24.38
506.986	24.3
507.186	24.39
507.386	24.45
507.585	24.43
507.785	24.35
507.985	24.41
508.185	24.42
508.384	24.38
508.584	24.38
508.784	24.41
508.984	24.54
509.183	24.6
509.383	24.58
509.583	24.61
509.782	24.65
509.982	24.78
510.182	24.71
510.381	24.79
510.581	24.81
510.781	24.92
510.98	24.85
511.18	24.87
511.379	24.92
511.579	24.93
511.778	24.93
511.978	25.05
512.177	25.01
512.377	25.02
512.576	25.03
512.776	25.11
512.975	25.07
513.175	25.08
513.374	25.04
513.573	25.05
513.773	25.11
513.972	25.12
514.172	25.14
514.371	25.29
514.57	25.33
514.77	25.38
514.969	25.44
515.168	25.53
515.367	25.67
515.567	25.68
515.766	25.66
515.965	25.75
516.164	25.89
516.364	25.87
516.563	25.82
516.762	25.86
516.961	25.8
517.16	25.76
517.359	25.7
517.559	25.69
517.758	25.74
517.957	25.82
518.156	25.8
518.355	25.75
518.554	25.66
518.753	25.62
518.952	25.65
519.151	25.71
519.35	25.78
519.549	25.8
519.748	25.83
519.947	25.8
520.146	25.78
520.345	25.86
520.544	25.93
520.743	26.12
520.942	26.21
521.141	26.25
521.339	26.38
521.538	26.31
521.737	26.46
521.936	26.46
522.135	26.5
522.333	26.6
522.532	26.57
522.731	26.56
522.93	26.63
523.129	26.72
523.327	26.76
523.526	26.67
523.725	26.83
523.923	26.85
524.122	26.93
524.321	26.97
524.519	26.91
524.718	26.98
524.917	26.96
525.115	26.93
525.314	26.94
525.512	26.92
525.711	26.97
525.909	26.92
526.108	26.91
526.306	26.92
526.505	26.93
526.703	27.02
526.902	26.94
527.1	26.97
527.299	26.91
527.497	26.89
527.696	26.82
527.894	26.81
528.092	26.78
528.291	26.75
528.489	26.66
528.688	26.66
528.886	26.57
529.084	26.62
529.283	26.6
529.481	26.66
529.679	26.66
529.877	26.75
530.076	26.81
530.274	26.9
530.472	26.99
530.67	27.16
530.869	27.13
531.067	27.2
531.265	27.2
531.463	27.26
531.661	27.25
531.859	27.25
532.057	27.27
532.255	27.27
532.454	27.25
532.652	27.2
532.85	27.21
533.048	27.27
533.246	27.26
533.444	27.28
533.642	27.27
533.84	27.31
534.038	27.4
534.236	27.38
534.434	27.35
534.632	27.4
534.83	27.5
535.027	27.46
535.225	27.46
535.423	27.48
535.621	27.48
535.819	27.54
536.017	27.53
536.215	27.44
536.412	27.49
536.61	27.49
536.808	27.46
537.006	27.35
537.203	27.43
537.401	27.54
537.599	27.67
537.797	27.71
537.994	27.72
538.192	27.82
538.39	27.88
538.587	27.95
538.785	28.07
538.983	28.1
539.18	28.16
539.378	28.15
539.575	28.08
539.773	27.96
539.97	27.92
540.168	27.88
540.366	27.82
540.563	27.84
540.761	27.79
540.958	27.67
541.155	27.66
541.353	27.64
541.55	27.57
541.748	27.56
541.945	27.65
542.143	27.64
542.34	27.64
542.537	27.69
542.735	27.64
542.932	27.61
543.129	27.68
543.327	27.69
543.524	27.75
543.721	27.77
543.919	27.81
544.116	27.8
544.313	27.89
544.51	27.87
544.708	27.89
544.905	27.89
545.102	28.01
545.299	28.01
545.496	27.98
545.693	27.97
545.891	27.96
546.088	27.87
546.285	27.9
546.482	27.82
546.679	27.86
546.876	27.84
547.073	27.91
547.27	27.9
547.467	27.85
547.664	27.85
547.861	27.83
548.058	27.87
548.255	27.95
548.452	27.85
548.649	28.04
548.846	28.1
549.043	28.08
549.24	28.06
549.437	27.99
549.633	28.06
549.83	28.11
550.027	28.16
550.224	28.13
550.421	28.13
550.618	28.22
550.814	28.16
551.011	28.11
551.208	28.11
551.405	28.11
551.601	28.15
551.798	28.15
551.995	28.08
552.191	28.04
552.388	28.1
552.585	28.04
552.781	27.97
552.978	27.9
553.175	28
553.371	28.1
553.568	28.01
553.764	27.96
553.961	27.92
554.157	27.9
554.354	27.89
554.55	27.79
554.747	27.85
554.943	27.85
555.14	27.95
555.336	27.9
555.533	27.88
555.729	28.11
555.926	28.19
556.122	28.34
556.318	28.52
556.515	28.49
556.711	28.58
556.907	28.59
557.104	28.61
557.3	28.54
557.496	28.51
557.693	28.57
557.889	28.55
558.085	28.57
558.281	28.65
558.478	28.7
558.674	28.79
558.87	28.68
559.066	28.73
559.262	28.83
559.459	28.83
559.655	28.81
559.851	28.76
560.047	28.74
560.243	28.73
560.439	28.58
560.635	28.47
560.831	28.34
561.027	28.47
561.223	28.47
561.419	28.52
561.615	28.52
561.811	28.63
562.007	28.68
562.203	28.66
562.399	28.71
562.595	28.8
562.791	28.98
562.987	29.11
563.183	29.11
563.379	29.07
563.575	28.98
563.771	29.04
563.966	29.06
564.162	29
564.358	28.96
564.554	29.04
564.75	29.03
564.945	28.93
565.141	28.92
565.337	29.03
565.533	29.01
565.728	29.03
565.924	28.96
566.12	28.94
566.315	28.91
566.511	29.04
566.707	28.95
566.902	28.92
567.098	28.95
567.293	28.83
567.489	28.82
567.684	28.77
567.88	28.78
568.076	28.85
568.271	28.85
568.467	28.94
568.662	28.88
568.858	28.97
569.053	29.04
569.248	28.92
569.444	29
569.639	29.04
569.835	29.15
570.03	29.18
570.225	29.15
570.421	29.23
570.616	29.23
570.812	29.34
571.007	29.23
571.202	29.29
571.397	29.43
571.593	29.53
571.788	29.42
571.983	29.48
572.178	29.37
572.374	29.39
572.569	29.34
572.764	29.4
572.959	29.26
573.154	29.34
573.35	29.25
573.545	29.25
573.74	29.16
573.935	29.2
574.13	29.18
574.325	29.22
574.52	29.29
574.715	29.37
574.91	29.34
575.105	29.51
575.3	29.5
575.495	29.58
575.69	29.55
575.885	29.67
576.08	29.66
576.275	29.65
576.47	29.79
576.665	29.71
576.86	29.65
577.055	29.68
577.25	29.66
577.444	29.66
577.639	29.68
577.834	29.75
578.029	29.73
578.224	29.78
578.418	29.79
578.613	29.85
578.808	29.88
579.003	29.94
579.197	29.87
579.392	29.79
579.587	29.86
579.781	29.85
579.976	29.78
580.171	29.76
580.365	29.79
580.56	29.79
580.755	29.6
580.949	29.66
581.144	29.62
581.338	29.65
581.533	29.51
581.727	29.51
581.922	29.49
582.116	29.59
582.311	29.65
582.505	29.67
582.7	29.71
582.894	29.91
583.089	29.83
583.283	29.81
583.478	29.88
583.672	30.04
583.866	30.03
584.061	29.93
584.255	29.98
584.449	29.97
584.644	29.9
584.838	29.97
585.032	29.83
585.226	29.79
585.421	29.89
585.615	29.91
585.809	29.9
586.003	29.99
586.198	30.23
586.392	30.13
586.586	30.22
586.78	30.26
586.974	30.29
587.168	30.29
587.363	30.36
587.557	30.44
587.751	30.35
587.945	30.39
588.139	30.23
588.333	29.99
588.527	29.92
588.721	29.74
588.915	29.77
589.109	29.7
589.303	29.74
589.497	29.75
589.691	29.66
589.885	29.6
590.079	29.53
590.273	29.64
590.466	29.72
590.66	29.78
590.854	29.84
591.048	29.86
591.242	29.95
591.436	29.98
591.629	30.06
591.823	29.95
592.017	30.11
592.211	30.24
592.404	30.15
592.598	30.32
592.792	30.33
592.986	30.49
593.179	30.39
593.373	30.26
593.567	30.17
593.76	30.19
593.954	30.37
594.147	30.39
594.341	30.44
594.535	30.55
594.728	30.42
594.922	30.5
595.115	30.36
595.309	30.39
595.502	30.56
595.696	30.63
595.889	30.48
596.083	30.33
596.276	30.29
596.47	30.27
596.663	30.24
596.856	30.35
597.05	30.33
597.243	30.29
597.437	30.3
597.63	30.11
597.823	30.15
598.017	30.24
598.21	30.45
598.403	30.42
598.596	30.34
598.79	30.26
598.983	30.04
599.176	30.03
599.369	30.23
599.563	30.31
599.756	30.33
599.949	30.24
600.142	30.28
600.335	30.17
600.528	30.18
600.722	30.19
600.915	30.24
601.108	30.49
601.301	30.54
601.494	30.52
601.687	30.44
601.88	30.52
602.073	30.45
602.266	30.43
602.459	30.48
602.652	30.53
602.845	30.58
603.038	30.56
603.231	30.65
603.424	30.6
603.617	30.57
603.809	30.66
604.002	30.58
604.195	30.71
604.388	30.73
604.581	30.74
604.774	30.79
604.966	30.67
605.159	30.63
605.352	30.41
605.545	30.32
605.737	30.33
605.93	30.25
606.123	30.33
606.316	30.41
606.508	30.6
606.701	30.58
606.894	30.52
607.086	30.53
607.279	30.61
607.471	30.7
607.664	30.83
607.857	30.8
608.049	30.82
608.242	30.86
608.434	30.86
608.627	30.71
608.819	30.68
609.012	30.74
609.204	30.78
609.397	30.84
609.589	30.92
609.782	30.9
609.974	30.91
610.166	30.95
610.359	30.94
610.551	30.78
610.743	30.82
610.936	30.69
611.128	30.63
611.32	30.55
611.513	30.5
611.705	30.5
611.897	30.53
612.09	30.67
612.282	30.63
612.474	30.62
612.666	30.66
612.858	30.76
613.051	30.92
613.243	30.82
613.435	31.01
613.627	31.19
613.819	30.88
614.011	31.12
614.203	31.01
614.395	31.08
614.588	31.01
614.78	31.01
614.972	30.96
615.164	31.04
615.356	30.94
615.548	30.93
615.74	30.89
615.932	30.92
616.124	30.65
616.315	30.78
616.507	30.57
616.699	30.7
616.891	30.71
617.083	30.78
617.275	30.81
617.467	31.06
617.659	31.15
617.85	31.18
618.042	31.42
618.234	31.39
618.426	31.26
618.618	31.47
618.809	31.38
619.001	31.39
619.193	31.38
619.384	31.02
619.576	30.96
619.768	30.86
619.959	30.61
620.151	30.65
620.343	30.66
620.534	30.78
620.726	30.78
620.917	30.95
621.109	30.85
621.301	30.63
621.492	30.77
621.684	30.77
621.875	30.87
622.067	30.96
622.258	30.8
622.45	30.75
622.641	30.6
622.832	30.44
623.024	30.41
623.215	30.5
623.407	30.61
623.598	30.64
623.789	30.65
623.981	30.48
624.172	30.66
624.363	30.76
624.555	30.84
624.746	30.9
624.937	30.87
625.129	30.83
625.32	30.94
625.511	31.01
625.702	30.96
625.893	30.98
626.085	31.11
626.276	30.97
626.467	31.19
626.658	31.04
626.849	30.87
627.04	30.98
627.231	31.13
627.422	31.08
627.614	31.13
627.805	31.27
627.996	31.25
628.187	31.27
628.378	31.25
628.569	30.95
628.76	31.15
628.951	31.19
629.142	31.06
629.332	30.82
629.523	30.77
629.714	30.61
629.905	30.66
630.096	30.73
630.287	30.7
630.478	30.7
630.669	30.69
630.859	30.53
631.05	30.66
631.241	30.66
631.432	30.62
631.623	30.72
631.813	30.73
632.004	30.67
632.195	30.46
632.385	30.31
632.576	30.24
632.767	30.43
632.957	30.62
633.148	30.64
633.339	30.77
633.529	30.77
633.72	30.68
633.91	30.76
634.101	30.66
634.292	30.91
634.482	30.88
634.673	31.1
634.863	31.05
635.054	31.15
635.244	31.34
635.435	31.39
635.625	31.41
635.815	31.64
636.006	31.57
636.196	31.83
636.387	31.68
636.577	31.69
636.767	31.46
636.958	31.42
637.148	31.34
637.338	31.14
637.529	31.05
637.719	31.29
637.909	31.13
638.099	31.27
638.29	31.17
638.48	31.35
638.67	31.55
638.86	31.63
639.05	31.61
639.241	31.36
639.431	31.2
639.621	31.33
639.811	31.23
640.001	31.13
640.191	30.87
640.381	30.8
640.571	30.84
640.761	30.68
640.951	30.54
641.141	30.4
641.331	30.37
641.521	30.53
641.711	30.52
641.901	30.53
642.091	30.63
642.281	30.76
642.471	30.67
642.661	30.48
642.851	30.73
643.041	31.05
643.231	31.05
643.42	31.24
643.61	31.21
643.8	31.24
643.99	31.05
644.18	30.74
644.369	30.74
644.559	30.97
644.749	31.2
644.939	31.02
645.128	30.86
645.318	30.89
645.508	30.8
645.697	30.93
645.887	30.66
646.076	30.52
646.266	30.82
646.456	30.76
646.645	30.74
646.835	30.51
647.024	30.66
647.214	30.75
647.403	30.85
647.593	30.87
647.782	30.85
647.972	31.1
648.161	31.57
648.351	31.41
648.54	31.6
648.73	31.54
648.919	31.57
649.108	31.31
649.298	31.42
649.487	31.43
649.677	31.39
649.866	31.36
650.055	31.37
650.244	31.04
650.434	31.2
650.623	31.21
650.812	31.19
651.002	31.08
651.191	31.27
651.38	31.16
651.569	30.98
651.758	31.17
651.947	31.18
652.137	31.08
652.326	31.53
652.515	31.59
652.704	31.34
652.893	31.32
653.082	31.48
653.271	31.5
653.46	31.32
653.649	31.58
653.838	31.56
654.027	31.62
654.216	31.38
654.405	31.28
654.594	30.98
654.783	31.03
654.972	31.02
655.161	31.12
655.35	30.92
655.539	31.28
655.728	31.06
655.916	31.04
656.105	30.93
656.294	31.28
656.483	31.12
656.672	31.34
656.86	31.39
657.049	31.4
657.238	31.16
657.427	31.22
657.615	31.11
657.804	31.18
657.993	31.19
658.181	31.28
658.37	31.23
658.559	30.99
658.747	30.77
658.936	30.89
659.125	30.86
659.313	30.89
659.502	30.9
659.69	30.69
659.879	30.56
660.067	30.55
660.256	30.48
660.444	30.44
660.633	30.62
660.821	30.9
661.01	30.85
661.198	30.95
661.387	31.23
661.575	31.16
661.763	31.43
661.952	31.66
662.14	31.57
662.328	31.5
662.517	31.61
662.705	31.69
662.893	31.49
663.082	31.49
663.27	31.39
663.458	31.12
663.646	31
663.834	30.84
664.023	30.71
664.211	30.86
664.399	31.11
664.587	31.1
664.775	30.78
664.963	31.27
665.152	31.09
665.34	31.23
665.528	31.37
665.716	31.59
665.904	31.77
666.092	31.95
666.28	31.87
666.468	31.83
666.656	31.79
666.844	32.28
667.032	32.01
667.22	32.42
667.408	32.17
667.596	32.29
667.784	32.08
667.971	31.82
668.159	31.65
668.347	31.57
668.535	31.31
668.723	31.13
668.911	30.89
669.098	30.97
669.286	30.54
669.474	30.41
669.662	30.21
669.849	30.37
670.037	30.29
670.225	30.48
670.413	30.62
670.6	30.9
670.788	30.98
670.976	31
671.163	30.65
671.351	30.84
671.538	31.14
671.726	31.41
671.913	31.46
672.101	31.58
672.289	31.63
672.476	31.45
672.664	31.23
672.851	31.42
673.039	31.44
673.226	31.71
673.413	31.63
673.601	31.47
673.788	31.2
673.976	31.22
674.163	31.21
674.35	31.07
674.538	31.35
674.725	31.39
674.912	31
675.1	31.03
675.287	31.18
675.474	31.43
675.662	31.68
675.849	31.69
676.036	31.63
676.223	31.89
676.411	31.73
676.598	31.49
676.785	31.65
676.972	31.95
677.159	31.93
677.346	31.4
677.533	31.4
677.721	31.43
677.908	31.5
678.095	31.73
678.282	31.61
678.469	31.62
678.656	31.71
678.843	31.53
679.03	31.42
679.217	31.52
679.404	31.82
679.591	31.7
679.778	31.47
679.964	31.47
680.151	31.24
680.338	31.32
680.525	31.34
680.712	31.31
680.899	31.48
681.086	31.59
681.272	31.49
681.459	31.33
681.646	31.06
681.833	31.07
682.02	30.82
682.206	30.74
682.393	30.72
682.58	30.92
682.766	30.72
682.953	30.76
683.14	30.7
683.326	30.83
683.513	31.12
683.7	31.24
683.886	31.18
684.073	31.64
684.259	31.9
684.446	31.84
684.632	31.56
684.819	31.56
685.005	31.6
685.192	31.68
685.378	31.74
685.565	31.52
685.751	31.44
685.938	31.97
686.124	31.84
686.31	31.66
686.497	31.31
686.683	31.62
686.87	31.74
687.056	31.45
687.242	31.39
687.429	31.02
687.615	31.17
687.801	31.23
687.987	30.93
688.174	30.79
688.36	31.08
688.546	31.15
688.732	30.75
688.918	30.75
689.105	31.03
689.291	31
689.477	31.16
689.663	31.09
689.849	30.98
690.035	30.92
690.221	30.86
690.407	30.73
690.593	30.76
690.779	30.95
690.965	30.92
691.151	30.72
691.337	30.85
691.523	30.68
691.709	30.63
691.895	31.04
692.081	31.09
692.267	31.32
692.453	31.32
692.639	31.38
692.825	31.47
693.011	31.43
693.196	31.48
693.382	31.6
693.568	31.49
693.754	32
693.94	31.76
694.125	31.92
694.311	31.53
694.497	31
694.682	31.22
694.868	31.33
695.054	31.53
695.239	31.6
695.425	31.38
695.611	31.76
695.796	31.52
695.982	31.39
696.168	31.18
696.353	31.27
696.539	31.77
696.724	31.64
696.91	31.58
697.095	31.55
697.281	31.4
697.466	31.3
697.652	31.07
697.837	31.09
698.023	31.03
698.208	31.04
698.393	31.13
698.579	30.98
698.764	31.03
698.949	31.06
699.135	30.98
699.32	31.27
699.505	31.23
699.691	31.2
699.876	30.93
700.061	31.22
700.246	31.27
700.432	31.25
700.617	31.14
700.802	30.8
700.987	30.45
701.172	30.38
701.358	30.29
701.543	30.56
701.728	30.78
701.913	31.03
702.098	30.89
702.283	30.9
702.468	30.85
702.653	30.99
702.838	31.43
703.023	31.52
703.208	31.6
703.393	31.32
703.578	31.2
703.763	31.33
703.948	31.42
704.133	31.49
704.318	31.32
704.503	31.64
704.688	31.81
704.873	31.43
705.057	31.55
705.242	31.65
705.427	31.95
705.612	31.92
705.797	31.79
705.981	31.58
706.166	31.59
706.351	31.63
706.536	31.21
706.72	30.71
706.905	30.93
707.09	30.78
707.274	30.71
707.459	30.34
707.644	30.31
707.828	30.51
708.013	30.68
708.197	30.86
708.382	30.9
708.567	30.83
708.751	31.07
708.936	31.14
709.12	31.42
709.305	31.57
709.489	31.82
709.673	31.79
709.858	31.7
710.042	31.74
710.227	31.57
710.411	31.61
710.596	31.79
710.78	32.17
710.964	32.34
711.149	32.64
711.333	32.66
711.517	32.48
711.702	32.61
711.886	32.7
712.07	32.48
712.254	32.49
712.438	32.73
712.623	32.79
712.807	32.63
712.991	32.66
713.175	32.28
713.359	32.26
713.544	32.29
713.728	32.03
713.912	31.62
714.096	31.46
714.28	31.13
714.464	31.1
714.648	31.09
714.832	30.9
715.016	30.66
715.2	30.69
715.384	30.61
715.568	30.47
715.752	30.36
715.936	30.68
716.12	30.65
716.304	31.53
716.488	31.13
716.671	31.05
716.855	30.97
717.039	30.91
717.223	30.8
717.407	30.39
717.59	30.58
717.774	30.76
717.958	30.5
718.142	30.63
718.325	29.89
718.509	29.84
718.693	29.86
718.877	29.51
719.06	29.77
719.244	30.23
719.428	30.67
719.611	30.52
719.795	30.83
719.978	31.52
720.162	31.47
720.345	31.54
720.529	31.64
720.713	31.99
720.896	32.5
721.08	32.43
721.263	31.59
721.446	31.55
721.63	31.59
721.813	31.35
721.997	31.03
722.18	31.07
722.364	31.12
722.547	30.99
722.73	30.41
722.914	30.34
723.097	30.42
723.28	30.71
723.464	30.52
723.647	30.74
723.83	30.66
724.013	30.73
724.197	31.13
724.38	31
724.563	30.94
724.746	31.07
724.929	30.55
725.112	30.75
725.296	30.73
725.479	30.58
725.662	30.58
725.845	31.02
726.028	30.48
726.211	30.06
726.394	29.89
726.577	29.93
726.76	30.27
726.943	30.75
727.126	30.71
727.309	30.64
727.492	31.07
727.675	30.64
727.858	30.41
728.041	30.7
728.224	30.7
728.407	31.02
728.589	31.36
728.772	31.06
728.955	30.95
729.138	30.79
729.321	30.84
729.503	31.18
729.686	31.3
729.869	31.18
730.052	30.96
730.234	31.01
730.417	30.45
730.6	30.52
730.782	30.54
730.965	30.26
731.148	29.89
731.33	29.69
731.513	29.37
731.695	29.28
731.878	29.47
732.061	29.32
732.243	29.56
732.426	30.34
732.608	30.19
732.791	30.48
732.973	30.71
733.156	30.96
733.338	31.19
733.52	31.44
733.703	31.6
733.885	31.38
734.068	31.5
734.25	31.74
734.432	31.39
734.615	31.24
734.797	31.47
734.979	31.41
735.162	31.35
735.344	31.48
735.526	31.4
735.708	31.82
735.891	32.38
736.073	32.87
736.255	32.54
736.437	32.48
736.619	32.71
736.802	32.16
736.984	32.59
737.166	32.56
737.348	32.61
737.53	32.16
737.712	31.25
737.894	31.27
738.076	31.09
738.258	30.88
738.44	30.94
738.622	31.16
738.804	30.94
738.986	30.74
739.168	30.49
739.35	30.59
739.532	30.65
739.714	31.06
739.896	29.95
740.078	29.98
740.259	29.96
740.441	29.94
740.623	29.55
740.805	29.43
740.987	29.62
741.168	29.87
741.35	29.77
741.532	29.52
741.714	29.61
741.895	29.93
742.077	30.2
742.259	30.21
742.44	29.84
742.622	29.47
742.804	30.29
742.985	30.23
743.167	30.43
743.348	30.6
743.53	30.89
743.711	31.02
743.893	31.69
744.075	31.5
744.256	31.5
744.438	32.18
744.619	32.29
744.8	32.22
744.982	31.88
745.163	32.13
745.345	31.62
745.526	31.98
745.707	31.59
745.889	31.38
746.07	30.94
746.252	30.54
746.433	30.88
746.614	31.32
746.795	31.67
746.977	32.08
747.158	31.99
747.339	32.32
747.52	31.9
747.702	32.53
747.883	32.11
748.064	32.25
748.245	32.74
748.426	32.35
748.607	32.55
748.788	32.02
748.97	31.89
749.151	31.73
749.332	32.03
749.513	32.48
749.694	32.01
749.875	32.82
750.056	32.88
750.237	32.39
750.418	31.8
750.599	31.81
750.78	31.01
750.96	30.86
751.141	30.54
751.322	30.09
751.503	29.48
751.684	29.75
751.865	29.12
752.046	29.23
752.226	29.8
752.407	29.75
752.588	29.12
752.769	29.82
752.949	30.06
753.13	30.32
753.311	29.9
753.492	30.4
753.672	29.8
753.853	30.05
754.034	30.02
754.214	29.64
754.395	30.06
754.575	30.8
754.756	30.87
754.937	31.57
755.117	31.48
755.298	31.73
755.478	31.75
755.659	31.95
755.839	31.4
756.02	31.41
756.2	31.6
756.381	31.68
756.561	31.1
756.741	31.55
756.922	30.4
757.102	30.27
757.283	30.48
757.463	30.53
757.643	31.13
757.823	31.32
758.004	31.27
758.184	31.07
758.364	31.06
758.545	31.29
758.725	30.69
758.905	31.55
759.085	31.6
759.265	31.05
759.446	30.18
759.626	30.14
759.806	29.95
759.986	30.21
760.166	30.38
760.346	30.01
760.526	30.26
760.706	30.29
760.886	29.46
761.066	30.23
761.246	31
761.426	31.58
761.606	31.39
761.786	31.99
761.966	31.41
762.146	31.53
762.326	31.88
762.506	31.33
762.686	31.64
762.866	31.83
763.046	31.17
763.225	30.58
763.405	30.1
763.585	29.79
763.765	29.95
763.945	30.42
764.124	30.43
764.304	30.54
764.484	31.16
764.664	30.97
764.843	31.26
765.023	31.36
765.203	31.51
765.382	31.95
765.562	32.13
765.741	31.34
765.921	30.95
766.101	31.57
766.28	31.43
766.46	31.26
766.639	30.71
766.819	30.68
766.998	31.21
767.178	31.19
767.357	31.76
767.537	32.12
767.716	32.34
767.896	32.36
768.075	31.63
768.254	30.93
768.434	31.32
768.613	32.08
768.792	31.52
768.972	31.13
769.151	31.54
769.33	30.66
769.51	30.62
769.689	31.28
769.868	31.48
770.047	31
770.226	31.45
770.406	31.02
770.585	30.73
770.764	31.52
770.943	32.31
771.122	32.79
771.301	33.02
771.48	33.52
771.66	32.6
771.839	32.86
772.018	33.1
772.197	32.78
772.376	33
772.555	32.31
772.734	32.13
772.913	30.95
773.092	30.33
773.271	30.48
773.449	29.56
773.628	30.05
773.807	30.42
773.986	30.3
774.165	31.13
774.344	30.69
774.523	31.52
774.701	31.01
774.88	31.29
775.059	31.66
775.238	30.81
775.417	31.43
775.595	31.49
775.774	30.45
775.953	30.22
776.131	29.38
776.31	29.67
776.489	29.19
776.667	29.64
776.846	29.22
777.025	29.62
777.203	30.19
777.382	29.62
777.56	29.59
777.739	29.78
777.917	31.08
778.096	31.59
778.274	31.15
778.453	32.01
778.631	32.09
778.81	32.55
778.988	31.44
779.166	31.2
779.345	32.19
779.523	32.37
779.702	32.13
779.88	31.65
780.058	31.53
780.237	32.2
780.415	32.05
780.593	32.56
780.771	32.54
780.95	33.77
781.128	34.24
781.306	33.33
781.484	33.49
781.662	34.07
781.841	33.63
782.019	34.1
782.197	33.13
782.375	32.74
782.553	32.3
782.731	32.33
782.909	31.02
783.087	31.58
783.265	32
783.443	30.97
783.621	30.49
783.799	30.79
783.977	30.73
784.155	32.01
784.333	32.36
784.511	31.48
784.689	31.4
784.867	32.49
785.045	31.37
785.223	32.25
785.4	33.32
785.578	33.85
785.756	34.16
785.934	34.25
786.112	33.36
786.289	32.64
786.467	33.29
786.645	33.03
786.823	32.41
787	33.07
787.178	31.44
787.356	30.71
787.533	30.32
787.711	30.11
787.889	30.19
788.066	30.5
788.244	31.1
788.421	30.95
788.599	31.57
788.776	31.05
788.954	30.36
789.131	30.77
789.309	30.99
789.486	32.3
789.664	32.46
789.841	32.54
790.019	32.84
790.196	33
790.373	33.97
790.551	33.76
790.728	34.88
790.906	34.85
791.083	35.69
791.26	36.82
791.437	35.91
791.615	36.16
791.792	35.94
791.969	35.6
792.146	34.49
792.324	33.63
792.501	34.36
792.678	34.79
792.855	35.25
793.032	34.81
793.209	34.21
793.387	34.61
793.564	33.82
793.741	33.14
793.918	32.71
794.095	33.53
794.272	33.03
794.449	32.66
794.626	32.95
794.803	33.14
794.98	33.26
795.157	33.37
795.334	33.15
795.511	33.2
795.688	33.25
795.864	33.68
796.041	34
796.218	33.95
796.395	33.94
796.572	33.11
796.749	33.34
796.925	32.45
797.102	31.77
797.279	31.19
797.456	31.21
797.632	31.61
797.809	31.95
797.986	31.28
798.162	31.53
798.339	31.03
798.516	30.21
798.692	29.05
798.869	29.66
799.046	29.58
799.222	29.9
799.399	29.74
799.575	29.75
799.752	28.31
799.928	28.45
800.105	27.67
800.281	28.3
800.458	29.75
800.634	32.03
800.811	32.17
800.987	31.38
801.163	31.73
801.34	32.91
801.516	32.25
801.692	32.6
801.869	32.25
802.045	32.52
802.221	32.22
802.398	31.67
802.574	30.93
802.75	30.13
802.926	29.92
803.103	30.24
803.279	29.33
803.455	29.69
803.631	30.49
803.807	31.15
803.983	31.59
804.16	30.75
804.336	30.54
804.512	29.78
804.688	30.39
804.864	31.21
805.04	30.06
805.216	30.41
805.392	30.19
805.568	30.79
805.744	31.15
805.92	31.6
806.096	33.23
806.272	33.24
806.448	34.76
806.623	34.24
806.799	35.96
806.975	37.32
807.151	36.58
807.327	36.38
807.503	35.8
807.678	36.26
807.854	34.63
808.03	33.32
808.206	33.08
808.381	31.96
808.557	32.43
808.733	30.49
808.908	29.64
809.084	30.48
809.26	29.55
809.435	30.02
809.611	28.93
809.787	30.07
809.962	30.14
810.138	29.22
810.313	28.78
810.489	29.29
810.664	28.64
810.84	27.3
811.015	26.31
811.191	29.35
811.366	27.97
811.542	28.45
811.717	29.12
811.892	29.63
812.068	30.41
812.243	30.23
812.419	30.21
812.594	31.85
812.769	32.73
812.944	32.89
813.12	32.61
813.295	33.08
813.47	33.14
813.645	34.6
813.821	34.21
813.996	35.19
814.171	35.7
814.346	34.88
814.521	34.41
814.697	36.75
814.872	37.15
815.047	36.08
815.222	37.59
815.397	36.88
815.572	34.14
815.747	34.37
815.922	33.15
816.097	32.26
816.272	33.46
816.447	33.19
816.622	31.34
816.797	30.57
816.972	30.87
817.147	29.92
817.322	29.39
817.496	29.79
817.671	30.49
817.846	30.68
818.021	30.65
818.196	30.06
818.371	30.04
818.545	29.46
818.72	29.73
818.895	29.08
819.069	29.11
819.244	30.12
819.419	30.59
819.594	29.37
819.768	28.79
819.943	29.84
820.117	29.82
820.292	30.19
820.467	30.15
820.641	30.15
820.816	29.99
820.99	29.7
821.165	29.58
821.339	29.39
821.514	29.81
821.688	30.22
821.863	29.68
822.037	29.5
822.212	29.66
822.386	29.9
822.56	29.76
822.735	29.83
822.909	29.99
823.084	29.81
823.258	29.91
823.432	30.01
823.606	29.89
823.781	30
823.955	30.23
824.129	30.07
824.303	29.94
824.478	30.34
824.652	29.94
824.826	29.92
825	29.69
825.174	29.46
825.348	28.99
825.523	29.2
825.697	29.13
825.871	29.09
826.045	28.79
826.219	28.5
826.393	28.39
826.567	29.33
826.741	29.16
826.915	29.65
827.089	30.01
827.263	30.22
827.437	30.02
827.611	30.32
827.784	30.43
827.958	31.11
828.132	31.38
828.306	31.26
828.48	31.2
828.654	31.2
828.827	31.37
829.001	31.15
829.175	31.09
829.349	31.32
829.522	31.87
829.696	31.9
829.87	31.4
830.044	31.71
830.217	32.46
830.391	32.1
830.565	32.66
830.738	32.11
830.912	32.27
831.085	31.63
831.259	31.83
831.432	30.24
831.606	30.24
831.779	29.88
831.953	29.36
832.126	27.63
832.3	27.52
832.473	28.56
832.647	28.5
832.82	29.52
832.994	30.16
833.167	30.59
833.34	31.33
833.514	31.3
833.687	31.09
833.86	31.49
834.034	32.39
834.207	32.48
834.38	30.89
834.553	31.12
834.727	30.48
834.9	29.84
835.073	28.4
835.246	28.46
835.419	29.1
835.593	30.01
835.766	28.52
835.939	28.82
836.112	28.62
836.285	30.31
836.458	31.23
836.631	31.07
836.804	33.05
836.977	35.82
837.15	37.06
837.323	35.44
837.496	35.08
837.669	36.73
837.842	37.03
838.015	38.63
838.188	38.38
838.361	38.13
838.533	37.81
838.706	36
838.879	32.89
839.052	31.49
839.225	33.57
839.398	32.72
839.57	32.76
839.743	33.06
839.916	33
840.088	34.61
840.261	34.58
840.434	35.88
840.607	36.23
840.779	37.44
840.952	35.61
841.124	32.88
841.297	33.62
841.47	33.72
841.642	32.29
841.815	31.97
841.987	30.79
842.16	28.92
842.332	28.01
842.505	27.09
842.677	27.62
842.85	29.1
843.022	31.96
843.194	31.39
843.367	32.89
843.539	33.54
843.712	32.42
843.884	32.91
844.056	36.28
844.229	37.25
844.401	39.22
844.573	37.48
844.745	38.05
844.918	37.82
845.09	39.14
845.262	38.47
845.434	41.37
845.606	40.44
845.779	37.42
845.951	36.69
846.123	35.29
846.295	34.62
846.467	34.92
846.639	35.7
846.811	36.24
846.983	34.96
847.155	33.84
847.327	32.04
847.499	32.78
847.671	34.75
847.843	32.66
848.015	32.03
848.187	33.18
848.359	35.04
848.531	33.8
848.703	34.95
848.875	33.8
849.047	34.36
849.218	31.77
849.39	32.07
849.562	30.54
849.734	31.78
849.905	32.87
850.077	30.82
850.249	26.78
850.421	29.11
850.592	24.94
850.764	26.4
850.936	28.07
851.107	28.52
851.279	26.99
851.451	30.64
851.622	30.9
851.794	26.38
851.965	27.14
852.137	33.36
852.308	31.46
852.48	36.49
852.651	35.08
852.823	33.75
852.994	35.05
853.166	34.61
853.337	32.67
853.509	31.58
853.68	38.04
853.851	35.14
854.023	32.13
854.194	27.18
854.365	20.37
854.537	23.47
854.708	26.17
854.879	25.54
855.05	28.88
855.222	27.35
855.393	26.34
855.564	22.72
855.735	27.16
855.906	26.66
856.078	29.7
856.249	35.83
856.42	33.57
856.591	32.32
856.762	34.17
856.933	31.74
857.104	29.87
857.275	31.84
857.446	33.97
857.617	32.24
857.788	33.6
857.959	37.07
858.13	35.62
858.301	36.83
858.472	32.34
858.643	30.1
858.814	30.89
858.985	34.85
859.155	35.37
859.326	36.24
859.497	33.77
859.668	35.48
859.839	33.2
860.009	32.37
860.18	32.15
860.351	34.27
860.522	33.72
860.692	34.69
860.863	32.12
861.034	33.31
861.204	31.86
861.375	35.55
861.546	32.78
861.716	32.9
861.887	30.93
862.057	29.23
862.228	29.01
862.398	29
862.569	30.42
862.739	32.8
862.91	29.94
863.08	32.79
863.251	32.79
863.421	31.15
863.592	32.91
863.762	34.14
863.932	35.92
864.103	36.93
864.273	42.07
864.443	38.98
864.614	39.29
864.784	40.78
864.954	38.7
865.125	35.18
865.295	37.89
865.465	35.48
865.635	36.67
865.805	39.99
865.976	41.03
866.146	38.11
866.316	41.23
866.486	43.64
866.656	42.75
866.826	41.9
866.996	43.27
867.166	43
867.336	43.95
867.506	45.01
867.676	41.39
867.846	39.27
868.016	37.2
868.186	35.17
868.356	32.35
868.526	31.16
868.696	31.86
868.866	36.34
869.036	34.86
869.206	37.86
869.376	36.74
869.545	37.52
869.715	40.46
869.885	41.73
870.055	45.07
870.224	44.53
870.394	45.44
870.564	48.56
870.734	44.02
870.903	42.88
871.073	40.35
871.243	39.79
871.412	40.69
871.582	39.22
871.751	36.77
871.921	34.86
872.091	35.6
872.26	34.74
872.43	31.57
872.599	30.87
872.769	34.39
872.938	32.66
873.108	33.11
873.277	30.92
873.446	29.67
873.616	31.77
873.785	35.1
873.955	33.82
874.124	33.65
874.293	34.74
874.463	36.9
874.632	35.25
874.801	37.87
874.971	34.99
875.14	39.3
875.309	37.8
875.478	37.61
875.647	32.43
875.817	31.85
875.986	32.85
876.155	29.21
876.324	28.69
876.493	30.1
876.662	30.27
876.831	31.81
877	31.43
877.17	32.61
877.339	32.16
877.508	31.2
877.677	30.92
877.846	27.04
878.015	32.17
878.184	30.82
878.352	28.87
878.521	29.19
878.69	29.85
878.859	27.73
879.028	29.79
879.197	30.3
879.366	30.3
879.534	32.34
879.703	35.91
879.872	32.43
880.041	31.33
880.21	32.15
880.378	32.06
880.547	30.41
880.716	31.44
880.884	31.36
881.053	31.29
881.222	31.16
881.39	30.78
881.559	29.53
881.727	29.68
881.896	30.11
882.065	29.31
882.233	28.73
882.402	29.91
882.57	29.34
882.739	28.9
882.907	28.55
883.076	28.31
883.244	27.94
883.412	28.24
883.581	28.96
883.749	28.71
883.918	28.9
884.086	28.93
884.254	28.5
884.423	28.29
884.591	28.09
884.759	27.78
884.927	28.3
885.096	28.48
885.264	29.2
885.432	28.57
885.6	28.12
885.769	26.78
885.937	26.63
886.105	25.32
886.273	25.17
886.441	25.47
886.609	26.07
886.777	25.49
886.945	26.8
887.113	27.32
887.281	27.37
887.449	30.86
887.617	34.51
887.785	36.11
887.953	37.52
888.121	38.82
888.289	37.77
888.457	37.69
888.625	38.23
888.793	37
888.961	36.76
889.129	35.84
889.296	34.38
889.464	34.01
889.632	33.12
889.8	33.13
889.967	30.66
890.135	33.8
