Data from 2938474_Reflection_1.txt Node
Date: Wed Jun 17 13:23:22 EDT 2015
User: robert
Spectrometer: USB4E03002
Autoset integration time: false
Trigger mode: 4
Integration Time (sec): 1.000000E-1
Scans to average: 10
Electric dark correction enabled: true
Nonlinearity correction enabled: false
Boxcar width: 5
Stray light correction enabled: false
XAxis mode: Wavelengths
Stop averaging: false
Number of Pixels in Spectrum: 3648
>>>>>Begin Spectral Data<<<<<
177.575	497.01
177.794	215.86
178.014	151.85
178.233	231.06
178.452	237.03
178.672	199.5
178.891	89.3
179.11	-186.98
179.33	-208.07
179.549	-539.02
179.768	-602
179.987	-430.04
180.207	-324.07
180.426	-702.79
180.645	-965.17
180.864	-246.89
181.084	-139.4
181.303	-116.47
181.522	-64.78
181.741	-89.07
181.96	-105.2
182.179	-240.37
182.398	-798.82
182.618	631.37
182.837	536.94
183.056	184.36
183.275	112.99
183.494	94.47
183.713	101.36
183.932	113.37
184.151	151.12
184.37	94.69
184.589	78.62
184.808	99.02
185.027	107.57
185.246	113.89
185.465	132.34
185.684	237.92
185.903	2572.13
186.122	381.22
186.341	255.16
186.56	195.05
186.779	267.26
186.998	524.35
187.216	646.55
187.435	259.48
187.654	268.76
187.873	326.64
188.092	1440.63
188.311	504.29
188.53	-244.17
188.748	-56.71
188.967	-61.75
189.186	-286.65
189.405	-218.91
189.623	-193.81
189.842	-51.29
190.061	-74.83
190.28	-136.15
190.498	-191.3
190.717	-435.56
190.936	-777.28
191.154	918.8
191.373	-5550.67
191.592	-1940.66
191.81	510.21
192.029	498.39
192.248	260.87
192.466	285.89
192.685	250.41
192.904	545.39
193.122	1512.11
193.341	2802.51
193.559	-354.03
193.778	-369.12
193.996	-362.6
194.215	-126.55
194.433	-160
194.652	-198
194.87	-267.61
195.089	-477.04
195.307	764.21
195.526	620.46
195.744	285.38
195.963	223.9
196.181	202.3
196.399	149.76
196.618	152.24
196.836	122.21
197.055	135.95
197.273	161.14
197.491	227.17
197.71	286.99
197.928	233.69
198.146	203.26
198.365	174.04
198.583	138.96
198.801	162.23
199.019	185.19
199.238	238.02
199.456	211.21
199.674	159.36
199.892	109.93
200.111	101.7
200.329	176.75
200.547	195.37
200.765	229.13
200.983	234.69
201.202	259.15
201.42	205.32
201.638	263.99
201.856	225.82
202.074	317.62
202.292	409.98
202.51	396.77
202.728	215.39
202.946	161.22
203.165	140.4
203.383	179.08
203.601	116.9
203.819	98.06
204.037	75.94
204.255	119.38
204.473	85.75
204.691	92.97
204.909	87.39
205.127	105.6
205.345	163.54
205.562	200.24
205.78	166.68
205.998	408.44
206.216	430.78
206.434	915.39
206.652	155.02
206.87	253.05
207.088	202.79
207.306	129.47
207.523	92.08
207.741	91.18
207.959	134.99
208.177	113.09
208.395	82.28
208.612	82.08
208.83	131.25
209.048	160.51
209.266	134.33
209.483	190.96
209.701	171.66
209.919	149.67
210.136	263.42
210.354	147.86
210.572	321.49
210.79	249.84
211.007	66.97
211.225	-312.67
211.442	18.39
211.66	21.67
211.878	36.97
212.095	61.38
212.313	81.8
212.53	71.32
212.748	71.77
212.966	49.84
213.183	62.81
213.401	93.75
213.618	84.48
213.836	67.05
214.053	74.29
214.271	86.05
214.488	71.9
214.705	46.52
214.923	24.5
215.14	14.71
215.358	37.39
215.575	34.28
215.793	29.98
216.01	42.55
216.227	37.92
216.445	38.65
216.662	40.01
216.879	37.48
217.097	50.02
217.314	66.65
217.531	72.55
217.749	67.32
217.966	55.64
218.183	53.24
218.4	47.9
218.618	63.66
218.835	53.92
219.052	47.16
219.269	53.28
219.487	60.8
219.704	56.57
219.921	49.7
220.138	51.16
220.355	52.37
220.572	46.36
220.79	41.16
221.007	39.11
221.224	33.09
221.441	50.6
221.658	59.23
221.875	56.66
222.092	56.85
222.309	50.64
222.526	48.99
222.743	47.59
222.96	49.68
223.177	50.92
223.394	43.93
223.611	44.26
223.828	38.75
224.045	37.53
224.262	33.46
224.479	27.29
224.696	27.27
224.913	25.2
225.13	22.19
225.347	19.92
225.564	20.89
225.781	18.24
225.997	18.38
226.214	16.74
226.431	13.32
226.648	14.02
226.865	14.87
227.082	15.84
227.298	14.89
227.515	14.53
227.732	13.79
227.949	13.09
228.165	12.92
228.382	12.98
228.599	12.21
228.816	12
229.032	11.05
229.249	11.56
229.466	10.86
229.682	12.1
229.899	11.81
230.116	13.72
230.332	13.96
230.549	15.17
230.765	15.29
230.982	17.4
231.199	16.67
231.415	18.47
231.632	17.24
231.848	17.78
232.065	16.87
232.281	16.74
232.498	15.06
232.714	13.65
232.931	13.71
233.147	12.87
233.364	11.88
233.58	12.68
233.797	12.18
234.013	12.58
234.23	13.98
234.446	14.56
234.662	15.6
234.879	17.45
235.095	18.68
235.312	18.4
235.528	17.15
235.744	17.15
235.961	18.94
236.177	19.56
236.393	19.36
236.61	18.1
236.826	16.73
237.042	16.11
237.258	13.76
237.475	12.18
237.691	13.53
237.907	14.53
238.123	15.76
238.339	15.78
238.556	14.48
238.772	13.03
238.988	12.53
239.204	13.8
239.42	14.22
239.636	14.96
239.853	14.5
240.069	13.47
240.285	12.96
240.501	12.04
240.717	11.32
240.933	11.34
241.149	12.35
241.365	12.2
241.581	11.9
241.797	12
242.013	11.3
242.229	11.42
242.445	11.46
242.661	11.95
242.877	11.52
243.093	11.51
243.309	11.41
243.525	10.98
243.741	11.72
243.957	11.36
244.173	10.94
244.388	11.43
244.604	11.84
244.82	11.65
245.036	11.06
245.252	11.15
245.468	10.97
245.683	11.01
245.899	10.85
246.115	10.5
246.331	10.47
246.547	10.13
246.762	10.17
246.978	10.02
247.194	10.3
247.409	10.89
247.625	11.42
247.841	11.46
248.057	11.66
248.272	12.01
248.488	12.35
248.703	12.16
248.919	13.14
249.135	12.25
249.35	12.25
249.566	12.01
249.782	11.92
249.997	10.78
250.213	10.82
250.428	11.02
250.644	11.19
250.859	10.47
251.075	10.87
251.29	11.14
251.506	11.67
251.721	11.49
251.937	11.85
252.152	11.92
252.368	12.92
252.583	14.34
252.798	14.26
253.014	14.23
253.229	15.16
253.445	14.88
253.66	13.87
253.875	12.95
254.091	13.11
254.306	12.91
254.521	13.23
254.737	11.97
254.952	11.6
255.167	10.77
255.383	9.95
255.598	9.45
255.813	9.78
256.028	10.2
256.244	10.65
256.459	10.87
256.674	10.12
256.889	9.42
257.104	9.67
257.32	9.37
257.535	9.42
257.75	9.46
257.965	9.52
258.18	9.29
258.395	8.97
258.61	9.29
258.826	9.12
259.041	9.16
259.256	9.19
259.471	8.85
259.686	8.73
259.901	8.59
260.116	8.92
260.331	8.47
260.546	8.44
260.761	8.62
260.976	8.12
261.191	7.78
261.406	8.18
261.621	7.82
261.836	8.12
262.05	7.36
262.265	7
262.48	6.34
262.695	7.34
262.91	8.38
263.125	7.78
263.34	8.06
263.555	8.44
263.769	8.21
263.984	8.85
264.199	9.17
264.414	9.47
264.629	10.1
264.843	10
265.058	9.27
265.273	8.26
265.488	8.35
265.702	7.83
265.917	7.76
266.132	7.65
266.346	7.52
266.561	7.3
266.776	7.75
266.99	7.48
267.205	7.63
267.42	7.64
267.634	8.3
267.849	8.28
268.063	8.38
268.278	8.63
268.492	8.69
268.707	8.08
268.922	8.19
269.136	7.37
269.351	7.16
269.565	7.26
269.78	7.57
269.994	7.72
270.209	7.73
270.423	8.02
270.637	8.22
270.852	8.26
271.066	8.5
271.281	8.56
271.495	9.17
271.709	9.6
271.924	9.47
272.138	9.56
272.353	8.83
272.567	8.63
272.781	8.43
272.996	8.24
273.21	8.55
273.424	8.98
273.638	9.11
273.853	8.52
274.067	8.7
274.281	8.93
274.495	8.52
274.71	8.78
274.924	9.52
275.138	9.38
275.352	9.1
275.566	8.15
275.781	7.52
275.995	7.48
276.209	8.05
276.423	7.4
276.637	7.08
276.851	7.61
277.065	8.3
277.279	8.39
277.493	8.39
277.707	8.46
277.921	8.95
278.135	9.32
278.349	9.35
278.563	9.13
278.777	9.45
278.991	9.73
279.205	9.23
279.419	8.74
279.633	8.14
279.847	7.8
280.061	7.59
280.275	7.64
280.489	7.43
280.703	7.36
280.917	7.6
281.131	7.62
281.344	7.39
281.558	7.2
281.772	7.16
281.986	7.38
282.2	7.7
282.414	7.87
282.627	7.57
282.841	7.73
283.055	7.95
283.269	7.76
283.482	7.45
283.696	7.45
283.91	7.57
284.123	7.97
284.337	7.76
284.551	8.02
284.764	8.23
284.978	8.61
285.192	8.66
285.405	8.52
285.619	8.47
285.833	8.93
286.046	9.01
286.26	9.51
286.473	9.21
286.687	9.55
286.9	8.77
287.114	8.95
287.327	8.98
287.541	9.03
287.754	8.97
287.968	9.29
288.181	9.48
288.395	9.73
288.608	9.7
288.822	9.57
289.035	9.66
289.248	9.99
289.462	9.75
289.675	9.77
289.889	9.84
290.102	9.74
290.315	9.5
290.529	8.68
290.742	8.59
290.955	8.36
291.169	8.92
291.382	9.09
291.595	9.71
291.808	10.28
292.022	9.77
292.235	10.21
292.448	10.97
292.661	11.58
292.875	12.19
293.088	12.24
293.301	12.27
293.514	11.59
293.727	11.63
293.94	11.47
294.153	11.08
294.367	11.28
294.58	11.11
294.793	10.95
295.006	10.44
295.219	10.56
295.432	10.51
295.645	10.51
295.858	10.81
296.071	10.89
296.284	11.17
296.497	10.97
296.71	10.88
296.923	10.84
297.136	10.64
297.349	10.58
297.562	10.84
297.775	11.09
297.988	11.3
298.201	11.53
298.414	11.19
298.626	11.12
298.839	11.53
299.052	11.99
299.265	12.07
299.478	12.15
299.691	12.53
299.903	12.36
300.116	11.89
300.329	12.37
300.542	11.78
300.755	12.08
300.967	11.91
301.18	11.89
301.393	11.66
301.605	11.26
301.818	11.35
302.031	11.15
302.243	11.24
302.456	11.97
302.669	11.67
302.881	12.67
303.094	12.62
303.307	12.61
303.519	12.52
303.732	12.53
303.944	12.87
304.157	13.04
304.37	13.44
304.582	13.19
304.795	13.03
305.007	12.79
305.22	12.15
305.432	12.39
305.645	12.79
305.857	13.16
306.069	13.53
306.282	13.32
306.494	12.74
306.707	12.73
306.919	12.43
307.132	11.57
307.344	11.89
307.556	11.95
307.769	11.72
307.981	11.8
308.193	12.09
308.406	12.2
308.618	12.47
308.83	13.13
309.043	13.19
309.255	13.45
309.467	14.11
309.679	13.64
309.892	13.95
310.104	13.75
310.316	13.74
310.528	13.35
310.74	13.38
310.953	13.53
311.165	13.05
311.377	12.6
311.589	13.04
311.801	13.28
312.013	13.9
312.225	14.08
312.437	14.2
312.649	13.86
312.862	13.9
313.074	14.21
313.286	14.08
313.498	14.42
313.71	14.78
313.922	14.69
314.134	14.39
314.346	14.77
314.558	14.55
314.77	15.36
314.982	15.92
315.193	16.13
315.405	16.01
315.617	15.85
315.829	15.95
316.041	15.8
316.253	15.78
316.465	15.79
316.677	15.3
316.888	15.06
317.1	14.52
317.312	14.39
317.524	15.01
317.736	15.01
317.947	15.57
318.159	15.41
318.371	15.99
318.583	15.98
318.794	15.72
319.006	16.38
319.218	16.32
319.43	16.73
319.641	16.42
319.853	16.02
320.064	15.75
320.276	15.81
320.488	15.59
320.699	15.59
320.911	15.55
321.123	16.4
321.334	16.21
321.546	16.12
321.757	16.06
321.969	16.8
322.18	16.84
322.392	17.03
322.603	16.88
322.815	16.99
323.026	16.61
323.238	15.96
323.449	14.82
323.661	14.58
323.872	14.98
324.083	15.02
324.295	14.86
324.506	14.62
324.718	14.66
324.929	14.47
325.14	14.58
325.352	14.7
325.563	14.98
325.774	15.84
325.986	15.63
326.197	15.55
326.408	15.67
326.62	15.01
326.831	15.03
327.042	14.97
327.253	14.72
327.464	14.53
327.676	14.7
327.887	14.88
328.098	14.4
328.309	14.38
328.52	14.17
328.732	13.78
328.943	14.03
329.154	14.02
329.365	14.2
329.576	14.44
329.787	14.98
329.998	14.94
330.209	15.06
330.42	15.32
330.631	15.19
330.842	15.56
331.053	15.42
331.264	15.07
331.475	14.61
331.686	14.5
331.897	15.01
332.108	14.46
332.319	14.14
332.53	14.26
332.741	14.32
332.952	14.52
333.163	14.65
333.374	14.96
333.585	15.22
333.795	15.19
334.006	15.15
334.217	14.5
334.428	14.61
334.639	15.29
334.849	14.83
335.06	14.09
335.271	13.91
335.482	13.54
335.692	13.54
335.903	13.57
336.114	13.66
336.325	13.57
336.535	13.63
336.746	13.84
336.957	14.05
337.167	14.23
337.378	15.14
337.589	15.37
337.799	15.11
338.01	14.89
338.22	14.89
338.431	15.33
338.642	15.27
338.852	15.19
339.063	15.07
339.273	14.44
339.484	14.37
339.694	13.63
339.905	13.84
340.115	14.38
340.326	14.61
340.536	14.71
340.746	14.57
340.957	14.41
341.167	14.39
341.378	14.14
341.588	14.26
341.799	14.04
342.009	13.84
342.219	13.45
342.43	13.3
342.64	13.05
342.85	12.66
343.061	12.58
343.271	12.91
343.481	12.84
343.691	13.07
343.902	12.63
344.112	13.4
344.322	13.77
344.532	13.73
344.743	13.44
344.953	13.25
345.163	13.47
345.373	13.4
345.583	13.24
345.793	13.18
346.004	13.38
346.214	12.87
346.424	12.22
346.634	12.09
346.844	12.51
347.054	12.58
347.264	12.46
347.474	12.57
347.684	12.35
347.894	11.63
348.104	11.75
348.314	11.66
348.524	11.96
348.734	11.73
348.944	11.84
349.154	11.27
349.364	11.75
349.574	12.1
349.784	12.01
349.994	12.49
350.204	12.94
350.413	12.7
350.623	12.64
350.833	12.43
351.043	12.6
351.253	12.33
351.463	12.51
351.672	11.68
351.882	11.76
352.092	11.68
352.302	11.41
352.511	11.57
352.721	12.03
352.931	11.77
353.141	12.15
353.35	12.04
353.56	11.82
353.77	11.77
353.979	11.9
354.189	11.53
354.399	11.71
354.608	11.51
354.818	11.35
355.027	11.11
355.237	11.21
355.447	11.35
355.656	11.4
355.866	11.58
356.075	11.41
356.285	11.51
356.494	11.47
356.704	11.47
356.913	11.67
357.123	11.82
357.332	11.56
357.542	11.52
357.751	11.34
357.96	11.3
358.17	11.33
358.379	11.51
358.589	11.03
358.798	10.96
359.007	10.95
359.217	10.84
359.426	10.68
359.635	10.93
359.845	10.91
360.054	10.89
360.263	10.62
360.472	10.77
360.682	10.75
360.891	11.18
361.1	11.45
361.309	11.19
361.519	11.19
361.728	11.01
361.937	10.77
362.146	10.56
362.355	10.54
362.564	10.72
362.774	10.56
362.983	10.45
363.192	10.02
363.401	9.88
363.61	9.61
363.819	9.78
364.028	10.1
364.237	10.29
364.446	10.31
364.655	10.38
364.864	10.45
365.073	10.49
365.282	10.52
365.491	10.85
365.7	10.92
365.909	11.16
366.118	11.03
366.327	10.82
366.536	10.43
366.745	10.63
366.954	10.36
367.162	10.27
367.371	9.94
367.58	9.75
367.789	9.62
367.998	9.39
368.207	9.26
368.415	9.17
368.624	9.27
368.833	9.49
369.042	9.6
369.25	9.73
369.459	9.83
369.668	9.83
369.877	9.84
370.085	9.67
370.294	9.81
370.503	9.89
370.711	10.05
370.92	9.77
371.129	9.38
371.337	9.13
371.546	8.94
371.754	8.65
371.963	8.94
372.171	9.14
372.38	8.85
372.589	8.72
372.797	8.9
373.006	8.67
373.214	8.82
373.423	9.23
373.631	9.08
373.84	9.14
374.048	9.57
374.256	9.31
374.465	9.09
374.673	9.41
374.882	9.49
375.09	8.93
375.298	8.63
375.507	8.51
375.715	8.49
375.923	8.47
376.132	8.5
376.34	8.26
376.548	8.04
376.757	8.2
376.965	8.05
377.173	7.8
377.381	8.05
377.59	8.26
377.798	8.39
378.006	8.38
378.214	8.33
378.423	8.51
378.631	8.4
378.839	8.57
379.047	8.31
379.255	8.52
379.463	8.77
379.671	8.85
379.879	8.8
380.088	8.86
380.296	8.94
380.504	8.88
380.712	8.73
380.92	8.57
381.128	8.62
381.336	8.53
381.544	8.29
381.752	8.07
381.96	7.9
382.168	7.88
382.376	7.57
382.584	7.41
382.791	7.43
382.999	7.24
383.207	7.39
383.415	7.27
383.623	7.2
383.831	7.12
384.039	7.17
384.247	7.31
384.454	7.36
384.662	7.31
384.87	7.06
385.078	7.06
385.285	7.05
385.493	7.24
385.701	7.34
385.909	7.41
386.116	7.58
386.324	7.3
386.532	7.02
386.739	6.77
386.947	6.91
387.155	7.02
387.362	6.91
387.57	6.83
387.778	6.53
387.985	6.45
388.193	6.49
388.4	6.44
388.608	6.66
388.816	6.82
389.023	6.9
389.231	6.9
389.438	6.81
389.646	6.76
389.853	6.74
390.061	6.57
390.268	6.47
390.475	6.38
390.683	6.48
390.89	6.47
391.098	6.21
391.305	6.24
391.512	6.05
391.72	6.07
391.927	6.12
392.135	6.06
392.342	6.07
392.549	6.15
392.756	5.97
392.964	5.87
393.171	5.74
393.378	5.68
393.586	5.8
393.793	5.84
394	5.97
394.207	5.87
394.414	6.13
394.622	6.14
394.829	6.14
395.036	6.14
395.243	5.88
395.45	5.85
395.657	6.1
395.864	6.11
396.072	6.21
396.279	6.12
396.486	6.02
396.693	5.74
396.9	5.83
397.107	5.71
397.314	6
397.521	6.24
397.728	6.06
397.935	6.15
398.142	5.82
398.349	5.69
398.556	5.58
398.763	5.73
398.97	5.59
399.177	5.56
399.383	5.63
399.59	5.39
399.797	5.43
400.004	5.58
400.211	5.3
400.418	5.47
400.625	5.36
400.831	5.28
401.038	5.27
401.245	5.37
401.452	5.41
401.658	5.45
401.865	5.46
402.072	5.35
402.279	5.23
402.485	5.25
402.692	5.33
402.899	5.4
403.105	5.56
403.312	5.69
403.519	5.76
403.725	5.6
403.932	5.49
404.138	5.63
404.345	5.45
404.552	5.53
404.758	5.56
404.965	5.42
405.171	5.32
405.378	5.26
405.584	5.14
405.791	4.99
405.997	5.27
406.204	5.32
406.41	5.23
406.617	5.52
406.823	5.27
407.029	5.28
407.236	5.32
407.442	5.43
407.649	5.41
407.855	5.28
408.061	5.36
408.268	5
408.474	4.99
408.68	5.13
408.887	4.95
409.093	5.36
409.299	5.34
409.505	5.25
409.712	5.23
409.918	5.14
410.124	5.3
410.33	5.32
410.537	5.48
410.743	5.67
410.949	5.32
411.155	5.41
411.361	5.19
411.567	5.18
411.773	5.2
411.98	5.18
412.186	5.2
412.392	5.21
412.598	5.1
412.804	5.14
413.01	4.76
413.216	4.98
413.422	4.94
413.628	5.02
413.834	5.07
414.04	5.02
414.246	4.98
414.452	5.01
414.658	5.03
414.864	5.11
415.07	5.06
415.275	5.18
415.481	5.11
415.687	5.11
415.893	5.1
416.099	5.02
416.305	5.02
416.511	5.02
416.716	5.02
416.922	4.99
417.128	5.06
417.334	5.06
417.539	5.02
417.745	4.94
417.951	4.92
418.157	4.86
418.362	4.84
418.568	4.88
418.774	4.88
418.979	4.91
419.185	4.82
419.391	4.76
419.596	4.75
419.802	4.68
420.008	4.73
420.213	4.25
420.419	4.25
420.624	4.3
420.83	4.28
421.035	4.29
421.241	4.18
421.446	4.2
421.652	4.21
421.857	4.22
422.063	4.27
422.268	4.26
422.474	4.72
422.679	4.65
422.885	4.67
423.09	4.65
423.295	4.6
423.501	4.67
423.706	4.69
423.911	4.7
424.117	4.74
424.322	4.75
424.527	4.81
424.733	4.85
424.938	5.01
425.143	4.98
425.349	4.96
425.554	4.99
425.759	4.97
425.964	5.02
426.169	4.93
426.375	4.8
426.58	4.84
426.785	4.84
426.99	4.74
427.195	4.7
427.4	4.6
427.605	4.62
427.811	4.63
428.016	4.59
428.221	4.57
428.426	4.56
428.631	4.51
428.836	4.43
429.041	4.37
429.246	4.41
429.451	4.43
429.656	4.55
429.861	4.57
430.066	4.6
430.271	4.68
430.476	4.57
430.681	4.65
430.886	4.74
431.09	4.7
431.295	4.67
431.5	4.73
431.705	4.76
431.91	4.67
432.115	4.65
432.32	4.61
432.524	4.58
432.729	4.65
432.934	4.62
433.139	4.64
433.343	4.75
433.548	4.82
433.753	4.72
433.958	4.61
434.162	4.72
434.367	4.79
434.572	4.85
434.776	4.81
434.981	4.76
435.186	4.85
435.39	4.9
435.595	4.85
435.799	4.75
436.004	4.72
436.209	4.74
436.413	4.66
436.618	4.56
436.822	4.52
437.027	4.48
437.231	4.48
437.436	4.33
437.64	4.2
437.845	4.17
438.049	4.13
438.253	4.2
438.458	4.17
438.662	4.18
438.867	4.29
439.071	4.29
439.275	4.33
439.48	4.4
439.684	4.41
439.888	4.43
440.093	4.42
440.297	4.44
440.501	4.51
440.706	4.48
440.91	4.5
441.114	4.46
441.318	4.42
441.523	4.5
441.727	4.51
441.931	4.6
442.135	4.58
442.339	4.57
442.543	4.64
442.748	4.45
442.952	4.49
443.156	4.49
443.36	4.53
443.564	4.5
443.768	4.39
443.972	4.33
444.176	4.26
444.38	4.31
444.584	4.27
444.788	4.22
444.992	4.3
445.196	4.26
445.4	4.22
445.604	4.15
445.808	4.18
446.012	4.2
446.216	4.15
446.42	4.14
446.624	4.16
446.828	4.23
447.032	4.24
447.235	4.28
447.439	4.3
447.643	4.33
447.847	4.37
448.051	4.32
448.254	4.33
448.458	4.46
448.662	4.52
448.866	4.52
449.069	4.56
449.273	4.51
449.477	4.51
449.681	4.5
449.884	4.52
450.088	4.44
450.292	4.44
450.495	4.5
450.699	4.35
450.902	4.32
451.106	4.28
451.31	4.22
451.513	4.28
451.717	4.19
451.92	4.28
452.124	4.29
452.327	4.39
452.531	4.33
452.734	4.24
452.938	4.25
453.141	4.23
453.345	4.19
453.548	4.26
453.752	4.25
453.955	4.31
454.158	4.3
454.362	4.32
454.565	4.27
454.769	4.36
454.972	4.36
455.175	4.51
455.379	4.5
455.582	4.48
455.785	4.41
455.988	4.41
456.192	4.33
456.395	4.25
456.598	4.19
456.801	4.17
457.005	4.32
457.208	4.39
457.411	4.29
457.614	4.23
457.817	4.33
458.021	4.29
458.224	4.29
458.427	4.3
458.63	4.34
458.833	4.36
459.036	4.42
459.239	4.28
459.442	4.24
459.645	4.25
459.848	4.31
460.051	4.3
460.254	4.4
460.457	4.44
460.66	4.42
460.863	4.38
461.066	4.41
461.269	4.36
461.472	4.39
461.675	4.37
461.878	4.37
462.081	4.36
462.284	4.38
462.486	4.25
462.689	4.2
462.892	4.29
463.095	4.33
463.298	4.2
463.5	4.19
463.703	4.24
463.906	4.33
464.109	4.27
464.311	4.28
464.514	4.21
464.717	4.39
464.92	4.35
465.122	4.38
465.325	4.24
465.528	4.38
465.73	4.35
465.933	4.42
466.135	4.27
466.338	4.28
466.541	4.23
466.743	4.26
466.946	4.17
467.148	4.21
467.351	4.18
467.553	4.3
467.756	4.19
467.958	4.27
468.161	4.17
468.363	4.27
468.566	4.33
468.768	4.39
468.971	4.3
469.173	4.16
469.375	4.08
469.578	3.96
469.78	3.99
469.983	4.01
470.185	3.96
470.387	4.07
470.59	4.06
470.792	4.17
470.994	4.15
471.196	4.2
471.399	4.37
471.601	4.47
471.803	4.58
472.005	4.61
472.208	4.54
472.41	4.55
472.612	4.48
472.814	4.39
473.016	4.23
473.218	4.28
473.421	4.24
473.623	4.23
473.825	4.14
474.027	4.1
474.229	4.09
474.431	4.08
474.633	4.06
474.835	3.97
475.037	4.15
475.239	4.15
475.441	4.1
475.643	4.07
475.845	4.09
476.047	4.17
476.249	4.12
476.451	4.09
476.653	4.1
476.855	4.2
477.057	4.26
477.258	4.17
477.46	4.24
477.662	4.34
477.864	4.39
478.066	4.37
478.268	4.34
478.469	4.37
478.671	4.29
478.873	4.31
479.075	4.21
479.276	4.14
479.478	4.19
479.68	4.14
479.882	4.14
480.083	4.11
480.285	4.14
480.487	4.08
480.688	4.11
480.89	4.13
481.091	4.12
481.293	4.11
481.495	4.12
481.696	4.1
481.898	4.07
482.099	4.04
482.301	4.03
482.502	4.01
482.704	4.04
482.905	4.05
483.107	4.05
483.308	4.03
483.51	4.02
483.711	4.02
483.913	3.99
484.114	4.05
484.315	4.06
484.517	4.06
484.718	4.05
484.92	4.04
485.121	3.99
485.322	3.97
485.524	4.03
485.725	4.06
485.926	4.06
486.127	4.09
486.329	4.05
486.53	4.03
486.731	4.03
486.932	4.04
487.134	4.04
487.335	4.07
487.536	4.07
487.737	4.03
487.938	4.01
488.139	4.04
488.341	4.06
488.542	4.09
488.743	4.12
488.944	4.13
489.145	4.09
489.346	4.15
489.547	4.16
489.748	4.16
489.949	4.17
490.15	4.16
490.351	4.14
490.552	4.12
490.753	4.1
490.954	4.08
491.155	4.09
491.356	4.11
491.557	4.1
491.758	4.11
491.959	4.15
492.159	4.2
492.36	4.26
492.561	4.23
492.762	4.22
492.963	4.18
493.164	4.16
493.364	4.2
493.565	4.28
493.766	4.27
493.967	4.27
494.167	4.23
494.368	4.23
494.569	4.25
494.769	4.26
494.97	4.33
495.171	4.51
495.371	4.55
495.572	4.48
495.773	4.48
495.973	4.47
496.174	4.41
496.375	4.51
496.575	4.41
496.776	4.4
496.976	4.42
497.177	4.42
497.377	4.4
497.578	4.35
497.778	4.44
497.979	4.47
498.179	4.43
498.38	4.5
498.58	4.42
498.78	4.52
498.981	4.47
499.181	4.56
499.382	4.56
499.582	4.47
499.782	4.59
499.983	4.59
500.183	4.49
500.383	4.6
500.584	4.58
500.784	4.64
500.984	4.59
501.184	4.61
501.385	4.62
501.585	4.64
501.785	4.73
501.985	4.73
502.185	4.76
502.386	4.83
502.586	4.77
502.786	4.85
502.986	4.87
503.186	4.94
503.386	4.97
503.586	5.01
503.786	5
503.987	4.98
504.187	4.94
504.387	4.91
504.587	4.92
504.787	4.97
504.987	4.97
505.187	4.96
505.387	4.95
505.587	5
505.786	5.05
505.986	5.07
506.186	5.04
506.386	5.15
506.586	5.26
506.786	5.27
506.986	5.31
507.186	5.32
507.386	5.38
507.585	5.42
507.785	5.47
507.985	5.4
508.185	5.46
508.384	5.48
508.584	5.48
508.784	5.49
508.984	5.59
509.183	5.59
509.383	5.7
509.583	5.74
509.782	5.78
509.982	5.79
510.182	5.85
510.381	5.86
510.581	5.9
510.781	5.9
510.98	5.96
511.18	5.97
511.379	5.94
511.579	5.88
511.778	5.87
511.978	5.86
512.177	5.85
512.377	5.76
512.576	5.84
512.776	5.83
512.975	5.86
513.175	5.73
513.374	5.62
513.573	5.7
513.773	5.74
513.972	5.8
514.172	5.83
514.371	5.95
514.57	6.05
514.77	6.04
514.969	6.17
515.168	6.18
515.367	6.32
515.567	6.49
515.766	6.54
515.965	6.5
516.164	6.47
516.364	6.51
516.563	6.51
516.762	6.55
516.961	6.52
517.16	6.47
517.359	6.53
517.559	6.58
517.758	6.53
517.957	6.55
518.156	6.64
518.355	6.65
518.554	6.69
518.753	6.73
518.952	6.72
519.151	6.78
519.35	6.81
519.549	6.78
519.748	6.71
519.947	6.78
520.146	6.78
520.345	6.74
520.544	6.79
520.743	6.74
520.942	6.74
521.141	6.84
521.339	6.8
521.538	6.86
521.737	6.97
521.936	6.99
522.135	6.98
522.333	7.02
522.532	7.01
522.731	7.06
522.93	7.1
523.129	7.08
523.327	7
523.526	7.06
523.725	7.13
523.923	7.08
524.122	7.12
524.321	7.14
524.519	7.13
524.718	7.17
524.917	7.16
525.115	7.22
525.314	7.27
525.512	7.34
525.711	7.35
525.909	7.33
526.108	7.36
526.306	7.38
526.505	7.37
526.703	7.4
526.902	7.4
527.1	7.42
527.299	7.43
527.497	7.43
527.696	7.46
527.894	7.48
528.092	7.51
528.291	7.53
528.489	7.55
528.688	7.58
528.886	7.63
529.084	7.69
529.283	7.73
529.481	7.73
529.679	7.77
529.877	7.78
530.076	7.81
530.274	7.8
530.472	7.8
530.67	7.86
530.869	7.89
531.067	7.9
531.265	7.94
531.463	7.95
531.661	7.97
531.859	7.98
532.057	7.98
532.255	8.01
532.454	8.08
532.652	8.12
532.85	8.09
533.048	8.15
533.246	8.17
533.444	8.14
533.642	8.2
533.84	8.24
534.038	8.27
534.236	8.3
534.434	8.31
534.632	8.33
534.83	8.42
535.027	8.43
535.225	8.38
535.423	8.39
535.621	8.43
535.819	8.41
536.017	8.43
536.215	8.52
536.412	8.57
536.61	8.58
536.808	8.62
537.006	8.49
537.203	8.57
537.401	8.66
537.599	8.72
537.797	8.81
537.994	8.85
538.192	8.92
538.39	8.94
538.587	8.94
538.785	8.93
538.983	8.99
539.18	9.09
539.378	9.11
539.575	9.11
539.773	9.06
539.97	9.04
540.168	8.99
540.366	9.02
540.563	9.01
540.761	9.04
540.958	9.13
541.155	9.15
541.353	9.18
541.55	9.23
541.748	9.27
541.945	9.33
542.143	9.42
542.34	9.51
542.537	9.52
542.735	9.56
542.932	9.64
543.129	9.64
543.327	9.64
543.524	9.66
543.721	9.68
543.919	9.71
544.116	9.79
544.313	9.83
544.51	9.87
544.708	9.98
544.905	10.02
545.102	9.98
545.299	9.98
545.496	9.97
545.693	10.02
545.891	10.01
546.088	10.1
546.285	10.12
546.482	10.15
546.679	10.25
546.876	10.23
547.073	10.34
547.27	10.46
547.467	10.66
547.664	10.77
547.861	10.86
548.058	10.94
548.255	10.96
548.452	11.01
548.649	11.07
548.846	11.05
549.043	11.13
549.24	11.19
549.437	11.29
549.633	11.24
549.83	11.38
550.027	11.46
550.224	11.6
550.421	11.58
550.618	11.61
550.814	11.6
551.011	11.67
551.208	11.76
551.405	11.81
551.601	11.77
551.798	11.82
551.995	11.77
552.191	11.77
552.388	11.74
552.585	11.8
552.781	11.94
552.978	12.03
553.175	12.1
553.371	12.09
553.568	12.08
553.764	12.12
553.961	12.15
554.157	12.32
554.354	12.38
554.55	12.56
554.747	12.7
554.943	12.62
555.14	12.7
555.336	12.77
555.533	12.9
555.729	12.97
555.926	13.13
556.122	13.11
556.318	13.14
556.515	13.3
556.711	13.27
556.907	13.39
557.104	13.56
557.3	13.64
557.496	13.78
557.693	13.85
557.889	13.86
558.085	13.85
558.281	13.99
558.478	14.03
558.674	14
558.87	14.13
559.066	14.02
559.262	14.08
559.459	14.16
559.655	14.11
559.851	14.12
560.047	14.19
560.243	14.26
560.439	14.39
560.635	14.4
560.831	14.51
561.027	14.39
561.223	14.56
561.419	14.62
561.615	14.67
561.811	14.73
562.007	14.81
562.203	14.9
562.399	15.12
562.595	15.12
562.791	15.29
562.987	15.33
563.183	15.62
563.379	15.64
563.575	15.78
563.771	15.81
563.966	15.99
564.162	16.06
564.358	16.1
564.554	16.05
564.75	16.21
564.945	16.33
565.141	16.41
565.337	16.41
565.533	16.53
565.728	16.45
565.924	16.44
566.12	16.51
566.315	16.51
566.511	16.69
566.707	16.73
566.902	16.68
567.098	16.65
567.293	16.69
567.489	16.73
567.684	16.88
567.88	17.06
568.076	17.26
568.271	17.32
568.467	17.52
568.662	17.52
568.858	17.75
569.053	17.9
569.248	18.05
569.444	18.14
569.639	18.23
569.835	18.14
570.03	18.17
570.225	18.3
570.421	18.24
570.616	18.23
570.812	18.32
571.007	18.39
571.202	18.44
571.397	18.41
571.593	18.5
571.788	18.57
571.983	18.72
572.178	18.9
572.374	19
572.569	19.1
572.764	19.23
572.959	19.32
573.154	19.31
573.35	19.36
573.545	19.47
573.74	19.55
573.935	19.59
574.13	19.66
574.325	19.62
574.52	19.52
574.715	19.66
574.91	19.6
575.105	19.58
575.3	19.58
575.495	19.64
575.69	19.68
575.885	19.69
576.08	19.76
576.275	19.73
576.47	19.9
576.665	20.04
576.86	19.99
577.055	20.13
577.25	20.28
577.444	20.45
577.639	20.58
577.834	20.69
578.029	20.67
578.224	20.66
578.418	20.82
578.613	20.86
578.808	20.92
579.003	21.16
579.197	21.24
579.392	21.21
579.587	21.4
579.781	21.38
579.976	21.44
580.171	21.6
580.365	21.61
580.56	21.67
580.755	21.55
580.949	21.53
581.144	21.51
581.338	21.62
581.533	21.73
581.727	21.66
581.922	21.68
582.116	21.71
582.311	21.84
582.505	22.17
582.7	22.33
582.894	22.44
583.089	22.49
583.283	22.52
583.478	22.53
583.672	22.57
583.866	22.67
584.061	22.69
584.255	22.7
584.449	22.68
584.644	22.55
584.838	22.39
585.032	22.61
585.226	22.7
585.421	22.62
585.615	22.67
585.809	22.79
586.003	22.71
586.198	22.82
586.392	22.94
586.586	22.95
586.78	22.92
586.974	23.05
587.168	23.05
587.363	23.07
587.557	23.26
587.751	23.32
587.945	23.39
588.139	23.44
588.333	23.56
588.527	23.5
588.721	23.62
588.915	23.78
589.109	23.74
589.303	23.75
589.497	23.91
589.691	24
589.885	23.98
590.079	23.89
590.273	24.07
590.466	24.06
590.66	24.08
590.854	24.14
591.048	24.01
591.242	24.05
591.436	24.04
591.629	23.95
591.823	23.9
592.017	23.82
592.211	23.85
592.404	23.82
592.598	23.7
592.792	23.76
592.986	23.81
593.179	23.95
593.373	24.15
593.567	24.12
593.76	24.21
593.954	24.3
594.147	24.47
594.341	24.6
594.535	24.55
594.728	24.66
594.922	24.6
595.115	24.54
595.309	24.59
595.502	24.55
595.696	24.73
595.889	24.69
596.083	24.63
596.276	24.63
596.47	24.61
596.663	24.67
596.856	24.71
597.05	24.79
597.243	24.82
597.437	24.87
597.63	25.03
597.823	24.96
598.017	25.09
598.21	25.2
598.403	25.27
598.596	25.3
598.79	25.22
598.983	25.35
599.176	25.51
599.369	25.6
599.563	25.57
599.756	25.39
599.949	25.39
600.142	25.29
600.335	25.3
600.528	25.36
600.722	25.55
600.915	25.9
601.108	25.78
601.301	25.8
601.494	25.75
601.687	25.89
601.88	25.94
602.073	26
602.266	25.98
602.459	26.02
602.652	26.02
602.845	25.87
603.038	25.74
603.231	25.78
603.424	25.87
603.617	25.86
603.809	25.79
604.002	25.77
604.195	25.76
604.388	25.89
604.581	25.81
604.774	25.88
604.966	25.84
605.159	25.81
605.352	25.91
605.545	25.77
605.737	25.83
605.93	25.85
606.123	26.03
606.316	26.12
606.508	26.13
606.701	26.28
606.894	26.22
607.086	26.51
607.279	26.65
607.471	26.65
607.664	26.73
607.857	26.68
608.049	26.73
608.242	26.63
608.434	26.63
608.627	26.66
608.819	26.53
609.012	26.48
609.204	26.39
609.397	26.39
609.589	26.24
609.782	26.35
609.974	26.48
610.166	26.49
610.359	26.55
610.551	26.62
610.743	26.53
610.936	26.87
611.128	27.05
611.32	27.13
611.513	27.1
611.705	27.11
611.897	27.11
612.09	27.16
612.282	27.11
612.474	26.99
612.666	26.85
612.858	27.06
613.051	26.8
613.243	26.56
613.435	26.53
613.627	26.51
613.819	26.76
614.011	26.8
614.203	26.81
614.395	26.88
614.588	26.85
614.78	27.01
614.972	26.85
615.164	26.92
615.356	26.99
615.548	26.84
615.74	26.83
615.932	26.71
616.124	26.38
616.315	26.33
616.507	26.44
616.699	26.68
616.891	26.66
617.083	26.74
617.275	26.73
617.467	26.93
617.659	27.11
617.85	27.21
618.042	27.3
618.234	27.45
618.426	27.53
618.618	27.47
618.809	27.56
619.001	27.41
619.193	27.5
619.384	27.69
619.576	27.59
619.768	27.68
619.959	27.95
620.151	28.07
620.343	28.07
620.534	27.84
620.726	27.74
620.917	27.78
621.109	28
621.301	28.05
621.492	28.06
621.684	28.12
621.875	27.9
622.067	27.74
622.258	27.7
622.45	27.92
622.641	28.22
622.832	28.32
623.024	28.11
623.215	28.07
623.407	27.82
623.598	27.76
623.789	27.8
623.981	28
624.172	27.97
624.363	27.87
624.555	27.75
624.746	27.53
624.937	27.5
625.129	27.52
625.32	27.51
625.511	27.68
625.702	27.62
625.893	27.55
626.085	27.48
626.276	27.45
626.467	27.59
626.658	27.54
626.849	27.65
627.04	27.8
627.231	27.82
627.422	27.94
627.614	27.94
627.805	28.07
627.996	28.22
628.187	28.3
628.378	28.29
628.569	28.21
628.76	28.39
628.951	28.47
629.142	28.36
629.332	28.4
629.523	28.3
629.714	28.35
629.905	28.4
630.096	28.28
630.287	28.35
630.478	28.41
630.669	28.48
630.859	28.49
631.05	28.48
631.241	28.39
631.432	28.59
631.623	28.81
631.813	28.75
632.004	28.65
632.195	28.66
632.385	28.63
632.576	28.6
632.767	28.55
632.957	28.52
633.148	28.72
633.339	28.7
633.529	28.62
633.72	28.41
633.91	28.38
634.101	28.4
634.292	28.38
634.482	28.24
634.673	28.23
634.863	28.3
635.054	28.27
635.244	28.09
635.435	28.19
635.625	28.03
635.815	28.22
636.006	28.31
636.196	28.22
636.387	28.33
636.577	28.5
636.767	28.56
636.958	28.52
637.148	28.58
637.338	28.53
637.529	28.67
637.719	28.79
637.909	28.72
638.099	28.74
638.29	28.85
638.48	28.78
638.67	28.71
638.86	28.76
639.05	28.85
639.241	28.8
639.431	29.02
639.621	29.04
639.811	29.08
640.001	29.15
640.191	29.12
640.381	29.2
640.571	29.14
640.761	29.14
640.951	29.05
641.141	29.15
641.331	29.35
641.521	29.26
641.711	29.39
641.901	29.25
642.091	29.17
642.281	29.31
642.471	29.15
642.661	29.42
642.851	29.63
643.041	29.75
643.231	29.83
643.42	29.67
643.61	29.85
643.8	29.66
643.99	29.85
644.18	29.72
644.369	29.4
644.559	29.65
644.749	29.57
644.939	29.6
645.128	29.57
645.318	29.55
645.508	29.58
645.697	29.35
645.887	29.55
646.076	29.66
646.266	29.73
646.456	29.97
646.645	29.93
646.835	30.08
647.024	29.85
647.214	29.79
647.403	29.71
647.593	29.71
647.782	29.93
647.972	29.73
648.161	29.52
648.351	29.68
648.54	29.89
648.73	29.98
648.919	29.82
649.108	30.07
649.298	30.21
649.487	30.17
649.677	30.06
649.866	29.86
650.055	29.91
650.244	30.05
650.434	29.95
650.623	29.93
650.812	29.85
651.002	30
651.191	29.81
651.38	29.85
651.569	29.92
651.758	30.15
651.947	30.09
652.137	30.12
652.326	29.99
652.515	30
652.704	30
652.893	29.95
653.082	29.8
653.271	29.92
653.46	29.53
653.649	29.57
653.838	29.33
654.027	29.46
654.216	29.34
654.405	29.35
654.594	29.34
654.783	29.27
654.972	29.13
655.161	29.21
655.35	29.05
655.539	29.26
655.728	29.21
655.916	29.54
656.105	29.49
656.294	29.69
656.483	29.94
656.672	29.87
656.86	29.64
657.049	29.93
657.238	30.02
657.427	30.24
657.615	30.3
657.804	30.27
657.993	30.12
658.181	30.13
658.37	30.18
658.559	30.27
658.747	30.48
658.936	30.62
659.125	30.4
659.313	30.38
659.502	30.3
659.69	30.35
659.879	30.4
660.067	30.45
660.256	30.53
660.444	30.47
660.633	30.09
660.821	30.03
661.01	30.31
661.198	30.4
661.387	30.35
661.575	30.35
661.763	30.53
661.952	30.42
662.14	30.52
662.328	30.4
662.517	30.44
662.705	30.9
662.893	30.97
663.082	30.64
663.27	30.73
663.458	30.79
663.646	30.86
663.834	30.59
664.023	30.72
664.211	30.85
664.399	30.67
664.587	30.47
664.775	30.36
664.963	30.12
665.152	30.1
665.34	30.31
665.528	30.17
665.716	30.15
665.904	30.41
666.092	30.34
666.28	29.73
666.468	30.03
666.656	30.32
666.844	30.19
667.032	30.42
667.22	30.38
667.408	30.52
667.596	30.62
667.784	30.66
667.971	30.39
668.159	30.42
668.347	30.83
668.535	30.93
668.723	30.82
668.911	30.81
669.098	30.78
669.286	30.83
669.474	30.48
669.662	30.7
669.849	30.76
670.037	30.89
670.225	31.18
670.413	31.23
670.6	31.09
670.788	31.33
670.976	31.28
671.163	31.38
671.351	31.36
671.538	31.45
671.726	31.29
671.913	31.22
672.101	31.19
672.289	30.92
672.476	30.88
672.664	30.94
672.851	30.89
673.039	31
673.226	30.81
673.413	30.91
673.601	30.88
673.788	30.82
673.976	31
674.163	31.19
674.35	31.24
674.538	31.3
674.725	31.4
674.912	31.06
675.1	31.16
675.287	31.21
675.474	31.2
675.662	31.25
675.849	31.05
676.036	30.88
676.223	30.69
676.411	30.73
676.598	30.71
676.785	30.84
676.972	31.09
677.159	31.02
677.346	30.94
677.533	31.22
677.721	31
677.908	31.07
678.095	31.2
678.282	31.27
678.469	31.3
678.656	31.29
678.843	31.34
679.03	31.06
679.217	31.14
679.404	31.26
679.591	31.11
679.778	31.29
679.964	31.52
680.151	31.37
680.338	31.37
680.525	31.17
680.712	31.06
680.899	31.05
681.086	31.27
681.272	31.29
681.459	31.35
681.646	31.41
681.833	31.46
682.02	31.4
682.206	31.58
682.393	31.81
682.58	31.87
682.766	31.9
682.953	31.76
683.14	31.44
683.326	31.6
683.513	31.74
683.7	31.8
683.886	31.29
684.073	31.16
684.259	30.96
684.446	30.91
684.632	30.88
684.819	30.79
685.005	30.67
685.192	31.02
685.378	30.82
685.565	30.82
685.751	30.43
685.938	30.86
686.124	30.88
686.31	30.89
686.497	31
686.683	31.43
686.87	31.67
687.056	31.84
687.242	31.55
687.429	31.34
687.615	31.33
687.801	31.62
687.987	31.84
688.174	31.87
688.36	32.04
688.546	31.66
688.732	31.3
688.918	31.26
689.105	31.32
689.291	31.64
689.477	31.76
689.663	31.55
689.849	31.68
690.035	31.55
690.221	31.9
690.407	32.08
690.593	32.14
690.779	32.27
690.965	32.28
691.151	32.02
691.337	31.94
691.523	32.06
691.709	32.17
691.895	32.08
692.081	32.04
692.267	32
692.453	31.58
692.639	31.59
692.825	31.52
693.011	31.62
693.196	31.82
693.382	32.08
693.568	31.98
693.754	31.97
693.94	31.83
694.125	31.76
694.311	31.74
694.497	32.06
694.682	32.14
694.868	32.16
695.054	32.13
695.239	32.14
695.425	31.98
695.611	32.08
695.796	31.95
695.982	31.87
696.168	32.11
696.353	31.91
696.539	31.78
696.724	32.02
696.91	32.16
697.095	32.35
697.281	32.46
697.466	32.36
697.652	32.34
697.837	32.55
698.023	32.67
698.208	32.53
698.393	32.61
698.579	32.61
698.764	32.43
698.949	32.25
699.135	31.93
699.32	31.97
699.505	31.88
699.691	31.82
699.876	31.52
700.061	31.32
700.246	31.27
700.432	31.04
700.617	30.92
700.802	30.79
700.987	30.73
701.172	31.24
701.358	30.92
701.543	31.25
701.728	31.67
701.913	31.78
702.098	31.99
702.283	32.42
702.468	32.83
702.653	33.26
702.838	33.79
703.023	33.84
703.208	33.59
703.393	33.9
703.578	33.86
703.763	33.46
703.948	33.46
704.133	33.74
704.318	33.37
704.503	33.22
704.688	33.27
704.873	32.91
705.057	32.94
705.242	32.57
705.427	32.51
705.612	32.57
705.797	32.48
705.981	32.51
706.166	32.43
706.351	32.42
706.536	32.46
706.72	32.14
706.905	32.09
707.09	32.45
707.274	32.5
707.459	32.43
707.644	32.54
707.828	32.69
708.013	32.88
708.197	32.72
708.382	33
708.567	32.76
708.751	32.44
708.936	32.25
709.12	32.12
709.305	32.19
709.489	32.2
709.673	32.12
709.858	32.14
710.042	32.22
710.227	32.43
710.411	32.33
710.596	32.42
710.78	32.96
710.964	32.92
711.149	32.96
711.333	33.21
711.517	33.41
711.702	33.25
711.886	33.11
712.07	32.94
712.254	32.62
712.438	32.45
712.623	32.53
712.807	32.55
712.991	32.85
713.175	32.91
713.359	32.58
713.544	32.39
713.728	32.55
713.912	32.53
714.096	32.49
714.28	32.99
714.464	33.03
714.648	32.92
714.832	32.61
715.016	32.65
715.2	32.47
715.384	32.72
715.568	32.72
715.752	32.54
715.936	32.56
716.12	32.8
716.304	32.68
716.488	32.5
716.671	32.5
716.855	32.47
717.039	32.46
717.223	32.23
717.407	32.3
717.59	32.24
717.774	32.47
717.958	32.44
718.142	32.08
718.325	31.95
718.509	31.85
718.693	32.13
718.877	32.3
719.06	32.58
719.244	32.95
719.428	32.55
719.611	32.63
719.795	32.2
719.978	32.04
720.162	32.28
720.345	32.43
720.529	32.7
720.713	32.67
720.896	33.02
721.08	32.59
721.263	33.02
721.446	33.49
721.63	33.35
721.813	33.54
721.997	33.68
722.18	33.62
722.364	33.72
722.547	33.7
722.73	33.25
722.914	32.74
723.097	32.59
723.28	32.17
723.464	32.05
723.647	32.05
723.83	32.26
724.013	32.72
724.197	32.96
724.38	33.05
724.563	32.92
724.746	33.37
724.929	33.83
725.112	34.37
725.296	34.27
725.479	34.35
725.662	34.39
725.845	34.62
726.028	34.33
726.211	34.32
726.394	33.89
726.577	34.01
726.76	34.15
726.943	33.79
727.126	33.63
727.309	33.45
727.492	33.52
727.675	33.59
727.858	33.55
728.041	33.74
728.224	33.67
728.407	33.93
728.589	34.04
728.772	33.79
728.955	33.91
729.138	33.56
729.321	33.42
729.503	33.41
729.686	33.35
729.869	33.09
730.052	33.23
730.234	33.31
730.417	33.02
730.6	33.46
730.782	33.52
730.965	33.44
731.148	33.71
731.33	33.71
731.513	34.02
731.695	33.67
731.878	33.35
732.061	32.98
732.243	33.01
732.426	33.1
732.608	32.99
732.791	32.92
732.973	33.07
733.156	33.08
733.338	33.43
733.52	32.98
733.703	33.49
733.885	34.11
734.068	34.17
734.25	34.01
734.432	33.58
734.615	32.99
734.797	32.88
734.979	32.56
735.162	32.67
735.344	32.53
735.526	32.34
735.708	32.11
735.891	31.66
736.073	31.74
736.255	31.13
736.437	31.61
736.619	31.72
736.802	31.93
736.984	32.17
737.166	32.46
737.348	32.52
737.53	32.73
737.712	32.64
737.894	32.96
738.076	33.37
738.258	33.8
738.44	33.4
738.622	33.42
738.804	33.38
738.986	33.27
739.168	32.77
739.35	32.71
739.532	32.6
739.714	33.15
739.896	32.99
740.078	32.42
740.259	32.18
740.441	32.92
740.623	33.34
740.805	33.31
740.987	33.87
741.168	34.22
741.35	34.48
741.532	35.04
741.714	34.5
741.895	34.26
742.077	34.68
742.259	34.83
742.44	34.6
742.622	34.65
742.804	34.56
742.985	34.32
743.167	34.36
743.348	34.4
743.53	33.91
743.711	34.12
743.893	34.26
744.075	34.03
744.256	34.23
744.438	34.39
744.619	34.16
744.8	34.06
744.982	34.04
745.163	34.03
745.345	33.75
745.526	33.84
745.707	34.23
745.889	34.13
746.07	33.97
746.252	34.32
746.433	34.06
746.614	33.95
746.795	34.3
746.977	34.05
747.158	34
747.339	34.38
747.52	34.37
747.702	33.7
747.883	34
748.064	34.64
748.245	34.03
748.426	34.19
748.607	34.52
748.788	34.36
748.97	34.52
749.151	34.14
749.332	33.88
749.513	34.36
749.694	34.48
749.875	34.62
750.056	34.12
750.237	34
750.418	33.95
750.599	33.56
750.78	33.63
750.96	33.72
751.141	33.94
751.322	34.69
751.503	34.13
751.684	34.42
751.865	33.94
752.046	33.98
752.226	34.75
752.407	34.54
752.588	33.87
752.769	34.46
752.949	34.01
753.13	34.34
753.311	32.87
753.492	32.62
753.672	32.35
753.853	32.68
754.034	32.28
754.214	31.9
754.395	31.68
754.575	32.21
754.756	31.93
754.937	32.17
755.117	31.83
755.298	33.01
755.478	32.92
755.659	32.5
755.839	32.25
756.02	32.64
756.2	32.34
756.381	32.3
756.561	32.35
756.741	32.41
756.922	32.25
757.102	31.99
757.283	31.88
757.463	32.34
757.643	33.24
757.823	33.39
758.004	33.7
758.184	33.65
758.364	34.11
758.545	34.21
758.725	33.75
758.905	33.59
759.085	34.07
759.265	34.16
759.446	33.92
759.626	33.77
759.806	33.86
759.986	33.8
760.166	34.28
760.346	34.43
760.526	34.63
760.706	34.69
760.886	35.01
761.066	34.67
761.246	34.81
761.426	35.35
761.606	34.93
761.786	34.57
761.966	34.43
762.146	33.94
762.326	33.94
762.506	33.57
762.686	33.58
762.866	33.6
763.046	33.7
763.225	33.78
763.405	33.59
763.585	33.66
763.765	33.65
763.945	33.4
764.124	33.96
764.304	33.65
764.484	33.66
764.664	33.81
764.843	34.18
765.023	34.32
765.203	33.97
765.382	33.89
765.562	34.08
765.741	34.24
765.921	34.92
766.101	34.28
766.28	34.27
766.46	34.67
766.639	34.26
766.819	33.53
766.998	33.58
767.178	33.53
767.357	33.36
767.537	33.34
767.716	33.57
767.896	32.9
768.075	32.77
768.254	33.15
768.434	33.78
768.613	34.4
768.792	34.65
768.972	34.6
769.151	34.52
769.33	34.72
769.51	35.06
769.689	35
769.868	35.09
770.047	35.13
770.226	35.29
770.406	34.14
770.585	33.65
770.764	33.05
770.943	32.42
771.122	32.13
771.301	32.53
771.48	32.82
771.66	32.4
771.839	32.01
772.018	32.75
772.197	31.93
772.376	32.59
772.555	32.92
772.734	33.56
772.913	33.9
773.092	33.73
773.271	33.2
773.449	32.77
773.628	33.02
773.807	33.36
773.986	33.19
774.165	33.58
774.344	33.85
774.523	33.75
774.701	33.28
774.88	33.84
775.059	34.35
775.238	34.19
775.417	33.65
775.595	34.02
775.774	34.28
775.953	34.24
776.131	34.3
776.31	33.84
776.489	33.68
776.667	33.71
776.846	33.31
777.025	33.32
777.203	32.75
777.382	33.1
777.56	32.64
777.739	32.23
777.917	32.25
778.096	33.05
778.274	32.99
778.453	32.72
778.631	33.99
778.81	34.44
778.988	34.67
779.166	35.69
779.345	36.03
779.523	35.94
779.702	35.88
779.88	36.02
780.058	35.01
780.237	34.87
780.415	35.46
780.593	34.82
780.771	33.92
780.95	33.93
781.128	33.11
781.306	32.62
781.484	34.22
781.662	34.62
781.841	34.5
782.019	35.06
782.197	35.89
782.375	34.7
782.553	34.01
782.731	34.17
782.909	33.16
783.087	34.3
783.265	35.25
783.443	32.37
783.621	32.57
783.799	31.8
783.977	31.04
784.155	31.05
784.333	31.86
784.511	32.36
784.689	32.12
784.867	32.86
785.045	32.27
785.223	32.17
785.4	32.88
785.578	32.68
785.756	34.31
785.934	35.32
786.112	34.54
786.289	34.75
786.467	34.55
786.645	34.56
786.823	34.65
787	34.56
787.178	33.92
787.356	34.56
787.533	33.62
787.711	32.34
787.889	30.7
788.066	30.88
788.244	31.07
788.421	31.77
788.599	32.47
788.776	32.34
788.954	33.14
789.131	33.6
789.309	33.99
789.486	35.1
789.664	35.54
789.841	37.17
790.019	36.86
790.196	36.4
790.373	36.58
790.551	36.69
790.728	36.42
790.906	35.8
791.083	36.08
791.26	36.05
791.437	35.89
791.615	35.61
791.792	35.34
791.969	35.29
792.146	35.39
792.324	34.17
792.501	33.4
792.678	33.56
792.855	32.53
793.032	31.68
793.209	32.06
793.387	32
793.564	32.78
793.741	32.74
793.918	32.59
794.095	33.33
794.272	34.12
794.449	34.22
794.626	34.2
794.803	34.91
794.98	35.57
795.157	34.6
795.334	34.49
795.511	34.14
795.688	33.92
795.864	34.71
796.041	33.67
796.218	33.3
796.395	32.52
796.572	32.06
796.749	31.22
796.925	30.92
797.102	31.89
797.279	32.26
797.456	32.96
797.632	32.81
797.809	32.13
797.986	33.45
798.162	33.78
798.339	34.31
798.516	34.68
798.692	35.57
798.869	35.05
799.046	35.01
799.222	35.18
799.399	34.1
799.575	34.99
799.752	35.94
799.928	35.4
800.105	34.49
800.281	34.23
800.458	35.06
800.634	35.23
800.811	35.45
800.987	34.64
801.163	33.73
801.34	33.83
801.516	32.96
801.692	31.98
801.869	31.96
802.045	33.32
802.221	34.03
802.398	34.7
802.574	33.97
802.75	33.54
802.926	34.86
803.103	36.07
803.279	35.5
803.455	35.6
803.631	35.95
803.807	36.04
803.983	35.61
804.16	35.61
804.336	34.28
804.512	34.38
804.688	34.8
804.864	33.6
805.04	33.69
805.216	35.06
805.392	35.1
805.568	35.66
805.744	35.01
805.92	34.72
806.096	34.65
806.272	34.53
806.448	34.27
806.623	34.88
806.799	35.71
806.975	35.33
807.151	35.02
807.327	33.96
807.503	33.41
807.678	33.77
807.854	34.54
808.03	34.9
808.206	35.83
808.381	36.18
808.557	36.34
808.733	35.5
808.908	34.41
809.084	34.98
809.26	36.6
809.435	37.07
809.611	38.72
809.787	38.11
809.962	37.25
810.138	36.92
810.313	37
810.489	35.78
810.664	36.01
810.84	36.87
811.015	36.23
811.191	35.29
811.366	35.92
811.542	33.63
811.717	34.32
811.892	36.29
812.068	36.77
812.243	36.27
812.419	36.91
812.594	36.7
812.769	36.02
812.944	35.89
813.12	35.67
813.295	35.52
813.47	37.67
813.645	36.55
813.821	35.64
813.996	35.01
814.171	36.31
814.346	35.78
814.521	36.98
814.697	37.57
814.872	38.66
815.047	39.96
815.222	39.59
815.397	38.65
815.572	39.94
815.747	39.98
815.922	39.73
816.097	39.77
816.272	39.33
816.447	38.99
816.622	40.25
816.797	39.91
816.972	39.08
817.147	39.1
817.322	39.47
817.496	38.09
817.671	38.2
817.846	37.58
818.021	36.56
818.196	37.01
818.371	36.44
818.545	35.82
818.72	35.26
818.895	35.07
819.069	34.69
819.244	35.04
819.419	34.28
819.594	33
819.768	33.84
819.943	34.57
820.117	33.71
820.292	34.46
820.467	33.94
820.641	33.9
820.816	33.57
820.99	33.29
821.165	32.66
821.339	33.05
821.514	33.07
821.688	32.75
821.863	32.46
822.037	32.74
822.212	32.64
822.386	32.73
822.56	32.5
822.735	32.65
822.909	32.52
823.084	32.63
823.258	32.55
823.432	32.65
823.606	32.77
823.781	32.68
823.955	32.77
824.129	32.34
824.303	32.52
824.478	32.9
824.652	32.5
824.826	32.5
825	32.55
825.174	32.34
825.348	32.2
825.523	32
825.697	32.35
825.871	31.88
826.045	32.23
826.219	32.17
826.393	31.8
826.567	32.41
826.741	32.78
826.915	32.33
827.089	32.6
827.263	33.01
827.437	33.45
827.611	33.53
827.784	33.71
827.958	33.63
828.132	32.94
828.306	33.47
828.48	33.07
828.654	32.92
828.827	33.08
829.001	33.58
829.175	33.94
829.349	34.24
829.522	34.44
829.696	35.32
829.87	35.09
830.044	35.86
830.217	35.46
830.391	36.96
830.565	37.91
830.738	38.53
830.912	37.79
831.085	36.48
831.259	36.09
831.432	35.55
831.606	34.9
831.779	35.21
831.953	34.6
832.126	34.78
832.3	34.22
832.473	33.61
832.647	33.62
832.82	33.72
832.994	33.79
833.167	33.58
833.34	33.48
833.514	33.65
833.687	33.63
833.86	34.02
834.034	33.49
834.207	33.99
834.38	34.27
834.553	34.69
834.727	35.34
834.9	35.19
835.073	35.62
835.246	36.36
835.419	36.49
835.593	36.51
835.766	36.62
835.939	37.4
836.112	36.28
836.285	35.55
836.458	34.72
836.631	33.58
836.804	33.79
836.977	32.64
837.15	31.46
837.323	30.47
837.496	29.99
837.669	30.33
837.842	29.74
838.015	30.48
838.188	29.78
838.361	30.23
838.533	30.22
838.706	31.67
838.879	31.6
839.052	31.99
839.225	33.27
839.398	33.7
839.57	33.37
839.743	33.37
839.916	32.25
840.088	32.54
840.261	32.43
840.434	33.58
840.607	31.92
840.779	32.86
840.952	31.45
841.124	30.22
841.297	31.31
841.47	30.93
841.642	32.28
841.815	34.78
841.987	35.71
842.16	37.39
842.332	38.19
842.505	40.86
842.677	43.14
842.85	44.44
843.022	45.59
843.194	45.27
843.367	43.95
843.539	40.82
843.712	38.32
843.884	37.15
844.056	34.99
844.229	30.88
844.401	28.11
844.573	22.79
844.745	22.99
844.918	25.09
845.09	26.82
845.262	28.26
845.434	28
845.606	29.09
845.779	33.76
845.951	35.14
846.123	37.28
846.295	39.58
846.467	43.75
846.639	45.15
846.811	45.32
846.983	42.45
847.155	43.23
847.327	45.51
847.499	43.52
847.671	42.55
847.843	41.91
848.015	46.04
848.187	46.78
848.359	48.12
848.531	50.2
848.703	47.95
848.875	51.2
849.047	52.21
849.218	51.06
849.39	52.44
849.562	49.61
849.734	50.02
849.905	45.29
850.077	46.4
850.249	44.01
850.421	45.14
850.592	46.66
850.764	44.92
850.936	41.8
851.107	44.42
851.279	46.13
851.451	51.46
851.622	51.14
851.794	51.68
851.965	50.8
852.137	49.98
852.308	46.25
852.48	48.27
852.651	44.87
852.823	47.08
852.994	46.38
853.166	42.6
853.337	39.72
853.509	38.92
853.68	37.23
853.851	35.75
854.023	39.21
854.194	38.96
854.365	37.99
854.537	43.26
854.708	48.5
854.879	45.83
855.05	50.18
855.222	45.9
855.393	49.12
855.564	47.6
855.735	44.17
855.906	41.75
856.078	43.97
856.249	40.23
856.42	38.68
856.591	36.94
856.762	37.51
856.933	34.71
857.104	37.4
857.275	37.22
857.446	39.49
857.617	42.38
857.788	42.76
857.959	40.53
858.13	43.04
858.301	46.07
858.472	45.45
858.643	48.81
858.814	50.63
858.985	51.52
859.155	53.28
859.326	57.46
859.497	57.89
859.668	60.9
859.839	63.99
860.009	63.63
860.18	56
860.351	53.1
860.522	49.09
860.692	51.45
860.863	55
861.034	54.45
861.204	53.41
861.375	54.39
861.546	53.92
861.716	53.15
861.887	55.3
862.057	59.16
862.228	62.66
862.398	66.09
862.569	64.95
862.739	65.18
862.91	60.22
863.08	56.01
863.251	50.68
863.421	46.01
863.592	45.2
863.762	45.82
863.932	43.46
864.103	39.55
864.273	39.03
864.443	40.86
864.614	39.33
864.784	41.77
864.954	42.19
865.125	42.44
865.295	46.53
865.465	50.69
865.635	48.65
865.805	46.3
865.976	48.58
866.146	44.77
866.316	41.65
866.486	39.86
866.656	37.43
866.826	36.47
866.996	40.63
867.166	36.38
867.336	32.03
867.506	32.24
867.676	37.18
867.846	34.13
868.016	36.11
868.186	39.97
868.356	39.89
868.526	37.76
868.696	38.08
868.866	37.15
869.036	40.07
869.206	35.98
869.376	33.05
869.545	27.97
869.715	27.28
869.885	27.56
870.055	23.81
870.224	31.81
870.394	36.7
870.564	37.88
870.734	40.71
870.903	40.05
871.073	44.58
871.243	44.36
871.412	49.4
871.582	50.83
871.751	56.29
871.921	58.64
872.091	53.68
872.26	52.89
872.43	54.2
872.599	52.57
872.769	54.1
872.938	51.5
873.108	55.21
873.277	53.14
873.446	51.9
873.616	47.28
873.785	46.73
873.955	45.03
874.124	44.33
874.293	45.07
874.463	44.93
874.632	45.97
874.801	47.7
874.971	51.33
875.14	51.08
875.309	52.43
875.478	50.59
875.647	50.17
875.817	47.88
875.986	49.88
876.155	48.93
876.324	50.96
876.493	52.35
876.662	53.42
876.831	48.67
877	49.34
877.17	53.81
877.339	51.94
877.508	53.74
877.677	56.52
877.846	53.73
878.015	53.45
878.184	51.45
878.352	49.1
878.521	48.12
878.69	51.76
878.859	51.4
879.028	47.64
879.197	50.43
879.366	47.06
879.534	46.29
879.703	44.77
879.872	41.08
880.041	40.05
880.21	36.58
880.378	35.48
880.547	33.74
880.716	32.76
880.884	31.9
881.053	31.51
881.222	31.98
881.39	31.19
881.559	30.72
881.727	31.65
881.896	31.06
882.065	31.35
882.233	31.12
882.402	30.92
882.57	30.94
882.739	31.57
882.907	31.55
883.076	31.23
883.244	31.8
883.412	32.58
883.581	32.79
883.749	33.21
883.918	33.73
884.086	34.37
884.254	34.66
884.423	36.52
884.591	36.76
884.759	37.14
884.927	38.03
885.096	38.59
885.264	39.5
885.432	39.28
885.6	40.06
885.769	40.22
885.937	39.82
886.105	40.33
886.273	39.51
886.441	39.15
886.609	39
886.777	40.05
886.945	40.75
887.113	41.06
887.281	40.59
887.449	38.85
887.617	38.67
887.785	43.56
887.953	48.42
888.121	47.49
888.289	50.41
888.457	52.33
888.625	54.42
888.793	54.29
888.961	51.67
889.129	55.49
889.296	59.18
889.464	64.04
889.632	62.32
889.8	56.52
889.967	57.8
890.135	54.81
