Data from 2938537_Reflection_1.txt Node
Date: Mon Jun 15 23:44:41 EDT 2015
User: robert
Spectrometer: USB4E03002
Autoset integration time: false
Trigger mode: 4
Integration Time (sec): 1.000000E-1
Scans to average: 10
Electric dark correction enabled: true
Nonlinearity correction enabled: false
Boxcar width: 6
Stray light correction enabled: false
XAxis mode: Wavelengths
Stop averaging: false
Number of Pixels in Spectrum: 3648
>>>>>Begin Spectral Data<<<<<
177.575	22.89
177.794	99.3
178.014	45.09
178.233	-44.31
178.452	221.43
178.672	457.49
178.891	-80
179.11	-54.84
179.33	-42.47
179.549	-81.5
179.768	-65.82
179.987	-166.83
180.207	-26.58
180.426	-65.44
180.645	-4.01
180.864	9.42
181.084	-19.69
181.303	3.91
181.522	-3.44
181.741	-11.29
181.96	-4.94
182.179	13.48
182.398	24.17
182.618	-9.31
182.837	18.03
183.056	-16.94
183.275	30.24
183.494	10.33
183.713	-39.95
183.932	-82.97
184.151	-203.88
184.37	-181.18
184.589	-138.92
184.808	-328.88
185.027	-546.92
185.246	-252.27
185.465	-172.51
185.684	-290.13
185.903	-323.7
186.122	-2408.51
186.341	5895
186.56	1506.17
186.779	2982.05
186.998	-536.62
187.216	3257.69
187.435	376.81
187.654	887.38
187.873	4466.67
188.092	864.84
188.311	744.44
188.53	4079.17
188.748	-4670
188.967	-735.45
189.186	-2373.17
189.405	-1054.55
189.623	1403.85
189.842	614.91
190.061	8100
190.28	-655.86
190.498	-1547.37
190.717	-1101.35
190.936	-5350
191.154	-1472.97
191.373	6455.56
191.592	2400
191.81	1705.41
192.029	883.87
192.248	1069.84
192.466	-2587.5
192.685	-342.47
192.904	-388.43
193.122	1359.18
193.341	1962.96
193.559	264.14
193.778	460.39
193.996	278.45
194.215	288.63
194.433	214.16
194.652	261.26
194.87	331.25
195.089	203.48
195.307	205.81
195.526	178.48
195.744	200.61
195.963	453.55
196.181	394.8
196.399	1887.88
196.618	372.52
196.836	-149.73
197.055	-80.09
197.273	-283.33
197.491	-68.22
197.71	-278.76
197.928	-77.1
198.146	-74.16
198.365	-59.8
198.583	-155.47
198.801	11850
199.019	749.47
199.238	1286.21
199.456	2790.63
199.674	530.96
199.892	644.87
200.111	3417.86
200.329	297.12
200.547	332.52
200.765	305.56
200.983	394.44
201.202	375.39
201.42	666.9
201.638	479.12
201.856	1195
202.074	447.83
202.292	355.87
202.51	261.61
202.728	259.61
202.946	182.91
203.165	187.1
203.383	183.52
203.601	168.48
203.819	108.63
204.037	104.05
204.255	85.31
204.473	126.35
204.691	97.55
204.909	90.52
205.127	24.19
205.345	28.57
205.562	20.43
205.78	1.29
205.998	9.97
206.216	-2.59
206.434	-0.25
206.652	-8.53
206.87	28.6
207.088	51.43
207.306	78.1
207.523	73.39
207.741	108.94
207.959	122.13
208.177	125.58
208.395	114.43
208.612	106.93
208.83	163.23
209.048	159.28
209.266	147.83
209.483	174.71
209.701	236.61
209.919	448.46
210.136	164.59
210.354	196.24
210.572	162.04
210.79	136.87
211.007	122.44
211.225	113.35
211.442	82.02
211.66	42.19
211.878	-62.23
212.095	-58.92
212.313	-92.56
212.53	-81.05
212.748	-102.67
212.966	-127.75
213.183	-134.45
213.401	-108.09
213.618	-73.42
213.836	-92.21
214.053	-67.52
214.271	-93.12
214.488	-159.85
214.705	62.41
214.923	49.49
215.14	63.97
215.358	54.77
215.575	65.15
215.793	58.33
216.01	37.26
216.227	43.15
216.445	34.57
216.662	42.62
216.879	25.99
217.097	23.5
217.314	39.07
217.531	45.44
217.749	57.82
217.966	48.13
218.183	40.61
218.4	36.2
218.618	18.53
218.835	3.61
219.052	1.93
219.269	-6.18
219.487	-0.98
219.704	22.25
219.921	14.96
220.138	12.05
220.355	13.93
220.572	16.98
220.79	12.28
221.007	8.6
221.224	6.26
221.441	29.82
221.658	41.96
221.875	35.49
222.092	31.37
222.309	29.77
222.526	30.51
222.743	30.32
222.96	24.81
223.177	28.81
223.394	23.51
223.611	27.39
223.828	31.14
224.045	31.37
224.262	24.54
224.479	23.23
224.696	19.49
224.913	20.07
225.13	18.8
225.347	17.69
225.564	18.08
225.781	16.1
225.997	14.5
226.214	12.19
226.431	11.27
226.648	10.48
226.865	11.04
227.082	11.46
227.298	11.2
227.515	11.21
227.732	10.33
227.949	8.94
228.165	8.5
228.382	7.75
228.599	8.51
228.816	7.57
229.032	8.55
229.249	8.66
229.466	8.52
229.682	8.36
229.899	7.84
230.116	7.52
230.332	6.91
230.549	6.64
230.765	8.89
230.982	8.49
231.199	10.17
231.415	9.54
231.632	9.83
231.848	8.47
232.065	7.87
232.281	8.69
232.498	8.38
232.714	8.13
232.931	9.46
233.147	10.38
233.364	10.34
233.58	10.3
233.797	11.06
234.013	9.73
234.23	8.93
234.446	7.97
234.662	9.95
234.879	10.69
235.095	10.88
235.312	12.46
235.528	11.15
235.744	9.98
235.961	9.04
236.177	10.79
236.393	10.54
236.61	9.04
236.826	11.1
237.042	12.81
237.258	13.41
237.475	12.73
237.691	10.84
237.907	10.48
238.123	9.12
238.339	11.18
238.556	13.26
238.772	12.42
238.988	11.01
239.204	10.89
239.42	10.77
239.636	10.03
239.853	10.07
240.069	10.16
240.285	9.84
240.501	10.82
240.717	10.68
240.933	10.98
241.149	10.45
241.365	10.57
241.581	10.89
241.797	10.7
242.013	10.7
242.229	11.51
242.445	11.34
242.661	10.5
242.877	10.28
243.093	10.33
243.309	9.8
243.525	9.72
243.741	9.04
243.957	8.73
244.173	7.97
244.388	8.32
244.604	8.93
244.82	8.3
245.036	7.55
245.252	7.56
245.468	7.57
245.683	7.23
245.899	6.99
246.115	7.07
246.331	6.82
246.547	6.81
246.762	6.94
246.978	6.54
247.194	6.57
247.409	6.77
247.625	7.01
247.841	7.86
248.057	7.49
248.272	7.68
248.488	7.65
248.703	8.21
248.919	7.67
249.135	8.02
249.35	8.34
249.566	7.99
249.782	8.56
249.997	8
250.213	6.97
250.428	6.8
250.644	6.31
250.859	7.29
251.075	7.43
251.29	8.03
251.506	8.23
251.721	8.19
251.937	8.3
252.152	8.57
252.368	9.58
252.583	9.95
252.798	10.65
253.014	11.13
253.229	11.84
253.445	12.67
253.66	11.64
253.875	11.51
254.091	12.42
254.306	11.62
254.521	11.45
254.737	9.84
254.952	9.46
255.167	8.67
255.383	7.73
255.598	7.17
255.813	6.77
256.028	6.37
256.244	5.55
256.459	5.7
256.674	5.77
256.889	4.87
257.104	4.67
257.32	5.11
257.535	5.44
257.75	5.15
257.965	4.96
258.18	5.29
258.395	5.07
258.61	5.35
258.826	5.4
259.041	5.34
259.256	5.17
259.471	4.9
259.686	5.07
259.901	5.21
260.116	4.9
260.331	4.94
260.546	4.93
260.761	5.21
260.976	4.63
261.191	5.03
261.406	4.49
261.621	4.58
261.836	4.59
262.05	4.66
262.265	5.02
262.48	4.62
262.695	4.78
262.91	4.91
263.125	4.9
263.34	4.81
263.555	3.65
263.769	3.63
263.984	3.59
264.199	4.11
264.414	3.75
264.629	3.82
264.843	4.46
265.058	4.25
265.273	4.2
265.488	3.92
265.702	4.01
265.917	4.42
266.132	5.19
266.346	6.22
266.561	6.5
266.776	6.26
266.99	6.39
267.205	6.52
267.42	6.19
267.634	6.42
267.849	6.72
268.063	7.24
268.278	7.17
268.492	7.05
268.707	6.52
268.922	5.63
269.136	5.75
269.351	5.77
269.565	5.67
269.78	5.78
269.994	5.53
270.209	5.38
270.423	5.27
270.637	5.16
270.852	5.2
271.066	5.72
271.281	5.91
271.495	5.97
271.709	6.14
271.924	5.74
272.138	5.7
272.353	6.16
272.567	5.72
272.781	5.84
272.996	6
273.21	5.86
273.424	6.13
273.638	5.97
273.853	5.77
274.067	6.32
274.281	6.35
274.495	6.27
274.71	6.11
274.924	5.95
275.138	5.74
275.352	6
275.566	5.75
275.781	5.74
275.995	5.52
276.209	5.49
276.423	5.21
276.637	4.61
276.851	4.01
277.065	4.37
277.279	5.14
277.493	5.28
277.707	5.29
277.921	5.24
278.135	5.32
278.349	5.78
278.563	5.81
278.777	5.71
278.991	5.21
279.205	5.68
279.419	6.17
279.633	6.01
279.847	5.83
280.061	5.8
280.275	5.74
280.489	5.83
280.703	5.97
280.917	5.76
281.131	5.63
281.344	5.71
281.558	5.78
281.772	5.61
281.986	5.21
282.2	5.01
282.414	5.29
282.627	5.13
282.841	4.78
283.055	4.84
283.269	4.79
283.482	4.51
283.696	4.67
283.91	4.5
284.123	4.61
284.337	4.57
284.551	4.48
284.764	4.46
284.978	4.37
285.192	4.14
285.405	4.57
285.619	4.78
285.833	4.76
286.046	4.76
286.26	4.9
286.473	4.97
286.687	5.36
286.9	5.46
287.114	5.67
287.327	5.99
287.541	6.18
287.754	6.47
287.968	6.41
288.181	5.73
288.395	5.86
288.608	5.88
288.822	5.74
289.035	5.86
289.248	5.72
289.462	5.55
289.675	5.65
289.889	5.33
290.102	5.3
290.315	5.28
290.529	4.92
290.742	5.05
290.955	5.61
291.169	5.29
291.382	5.45
291.595	5.57
291.808	5.2
292.022	5.01
292.235	4.94
292.448	5
292.661	5.4
292.875	5.51
293.088	5.76
293.301	6.03
293.514	5.99
293.727	5.87
293.94	6.02
294.153	5.82
294.367	5.57
294.58	5.79
294.793	6.03
295.006	5.98
295.219	5.73
295.432	5.51
295.645	5.37
295.858	5.07
296.071	4.93
296.284	5.04
296.497	4.9
296.71	4.86
296.923	4.81
297.136	5.13
297.349	5.07
297.562	4.83
297.775	4.95
297.988	5.21
298.201	5.36
298.414	5.26
298.626	5.36
298.839	5.41
299.052	5.28
299.265	5.21
299.478	4.73
299.691	4.94
299.903	5.23
300.116	5.37
300.329	5.41
300.542	5.45
300.755	5.4
300.967	5.24
301.18	5.38
301.393	5.36
301.605	5.49
301.818	5.32
302.031	5.63
302.243	6.15
302.456	6.03
302.669	5.9
302.881	5.97
303.094	5.88
303.307	5.62
303.519	5.76
303.732	5.57
303.944	5.65
304.157	5.91
304.37	5.68
304.582	5.95
304.795	6.02
305.007	5.73
305.22	5.71
305.432	5.41
305.645	5.33
305.857	5.44
306.069	5.76
306.282	5.55
306.494	6.06
306.707	5.95
306.919	5.68
307.132	5.79
307.344	5.88
307.556	5.66
307.769	5.56
307.981	5.49
308.193	5.61
308.406	5.55
308.618	5.47
308.83	5.29
309.043	5.15
309.255	5.16
309.467	5.2
309.679	5.41
309.892	5.3
310.104	5.42
310.316	5.38
310.528	5.63
310.74	5.82
310.953	5.96
311.165	6.24
311.377	6.28
311.589	6.67
311.801	6.68
312.013	6.73
312.225	6.72
312.437	6.98
312.649	7.15
312.862	7.05
313.074	7.38
313.286	7.18
313.498	7.09
313.71	6.99
313.922	6.72
314.134	6.96
314.346	6.62
314.558	6.91
314.77	6.78
314.982	6.93
315.193	6.46
315.405	6.38
315.617	6.34
315.829	5.92
316.041	5.87
316.253	5.83
316.465	5.36
316.677	5.48
316.888	5.26
317.1	5.14
317.312	4.62
317.524	4.91
317.736	4.99
317.947	5.02
318.159	5.29
318.371	4.96
318.583	5.15
318.794	5.58
319.006	6
319.218	6.39
319.43	6.36
319.641	6.47
319.853	6.59
320.064	7.02
320.276	6.71
320.488	6.85
320.699	7.03
320.911	7.13
321.123	7.95
321.334	7.72
321.546	6.97
321.757	6.28
321.969	6.44
322.18	6.49
322.392	6.69
322.603	6.75
322.815	6.69
323.026	6.3
323.238	6.02
323.449	6.32
323.661	6.35
323.872	5.91
324.083	6.31
324.295	6.51
324.506	6.79
324.718	6.65
324.929	6.13
325.14	5.95
325.352	5.62
325.563	5.61
325.774	6.13
325.986	6.36
326.197	6.21
326.408	6.36
326.62	6.18
326.831	6.46
327.042	6.72
327.253	7.12
327.464	7.11
327.676	7.78
327.887	7.86
328.098	8.22
328.309	7.97
328.52	8.08
328.732	8.02
328.943	7.79
329.154	7.76
329.365	7.89
329.576	7.42
329.787	7.12
329.998	7.18
330.209	7.21
330.42	7.02
330.631	7.3
330.842	7.31
331.053	7.11
331.264	7.2
331.475	7.04
331.686	7.23
331.897	6.99
332.108	7.35
332.319	7.55
332.53	7.51
332.741	7.53
332.952	7.19
333.163	7.16
333.374	6.59
333.585	6.76
333.795	7.18
334.006	7.06
334.217	7.19
334.428	7.21
334.639	7.15
334.849	6.59
335.06	6.35
335.271	6.57
335.482	5.85
335.692	6.69
335.903	6.71
336.114	6.7
336.325	6.56
336.535	6.74
336.746	6.35
336.957	6.53
337.167	6.43
337.378	6.77
337.589	7.1
337.799	7.48
338.01	7.61
338.22	7.72
338.431	7.24
338.642	7.45
338.852	7.75
339.063	7.59
339.273	7.42
339.484	7.77
339.694	7.67
339.905	7.28
340.115	7.19
340.326	7.2
340.536	6.78
340.746	6.62
340.957	7.09
341.167	7.03
341.378	6.99
341.588	6.8
341.799	6.6
342.009	6.48
342.219	6.37
342.43	6.2
342.64	6.37
342.85	6.12
343.061	6.16
343.271	5.99
343.481	5.9
343.691	5.53
343.902	5.68
344.112	5.45
344.322	5.47
344.532	5.75
344.743	5.52
344.953	5.25
345.163	5.15
345.373	5.05
345.583	5.11
345.793	5.06
346.004	5.41
346.214	5.8
346.424	5.88
346.634	5.76
346.844	5.86
347.054	6.25
347.264	6.41
347.474	6.62
347.684	6.67
347.894	6.83
348.104	7.07
348.314	7.3
348.524	7.02
348.734	7.12
348.944	7.07
349.154	7.02
349.364	7.2
349.574	7.24
349.784	6.92
349.994	6.74
350.204	6.88
350.413	6.6
350.623	6.61
350.833	6.38
351.043	5.94
351.253	6.03
351.463	5.61
351.672	5.41
351.882	5.54
352.092	5.05
352.302	4.99
352.511	4.93
352.721	5.05
352.931	5.08
353.141	5.52
353.35	5.39
353.56	5.55
353.77	5.72
353.979	5.77
354.189	5.89
354.399	5.89
354.608	5.93
354.818	6.2
355.027	6.06
355.237	6.04
355.447	5.93
355.656	5.55
355.866	5.58
356.075	5.75
356.285	5.81
356.494	5.66
356.704	5.61
356.913	5.55
357.123	5.55
357.332	5.26
357.542	5.25
357.751	5.41
357.96	5.31
358.17	5.18
358.379	5.37
358.589	5.28
358.798	5.1
359.007	4.96
359.217	4.89
359.426	5.1
359.635	5.26
359.845	5.37
360.054	5.37
360.263	5.46
360.472	5.27
360.682	5.43
360.891	5.38
361.1	5.5
361.309	5.57
361.519	5.6
361.728	5.65
361.937	5.76
362.146	5.66
362.355	5.62
362.564	5.44
362.774	5.52
362.983	5.19
363.192	5.19
363.401	4.99
363.61	5.31
363.819	5.08
364.028	4.88
364.237	4.85
364.446	4.76
364.655	4.92
364.864	4.93
365.073	4.87
365.282	4.92
365.491	4.96
365.7	5.27
365.909	5.24
366.118	5.34
366.327	5.24
366.536	5.2
366.745	5.11
366.954	5.34
367.162	5.27
367.371	5.36
367.58	5.09
367.789	4.88
367.998	4.93
368.207	4.69
368.415	4.68
368.624	4.73
368.833	4.86
369.042	4.88
369.25	4.91
369.459	5.04
369.668	4.69
369.877	4.87
370.085	4.57
370.294	4.82
370.503	5.01
370.711	4.76
370.92	5.13
371.129	5.01
371.337	4.85
371.546	4.88
371.754	4.8
371.963	4.92
372.171	4.75
372.38	4.85
372.589	4.75
372.797	4.79
373.006	4.56
373.214	4.71
373.423	4.86
373.631	4.72
373.84	4.87
374.048	5.04
374.256	4.89
374.465	4.9
374.673	4.75
374.882	4.94
375.09	4.97
375.298	5.05
375.507	4.9
375.715	4.8
375.923	4.66
376.132	4.75
376.34	4.84
376.548	4.79
376.757	4.9
376.965	4.93
377.173	4.72
377.381	4.98
377.59	4.95
377.798	4.69
378.006	4.5
378.214	4.62
378.423	4.67
378.631	4.53
378.839	4.49
379.047	4.43
379.255	4.39
379.463	4.13
379.671	4.13
379.879	4.28
380.088	4.3
380.296	4.33
380.504	4.72
380.712	4.78
380.92	4.8
381.128	5.09
381.336	4.96
381.544	4.86
381.752	4.83
381.96	4.73
382.168	4.9
382.376	4.95
382.584	4.88
382.791	4.84
382.999	4.75
383.207	4.64
383.415	4.68
383.623	4.7
383.831	4.82
384.039	4.91
384.247	4.99
384.454	4.75
384.662	4.7
384.87	4.61
385.078	4.39
385.285	4.45
385.493	4.23
385.701	4.29
385.909	4.3
386.116	4.11
386.324	4.12
386.532	3.82
386.739	4.06
386.947	3.98
387.155	4.06
387.362	4.04
387.57	4.08
387.778	4.16
387.985	3.96
388.193	4.07
388.4	4.19
388.608	4.13
388.816	4.26
389.023	4.13
389.231	4.09
389.438	3.89
389.646	3.85
389.853	3.9
390.061	3.92
390.268	3.89
390.475	3.83
390.683	3.79
390.89	3.71
391.098	3.49
391.305	3.5
391.512	3.58
391.72	3.54
391.927	3.6
392.135	3.47
392.342	3.53
392.549	3.41
392.756	3.19
392.964	3.16
393.171	3.2
393.378	3.42
393.586	3.45
393.793	3.44
394	3.39
394.207	3.34
394.414	3.38
394.622	3.13
394.829	3.17
395.036	3.31
395.243	3.51
395.45	3.67
395.657	3.56
395.864	3.47
396.072	3.42
396.279	3.4
396.486	3.32
396.693	3.26
396.9	3.18
397.107	3.34
397.314	3.52
397.521	3.56
397.728	3.56
397.935	3.36
398.142	3.39
398.349	3.45
398.556	3.6
398.763	3.36
398.97	3.41
399.177	3.66
399.383	3.74
399.59	3.62
399.797	3.53
400.004	3.55
400.211	3.48
400.418	3.23
400.625	3.32
400.831	3.31
401.038	3.34
401.245	3.31
401.452	3.42
401.658	3.46
401.865	3.32
402.072	3.3
402.279	3.46
402.485	3.31
402.692	3.25
402.899	3.29
403.105	3.22
403.312	3.09
403.519	3.01
403.725	3.03
403.932	2.96
404.138	3.11
404.345	3.05
404.552	3.19
404.758	3.17
404.965	3.02
405.171	3.2
405.378	3.15
405.584	3.16
405.791	3.16
405.997	3.37
406.204	3.43
406.41	3.43
406.617	3.35
406.823	3.16
407.029	3.06
407.236	2.95
407.442	2.98
407.649	2.86
407.855	2.7
408.061	2.8
408.268	2.79
408.474	2.77
408.68	2.75
408.887	2.83
409.093	2.68
409.299	2.76
409.505	2.79
409.712	2.76
409.918	2.69
410.124	2.71
410.33	2.76
410.537	2.85
410.743	2.83
410.949	2.7
411.155	2.78
411.361	2.74
411.567	2.56
411.773	2.59
411.98	2.61
412.186	2.66
412.392	2.72
412.598	2.83
412.804	2.83
413.01	3.04
413.216	3.06
413.422	3.14
413.628	3.27
413.834	3.27
414.04	3.18
414.246	3.25
414.452	3.24
414.658	3.11
414.864	3.08
415.07	3.06
415.275	2.93
415.481	2.84
415.687	2.69
415.893	2.56
416.099	2.47
416.305	2.54
416.511	2.49
416.716	2.48
416.922	2.55
417.128	2.67
417.334	2.79
417.539	2.76
417.745	2.81
417.951	2.81
418.157	2.82
418.362	2.88
418.568	2.91
418.774	2.9
418.979	2.75
419.185	2.78
419.391	2.89
419.596	2.83
419.802	2.78
420.008	2.86
420.213	2.85
420.419	2.77
420.624	2.73
420.83	2.74
421.035	2.72
421.241	2.72
421.446	2.72
421.652	2.82
421.857	2.75
422.063	2.61
422.268	2.59
422.474	2.54
422.679	2.46
422.885	2.38
423.09	2.4
423.295	2.42
423.501	2.44
423.706	2.38
423.911	2.37
424.117	2.29
424.322	2.26
424.527	2.32
424.733	2.26
424.938	2.19
425.143	2.12
425.349	2.08
425.554	2.15
425.759	2.17
425.964	2.17
426.169	2.22
426.375	2.3
426.58	2.26
426.785	2.43
426.99	2.51
427.195	2.44
427.4	2.63
427.605	2.82
427.811	2.95
428.016	2.91
428.221	2.84
428.426	2.73
428.631	2.85
428.836	2.71
429.041	2.57
429.246	2.67
429.451	2.53
429.656	2.38
429.861	2.49
430.066	2.45
430.271	2.3
430.476	2.26
430.681	2.28
430.886	2.39
431.09	2.45
431.295	2.35
431.5	2.37
431.705	2.48
431.91	2.39
432.115	2.42
432.32	2.44
432.524	2.3
432.729	2.21
432.934	2.25
433.139	2.27
433.343	2.25
433.548	2.14
433.753	2.18
433.958	2.1
434.162	2.04
434.367	2.11
434.572	2.16
434.776	2.18
434.981	2.15
435.186	2.26
435.39	2.34
435.595	2.29
435.799	2.29
436.004	2.24
436.209	2.29
436.413	2.28
436.618	2.31
436.822	2.35
437.027	2.23
437.231	2.17
437.436	2.14
437.64	2.26
437.845	2.27
438.049	2.23
438.253	2.31
438.458	2.3
438.662	2.37
438.867	2.46
439.071	2.39
439.275	2.44
439.48	2.47
439.684	2.51
439.888	2.61
440.093	2.64
440.297	2.6
440.501	2.54
440.706	2.67
440.91	2.69
441.114	2.71
441.318	2.64
441.523	2.6
441.727	2.69
441.931	2.71
442.135	2.63
442.339	2.61
442.543	2.59
442.748	2.58
442.952	2.55
443.156	2.61
443.36	2.57
443.564	2.51
443.768	2.44
443.972	2.5
444.176	2.53
444.38	2.47
444.584	2.38
444.788	2.4
444.992	2.42
445.196	2.42
445.4	2.35
445.604	2.38
445.808	2.35
446.012	2.29
446.216	2.28
446.42	2.27
446.624	2.18
446.828	2.09
447.032	2.07
447.235	2.11
447.439	2.12
447.643	2.06
447.847	2.04
448.051	2.09
448.254	2.01
448.458	1.95
448.662	1.88
448.866	1.82
449.069	1.9
449.273	1.94
449.477	1.96
449.681	1.96
449.884	1.99
450.088	1.98
450.292	2.04
450.495	1.98
450.699	1.93
450.902	1.93
451.106	1.97
451.31	2.1
451.513	2.11
451.717	2.11
451.92	2.2
452.124	2.23
452.327	2.22
452.531	2.29
452.734	2.31
452.938	2.29
453.141	2.27
453.345	2.32
453.548	2.32
453.752	2.37
453.955	2.19
454.158	2.26
454.362	2.16
454.565	2.16
454.769	2.14
454.972	2.16
455.175	2.11
455.379	2.13
455.582	2.12
455.785	2.22
455.988	2.23
456.192	2.22
456.395	2.18
456.598	2.25
456.801	2.21
457.005	2.22
457.208	2.11
457.411	2.11
457.614	2.13
457.817	2.09
458.021	2.05
458.224	2.03
458.427	2.05
458.63	2.02
458.833	2.05
459.036	2.09
459.239	2.08
459.442	2.14
459.645	2.16
459.848	2.23
460.051	2.26
460.254	2.27
460.457	2.32
460.66	2.45
460.863	2.5
461.066	2.43
461.269	2.46
461.472	2.39
461.675	2.38
461.878	2.43
462.081	2.4
462.284	2.35
462.486	2.36
462.689	2.3
462.892	2.22
463.095	2.17
463.298	2.04
463.5	2.02
463.703	2.02
463.906	2.09
464.109	2.11
464.311	2.2
464.514	2.27
464.717	2.25
464.92	2.36
465.122	2.33
465.325	2.35
465.528	2.38
465.73	2.28
465.933	2.2
466.135	2.14
466.338	2.18
466.541	2.02
466.743	1.98
466.946	1.75
467.148	1.64
467.351	1.66
467.553	1.61
467.756	1.56
467.958	1.49
468.161	1.52
468.363	1.64
468.566	1.7
468.768	1.69
468.971	1.61
469.173	1.6
469.375	1.62
469.578	1.72
469.78	1.8
469.983	1.76
470.185	1.86
470.387	1.91
470.59	2.05
470.792	2.07
470.994	1.95
471.196	1.94
471.399	1.97
471.601	2.01
471.803	2.06
472.005	2.21
472.208	2.1
472.41	2.13
472.612	2.13
472.814	2.1
473.016	2.1
473.218	2.02
473.421	2.02
473.623	2.11
473.825	2.16
474.027	2.26
474.229	2.31
474.431	2.36
474.633	2.36
474.835	2.44
475.037	2.47
475.239	2.55
475.441	2.55
475.643	2.51
475.845	2.46
476.047	2.52
476.249	2.53
476.451	2.54
476.653	2.49
476.855	2.43
477.057	2.4
477.258	2.38
477.46	2.42
477.662	2.35
477.864	2.33
478.066	2.22
478.268	2.31
478.469	2.31
478.671	2.24
478.873	2.25
479.075	2.16
479.276	2.12
479.478	2.12
479.68	2.17
479.882	2.16
480.083	2.13
480.285	2.12
480.487	2.08
480.688	2.15
480.89	2.09
481.091	2.11
481.293	2.11
481.495	2.07
481.696	2.09
481.898	2.1
482.099	2.1
482.301	2.08
482.502	2.05
482.704	2.06
482.905	2.03
483.107	2.03
483.308	1.97
483.51	1.97
483.711	1.98
483.913	1.97
484.114	1.98
484.315	2
484.517	2.02
484.718	2.02
484.92	2.02
485.121	2.07
485.322	2.09
485.524	2.12
485.725	2.12
485.926	2.16
486.127	2.17
486.329	2.16
486.53	2.16
486.731	2.19
486.932	2.16
487.134	2.12
487.335	2.13
487.536	2.14
487.737	2.12
487.938	2.07
488.139	2.08
488.341	2.09
488.542	2.07
488.743	2.08
488.944	2.14
489.145	2.18
489.346	2.17
489.547	2.19
489.748	2.25
489.949	2.24
490.15	2.23
490.351	2.22
490.552	2.23
490.753	2.22
490.954	2.22
491.155	2.26
491.356	2.27
491.557	2.2
491.758	2.17
491.959	2.15
492.159	2.15
492.36	2.13
492.561	2.18
492.762	2.19
492.963	2.17
493.164	2.18
493.364	2.19
493.565	2.21
493.766	2.16
493.967	2.05
494.167	2.12
494.368	2.1
494.569	2.12
494.769	2.12
494.97	2.14
495.171	2.14
495.371	2.18
495.572	2.19
495.773	2.21
495.973	2.24
496.174	2.23
496.375	2.27
496.575	2.41
496.776	2.42
496.976	2.44
497.177	2.38
497.377	2.4
497.578	2.37
497.778	2.37
497.979	2.41
498.179	2.49
498.38	2.54
498.58	2.56
498.78	2.62
498.981	2.68
499.181	2.62
499.382	2.6
499.582	2.64
499.782	2.68
499.983	2.65
500.183	2.68
500.383	2.64
500.584	2.56
500.784	2.54
500.984	2.48
501.184	2.5
501.385	2.48
501.585	2.41
501.785	2.37
501.985	2.46
502.185	2.54
502.386	2.52
502.586	2.51
502.786	2.52
502.986	2.66
503.186	2.66
503.386	2.62
503.586	2.68
503.786	2.72
503.987	2.74
504.187	2.78
504.387	2.88
504.587	2.83
504.787	2.87
504.987	2.98
505.187	2.98
505.387	2.98
505.587	2.92
505.786	2.98
505.986	3.07
506.186	3.07
506.386	3.03
506.586	3.02
506.786	3.06
506.986	3.03
507.186	3.07
507.386	2.95
507.585	2.87
507.785	2.91
507.985	2.95
508.185	2.95
508.384	2.93
508.584	2.89
508.784	2.87
508.984	2.86
509.183	2.83
509.383	2.76
509.583	2.88
509.782	2.9
509.982	2.99
510.182	3.05
510.381	3.04
510.581	3.04
510.781	3.03
510.98	3.08
511.18	3.11
511.379	3.14
511.579	3.22
511.778	3.27
511.978	3.29
512.177	3.22
512.377	3.17
512.576	3.1
512.776	3.11
512.975	3.15
513.175	3.16
513.374	3.27
513.573	3.23
513.773	3.33
513.972	3.38
514.172	3.41
514.371	3.54
514.57	3.64
514.77	3.62
514.969	3.72
515.168	3.78
515.367	3.81
515.567	3.78
515.766	3.77
515.965	3.76
516.164	3.76
516.364	3.67
516.563	3.68
516.762	3.65
516.961	3.63
517.16	3.6
517.359	3.6
517.559	3.59
517.758	3.59
517.957	3.65
518.156	3.71
518.355	3.75
518.554	3.69
518.753	3.76
518.952	3.89
519.151	3.86
519.35	3.8
519.549	3.82
519.748	3.92
519.947	4
520.146	3.99
520.345	4.06
520.544	4.07
520.743	4.02
520.942	4.03
521.141	4.19
521.339	4.15
521.538	4.05
521.737	4.13
521.936	4.24
522.135	4.24
522.333	4.2
522.532	4.26
522.731	4.35
522.93	4.27
523.129	4.23
523.327	4.27
523.526	4.32
523.725	4.32
523.923	4.38
524.122	4.41
524.321	4.44
524.519	4.46
524.718	4.47
524.917	4.47
525.115	4.41
525.314	4.4
525.512	4.45
525.711	4.48
525.909	4.49
526.108	4.46
526.306	4.46
526.505	4.47
526.703	4.47
526.902	4.47
527.1	4.45
527.299	4.46
527.497	4.48
527.696	4.5
527.894	4.5
528.092	4.53
528.291	4.53
528.489	4.56
528.688	4.56
528.886	4.58
529.084	4.6
529.283	4.63
529.481	4.67
529.679	4.71
529.877	4.74
530.076	4.8
530.274	4.85
530.472	4.93
530.67	4.9
530.869	4.99
531.067	5.03
531.265	5.11
531.463	5.11
531.661	5.11
531.859	5.14
532.057	5.16
532.255	5.15
532.454	5.17
532.652	5.14
532.85	5.15
533.048	5.15
533.246	5.2
533.444	5.21
533.642	5.25
533.84	5.27
534.038	5.3
534.236	5.33
534.434	5.3
534.632	5.31
534.83	5.35
535.027	5.37
535.225	5.4
535.423	5.37
535.621	5.4
535.819	5.46
536.017	5.48
536.215	5.49
536.412	5.45
536.61	5.47
536.808	5.47
537.006	5.58
537.203	5.65
537.401	5.72
537.599	5.78
537.797	5.83
537.994	5.94
538.192	5.97
538.39	5.98
538.587	6.01
538.785	6.04
538.983	6.07
539.18	6.07
539.378	6.13
539.575	6.09
539.773	6.09
539.97	6.07
540.168	6.06
540.366	6.06
540.563	6.06
540.761	6.07
540.958	6.08
541.155	6.07
541.353	6.05
541.55	6.07
541.748	6.1
541.945	6.08
542.143	6.13
542.34	6.18
542.537	6.28
542.735	6.36
542.932	6.39
543.129	6.43
543.327	6.53
543.524	6.56
543.721	6.61
543.919	6.72
544.116	6.81
544.313	6.89
544.51	7
544.708	7.03
544.905	7.01
545.102	6.99
545.299	7.05
545.496	7.07
545.693	7.15
545.891	7.1
546.088	7.07
546.285	7.13
546.482	7.14
546.679	7.13
546.876	7.17
547.073	7.23
547.27	7.25
547.467	7.34
547.664	7.44
547.861	7.4
548.058	7.52
548.255	7.57
548.452	7.65
548.649	7.84
548.846	7.87
549.043	7.94
549.24	8.05
549.437	7.97
549.633	8.06
549.83	8.16
550.027	8.23
550.224	8.3
550.421	8.35
550.618	8.41
550.814	8.41
551.011	8.39
551.208	8.37
551.405	8.49
551.601	8.55
551.798	8.58
551.995	8.77
552.191	8.71
552.388	8.74
552.585	8.67
552.781	8.69
552.978	8.81
553.175	8.89
553.371	8.87
553.568	9.13
553.764	9.2
553.961	9.17
554.157	9.07
554.354	9.2
554.55	9.15
554.747	9.21
554.943	9.26
555.14	9.37
555.336	9.34
555.533	9.42
555.729	9.47
555.926	9.64
556.122	9.51
556.318	9.6
556.515	9.66
556.711	9.92
556.907	10.03
557.104	10.13
557.3	10.27
557.496	10.35
557.693	10.45
557.889	10.59
558.085	10.67
558.281	10.64
558.478	10.63
558.674	10.77
558.87	10.83
559.066	10.95
559.262	11.03
559.459	11.02
559.655	11.11
559.851	11.14
560.047	11.2
560.243	11.25
560.439	11.41
560.635	11.45
560.831	11.57
561.027	11.63
561.223	11.58
561.419	11.72
561.615	11.74
561.811	11.76
562.007	11.83
562.203	11.99
562.399	12.1
562.595	12.24
562.791	12.41
562.987	12.41
563.183	12.48
563.379	12.58
563.575	12.64
563.771	12.77
563.966	12.82
564.162	12.97
564.358	13.08
564.554	13.13
564.75	13.1
564.945	13.16
565.141	13.2
565.337	13.19
565.533	13.17
565.728	13.25
565.924	13.31
566.12	13.42
566.315	13.62
566.511	13.71
566.707	13.76
566.902	13.82
567.098	13.85
567.293	13.89
567.489	13.89
567.684	13.98
567.88	14.02
568.076	14.23
568.271	14.3
568.467	14.33
568.662	14.48
568.858	14.42
569.053	14.43
569.248	14.45
569.444	14.51
569.639	14.62
569.835	14.74
570.03	14.89
570.225	14.99
570.421	15.08
570.616	15.19
570.812	15.2
571.007	15.41
571.202	15.41
571.397	15.52
571.593	15.61
571.788	15.63
571.983	15.72
572.178	15.74
572.374	15.79
572.569	15.93
572.764	15.87
572.959	15.92
573.154	15.93
573.35	16.02
573.545	15.97
573.74	16.07
573.935	16.05
574.13	16.02
574.325	16.09
574.52	16.21
574.715	16.22
574.91	16.29
575.105	16.29
575.3	16.33
575.495	16.45
575.69	16.5
575.885	16.56
576.08	16.6
576.275	16.68
576.47	16.76
576.665	16.91
576.86	16.99
577.055	17.01
577.25	17.16
577.444	17.28
577.639	17.22
577.834	17.36
578.029	17.29
578.224	17.28
578.418	17.27
578.613	17.33
578.808	17.26
579.003	17.4
579.197	17.4
579.392	17.51
579.587	17.47
579.781	17.57
579.976	17.57
580.171	17.58
580.365	17.64
580.56	17.7
580.755	17.75
580.949	17.75
581.144	17.75
581.338	17.84
581.533	17.82
581.727	17.82
581.922	17.94
582.116	17.98
582.311	18.05
582.505	18.09
582.7	18.26
582.894	18.32
583.089	18.42
583.283	18.43
583.478	18.61
583.672	18.7
583.866	18.77
584.061	18.82
584.255	18.98
584.449	19
584.644	18.98
584.838	19.02
585.032	19.02
585.226	18.93
585.421	18.92
585.615	18.91
585.809	19.02
586.003	18.98
586.198	18.92
586.392	18.97
586.586	18.98
586.78	18.98
586.974	19.04
587.168	19.14
587.363	19.15
587.557	19.26
587.751	19.46
587.945	19.57
588.139	19.66
588.333	19.64
588.527	19.73
588.721	19.8
588.915	19.81
589.109	19.88
589.303	19.85
589.497	19.84
589.691	19.84
589.885	19.84
590.079	19.91
590.273	19.91
590.466	19.89
590.66	19.98
590.854	20.09
591.048	20.01
591.242	20.07
591.436	20.19
591.629	20.24
591.823	20.24
592.017	20.27
592.211	20.32
592.404	20.41
592.598	20.37
592.792	20.35
592.986	20.34
593.179	20.41
593.373	20.46
593.567	20.7
593.76	20.66
593.954	20.55
594.147	20.58
594.341	20.71
594.535	20.7
594.728	20.74
594.922	20.69
595.115	20.67
595.309	20.8
595.502	20.89
595.696	20.85
595.889	20.72
596.083	20.65
596.276	20.74
596.47	20.69
596.663	20.71
596.856	20.72
597.05	20.81
597.243	20.76
597.437	20.79
597.63	20.9
597.823	20.78
598.017	20.8
598.21	20.8
598.403	21.03
598.596	21
598.79	20.93
598.983	21.03
599.176	21
599.369	21
599.563	20.96
599.756	21.2
599.949	21.2
600.142	21.3
600.335	21.34
600.528	21.37
600.722	21.39
600.915	21.5
601.108	21.53
601.301	21.7
601.494	21.87
601.687	21.96
601.88	21.97
602.073	21.96
602.266	21.94
602.459	22.03
602.652	21.95
602.845	21.97
603.038	21.92
603.231	21.97
603.424	21.85
603.617	21.93
603.809	21.87
604.002	21.94
604.195	21.92
604.388	21.98
604.581	21.98
604.774	21.81
604.966	21.64
605.159	21.58
605.352	21.66
605.545	21.73
605.737	21.7
605.93	21.68
606.123	21.66
606.316	21.77
606.508	21.73
606.701	21.76
606.894	21.75
607.086	21.93
607.279	22.09
607.471	22.37
607.664	22.53
607.857	22.44
608.049	22.45
608.242	22.4
608.434	22.44
608.627	22.37
608.819	22.3
609.012	22.3
609.204	22.28
609.397	22.23
609.589	22.16
609.782	22.19
609.974	22.13
610.166	22.01
610.359	22.13
610.551	22.19
610.743	22.29
610.936	22.41
611.128	22.58
611.32	22.54
611.513	22.43
611.705	22.5
611.897	22.69
612.09	22.7
612.282	22.75
612.474	22.86
612.666	23.04
612.858	23.06
613.051	23.02
613.243	23.06
613.435	22.98
613.627	22.86
613.819	23.29
614.011	23.38
614.203	23.34
614.395	23.14
614.588	23.19
614.78	23.25
614.972	23.14
615.164	23.03
615.356	22.96
615.548	22.98
615.74	22.89
615.932	23
616.124	23.25
616.315	22.95
616.507	22.93
616.699	22.93
616.891	23.01
617.083	23.09
617.275	23.06
617.467	23.24
617.659	23.37
617.85	23.48
618.042	23.54
618.234	23.59
618.426	23.51
618.618	23.34
618.809	23.26
619.001	23.24
619.193	23.33
619.384	23.34
619.576	23.13
619.768	23.05
619.959	22.94
620.151	22.92
620.343	22.98
620.534	22.89
620.726	22.99
620.917	22.99
621.109	22.95
621.301	23.02
621.492	23.12
621.684	23
621.875	23.04
622.067	23.2
622.258	23.46
622.45	23.5
622.641	23.55
622.832	23.47
623.024	23.57
623.215	23.51
623.407	23.64
623.598	23.71
623.789	23.86
623.981	23.86
624.172	23.9
624.363	24.11
624.555	23.96
624.746	23.72
624.937	23.57
625.129	23.47
625.32	23.41
625.511	23.36
625.702	23.3
625.893	23.24
626.085	23.3
626.276	23.2
626.467	23.18
626.658	23.2
626.849	23.06
627.04	23.18
627.231	23.28
627.422	23.35
627.614	23.34
627.805	23.39
627.996	23.3
628.187	23.36
628.378	23.37
628.569	23.38
628.76	23.45
628.951	23.38
629.142	23.49
629.332	23.42
629.523	23.33
629.714	23.25
629.905	23.11
630.096	23.22
630.287	23.17
630.478	23.3
630.669	23.28
630.859	23.31
631.05	23.24
631.241	23.14
631.432	23.32
631.623	23.32
631.813	23.3
632.004	23.44
632.195	23.55
632.385	23.79
632.576	23.68
632.767	23.79
632.957	23.74
633.148	23.72
633.339	23.76
633.529	23.78
633.72	23.96
633.91	23.93
634.101	23.86
634.292	23.88
634.482	23.98
634.673	23.99
634.863	23.86
635.054	23.84
635.244	23.74
635.435	23.85
635.625	23.98
635.815	23.85
636.006	23.9
636.196	23.88
636.387	23.87
636.577	23.97
636.767	24.01
636.958	23.85
637.148	23.92
637.338	23.95
637.529	23.95
637.719	23.88
637.909	23.73
638.099	23.87
638.29	24.07
638.48	24.1
638.67	24.1
638.86	24.12
639.05	24.12
639.241	24.25
639.431	24.19
639.621	24.21
639.811	24.11
640.001	24.08
640.191	24.29
640.381	24.41
640.571	24.23
640.761	23.98
640.951	23.94
641.141	23.8
641.331	23.9
641.521	23.76
641.711	23.64
641.901	23.68
642.091	23.44
642.281	23.67
642.471	24.06
642.661	24.09
642.851	24.08
643.041	24.19
643.231	24.33
643.42	24.39
643.61	24.45
643.8	24.39
643.99	24.38
644.18	24.41
644.369	24.52
644.559	24.67
644.749	24.46
644.939	24.31
645.128	24.14
645.318	24.41
645.508	24.24
645.697	24.33
645.887	24.47
646.076	24.46
646.266	24.63
646.456	24.91
646.645	24.9
646.835	24.83
647.024	25.05
647.214	25.28
647.403	25.18
647.593	25.35
647.782	25.12
647.972	25.21
648.161	25.14
648.351	24.9
648.54	25.02
648.73	24.89
648.919	24.59
649.108	24.66
649.298	24.74
649.487	24.78
649.677	24.64
649.866	24.69
650.055	24.72
650.244	24.76
650.434	24.61
650.623	24.63
650.812	24.75
651.002	24.7
651.191	24.79
651.38	24.88
651.569	24.94
651.758	24.93
651.947	24.82
652.137	25.02
652.326	25.03
652.515	25
652.704	25
652.893	25.2
653.082	25.3
653.271	25.32
653.46	25.33
653.649	25.28
653.838	25.5
654.027	25.48
654.216	25.53
654.405	25.42
654.594	25.36
654.783	25.41
654.972	25.6
655.161	25.63
655.35	25.54
655.539	25.49
655.728	25.49
655.916	25.52
656.105	25.6
656.294	25.46
656.483	25.6
656.672	25.54
656.86	25.44
657.049	25.26
657.238	25.11
657.427	25.03
657.615	25.12
657.804	25.19
657.993	25.11
658.181	25.19
658.37	25.11
658.559	25.06
658.747	25.11
658.936	24.77
659.125	24.86
659.313	25
659.502	25.07
659.69	25.23
659.879	25.21
660.067	25.04
660.256	24.94
660.444	24.94
660.633	24.9
660.821	24.86
661.01	24.75
661.198	24.65
661.387	24.81
661.575	24.84
661.763	24.77
661.952	25.04
662.14	24.88
662.328	24.96
662.517	25.06
662.705	25.01
662.893	25.27
663.082	25.1
663.27	25.26
663.458	25.26
663.646	25.43
663.834	25.44
664.023	25.26
664.211	25.22
664.399	25.18
664.587	25.4
664.775	25.28
664.963	25.43
665.152	25.91
665.34	25.79
665.528	25.99
665.716	26
665.904	26
666.092	25.99
666.28	26.13
666.468	26.22
666.656	26.64
666.844	26.52
667.032	26.31
667.22	26.44
667.408	26.32
667.596	26.09
667.784	26.21
667.971	26.05
668.159	25.94
668.347	25.95
668.535	25.99
668.723	25.98
668.911	26.17
669.098	25.78
669.286	25.76
669.474	25.95
669.662	25.74
669.849	25.64
670.037	25.66
670.225	25.45
670.413	25.75
670.6	25.73
670.788	25.83
670.976	25.75
671.163	25.65
671.351	25.59
671.538	25.75
671.726	25.83
671.913	25.82
672.101	25.84
672.289	25.78
672.476	26
672.664	26.42
672.851	26.24
673.039	26.33
673.226	26.39
673.413	26.35
673.601	26.3
673.788	26.07
673.976	25.73
674.163	25.59
674.35	25.52
674.538	25.44
674.725	25.63
674.912	25.37
675.1	25.11
675.287	24.82
675.474	24.86
675.662	24.72
675.849	24.92
676.036	25.05
676.223	24.96
676.411	25.32
676.598	25.46
676.785	25.52
676.972	25.59
677.159	25.5
677.346	25.62
677.533	25.54
677.721	25.83
677.908	25.91
678.095	25.98
678.282	25.84
678.469	25.73
678.656	25.99
678.843	26.13
679.03	26.09
679.217	26.11
679.404	26.19
679.591	26.29
679.778	26.07
679.964	26.08
680.151	25.86
680.338	25.71
680.525	25.79
680.712	25.81
680.899	26.02
681.086	25.87
681.272	25.66
681.459	25.86
681.646	25.67
681.833	25.65
682.02	25.49
682.206	25.51
682.393	25.47
682.58	25.79
682.766	25.84
682.953	25.54
683.14	26.03
683.326	25.85
683.513	26.04
683.7	26.03
683.886	25.84
684.073	25.87
684.259	25.96
684.446	26.09
684.632	26.11
684.819	26.35
685.005	26.3
685.192	26.52
685.378	26.76
685.565	26.25
685.751	26.22
685.938	26.09
686.124	26.15
686.31	26.22
686.497	26.56
686.683	26.45
686.87	26.46
687.056	26.59
687.242	26.61
687.429	26.74
687.615	26.72
687.801	26.69
687.987	26.81
688.174	26.87
688.36	26.83
688.546	26.74
688.732	26.6
688.918	26.28
689.105	26.28
689.291	26.5
689.477	26.73
689.663	26.58
689.849	26.61
690.035	26.79
690.221	26.8
690.407	26.76
690.593	27.05
690.779	27.07
690.965	27.26
691.151	27.43
691.337	27.56
691.523	27.77
691.709	27.6
691.895	27.4
692.081	27.34
692.267	27.2
692.453	26.71
692.639	26.52
692.825	26.5
693.011	26.3
693.196	26.19
693.382	26.06
693.568	26.01
693.754	26.21
693.94	26.33
694.125	26.29
694.311	26.14
694.497	26.44
694.682	26.55
694.868	26.84
695.054	27.26
695.239	27.38
695.425	27.17
695.611	27.27
695.796	27.2
695.982	27.36
696.168	27.18
696.353	27.1
696.539	27.37
696.724	27.43
696.91	27.15
697.095	26.83
697.281	26.74
697.466	26.64
697.652	26.57
697.837	26.6
698.023	26.72
698.208	26.73
698.393	26.61
698.579	26.39
698.764	26.29
698.949	26.08
699.135	26.03
699.32	26
699.505	25.97
699.691	26.06
699.876	26.02
700.061	25.85
700.246	26.27
700.432	26.13
700.617	26.07
700.802	26.08
700.987	27.08
701.172	27.12
701.358	27.15
701.543	27.37
701.728	27.41
701.913	27.93
702.098	27.8
702.283	27.77
702.468	27.86
702.653	27.94
702.838	27.87
703.023	27.89
703.208	27.71
703.393	27.42
703.578	27.29
703.763	27.08
703.948	27.04
704.133	27.16
704.318	26.8
704.503	26.73
704.688	26.84
704.873	26.9
705.057	26.35
705.242	26.14
705.427	26.24
705.612	26.39
705.797	25.92
705.981	26.29
706.166	26.47
706.351	26.37
706.536	26.28
706.72	26.4
706.905	26.44
707.09	26.34
707.274	26.55
707.459	26.74
707.644	27.18
707.828	27.01
708.013	27.07
708.197	27
708.382	26.82
708.567	26.93
708.751	26.89
708.936	26.96
709.12	27.05
709.305	27.03
709.489	27.17
709.673	27.07
709.858	27.13
710.042	27
710.227	27.41
710.411	27.61
710.596	27.55
710.78	27.71
710.964	27.8
711.149	27.74
711.333	27.95
711.517	28.1
711.702	28.46
711.886	28.48
712.07	28.35
712.254	28.15
712.438	28.2
712.623	27.89
712.807	27.76
712.991	27.98
713.175	27.76
713.359	27.52
713.544	27.76
713.728	27.62
713.912	27.76
714.096	27.39
714.28	27.29
714.464	27.17
714.648	27.18
714.832	26.87
715.016	26.93
715.2	26.7
715.384	26.55
715.568	26.45
715.752	26.54
715.936	26.46
716.12	26.62
716.304	26.23
716.488	26.22
716.671	26.52
716.855	26.82
717.039	26.54
717.223	26.6
717.407	26.67
717.59	27.03
717.774	27.08
717.958	27.22
718.142	27.15
718.325	27.06
718.509	27.06
718.693	27.16
718.877	27.37
719.06	26.77
719.244	26.13
719.428	26.56
719.611	27.26
719.795	27.22
719.978	27.1
720.162	26.99
720.345	27.12
720.529	27.06
720.713	26.95
720.896	26.64
721.08	26.73
721.263	26.51
721.446	26.89
721.63	27.62
721.813	27.59
721.997	27.19
722.18	27.16
722.364	26.92
722.547	27.39
722.73	27.18
722.914	27.02
723.097	27.22
723.28	26.89
723.464	26.87
723.647	27.1
723.83	27.49
724.013	26.86
724.197	26.84
724.38	26.86
724.563	26.87
724.746	27.14
724.929	27.01
725.112	27.12
725.296	27.39
725.479	27.23
725.662	27.58
725.845	27.16
726.028	26.82
726.211	26.25
726.394	26.74
726.577	26.85
726.76	27.08
726.943	27.43
727.126	27.32
727.309	27.33
727.492	27.4
727.675	27.41
727.858	27.52
728.041	27.99
728.224	28.52
728.407	28.78
728.589	28.87
728.772	28.9
728.955	28.62
729.138	28.7
729.321	28.98
729.503	28.73
729.686	28.65
729.869	28.33
730.052	28.36
730.234	28.55
730.417	28.2
730.6	27.87
730.782	27.99
730.965	28.07
731.148	27.98
731.33	28.12
731.513	27.52
731.695	26.92
731.878	27.06
732.061	27.11
732.243	27.48
732.426	27.77
732.608	27.23
732.791	27.12
732.973	27.07
733.156	27.16
733.338	27.12
733.52	27.01
733.703	27.01
733.885	27.54
734.068	27.24
734.25	27.4
734.432	27.43
734.615	27.43
734.797	26.83
734.979	27.11
735.162	26.92
735.344	27.26
735.526	27.26
735.708	27.08
735.891	27.02
736.073	26.55
736.255	26.58
736.437	26.77
736.619	26.21
736.802	26.06
736.984	25.97
737.166	26.37
737.348	26.36
737.53	26.48
737.712	26.23
737.894	26.13
738.076	25.98
738.258	26.22
738.44	27.22
738.622	27.05
738.804	27.23
738.986	27.36
739.168	27.5
739.35	27.32
739.532	27.35
739.714	27.52
739.896	28.07
740.078	28.09
740.259	28.01
740.441	28.34
740.623	28.38
740.805	27.92
740.987	27.55
741.168	27.5
741.35	28.25
741.532	28.21
741.714	27.99
741.895	27.63
742.077	28
742.259	27.92
742.44	27.75
742.622	27.48
742.804	27.12
742.985	26.84
743.167	26.87
743.348	27.31
743.53	27.4
743.711	27.6
743.893	27.75
744.075	28.19
744.256	28.71
744.438	28.41
744.619	28.09
744.8	27.82
744.982	28.24
745.163	28.77
745.345	29.34
745.526	29.81
745.707	29.73
745.889	29.89
746.07	29.48
746.252	29.46
746.433	28.88
746.614	28.65
746.795	28.94
746.977	29.16
747.158	29.86
747.339	29.21
747.52	29.47
747.702	29.31
747.883	29.2
748.064	29.18
748.245	28.77
748.426	28.24
748.607	28.1
748.788	28.65
748.97	28.13
749.151	27.91
749.332	27.64
749.513	27.48
749.694	28.06
749.875	27.65
750.056	26.83
750.237	26.6
750.418	26.45
750.599	26.24
750.78	26.56
750.96	26.19
751.141	25.81
751.322	26.67
751.503	26.05
751.684	26.11
751.865	26.23
752.046	25.62
752.226	25.65
752.407	26.35
752.588	26.16
752.769	26.05
752.949	27.25
753.13	27.47
753.311	27.66
753.492	28.4
753.672	27.45
753.853	27.95
754.034	28.13
754.214	27.89
754.395	28.43
754.575	27.95
754.756	28.19
754.937	27.94
755.117	28.63
755.298	27.83
755.478	27.12
755.659	26.73
755.839	25.91
756.02	25.92
756.2	25.94
756.381	25.73
756.561	26.03
756.741	26.3
756.922	26.51
757.102	26.52
757.283	26.96
757.463	27.12
757.643	27.29
757.823	27.72
758.004	28.49
758.184	29.3
758.364	29.93
758.545	29.64
758.725	29.78
758.905	29.14
759.085	28.33
759.265	28.23
759.446	27.74
759.626	27.79
759.806	27.19
759.986	27.08
760.166	27.49
760.346	26.97
760.526	26.78
760.706	26.32
760.886	26.53
761.066	27.18
761.246	27.56
761.426	27.68
761.606	27.65
761.786	27.97
761.966	27.8
762.146	28.04
762.326	28.29
762.506	28.2
762.686	28.5
762.866	28.41
763.046	28.53
763.225	28.57
763.405	27.75
763.585	27.68
763.765	27.99
763.945	28
764.124	28.08
764.304	28.51
764.484	28.22
764.664	27.97
764.843	27.74
765.023	27.41
765.203	27.52
765.382	27.5
765.562	27.44
765.741	27.97
765.921	28.23
766.101	28.05
766.28	28.61
766.46	28.52
766.639	28.3
766.819	28.97
766.998	28.78
767.178	28.57
767.357	29.12
767.537	28.89
767.716	29.23
767.896	29.86
768.075	29.6
768.254	29.64
768.434	30.5
768.613	30.16
768.792	29.76
768.972	29.63
769.151	28.73
769.33	29.47
769.51	29.85
769.689	29.56
769.868	30.33
770.047	30.48
770.226	29.86
770.406	30.25
770.585	30.26
770.764	29.01
770.943	29.13
771.122	29.88
771.301	30.03
771.48	31
771.66	31.06
771.839	30.61
772.018	30.5
772.197	29.39
772.376	28.96
772.555	29.24
772.734	28.48
772.913	28.37
773.092	28.28
773.271	28.42
773.449	28.02
773.628	28.13
773.807	27.69
773.986	26.73
774.165	27.52
774.344	27.14
774.523	27.75
774.701	27.86
774.88	27.83
775.059	28.21
775.238	27.64
775.417	28.69
775.595	28.35
775.774	29.15
775.953	28.34
776.131	28.09
776.31	28.94
776.489	28.71
776.667	28.83
776.846	28.05
777.025	27.99
777.203	27.79
777.382	27.69
777.56	27.97
777.739	27.71
777.917	28.26
778.096	27.2
778.274	28.14
778.453	28.49
778.631	27.17
778.81	27.48
778.988	28.17
779.166	28.7
779.345	28.67
779.523	29.09
779.702	29.6
779.88	28.66
780.058	27.93
780.237	28.26
780.415	29.22
780.593	27.93
780.771	29.31
780.95	30.63
781.128	29.92
781.306	30.27
781.484	29.83
781.662	30.62
781.841	30.37
782.019	30.17
782.197	30.71
782.375	30.79
782.553	29.78
782.731	29.11
782.909	30.21
783.087	29.3
783.265	29
783.443	29.35
783.621	29.49
783.799	30.18
783.977	29.48
784.155	29.12
784.333	28.57
784.511	29.35
784.689	30.28
784.867	30.25
785.045	30.64
785.223	30.3
785.4	29.46
785.578	29.86
785.756	28.92
785.934	28.77
786.112	28.22
786.289	28.28
786.467	28.81
786.645	29.02
786.823	28.79
787	28.55
787.178	28.13
787.356	27.44
787.533	27.31
787.711	27.85
787.889	27.49
788.066	28.49
788.244	28.34
788.421	28.17
788.599	28.85
788.776	28.28
788.954	28.65
789.131	28.8
789.309	28.7
789.486	29.5
789.664	29.77
789.841	29.45
790.019	29.71
790.196	30.06
790.373	30.77
790.551	29.88
790.728	30.78
790.906	29.87
791.083	30.17
791.26	30.53
791.437	30.52
791.615	30.18
791.792	29.92
791.969	29.81
792.146	30.59
792.324	31.12
792.501	31.83
792.678	30.74
792.855	30.97
793.032	29.96
793.209	30.57
793.387	30.05
793.564	29.85
793.741	30.03
793.918	30.2
794.095	30.49
794.272	30.63
794.449	30.66
794.626	29.57
794.803	29.15
794.98	29.19
795.157	29.71
795.334	30.47
795.511	30.04
795.688	30.69
795.864	30.81
796.041	31.44
796.218	31.21
796.395	31.6
796.572	31.96
796.749	30.72
796.925	31.52
797.102	30.48
797.279	30.74
797.456	30.39
797.632	30.44
797.809	31.04
797.986	31.07
798.162	30.74
798.339	29.6
798.516	30.21
798.692	30.22
798.869	29.66
799.046	29.72
799.222	29.05
799.399	30.09
799.575	30.73
799.752	31.34
799.928	31.27
800.105	30.91
800.281	30.75
800.458	30.78
800.634	30.93
800.811	31.37
800.987	30.93
801.163	31.66
801.34	32.28
801.516	32.36
801.692	32.43
801.869	30.97
802.045	30.03
802.221	30.06
802.398	30.79
802.574	30.42
802.75	30.21
802.926	31.09
803.103	30.14
803.279	30.18
803.455	30.03
803.631	30.35
803.807	30.8
803.983	29.45
804.16	30.15
804.336	29.82
804.512	30.56
804.688	29.78
804.864	30.45
805.04	30.65
805.216	30.61
805.392	31.12
805.568	30.97
805.744	31.13
805.92	31.3
806.096	31.12
806.272	32.23
806.448	33.03
806.623	33.63
806.799	32.47
806.975	32.36
807.151	32.41
807.327	32.73
807.503	32.08
807.678	32.86
807.854	32.39
808.03	32.16
808.206	31.18
808.381	31.31
808.557	30.3
808.733	28.84
808.908	29.61
809.084	29.9
809.26	29.32
809.435	28.5
809.611	27.73
809.787	28.6
809.962	27.41
810.138	27.52
810.313	26.62
810.489	27.49
810.664	25.88
810.84	27.41
811.015	29.43
811.191	29.27
811.366	29.93
811.542	31.21
811.717	33.66
811.892	35.27
812.068	34.57
812.243	35.05
812.419	35.64
812.594	37.04
812.769	37.75
812.944	38.26
813.12	37.54
813.295	36.07
813.47	36.99
813.645	35.41
813.821	35.41
813.996	34.7
814.171	34.33
814.346	34.72
814.521	35.92
814.697	34.99
814.872	33.92
815.047	34.48
815.222	34.89
815.397	34.31
815.572	34.18
815.747	32.99
815.922	35.03
816.097	34.08
816.272	32.8
816.447	32.87
816.622	32.48
816.797	31.57
816.972	32.41
817.147	31.98
817.322	30.49
817.496	30.55
817.671	30.92
817.846	30.46
818.021	29.72
818.196	29
818.371	29.62
818.545	30.15
818.72	30.06
818.895	29.65
819.069	28.73
819.244	28.65
819.419	28.65
819.594	29.34
819.768	29.12
819.943	28.77
820.117	29.44
820.292	29.72
820.467	29.66
820.641	28.87
820.816	28.25
820.99	28.14
821.165	28.31
821.339	28.57
821.514	28.76
821.688	28.74
821.863	28.48
822.037	28.41
822.212	28.55
822.386	28.28
822.56	28.14
822.735	28.05
822.909	28.19
823.084	28.38
823.258	28.24
823.432	27.98
823.606	27.95
823.781	27.63
823.955	27.45
824.129	27.58
824.303	27.55
824.478	27.2
824.652	27.16
824.826	27.26
825	27.35
825.174	27.4
825.348	27.02
825.523	27.05
825.697	27.67
825.871	27.35
826.045	27.61
826.219	28.07
826.393	27.96
826.567	28.21
826.741	28.29
826.915	28.72
827.089	28.38
827.263	28.55
827.437	28.23
827.611	29.1
827.784	29.23
827.958	28.72
828.132	28.77
828.306	28.57
828.48	28.47
828.654	28.61
828.827	28.16
829.001	28.55
829.175	28.21
829.349	28.42
829.522	28.07
829.696	28.58
829.87	28.22
830.044	28.41
830.217	28.85
830.391	28.7
830.565	28.37
830.738	29.2
830.912	28.66
831.085	28.86
831.259	28.45
831.432	28.86
831.606	30.06
831.779	30.54
831.953	30.57
832.126	29.81
832.3	30.06
832.473	29.7
832.647	30.11
832.82	30.93
832.994	30.34
833.167	31.2
833.34	31.76
833.514	31.51
833.687	31.2
833.86	31.01
834.034	30.26
834.207	30.53
834.38	30.69
834.553	30.69
834.727	30.17
834.9	30.33
835.073	30.74
835.246	30.94
835.419	30.36
835.593	29.65
835.766	31.05
835.939	30.58
836.112	30.81
836.285	31.79
836.458	31.49
836.631	32.01
836.804	31.55
836.977	32.46
837.15	32.9
837.323	32.08
837.496	31.67
837.669	31.81
837.842	32.03
838.015	30.34
838.188	30.79
838.361	30.11
838.533	28.67
838.706	28.87
838.879	29.34
839.052	30.82
839.225	31.67
839.398	31.13
839.57	31.16
839.743	30.8
839.916	28.66
840.088	28.24
840.261	28.73
840.434	28.69
840.607	29.1
840.779	29.15
840.952	29.49
841.124	28.8
841.297	27.93
841.47	27.95
841.642	28.55
841.815	29.35
841.987	28.95
842.16	33.49
842.332	35.12
842.505	35.47
842.677	35.78
842.85	35.82
843.022	36.99
843.194	37.92
843.367	38.73
843.539	37.72
843.712	38.42
843.884	38.1
844.056	36.8
844.229	40.05
844.401	36.66
844.573	36.21
844.745	34.71
844.918	33.57
845.09	32.82
845.262	32.39
845.434	30.23
845.606	31.03
845.779	30.5
845.951	31.13
846.123	27.9
846.295	27.86
846.467	27.99
846.639	27.98
846.811	30.46
846.983	32.17
847.155	34.27
847.327	36.56
847.499	33.66
847.671	33.89
847.843	31.79
848.015	31.05
848.187	33.4
848.359	35.81
848.531	36.14
848.703	34.88
848.875	36.78
849.047	35.86
849.218	37.54
849.39	36.91
849.562	36.15
849.734	43.32
849.905	43.77
850.077	44.21
850.249	48.21
850.421	42.79
850.592	43.06
850.764	41.09
850.936	40.01
851.107	37.99
851.279	36.54
851.451	33.13
851.622	34.61
851.794	36.99
851.965	32.62
852.137	34.74
852.308	35.17
852.48	34.83
852.651	36.79
852.823	36.05
852.994	38.29
853.166	39.98
853.337	42.56
853.509	41.52
853.68	44.65
853.851	45.07
854.023	45.74
854.194	44.73
854.365	44.12
854.537	44.79
854.708	45.47
854.879	45.75
855.05	46.32
855.222	47.14
855.393	46.1
855.564	45.53
855.735	50.08
855.906	48.22
856.078	47.21
856.249	42.96
856.42	52.03
856.591	53.38
856.762	49.47
856.933	47.86
857.104	46.56
857.275	47.04
857.446	48.17
857.617	45.87
857.788	44.17
857.959	42.77
858.13	47.62
858.301	49.47
858.472	47.19
858.643	41.47
858.814	39.06
858.985	40.97
859.155	44.27
859.326	42
859.497	44.43
859.668	42.61
859.839	43.76
860.009	44.34
860.18	44.26
860.351	38.97
860.522	38.18
860.692	41.54
860.863	44.44
861.034	45.95
861.204	45.26
861.375	42.65
861.546	43.64
861.716	41.81
861.887	40.24
862.057	41.47
862.228	41.37
862.398	40.11
862.569	44.17
862.739	41.82
862.91	36.85
863.08	35.65
863.251	34.01
863.421	33.96
863.592	38.49
863.762	39
863.932	38.8
864.103	41.28
864.273	42.03
864.443	41.42
864.614	38.42
864.784	31.97
864.954	36.55
865.125	41.07
865.295	41.87
865.465	47.51
865.635	45.72
865.805	43.35
865.976	45.14
866.146	45.68
866.316	46.34
866.486	44.04
866.656	42.01
866.826	44.17
866.996	51.57
867.166	49.82
867.336	49.12
867.506	45.59
867.676	39.19
867.846	38.88
868.016	39.3
868.186	34.99
868.356	36.49
868.526	36.96
868.696	40.48
868.866	40.13
869.036	41.2
869.206	37.85
869.376	35.02
869.545	38.09
869.715	37.04
869.885	39.41
870.055	41.39
870.224	39.5
870.394	44.9
870.564	41.56
870.734	37
870.903	31.16
871.073	37.65
871.243	38.64
871.412	39.72
871.582	45.78
871.751	39.63
871.921	39.63
872.091	39.97
872.26	38.88
872.43	36.75
872.599	36.45
872.769	37.14
872.938	41.41
873.108	44.84
873.277	43.09
873.446	42.85
873.616	39.52
873.785	39.6
873.955	40.44
874.124	42.73
874.293	41.91
874.463	43.69
874.632	48.1
874.801	46.46
874.971	47.9
875.14	45.31
875.309	44.78
875.478	43.61
875.647	40.2
875.817	42.38
875.986	41.97
876.155	41.11
876.324	37.49
876.493	38.09
876.662	37
876.831	35.37
877	33
877.17	30.37
877.339	29.09
877.508	32.99
877.677	33.85
877.846	36.51
878.015	36.79
878.184	38.31
878.352	36.69
878.521	38.74
878.69	41.8
878.859	43.31
879.028	41.89
879.197	43.55
879.366	42.97
879.534	41.94
879.703	40.2
879.872	37.93
880.041	37.3
880.21	36.02
880.378	34.37
880.547	34.86
880.716	35.41
880.884	33.62
881.053	32.27
881.222	31.58
881.39	31.24
881.559	31.16
881.727	31.2
881.896	31.07
882.065	30.92
882.233	30.71
882.402	30.4
882.57	29.57
882.739	29.77
882.907	28.95
883.076	28.17
883.244	28.85
883.412	28.8
883.581	29.32
883.749	29.68
883.918	29.12
884.086	29.65
884.254	30.21
884.423	30.05
884.591	29.41
884.759	30.35
884.927	29.39
885.096	30.61
885.264	32.74
885.432	31.95
885.6	32.41
885.769	30.97
885.937	30.2
886.105	31.59
886.273	30.42
886.441	30.45
886.609	29.86
886.777	34.8
886.945	33.96
887.113	36
887.281	33.72
887.449	30.48
887.617	29.57
887.785	32.79
887.953	33.59
888.121	32.61
888.289	32.64
888.457	29.96
888.625	29.49
888.793	32.67
888.961	30.65
889.129	36.36
889.296	36.76
889.464	38.66
889.632	41.99
889.8	46.75
889.967	44.52
890.135	46.51
