Data from 2938489_Reflection_3.txt Node
Date: Wed Jun 17 00:50:00 EDT 2015
User: robert
Spectrometer: USB4E03002
Autoset integration time: false
Trigger mode: 4
Integration Time (sec): 1.000000E-1
Scans to average: 10
Electric dark correction enabled: true
Nonlinearity correction enabled: false
Boxcar width: 5
Stray light correction enabled: false
XAxis mode: Wavelengths
Stop averaging: false
Number of Pixels in Spectrum: 3648
>>>>>Begin Spectral Data<<<<<
177.575	4.71
177.794	586.9
178.014	-22.99
178.233	8.23
178.452	58.98
178.672	89.3
178.891	8.03
179.11	23.11
179.33	14.68
179.549	89.48
179.768	-0.2
179.987	9.14
180.207	51.9
180.426	117.91
180.645	142.32
180.864	152.4
181.084	85.32
181.303	94.35
181.522	80.51
181.741	105.18
181.96	130.91
182.179	1333.46
182.398	-3991.33
182.618	-382.36
182.837	-182.74
183.056	-158.07
183.275	-307.17
183.494	-260.96
183.713	-851.11
183.932	-473
184.151	186.47
184.37	1048.84
184.589	4971.83
184.808	-928.99
185.027	-250.85
185.246	2283.33
185.465	-251.2
185.684	-49.62
185.903	-35.19
186.122	-17.33
186.341	18.5
186.56	31.6
186.779	7.97
186.998	-53.5
187.216	-66.55
187.435	-44.96
187.654	-210.74
187.873	-16.44
188.092	59.27
188.311	2194.12
188.53	-220.68
188.748	10.23
188.967	40.76
189.186	-354.28
189.405	-1519.17
189.623	3268.61
189.842	-443.06
190.061	-1233.77
190.28	128.32
190.498	-272.02
190.717	-14.39
190.936	32.35
191.154	8.05
191.373	-44.51
191.592	-397.38
191.81	-334.45
192.029	-41.55
192.248	-38.89
192.466	0.29
192.685	201.34
192.904	3160.48
193.122	504.81
193.341	-0.49
193.559	-70.86
193.778	-284.25
193.996	-169.45
194.215	-67.8
194.433	29.87
194.652	30.69
194.87	66.64
195.089	115.23
195.307	376.88
195.526	-1181.56
195.744	-140.49
195.963	-52.57
196.181	-121.52
196.399	-47.86
196.618	-55.09
196.836	-32.16
197.055	-56.87
197.273	-27.52
197.491	9.82
197.71	23.56
197.928	58.75
198.146	-1003.77
198.365	-131.86
198.583	-554.01
198.801	38.39
199.019	117.82
199.238	-102.92
199.456	2536.11
199.674	822.87
199.892	-28.43
200.111	-31.2
200.329	16.65
200.547	197.69
200.765	106.18
200.983	86.02
201.202	47.3
201.42	3.56
201.638	753.13
201.856	23.93
202.074	37.71
202.292	44.1
202.51	55.41
202.728	6.99
202.946	829.02
203.165	-1325.55
203.383	-34.6
203.601	-254.97
203.819	-11.75
204.037	-89.54
204.255	123.27
204.473	65.33
204.691	68.53
204.909	34.59
205.127	-100
205.345	317.42
205.562	1498.29
205.78	177.66
205.998	595.28
206.216	723.59
206.434	294.87
206.652	250.52
206.87	156.14
207.088	153.99
207.306	184.56
207.523	149.2
207.741	-473.45
207.959	361.41
208.177	-986.98
208.395	-761.75
208.612	1795.33
208.83	-109.75
209.048	-31.12
209.266	-25.56
209.483	24.33
209.701	-20.32
209.919	6.08
210.136	-6.46
210.354	59.68
210.572	81.61
210.79	44.58
211.007	53.28
211.225	82.62
211.442	52.97
211.66	63.22
211.878	36.97
212.095	124.71
212.313	104.11
212.53	104.8
212.748	96.27
212.966	84.31
213.183	93.41
213.401	89.63
213.618	81.26
213.836	86.49
214.053	73.49
214.271	93.94
214.488	-13.55
214.705	2.28
214.923	8.21
215.14	12.69
215.358	-4.61
215.575	-6.61
215.793	-27.25
216.01	-23
216.227	-17.06
216.445	-4.27
216.662	-24.94
216.879	-30.42
217.097	-26.36
217.314	-22.61
217.531	-57.04
217.749	-75.11
217.966	-61.59
218.183	-26.48
218.4	-43.52
218.618	-57.14
218.835	-45.03
219.052	-59.44
219.269	-58.27
219.487	-37.85
219.704	-23.22
219.921	-18.91
220.138	-9.01
220.355	2.26
220.572	-12.57
220.79	5.3
221.007	14.15
221.224	8.5
221.441	12.7
221.658	20.6
221.875	17.26
222.092	19.54
222.309	18.21
222.526	18.01
222.743	17.64
222.96	15.75
223.177	11.1
223.394	8.97
223.611	7.27
223.828	4.1
224.045	2.94
224.262	5.52
224.479	-4.53
224.696	-3.07
224.913	3.3
225.13	2.8
225.347	6.33
225.564	6.64
225.781	8.64
225.997	9.05
226.214	11.39
226.431	10.38
226.648	11.73
226.865	12.15
227.082	12.45
227.298	10.98
227.515	10.23
227.732	10.29
227.949	10.9
228.165	10.66
228.382	9.9
228.599	9.07
228.816	9.61
229.032	9.51
229.249	9.21
229.466	9.17
229.682	7.85
229.899	8.79
230.116	7.64
230.332	8.49
230.549	7.33
230.765	8.52
230.982	5.77
231.199	4.57
231.415	1.27
231.632	5.07
231.848	5.5
232.065	10.34
232.281	11.03
232.498	11.21
232.714	9.33
232.931	10.44
233.147	10.59
233.364	13.5
233.58	13.33
233.797	14.7
234.013	12.66
234.23	13.26
234.446	10.03
234.662	9
234.879	11.64
235.095	12.51
235.312	12.62
235.528	12.56
235.744	10.64
235.961	10.32
236.177	9.31
236.393	9.28
236.61	7.53
236.826	9.55
237.042	8.92
237.258	7.57
237.475	9.81
237.691	9.31
237.907	9.76
238.123	10.09
238.339	11.77
238.556	13.31
238.772	12.25
238.988	12.17
239.204	11.31
239.42	12.59
239.636	12.22
239.853	11.09
240.069	11.43
240.285	11.02
240.501	11.5
240.717	10.69
240.933	10.04
241.149	10.64
241.365	9.92
241.581	9.36
241.797	8.88
242.013	8.31
242.229	7.35
242.445	7.21
242.661	7.59
242.877	7.51
243.093	8.29
243.309	7.82
243.525	8.37
243.741	9.31
243.957	10.04
244.173	10.07
244.388	10.54
244.604	11.32
244.82	11.1
245.036	10.98
245.252	10.95
245.468	10.71
245.683	10.97
245.899	10.56
246.115	10.71
246.331	10.65
246.547	10.36
246.762	10.52
246.978	10.27
247.194	10.06
247.409	10.12
247.625	10.22
247.841	9.93
248.057	10.16
248.272	10.79
248.488	10.49
248.703	10.98
248.919	10.91
249.135	10
249.35	10.41
249.566	10.72
249.782	10.25
249.997	9.77
250.213	9.55
250.428	8.49
250.644	7.97
250.859	7.72
251.075	6.89
251.29	7.2
251.506	6.71
251.721	6.78
251.937	6.39
252.152	6.25
252.368	6.18
252.583	7.34
252.798	9.18
253.014	8.19
253.229	9.42
253.445	10.01
253.66	10.69
253.875	12.28
254.091	11.78
254.306	10.83
254.521	11.45
254.737	11.31
254.952	9.65
255.167	8.4
255.383	8.72
255.598	8.88
255.813	8.54
256.028	7.94
256.244	7.93
256.459	7.65
256.674	8.11
256.889	8.15
257.104	7.96
257.32	7.95
257.535	7.55
257.75	7.78
257.965	7.01
258.18	7.18
258.395	7.22
258.61	7.06
258.826	7.28
259.041	7.08
259.256	6.76
259.471	6.82
259.686	6.96
259.901	6.93
260.116	7.04
260.331	7.26
260.546	7.25
260.761	7.26
260.976	7.1
261.191	6.57
261.406	7.59
261.621	7.6
261.836	6.84
262.05	6.57
262.265	7.3
262.48	7.25
262.695	7.07
262.91	6.87
263.125	6.72
263.34	6.96
263.555	7.03
263.769	5.91
263.984	5.49
264.199	6.18
264.414	6.25
264.629	6.67
264.843	6.39
265.058	6.77
265.273	7.22
265.488	7.36
265.702	7.87
265.917	8.33
266.132	9.06
266.346	9.39
266.561	9.34
266.776	9.14
266.99	8.57
267.205	8.26
267.42	8.27
267.634	7.43
267.849	7.44
268.063	6.74
268.278	6.48
268.492	5.85
268.707	5.78
268.922	5.84
269.136	6.3
269.351	6.22
269.565	6.64
269.78	6.49
269.994	7.18
270.209	7.22
270.423	7.04
270.637	6.97
270.852	6.81
271.066	6.83
271.281	7.45
271.495	7.47
271.709	7.52
271.924	7.53
272.138	7.39
272.353	7.06
272.567	6.65
272.781	7.08
272.996	7.07
273.21	7.64
273.424	7.37
273.638	6.57
273.853	6.46
274.067	5.83
274.281	5.53
274.495	5.77
274.71	5.55
274.924	5.99
275.138	6.03
275.352	6.12
275.566	5.73
275.781	6.21
275.995	6.58
276.209	6.31
276.423	6.72
276.637	6.46
276.851	6.52
277.065	6.86
277.279	5.98
277.493	5.99
277.707	5.98
277.921	6.1
278.135	6.12
278.349	6.02
278.563	6.68
278.777	6.56
278.991	7.49
279.205	7.06
279.419	6.99
279.633	7.71
279.847	7.5
280.061	7.75
280.275	7.68
280.489	7.75
280.703	7.69
280.917	7.5
281.131	7.72
281.344	7.57
281.558	7.91
281.772	7.59
281.986	7.71
282.2	7.68
282.414	7.55
282.627	7.48
282.841	7.65
283.055	7.48
283.269	7.4
283.482	7.69
283.696	7.27
283.91	7.05
284.123	7.09
284.337	6.73
284.551	6.54
284.764	6.49
284.978	6.53
285.192	6.33
285.405	6.29
285.619	6.44
285.833	6.62
286.046	6.93
286.26	7.33
286.473	7.67
286.687	8.11
286.9	8.55
287.114	8.67
287.327	8.35
287.541	8.57
287.754	8.59
287.968	7.92
288.181	7.65
288.395	7.82
288.608	7.82
288.822	7.98
289.035	8.01
289.248	8.05
289.462	8.15
289.675	8.61
289.889	8.44
290.102	8.83
290.315	9.49
290.529	9.56
290.742	8.74
290.955	8.86
291.169	8.91
291.382	9.21
291.595	9.12
291.808	9.16
292.022	9.12
292.235	9.4
292.448	9.07
292.661	8.87
292.875	8.99
293.088	9.42
293.301	9.02
293.514	9.18
293.727	8.73
293.94	8.83
294.153	8.94
294.367	9.17
294.58	9.14
294.793	9.27
295.006	9.38
295.219	9.39
295.432	9.84
295.645	9.91
295.858	9.67
296.071	9.7
296.284	10.05
296.497	9.85
296.71	9.72
296.923	9.45
297.136	9.48
297.349	9.67
297.562	9.62
297.775	9.3
297.988	9.82
298.201	9.82
298.414	10.03
298.626	9.9
298.839	10.05
299.052	10.57
299.265	10.78
299.478	10.44
299.691	10.64
299.903	10.96
300.116	11.01
300.329	10.68
300.542	10.7
300.755	10.77
300.967	10.39
301.18	10.49
301.393	10.25
301.605	10.1
301.818	10.48
302.031	10.1
302.243	9.87
302.456	10.15
302.669	10.32
302.881	10.73
303.094	10.92
303.307	11.03
303.519	10.94
303.732	11.04
303.944	11.76
304.157	12.17
304.37	12.5
304.582	13.07
304.795	13.16
305.007	12.79
305.22	13.18
305.432	13.1
305.645	13.61
305.857	13.71
306.069	13.45
306.282	12.66
306.494	12.26
306.707	12.09
306.919	11.8
307.132	11.84
307.344	11.99
307.556	11.48
307.769	11.46
307.981	10.94
308.193	10.98
308.406	11.22
308.618	11.75
308.83	11.84
309.043	12.03
309.255	12.04
309.467	11.9
309.679	12.1
309.892	12.53
310.104	12.42
310.316	12.86
310.528	12.98
310.74	12.7
310.953	12.53
311.165	12.42
311.377	12.29
311.589	12.37
311.801	12.43
312.013	12.71
312.225	12.79
312.437	12.84
312.649	12.82
312.862	13.2
313.074	13.61
313.286	13.29
313.498	13.16
313.71	13.38
313.922	13.37
314.134	13.61
314.346	13.16
314.558	12.46
314.77	12.65
314.982	12.65
315.193	12.32
315.405	12.24
315.617	12.74
315.829	13.34
316.041	13.54
316.253	13.61
316.465	13.76
316.677	13.89
316.888	14.3
317.1	14.78
317.312	14.57
317.524	14.54
317.736	14.2
317.947	14.27
318.159	14.01
318.371	14.09
318.583	14.32
318.794	13.67
319.006	14.09
319.218	13.58
319.43	13.45
319.641	13.51
319.853	13.42
320.064	13.28
320.276	13.17
320.488	13.14
320.699	12.64
320.911	12.42
321.123	12.67
321.334	12.58
321.546	12.97
321.757	12.53
321.969	12.9
322.18	12.77
322.392	13.55
322.603	13.86
322.815	14.19
323.026	14.37
323.238	14.69
323.449	14.73
323.661	14.55
323.872	15
324.083	15.52
324.295	15.73
324.506	16.2
324.718	15.99
324.929	15.79
325.14	15.81
325.352	16.04
325.563	15.84
325.774	15.71
325.986	16.24
326.197	16.25
326.408	16.13
326.62	16.56
326.831	16.69
327.042	17.18
327.253	17.47
327.464	17.86
327.676	18.27
327.887	18.22
328.098	18.53
328.309	18.79
328.52	18.63
328.732	19.21
328.943	18.84
329.154	18.89
329.365	18.97
329.576	19.17
329.787	18.97
329.998	18.94
330.209	19.26
330.42	19.86
330.631	19.78
330.842	20.17
331.053	19.89
331.264	19.82
331.475	20.2
331.686	20.25
331.897	20.46
332.108	20.74
332.319	20.85
332.53	21.44
332.741	21.69
332.952	21.96
333.163	22.26
333.374	22.26
333.585	22.69
333.795	22.65
334.006	22.57
334.217	22.65
334.428	22.76
334.639	22.51
334.849	21.99
335.06	21.53
335.271	21.55
335.482	21.67
335.692	21.86
335.903	21.64
336.114	21.39
336.325	21.53
336.535	21.57
336.746	21.47
336.957	21.64
337.167	21.68
337.378	21.6
337.589	21.38
337.799	20.9
338.01	20.83
338.22	20.82
338.431	21.28
338.642	21.19
338.852	20.96
339.063	20.96
339.273	21.09
339.484	21.24
339.694	21.2
339.905	21.47
340.115	21.56
340.326	21.85
340.536	22.09
340.746	21.62
340.957	21.62
341.167	21.82
341.378	22.18
341.588	22.11
341.799	22.02
342.009	22.41
342.219	21.94
342.43	22.07
342.64	22.04
342.85	22.01
343.061	22.02
343.271	22.29
343.481	22.02
343.691	21.88
343.902	21.93
344.112	22.28
344.322	22.29
344.532	22.54
344.743	22.64
344.953	22.53
345.163	22.38
345.373	22.35
345.583	22.11
345.793	22.33
346.004	22.08
346.214	21.94
346.424	21.66
346.634	21.58
346.844	21.49
347.054	21.26
347.264	21.13
347.474	21.26
347.684	21.53
347.894	21.53
348.104	21.44
348.314	21.6
348.524	21.52
348.734	21.72
348.944	21.68
349.154	21.8
349.364	21.68
349.574	21.8
349.784	21.84
349.994	21.59
350.204	21.7
350.413	21.94
350.623	21.83
350.833	21.9
351.043	21.32
351.253	21.07
351.463	20.88
351.672	21.12
351.882	20.98
352.092	20.87
352.302	21.25
352.511	21.1
352.721	21.14
352.931	21
353.141	20.95
353.35	21.28
353.56	21.46
353.77	21.27
353.979	21.05
354.189	21.1
354.399	20.9
354.608	20.55
354.818	20.77
355.027	20.51
355.237	20.7
355.447	20.69
355.656	20.71
355.866	20.58
356.075	20.36
356.285	20.45
356.494	20.36
356.704	20.46
356.913	20.55
357.123	20.43
357.332	20.46
357.542	20.36
357.751	20.25
357.96	20.14
358.17	20.38
358.379	20.81
358.589	20.9
358.798	20.91
359.007	20.89
359.217	20.94
359.426	20.78
359.635	20.51
359.845	20.34
360.054	20.6
360.263	20.57
360.472	20.4
360.682	20.26
360.891	19.97
361.1	19.75
361.309	19.62
361.519	19.48
361.728	19.46
361.937	19.65
362.146	19.89
362.355	19.73
362.564	19.79
362.774	19.59
362.983	19.37
363.192	19.56
363.401	19.79
363.61	19.99
363.819	20.16
364.028	20.04
364.237	20.07
364.446	19.85
364.655	19.96
364.864	19.79
365.073	19.93
365.282	20.05
365.491	20.17
365.7	20.1
365.909	20.02
366.118	19.8
366.327	19.98
366.536	19.96
366.745	20.02
366.954	19.64
367.162	19.51
367.371	19.29
367.58	19.24
367.789	19.2
367.998	19.03
368.207	18.9
368.415	18.8
368.624	18.55
368.833	18.12
369.042	18.08
369.25	18.28
369.459	18.33
369.668	18.63
369.877	18.79
370.085	18.54
370.294	18.5
370.503	18.46
370.711	18.82
370.92	18.98
371.129	19.24
371.337	19.48
371.546	19.25
371.754	19.3
371.963	19.27
372.171	19.33
372.38	19.23
372.589	19.47
372.797	19.56
373.006	19.43
373.214	19.57
373.423	19.58
373.631	19.39
373.84	19.58
374.048	19.28
374.256	19.2
374.465	18.96
374.673	18.92
374.882	18.94
375.09	18.63
375.298	18.41
375.507	18.07
375.715	18.05
375.923	17.74
376.132	17.42
376.34	17.5
376.548	17.59
376.757	17.49
376.965	17.68
377.173	17.5
377.381	17.75
377.59	17.83
377.798	17.81
378.006	17.78
378.214	17.76
378.423	17.75
378.631	18
378.839	17.89
379.047	17.99
379.255	17.58
379.463	17.52
379.671	17.48
379.879	17.6
380.088	17.69
380.296	17.7
380.504	18.08
380.712	18.35
380.92	18.23
381.128	18.1
381.336	17.9
381.544	17.97
381.752	18.1
381.96	17.82
382.168	17.47
382.376	17.43
382.584	17.1
382.791	16.84
382.999	16.59
383.207	16.37
383.415	16.46
383.623	16.62
383.831	16.53
384.039	16.26
384.247	16.08
384.454	16.05
384.662	15.77
384.87	16.1
385.078	15.99
385.285	15.87
385.493	15.9
385.701	15.7
385.909	15.57
386.116	15.71
386.324	15.71
386.532	15.98
386.739	16.17
386.947	16.28
387.155	16.2
387.362	16.05
387.57	16.22
387.778	16.24
387.985	16.4
388.193	16.55
388.4	16.48
388.608	16.5
388.816	16.31
389.023	16.14
389.231	16.1
389.438	16.13
389.646	16.33
389.853	16.36
390.061	16.34
390.268	16.16
390.475	16.04
390.683	16.09
390.89	16.11
391.098	16.4
391.305	16.46
391.512	16.49
391.72	16.32
391.927	16.29
392.135	16.04
392.342	16.06
392.549	16.21
392.756	15.97
392.964	15.86
393.171	15.93
393.378	15.66
393.586	15.46
393.793	15.39
394	15.36
394.207	15.31
394.414	15.44
394.622	15.33
394.829	15.22
395.036	15.6
395.243	15.78
395.45	15.5
395.657	15.49
395.864	15.54
396.072	15.54
396.279	15.46
396.486	15.54
396.693	15.43
396.9	15.54
397.107	15.34
397.314	15.3
397.521	14.89
397.728	14.98
397.935	15.29
398.142	15.23
398.349	15.37
398.556	15.5
398.763	15.19
398.97	15.14
399.177	15.02
399.383	15.17
399.59	15.04
399.797	15.17
400.004	15.17
400.211	14.95
400.418	14.69
400.625	14.4
400.831	14.34
401.038	14.57
401.245	14.62
401.452	14.69
401.658	14.59
401.865	14.36
402.072	14.44
402.279	14.48
402.485	14.4
402.692	14.68
402.899	14.81
403.105	14.67
403.312	14.62
403.519	14.66
403.725	14.49
403.932	14.48
404.138	14.56
404.345	14.4
404.552	14.44
404.758	14.37
404.965	14.13
405.171	14.06
405.378	14.03
405.584	14.01
405.791	13.95
405.997	14.09
406.204	14.04
406.41	14.03
406.617	14.09
406.823	13.87
407.029	13.94
407.236	14.02
407.442	14.12
407.649	14.33
407.855	14.37
408.061	14.29
408.268	14.1
408.474	14.18
408.68	14.12
408.887	14.14
409.093	14.19
409.299	14.2
409.505	14.2
409.712	14.17
409.918	14.23
410.124	14.14
410.33	14.2
410.537	14.28
410.743	14.24
410.949	14.2
411.155	14.17
411.361	14.04
411.567	13.9
411.773	13.94
411.98	13.81
412.186	13.55
412.392	13.52
412.598	13.48
412.804	13.51
413.01	13.52
413.216	13.7
413.422	13.64
413.628	13.77
413.834	13.72
414.04	13.64
414.246	13.63
414.452	13.73
414.658	13.67
414.864	13.69
415.07	13.59
415.275	13.63
415.481	13.52
415.687	13.47
415.893	13.36
416.099	13.34
416.305	13.33
416.511	13.22
416.716	13.12
416.922	13.26
417.128	13.11
417.334	13.11
417.539	12.99
417.745	12.96
417.951	12.99
418.157	13.06
418.362	12.94
418.568	12.93
418.774	12.91
418.979	12.92
419.185	12.84
419.391	12.91
419.596	12.9
419.802	12.88
420.008	12.85
420.213	12.85
420.419	12.81
420.624	12.89
420.83	12.91
421.035	12.98
421.241	12.98
421.446	12.85
421.652	12.75
421.857	12.66
422.063	12.6
422.268	12.62
422.474	12.61
422.679	12.55
422.885	12.5
423.09	12.45
423.295	12.43
423.501	12.31
423.706	12.34
423.911	12.33
424.117	12.43
424.322	12.47
424.527	12.39
424.733	12.33
424.938	12.34
425.143	12.38
425.349	12.41
425.554	12.37
425.759	12.44
425.964	12.46
426.169	12.46
426.375	12.34
426.58	12.44
426.785	12.51
426.99	12.49
427.195	12.38
427.4	12.29
427.605	12.29
427.811	12.34
428.016	12.36
428.221	12.29
428.426	12.3
428.631	12.3
428.836	12.15
429.041	12.21
429.246	12.19
429.451	12.29
429.656	12.39
429.861	12.37
430.066	12.32
430.271	12.33
430.476	12.47
430.681	12.5
430.886	12.59
431.09	12.63
431.295	12.62
431.5	12.78
431.705	12.79
431.91	12.72
432.115	12.59
432.32	12.51
432.524	12.47
432.729	12.31
432.934	12.29
433.139	12.3
433.343	12.38
433.548	12.27
433.753	12.2
433.958	12.27
434.162	12.19
434.367	12.26
434.572	12.26
434.776	12.35
434.981	12.39
435.186	12.42
435.39	12.45
435.595	12.38
435.799	12.56
436.004	12.45
436.209	12.34
436.413	12.39
436.618	12.4
436.822	12.42
437.027	12.45
437.231	12.48
437.436	12.41
437.64	12.22
437.845	12.14
438.049	12.08
438.253	12.1
438.458	12.13
438.662	12.11
438.867	12.08
439.071	12.03
439.275	11.88
439.48	11.83
439.684	11.9
439.888	11.94
440.093	11.92
440.297	11.87
440.501	11.83
440.706	11.92
440.91	11.86
441.114	11.93
441.318	12.04
441.523	12.06
441.727	12.11
441.931	12.04
442.135	12.05
442.339	12.03
442.543	12.06
442.748	12.1
442.952	11.99
443.156	12.12
443.36	12.08
443.564	11.99
443.768	11.94
443.972	11.92
444.176	11.94
444.38	11.96
444.584	11.93
444.788	11.97
444.992	11.94
445.196	11.85
445.4	11.73
445.604	11.76
445.808	11.83
446.012	11.86
446.216	11.91
446.42	11.78
446.624	11.72
446.828	11.66
447.032	11.62
447.235	11.64
447.439	11.71
447.643	11.81
447.847	11.7
448.051	11.62
448.254	11.66
448.458	11.58
448.662	11.74
448.866	11.8
449.069	11.92
449.273	11.93
449.477	11.89
449.681	11.82
449.884	11.7
450.088	11.75
450.292	11.79
450.495	11.75
450.699	11.74
450.902	11.74
451.106	11.81
451.31	11.68
451.513	11.56
451.717	11.54
451.92	11.61
452.124	11.69
452.327	11.72
452.531	11.64
452.734	11.64
452.938	11.69
453.141	11.58
453.345	11.43
453.548	11.54
453.752	11.61
453.955	11.55
454.158	11.55
454.362	11.47
454.565	11.42
454.769	11.47
454.972	11.47
455.175	11.44
455.379	11.47
455.582	11.61
455.785	11.66
455.988	11.63
456.192	11.61
456.395	11.62
456.598	11.72
456.801	11.71
457.005	11.8
457.208	11.67
457.411	11.64
457.614	11.64
457.817	11.56
458.021	11.49
458.224	11.48
458.427	11.47
458.63	11.46
458.833	11.39
459.036	11.39
459.239	11.32
459.442	11.44
459.645	11.51
459.848	11.5
460.051	11.52
460.254	11.59
460.457	11.7
460.66	11.83
460.863	11.83
461.066	12
461.269	12
461.472	12.12
461.675	12.15
461.878	12.12
462.081	12.08
462.284	12.04
462.486	12.03
462.689	11.95
462.892	11.86
463.095	11.82
463.298	11.75
463.5	11.79
463.703	11.76
463.906	11.69
464.109	11.67
464.311	11.83
464.514	11.78
464.717	11.81
464.92	11.79
465.122	11.86
465.325	11.92
465.528	11.9
465.73	11.92
465.933	11.87
466.135	11.94
466.338	11.91
466.541	11.91
466.743	12
466.946	12.02
467.148	12.13
467.351	12.18
467.553	12.28
467.756	12.35
467.958	12.36
468.161	12.26
468.363	12.33
468.566	12.49
468.768	12.56
468.971	12.67
469.173	12.56
469.375	12.5
469.578	12.47
469.78	12.4
469.983	12.36
470.185	12.39
470.387	12.68
470.59	12.58
470.792	12.59
470.994	12.5
471.196	12.43
471.399	12.46
471.601	12.42
471.803	12.38
472.005	12.4
472.208	12.49
472.41	12.47
472.612	12.35
472.814	12.31
473.016	12.17
473.218	12.21
473.421	12.13
473.623	12.25
473.825	12.35
474.027	12.43
474.229	12.42
474.431	12.36
474.633	12.32
474.835	12.33
475.037	12.37
475.239	12.5
475.441	12.54
475.643	12.61
475.845	12.62
476.047	12.6
476.249	12.59
476.451	12.57
476.653	12.64
476.855	12.67
477.057	12.7
477.258	12.7
477.46	12.67
477.662	12.57
477.864	12.59
478.066	12.62
478.268	12.54
478.469	12.47
478.671	12.44
478.873	12.35
479.075	12.31
479.276	12.23
479.478	12.29
479.68	12.24
479.882	12.24
480.083	12.21
480.285	12.14
480.487	12.19
480.688	12.24
480.89	12.23
481.091	12.17
481.293	12.13
481.495	12.09
481.696	12.03
481.898	12.02
482.099	12.01
482.301	11.97
482.502	11.95
482.704	11.9
482.905	11.89
483.107	11.88
483.308	11.91
483.51	11.93
483.711	11.96
483.913	11.98
484.114	12.01
484.315	12
484.517	12.04
484.718	12.06
484.92	12.07
485.121	12.03
485.322	12.04
485.524	12.04
485.725	12.02
485.926	11.98
486.127	11.93
486.329	11.88
486.53	11.89
486.731	11.9
486.932	11.9
487.134	11.91
487.335	11.96
487.536	11.95
487.737	11.95
487.938	12
488.139	12.05
488.341	12.08
488.542	12.1
488.743	12.09
488.944	12.12
489.145	12.14
489.346	12.24
489.547	12.21
489.748	12.24
489.949	12.26
490.15	12.21
490.351	12.23
490.552	12.27
490.753	12.3
490.954	12.33
491.155	12.31
491.356	12.33
491.557	12.3
491.758	12.35
491.959	12.36
492.159	12.34
492.36	12.42
492.561	12.42
492.762	12.49
492.963	12.55
493.164	12.61
493.364	12.66
493.565	12.66
493.766	12.61
493.967	12.66
494.167	12.7
494.368	12.81
494.569	12.77
494.769	12.87
494.97	12.9
495.171	12.93
495.371	13.01
495.572	13.02
495.773	13.08
495.973	13.16
496.174	13.09
496.375	13.06
496.575	13.12
496.776	13.21
496.976	13.21
497.177	13.17
497.377	13.18
497.578	13.15
497.778	13.17
497.979	13.23
498.179	13.32
498.38	13.42
498.58	13.55
498.78	13.5
498.981	13.57
499.181	13.53
499.382	13.6
499.582	13.68
499.782	13.77
499.983	13.82
500.183	13.81
500.383	13.81
500.584	13.84
500.784	13.86
500.984	13.94
501.184	13.94
501.385	14.04
501.585	14.12
501.785	14.17
501.985	14.13
502.185	14.3
502.386	14.41
502.586	14.52
502.786	14.5
502.986	14.54
503.186	14.57
503.386	14.6
503.586	14.59
503.786	14.62
503.987	14.64
504.187	14.75
504.387	14.7
504.587	14.71
504.787	14.62
504.987	14.76
505.187	14.76
505.387	14.83
505.587	14.82
505.786	14.89
505.986	14.95
506.186	14.87
506.386	14.88
506.586	14.97
506.786	14.93
506.986	14.98
507.186	14.96
507.386	15.03
507.585	15
507.785	15.05
507.985	15.11
508.185	15.2
508.384	15.27
508.584	15.34
508.784	15.33
508.984	15.44
509.183	15.6
509.383	15.8
509.583	15.87
509.782	15.99
509.982	16.12
510.182	16.22
510.381	16.24
510.581	16.35
510.781	16.43
510.98	16.47
511.18	16.5
511.379	16.44
511.579	16.34
511.778	16.39
511.978	16.35
512.177	16.37
512.377	16.35
512.576	16.32
512.776	16.33
512.975	16.36
513.175	16.37
513.374	16.39
513.573	16.47
513.773	16.52
513.972	16.6
514.172	16.72
514.371	16.78
514.57	16.81
514.77	16.9
514.969	16.95
515.168	17.04
515.367	17.07
515.567	17.18
515.766	17.24
515.965	17.36
516.164	17.32
516.364	17.34
516.563	17.31
516.762	17.4
516.961	17.43
517.16	17.53
517.359	17.55
517.559	17.65
517.758	17.66
517.957	17.66
518.156	17.67
518.355	17.74
518.554	17.81
518.753	17.87
518.952	17.91
519.151	17.93
519.35	17.94
519.549	17.97
519.748	18
519.947	18.03
520.146	18.07
520.345	18.02
520.544	18.05
520.743	18.03
520.942	18.18
521.141	18.2
521.339	18.31
521.538	18.42
521.737	18.52
521.936	18.6
522.135	18.7
522.333	18.73
522.532	18.81
522.731	18.8
522.93	18.86
523.129	18.78
523.327	18.73
523.526	18.69
523.725	18.64
523.923	18.65
524.122	18.61
524.321	18.56
524.519	18.6
524.718	18.6
524.917	18.63
525.115	18.62
525.314	18.71
525.512	18.74
525.711	18.8
525.909	18.83
526.108	18.84
526.306	18.82
526.505	18.88
526.703	18.94
526.902	18.98
527.1	18.98
527.299	19.02
527.497	18.98
527.696	18.96
527.894	19
528.092	19
528.291	19.01
528.489	19.06
528.688	19.08
528.886	19.07
529.084	19.13
529.283	19.21
529.481	19.22
529.679	19.27
529.877	19.43
530.076	19.42
530.274	19.53
530.472	19.57
530.67	19.63
530.869	19.61
531.067	19.65
531.265	19.62
531.463	19.56
531.661	19.63
531.859	19.68
532.057	19.69
532.255	19.72
532.454	19.69
532.652	19.68
532.85	19.73
533.048	19.77
533.246	19.85
533.444	19.93
533.642	20.01
533.84	20
534.038	20.03
534.236	20.05
534.434	20.02
534.632	20.07
534.83	20.15
535.027	20.12
535.225	20.11
535.423	19.99
535.621	19.96
535.819	19.94
536.017	20
536.215	19.96
536.412	19.98
536.61	20.02
536.808	20
537.006	20.04
537.203	20.13
537.401	20.19
537.599	20.32
537.797	20.37
537.994	20.49
538.192	20.51
538.39	20.63
538.587	20.64
538.785	20.71
538.983	20.74
539.18	20.69
539.378	20.64
539.575	20.57
539.773	20.58
539.97	20.56
540.168	20.55
540.366	20.57
540.563	20.52
540.761	20.54
540.958	20.55
541.155	20.56
541.353	20.61
541.55	20.59
541.748	20.68
541.945	20.72
542.143	20.77
542.34	20.81
542.537	20.8
542.735	20.82
542.932	20.86
543.129	20.9
543.327	20.97
543.524	20.98
543.721	21.11
543.919	21.16
544.116	21.17
544.313	21.22
544.51	21.31
544.708	21.33
544.905	21.4
545.102	21.43
545.299	21.45
545.496	21.45
545.693	21.53
545.891	21.53
546.088	21.52
546.285	21.49
546.482	21.49
546.679	21.5
546.876	21.65
547.073	21.72
547.27	21.76
547.467	21.84
547.664	21.82
547.861	21.82
548.058	21.92
548.255	22
548.452	22.21
548.649	22.26
548.846	22.22
549.043	22.11
549.24	22.13
549.437	22.06
549.633	21.99
549.83	22.09
550.027	22.1
550.224	22.08
550.421	22.06
550.618	22.01
550.814	22.03
551.011	22.1
551.208	22.17
551.405	22.21
551.601	22.35
551.798	22.47
551.995	22.45
552.191	22.45
552.388	22.48
552.585	22.59
552.781	22.52
552.978	22.68
553.175	22.74
553.371	22.75
553.568	22.94
553.764	22.94
553.961	22.98
554.157	23.09
554.354	23.24
554.55	23.24
554.747	23.26
554.943	23.35
555.14	23.29
555.336	23.28
555.533	23.31
555.729	23.19
555.926	23.22
556.122	23.15
556.318	23.14
556.515	23.08
556.711	23.08
556.907	23.08
557.104	23.29
557.3	23.22
557.496	23.16
557.693	23.18
557.889	23.11
558.085	23.05
558.281	23.14
558.478	23.08
558.674	23.11
558.87	23.27
559.066	23.31
559.262	23.24
559.459	23.35
559.655	23.5
559.851	23.68
560.047	23.83
560.243	23.92
560.439	23.91
560.635	24
560.831	24.07
561.027	24.03
561.223	24.1
561.419	24.1
561.615	24.09
561.811	24.07
562.007	23.97
562.203	23.99
562.399	24.11
562.595	24.2
562.791	24.27
562.987	24.31
563.183	24.44
563.379	24.48
563.575	24.63
563.771	24.72
563.966	24.7
564.162	24.78
564.358	24.76
564.554	24.61
564.75	24.63
564.945	24.7
565.141	24.68
565.337	24.66
565.533	24.63
565.728	24.54
565.924	24.58
566.12	24.64
566.315	24.59
566.511	24.73
566.707	24.87
566.902	24.91
567.098	24.91
567.293	24.94
567.489	24.95
567.684	25.04
567.88	25.1
568.076	25.08
568.271	25.11
568.467	25.11
568.662	25.01
568.858	25.07
569.053	25.06
569.248	25.01
569.444	25.07
569.639	25.11
569.835	25.2
570.03	25.2
570.225	25.3
570.421	25.31
570.616	25.47
570.812	25.53
571.007	25.53
571.202	25.57
571.397	25.57
571.593	25.65
571.788	25.58
571.983	25.56
572.178	25.61
572.374	25.63
572.569	25.69
572.764	25.62
572.959	25.65
573.154	25.7
573.35	25.75
573.545	25.85
573.74	25.83
573.935	25.92
574.13	25.85
574.325	25.82
574.52	25.79
574.715	25.77
574.91	25.85
575.105	25.85
575.3	25.87
575.495	25.77
575.69	25.8
575.885	25.89
576.08	25.92
576.275	26.07
576.47	26.16
576.665	26.16
576.86	26.31
577.055	26.3
577.25	26.44
577.444	26.47
577.639	26.67
577.834	26.68
578.029	26.66
578.224	26.66
578.418	26.68
578.613	26.81
578.808	26.85
579.003	26.93
579.197	27.12
579.392	27.09
579.587	27.23
579.781	27.16
579.976	27.27
580.171	27.33
580.365	27.51
580.56	27.52
580.755	27.36
580.949	27.33
581.144	27.23
581.338	27.13
581.533	27.07
581.727	27.06
581.922	27.13
582.116	27.08
582.311	27.07
582.505	26.87
582.7	26.89
582.894	26.93
583.089	27.11
583.283	27.19
583.478	27.05
583.672	27.31
583.866	27.38
584.061	27.41
584.255	27.39
584.449	27.5
584.644	27.76
584.838	27.74
585.032	28
585.226	27.87
585.421	27.94
585.615	27.98
585.809	27.9
586.003	27.77
586.198	27.6
586.392	27.58
586.586	27.49
586.78	27.37
586.974	27.6
587.168	27.42
587.363	27.69
587.557	27.56
587.751	27.53
587.945	27.53
588.139	27.65
588.333	27.85
588.527	27.96
588.721	28.07
588.915	28.15
589.109	28.16
589.303	28.29
589.497	28.24
589.691	28.36
589.885	28.43
590.079	28.36
590.273	28.28
590.466	28.24
590.66	28.21
590.854	28.16
591.048	28.09
591.242	27.98
591.436	28.02
591.629	27.94
591.823	28.09
592.017	28.13
592.211	28.18
592.404	28.2
592.598	28.29
592.792	28.41
592.986	28.42
593.179	28.43
593.373	28.55
593.567	28.26
593.76	28.23
593.954	28.16
594.147	28.23
594.341	28.2
594.535	28.23
594.728	28.27
594.922	28.14
595.115	28.15
595.309	28.26
595.502	28.03
595.696	28.25
595.889	28.31
596.083	28.17
596.276	28.21
596.47	28.24
596.663	28.25
596.856	28.18
597.05	28.28
597.243	28.22
597.437	28.2
597.63	28.27
597.823	28.24
598.017	28.34
598.21	28.43
598.403	28.5
598.596	28.64
598.79	28.66
598.983	28.63
599.176	28.52
599.369	28.58
599.563	28.51
599.756	28.63
599.949	28.59
600.142	28.56
600.335	28.55
600.528	28.42
600.722	28.41
600.915	28.61
601.108	28.75
601.301	28.83
601.494	28.89
601.687	28.98
601.88	29.13
602.073	29.15
602.266	29.04
602.459	29.2
602.652	29.34
602.845	29.25
603.038	29.16
603.231	28.99
603.424	29.01
603.617	29.04
603.809	28.98
604.002	28.73
604.195	28.7
604.388	28.71
604.581	28.67
604.774	28.61
604.966	28.58
605.159	28.45
605.352	28.61
605.545	28.56
605.737	28.55
605.93	28.54
606.123	28.7
606.316	28.82
606.508	28.98
606.701	28.82
606.894	28.77
607.086	28.8
607.279	28.87
607.471	28.91
607.664	29.1
607.857	29.12
608.049	29.11
608.242	29.11
608.434	29.1
608.627	28.98
608.819	29.11
609.012	29.09
609.204	29.18
609.397	29.32
609.589	29.3
609.782	29.24
609.974	29.26
610.166	29.39
610.359	29.54
610.551	29.59
610.743	29.67
610.936	29.7
611.128	29.8
611.32	29.88
611.513	29.73
611.705	29.86
611.897	29.82
612.09	29.8
612.282	29.75
612.474	29.67
612.666	29.67
612.858	29.68
613.051	29.73
613.243	29.78
613.435	29.83
613.627	29.87
613.819	29.67
614.011	29.61
614.203	29.62
614.395	29.69
614.588	29.73
614.78	29.71
614.972	29.63
615.164	29.65
615.356	29.7
615.548	29.58
615.74	29.53
615.932	29.76
616.124	29.99
616.315	30.15
616.507	30.16
616.699	30.09
616.891	30.1
617.083	30.24
617.275	30.19
617.467	30.11
617.659	30.24
617.85	30.42
618.042	30.46
618.234	30.42
618.426	30.28
618.618	30.3
618.809	30.56
619.001	30.54
619.193	30.64
619.384	30.73
619.576	30.77
619.768	30.78
619.959	30.81
620.151	30.57
620.343	30.6
620.534	30.64
620.726	30.66
620.917	30.39
621.109	30.52
621.301	30.55
621.492	30.51
621.684	30.51
621.875	30.55
622.067	30.52
622.258	30.71
622.45	30.73
622.641	30.68
622.832	30.66
623.024	30.85
623.215	30.53
623.407	30.39
623.598	30.46
623.789	30.32
623.981	30.23
624.172	30.2
624.363	30.11
624.555	29.99
624.746	29.93
624.937	29.88
625.129	29.68
625.32	29.93
625.511	29.99
625.702	29.86
625.893	29.91
626.085	29.93
626.276	29.94
626.467	30.03
626.658	29.84
626.849	29.92
627.04	29.85
627.231	29.95
627.422	29.86
627.614	29.83
627.805	29.64
627.996	29.62
628.187	29.47
628.378	29.36
628.569	29.24
628.76	29.39
628.951	29.37
629.142	29.52
629.332	29.65
629.523	29.91
629.714	29.91
629.905	30.26
630.096	30.58
630.287	30.86
630.478	31.07
630.669	31.19
630.859	31.32
631.05	31.27
631.241	31.26
631.432	31.14
631.623	31.08
631.813	31.26
632.004	31.19
632.195	30.94
632.385	30.74
632.576	30.7
632.767	30.58
632.957	30.61
633.148	30.8
633.339	30.76
633.529	30.65
633.72	30.46
633.91	30.37
634.101	30.3
634.292	30.36
634.482	30.43
634.673	30.37
634.863	30.44
635.054	30.49
635.244	30.43
635.435	30.45
635.625	30.54
635.815	30.61
636.006	30.66
636.196	30.82
636.387	30.81
636.577	31.05
636.767	31.12
636.958	31.22
637.148	31.13
637.338	31.04
637.529	31.29
637.719	31.32
637.909	31.24
638.099	31.38
638.29	31.36
638.48	31.19
638.67	31
638.86	31.14
639.05	31.08
639.241	31.28
639.431	31.33
639.621	31.17
639.811	31.3
640.001	31.56
640.191	31.57
640.381	31.68
640.571	31.8
640.761	31.7
640.951	31.54
641.141	31.48
641.331	31.36
641.521	31.37
641.711	31.29
641.901	31.27
642.091	31.16
642.281	30.97
642.471	30.82
642.661	30.86
642.851	30.97
643.041	30.99
643.231	31.01
643.42	30.91
643.61	30.86
643.8	30.86
643.99	30.7
644.18	30.77
644.369	30.58
644.559	30.66
644.749	30.68
644.939	30.81
645.128	30.94
645.318	30.95
645.508	31
645.697	31.04
645.887	31.03
646.076	31.06
646.266	30.95
646.456	31.06
646.645	31.01
646.835	31.22
647.024	31.05
647.214	30.85
647.403	30.96
647.593	30.92
647.782	30.98
647.972	30.99
648.161	30.9
648.351	31.09
648.54	31.2
648.73	31.25
648.919	31.28
649.108	31.53
649.298	31.41
649.487	31.55
649.677	31.8
649.866	31.95
650.055	31.99
650.244	32.41
650.434	32.33
650.623	32.45
650.812	32.39
651.002	32.36
651.191	32.3
651.38	32.54
651.569	32.53
651.758	32.23
651.947	32.25
652.137	32.44
652.326	32.3
652.515	32.39
652.704	32.36
652.893	32.5
653.082	32.28
653.271	32.22
653.46	32.11
653.649	32.16
653.838	32.32
654.027	32.24
654.216	32.08
654.405	32
654.594	31.96
654.783	31.75
654.972	31.68
655.161	31.68
655.35	31.69
655.539	31.63
655.728	31.56
655.916	31.62
656.105	31.45
656.294	31.59
656.483	31.61
656.672	31.45
656.86	31.63
657.049	31.76
657.238	31.75
657.427	31.72
657.615	31.85
657.804	31.88
657.993	31.86
658.181	31.91
658.37	31.92
658.559	31.9
658.747	31.91
658.936	31.85
659.125	31.52
659.313	31.66
659.502	31.76
659.69	31.8
659.879	31.77
660.067	31.82
660.256	31.65
660.444	31.51
660.633	31.49
660.821	31.49
661.01	31.45
661.198	31.87
661.387	31.85
661.575	31.91
661.763	32.02
661.952	32.01
662.14	32.06
662.328	32.3
662.517	32.55
662.705	32.96
662.893	32.98
663.082	33.33
663.27	33.21
663.458	33.3
663.646	33.19
663.834	33.31
664.023	33.29
664.211	33.31
664.399	33.45
664.587	33.37
664.775	33.03
664.963	33.05
665.152	32.81
665.34	32.78
665.528	32.79
665.716	32.83
665.904	32.42
666.092	32.36
666.28	32.42
666.468	32.08
666.656	31.87
666.844	31.88
667.032	32.21
667.22	32.27
667.408	32.56
667.596	32.49
667.784	32.4
667.971	32.49
668.159	32.31
668.347	32.33
668.535	32.68
668.723	32.7
668.911	32.57
669.098	32.14
669.286	32.05
669.474	31.73
669.662	31.62
669.849	31.58
670.037	31.6
670.225	31.83
670.413	31.5
670.6	31.62
670.788	31.75
670.976	32.13
671.163	32.62
671.351	32.61
671.538	32.8
671.726	32.92
671.913	32.72
672.101	32.93
672.289	33.13
672.476	33.48
672.664	33.15
672.851	33.35
673.039	33.12
673.226	32.87
673.413	32.75
673.601	32.57
673.788	32.58
673.976	32.83
674.163	32.62
674.35	32.31
674.538	31.95
674.725	32.09
674.912	32.02
675.1	32.23
675.287	32.26
675.474	32.28
675.662	32.25
675.849	32.34
676.036	32.28
676.223	32.3
676.411	32.36
676.598	32.44
676.785	32.26
676.972	32.16
677.159	31.83
677.346	31.74
677.533	31.77
677.721	31.95
677.908	31.96
678.095	32.11
678.282	32.31
678.469	32.5
678.656	32.49
678.843	32.57
679.03	32.53
679.217	32.7
679.404	32.65
679.591	32.67
679.778	32.62
679.964	32.5
680.151	32.65
680.338	32.39
680.525	32.31
680.712	32.39
680.899	32.51
681.086	32.61
681.272	32.42
681.459	32.32
681.646	32.43
681.833	32.42
682.02	32.61
682.206	32.52
682.393	32.6
682.58	32.6
682.766	32.7
682.953	32.74
683.14	32.77
683.326	33.44
683.513	33.72
683.7	33.89
683.886	33.97
684.073	33.96
684.259	33.74
684.446	33.7
684.632	33.65
684.819	33.29
685.005	33.14
685.192	32.96
685.378	32.41
685.565	32.4
685.751	32.39
685.938	32.47
686.124	32.31
686.31	32.45
686.497	32.63
686.683	32.65
686.87	32.81
687.056	32.86
687.242	32.92
687.429	33.06
687.615	32.81
687.801	32.53
687.987	32.48
688.174	32.51
688.36	32.64
688.546	32.57
688.732	32.56
688.918	32.77
689.105	32.52
689.291	32.28
689.477	32.48
689.663	32.91
689.849	33.3
690.035	33.04
690.221	32.89
690.407	32.75
690.593	32.65
690.779	32.74
690.965	32.65
691.151	33.08
691.337	33.28
691.523	33.21
691.709	33.1
691.895	32.99
692.081	33.26
692.267	33.72
692.453	33.61
692.639	33.86
692.825	33.63
693.011	33.69
693.196	33.62
693.382	33.73
693.568	33.76
693.754	33.75
693.94	33.55
694.125	33.77
694.311	33.51
694.497	33.41
694.682	33.23
694.868	33.41
695.054	33.47
695.239	33.13
695.425	33.04
695.611	32.83
695.796	32.69
695.982	32.92
696.168	32.83
696.353	32.8
696.539	32.96
696.724	32.99
696.91	32.82
697.095	32.82
697.281	33.06
697.466	32.99
697.652	33.22
697.837	33.2
698.023	33.1
698.208	32.85
698.393	33.03
698.579	33.06
698.764	33.08
698.949	33.28
699.135	33.42
699.32	33.25
699.505	33.46
699.691	33.53
699.876	33.58
700.061	33.64
700.246	33.79
700.432	33.28
700.617	33.23
700.802	33.06
700.987	32.96
701.172	32.84
701.358	32.84
701.543	32.96
701.728	32.87
701.913	33.16
702.098	33.11
702.283	33
702.468	33.71
702.653	33.68
702.838	33.83
703.023	33.83
703.208	33.71
703.393	34.03
703.578	33.99
703.763	33.8
703.948	33.7
704.133	33.87
704.318	34.69
704.503	34.27
704.688	34.22
704.873	34.17
705.057	34.08
705.242	33.91
705.427	33.66
705.612	33.38
705.797	33.11
705.981	32.92
706.166	32.84
706.351	32.28
706.536	32.32
706.72	32.63
706.905	32.59
707.09	33
707.274	32.98
707.459	33.43
707.644	33.71
707.828	33.84
708.013	34.17
708.197	34.11
708.382	34.12
708.567	34.15
708.751	33.75
708.936	34.09
709.12	33.94
709.305	34.3
709.489	34.19
709.673	34.02
709.858	34.18
710.042	34.03
710.227	33.87
710.411	33.87
710.596	34.03
710.78	34.38
710.964	33.91
711.149	33.94
711.333	33.72
711.517	33.45
711.702	33.61
711.886	33.33
712.07	33.35
712.254	33.48
712.438	33.67
712.623	33.54
712.807	33.34
712.991	34.11
713.175	33.83
713.359	33.78
713.544	33.93
713.728	33.97
713.912	33.99
714.096	33.53
714.28	33.54
714.464	33.52
714.648	33.76
714.832	33.85
715.016	33.62
715.2	33.94
715.384	33.9
715.568	33.86
715.752	33.71
715.936	33.63
716.12	34.12
716.304	33.92
716.488	33.63
716.671	33.55
716.855	33.69
717.039	33.46
717.223	33.24
717.407	33.47
717.59	33.56
717.774	33.76
717.958	34.21
718.142	34.35
718.325	34.39
718.509	34.37
718.693	34.33
718.877	34.39
719.06	34.53
719.244	34.58
719.428	34.25
719.611	34.15
719.795	33.78
719.978	33.45
720.162	32.8
720.345	33.07
720.529	33.23
720.713	32.79
720.896	32.97
721.08	33.03
721.263	33.13
721.446	33.45
721.63	33.53
721.813	33.47
721.997	33.67
722.18	34.24
722.364	34.03
722.547	33.88
722.73	34.39
722.914	33.98
723.097	33.49
723.28	33.17
723.464	33.13
723.647	33.2
723.83	33.33
724.013	33.24
724.197	33.02
724.38	33.24
724.563	33.21
724.746	33.14
724.929	33.23
725.112	33.48
725.296	33.82
725.479	33.71
725.662	33.88
725.845	33.85
726.028	34.06
726.211	34.24
726.394	34.04
726.577	34.56
726.76	34.71
726.943	34.72
727.126	34.55
727.309	34.91
727.492	34.82
727.675	34.44
727.858	34.41
728.041	34.25
728.224	33.87
728.407	34.14
728.589	33.85
728.772	33.81
728.955	33.85
729.138	34.13
729.321	33.71
729.503	33.65
729.686	33.7
729.869	33.93
730.052	33.7
730.234	33.96
730.417	34.09
730.6	33.92
730.782	33.68
730.965	33.42
731.148	33.27
731.33	33.38
731.513	33.36
731.695	33.32
731.878	33.11
732.061	33.46
732.243	33.57
732.426	33.04
732.608	33.18
732.791	33.11
732.973	33.28
733.156	33.24
733.338	33.33
733.52	33.9
733.703	34.3
733.885	34.57
734.068	34.48
734.25	34.4
734.432	34.7
734.615	34.57
734.797	34.8
734.979	35.02
735.162	35.21
735.344	34.98
735.526	34.65
735.708	34.42
735.891	34.72
736.073	34.59
736.255	34.26
736.437	34.08
736.619	34.09
736.802	34.05
736.984	33.8
737.166	33.76
737.348	33.63
737.53	33.43
737.712	33.66
737.894	33.06
738.076	33.43
738.258	34.06
738.44	34.13
738.622	34.51
738.804	34.83
738.986	34.54
739.168	35.17
739.35	34.88
739.532	34.86
739.714	34.39
739.896	34.43
740.078	34.37
740.259	33.72
740.441	33.8
740.623	33.83
740.805	33.59
740.987	34.02
741.168	33.09
741.35	33.11
741.532	33.8
741.714	33.97
741.895	34.32
742.077	34.23
742.259	35.04
742.44	34.75
742.622	34.14
742.804	33.41
742.985	33.3
743.167	33.97
743.348	34.3
743.53	33.42
743.711	32.88
743.893	32.93
744.075	33.29
744.256	32.74
744.438	33.06
744.619	33.3
744.8	33.39
744.982	33.4
745.163	33.02
745.345	33.54
745.526	34.05
745.707	34.66
745.889	34.26
746.07	33.91
746.252	34.13
746.433	33.97
746.614	34.33
746.795	34.67
746.977	34.67
747.158	34.48
747.339	33.83
747.52	33.67
747.702	33.51
747.883	33.27
748.064	33.5
748.245	33.24
748.426	33.03
748.607	32.87
748.788	33.41
748.97	33.9
749.151	33.77
749.332	34.05
749.513	33.72
749.694	33.6
749.875	33.98
750.056	34.12
750.237	34.3
750.418	34.81
750.599	34.25
750.78	33.48
750.96	33.14
751.141	33.65
751.322	33.58
751.503	33.97
751.684	33.74
751.865	33.66
752.046	33.24
752.226	33.24
752.407	33.88
752.588	34.39
752.769	34.81
752.949	34.55
753.13	33.73
753.311	33.7
753.492	33.52
753.672	34.04
753.853	34.44
754.034	34.92
754.214	35.35
754.395	34.2
754.575	33.77
754.756	33.97
754.937	34
755.117	35.27
755.298	35.1
755.478	34.53
755.659	34.73
755.839	34.33
756.02	33.67
756.2	32.8
756.381	33.18
756.561	33.83
756.741	33.45
756.922	33.71
757.102	33.11
757.283	33.55
757.463	34.38
757.643	33.87
757.823	34.12
758.004	34.41
758.184	34.8
758.364	34.56
758.545	34.48
758.725	34.67
758.905	35.14
759.085	35.15
759.265	34.88
759.446	34.92
759.626	35.19
759.806	35.59
759.986	35.46
760.166	35.88
760.346	35.74
760.526	35.9
760.706	35.69
760.886	34.81
761.066	34.98
761.246	35.49
761.426	35.49
761.606	35.01
761.786	35.24
761.966	35.04
762.146	34.49
762.326	35.27
762.506	34.75
762.686	34.72
762.866	35.04
763.046	34.63
763.225	34.39
763.405	34.2
763.585	34.44
763.765	33.98
763.945	33.99
764.124	34.14
764.304	33.61
764.484	33.81
764.664	33.91
764.843	34.21
765.023	34.59
765.203	34.5
765.382	34.11
765.562	34.68
765.741	34.26
765.921	34.1
766.101	34.36
766.28	34.51
766.46	34.59
766.639	34.73
766.819	34.55
766.998	34.67
767.178	34.51
767.357	34.67
767.537	33.93
767.716	34.54
767.896	35.1
768.075	35.19
768.254	35.74
768.434	36.2
768.613	36.99
768.792	36.45
768.972	36.59
769.151	36.8
769.33	37.36
769.51	37.99
769.689	37.58
769.868	37.36
770.047	37.37
770.226	36.69
770.406	36.55
770.585	35.74
770.764	36.05
770.943	35.57
771.122	35.78
771.301	35.79
771.48	35.35
771.66	35.21
771.839	35.14
772.018	35.14
772.197	35.01
772.376	34.76
772.555	33.71
772.734	33.29
772.913	33.67
773.092	33.15
773.271	33.14
773.449	33.63
773.628	33.39
773.807	33.68
773.986	33.32
774.165	33.89
774.344	33.53
774.523	34.84
774.701	34.83
774.88	34.22
775.059	34.61
775.238	34.47
775.417	34.12
775.595	34.84
775.774	34.44
775.953	34.23
776.131	34.18
776.31	34.69
776.489	34.36
776.667	35.09
776.846	34.93
777.025	35.19
777.203	35.48
777.382	36.21
777.56	35.73
777.739	36.31
777.917	36.22
778.096	36.01
778.274	35.84
778.453	35.25
778.631	35.17
778.81	35.16
778.988	35.75
779.166	34.92
779.345	33.95
779.523	34.06
779.702	34.39
779.88	35.04
780.058	35.11
780.237	35.34
780.415	35.58
780.593	34.59
780.771	34.51
780.95	34.43
781.128	34.55
781.306	34.36
781.484	34.49
781.662	33.02
781.841	32.56
782.019	32.52
782.197	32.7
782.375	33.16
782.553	33.78
782.731	35.08
782.909	34.49
783.087	35.43
783.265	35.26
783.443	35.34
783.621	35.42
783.799	36.62
783.977	37.31
784.155	36.84
784.333	36.9
784.511	36.84
784.689	35.47
784.867	35.22
785.045	35.22
785.223	35.26
785.4	35.56
785.578	35.85
785.756	35.29
785.934	34.95
786.112	34.6
786.289	34.54
786.467	34.68
786.645	35.39
786.823	35.06
787	34.53
787.178	34.82
787.356	34.37
787.533	34.39
787.711	34.19
787.889	33.8
788.066	34.07
788.244	33.21
788.421	33.67
788.599	33.74
788.776	34.67
788.954	34.37
789.131	33.59
789.309	33.99
789.486	33.14
789.664	33.31
789.841	33.34
790.019	33.17
790.196	32.71
790.373	31.83
790.551	32.49
790.728	31.16
790.906	31.28
791.083	32.5
791.26	32
791.437	32.65
791.615	33.12
791.792	33.43
791.969	33.15
792.146	34.32
792.324	34.99
792.501	33.11
792.678	33.32
792.855	34.49
793.032	33.07
793.209	33.12
793.387	33.49
793.564	32.05
793.741	30.98
793.918	31.66
794.095	31.83
794.272	31.94
794.449	33.36
794.626	33.15
794.803	33.01
794.98	34.06
795.157	32.94
795.334	33.38
795.511	33.73
795.688	34.79
795.864	34.93
796.041	34.88
796.218	33.53
796.395	33.65
796.572	35.06
796.749	33.83
796.925	34.51
797.102	35.85
797.279	35.13
797.456	35.7
797.632	34.86
797.809	34.4
797.986	34.32
798.162	35.22
798.339	34.57
798.516	33.62
798.692	32.72
798.869	31.63
799.046	30.89
799.222	31.08
799.399	29.81
799.575	30.33
799.752	29.71
799.928	29.84
800.105	29.89
800.281	29.81
800.458	29.23
800.634	30.83
800.811	31.07
800.987	31.64
801.163	32.25
801.34	33.04
801.516	32.64
801.692	31.88
801.869	31.69
802.045	31.71
802.221	33.29
802.398	33.73
802.574	34.06
802.75	34.66
802.926	34.48
803.103	33.65
803.279	32.14
803.455	32.32
803.631	33.97
803.807	33.59
803.983	33.83
804.16	32.57
804.336	32.86
804.512	32.84
804.688	32.75
804.864	32.47
805.04	32.93
805.216	33.71
805.392	33.55
805.568	31.81
805.744	31.74
805.92	30.92
806.096	31.15
806.272	31.08
806.448	30.66
806.623	29.57
806.799	30.47
806.975	30.62
807.151	31.42
807.327	30.46
807.503	32.81
807.678	32.51
807.854	32.58
808.03	33.13
808.206	33.98
808.381	32.94
808.557	33.37
808.733	32.1
808.908	31.43
809.084	30.65
809.26	32.8
809.435	31.39
809.611	31.66
809.787	32.84
809.962	32.82
810.138	31.53
810.313	32.88
810.489	32.27
810.664	33.82
810.84	33.26
811.015	34.82
811.191	33.96
811.366	34.26
811.542	35.18
811.717	33.3
811.892	32.91
812.068	32.89
812.243	33.46
812.419	33.03
812.594	32
812.769	33.07
812.944	31.34
813.12	30.93
813.295	30.31
813.47	30.41
813.645	32.04
813.821	31
813.996	31.13
814.171	29.45
814.346	29.77
814.521	30.84
814.697	30.17
814.872	30.28
815.047	30.89
815.222	31.79
815.397	32.27
815.572	31.9
815.747	31.11
815.922	30.21
816.097	29.86
816.272	31.39
816.447	30.29
816.622	30.64
816.797	31.84
816.972	31.44
817.147	31.1
817.322	31.3
817.496	32.04
817.671	32.67
817.846	33.22
818.021	34.11
818.196	32.66
818.371	33.36
818.545	33.39
818.72	32.24
818.895	31.91
819.069	31.26
819.244	31.09
819.419	30.58
819.594	31.34
819.768	31.96
819.943	32.47
820.117	32.95
820.292	33.24
820.467	33.82
820.641	34.22
820.816	34.74
820.99	34.8
821.165	34.54
821.339	34.46
821.514	34.09
821.688	34.02
821.863	33.88
822.037	33.92
822.212	33.85
822.386	33.65
822.56	33.81
822.735	33.62
822.909	33.98
823.084	34.03
823.258	33.98
823.432	34.11
823.606	34.38
823.781	34.36
823.955	34.58
824.129	34.34
824.303	34.47
824.478	34.06
824.652	34.19
824.826	34.03
825	33.93
825.174	34.12
825.348	34.24
825.523	33.76
825.697	33.76
825.871	33.48
826.045	34.08
826.219	34.04
826.393	34.04
826.567	34.2
826.741	34.14
826.915	34.45
827.089	34.68
827.263	34.66
827.437	34.79
827.611	34.6
827.784	35.06
827.958	34.46
828.132	34.42
828.306	34.82
828.48	34.94
828.654	34.89
828.827	34.76
829.001	35.93
829.175	35.76
829.349	36.31
829.522	37.21
829.696	36.8
829.87	37.39
830.044	36.95
830.217	37.54
830.391	36.11
830.565	36.53
830.738	37.24
830.912	34.21
831.085	34.71
831.259	33.34
831.432	31.96
831.606	33.17
831.779	32.66
831.953	33.16
832.126	32.47
832.3	32.84
832.473	33.01
832.647	32.52
832.82	33.71
832.994	33.15
833.167	33.31
833.34	33.94
833.514	33.58
833.687	34.06
833.86	34.05
834.034	34.08
834.207	33.92
834.38	33.29
834.553	33.22
834.727	32.98
834.9	33.9
835.073	33.92
835.246	34.7
835.419	34.33
835.593	34.07
835.766	34.89
835.939	35.68
836.112	36.16
836.285	36.57
836.458	36.38
836.631	37.21
836.804	37.22
836.977	38.39
837.15	36.3
837.323	36.2
837.496	36.28
837.669	34.4
837.842	33.02
838.015	32.23
838.188	31.05
838.361	31.26
838.533	30.64
838.706	28.41
838.879	27.96
839.052	29.02
839.225	29.3
839.398	31.13
839.57	32.54
839.743	32.08
839.916	33.94
840.088	35.34
840.261	35.32
840.434	33.6
840.607	34.77
840.779	34.9
840.952	35.03
841.124	33.07
841.297	30.44
841.47	29.86
841.642	31.17
841.815	31.46
841.987	30.45
842.16	29.9
842.332	31.63
842.505	31.33
842.677	31.6
842.85	30.64
843.022	34.01
843.194	35.03
843.367	34.39
843.539	32.55
843.712	29.77
843.884	30.19
844.056	28.94
844.229	29.12
844.401	28.54
844.573	27.18
844.745	27.97
844.918	26.35
845.09	26.47
845.262	25.84
845.434	25.87
845.606	25.78
845.779	26.41
845.951	22.95
846.123	17.38
846.295	22.17
846.467	21
846.639	21.19
846.811	22.69
846.983	23.32
847.155	24.31
847.327	22.92
847.499	25.67
847.671	25.12
847.843	29.1
848.015	30.59
848.187	25.99
848.359	24.83
848.531	23.87
848.703	22.01
848.875	23.08
849.047	22.09
849.218	25.83
849.39	24.34
849.562	23.24
849.734	23.33
849.905	23.97
850.077	26.02
850.249	25.68
850.421	25.4
850.592	24.16
850.764	25.83
850.936	28.07
851.107	28.8
851.279	28.57
851.451	30.63
851.622	30.66
851.794	31.6
851.965	30.34
852.137	31.77
852.308	32.87
852.48	32.81
852.651	31.65
852.823	30.91
852.994	28.77
853.166	27.67
853.337	27.63
853.509	26.82
853.68	31.48
853.851	36.54
854.023	40.35
854.194	39.88
854.365	43.35
854.537	40.09
854.708	40.75
854.879	41.31
855.05	41.04
855.222	40.82
855.393	42.41
855.564	40.02
855.735	40.48
855.906	38.54
856.078	38.81
856.249	36.02
856.42	34.74
856.591	30.23
856.762	28.83
856.933	29.5
857.104	26.46
857.275	25.01
857.446	24.4
857.617	21.35
857.788	20.42
857.959	16.1
858.13	17.02
858.301	18.31
858.472	20.58
858.643	23.1
858.814	23.14
858.985	25.5
859.155	28.31
859.326	30.29
859.497	31.3
859.668	33.29
859.839	37.02
860.009	34.81
860.18	36.48
860.351	36.37
860.522	33.46
860.692	29.4
860.863	30.4
861.034	30
861.204	29.8
861.375	24.69
861.546	27.46
861.716	31.68
861.887	35.77
862.057	35.32
862.228	37.72
862.398	40.71
862.569	44.65
862.739	43.49
862.91	42.26
863.08	39.07
863.251	46.71
863.421	39.08
863.592	38.44
863.762	30.81
863.932	34.87
864.103	38.2
864.273	35.09
864.443	35.21
864.614	37.47
864.784	39.52
864.954	39.35
865.125	34.96
865.295	43.18
865.465	45.57
865.635	51.46
865.805	50.23
865.976	42.95
866.146	42.31
866.316	43.31
866.486	39.9
866.656	36.45
866.826	39.8
866.996	39.81
867.166	37.19
867.336	31.03
867.506	27.03
867.676	27.2
867.846	33.98
868.016	33.16
868.186	33.34
868.356	37.07
868.526	37.92
868.696	31.88
868.866	36.83
869.036	35.77
869.206	34.79
869.376	39.7
869.545	38.39
869.715	32.51
869.885	40.62
870.055	40.44
870.224	34.4
870.394	32.57
870.564	35.22
870.734	26.65
870.903	29.04
871.073	31.91
871.243	27.86
871.412	26.36
871.582	26.03
871.751	21.6
871.921	24.77
872.091	25.03
872.26	29.67
872.43	30.69
872.599	31.89
872.769	29.6
872.938	35.17
873.108	35.53
873.277	35.67
873.446	35.89
873.616	32.6
873.785	28.35
873.955	30.21
874.124	24.81
874.293	26.47
874.463	28.55
874.632	21.69
874.801	20.49
874.971	24.16
875.14	23.96
875.309	23.24
875.478	22.15
875.647	24.57
875.817	28.12
875.986	31.25
876.155	29.48
876.324	33.66
876.493	39.72
876.662	35.93
876.831	30.31
877	34.9
877.17	34.19
877.339	36.73
877.508	39.04
877.677	39.53
877.846	41.69
878.015	41.35
878.184	38.1
878.352	37.77
878.521	41.64
878.69	43.35
878.859	39.12
879.028	43.98
879.197	41.88
879.366	37.73
879.534	35.84
879.703	34.99
879.872	35.12
880.041	36.04
880.21	35.84
880.378	33.59
880.547	32.76
880.716	33.25
880.884	32.2
881.053	33.49
881.222	33.88
881.39	33.65
881.559	33.32
881.727	33.88
881.896	33.43
882.065	32.93
882.233	32.66
882.402	33.05
882.57	33.2
882.739	33.61
882.907	33.8
883.076	34.28
883.244	34.01
883.412	34.4
883.581	33.32
883.749	33.04
883.918	32.86
884.086	32.72
884.254	33.22
884.423	32.05
884.591	31.57
884.759	30.81
884.927	30.57
885.096	31.74
885.264	30.52
885.432	31.54
885.6	31.95
885.769	32.76
885.937	33.46
886.105	33.46
886.273	34.31
886.441	34.5
886.609	34.48
886.777	33.51
886.945	30.83
887.113	30.89
887.281	32.75
887.449	29.62
887.617	29.22
887.785	34.37
887.953	33.32
888.121	35.9
888.289	34.91
888.457	33.26
888.625	35.35
888.793	37.08
888.961	37.75
889.129	35.15
889.296	41.62
889.464	42.55
889.632	37.97
889.8	38.53
889.967	36.92
890.135	38.53
