Data from 2938516_Reflection_3.txt Node
Date: Tue Jun 16 22:33:29 EDT 2015
User: robert
Spectrometer: USB4E03002
Autoset integration time: false
Trigger mode: 4
Integration Time (sec): 1.000000E-1
Scans to average: 10
Electric dark correction enabled: true
Nonlinearity correction enabled: false
Boxcar width: 5
Stray light correction enabled: false
XAxis mode: Wavelengths
Stop averaging: false
Number of Pixels in Spectrum: 3648
>>>>>Begin Spectral Data<<<<<
177.575	2.66
177.794	-49.58
178.014	-25.4
178.233	-46.38
178.452	-31.76
178.672	-249.48
178.891	-676.31
179.11	-231.82
179.33	-467.42
179.549	1.72
179.768	35.32
179.987	63.38
180.207	8.41
180.426	29.77
180.645	89.9
180.864	-89.1
181.084	21.43
181.303	46.57
181.522	34.58
181.741	37.09
181.96	33.42
182.179	52.23
182.398	75.64
182.618	77.83
182.837	96.31
183.056	83.79
183.275	92.44
183.494	40.12
183.713	81.23
183.932	228.98
184.151	280.73
184.37	1265.53
184.589	-57.75
184.808	7.86
185.027	80.15
185.246	58
185.465	112.79
185.684	80.27
185.903	142.77
186.122	105.18
186.341	113.35
186.56	122.51
186.779	172.65
186.998	260.61
187.216	357.18
187.435	154.85
187.654	224.13
187.873	216.3
188.092	215.37
188.311	120.83
188.53	148.07
188.748	386.28
188.967	2145.16
189.186	165.83
189.405	123.25
189.623	99.16
189.842	97.51
190.061	55.6
190.28	51.02
190.498	70.35
190.717	90.35
190.936	102.65
191.154	85.89
191.373	90.84
191.592	98.59
191.81	91.39
192.029	103.79
192.248	104.66
192.466	140.54
192.685	167.29
192.904	237.27
193.122	257.29
193.341	-43.56
193.559	-33.27
193.778	-78.06
193.996	-78.37
194.215	-482.91
194.433	-253.18
194.652	-814.29
194.87	2002.01
195.089	360.79
195.307	381.86
195.526	255.07
195.744	237.18
195.963	199.06
196.181	152.39
196.399	147.17
196.618	139.58
196.836	136.29
197.055	97.27
197.273	112.6
197.491	115.32
197.71	75.23
197.928	62.09
198.146	54.18
198.365	4.2
198.583	5.38
198.801	23.14
199.019	14.23
199.238	-14.02
199.456	-95.06
199.674	-9.61
199.892	30.11
200.111	53.38
200.329	55.31
200.547	37.96
200.765	53.33
200.983	57.64
201.202	47.55
201.42	47.07
201.638	45.56
201.856	58.69
202.074	54.78
202.292	57.73
202.51	59.77
202.728	66.81
202.946	81.23
203.165	91.63
203.383	64.66
203.601	91.02
203.819	148.01
204.037	152.24
204.255	111.94
204.473	118.06
204.691	95.03
204.909	106.33
205.127	144.08
205.345	123.99
205.562	79.65
205.78	89.47
205.998	69.01
206.216	4.24
206.434	5.88
206.652	-5.11
206.87	-2.53
207.088	15.83
207.306	-18.86
207.523	-16.48
207.741	-11.4
207.959	33.35
208.177	28.34
208.395	34.19
208.612	64.82
208.83	42.67
209.048	40.49
209.266	38.36
209.483	31.52
209.701	19.74
209.919	27.89
210.136	32.28
210.354	29.96
210.572	26.94
210.79	34.81
211.007	28.98
211.225	26.53
211.442	36.1
211.66	29.87
211.878	26.44
212.095	16.12
212.313	15.04
212.53	14.6
212.748	4.71
212.966	11.12
213.183	11.69
213.401	8.75
213.618	21.11
213.836	12.65
214.053	14.71
214.271	23.37
214.488	44.57
214.705	42.14
214.923	50.2
215.14	43.22
215.358	30.95
215.575	21.72
215.793	11.87
216.01	20.79
216.227	36.06
216.445	42.16
216.662	42.16
216.879	59.57
217.097	58.85
217.314	53.51
217.531	60.16
217.749	43.96
217.966	37.73
218.183	38.47
218.4	29.44
218.618	14
218.835	20.12
219.052	5.22
219.269	-21.09
219.487	-15.18
219.704	-5
219.921	-4.47
220.138	5.3
220.355	16.29
220.572	20.57
220.79	36.28
221.007	33.18
221.224	24.25
221.441	18.92
221.658	20.95
221.875	26.36
222.092	26.93
222.309	25.18
222.526	25.67
222.743	24.06
222.96	19.41
223.177	17.89
223.394	29.39
223.611	32.33
223.828	38.15
224.045	40.54
224.262	33.2
224.479	32.48
224.696	31
224.913	29.73
225.13	27.7
225.347	28.06
225.564	22.58
225.781	18.82
225.997	17.6
226.214	15.11
226.431	14.53
226.648	14.8
226.865	14.74
227.082	13.48
227.298	13.83
227.515	13.79
227.732	12.98
227.949	13.06
228.165	12.26
228.382	11.92
228.599	11.66
228.816	10.91
229.032	11.61
229.249	11.01
229.466	12.92
229.682	11.3
229.899	10.83
230.116	11.34
230.332	10.71
230.549	10.55
230.765	8.42
230.982	9.62
231.199	11.61
231.415	10.74
231.632	9.14
231.848	9.29
232.065	10.02
232.281	9.32
232.498	8.71
232.714	9.78
232.931	8.87
233.147	10.24
233.364	10.64
233.58	8.52
233.797	6.98
234.013	8.75
234.23	7
234.446	7.48
234.662	7.83
234.879	9.21
235.095	11.31
235.312	14.03
235.528	15.53
235.744	15
235.961	16.36
236.177	18.84
236.393	21.53
236.61	22.39
236.826	21.72
237.042	22.2
237.258	20.55
237.475	18.11
237.691	17.55
237.907	17.29
238.123	16.71
238.339	16.95
238.556	15.82
238.772	11.9
238.988	11.49
239.204	11.75
239.42	10.69
239.636	11.73
239.853	11.65
240.069	10.68
240.285	10.17
240.501	10.53
240.717	9.91
240.933	9.96
241.149	10.87
241.365	10.59
241.581	9.42
241.797	9.34
242.013	8.85
242.229	8.28
242.445	8.65
242.661	8.18
242.877	7.78
243.093	8.57
243.309	8.15
243.525	7.64
243.741	7.71
243.957	9.12
244.173	9.1
244.388	8.86
244.604	9.56
244.82	9.22
245.036	9.43
245.252	9.32
245.468	8.91
245.683	8.99
245.899	8.65
246.115	8.74
246.331	8.58
246.547	8.31
246.762	8.13
246.978	8.05
247.194	8.4
247.409	8.7
247.625	8.73
247.841	9
248.057	8.91
248.272	9.7
248.488	9.87
248.703	9.51
248.919	10.82
249.135	11.23
249.35	11.3
249.566	10.98
249.782	10.36
249.997	10.64
250.213	9.69
250.428	9.55
250.644	9.48
250.859	9.06
251.075	9.32
251.29	8.14
251.506	8.07
251.721	8.21
251.937	8.01
252.152	7.48
252.368	7
252.583	7.25
252.798	7.78
253.014	7.27
253.229	8.23
253.445	8.16
253.66	8.04
253.875	8.16
254.091	7.04
254.306	6.98
254.521	8.2
254.737	7.4
254.952	7.96
255.167	7.06
255.383	7.07
255.598	6.53
255.813	6.53
256.028	6.89
256.244	7.08
256.459	7.12
256.674	6.87
256.889	6.7
257.104	6.82
257.32	6.36
257.535	6.25
257.75	6.43
257.965	6.33
258.18	6.49
258.395	6.56
258.61	6.3
258.826	6.45
259.041	6.64
259.256	6.29
259.471	6.36
259.686	6.47
259.901	6.44
260.116	6.46
260.331	6.67
260.546	5.98
260.761	5.47
260.976	5.88
261.191	5.54
261.406	5.05
261.621	5.47
261.836	5.52
262.05	6.3
262.265	6.7
262.48	7.17
262.695	7.42
262.91	7.78
263.125	7.93
263.34	7.84
263.555	8
263.769	8.09
263.984	7.4
264.199	7.51
264.414	6.71
264.629	6.62
264.843	5.96
265.058	5.69
265.273	5.71
265.488	6.21
265.702	6.15
265.917	6.35
266.132	6.07
266.346	6.54
266.561	6.43
266.776	6.72
266.99	6.68
267.205	6.97
267.42	7.07
267.634	7.19
267.849	6.7
268.063	6.41
268.278	6.11
268.492	7.02
268.707	7.07
268.922	6.7
269.136	6.91
269.351	6.48
269.565	6.24
269.78	5.72
269.994	6
270.209	6
270.423	5.94
270.637	6.12
270.852	5.56
271.066	5.26
271.281	5.68
271.495	5.03
271.709	5.5
271.924	5.06
272.138	5.49
272.353	6.07
272.567	6.5
272.781	6.53
272.996	6.13
273.21	6.38
273.424	6.95
273.638	6.58
273.853	6.67
274.067	6.62
274.281	6.89
274.495	6.78
274.71	6.08
274.924	5.7
275.138	5.87
275.352	6.18
275.566	6.51
275.781	6.02
275.995	6.02
276.209	6.45
276.423	7.03
276.637	7.27
276.851	7.53
277.065	7.64
277.279	8.15
277.493	8.52
277.707	8.03
277.921	7.69
278.135	7.77
278.349	7.65
278.563	7.39
278.777	7.38
278.991	7.74
279.205	7.43
279.419	6.89
279.633	6.59
279.847	6.32
280.061	6.34
280.275	6.08
280.489	6.06
280.703	6.13
280.917	6.22
281.131	5.82
281.344	5.4
281.558	5.45
281.772	5.55
281.986	4.85
282.2	4.96
282.414	5.09
282.627	5.43
282.841	5.23
283.055	5.12
283.269	4.98
283.482	5.16
283.696	5.21
283.91	4.92
284.123	5.07
284.337	5.5
284.551	5.43
284.764	5.1
284.978	4.94
285.192	5.11
285.405	5.23
285.619	5.33
285.833	4.95
286.046	4.95
286.26	4.94
286.473	5.06
286.687	5.15
286.9	5.07
287.114	5.77
287.327	5.89
287.541	5.85
287.754	5.88
287.968	6.1
288.181	6.09
288.395	6.17
288.608	6.01
288.822	6.18
289.035	6.05
289.248	6.32
289.462	6.03
289.675	6.09
289.889	6.34
290.102	6.37
290.315	5.92
290.529	6.07
290.742	6.01
290.955	6.39
291.169	6.56
291.382	6.88
291.595	6.76
291.808	6.89
292.022	6.69
292.235	6.46
292.448	6.57
292.661	6.57
292.875	6.58
293.088	6.43
293.301	6.55
293.514	6.19
293.727	6.05
293.94	5.61
294.153	5.64
294.367	5.75
294.58	5.75
294.793	5.83
295.006	5.89
295.219	5.76
295.432	5.51
295.645	5.28
295.858	5.23
296.071	5.12
296.284	5.36
296.497	5.26
296.71	5.36
296.923	5.39
297.136	5.5
297.349	5.66
297.562	5.79
297.775	6.16
297.988	6.16
298.201	6.2
298.414	6.55
298.626	6.28
298.839	6.59
299.052	5.98
299.265	5.51
299.478	5.03
299.691	5.03
299.903	4.77
300.116	4.7
300.329	4.74
300.542	4.65
300.755	4.7
300.967	4.64
301.18	4.32
301.393	4.36
301.605	5.14
301.818	5.16
302.031	4.87
302.243	5.16
302.456	5.19
302.669	5.93
302.881	5.95
303.094	5.74
303.307	6.03
303.519	5.86
303.732	6.45
303.944	6.15
304.157	6.19
304.37	6.68
304.582	6.45
304.795	6.4
305.007	5.91
305.22	5.92
305.432	5.87
305.645	6.01
305.857	6.5
306.069	6.14
306.282	6.57
306.494	6.42
306.707	6
306.919	6.27
307.132	6.33
307.344	6.16
307.556	6.26
307.769	6.35
307.981	6.29
308.193	6.19
308.406	6.2
308.618	5.68
308.83	5.89
309.043	6.33
309.255	6.3
309.467	6.27
309.679	6.25
309.892	6.29
310.104	6.1
310.316	5.82
310.528	5.87
310.74	5.87
310.953	6.04
311.165	6.01
311.377	5.72
311.589	5.73
311.801	5.66
312.013	5.52
312.225	5.22
312.437	5.49
312.649	5.86
312.862	5.38
313.074	5.28
313.286	5.52
313.498	5.46
313.71	5.35
313.922	5.71
314.134	5.31
314.346	5.48
314.558	5.77
314.77	5.56
314.982	5.44
315.193	5.97
315.405	6.33
315.617	6.23
315.829	5.98
316.041	5.97
316.253	5.78
316.465	6.06
316.677	6.35
316.888	6.39
317.1	6.66
317.312	6.77
317.524	6.75
317.736	6.45
317.947	6.59
318.159	7.02
318.371	7.28
318.583	6.72
318.794	6.62
319.006	6.56
319.218	6.16
319.43	5.98
319.641	5.88
319.853	5.75
320.064	5.56
320.276	5.53
320.488	4.99
320.699	4.55
320.911	4.71
321.123	5.21
321.334	5.14
321.546	5.89
321.757	5.67
321.969	5.79
322.18	5.52
322.392	5.95
322.603	5.84
322.815	6.08
323.026	6.31
323.238	6.33
323.449	6.26
323.661	6.07
323.872	5.75
324.083	5.85
324.295	5.7
324.506	6.37
324.718	6.21
324.929	6.06
325.14	5.97
325.352	6.02
325.563	6.53
325.774	6.89
325.986	7.19
326.197	7.56
326.408	7.59
326.62	7.74
326.831	7.09
327.042	6.73
327.253	6.69
327.464	6.31
327.676	6.19
327.887	5.6
328.098	4.87
328.309	4.92
328.52	4.47
328.732	4.49
328.943	4.55
329.154	4.95
329.365	5.29
329.576	5.64
329.787	6.73
329.998	6.22
330.209	6.66
330.42	6.93
330.631	6.56
330.842	6.24
331.053	6.84
331.264	6.59
331.475	6.69
331.686	6.45
331.897	6.2
332.108	5.93
332.319	6.79
332.53	6.97
332.741	6.7
332.952	6.45
333.163	6.44
333.374	5.87
333.585	5.73
333.795	5.71
334.006	5.83
334.217	5.72
334.428	5.69
334.639	5.19
334.849	5.27
335.06	5.71
335.271	5.46
335.482	5.65
335.692	5.6
335.903	5.96
336.114	5.76
336.325	5.73
336.535	5.96
336.746	5.44
336.957	6.09
337.167	5.62
337.378	5.6
337.589	5.63
337.799	5.75
338.01	5.64
338.22	5.46
338.431	5.21
338.642	5.3
338.852	5.39
339.063	5.78
339.273	5.59
339.484	5.58
339.694	5.51
339.905	5.9
340.115	5.89
340.326	6.05
340.536	6.17
340.746	6.43
340.957	6.29
341.167	5.91
341.378	6.07
341.588	5.62
341.799	5.27
342.009	5
342.219	4.85
342.43	4.82
342.64	4.93
342.85	4.94
343.061	4.97
343.271	5.09
343.481	5.15
343.691	5.12
343.902	5.18
344.112	5.71
344.322	6.16
344.532	6.12
344.743	5.8
344.953	5.6
345.163	5.88
345.373	5.53
345.583	5.61
345.793	5.33
346.004	5.21
346.214	5.15
346.424	4.86
346.634	4.75
346.844	4.93
347.054	5.12
347.264	5.4
347.474	4.7
347.684	4.9
347.894	5.03
348.104	5.16
348.314	5.02
348.524	5.3
348.734	5.2
348.944	5.25
349.154	5.78
349.364	5.57
349.574	5.48
349.784	5.42
349.994	5.91
350.204	5.67
350.413	5.94
350.623	5.64
350.833	5.42
351.043	5.32
351.253	4.99
351.463	4.32
351.672	4.42
351.882	3.93
352.092	4.32
352.302	3.98
352.511	4.29
352.721	4.46
352.931	4.93
353.141	4.89
353.35	5.1
353.56	5.12
353.77	5.29
353.979	5.21
354.189	5.69
354.399	5.58
354.608	5.43
354.818	5.4
355.027	5.54
355.237	5.35
355.447	5.45
355.656	5.5
355.866	5.47
356.075	5.47
356.285	5.41
356.494	5.42
356.704	5.19
356.913	5.19
357.123	5.17
357.332	4.71
357.542	4.67
357.751	4.59
357.96	4.83
358.17	4.53
358.379	4.78
358.589	4.91
358.798	4.71
359.007	4.63
359.217	4.73
359.426	4.52
359.635	4.56
359.845	4.59
360.054	4.56
360.263	4.29
360.472	4.51
360.682	4.33
360.891	4.42
361.1	4.45
361.309	4.65
361.519	4.36
361.728	4.48
361.937	4.69
362.146	4.5
362.355	4.67
362.564	4.64
362.774	4.87
362.983	4.96
363.192	5.03
363.401	5.04
363.61	5.2
363.819	5.2
364.028	5
364.237	4.64
364.446	4.81
364.655	4.77
364.864	4.71
365.073	4.23
365.282	3.95
365.491	3.97
365.7	3.81
365.909	3.67
366.118	3.88
366.327	4.19
366.536	4.36
366.745	4.42
366.954	4.45
367.162	4.38
367.371	4.56
367.58	4.65
367.789	4.43
367.998	4.62
368.207	4.59
368.415	4.53
368.624	4.33
368.833	4.22
369.042	4.55
369.25	4.39
369.459	4.63
369.668	4.66
369.877	4.52
370.085	4.52
370.294	4.56
370.503	4.44
370.711	4.45
370.92	4.38
371.129	4.32
371.337	4.17
371.546	4.1
371.754	3.8
371.963	3.85
372.171	3.95
372.38	3.78
372.589	3.72
372.797	3.83
373.006	3.93
373.214	3.87
373.423	3.74
373.631	3.77
373.84	3.94
374.048	4.2
374.256	4.28
374.465	4.14
374.673	4.41
374.882	4.36
375.09	4.29
375.298	4.04
375.507	4.18
375.715	4.34
375.923	4.22
376.132	4.12
376.34	3.79
376.548	3.78
376.757	3.81
376.965	3.61
377.173	3.53
377.381	3.44
377.59	3.56
377.798	3.42
378.006	3.57
378.214	3.64
378.423	3.85
378.631	4.18
378.839	4.28
379.047	4.13
379.255	4.18
379.463	4.49
379.671	4.74
379.879	4.63
380.088	4.82
380.296	4.75
380.504	4.6
380.712	4.52
380.92	4.35
381.128	4.18
381.336	4.3
381.544	4.31
381.752	3.91
381.96	3.65
382.168	3.86
382.376	3.78
382.584	3.63
382.791	3.73
382.999	3.56
383.207	3.74
383.415	3.52
383.623	3.31
383.831	3.47
384.039	3.51
384.247	3.64
384.454	3.63
384.662	3.57
384.87	3.54
385.078	3.65
385.285	3.77
385.493	3.39
385.701	3.59
385.909	3.8
386.116	3.65
386.324	3.65
386.532	3.55
386.739	3.59
386.947	3.77
387.155	3.66
387.362	3.52
387.57	3.45
387.778	3.67
387.985	3.76
388.193	3.99
388.4	3.81
388.608	3.96
388.816	3.91
389.023	4.01
389.231	3.83
389.438	4.08
389.646	4.06
389.853	3.95
390.061	3.9
390.268	3.79
390.475	3.62
390.683	3.69
390.89	3.56
391.098	3.77
391.305	3.81
391.512	3.86
391.72	3.76
391.927	3.72
392.135	3.81
392.342	3.8
392.549	4.04
392.756	4.06
392.964	4.14
393.171	4.05
393.378	4.03
393.586	3.76
393.793	3.71
394	3.65
394.207	3.74
394.414	3.69
394.622	3.73
394.829	3.4
395.036	3.06
395.243	3.04
395.45	3.13
395.657	2.94
395.864	2.87
396.072	2.82
396.279	2.85
396.486	2.51
396.693	2.61
396.9	2.53
397.107	2.69
397.314	2.93
397.521	2.9
397.728	2.85
397.935	3.06
398.142	3.12
398.349	3.24
398.556	3.33
398.763	3.62
398.97	3.63
399.177	3.7
399.383	3.49
399.59	3.51
399.797	3.51
400.004	3.43
400.211	3.32
400.418	3.34
400.625	3.23
400.831	3.14
401.038	3.08
401.245	2.91
401.452	2.92
401.658	3.02
401.865	2.93
402.072	2.93
402.279	3.03
402.485	2.92
402.692	2.97
402.899	3.03
403.105	3.01
403.312	2.83
403.519	2.96
403.725	2.91
403.932	2.97
404.138	2.94
404.345	2.88
404.552	2.96
404.758	3.06
404.965	2.97
405.171	2.86
405.378	2.96
405.584	3.05
405.791	2.87
405.997	2.89
406.204	2.6
406.41	2.66
406.617	2.57
406.823	2.56
407.029	2.49
407.236	2.52
407.442	2.55
407.649	2.52
407.855	2.66
408.061	2.64
408.268	2.65
408.474	2.83
408.68	2.83
408.887	2.97
409.093	2.84
409.299	2.89
409.505	2.88
409.712	2.92
409.918	2.79
410.124	2.61
410.33	2.75
410.537	2.6
410.743	2.58
410.949	2.53
411.155	2.5
411.361	2.55
411.567	2.29
411.773	2.39
411.98	2.27
412.186	2.31
412.392	2.32
412.598	2.39
412.804	2.39
413.01	2.63
413.216	2.69
413.422	2.68
413.628	2.71
413.834	2.97
414.04	2.78
414.246	2.78
414.452	2.7
414.658	2.72
414.864	2.7
415.07	2.75
415.275	2.58
415.481	2.49
415.687	2.33
415.893	2.39
416.099	2.33
416.305	2.43
416.511	2.38
416.716	2.53
416.922	2.55
417.128	2.31
417.334	2.25
417.539	2.27
417.745	2.34
417.951	2.42
418.157	2.32
418.362	2.22
418.568	2.15
418.774	2.14
418.979	2
419.185	2.02
419.391	2.06
419.596	2.02
419.802	1.98
420.008	1.92
420.213	2.2
420.419	2.23
420.624	2.29
420.83	2.36
421.035	2.42
421.241	2.4
421.446	2.24
421.652	2.24
421.857	2.24
422.063	2.18
422.268	2.17
422.474	1.84
422.679	1.83
422.885	1.81
423.09	1.73
423.295	1.63
423.501	1.66
423.706	1.81
423.911	1.9
424.117	1.95
424.322	1.97
424.527	2.07
424.733	2.01
424.938	1.97
425.143	2.03
425.349	2.01
425.554	2.11
425.759	2.13
425.964	2
426.169	1.92
426.375	1.98
426.58	2.01
426.785	1.97
426.99	2.14
427.195	2.16
427.4	2.08
427.605	2.17
427.811	2.13
428.016	2.23
428.221	2.3
428.426	2.33
428.631	2.17
428.836	2.27
429.041	2.22
429.246	2.16
429.451	2.11
429.656	2
429.861	1.92
430.066	1.82
430.271	1.74
430.476	1.79
430.681	1.71
430.886	1.86
431.09	1.73
431.295	1.64
431.5	1.65
431.705	1.67
431.91	1.73
432.115	1.75
432.32	1.8
432.524	1.73
432.729	1.69
432.934	1.8
433.139	1.68
433.343	1.77
433.548	1.71
433.753	1.62
433.958	1.5
434.162	1.52
434.367	1.5
434.572	1.36
434.776	1.44
434.981	1.29
435.186	1.25
435.39	1.26
435.595	1.19
435.799	1.22
436.004	1.34
436.209	1.45
436.413	1.5
436.618	1.46
436.822	1.57
437.027	1.55
437.231	1.6
437.436	1.57
437.64	1.58
437.845	1.6
438.049	1.74
438.253	1.67
438.458	1.62
438.662	1.54
438.867	1.57
439.071	1.58
439.275	1.62
439.48	1.73
439.684	1.79
439.888	1.78
440.093	1.76
440.297	1.72
440.501	1.71
440.706	1.76
440.91	1.79
441.114	1.78
441.318	1.79
441.523	1.75
441.727	1.69
441.931	1.68
442.135	1.63
442.339	1.57
442.543	1.53
442.748	1.61
442.952	1.66
443.156	1.66
443.36	1.67
443.564	1.6
443.768	1.55
443.972	1.52
444.176	1.45
444.38	1.45
444.584	1.46
444.788	1.43
444.992	1.33
445.196	1.36
445.4	1.27
445.604	1.33
445.808	1.41
446.012	1.45
446.216	1.4
446.42	1.46
446.624	1.51
446.828	1.59
447.032	1.67
447.235	1.76
447.439	1.64
447.643	1.72
447.847	1.67
448.051	1.69
448.254	1.69
448.458	1.79
448.662	1.68
448.866	1.52
449.069	1.49
449.273	1.45
449.477	1.44
449.681	1.45
449.884	1.41
450.088	1.35
450.292	1.38
450.495	1.27
450.699	1.3
450.902	1.3
451.106	1.43
451.31	1.32
451.513	1.25
451.717	1.16
451.92	1.09
452.124	1.11
452.327	1.2
452.531	1.1
452.734	1.17
452.938	1.02
453.141	1.11
453.345	1.14
453.548	1.25
453.752	1.27
453.955	1.3
454.158	1.42
454.362	1.45
454.565	1.39
454.769	1.44
454.972	1.37
455.175	1.44
455.379	1.44
455.582	1.44
455.785	1.32
455.988	1.29
456.192	1.32
456.395	1.21
456.598	1.28
456.801	1.25
457.005	1.16
457.208	1.19
457.411	1.13
457.614	1.13
457.817	1.15
458.021	1.2
458.224	1.28
458.427	1.25
458.63	1.28
458.833	1.26
459.036	1.24
459.239	1.32
459.442	1.3
459.645	1.39
459.848	1.29
460.051	1.27
460.254	1.26
460.457	1.15
460.66	1.13
460.863	1.14
461.066	0.99
461.269	1.02
461.472	0.86
461.675	0.94
461.878	0.88
462.081	0.92
462.284	0.9
462.486	0.86
462.689	0.9
462.892	0.93
463.095	0.91
463.298	0.97
463.5	0.95
463.703	1.12
463.906	1.14
464.109	1.1
464.311	1.07
464.514	1.02
464.717	1.01
464.92	1.08
465.122	1.15
465.325	1.19
465.528	1.31
465.73	1.35
465.933	1.32
466.135	1.36
466.338	1.42
466.541	1.47
466.743	1.62
466.946	1.69
467.148	1.64
467.351	1.56
467.553	1.64
467.756	1.6
467.958	1.59
468.161	1.57
468.363	1.57
468.566	1.67
468.768	1.74
468.971	1.61
469.173	1.61
469.375	1.65
469.578	1.69
469.78	1.63
469.983	1.57
470.185	1.57
470.387	1.61
470.59	1.53
470.792	1.46
470.994	1.34
471.196	1.33
471.399	1.27
471.601	1.19
471.803	1.23
472.005	1.28
472.208	1.29
472.41	1.29
472.612	1.29
472.814	1.21
473.016	1.19
473.218	1.29
473.421	1.46
473.623	1.58
473.825	1.62
474.027	1.62
474.229	1.48
474.431	1.51
474.633	1.56
474.835	1.6
475.037	1.69
475.239	1.72
475.441	1.71
475.643	1.58
475.845	1.46
476.047	1.42
476.249	1.39
476.451	1.33
476.653	1.31
476.855	1.27
477.057	1.14
477.258	1.08
477.46	1.05
477.662	0.94
477.864	0.94
478.066	0.97
478.268	1.04
478.469	1.04
478.671	1.16
478.873	1.16
479.075	1.12
479.276	1.22
479.478	1.33
479.68	1.29
479.882	1.36
480.083	1.34
480.285	1.37
480.487	1.31
480.688	1.32
480.89	1.29
481.091	1.28
481.293	1.26
481.495	1.2
481.696	1.14
481.898	1.14
482.099	1.13
482.301	1.16
482.502	1.13
482.704	1.11
482.905	1.12
483.107	1.09
483.308	1.07
483.51	1.07
483.711	1.07
483.913	1.07
484.114	1.1
484.315	1.08
484.517	1.06
484.718	1.08
484.92	1.1
485.121	1.06
485.322	1.07
485.524	1.1
485.725	1.15
485.926	1.15
486.127	1.15
486.329	1.12
486.53	1.18
486.731	1.15
486.932	1.14
487.134	1.18
487.335	1.21
487.536	1.25
487.737	1.25
487.938	1.21
488.139	1.21
488.341	1.23
488.542	1.24
488.743	1.2
488.944	1.23
489.145	1.27
489.346	1.23
489.547	1.23
489.748	1.22
489.949	1.22
490.15	1.26
490.351	1.28
490.552	1.28
490.753	1.3
490.954	1.31
491.155	1.3
491.356	1.27
491.557	1.34
491.758	1.39
491.959	1.41
492.159	1.42
492.36	1.4
492.561	1.4
492.762	1.42
492.963	1.4
493.164	1.39
493.364	1.31
493.565	1.38
493.766	1.29
493.967	1.16
494.167	1.15
494.368	1.09
494.569	1.1
494.769	1.03
494.97	1.05
495.171	1.06
495.371	1.05
495.572	1.16
495.773	1.18
495.973	1.2
496.174	1.31
496.375	1.35
496.575	1.4
496.776	1.47
496.976	1.59
497.177	1.57
497.377	1.55
497.578	1.61
497.778	1.57
497.979	1.51
498.179	1.54
498.38	1.49
498.58	1.49
498.78	1.52
498.981	1.47
499.181	1.38
499.382	1.41
499.582	1.41
499.782	1.34
499.983	1.37
500.183	1.42
500.383	1.43
500.584	1.43
500.784	1.32
500.984	1.35
501.184	1.32
501.385	1.39
501.585	1.38
501.785	1.46
501.985	1.49
502.185	1.54
502.386	1.55
502.586	1.51
502.786	1.48
502.986	1.54
503.186	1.49
503.386	1.53
503.586	1.51
503.786	1.57
503.987	1.59
504.187	1.66
504.387	1.62
504.587	1.59
504.787	1.58
504.987	1.57
505.187	1.54
505.387	1.57
505.587	1.5
505.786	1.56
505.986	1.47
506.186	1.46
506.386	1.46
506.586	1.42
506.786	1.39
506.986	1.44
507.186	1.52
507.386	1.64
507.585	1.68
507.785	1.77
507.985	1.72
508.185	1.78
508.384	1.79
508.584	1.75
508.784	1.82
508.984	1.89
509.183	1.84
509.383	1.8
509.583	1.79
509.782	1.81
509.982	1.77
510.182	1.81
510.381	1.74
510.581	1.73
510.781	1.76
510.98	1.76
511.18	1.73
511.379	1.78
511.579	1.79
511.778	1.73
511.978	1.68
512.177	1.74
512.377	1.74
512.576	1.79
512.776	1.78
512.975	1.77
513.175	1.8
513.374	1.87
513.573	1.9
513.773	1.89
513.972	1.87
514.172	1.94
514.371	1.94
514.57	1.93
514.77	2.01
514.969	2.08
515.168	2.04
515.367	1.98
515.567	1.94
515.766	1.95
515.965	1.96
516.164	1.98
516.364	1.95
516.563	1.99
516.762	2.03
516.961	1.99
517.16	1.99
517.359	2.05
517.559	2.05
517.758	2.09
517.957	2.11
518.156	2.15
518.355	2.2
518.554	2.21
518.753	2.16
518.952	2.12
519.151	2.13
519.35	2.11
519.549	2.16
519.748	2.24
519.947	2.29
520.146	2.22
520.345	2.18
520.544	2.16
520.743	2.13
520.942	2.12
521.141	2.11
521.339	2.15
521.538	2.13
521.737	2.1
521.936	2.11
522.135	2.03
522.333	2.09
522.532	2.12
522.731	2.11
522.93	2.19
523.129	2.21
523.327	2.3
523.526	2.34
523.725	2.33
523.923	2.3
524.122	2.31
524.321	2.33
524.519	2.36
524.718	2.4
524.917	2.47
525.115	2.45
525.314	2.46
525.512	2.42
525.711	2.43
525.909	2.47
526.108	2.5
526.306	2.48
526.505	2.48
526.703	2.49
526.902	2.51
527.1	2.51
527.299	2.53
527.497	2.55
527.696	2.6
527.894	2.62
528.092	2.65
528.291	2.63
528.489	2.68
528.688	2.72
528.886	2.74
529.084	2.75
529.283	2.73
529.481	2.75
529.679	2.81
529.877	2.86
530.076	2.86
530.274	2.86
530.472	2.91
530.67	2.94
530.869	2.99
531.067	3.02
531.265	3.06
531.463	3.11
531.661	3.11
531.859	3.07
532.057	3.03
532.255	3.04
532.454	3.06
532.652	3.13
532.85	3.1
533.048	3.09
533.246	3.11
533.444	3.18
533.642	3.24
533.84	3.35
534.038	3.39
534.236	3.47
534.434	3.5
534.632	3.54
534.83	3.58
535.027	3.64
535.225	3.69
535.423	3.69
535.621	3.68
535.819	3.7
536.017	3.69
536.215	3.77
536.412	3.75
536.61	3.8
536.808	3.79
537.006	3.79
537.203	3.8
537.401	3.84
537.599	3.92
537.797	3.94
537.994	3.98
538.192	4.05
538.39	4.06
538.587	4.06
538.785	4.05
538.983	4.08
539.18	4.1
539.378	4.16
539.575	4.17
539.773	4.2
539.97	4.2
540.168	4.19
540.366	4.21
540.563	4.22
540.761	4.26
540.958	4.32
541.155	4.39
541.353	4.43
541.55	4.46
541.748	4.51
541.945	4.53
542.143	4.55
542.34	4.61
542.537	4.64
542.735	4.7
542.932	4.77
543.129	4.84
543.327	4.88
543.524	4.9
543.721	4.93
543.919	4.98
544.116	5.08
544.313	5.17
544.51	5.23
544.708	5.28
544.905	5.3
545.102	5.28
545.299	5.31
545.496	5.37
545.693	5.44
545.891	5.38
546.088	5.4
546.285	5.36
546.482	5.33
546.679	5.42
546.876	5.43
547.073	5.52
547.27	5.67
547.467	5.7
547.664	5.78
547.861	5.84
548.058	6.04
548.255	6.13
548.452	6.22
548.649	6.34
548.846	6.49
549.043	6.56
549.24	6.63
549.437	6.64
549.633	6.66
549.83	6.76
550.027	6.86
550.224	6.86
550.421	6.98
550.618	7.15
550.814	7.25
551.011	7.2
551.208	7.26
551.405	7.32
551.601	7.45
551.798	7.48
551.995	7.51
552.191	7.61
552.388	7.75
552.585	7.86
552.781	7.79
552.978	7.73
553.175	7.81
553.371	7.89
553.568	7.95
553.764	7.93
553.961	8.05
554.157	8.07
554.354	8.01
554.55	8.1
554.747	8.17
554.943	8.29
555.14	8.54
555.336	8.55
555.533	8.78
555.729	8.84
555.926	8.98
556.122	9.03
556.318	9.15
556.515	9.3
556.711	9.36
556.907	9.41
557.104	9.55
557.3	9.58
557.496	9.67
557.693	9.78
557.889	9.86
558.085	9.96
558.281	10.05
558.478	10.07
558.674	10.24
558.87	10.29
559.066	10.41
559.262	10.51
559.459	10.55
559.655	10.72
559.851	10.63
560.047	10.81
560.243	10.79
560.439	10.94
560.635	11.09
560.831	11.05
561.027	11.16
561.223	11.16
561.419	11.23
561.615	11.48
561.811	11.66
562.007	11.89
562.203	11.82
562.399	11.97
562.595	12.06
562.791	12.09
562.987	12.12
563.183	12.09
563.379	12.19
563.575	12.22
563.771	12.17
563.966	12.14
564.162	12.1
564.358	12.23
564.554	12.3
564.75	12.33
564.945	12.33
565.141	12.45
565.337	12.55
565.533	12.54
565.728	12.6
565.924	12.65
566.12	12.68
566.315	12.77
566.511	12.81
566.707	12.84
566.902	12.92
567.098	13.09
567.293	13.26
567.489	13.29
567.684	13.49
567.88	13.54
568.076	13.62
568.271	13.72
568.467	13.8
568.662	13.97
568.858	14.11
569.053	14.18
569.248	14.33
569.444	14.36
569.639	14.56
569.835	14.58
570.03	14.74
570.225	14.8
570.421	14.85
570.616	14.9
570.812	14.88
571.007	14.9
571.202	14.89
571.397	14.96
571.593	14.98
571.788	15.02
571.983	15.09
572.178	15.14
572.374	15.19
572.569	15.2
572.764	15.32
572.959	15.42
573.154	15.47
573.35	15.56
573.545	15.59
573.74	15.59
573.935	15.65
574.13	15.69
574.325	15.69
574.52	15.71
574.715	15.86
574.91	15.8
575.105	15.86
575.3	15.88
575.495	15.98
575.69	15.96
575.885	16.06
576.08	16.01
576.275	16.09
576.47	16.11
576.665	16.16
576.86	16.18
577.055	16.31
577.25	16.27
577.444	16.34
577.639	16.47
577.834	16.5
578.029	16.67
578.224	16.8
578.418	16.9
578.613	17.08
578.808	17.22
579.003	17.29
579.197	17.31
579.392	17.49
579.587	17.57
579.781	17.6
579.976	17.68
580.171	17.57
580.365	17.61
580.56	17.59
580.755	17.58
580.949	17.67
581.144	17.62
581.338	17.65
581.533	17.61
581.727	17.74
581.922	17.79
582.116	17.85
582.311	17.82
582.505	17.91
582.7	17.92
582.894	17.96
583.089	17.86
583.283	17.94
583.478	18.14
583.672	18.38
583.866	18.37
584.061	18.32
584.255	18.22
584.449	18.38
584.644	18.33
584.838	18.25
585.032	18.25
585.226	18.39
585.421	18.49
585.615	18.37
585.809	18.13
586.003	18.09
586.198	18.19
586.392	18.27
586.586	18.32
586.78	18.36
586.974	18.41
587.168	18.41
587.363	18.36
587.557	18.43
587.751	18.53
587.945	18.6
588.139	18.77
588.333	18.69
588.527	18.76
588.721	18.78
588.915	18.88
589.109	19.02
589.303	19.05
589.497	19.01
589.691	18.98
589.885	18.93
590.079	19.08
590.273	19.13
590.466	19.15
590.66	19.28
590.854	19.39
591.048	19.39
591.242	19.37
591.436	19.57
591.629	19.78
591.823	19.69
592.017	19.75
592.211	19.67
592.404	19.66
592.598	19.79
592.792	19.71
592.986	19.64
593.179	19.63
593.373	19.73
593.567	19.54
593.76	19.45
593.954	19.55
594.147	19.61
594.341	19.78
594.535	19.75
594.728	19.73
594.922	19.74
595.115	19.74
595.309	19.75
595.502	19.75
595.696	19.86
595.889	19.84
596.083	19.8
596.276	19.85
596.47	19.9
596.663	19.85
596.856	19.81
597.05	19.97
597.243	20.09
597.437	20.07
597.63	20.05
597.823	20.05
598.017	20.18
598.21	20.33
598.403	20.14
598.596	20.06
598.79	20.24
598.983	20.25
599.176	20.07
599.369	19.95
599.563	20.04
599.756	20.08
599.949	20.1
600.142	20.14
600.335	20.1
600.528	20.3
600.722	20.29
600.915	20.33
601.108	20.45
601.301	20.42
601.494	20.4
601.687	20.54
601.88	20.63
602.073	20.67
602.266	20.7
602.459	20.62
602.652	20.62
602.845	20.7
603.038	20.58
603.231	20.68
603.424	20.77
603.617	20.89
603.809	20.76
604.002	20.69
604.195	20.69
604.388	20.71
604.581	20.91
604.774	20.92
604.966	20.83
605.159	20.98
605.352	20.92
605.545	20.98
605.737	21.04
605.93	21.12
606.123	21.17
606.316	21.1
606.508	21.2
606.701	21.03
606.894	21.03
607.086	21.13
607.279	20.97
607.471	20.87
607.664	20.79
607.857	20.62
608.049	20.62
608.242	20.63
608.434	20.77
608.627	20.6
608.819	20.67
609.012	20.67
609.204	20.65
609.397	20.76
609.589	20.83
609.782	20.96
609.974	21.1
610.166	21.15
610.359	21.21
610.551	21.18
610.743	21.26
610.936	21.19
611.128	21.1
611.32	21.14
611.513	21.12
611.705	21.23
611.897	21.3
612.09	21.33
612.282	21.43
612.474	21.28
612.666	21.36
612.858	21.36
613.051	21.62
613.243	21.68
613.435	21.73
613.627	21.69
613.819	21.63
614.011	21.56
614.203	21.55
614.395	21.41
614.588	21.64
614.78	21.51
614.972	21.59
615.164	21.59
615.356	21.46
615.548	21.53
615.74	21.61
615.932	21.73
616.124	21.8
616.315	21.96
616.507	22.04
616.699	22.12
616.891	22.2
617.083	22.1
617.275	22.01
617.467	22.11
617.659	21.96
617.85	22.08
618.042	21.8
618.234	21.62
618.426	21.56
618.618	21.57
618.809	21.29
619.001	21.31
619.193	21.26
619.384	21.21
619.576	21.55
619.768	21.54
619.959	21.41
620.151	21.5
620.343	21.66
620.534	21.7
620.726	21.7
620.917	21.97
621.109	21.98
621.301	22.11
621.492	22.27
621.684	22
621.875	22.18
622.067	22.22
622.258	22.35
622.45	22.39
622.641	22.36
622.832	22.23
623.024	22.17
623.215	22.2
623.407	22.23
623.598	22.29
623.789	22.28
623.981	22.27
624.172	22.14
624.363	22.02
624.555	21.92
624.746	21.86
624.937	21.81
625.129	21.72
625.32	21.73
625.511	21.72
625.702	21.6
625.893	21.64
626.085	21.64
626.276	21.74
626.467	21.71
626.658	21.72
626.849	21.73
627.04	21.95
627.231	22.15
627.422	22.12
627.614	22.1
627.805	22.08
627.996	22.07
628.187	21.96
628.378	22.13
628.569	22.3
628.76	22.43
628.951	22.38
629.142	22.32
629.332	22.36
629.523	22.47
629.714	22.58
629.905	22.74
630.096	22.74
630.287	22.8
630.478	22.84
630.669	22.78
630.859	22.7
631.05	22.61
631.241	22.53
631.432	22.36
631.623	22.41
631.813	22.39
632.004	22.3
632.195	22.36
632.385	22.36
632.576	22.33
632.767	22.36
632.957	22.36
633.148	22.66
633.339	22.9
633.529	23.01
633.72	22.92
633.91	22.9
634.101	22.88
634.292	23.02
634.482	23.02
634.673	22.79
634.863	22.69
635.054	22.61
635.244	22.44
635.435	22.3
635.625	22.16
635.815	22.09
636.006	21.96
636.196	21.84
636.387	21.85
636.577	22.01
636.767	22.22
636.958	22.38
637.148	22.52
637.338	22.69
637.529	22.78
637.719	22.86
637.909	23.11
638.099	23.37
638.29	23.57
638.48	23.54
638.67	23.35
638.86	23.25
639.05	22.98
639.241	22.92
639.431	22.71
639.621	22.54
639.811	22.59
640.001	22.44
640.191	22.36
640.381	22.39
640.571	22.38
640.761	22.59
640.951	22.83
641.141	23.05
641.331	23.21
641.521	23.41
641.711	23.58
641.901	23.65
642.091	23.74
642.281	23.71
642.471	23.66
642.661	23.45
642.851	23.38
643.041	22.93
643.231	22.87
643.42	22.75
643.61	22.73
643.8	22.64
643.99	22.46
644.18	22.43
644.369	22.47
644.559	22.63
644.749	22.77
644.939	22.85
645.128	23.23
645.318	23.48
645.508	23.5
645.697	23.39
645.887	23.4
646.076	23.42
646.266	23.29
646.456	23.15
646.645	23.03
646.835	22.87
647.024	22.68
647.214	22.67
647.403	22.55
647.593	22.51
647.782	22.54
647.972	22.54
648.161	22.68
648.351	22.86
648.54	22.84
648.73	22.79
648.919	23
649.108	23.13
649.298	22.92
649.487	22.8
649.677	22.92
649.866	22.91
650.055	22.98
650.244	23.03
650.434	22.95
650.623	23.2
650.812	23.25
651.002	23.1
651.191	23.1
651.38	23.29
651.569	23.26
651.758	23.25
651.947	23.29
652.137	23.26
652.326	23.24
652.515	23.22
652.704	23.18
652.893	23.12
653.082	23.23
653.271	23.18
653.46	23.02
653.649	23.26
653.838	23.11
654.027	23.08
654.216	23.39
654.405	23.39
654.594	23.22
654.783	23.41
654.972	23.7
655.161	23.61
655.35	23.6
655.539	23.6
655.728	23.5
655.916	23.42
656.105	23.55
656.294	23.2
656.483	23.06
656.672	23.09
656.86	22.9
657.049	22.74
657.238	22.82
657.427	22.67
657.615	22.68
657.804	22.71
657.993	22.94
658.181	22.88
658.37	22.98
658.559	22.96
658.747	23.15
658.936	23.17
659.125	23.18
659.313	23.01
659.502	23.19
659.69	23.26
659.879	23.24
660.067	23.2
660.256	23.22
660.444	23.26
660.633	23.19
660.821	23.28
661.01	23.27
661.198	23.52
661.387	23.85
661.575	24.02
661.763	24.14
661.952	24.13
662.14	24.03
662.328	24.2
662.517	24.1
662.705	24.3
662.893	24.3
663.082	24.19
663.27	23.83
663.458	23.7
663.646	23.63
663.834	23.6
664.023	23.72
664.211	23.71
664.399	23.65
664.587	23.71
664.775	23.73
664.963	23.48
665.152	23.7
665.34	23.9
665.528	23.92
665.716	23.81
665.904	23.77
666.092	23.9
666.28	23.99
666.468	23.97
666.656	23.95
666.844	24.02
667.032	24.13
667.22	23.93
667.408	23.59
667.596	23.69
667.784	23.73
667.971	23.68
668.159	23.31
668.347	23.44
668.535	23.23
668.723	23.07
668.911	22.8
669.098	22.56
669.286	22.67
669.474	22.89
669.662	22.83
669.849	22.86
670.037	22.84
670.225	23.35
670.413	23.22
670.6	23.22
670.788	23.18
670.976	23.35
671.163	23.61
671.351	23.74
671.538	23.81
671.726	23.68
671.913	23.67
672.101	23.55
672.289	23.18
672.476	23.18
672.664	23.25
672.851	23.33
673.039	23.34
673.226	23.27
673.413	23.11
673.601	23.01
673.788	23.04
673.976	23.06
674.163	23.12
674.35	23.22
674.538	23.1
674.725	23.33
674.912	23.34
675.1	23.31
675.287	23.52
675.474	23.38
675.662	23.37
675.849	23.52
676.036	23.45
676.223	23.72
676.411	23.76
676.598	24.04
676.785	24.06
676.972	24.25
677.159	24.26
677.346	24.37
677.533	24.69
677.721	24.54
677.908	24.62
678.095	24.76
678.282	24.82
678.469	24.75
678.656	24.57
678.843	24.52
679.03	24.3
679.217	24.42
679.404	24.34
679.591	24.42
679.778	24.57
679.964	24.3
680.151	24.28
680.338	24.25
680.525	24.32
680.712	24.33
680.899	24.41
681.086	24.42
681.272	24.29
681.459	24.18
681.646	24.05
681.833	24.12
682.02	24.57
682.206	24.49
682.393	24.3
682.58	24.31
682.766	24.35
682.953	24.13
683.14	24.44
683.326	24.67
683.513	24.53
683.7	24.44
683.886	24.6
684.073	24.36
684.259	24.31
684.446	24.51
684.632	24.57
684.819	24.63
685.005	24.75
685.192	24.69
685.378	24.58
685.565	24.79
685.751	24.67
685.938	24.47
686.124	24.34
686.31	24.36
686.497	24.21
686.683	24.11
686.87	24.06
687.056	24.17
687.242	24.1
687.429	24.16
687.615	23.97
687.801	24.2
687.987	24.49
688.174	24.67
688.36	24.59
688.546	24.7
688.732	24.86
688.918	24.79
689.105	24.59
689.291	24.68
689.477	24.79
689.663	25.15
689.849	24.95
690.035	24.54
690.221	24.45
690.407	24.73
690.593	24.87
690.779	24.61
690.965	24.83
691.151	24.65
691.337	24.77
691.523	24.85
691.709	24.88
691.895	24.82
692.081	24.99
692.267	25.17
692.453	24.9
692.639	24.74
692.825	25.04
693.011	24.86
693.196	25.18
693.382	25.19
693.568	25.21
693.754	25.01
693.94	25.43
694.125	25.38
694.311	25.31
694.497	25.43
694.682	25.21
694.868	24.85
695.054	24.84
695.239	25
695.425	24.8
695.611	24.87
695.796	24.79
695.982	24.78
696.168	24.58
696.353	24.47
696.539	24.59
696.724	24.63
696.91	24.74
697.095	24.82
697.281	24.52
697.466	24.59
697.652	24.33
697.837	24.45
698.023	24.35
698.208	24.43
698.393	24.36
698.579	24.14
698.764	24.32
698.949	24.43
699.135	24.42
699.32	24.78
699.505	24.69
699.691	24.7
699.876	24.62
700.061	24.68
700.246	24.8
700.432	25.13
700.617	25.4
700.802	25.31
700.987	24.81
701.172	25.02
701.358	24.87
701.543	25.13
701.728	24.87
701.913	25.01
702.098	25.01
702.283	25.18
702.468	25.15
702.653	25.3
702.838	25.13
703.023	25.57
703.208	25.32
703.393	25.26
703.578	24.8
703.763	25.22
703.948	25.27
704.133	24.98
704.318	25.09
704.503	25.02
704.688	24.84
704.873	25.1
705.057	24.92
705.242	24.89
705.427	24.78
705.612	24.86
705.797	24.94
705.981	24.79
706.166	24.54
706.351	24.63
706.536	24.41
706.72	24.3
706.905	24.13
707.09	24.37
707.274	24.33
707.459	24.36
707.644	24.32
707.828	24.18
708.013	23.99
708.197	24.64
708.382	24.05
708.567	24.1
708.751	24
708.936	24.2
709.12	24.08
709.305	24.03
709.489	23.95
709.673	24.39
709.858	24.29
710.042	24.17
710.227	24
710.411	24.11
710.596	24.29
710.78	24.36
710.964	24.39
711.149	24.7
711.333	24.61
711.517	25.06
711.702	24.8
711.886	25.07
712.07	25.34
712.254	25.32
712.438	25.68
712.623	25.63
712.807	25.74
712.991	25.64
713.175	25.49
713.359	25.43
713.544	25.13
713.728	24.96
713.912	24.68
714.096	24.43
714.28	24.4
714.464	24.46
714.648	24.28
714.832	24.09
715.016	24.02
715.2	24.14
715.384	24.34
715.568	24.05
715.752	24.17
715.936	24.22
716.12	24.48
716.304	24.58
716.488	24.56
716.671	24.85
716.855	24.87
717.039	25.05
717.223	25.15
717.407	24.87
717.59	24.99
717.774	24.75
717.958	24.74
718.142	24.44
718.325	24.08
718.509	23.78
718.693	23.75
718.877	24.13
719.06	24.27
719.244	24.26
719.428	24.98
719.611	25.42
719.795	26.37
719.978	25.75
720.162	25.73
720.345	26.4
720.529	26.46
720.713	26.5
720.896	26.6
721.08	26.14
721.263	25.97
721.446	25.81
721.63	25.56
721.813	25.01
721.997	25.48
722.18	26.04
722.364	25.8
722.547	25.32
722.73	25.31
722.914	25.05
723.097	24.76
723.28	24.71
723.464	24.44
723.647	24.4
723.83	24.32
724.013	24.69
724.197	24.69
724.38	24.56
724.563	24.89
724.746	24.91
724.929	24.93
725.112	25.41
725.296	25.14
725.479	25.22
725.662	25.34
725.845	24.95
726.028	25.16
726.211	25.28
726.394	25.4
726.577	25.55
726.76	25.18
726.943	25.14
727.126	25.06
727.309	25.24
727.492	25.13
727.675	25.28
727.858	25.8
728.041	25.72
728.224	25.48
728.407	25.34
728.589	24.89
728.772	24.94
728.955	24.77
729.138	24.67
729.321	24.62
729.503	24.67
729.686	24.72
729.869	24.44
730.052	24.58
730.234	24.38
730.417	24.44
730.6	24.7
730.782	24.85
730.965	24.92
731.148	25.1
731.33	24.99
731.513	25.32
731.695	24.95
731.878	25.06
732.061	24.73
732.243	24.9
732.426	24.73
732.608	24.98
732.791	24.47
732.973	24.48
733.156	24.72
733.338	24.71
733.52	24.43
733.703	24.83
733.885	25.02
734.068	25.03
734.25	24.37
734.432	24.89
734.615	24.78
734.797	25.4
734.979	25.64
735.162	25.36
735.344	25.32
735.526	25.22
735.708	24.95
735.891	24.75
736.073	25.05
736.255	25.58
736.437	24.87
736.619	25.21
736.802	25.44
736.984	25.3
737.166	25.4
737.348	25.55
737.53	25.24
737.712	25.2
737.894	25.18
738.076	25.49
738.258	25.29
738.44	25.65
738.622	25.71
738.804	25.28
738.986	25.67
739.168	25.82
739.35	25.88
739.532	26.02
739.714	26.24
739.896	26.38
740.078	25.88
740.259	26.13
740.441	25.87
740.623	25.57
740.805	25.86
740.987	25.62
741.168	25.36
741.35	25.48
741.532	25.83
741.714	25.9
741.895	26.25
742.077	25.91
742.259	25.7
742.44	26.14
742.622	25.95
742.804	25.54
742.985	25.67
743.167	26.03
743.348	26.05
743.53	25.59
743.711	25.03
743.893	24.44
744.075	24.88
744.256	25.2
744.438	24.74
744.619	25.25
744.8	25.61
744.982	25.32
745.163	24.99
745.345	25.13
745.526	25.52
745.707	26.09
745.889	26.5
746.07	26
746.252	26.11
746.433	26.47
746.614	25.98
746.795	26.07
746.977	26.28
747.158	26.09
747.339	26.44
747.52	27.07
747.702	27.24
747.883	26.87
748.064	27.11
748.245	27.24
748.426	27.28
748.607	27.11
748.788	26.9
748.97	26.06
749.151	26.09
749.332	25.85
749.513	25.15
749.694	25.36
749.875	25.13
750.056	25.26
750.237	25.1
750.418	25.14
750.599	25.39
750.78	25.58
750.96	26.07
751.141	26.49
751.322	25.69
751.503	25.83
751.684	25.2
751.865	25.25
752.046	25.06
752.226	25.52
752.407	25.15
752.588	25.27
752.769	25.28
752.949	25.74
753.13	25.25
753.311	25.62
753.492	25.5
753.672	25.6
753.853	26.36
754.034	26.84
754.214	26.26
754.395	26.53
754.575	26.32
754.756	26.03
754.937	25.74
755.117	26.54
755.298	27
755.478	27.62
755.659	27.69
755.839	26.76
756.02	26.02
756.2	26.11
756.381	25.89
756.561	26.34
756.741	26.57
756.922	26.63
757.102	26.48
757.283	25.98
757.463	25.1
757.643	25.22
757.823	25.98
758.004	26.93
758.184	27.02
758.364	26.8
758.545	26.3
758.725	26.13
758.905	26.76
759.085	26.19
759.265	25.8
759.446	26.07
759.626	25.63
759.806	25.45
759.986	24.67
760.166	24.23
760.346	24.24
760.526	24.5
760.706	24.77
760.886	24.22
761.066	24.79
761.246	24.92
761.426	25.3
761.606	25.13
761.786	24.8
761.966	24.6
762.146	24.87
762.326	24.95
762.506	24.71
762.686	24.42
762.866	24.03
763.046	23.35
763.225	23.34
763.405	23.01
763.585	23.33
763.765	23.36
763.945	23.42
764.124	23.28
764.304	23.11
764.484	23.15
764.664	23.31
764.843	23.6
765.023	23.92
765.203	23.91
765.382	23.88
765.562	24
765.741	23.85
765.921	23.98
766.101	23.86
766.28	24.18
766.46	23.89
766.639	23.54
766.819	23.36
766.998	24.02
767.178	24.55
767.357	24.83
767.537	24.98
767.716	25.57
767.896	25.57
768.075	25.96
768.254	26.56
768.434	26.9
768.613	26.9
768.792	26.67
768.972	26.26
769.151	25.92
769.33	25.7
769.51	24.99
769.689	24.58
769.868	24.87
770.047	24.99
770.226	24.85
770.406	25.49
770.585	26.65
770.764	26.56
770.943	26.03
771.122	26.53
771.301	25.92
771.48	26.35
771.66	26.63
771.839	26.08
772.018	26.1
772.197	25.3
772.376	25.15
772.555	24.13
772.734	24.6
772.913	25.23
773.092	24.71
773.271	25.79
773.449	25.83
773.628	25.52
773.807	26.53
773.986	25.36
774.165	25.98
774.344	25.53
774.523	25.84
774.701	25.86
774.88	25.64
775.059	25.84
775.238	25.79
775.417	25.54
775.595	26.32
775.774	26.7
775.953	28.45
776.131	28.03
776.31	28.49
776.489	28.19
776.667	29.03
776.846	29.57
777.025	29.63
777.203	29.43
777.382	29.84
777.56	28.28
777.739	26.83
777.917	26.21
778.096	26.31
778.274	26.7
778.453	26.9
778.631	26.38
778.81	25.3
778.988	24.86
779.166	24.92
779.345	24.36
779.523	25.13
779.702	26.17
779.88	25.62
780.058	25.58
780.237	24.6
780.415	24.16
780.593	23.56
780.771	24.12
780.95	24.45
781.128	25.01
781.306	25.23
781.484	25.17
781.662	24.95
781.841	24.78
782.019	24.94
782.197	24.91
782.375	25.75
782.553	26.38
782.731	26.19
782.909	26.35
783.087	25.55
783.265	25.86
783.443	25.6
783.621	25.51
783.799	25.87
783.977	25.52
784.155	26.22
784.333	25.54
784.511	24.84
784.689	25.88
784.867	25.97
785.045	25.92
785.223	24.78
785.4	24.62
785.578	24.37
785.756	24.83
785.934	24.74
786.112	24.4
786.289	24.81
786.467	24.99
786.645	24
786.823	23.23
787	23.37
787.178	23.87
787.356	24.81
787.533	24.82
787.711	23.73
787.889	23.87
788.066	23.61
788.244	24.05
788.421	23.75
788.599	24.55
788.776	25.2
788.954	24.78
789.131	24.58
789.309	23.95
789.486	24.19
789.664	24.5
789.841	25.13
790.019	25.38
790.196	24.58
790.373	24.75
790.551	23.67
790.728	23.36
790.906	23.71
791.083	25.11
791.26	24.64
791.437	24.15
791.615	24.95
791.792	24.77
791.969	24.53
792.146	25.62
792.324	26.83
792.501	26.88
792.678	26.7
792.855	26.25
793.032	25.4
793.209	25.6
793.387	25.77
793.564	24.41
793.741	24.32
793.918	25.7
794.095	25.38
794.272	24.47
794.449	25.4
794.626	25.35
794.803	25.69
794.98	25.89
795.157	26.76
795.334	27.2
795.511	29.19
795.688	28.17
795.864	27.55
796.041	27.44
796.218	28.18
796.395	27.39
796.572	28.35
796.749	28.42
796.925	28.63
797.102	28.26
797.279	27.45
797.456	26.32
797.632	26.93
797.809	26.89
797.986	26.84
798.162	26.05
798.339	26.06
798.516	25.04
798.692	25.48
798.869	24.48
799.046	25.11
799.222	25.66
799.399	26.13
799.575	26.41
799.752	26.07
799.928	26.51
800.105	26.76
800.281	27.01
800.458	27.11
800.634	27.58
800.811	28.12
800.987	28.03
801.163	28.03
801.34	26.64
801.516	27.8
801.692	27.54
801.869	26.22
802.045	26.87
802.221	27.11
802.398	27.34
802.574	26.12
802.75	26.06
802.926	26.19
803.103	26.27
803.279	27.44
803.455	26.96
803.631	27.17
803.807	27.33
803.983	27.91
804.16	27.83
804.336	27.77
804.512	28.73
804.688	29.69
804.864	29.3
805.04	29.93
805.216	29.73
805.392	29.09
805.568	29.44
805.744	28.48
805.92	27.55
806.096	27.79
806.272	27.04
806.448	26.21
806.623	25.81
806.799	26.02
806.975	26.02
807.151	27.16
807.327	27.63
807.503	27.31
807.678	28.17
807.854	27.01
808.03	27.27
808.206	28.72
808.381	29.21
808.557	29.06
808.733	27.65
808.908	26.6
809.084	24.65
809.26	24.18
809.435	23.22
809.611	23.7
809.787	24.49
809.962	24.83
810.138	22.9
810.313	23.08
810.489	22.51
810.664	23.49
810.84	23.93
811.015	26.12
811.191	26.33
811.366	28.12
811.542	27.69
811.717	27.88
811.892	27.07
812.068	28.43
812.243	28.13
812.419	28.17
812.594	27.66
812.769	28.43
812.944	26.34
813.12	25.9
813.295	25.07
813.47	25.92
813.645	26.08
813.821	25
813.996	26.09
814.171	25.39
814.346	25.53
814.521	26.3
814.697	26.53
814.872	26.71
815.047	26.64
815.222	26.9
815.397	27.34
815.572	26.99
815.747	28.11
815.922	26.72
816.097	26.74
816.272	24.65
816.447	24.3
816.622	23.74
816.797	23.34
816.972	23.88
817.147	23.73
817.322	23.15
817.496	24.55
817.671	24.44
817.846	24.98
818.021	26.21
818.196	28.45
818.371	28.3
818.545	28.05
818.72	28.3
818.895	27.85
819.069	27.99
819.244	27.77
819.419	26.79
819.594	26.48
819.768	25.97
819.943	25.78
820.117	25.33
820.292	25.6
820.467	25.08
820.641	24.86
820.816	25.13
820.99	25
821.165	24.73
821.339	24.55
821.514	24.44
821.688	24.42
821.863	24.6
822.037	24.79
822.212	24.76
822.386	24.88
822.56	25.14
822.735	25.19
822.909	24.97
823.084	25.13
823.258	25.12
823.432	25.31
823.606	25.43
823.781	25.11
823.955	24.99
824.129	24.9
824.303	25.01
824.478	24.89
824.652	24.36
824.826	24.71
825	24.64
825.174	24.85
825.348	24.78
825.523	24.35
825.697	24.6
825.871	24.66
826.045	24.26
826.219	24.58
826.393	24.6
826.567	25.09
826.741	25.35
826.915	25.52
827.089	25.66
827.263	25.76
827.437	25.91
827.611	25.32
827.784	25.33
827.958	25.67
828.132	25.01
828.306	25.24
828.48	25.34
828.654	25.15
828.827	24.79
829.001	24.61
829.175	24.05
829.349	24.89
829.522	25.32
829.696	26.66
829.87	27.16
830.044	27.41
830.217	27.15
830.391	26.39
830.565	25.92
830.738	27.08
830.912	27.29
831.085	28.7
831.259	28.05
831.432	28.77
831.606	27.82
831.779	27.6
831.953	28.05
832.126	27.86
832.3	27.31
832.473	27.18
832.647	26.11
832.82	26.13
832.994	25.62
833.167	25.64
833.34	24.83
833.514	23.71
833.687	23.7
833.86	23.61
834.034	23.64
834.207	24.46
834.38	25.17
834.553	25.4
834.727	25.61
834.9	25.65
835.073	26
835.246	27.44
835.419	27.61
835.593	27.61
835.766	28.61
835.939	28.76
836.112	27.88
836.285	27.19
836.458	27.86
836.631	27.41
836.804	27.71
836.977	27.74
837.15	26.08
837.323	26.46
837.496	27.63
837.669	26.31
837.842	25.41
838.015	27.62
838.188	28.65
838.361	27.94
838.533	27.65
838.706	28.44
838.879	29.2
839.052	30.37
839.225	31.71
839.398	31.86
839.57	32.18
839.743	32.08
839.916	31.13
840.088	30.01
840.261	29.62
840.434	30.6
840.607	29.85
840.779	28.93
840.952	28.42
841.124	27.01
841.297	26.85
841.47	26.49
841.642	27.93
841.815	27.3
841.987	27.2
842.16	27.33
842.332	28.67
842.505	28.05
842.677	26.88
842.85	28.21
843.022	27.13
843.194	27.27
843.367	28.26
843.539	28.38
843.712	29.79
843.884	32.7
844.056	33.64
844.229	31.48
844.401	32.82
844.573	34.93
844.745	32.08
844.918	34.59
845.09	30.51
845.262	29.46
845.434	28.97
845.606	26.99
845.779	25.99
845.951	27.24
846.123	28.27
846.295	27.43
846.467	26.26
846.639	26.47
846.811	24.67
846.983	26.58
847.155	28.62
847.327	29.93
847.499	33.26
847.671	30.73
847.843	30.65
848.015	32.55
848.187	31.91
848.359	32.82
848.531	32.3
848.703	33.56
848.875	35.83
849.047	35.81
849.218	35.29
849.39	33.81
849.562	34.64
849.734	32.14
849.905	29.52
850.077	28.56
850.249	27.91
850.421	30.91
850.592	30.39
850.764	28.73
850.936	27.91
851.107	26.54
851.279	28.96
851.451	28.03
851.622	29.58
851.794	31.15
851.965	31
852.137	31.81
852.308	32.63
852.48	32.75
852.651	33.48
852.823	32.08
852.994	31.64
853.166	29.2
853.337	30.59
853.509	29.58
853.68	29.33
853.851	31.94
854.023	31.05
854.194	27.8
854.365	30.36
854.537	29.08
854.708	28.18
854.879	29.18
855.05	28.7
855.222	29.75
855.393	30.94
855.564	26.89
855.735	26.92
855.906	27.77
856.078	26.03
856.249	23.61
856.42	24.41
856.591	23.51
856.762	21.31
856.933	24.59
857.104	25.82
857.275	25.56
857.446	27.37
857.617	24.1
857.788	20.55
857.959	20.92
858.13	20.61
858.301	22.1
858.472	24.69
858.643	31.09
858.814	28.44
858.985	26.55
859.155	24.78
859.326	27.03
859.497	31.96
859.668	36.98
859.839	40.2
860.009	41.42
860.18	40.17
860.351	40.75
860.522	34.51
860.692	34.91
860.863	34.61
861.034	38.93
861.204	34.12
861.375	29.13
861.546	24.26
861.716	24.96
861.887	26.17
862.057	24.57
862.228	23.23
862.398	25.22
862.569	26.26
862.739	24.2
862.91	18.02
863.08	19.22
863.251	23.47
863.421	29.07
863.592	26.68
863.762	22.69
863.932	24.5
864.103	27.12
864.273	27.11
864.443	23.47
864.614	26.24
864.784	26.02
864.954	30.22
865.125	27.92
865.295	27.11
865.465	29.26
865.635	30.25
865.805	31.02
865.976	27.59
866.146	26.16
866.316	26.02
866.486	21.66
866.656	23.57
866.826	21.09
866.996	25.74
867.166	25.94
867.336	25.11
867.506	25.5
867.676	24.1
867.846	23.62
868.016	32.05
868.186	34.47
868.356	35.62
868.526	38.49
868.696	36.69
868.866	32.5
869.036	35.45
869.206	34.16
869.376	31.52
869.545	32.22
869.715	30.76
869.885	23.15
870.055	26.19
870.224	28.46
870.394	26.86
870.564	34.28
870.734	34.97
870.903	35.25
871.073	40.28
871.243	41.71
871.412	39.4
871.582	42.26
871.751	41.44
871.921	40.56
872.091	41.96
872.26	41.79
872.43	39.56
872.599	38.29
872.769	33.77
872.938	27.99
873.108	30.87
873.277	30.83
873.446	27.2
873.616	28.48
873.785	26.66
873.955	23.59
874.124	24.34
874.293	22.57
874.463	22.74
874.632	23.36
874.801	30.08
874.971	28.85
875.14	27.57
875.309	30.94
875.478	32.1
875.647	31.25
875.817	34.42
875.986	33.34
876.155	29.53
876.324	28.72
876.493	27.06
876.662	24.18
876.831	22.02
877	18.84
877.17	19.63
877.339	26.08
877.508	27.6
877.677	24.19
877.846	26.65
878.015	30.83
878.184	33.68
878.352	34.46
878.521	32.97
878.69	35.47
878.859	40.06
879.028	38.8
879.197	35.85
879.366	35.03
879.534	34.69
879.703	31.84
879.872	31.96
880.041	30.32
880.21	28.51
880.378	28.36
880.547	25.67
880.716	24.42
880.884	23.28
881.053	21.75
881.222	21.61
881.39	21.34
881.559	21.77
881.727	21.56
881.896	21.93
882.065	21.98
882.233	21.48
882.402	21.95
882.57	21.7
882.739	22.14
882.907	22.99
883.076	23.23
883.244	23.35
883.412	22.34
883.581	22.47
883.749	22.09
883.918	22.47
884.086	23.27
884.254	24.29
884.423	24.73
884.591	24.39
884.759	23.6
884.927	24.32
885.096	23.96
885.264	26.2
885.432	26.23
885.6	26.98
885.769	27.56
885.937	26.73
886.105	24.98
886.273	25.69
886.441	27.49
886.609	26.39
886.777	25.09
886.945	26.93
887.113	26.17
887.281	26.88
887.449	25.42
887.617	26.95
887.785	28.99
887.953	30.11
888.121	31.16
888.289	32.74
888.457	36.53
888.625	33.97
888.793	32.63
888.961	30.35
889.129	30.78
889.296	33.44
889.464	32.25
889.632	31.13
889.8	31.75
889.967	30.4
890.135	24.99
