Data from 2938558_Reflection_2.txt Node
Date: Sun Jun 14 23:32:46 EDT 2015
User: robert
Spectrometer: USB4E03002
Autoset integration time: false
Trigger mode: 4
Integration Time (sec): 1.000000E-1
Scans to average: 10
Electric dark correction enabled: true
Nonlinearity correction enabled: false
Boxcar width: 5
Stray light correction enabled: false
XAxis mode: Wavelengths
Stop averaging: false
Number of Pixels in Spectrum: 3648
>>>>>Begin Spectral Data<<<<<
177.575	535.05
177.794	-345.4
178.014	487.81
178.233	-330.59
178.452	-82.22
178.672	218.88
178.891	192
179.11	-7.08
179.33	50.37
179.549	116.7
179.768	173.21
179.987	184.65
180.207	142.27
180.426	157.65
180.645	293.93
180.864	282.93
181.084	160.13
181.303	184.08
181.522	196.8
181.741	256.6
181.96	409.41
182.179	281.66
182.398	317.81
182.618	690.95
182.837	253.52
183.056	95.56
183.275	149.34
183.494	145.95
183.713	100.47
183.932	82.87
184.151	110.68
184.37	153.46
184.589	228.8
184.808	300.95
185.027	232.9
185.246	-277.23
185.465	-289.74
185.684	-317.48
185.903	-146.76
186.122	1149.13
186.341	380.36
186.56	311.75
186.779	258.77
186.998	173.41
187.216	129.67
187.435	176.09
187.654	162.19
187.873	159.89
188.092	186.14
188.311	337.65
188.53	283.19
188.748	-435.43
188.967	-138.96
189.186	-929.58
189.405	-1106.24
189.623	-989.37
189.842	-5511.11
190.061	-934.76
190.28	-1327.67
190.498	304.97
190.717	160.6
190.936	219.36
191.154	138.75
191.373	150.16
191.592	153.42
191.81	122.25
192.029	147.52
192.248	149.21
192.466	310.39
192.685	151.98
192.904	178.47
193.122	-584.88
193.341	2000
193.559	-49.81
193.778	105.89
193.996	-5.93
194.215	44.23
194.433	33.04
194.652	63.46
194.87	19.5
195.089	74.43
195.307	61.04
195.526	26.82
195.744	44.48
195.963	42.47
196.181	55.67
196.399	71.96
196.618	45.77
196.836	26.22
197.055	39.24
197.273	5.09
197.491	-214.46
197.71	-42.12
197.928	6.73
198.146	43.38
198.365	-1.89
198.583	0.13
198.801	181.61
199.019	169.88
199.238	541.27
199.456	132.17
199.674	161.41
199.892	157.31
200.111	144.51
200.329	409.02
200.547	259.25
200.765	202.85
200.983	153.08
201.202	159.92
201.42	136.84
201.638	92.1
201.856	156.72
202.074	101.21
202.292	80.83
202.51	55.19
202.728	48.55
202.946	46.78
203.165	42.49
203.383	21.53
203.601	-372.89
203.819	165.61
204.037	875.4
204.255	224.16
204.473	9.98
204.691	64.74
204.909	2.56
205.127	-21.74
205.345	-183.66
205.562	-121.95
205.78	-529.35
205.998	888.55
206.216	-7368.97
206.434	-10477.01
206.652	-879.83
206.87	-872.48
207.088	7651.24
207.306	-7425
207.523	-359.38
207.741	-82.91
207.959	-53.21
208.177	-32.4
208.395	-69.53
208.612	-76.47
208.83	-35.09
209.048	-51.85
209.266	-42.18
209.483	-38.25
209.701	-56.33
209.919	-72.55
210.136	-116.29
210.354	-149.18
210.572	-303.04
210.79	-418.57
211.007	-813.01
211.225	-4869.14
211.442	893.47
211.66	423.11
211.878	463.43
212.095	-27.28
212.313	-35.49
212.53	-19.9
212.748	4.06
212.966	35.41
213.183	61.56
213.401	58.86
213.618	60.11
213.836	64.17
214.053	67.94
214.271	79.04
214.488	2.07
214.705	27.81
214.923	13.38
215.14	-2.04
215.358	-36.83
215.575	-93.3
215.793	-45.36
216.01	-133.85
216.227	-149.32
216.445	-181.23
216.662	-263.62
216.879	-190.1
217.097	-268.15
217.314	-166.38
217.531	-170.34
217.749	-174.99
217.966	-153.52
218.183	-269.18
218.4	-81.12
218.618	-110.38
218.835	-78.53
219.052	-71.96
219.269	-45.81
219.487	-64.62
219.704	-65.8
219.921	-59.41
220.138	-42.99
220.355	-44.43
220.572	-46.74
220.79	-44.1
221.007	-24.17
221.224	-29.79
221.441	-34.64
221.658	-42.31
221.875	-23.76
222.092	-32.46
222.309	-25.31
222.526	-32.69
222.743	-25.13
222.96	-17.44
223.177	-19.07
223.394	-25.16
223.611	-24.02
223.828	-21.95
224.045	-12.45
224.262	-17.75
224.479	-8.57
224.696	-9.26
224.913	-8.94
225.13	-8.77
225.347	-6.39
225.564	-6.73
225.781	-4.51
225.997	-1.68
226.214	1.6
226.431	0.91
226.648	3.26
226.865	3.03
227.082	2.98
227.298	4.91
227.515	5.87
227.732	6.29
227.949	6.36
228.165	5.98
228.382	4.48
228.599	2.77
228.816	2.79
229.032	2.19
229.249	1.52
229.466	2.18
229.682	1.63
229.899	-0.21
230.116	-0.87
230.332	-1.36
230.549	-1.31
230.765	-0.42
230.982	-0.52
231.199	1.29
231.415	0.96
231.632	2.27
231.848	3.08
232.065	3.35
232.281	2.58
232.498	2.32
232.714	3.25
232.931	4.91
233.147	6.48
233.364	9.92
233.58	7.61
233.797	7.8
234.013	6.6
234.23	5.8
234.446	3.96
234.662	4.37
234.879	1.61
235.095	1.1
235.312	0.05
235.528	-2.25
235.744	-3.36
235.961	-1.93
236.177	-1.11
236.393	-1.8
236.61	-3.9
236.826	-2.82
237.042	-3.86
237.258	-0.49
237.475	-0.81
237.691	0.07
237.907	0.65
238.123	1.55
238.339	1.11
238.556	1.55
238.772	1.08
238.988	3.2
239.204	3.77
239.42	4.26
239.636	3.8
239.853	4.66
240.069	4.76
240.285	5.31
240.501	5.44
240.717	5.98
240.933	5.58
241.149	6.33
241.365	6.27
241.581	6.48
241.797	7.75
242.013	7.7
242.229	7.28
242.445	7.15
242.661	6.86
242.877	6.93
243.093	6.41
243.309	6.92
243.525	6.95
243.741	6.62
243.957	6.06
244.173	5.78
244.388	6.32
244.604	6.48
244.82	6.83
245.036	7.23
245.252	6.86
245.468	7.04
245.683	6.86
245.899	6.72
246.115	7.16
246.331	7.22
246.547	7.01
246.762	6.63
246.978	6.89
247.194	6.55
247.409	6.42
247.625	6.41
247.841	5.99
248.057	5.59
248.272	5.39
248.488	4.84
248.703	4.79
248.919	4.14
249.135	3.84
249.35	3.65
249.566	3.18
249.782	2.83
249.997	2.75
250.213	3
250.428	3.84
250.644	4.03
250.859	4.56
251.075	4.21
251.29	4.5
251.506	5.16
251.721	3.63
251.937	3.93
252.152	4.34
252.368	4.65
252.583	4.5
252.798	3.39
253.014	2.16
253.229	0.53
253.445	0.86
253.66	1.23
253.875	0.21
254.091	1.28
254.306	1.58
254.521	0.62
254.737	0.74
254.952	0.32
255.167	0.62
255.383	2.24
255.598	2.61
255.813	2.81
256.028	2.37
256.244	2.84
256.459	3.06
256.674	3.22
256.889	3.28
257.104	3.8
257.32	3.78
257.535	4.11
257.75	3.86
257.965	3.68
258.18	3.36
258.395	3.67
258.61	3.81
258.826	3.77
259.041	3.35
259.256	3.37
259.471	2.81
259.686	2.9
259.901	2.98
260.116	2.75
260.331	2.88
260.546	3.39
260.761	3.13
260.976	2.9
261.191	2.99
261.406	3.19
261.621	3.36
261.836	3.58
262.05	4.24
262.265	3.18
262.48	3.59
262.695	3.51
262.91	2.68
263.125	2.47
263.34	1.83
263.555	1.42
263.769	1.73
263.984	1.72
264.199	2.02
264.414	2.01
264.629	2.6
264.843	2.51
265.058	2.04
265.273	2.03
265.488	1.87
265.702	2.15
265.917	2.71
266.132	2.98
266.346	3.21
266.561	2.94
266.776	2.12
266.99	2.11
267.205	2.05
267.42	2.91
267.634	3.45
267.849	3.61
268.063	4.2
268.278	4.07
268.492	3.52
268.707	2.92
268.922	3.01
269.136	3.45
269.351	3.46
269.565	3.68
269.78	3.55
269.994	3.43
270.209	3.52
270.423	3.36
270.637	2.83
270.852	3.32
271.066	3.38
271.281	3.15
271.495	3.27
271.709	3.07
271.924	2.74
272.138	2.23
272.353	1.97
272.567	2.1
272.781	1.85
272.996	2.32
273.21	2.06
273.424	1.96
273.638	1.93
273.853	2.3
274.067	2.63
274.281	3.21
274.495	3.19
274.71	3.78
274.924	3.26
275.138	3.25
275.352	3.03
275.566	3.39
275.781	3.48
275.995	3.73
276.209	3.27
276.423	3.76
276.637	3.55
276.851	3.9
277.065	3.81
277.279	4.48
277.493	4.82
277.707	4.32
277.921	4.06
278.135	4.04
278.349	4.01
278.563	3.83
278.777	3.22
278.991	3.55
279.205	3.48
279.419	3.24
279.633	2.88
279.847	3
280.061	3.35
280.275	3.19
280.489	3.64
280.703	3.85
280.917	3.74
281.131	3.71
281.344	3.08
281.558	3.35
281.772	3.57
281.986	3.55
282.2	3.11
282.414	3.44
282.627	3.26
282.841	2.99
283.055	2.87
283.269	3.02
283.482	2.93
283.696	3.01
283.91	2.84
284.123	2.81
284.337	2.66
284.551	2.91
284.764	3.14
284.978	3.23
285.192	3.34
285.405	3.39
285.619	3.82
285.833	4.12
286.046	4.23
286.26	4.27
286.473	4.08
286.687	4.52
286.9	4.6
287.114	4.43
287.327	4.72
287.541	4.6
287.754	4.58
287.968	4.31
288.181	4.42
288.395	4.68
288.608	4.69
288.822	4.66
289.035	4.65
289.248	4.14
289.462	4
289.675	3.66
289.889	3.94
290.102	3.78
290.315	3.39
290.529	2.85
290.742	2.46
290.955	2.8
291.169	3.09
291.382	3.11
291.595	3.32
291.808	3.13
292.022	3.81
292.235	3.12
292.448	3.19
292.661	3.43
292.875	3.67
293.088	3.75
293.301	3.55
293.514	3.44
293.727	3.64
293.94	3.78
294.153	4.16
294.367	3.94
294.58	4.13
294.793	4.31
295.006	4.08
295.219	4.17
295.432	4.07
295.645	3.81
295.858	3.97
296.071	3.84
296.284	4.01
296.497	3.7
296.71	3.74
296.923	3.63
297.136	3.63
297.349	3.62
297.562	3.46
297.775	3.69
297.988	3.74
298.201	3.51
298.414	3.3
298.626	3.33
298.839	3.64
299.052	3.3
299.265	4.01
299.478	3.81
299.691	4.61
299.903	4.45
300.116	4.72
300.329	4.67
300.542	4.39
300.755	4.11
300.967	3.68
301.18	3.48
301.393	3.54
301.605	3.53
301.818	3.67
302.031	3.01
302.243	3.27
302.456	3
302.669	3.26
302.881	3.54
303.094	4.2
303.307	4.14
303.519	4.27
303.732	4.73
303.944	4.53
304.157	4.6
304.37	4.59
304.582	4.77
304.795	4.53
305.007	4.7
305.22	4.86
305.432	4.53
305.645	5.09
305.857	5.14
306.069	4.39
306.282	4.3
306.494	4.29
306.707	4.03
306.919	3.89
307.132	4.02
307.344	4.05
307.556	4.09
307.769	4.41
307.981	4.08
308.193	3.77
308.406	4.21
308.618	4.26
308.83	4.04
309.043	4.44
309.255	4.53
309.467	4.69
309.679	4.43
309.892	4.5
310.104	4.23
310.316	4.05
310.528	4.41
310.74	4.36
310.953	4.14
311.165	4.33
311.377	4.1
311.589	4.24
311.801	4.41
312.013	4.54
312.225	4.51
312.437	4.36
312.649	5.01
312.862	4.92
313.074	4.6
313.286	4.71
313.498	4.6
313.71	4.56
313.922	4.33
314.134	4.15
314.346	4.09
314.558	3.82
314.77	3.72
314.982	3.15
315.193	3.04
315.405	3.4
315.617	3.53
315.829	3.61
316.041	3.58
316.253	3.56
316.465	3.27
316.677	3.27
316.888	3.08
317.1	3.45
317.312	3.58
317.524	3.87
317.736	3.18
317.947	3.36
318.159	3.39
318.371	3.59
318.583	3.69
318.794	3.8
319.006	4.06
319.218	4.6
319.43	4.92
319.641	5.19
319.853	5.05
320.064	5.95
320.276	5.51
320.488	5.62
320.699	5.71
320.911	5.61
321.123	5.07
321.334	5.04
321.546	4.87
321.757	4.23
321.969	3.92
322.18	3.93
322.392	3.51
322.603	3.42
322.815	3.71
323.026	3.68
323.238	4.27
323.449	4.28
323.661	4.35
323.872	4.15
324.083	4.41
324.295	4.42
324.506	4.13
324.718	3.98
324.929	3.74
325.14	3.8
325.352	3.87
325.563	3.54
325.774	3.97
325.986	3.79
326.197	4.1
326.408	4.41
326.62	4.67
326.831	5.15
327.042	5.42
327.253	6.06
327.464	5.72
327.676	5.89
327.887	6.12
328.098	6.2
328.309	6.43
328.52	6.37
328.732	6.33
328.943	6.53
329.154	6.49
329.365	6.52
329.576	6.69
329.787	7.03
329.998	6.9
330.209	6.55
330.42	6.75
330.631	6.9
330.842	6.96
331.053	6.76
331.264	6.76
331.475	6.57
331.686	6.77
331.897	6.45
332.108	6.14
332.319	6.7
332.53	6.28
332.741	6.38
332.952	6.27
333.163	6.22
333.374	6.46
333.585	6.4
333.795	6.85
334.006	7.23
334.217	7.62
334.428	8.24
334.639	7.65
334.849	8.19
335.06	8.17
335.271	8.14
335.482	8.28
335.692	8.1
335.903	7.91
336.114	7.54
336.325	6.86
336.535	6.63
336.746	5.99
336.957	6.1
337.167	6.31
337.378	6.3
337.589	6.09
337.799	6.19
338.01	6.55
338.22	6.67
338.431	6.86
338.642	7.01
338.852	6.83
339.063	7.09
339.273	7.17
339.484	6.66
339.694	6.36
339.905	6.24
340.115	6.06
340.326	5.85
340.536	5.82
340.746	5.76
340.957	6.27
341.167	6.78
341.378	6.59
341.588	6.94
341.799	7.01
342.009	7.09
342.219	7.21
342.43	7.37
342.64	7.23
342.85	6.99
343.061	7
343.271	6.38
343.481	6.18
343.691	6.61
343.902	6.56
344.112	6.41
344.322	6.67
344.532	6.66
344.743	6.43
344.953	6.21
345.163	6.64
345.373	6.47
345.583	6.99
345.793	6.74
346.004	6.34
346.214	6.02
346.424	6.26
346.634	6.1
346.844	6.45
347.054	6.49
347.264	6.77
347.474	6.78
347.684	7.16
347.894	6.65
348.104	6.87
348.314	6.52
348.524	6.31
348.734	6.73
348.944	6.82
349.154	6.78
349.364	6.88
349.574	6.66
349.784	6.64
349.994	6.49
350.204	6.98
350.413	7.04
350.623	7.67
350.833	7.9
351.043	7.74
351.253	8.07
351.463	7.75
351.672	7.66
351.882	8.02
352.092	8
352.302	7.76
352.511	7.55
352.721	7.6
352.931	7.39
353.141	7.29
353.35	7.34
353.56	6.89
353.77	7.09
353.979	7.06
354.189	7.04
354.399	7.12
354.608	7.37
354.818	7.49
355.027	7.36
355.237	7.3
355.447	7.33
355.656	7.3
355.866	7.39
356.075	7.44
356.285	7.5
356.494	7.37
356.704	7.46
356.913	7.39
357.123	7.16
357.332	7.39
357.542	7.25
357.751	7.41
357.96	7.27
358.17	7.2
358.379	6.99
358.589	6.86
358.798	6.88
359.007	6.62
359.217	6.68
359.426	6.76
359.635	6.53
359.845	6.73
360.054	6.52
360.263	6.54
360.472	6.51
360.682	6.83
360.891	6.85
361.1	6.62
361.309	6.78
361.519	6.66
361.728	6.53
361.937	6.58
362.146	6.46
362.355	6.51
362.564	6.69
362.774	6.78
362.983	6.48
363.192	6.56
363.401	6.79
363.61	6.69
363.819	6.73
364.028	6.88
364.237	6.56
364.446	6.59
364.655	6.56
364.864	6.22
365.073	5.98
365.282	6.05
365.491	6.02
365.7	6.23
365.909	6.17
366.118	6.26
366.327	6.27
366.536	6.62
366.745	6.81
366.954	6.83
367.162	6.94
367.371	6.93
367.58	6.89
367.789	7.05
367.998	6.9
368.207	7.09
368.415	6.86
368.624	6.55
368.833	6.46
369.042	6.34
369.25	6.41
369.459	6.8
369.668	6.92
369.877	6.64
370.085	6.87
370.294	7.05
370.503	6.69
370.711	6.71
370.92	7.11
371.129	6.98
371.337	6.84
371.546	6.77
371.754	6.09
371.963	6.15
372.171	6.45
372.38	6.3
372.589	6.07
372.797	5.98
373.006	5.96
373.214	5.88
373.423	6.16
373.631	6.09
373.84	6.07
374.048	6.24
374.256	6.07
374.465	5.78
374.673	5.57
374.882	5.39
375.09	5.57
375.298	5.77
375.507	5.63
375.715	5.4
375.923	5.34
376.132	5.4
376.34	5.4
376.548	5.33
376.757	5.57
376.965	5.53
377.173	5.65
377.381	5.66
377.59	5.53
377.798	5.54
378.006	5.47
378.214	5.44
378.423	5.4
378.631	5.45
378.839	5.5
379.047	5.29
379.255	5.25
379.463	5.15
379.671	5.09
379.879	4.69
380.088	4.75
380.296	4.84
380.504	5.05
380.712	5.19
380.92	5.32
381.128	5.41
381.336	5.55
381.544	5.52
381.752	5.48
381.96	5.31
382.168	5.34
382.376	5.22
382.584	5.26
382.791	5.25
382.999	5.12
383.207	4.83
383.415	4.77
383.623	4.71
383.831	4.61
384.039	4.58
384.247	4.6
384.454	4.96
384.662	4.96
384.87	4.8
385.078	4.78
385.285	4.66
385.493	4.75
385.701	4.63
385.909	4.7
386.116	4.73
386.324	4.9
386.532	4.93
386.739	4.78
386.947	4.65
387.155	4.89
387.362	4.89
387.57	4.91
387.778	4.75
387.985	4.73
388.193	4.66
388.4	4.69
388.608	4.77
388.816	4.63
389.023	4.75
389.231	5.21
389.438	4.85
389.646	4.88
389.853	5.03
390.061	5.04
390.268	5.18
390.475	5.17
390.683	5.42
390.89	5.17
391.098	5.43
391.305	5.08
391.512	4.62
391.72	4.84
391.927	4.7
392.135	4.53
392.342	4.53
392.549	4.37
392.756	4.29
392.964	3.94
393.171	3.99
393.378	3.74
393.586	3.83
393.793	4.04
394	3.94
394.207	3.77
394.414	3.61
394.622	3.68
394.829	3.68
395.036	3.62
395.243	3.66
395.45	3.6
395.657	3.61
395.864	3.86
396.072	3.75
396.279	3.92
396.486	3.99
396.693	4.08
396.9	3.96
397.107	4.03
397.314	4.07
397.521	4.18
397.728	4.24
397.935	4.35
398.142	4.22
398.349	4.23
398.556	4.07
398.763	4.07
398.97	4.19
399.177	4.24
399.383	4.13
399.59	4.36
399.797	4.28
400.004	4.01
400.211	3.99
400.418	4.11
400.625	3.99
400.831	3.82
401.038	3.85
401.245	3.79
401.452	3.89
401.658	3.98
401.865	3.66
402.072	3.41
402.279	3.72
402.485	3.79
402.692	3.64
402.899	3.69
403.105	3.82
403.312	3.92
403.519	3.75
403.725	3.53
403.932	3.52
404.138	3.41
404.345	3.61
404.552	3.51
404.758	3.45
404.965	3.44
405.171	3.27
405.378	3.29
405.584	3.14
405.791	3.23
405.997	3.39
406.204	3.45
406.41	3.74
406.617	3.95
406.823	3.81
407.029	3.83
407.236	3.79
407.442	3.98
407.649	3.94
407.855	4.05
408.061	4.02
408.268	3.97
408.474	3.87
408.68	3.82
408.887	3.54
409.093	3.67
409.299	3.76
409.505	3.81
409.712	3.8
409.918	3.72
410.124	3.67
410.33	3.71
410.537	3.65
410.743	3.61
410.949	3.49
411.155	3.55
411.361	3.5
411.567	3.2
411.773	3.18
411.98	3.27
412.186	3.28
412.392	3.19
412.598	3.12
412.804	3.1
413.01	3.09
413.216	3.14
413.422	3.17
413.628	3.24
413.834	3.43
414.04	3.32
414.246	3.34
414.452	3.19
414.658	3.16
414.864	3.19
415.07	3.21
415.275	3.13
415.481	3.15
415.687	3
415.893	2.89
416.099	2.72
416.305	2.71
416.511	2.61
416.716	2.74
416.922	2.79
417.128	2.74
417.334	2.64
417.539	2.63
417.745	2.57
417.951	2.65
418.157	2.69
418.362	2.8
418.568	2.8
418.774	2.79
418.979	2.75
419.185	2.86
419.391	2.9
419.596	3.05
419.802	3.12
420.008	3.13
420.213	2.31
420.419	2.26
420.624	2.13
420.83	2.19
421.035	2.18
421.241	2.23
421.446	2.11
421.652	2.12
421.857	2.05
422.063	1.97
422.268	1.99
422.474	2.82
422.679	2.86
422.885	2.83
423.09	2.81
423.295	2.86
423.501	2.84
423.706	2.82
423.911	2.8
424.117	2.78
424.322	2.9
424.527	2.91
424.733	2.89
424.938	2.93
425.143	3.04
425.349	3.07
425.554	3
425.759	2.91
425.964	2.92
426.169	2.89
426.375	2.94
426.58	2.84
426.785	2.8
426.99	2.8
427.195	2.81
427.4	2.72
427.605	2.74
427.811	2.84
428.016	2.9
428.221	2.98
428.426	2.96
428.631	2.86
428.836	2.86
429.041	2.85
429.246	2.78
429.451	2.69
429.656	2.61
429.861	2.64
430.066	2.55
430.271	2.64
430.476	2.52
430.681	2.58
430.886	2.65
431.09	2.61
431.295	2.49
431.5	2.53
431.705	2.63
431.91	2.66
432.115	2.57
432.32	2.56
432.524	2.54
432.729	2.65
432.934	2.61
433.139	2.46
433.343	2.5
433.548	2.48
433.753	2.44
433.958	2.31
434.162	2.43
434.367	2.47
434.572	2.5
434.776	2.44
434.981	2.39
435.186	2.46
435.39	2.6
435.595	2.73
435.799	2.8
436.004	2.81
436.209	2.79
436.413	2.77
436.618	2.69
436.822	2.6
437.027	2.54
437.231	2.51
437.436	2.5
437.64	2.52
437.845	2.49
438.049	2.53
438.253	2.51
438.458	2.57
438.662	2.57
438.867	2.52
439.071	2.6
439.275	2.67
439.48	2.68
439.684	2.64
439.888	2.61
440.093	2.51
440.297	2.42
440.501	2.4
440.706	2.32
440.91	2.22
441.114	2.25
441.318	2.11
441.523	2.14
441.727	2.16
441.931	2.19
442.135	2.17
442.339	2.18
442.543	2.23
442.748	2.23
442.952	2.27
443.156	2.36
443.36	2.39
443.564	2.37
443.768	2.28
443.972	2.16
444.176	2.09
444.38	2.08
444.584	2.04
444.788	2.03
444.992	2.13
445.196	2.14
445.4	2.12
445.604	2.1
445.808	2.18
446.012	2.18
446.216	2.3
446.42	2.28
446.624	2.24
446.828	2.29
447.032	2.21
447.235	2.22
447.439	2.2
447.643	2.15
447.847	2.11
448.051	2.05
448.254	1.95
448.458	1.85
448.662	1.85
448.866	1.94
449.069	1.78
449.273	1.97
449.477	1.91
449.681	1.9
449.884	1.91
450.088	1.93
450.292	1.96
450.495	2.07
450.699	2.04
450.902	2.18
451.106	2.13
451.31	2.22
451.513	2.14
451.717	2.03
451.92	2.03
452.124	2.14
452.327	2.16
452.531	2.18
452.734	2.16
452.938	2.12
453.141	1.95
453.345	2
453.548	2.06
453.752	2.02
453.955	2.06
454.158	1.94
454.362	1.92
454.565	1.82
454.769	1.78
454.972	1.9
455.175	1.98
455.379	2.12
455.582	2.14
455.785	2.01
455.988	2.12
456.192	2.15
456.395	2.27
456.598	2.24
456.801	2.31
457.005	2.33
457.208	2.24
457.411	2.28
457.614	2.16
457.817	2.12
458.021	2.24
458.224	2.18
458.427	2.27
458.63	2.23
458.833	2.21
459.036	2.15
459.239	2.13
459.442	2.12
459.645	2.09
459.848	2.16
460.051	2.14
460.254	2.14
460.457	2.06
460.66	1.91
460.863	1.92
461.066	1.93
461.269	2
461.472	2.01
461.675	2.07
461.878	1.98
462.081	1.97
462.284	1.99
462.486	1.9
462.689	1.98
462.892	2.05
463.095	1.99
463.298	1.95
463.5	2.04
463.703	1.98
463.906	2.03
464.109	2.13
464.311	2.11
464.514	2.13
464.717	2.19
464.92	2.2
465.122	2.13
465.325	2.17
465.528	2.11
465.73	2.1
465.933	2.12
466.135	2
466.338	2.04
466.541	2.04
466.743	2.13
466.946	2.11
467.148	2.09
467.351	2.12
467.553	2.19
467.756	2.27
467.958	2.32
468.161	2.39
468.363	2.31
468.566	2.2
468.768	2.33
468.971	2.19
469.173	2.23
469.375	2.28
469.578	2.21
469.78	2.1
469.983	2.09
470.185	2.02
470.387	1.95
470.59	2.04
470.792	2.14
470.994	1.98
471.196	2
471.399	1.94
471.601	1.98
471.803	2.01
472.005	1.99
472.208	2.01
472.41	1.96
472.612	1.94
472.814	1.88
473.016	1.9
473.218	1.96
473.421	2.01
473.623	1.98
473.825	2.04
474.027	2.16
474.229	2.22
474.431	2.13
474.633	2.13
474.835	2.09
475.037	2.14
475.239	2.09
475.441	2.12
475.643	2.04
475.845	2.1
476.047	2
476.249	2.01
476.451	2.04
476.653	2.1
476.855	2.19
477.057	2.3
477.258	2.31
477.46	2.36
477.662	2.39
477.864	2.46
478.066	2.42
478.268	2.41
478.469	2.4
478.671	2.36
478.873	2.35
479.075	2.27
479.276	2.17
479.478	2.18
479.68	2.15
479.882	2.12
480.083	2.09
480.285	2.17
480.487	2.26
480.688	2.29
480.89	2.32
481.091	2.34
481.293	2.36
481.495	2.39
481.696	2.33
481.898	2.36
482.099	2.35
482.301	2.34
482.502	2.32
482.704	2.31
482.905	2.25
483.107	2.24
483.308	2.2
483.51	2.21
483.711	2.2
483.913	2.21
484.114	2.17
484.315	2.17
484.517	2.14
484.718	2.12
484.92	2.11
485.121	2.14
485.322	2.16
485.524	2.18
485.725	2.15
485.926	2.16
486.127	2.19
486.329	2.21
486.53	2.19
486.731	2.19
486.932	2.14
487.134	2.14
487.335	2.16
487.536	2.14
487.737	2.15
487.938	2.16
488.139	2.2
488.341	2.16
488.542	2.15
488.743	2.16
488.944	2.19
489.145	2.27
489.346	2.23
489.547	2.24
489.748	2.23
489.949	2.29
490.15	2.32
490.351	2.23
490.552	2.29
490.753	2.3
490.954	2.34
491.155	2.35
491.356	2.33
491.557	2.37
491.758	2.33
491.959	2.37
492.159	2.29
492.36	2.26
492.561	2.28
492.762	2.22
492.963	2.25
493.164	2.22
493.364	2.22
493.565	2.23
493.766	2.26
493.967	2.26
494.167	2.2
494.368	2.21
494.569	2.24
494.769	2.3
494.97	2.29
495.171	2.23
495.371	2.22
495.572	2.17
495.773	2.19
495.973	2.27
496.174	2.33
496.375	2.41
496.575	2.48
496.776	2.5
496.976	2.41
497.177	2.51
497.377	2.57
497.578	2.61
497.778	2.66
497.979	2.77
498.179	2.77
498.38	2.8
498.58	2.75
498.78	2.8
498.981	2.79
499.181	2.99
499.382	2.91
499.582	2.89
499.782	2.91
499.983	2.97
500.183	2.97
500.383	2.79
500.584	2.84
500.784	2.91
500.984	2.92
501.184	2.95
501.385	2.87
501.585	2.9
501.785	2.99
501.985	2.99
502.185	2.91
502.386	2.85
502.586	2.91
502.786	2.93
502.986	2.95
503.186	2.93
503.386	2.93
503.586	2.93
503.786	3
503.987	2.99
504.187	2.98
504.387	3.15
504.587	3.18
504.787	3.27
504.987	3.23
505.187	3.13
505.387	3.14
505.587	3.19
505.786	3.25
505.986	3.33
506.186	3.38
506.386	3.46
506.586	3.36
506.786	3.37
506.986	3.37
507.186	3.37
507.386	3.47
507.585	3.56
507.785	3.62
507.985	3.66
508.185	3.64
508.384	3.66
508.584	3.59
508.784	3.64
508.984	3.7
509.183	3.72
509.383	3.81
509.583	3.91
509.782	3.89
509.982	3.85
510.182	3.91
510.381	3.95
510.581	4.04
510.781	4.19
510.98	4.32
511.18	4.34
511.379	4.4
511.579	4.39
511.778	4.38
511.978	4.37
512.177	4.44
512.377	4.44
512.576	4.5
512.776	4.41
512.975	4.39
513.175	4.39
513.374	4.49
513.573	4.48
513.773	4.52
513.972	4.55
514.172	4.62
514.371	4.7
514.57	4.78
514.77	4.74
514.969	4.83
515.168	4.83
515.367	4.9
515.567	4.81
515.766	4.88
515.965	5
516.164	5.1
516.364	5.19
516.563	5.19
516.762	5.18
516.961	5.25
517.16	5.24
517.359	5.34
517.559	5.3
517.758	5.31
517.957	5.32
518.156	5.36
518.355	5.3
518.554	5.27
518.753	5.33
518.952	5.37
519.151	5.43
519.35	5.5
519.549	5.44
519.748	5.51
519.947	5.6
520.146	5.63
520.345	5.54
520.544	5.6
520.743	5.57
520.942	5.62
521.141	5.69
521.339	5.72
521.538	5.75
521.737	5.83
521.936	5.87
522.135	5.97
522.333	6.04
522.532	6.14
522.731	6.21
522.93	6.3
523.129	6.29
523.327	6.25
523.526	6.21
523.725	6.2
523.923	6.27
524.122	6.27
524.321	6.2
524.519	6.2
524.718	6.26
524.917	6.28
525.115	6.31
525.314	6.39
525.512	6.51
525.711	6.61
525.909	6.69
526.108	6.7
526.306	6.72
526.505	6.78
526.703	6.82
526.902	6.83
527.1	6.83
527.299	6.85
527.497	6.85
527.696	6.79
527.894	6.79
528.092	6.78
528.291	6.79
528.489	6.82
528.688	6.84
528.886	6.84
529.084	6.83
529.283	6.9
529.481	6.95
529.679	6.9
529.877	6.97
530.076	7.03
530.274	7.15
530.472	7.18
530.67	7.17
530.869	7.2
531.067	7.27
531.265	7.33
531.463	7.32
531.661	7.31
531.859	7.37
532.057	7.4
532.255	7.42
532.454	7.4
532.652	7.43
532.85	7.51
533.048	7.56
533.246	7.57
533.444	7.55
533.642	7.58
533.84	7.64
534.038	7.66
534.236	7.7
534.434	7.67
534.632	7.75
534.83	7.79
535.027	7.7
535.225	7.71
535.423	7.7
535.621	7.77
535.819	7.81
536.017	7.75
536.215	7.83
536.412	7.82
536.61	7.86
536.808	7.8
537.006	7.81
537.203	7.95
537.401	7.96
537.599	8.03
537.797	8.06
537.994	8.08
538.192	8.2
538.39	8.28
538.587	8.34
538.785	8.36
538.983	8.4
539.18	8.46
539.378	8.46
539.575	8.49
539.773	8.55
539.97	8.58
540.168	8.6
540.366	8.63
540.563	8.64
540.761	8.69
540.958	8.74
541.155	8.77
541.353	8.76
541.55	8.78
541.748	8.82
541.945	8.87
542.143	8.92
542.34	8.95
542.537	9.03
542.735	9.06
542.932	9.12
543.129	9.13
543.327	9.17
543.524	9.23
543.721	9.33
543.919	9.38
544.116	9.33
544.313	9.36
544.51	9.38
544.708	9.4
544.905	9.42
545.102	9.51
545.299	9.62
545.496	9.7
545.693	9.78
545.891	9.8
546.088	9.89
546.285	9.97
546.482	10.09
546.679	10.19
546.876	10.22
547.073	10.26
547.27	10.2
547.467	10.27
547.664	10.21
547.861	10.27
548.058	10.31
548.255	10.24
548.452	10.31
548.649	10.3
548.846	10.38
549.043	10.46
549.24	10.56
549.437	10.7
549.633	10.7
549.83	10.81
550.027	10.83
550.224	10.93
550.421	11.13
550.618	11.19
550.814	11.23
551.011	11.36
551.208	11.46
551.405	11.49
551.601	11.47
551.798	11.52
551.995	11.53
552.191	11.64
552.388	11.63
552.585	11.61
552.781	11.71
552.978	11.75
553.175	11.75
553.371	11.76
553.568	11.84
553.764	11.99
553.961	11.97
554.157	12.1
554.354	12.22
554.55	12.21
554.747	12.24
554.943	12.23
555.14	12.26
555.336	12.11
555.533	12.23
555.729	12.22
555.926	12.25
556.122	12.37
556.318	12.46
556.515	12.43
556.711	12.6
556.907	12.61
557.104	12.63
557.3	12.69
557.496	12.88
557.693	13.03
557.889	13.15
558.085	13.22
558.281	13.27
558.478	13.3
558.674	13.36
558.87	13.33
559.066	13.46
559.262	13.61
559.459	13.68
559.655	13.81
559.851	13.64
560.047	13.74
560.243	13.75
560.439	13.86
560.635	13.85
560.831	13.92
561.027	14.09
561.223	14.11
561.419	14.25
561.615	14.4
561.811	14.54
562.007	14.61
562.203	14.61
562.399	14.73
562.595	14.82
562.791	15.06
562.987	15.1
563.183	15.22
563.379	15.34
563.575	15.31
563.771	15.34
563.966	15.34
564.162	15.58
564.358	15.65
564.554	15.77
564.75	15.76
564.945	15.85
565.141	16.01
565.337	16.06
565.533	16.19
565.728	16.23
565.924	16.29
566.12	16.37
566.315	16.38
566.511	16.46
566.707	16.5
566.902	16.57
567.098	16.6
567.293	16.55
567.489	16.6
567.684	16.52
567.88	16.61
568.076	16.72
568.271	16.82
568.467	16.86
568.662	16.96
568.858	17.02
569.053	17.18
569.248	17.18
569.444	17.39
569.639	17.45
569.835	17.6
570.03	17.67
570.225	17.69
570.421	17.73
570.616	17.84
570.812	17.94
571.007	17.92
571.202	17.91
571.397	17.99
571.593	17.94
571.788	17.97
571.983	18.06
572.178	18.16
572.374	18.33
572.569	18.36
572.764	18.39
572.959	18.5
573.154	18.7
573.35	18.75
573.545	18.83
573.74	18.89
573.935	18.98
574.13	18.95
574.325	19.04
574.52	18.97
574.715	19
574.91	18.99
575.105	18.9
575.3	18.85
575.495	19.01
575.69	19.01
575.885	19.12
576.08	19.11
576.275	19.27
576.47	19.29
576.665	19.36
576.86	19.43
577.055	19.38
577.25	19.36
577.444	19.45
577.639	19.35
577.834	19.46
578.029	19.49
578.224	19.59
578.418	19.58
578.613	19.62
578.808	19.78
579.003	19.84
579.197	20.01
579.392	20.19
579.587	20.19
579.781	20.28
579.976	20.28
580.171	20.29
580.365	20.27
580.56	20.25
580.755	20.22
580.949	20.08
581.144	20.03
581.338	20.06
581.533	20.15
581.727	20.22
581.922	20.22
582.116	20.3
582.311	20.37
582.505	20.49
582.7	20.48
582.894	20.63
583.089	20.79
583.283	20.83
583.478	20.85
583.672	20.87
583.866	20.77
584.061	20.88
584.255	20.82
584.449	20.72
584.644	20.82
584.838	20.8
585.032	20.59
585.226	20.54
585.421	20.61
585.615	20.74
585.809	20.75
586.003	20.76
586.198	20.83
586.392	20.91
586.586	21.09
586.78	20.99
586.974	21.12
587.168	21.28
587.363	21.39
587.557	21.6
587.751	21.51
587.945	21.46
588.139	21.76
588.333	21.76
588.527	21.76
588.721	21.75
588.915	21.88
589.109	21.78
589.303	21.73
589.497	21.72
589.691	21.57
589.885	21.6
590.079	21.61
590.273	21.38
590.466	21.5
590.66	21.58
590.854	21.63
591.048	21.71
591.242	21.94
591.436	22.1
591.629	22.12
591.823	22.19
592.017	22.21
592.211	22.43
592.404	22.65
592.598	22.48
592.792	22.5
592.986	22.57
593.179	22.5
593.373	22.47
593.567	22.42
593.76	22.49
593.954	22.61
594.147	22.72
594.341	22.62
594.535	22.5
594.728	22.61
594.922	22.58
595.115	22.64
595.309	22.65
595.502	22.68
595.696	22.8
595.889	22.7
596.083	22.57
596.276	22.58
596.47	22.6
596.663	22.69
596.856	22.69
597.05	22.67
597.243	22.55
597.437	22.62
597.63	22.65
597.823	22.57
598.017	22.67
598.21	22.66
598.403	22.7
598.596	22.7
598.79	22.7
598.983	22.64
599.176	22.73
599.369	22.68
599.563	22.65
599.756	22.56
599.949	22.59
600.142	22.71
600.335	22.83
600.528	22.7
600.722	22.75
600.915	22.78
601.108	22.91
601.301	22.83
601.494	22.97
601.687	22.94
601.88	23.07
602.073	23.04
602.266	22.97
602.459	23.05
602.652	23.33
602.845	23.29
603.038	23.36
603.231	23.34
603.424	23.35
603.617	23.31
603.809	23.36
604.002	23.26
604.195	23.3
604.388	23.35
604.581	23.33
604.774	23.24
604.966	23.26
605.159	23.23
605.352	23.25
605.545	23.3
605.737	23.32
605.93	23.35
606.123	23.6
606.316	23.55
606.508	23.49
606.701	23.4
606.894	23.24
607.086	23.34
607.279	23.33
607.471	23.28
607.664	23.35
607.857	23.36
608.049	23.41
608.242	23.39
608.434	23.5
608.627	23.48
608.819	23.49
609.012	23.56
609.204	23.46
609.397	23.32
609.589	23.46
609.782	23.36
609.974	23.4
610.166	23.29
610.359	23.27
610.551	23.26
610.743	23.18
610.936	23.36
611.128	23.27
611.32	23.27
611.513	23.55
611.705	23.54
611.897	23.66
612.09	23.74
612.282	23.77
612.474	23.57
612.666	23.59
612.858	23.82
613.051	23.73
613.243	23.86
613.435	23.82
613.627	23.65
613.819	23.63
614.011	23.81
614.203	23.59
614.395	23.61
614.588	23.69
614.78	23.8
614.972	23.93
615.164	23.96
615.356	23.96
615.548	24
615.74	23.96
615.932	23.81
616.124	23.67
616.315	23.91
616.507	23.94
616.699	24.14
616.891	24.02
617.083	24
617.275	23.93
617.467	24.04
617.659	24.14
617.85	24.35
618.042	24.39
618.234	24.39
618.426	24.38
618.618	24.36
618.809	24.23
619.001	24.33
619.193	24.28
619.384	24.31
619.576	24.15
619.768	24.09
619.959	23.97
620.151	23.93
620.343	23.96
620.534	23.99
620.726	24
620.917	24.01
621.109	24.02
621.301	23.84
621.492	23.81
621.684	24.07
621.875	24.07
622.067	23.99
622.258	24.17
622.45	24.28
622.641	24.27
622.832	24.19
623.024	24.21
623.215	24.08
623.407	24.01
623.598	23.99
623.789	23.78
623.981	23.88
624.172	24.06
624.363	24
624.555	24.11
624.746	24.21
624.937	24.33
625.129	24.38
625.32	24.36
625.511	24.54
625.702	24.59
625.893	24.83
626.085	24.81
626.276	24.73
626.467	24.85
626.658	24.82
626.849	24.81
627.04	24.86
627.231	24.77
627.422	24.89
627.614	24.94
627.805	25.03
627.996	24.77
628.187	24.91
628.378	24.87
628.569	24.83
628.76	24.67
628.951	24.64
629.142	24.55
629.332	24.54
629.523	24.55
629.714	24.54
629.905	24.47
630.096	24.61
630.287	24.43
630.478	24.72
630.669	24.72
630.859	24.81
631.05	24.8
631.241	24.84
631.432	25.02
631.623	24.96
631.813	24.87
632.004	25
632.195	25.06
632.385	25.24
632.576	24.94
632.767	24.91
632.957	24.81
633.148	24.92
633.339	24.77
633.529	24.78
633.72	24.95
633.91	25.12
634.101	25.06
634.292	24.98
634.482	24.76
634.673	24.89
634.863	24.6
635.054	24.7
635.244	24.64
635.435	24.96
635.625	24.86
635.815	24.74
636.006	24.49
636.196	24.39
636.387	24.39
636.577	24.44
636.767	24.35
636.958	24.68
637.148	24.72
637.338	24.64
637.529	24.5
637.719	24.45
637.909	24.42
638.099	24.52
638.29	24.74
638.48	24.7
638.67	24.8
638.86	24.96
639.05	25.04
639.241	24.7
639.431	24.81
639.621	24.76
639.811	24.8
640.001	24.84
640.191	24.92
640.381	24.78
640.571	24.77
640.761	24.91
640.951	24.82
641.141	24.68
641.331	24.84
641.521	24.71
641.711	24.92
641.901	24.96
642.091	24.93
642.281	24.66
642.471	24.81
642.661	24.97
642.851	24.77
643.041	24.85
643.231	24.85
643.42	25.08
643.61	25.13
643.8	24.98
643.99	25.05
644.18	25.17
644.369	25.53
644.559	25.38
644.749	25.13
644.939	25.22
645.128	25.32
645.318	25.27
645.508	25.21
645.697	25.31
645.887	25.38
646.076	25.34
646.266	25.32
646.456	25.21
646.645	25.3
646.835	25.88
647.024	25.95
647.214	25.79
647.403	25.83
647.593	25.83
647.782	25.68
647.972	25.63
648.161	25.73
648.351	25.7
648.54	25.71
648.73	25.69
648.919	25.21
649.108	25.29
649.298	25.15
649.487	25.22
649.677	25.17
649.866	25.22
650.055	25.3
650.244	25.38
650.434	25.41
650.623	25.52
650.812	25.61
651.002	25.58
651.191	25.4
651.38	25.66
651.569	25.48
651.758	25.48
651.947	25.53
652.137	25.31
652.326	25.22
652.515	25.43
652.704	25.5
652.893	25.46
653.082	25.58
653.271	25.44
653.46	25.33
653.649	25.47
653.838	25.42
654.027	25.41
654.216	25.42
654.405	25.27
654.594	24.98
654.783	24.82
654.972	24.87
655.161	25.03
655.35	25.4
655.539	25.46
655.728	25.69
655.916	25.88
656.105	25.82
656.294	26.01
656.483	26.21
656.672	26.46
656.86	26.38
657.049	26.23
657.238	26.28
657.427	26.08
657.615	25.96
657.804	25.97
657.993	25.98
658.181	26.04
658.37	25.96
658.559	25.87
658.747	25.78
658.936	25.82
659.125	25.9
659.313	25.65
659.502	25.63
659.69	25.64
659.879	25.68
660.067	25.66
660.256	25.54
660.444	25.65
660.633	25.61
660.821	25.27
661.01	25.43
661.198	25.31
661.387	25.43
661.575	25.52
661.763	25.61
661.952	25.38
662.14	25.49
662.328	25.72
662.517	25.59
662.705	25.74
662.893	26.03
663.082	25.95
663.27	26.11
663.458	26.08
663.646	25.84
663.834	25.58
664.023	25.75
664.211	25.64
664.399	25.47
664.587	25.68
664.775	25.58
664.963	25.3
665.152	25.18
665.34	24.97
665.528	24.87
665.716	25.31
665.904	25.49
666.092	25.57
666.28	25.42
666.468	25.52
666.656	25.32
666.844	25.3
667.032	25.36
667.22	25.5
667.408	25.57
667.596	25.93
667.784	25.45
667.971	25.62
668.159	25.66
668.347	25.98
668.535	25.88
668.723	25.91
668.911	25.97
669.098	26.2
669.286	26.09
669.474	26.14
669.662	25.83
669.849	26.14
670.037	26.06
670.225	25.78
670.413	25.54
670.6	25.67
670.788	25.6
670.976	25.27
671.163	25.28
671.351	25.41
671.538	25.45
671.726	25.39
671.913	25.49
672.101	25.53
672.289	25.63
672.476	25.74
672.664	25.63
672.851	25.64
673.039	25.84
673.226	25.48
673.413	25.38
673.601	25.59
673.788	26.09
673.976	25.85
674.163	25.68
674.35	25.69
674.538	25.78
674.725	25.96
674.912	26.19
675.1	26.24
675.287	26.53
675.474	26.62
675.662	26.47
675.849	26.17
676.036	26.47
676.223	26.85
676.411	26.87
676.598	26.93
676.785	26.85
676.972	26.87
677.159	26.81
677.346	26.64
677.533	26.67
677.721	26.61
677.908	26.48
678.095	26.41
678.282	26.21
678.469	26.09
678.656	25.84
678.843	25.86
679.03	25.65
679.217	25.81
679.404	25.96
679.591	25.83
679.778	25.7
679.964	25.84
680.151	25.74
680.338	25.76
680.525	25.77
680.712	25.91
680.899	25.86
681.086	25.98
681.272	25.87
681.459	25.72
681.646	25.61
681.833	26.03
682.02	25.94
682.206	25.82
682.393	25.8
682.58	25.84
682.766	25.73
682.953	25.71
683.14	25.87
683.326	26.06
683.513	26.23
683.7	26.44
683.886	26.31
684.073	26.53
684.259	26.85
684.446	26.95
684.632	27.1
684.819	26.93
685.005	26.89
685.192	26.57
685.378	26.5
685.565	26.34
685.751	26.49
685.938	26.26
686.124	25.95
686.31	25.97
686.497	25.95
686.683	25.75
686.87	25.87
687.056	26.01
687.242	26.13
687.429	26.22
687.615	26.36
687.801	26.22
687.987	26.36
688.174	26.42
688.36	26.21
688.546	26.26
688.732	26.34
688.918	26.51
689.105	26.41
689.291	26.65
689.477	26.33
689.663	26.24
689.849	26.07
690.035	26.21
690.221	26.04
690.407	26.12
690.593	26.03
690.779	25.85
690.965	25.86
691.151	25.81
691.337	25.3
691.523	25.52
691.709	25.57
691.895	25.67
692.081	25.63
692.267	25.92
692.453	25.92
692.639	25.94
692.825	25.97
693.011	25.72
693.196	25.91
693.382	26.23
693.568	26.32
693.754	26.4
693.94	26.56
694.125	26.32
694.311	25.86
694.497	26.02
694.682	26.3
694.868	26.44
695.054	26.47
695.239	26.26
695.425	26.01
695.611	25.95
695.796	26.03
695.982	25.68
696.168	25.61
696.353	25.96
696.539	25.82
696.724	25.62
696.91	25.75
697.095	26.13
697.281	26.18
697.466	26.4
697.652	26.34
697.837	26.34
698.023	26.54
698.208	26.54
698.393	26.48
698.579	26.52
698.764	26.58
698.949	26.83
699.135	26.58
699.32	26.58
699.505	26.45
699.691	26.34
699.876	26.12
700.061	26.3
700.246	26.24
700.432	26.5
700.617	26.45
700.802	26.31
700.987	25.74
701.172	25.7
701.358	25.67
701.543	25.81
701.728	26
701.913	26.34
702.098	25.91
702.283	26.08
702.468	25.94
702.653	25.88
702.838	26.13
703.023	26.04
703.208	26.11
703.393	26.12
703.578	26.4
703.763	26.49
703.948	26.42
704.133	26.56
704.318	26.79
704.503	26.56
704.688	26.58
704.873	26.51
705.057	26.82
705.242	26.94
705.427	27.05
705.612	26.83
705.797	26.58
705.981	26.54
706.166	26.53
706.351	26.63
706.536	26.55
706.72	26.64
706.905	26.39
707.09	25.95
707.274	26.12
707.459	26.07
707.644	25.75
707.828	25.76
708.013	25.64
708.197	25.94
708.382	25.67
708.567	26.55
708.751	26.6
708.936	26.95
709.12	27.39
709.305	26.92
709.489	27.27
709.673	27.7
709.858	27.89
710.042	28.3
710.227	28.04
710.411	27.85
710.596	27.39
710.78	27.32
710.964	26.86
711.149	26.66
711.333	26.8
711.517	26.62
711.702	26.7
711.886	26.37
712.07	26
712.254	26.18
712.438	26.33
712.623	26.08
712.807	26.26
712.991	26.45
713.175	26.35
713.359	26.32
713.544	26.02
713.728	25.99
713.912	26.18
714.096	26.19
714.28	25.8
714.464	25.98
714.648	26.26
714.832	25.93
715.016	25.97
715.2	26.22
715.384	26.38
715.568	26.65
715.752	26.46
715.936	26.77
716.12	26.81
716.304	27.2
716.488	27.09
716.671	26.91
716.855	27.19
717.039	27.27
717.223	27.14
717.407	27.1
717.59	26.97
717.774	27.42
717.958	27.33
718.142	27.39
718.325	27.05
718.509	27.25
718.693	27.21
718.877	27.06
719.06	27.34
719.244	27.75
719.428	27.59
719.611	27.59
719.795	27.04
719.978	26.67
720.162	26.65
720.345	27.16
720.529	26.66
720.713	26.68
720.896	26.81
721.08	26.29
721.263	26.19
721.446	26.01
721.63	26.36
721.813	26.76
721.997	26.81
722.18	26.7
722.364	26.77
722.547	27.13
722.73	26.96
722.914	27.36
723.097	27.4
723.28	27.12
723.464	27.41
723.647	27.21
723.83	26.69
724.013	27.2
724.197	27.29
724.38	26.98
724.563	27.12
724.746	27.04
724.929	26.87
725.112	26.78
725.296	26.29
725.479	26
725.662	25.73
725.845	25.88
726.028	25.54
726.211	25.05
726.394	24.82
726.577	24.67
726.76	24.99
726.943	24.67
727.126	24.8
727.309	25.28
727.492	25.37
727.675	25.6
727.858	25.72
728.041	25.81
728.224	26.13
728.407	26.39
728.589	26.24
728.772	26.37
728.955	26.55
729.138	26.51
729.321	26.66
729.503	26.67
729.686	26.28
729.869	26.19
730.052	26.02
730.234	26.08
730.417	25.52
730.6	25.56
730.782	25.34
730.965	24.81
731.148	24.89
731.33	24.98
731.513	24.97
731.695	25.45
731.878	25.33
732.061	25.42
732.243	25.4
732.426	25.94
732.608	25.69
732.791	25.85
732.973	26.21
733.156	25.89
733.338	25.56
733.52	25.45
733.703	24.82
733.885	25.08
734.068	24.9
734.25	25.06
734.432	24.88
734.615	25.06
734.797	24.59
734.979	24.81
735.162	25.46
735.344	25.79
735.526	25.69
735.708	26.13
735.891	26.11
736.073	26.28
736.255	26.18
736.437	26.14
736.619	26.5
736.802	26.69
736.984	26.83
737.166	26.76
737.348	26.59
737.53	26.97
737.712	26.98
737.894	26.65
738.076	26.57
738.258	26.94
738.44	26.2
738.622	26.04
738.804	25.69
738.986	24.97
739.168	24.78
739.35	24.63
739.532	24.72
739.714	24.81
739.896	24.9
740.078	24.76
740.259	24.13
740.441	24.84
740.623	24.71
740.805	25.57
740.987	25.96
741.168	25.85
741.35	25.57
741.532	25.22
741.714	24.34
741.895	24.44
742.077	24.31
742.259	24.49
742.44	24.52
742.622	24.85
742.804	24.37
742.985	24.34
743.167	24.31
743.348	25.04
743.53	25.2
743.711	25.6
743.893	25.9
744.075	25.73
744.256	25.21
744.438	25.55
744.619	24.72
744.8	23.84
744.982	23.83
745.163	23.87
745.345	23.44
745.526	23.27
745.707	23.82
745.889	23.24
746.07	23.34
746.252	24.31
746.433	24.14
746.614	24.92
746.795	25.88
746.977	25.93
747.158	26.03
747.339	26.34
747.52	26.44
747.702	26.85
747.883	27.22
748.064	28.04
748.245	27.9
748.426	27.71
748.607	27.28
748.788	27.14
748.97	26.71
749.151	26.89
749.332	26.64
749.513	26.63
749.694	26.15
749.875	26.11
750.056	25.29
750.237	25.09
750.418	24.79
750.599	24.9
750.78	25.25
750.96	25.8
751.141	25.8
751.322	25.56
751.503	25.33
751.684	24.79
751.865	24.53
752.046	24.78
752.226	24.58
752.407	24.98
752.588	25.21
752.769	24.61
752.949	24.99
753.13	25.06
753.311	24.76
753.492	25.01
753.672	25.63
753.853	26.07
754.034	25.91
754.214	26.4
754.395	25.89
754.575	25.63
754.756	25.7
754.937	24.86
755.117	24.52
755.298	25.38
755.478	25.36
755.659	25.22
755.839	24.29
756.02	24.65
756.2	24.34
756.381	24.31
756.561	25.17
756.741	24.97
756.922	25.17
757.102	25.36
757.283	25.48
757.463	25.24
757.643	24.84
757.823	25.24
758.004	24.57
758.184	24.89
758.364	25.91
758.545	25.41
758.725	26.43
758.905	27.05
759.085	27.15
759.265	26.47
759.446	27.22
759.626	27.68
759.806	28.24
759.986	28.52
760.166	28.26
760.346	27.54
760.526	27.6
760.706	27.07
760.886	27.08
761.066	26.52
761.246	26.88
761.426	26.16
761.606	26.39
761.786	25.81
761.966	26.21
762.146	26.32
762.326	26.54
762.506	26.48
762.686	26.29
762.866	25.97
763.046	26.42
763.225	26.31
763.405	26.37
763.585	25.83
763.765	26.06
763.945	25.86
764.124	25.92
764.304	25.76
764.484	26.05
764.664	26.36
764.843	26.35
765.023	25.55
765.203	25.48
765.382	26.2
765.562	26.64
765.741	26.95
765.921	26.94
766.101	26.54
766.28	26.63
766.46	26.17
766.639	26.35
766.819	25.87
766.998	26.47
767.178	26.52
767.357	25.57
767.537	25.33
767.716	24.66
767.896	24.68
768.075	24.17
768.254	23.98
768.434	24.51
768.613	23.47
768.792	23.69
768.972	23.59
769.151	23.85
769.33	24.22
769.51	23.91
769.689	24.52
769.868	23.81
770.047	24.66
770.226	24.53
770.406	23.62
770.585	23.53
770.764	23.72
770.943	22.96
771.122	21.92
771.301	21.66
771.48	22.21
771.66	21.64
771.839	21.8
772.018	21.26
772.197	21.32
772.376	22.37
772.555	23.17
772.734	23.47
772.913	24.55
773.092	24.59
773.271	24.99
773.449	24.86
773.628	25.29
773.807	26.85
773.986	27.46
774.165	27.96
774.344	27.93
774.523	27.56
774.701	27.79
774.88	28.9
775.059	28.98
775.238	30.12
775.417	29.37
775.595	28.72
775.774	27.43
775.953	27.11
776.131	26.77
776.31	26.47
776.489	26.6
776.667	26.51
776.846	25.68
777.025	26.56
777.203	25.05
777.382	25.7
777.56	25.64
777.739	26.24
777.917	25.84
778.096	25.88
778.274	25.62
778.453	25.57
778.631	25.27
778.81	24.75
778.988	25.23
779.166	25.33
779.345	25.43
779.523	26.33
779.702	25.79
779.88	26.63
780.058	27.39
780.237	27.7
780.415	28.07
780.593	28.21
780.771	28.4
780.95	26.92
781.128	27.78
781.306	27.8
781.484	27.76
781.662	28.24
781.841	28.46
782.019	27.44
782.197	27.11
782.375	27.16
782.553	26.9
782.731	26.28
782.909	26.79
783.087	26.44
783.265	26.18
783.443	25.3
783.621	24.7
783.799	24.62
783.977	25.64
784.155	26.03
784.333	26.1
784.511	26.35
784.689	26.1
784.867	26.51
785.045	25.63
785.223	25.21
785.4	25.44
785.578	25.42
785.756	25.38
785.934	24.58
786.112	24.07
786.289	24.32
786.467	23.75
786.645	25.14
786.823	24.71
787	25.86
787.178	26.37
787.356	25.88
787.533	26.13
787.711	26.38
787.889	26.73
788.066	26.67
788.244	25.52
788.421	25.28
788.599	24.61
788.776	25.1
788.954	24.67
789.131	24.98
789.309	24.88
789.486	24.8
789.664	23.89
789.841	24.92
790.019	24.77
790.196	25.6
790.373	25.88
790.551	26.43
790.728	25.89
790.906	25.44
791.083	25
791.26	24.7
791.437	24.91
791.615	25.51
791.792	24.03
791.969	23.94
792.146	23.91
792.324	24.97
792.501	24.03
792.678	23.82
792.855	23.63
793.032	23.66
793.209	24.44
793.387	24.57
793.564	24.79
793.741	24.8
793.918	25.85
794.095	26.25
794.272	25.2
794.449	26.6
794.626	27.29
794.803	28.23
794.98	28.77
795.157	28.6
795.334	28.91
795.511	28.55
795.688	28.03
795.864	26.77
796.041	25.84
796.218	26.11
796.395	24.34
796.572	23.74
796.749	23.53
796.925	23.42
797.102	24.09
797.279	24.16
797.456	24.04
797.632	24.64
797.809	24.5
797.986	24.94
798.162	25.61
798.339	25.6
798.516	26.34
798.692	26.23
798.869	25.25
799.046	23.68
799.222	21.96
799.399	22.4
799.575	21.89
799.752	23.42
799.928	22.99
800.105	21.97
800.281	23.22
800.458	21.99
800.634	21.27
800.811	22.73
800.987	24.13
801.163	24
801.34	23.64
801.516	24.16
801.692	23.04
801.869	22.34
802.045	21.77
802.221	21.16
802.398	22.79
802.574	23.91
802.75	23.18
802.926	24.06
803.103	26.09
803.279	26.5
803.455	26.55
803.631	26.5
803.807	28.55
803.983	30.04
804.16	29.05
804.336	27.72
804.512	27.16
804.688	28.16
804.864	27.8
805.04	27.03
805.216	26.69
805.392	26.13
805.568	26.8
805.744	24.6
805.92	23.94
806.096	24.82
806.272	25.57
806.448	25.85
806.623	24.86
806.799	24.13
806.975	22.96
807.151	22.87
807.327	23.41
807.503	23.56
807.678	25.01
807.854	25.21
808.03	25.58
808.206	25.7
808.381	25.82
808.557	26.41
808.733	26.08
808.908	27.79
809.084	27.58
809.26	27.32
809.435	26.57
809.611	26.19
809.787	25.91
809.962	25.6
810.138	24.8
810.313	23.13
810.489	22.55
810.664	22.11
810.84	22.11
811.015	22.25
811.191	23.23
811.366	22.62
811.542	22.36
811.717	24.08
811.892	23.19
812.068	23.84
812.243	25.54
812.419	25.22
812.594	24.67
812.769	23.33
812.944	22.8
813.12	21.99
813.295	22.91
813.47	22.62
813.645	20.99
813.821	22.61
813.996	22.04
814.171	20.96
814.346	21.87
814.521	23.11
814.697	25.4
814.872	25.27
815.047	25.8
815.222	26.73
815.397	27.7
815.572	27.48
815.747	26.22
815.922	26.17
816.097	25.67
816.272	25.67
816.447	24.57
816.622	22.9
816.797	22.88
816.972	21.86
817.147	20.56
817.322	20.71
817.496	19.55
817.671	21.06
817.846	21.53
818.021	22.66
818.196	22.01
818.371	24.55
818.545	24.62
818.72	24.12
818.895	24.09
819.069	24.52
819.244	25.59
819.419	26.55
819.594	26.04
819.768	26.43
819.943	26.24
820.117	25.98
820.292	25.58
820.467	26.26
820.641	26.78
820.816	27.48
820.99	27.39
821.165	26.94
821.339	27.11
821.514	27.05
821.688	27
821.863	27.07
822.037	27.31
822.212	27.1
822.386	26.92
822.56	26.87
822.735	26.54
822.909	26.23
823.084	26.07
823.258	25.74
823.432	25.74
823.606	25.5
823.781	25.54
823.955	25.13
824.129	25.19
824.303	24.95
824.478	25.33
824.652	25.53
824.826	25.39
825	25.17
825.174	25.56
825.348	25.84
825.523	25.95
825.697	25.78
825.871	26.14
826.045	26.08
826.219	26.31
826.393	25.09
826.567	24.91
826.741	25.62
826.915	25.62
827.089	25.86
827.263	25.36
827.437	25.43
827.611	25.35
827.784	25.17
827.958	25.34
828.132	25.13
828.306	26.25
828.48	26.06
828.654	26.22
828.827	26.78
829.001	26.31
829.175	26.77
829.349	26.57
829.522	26.64
829.696	26.47
829.87	25.73
830.044	26.04
830.217	25.52
830.391	25.51
830.565	24.72
830.738	23.71
830.912	22.72
831.085	22.75
831.259	23.97
831.432	23.3
831.606	23.78
831.779	24.95
831.953	24.65
832.126	24.18
832.3	24.25
832.473	24.24
832.647	24.57
832.82	25.61
832.994	24.46
833.167	24.25
833.34	25
833.514	24.91
833.687	24.56
833.86	24.75
834.034	24.95
834.207	25.1
834.38	25.34
834.553	25.35
834.727	24.61
834.9	24.99
835.073	25.07
835.246	24.67
835.419	24.81
835.593	24.49
835.766	24.05
835.939	24.97
836.112	24.16
836.285	24.29
836.458	24.02
836.631	25.43
836.804	26.13
836.977	24.61
837.15	25.01
837.323	24.26
837.496	24.69
837.669	23.77
837.842	20.46
838.015	22.94
838.188	21.7
838.361	21.88
838.533	20.39
838.706	21.35
838.879	21.47
839.052	21.18
839.225	20.88
839.398	21.58
839.57	21.98
839.743	22.83
839.916	21.96
840.088	22.08
840.261	22.35
840.434	22.25
840.607	22.67
840.779	23.87
840.952	22.6
841.124	24.44
841.297	23.47
841.47	24.67
841.642	26.18
841.815	26.12
841.987	25.83
842.16	26.64
842.332	26.99
842.505	25.73
842.677	24.65
842.85	25.45
843.022	21.97
843.194	22.39
843.367	21.27
843.539	20.34
843.712	21.01
843.884	23.61
844.056	25.95
844.229	27.64
844.401	24.4
844.573	25.67
844.745	27.24
844.918	30.71
845.09	27.76
845.262	27.11
845.434	26.73
845.606	23.64
845.779	20.09
845.951	19.89
846.123	16.88
846.295	18.34
846.467	17.21
846.639	16.53
846.811	14.63
846.983	18.39
847.155	18.45
847.327	20.68
847.499	23.4
847.671	24.94
847.843	27.06
848.015	26.24
848.187	30.17
848.359	28.48
848.531	27.83
848.703	26.99
848.875	22.52
849.047	24.12
849.218	20.84
849.39	22.35
849.562	25.97
849.734	18.74
849.905	21.54
850.077	19.15
850.249	19.47
850.421	17.51
850.592	18.86
850.764	23.07
850.936	25.53
851.107	27.64
851.279	28.43
851.451	26.46
851.622	28.85
851.794	26.05
851.965	26.9
852.137	28.33
852.308	33.3
852.48	29.98
852.651	30.67
852.823	23.84
852.994	24.22
853.166	22.43
853.337	22.35
853.509	21.38
853.68	22.31
853.851	23.11
854.023	21.5
854.194	21.36
854.365	24.85
854.537	22.94
854.708	25.74
854.879	26.69
855.05	29.49
855.222	27.36
855.393	30.42
855.564	31.38
855.735	30.09
855.906	28.24
856.078	27.15
856.249	28.09
856.42	25.34
856.591	26.68
856.762	22.88
856.933	17.96
857.104	13.8
857.275	7.46
857.446	4.54
857.617	8.37
857.788	13.1
857.959	10.46
858.13	11.32
858.301	15.98
858.472	17.08
858.643	17.65
858.814	13.6
858.985	15.36
859.155	15.4
859.326	19.31
859.497	18.58
859.668	15.34
859.839	13.94
860.009	14.68
860.18	16.01
860.351	10.31
860.522	13.02
860.692	21.03
860.863	20.77
861.034	21.74
861.204	20.11
861.375	13.19
861.546	14.33
861.716	15.13
861.887	12.48
862.057	7.63
862.228	8.21
862.398	7.73
862.569	1.8
862.739	2.18
862.91	1.29
863.08	-0.42
863.251	5.47
863.421	5
863.592	6.45
863.762	5.08
863.932	7.98
864.103	9.26
864.273	7.71
864.443	10.5
864.614	8.45
864.784	9.11
864.954	9.6
865.125	10.06
865.295	9.11
865.465	6.5
865.635	7.91
865.805	12.92
865.976	12.96
866.146	14.41
866.316	10.91
866.486	16.17
866.656	12.24
866.826	14.01
866.996	15.91
867.166	18.57
867.336	16.09
867.506	11.1
867.676	5.62
867.846	3.66
868.016	-2
868.186	-2.84
868.356	-4.22
868.526	-0.86
868.696	2.27
868.866	-3.9
869.036	1.33
869.206	10.69
869.376	17.61
869.545	20.22
869.715	24.85
869.885	27.65
870.055	31.49
870.224	31.85
870.394	31.07
870.564	31.35
870.734	33.68
870.903	29.45
871.073	27.02
871.243	26.08
871.412	24.3
871.582	21.91
871.751	23.9
871.921	19.82
872.091	16.1
872.26	17.08
872.43	18.51
872.599	20.48
872.769	21.49
872.938	23.78
873.108	23.89
873.277	22.76
873.446	19.86
873.616	18.73
873.785	16.76
873.955	21.47
874.124	22.69
874.293	20.51
874.463	14.49
874.632	13.79
874.801	2.35
874.971	3.66
875.14	4.08
875.309	15.46
875.478	25.06
875.647	30
875.817	31.89
875.986	29.76
876.155	26.27
876.324	25.39
876.493	21.21
876.662	27.58
876.831	28.22
877	30.28
877.17	25.77
877.339	19.6
877.508	16.39
877.677	14.89
877.846	14.49
878.015	14.35
878.184	16.69
878.352	19.31
878.521	17.73
878.69	18.58
878.859	19.42
879.028	19.09
879.197	18.38
879.366	20.54
879.534	18.99
879.703	23.96
879.872	23.82
880.041	25.35
880.21	25.62
880.378	25.88
880.547	25.02
880.716	24.78
880.884	23.97
881.053	24.11
881.222	23.83
881.39	25.25
881.559	23.02
881.727	23.54
881.896	23.25
882.065	22.67
882.233	22.23
882.402	22.81
882.57	23.13
882.739	23.28
882.907	23.12
883.076	24.27
883.244	23.75
883.412	25.17
883.581	25.14
883.749	25.74
883.918	26.63
884.086	27.01
884.254	26.45
884.423	26.13
884.591	26.08
884.759	27.71
884.927	25.62
885.096	24.89
885.264	23.99
885.432	23.72
885.6	22.45
885.769	20.6
885.937	21.26
886.105	20.27
886.273	20.42
886.441	22.27
886.609	21.74
886.777	25.48
886.945	26.75
887.113	24.55
887.281	23.95
887.449	25.09
887.617	26.83
887.785	26.95
887.953	26.24
888.121	25.27
888.289	25.72
888.457	26.37
888.625	21.21
888.793	19.78
888.961	22.52
889.129	23.88
889.296	24.2
889.464	24.59
889.632	23.65
889.8	27.3
889.967	26.63
890.135	20.06
