Data from 2938475_Reflection_2.txt Node
Date: Wed Jun 17 13:20:53 EDT 2015
User: robert
Spectrometer: USB4E03002
Autoset integration time: false
Trigger mode: 4
Integration Time (sec): 1.000000E-1
Scans to average: 10
Electric dark correction enabled: true
Nonlinearity correction enabled: false
Boxcar width: 5
Stray light correction enabled: false
XAxis mode: Wavelengths
Stop averaging: false
Number of Pixels in Spectrum: 3648
>>>>>Begin Spectral Data<<<<<
177.575	791.47
177.794	202.81
178.014	169.01
178.233	200.25
178.452	87.95
178.672	133.38
178.891	-57.66
179.11	-403.77
179.33	-409.17
179.549	-855.38
179.768	-1334.5
179.987	-805.04
180.207	-436.29
180.426	-902.47
180.645	-944.83
180.864	-211.44
181.084	-142.45
181.303	-112.89
181.522	-105.82
181.741	-151.26
181.96	-135.99
182.179	-186.14
182.398	-606.99
182.618	608.16
182.837	564.81
183.056	277.21
183.275	161.53
183.494	148.82
183.713	167.77
183.932	158.92
184.151	187.07
184.37	185.97
184.589	170.25
184.808	171.48
185.027	180.61
185.246	195.04
185.465	232.02
185.684	272.56
185.903	2174.75
186.122	236.78
186.341	202.86
186.56	163.85
186.779	161.67
186.998	264.87
187.216	506.76
187.435	195.33
187.654	210.06
187.873	278.55
188.092	1120.76
188.311	373.3
188.53	-146.28
188.748	13.11
188.967	7.02
189.186	-161.59
189.405	-159.26
189.623	-153.45
189.842	-73.66
190.061	-78.47
190.28	-95.13
190.498	-167.26
190.717	-426.3
190.936	-967.89
191.154	1245.36
191.373	-7308
191.592	-2594.56
191.81	932.25
192.029	730.58
192.248	355.94
192.466	371.47
192.685	471.82
192.904	896.7
193.122	2309.65
193.341	4367.03
193.559	-491.73
193.778	-581.33
193.996	-530.65
194.215	-147.46
194.433	-151.77
194.652	-198.99
194.87	-286.42
195.089	-484.4
195.307	896.54
195.526	817.97
195.744	378.9
195.963	289.06
196.181	269.54
196.399	233.49
196.618	205.35
196.836	198.29
197.055	208.13
197.273	229.96
197.491	302.02
197.71	387.09
197.928	304.86
198.146	234.86
198.365	222.34
198.583	170.55
198.801	208.02
199.019	225.13
199.238	298.05
199.456	283.62
199.674	276.33
199.892	189.51
200.111	162.4
200.329	220.16
200.547	286.52
200.765	330.83
200.983	286.21
201.202	235.92
201.42	223.52
201.638	246.96
201.856	217.98
202.074	229.61
202.292	352.62
202.51	259.41
202.728	174.17
202.946	128.68
203.165	90.5
203.383	144.26
203.601	113.26
203.819	93.05
204.037	64.31
204.255	103.79
204.473	93.3
204.691	106.18
204.909	146
205.127	158.86
205.345	239.77
205.562	356.83
205.78	360.46
205.998	570.87
206.216	528.7
206.434	1531.93
206.652	218.42
206.87	320.13
207.088	207.7
207.306	154.23
207.523	151.65
207.741	170.89
207.959	205.14
208.177	159.03
208.395	150.6
208.612	169.88
208.83	176.88
209.048	283.58
209.266	230.83
209.483	375.74
209.701	489.21
209.919	277.6
210.136	428.86
210.354	279.61
210.572	609.39
210.79	447.2
211.007	267.5
211.225	503.41
211.442	129.69
211.66	154.21
211.878	140.1
212.095	156.25
212.313	180.17
212.53	120.63
212.748	115.21
212.966	111.09
213.183	141.12
213.401	140.38
213.618	118.46
213.836	117.06
214.053	122.67
214.271	116.83
214.488	104.41
214.705	116.25
214.923	113.7
215.14	117.99
215.358	115.82
215.575	90.26
215.793	86.39
216.01	87.45
216.227	83.68
216.445	77
216.662	68.03
216.879	65.11
217.097	66.09
217.314	74.05
217.531	83.35
217.749	72.58
217.966	72.35
218.183	71.81
218.4	73.06
218.618	77.81
218.835	66.71
219.052	67.27
219.269	66.25
219.487	64.91
219.704	57.97
219.921	52.43
220.138	51.85
220.355	47.28
220.572	50.98
220.79	50.12
221.007	50.82
221.224	57.27
221.441	71.35
221.658	78.91
221.875	89.94
222.092	94.16
222.309	84.81
222.526	84.28
222.743	86.85
222.96	90.45
223.177	85.1
223.394	76.79
223.611	71.94
223.828	72.44
224.045	63.32
224.262	57.29
224.479	47.5
224.696	45.62
224.913	45.07
225.13	38.66
225.347	29.69
225.564	29.5
225.781	25.89
225.997	24.65
226.214	20.83
226.431	18.22
226.648	17.55
226.865	17.09
227.082	18.42
227.298	17.34
227.515	16.16
227.732	16.23
227.949	14.79
228.165	14.85
228.382	14.77
228.599	14.88
228.816	15.06
229.032	14.37
229.249	17.01
229.466	15.45
229.682	15.83
229.899	16.49
230.116	16.2
230.332	19.04
230.549	19.64
230.765	20.84
230.982	20.96
231.199	21.22
231.415	21.55
231.632	19.61
231.848	20.62
232.065	20.13
232.281	19.44
232.498	18.87
232.714	16.36
232.931	17.56
233.147	16.82
233.364	14.3
233.58	13.42
233.797	13.6
234.013	13.48
234.23	13.88
234.446	14.28
234.662	15.7
234.879	17.51
235.095	19.59
235.312	18.93
235.528	15.52
235.744	18.99
235.961	19.97
236.177	19.67
236.393	19.61
236.61	20.14
236.826	17.63
237.042	18.38
237.258	18.21
237.475	15.3
237.691	16.6
237.907	18.96
238.123	17.9
238.339	19.41
238.556	18.53
238.772	16.53
238.988	15.58
239.204	17.92
239.42	16.69
239.636	16.29
239.853	16.68
240.069	15.4
240.285	15.41
240.501	14.66
240.717	13.92
240.933	13.78
241.149	14.48
241.365	14.27
241.581	13.68
241.797	13.75
242.013	12.82
242.229	12.15
242.445	12.84
242.661	11.79
242.877	12.25
243.093	11.87
243.309	11.95
243.525	12.04
243.741	12.07
243.957	11.62
244.173	11.73
244.388	12.96
244.604	13.46
244.82	12.7
245.036	12.8
245.252	11.94
245.468	11.89
245.683	11.71
245.899	11.16
246.115	10.93
246.331	11.23
246.547	10.99
246.762	10.57
246.978	10.48
247.194	10.54
247.409	10.54
247.625	11.44
247.841	11.64
248.057	12.19
248.272	13.09
248.488	13.44
248.703	12.75
248.919	12.97
249.135	12.72
249.35	13
249.566	13.26
249.782	13.57
249.997	12.35
250.213	11.38
250.428	10.8
250.644	10.59
250.859	10.91
251.075	10.67
251.29	11.03
251.506	11.58
251.721	11.38
251.937	10.86
252.152	11
252.368	11.13
252.583	12.41
252.798	12.67
253.014	12.71
253.229	12.49
253.445	13.14
253.66	12.99
253.875	11.26
254.091	10.68
254.306	11.37
254.521	10.91
254.737	10.73
254.952	10.66
255.167	10
255.383	9.45
255.598	9.45
255.813	9.99
256.028	10.01
256.244	11.1
256.459	11.39
256.674	10.5
256.889	10.52
257.104	10.35
257.32	10.17
257.535	9.96
257.75	10.05
257.965	9.87
258.18	9.5
258.395	9.12
258.61	9.2
258.826	9.07
259.041	9.49
259.256	9.62
259.471	9.6
259.686	9.51
259.901	9.63
260.116	9.61
260.331	9.23
260.546	9.44
260.761	10.01
260.976	9.6
261.191	9.39
261.406	9.33
261.621	8.72
261.836	9.07
262.05	8.73
262.265	8.89
262.48	9.1
262.695	10.46
262.91	11.58
263.125	11.36
263.34	11.62
263.555	11.3
263.769	11.44
263.984	11.48
264.199	11.33
264.414	11.4
264.629	11.55
264.843	11.31
265.058	10.49
265.273	9.35
265.488	8.82
265.702	8.39
265.917	9.09
266.132	8.65
266.346	8.53
266.561	8.73
266.776	8.69
266.99	8.31
267.205	8.53
267.42	8.01
267.634	8.55
267.849	9.15
268.063	9.18
268.278	8.58
268.492	8.7
268.707	8.69
268.922	8.38
269.136	8.29
269.351	8.47
269.565	8.33
269.78	8.65
269.994	7.96
270.209	7.4
270.423	7.56
270.637	7.77
270.852	7.54
271.066	7.51
271.281	7.82
271.495	7.78
271.709	7.75
271.924	7.77
272.138	8.09
272.353	8.26
272.567	8.24
272.781	8.12
272.996	7.91
273.21	8.34
273.424	8.79
273.638	8.64
273.853	8.27
274.067	8.57
274.281	8.61
274.495	8.68
274.71	8.45
274.924	8.74
275.138	8.77
275.352	8.85
275.566	8.79
275.781	7.98
275.995	8.47
276.209	8.77
276.423	8.25
276.637	8.4
276.851	8.36
277.065	8.94
277.279	9.01
277.493	9.08
277.707	9.42
277.921	9.21
278.135	10.11
278.349	9.58
278.563	9.61
278.777	9.88
278.991	9.23
279.205	9.19
279.419	8.63
279.633	8.81
279.847	8.74
280.061	8.55
280.275	8.68
280.489	8.09
280.703	8.12
280.917	8.07
281.131	8.16
281.344	8.67
281.558	8.7
281.772	8.56
281.986	8.26
282.2	8.23
282.414	8.03
282.627	7.46
282.841	8
283.055	8.08
283.269	8.21
283.482	7.6
283.696	7.18
283.91	6.97
284.123	7.67
284.337	7.44
284.551	7.56
284.764	7.44
284.978	7.84
285.192	7.64
285.405	7.86
285.619	8.1
285.833	8.8
286.046	8.84
286.26	9.44
286.473	9.21
286.687	9.5
286.9	9.09
287.114	9.53
287.327	9.61
287.541	9.52
287.754	9.29
287.968	9.04
288.181	8.99
288.395	9.05
288.608	8.46
288.822	8.02
289.035	8.29
289.248	8.8
289.462	8.75
289.675	8.53
289.889	8.98
290.102	8.99
290.315	8.8
290.529	8.43
290.742	8.58
290.955	9.35
291.169	10.08
291.382	10.35
291.595	10.82
291.808	10.83
292.022	10.91
292.235	10.67
292.448	10.85
292.661	11.32
292.875	11.48
293.088	11.49
293.301	11.08
293.514	10.7
293.727	10.43
293.94	9.75
294.153	9.86
294.367	9.96
294.58	10.02
294.793	9.79
295.006	9.56
295.219	9.86
295.432	9.77
295.645	9.4
295.858	9.22
296.071	9.03
296.284	9.31
296.497	9.1
296.71	8.87
296.923	8.41
297.136	8.4
297.349	8.12
297.562	7.89
297.775	7.84
297.988	8.1
298.201	8.35
298.414	8.68
298.626	8.63
298.839	8.99
299.052	9.21
299.265	9.73
299.478	10.14
299.691	10.66
299.903	10.65
300.116	10.72
300.329	11.3
300.542	11.43
300.755	11.5
300.967	11.28
301.18	10.98
301.393	11.22
301.605	11.02
301.818	10.84
302.031	10.76
302.243	11.34
302.456	11.53
302.669	10.79
302.881	11.23
303.094	11.17
303.307	11.1
303.519	11.47
303.732	11.23
303.944	11.3
304.157	11.21
304.37	10.99
304.582	10.04
304.795	10.11
305.007	10.25
305.22	10.1
305.432	10.06
305.645	10.51
305.857	10.18
306.069	10.32
306.282	10.28
306.494	9.97
306.707	9.95
306.919	9.94
307.132	9.41
307.344	9.59
307.556	8.97
307.769	8.91
307.981	9.16
308.193	9.68
308.406	9.61
308.618	9.8
308.83	10.31
309.043	10.7
309.255	11.01
309.467	11.27
309.679	11.15
309.892	11.44
310.104	11.34
310.316	11.2
310.528	10.89
310.74	10.64
310.953	10.58
311.165	10.34
311.377	10.07
311.589	10.55
311.801	10.88
312.013	11.12
312.225	11.4
312.437	11.54
312.649	11.67
312.862	11.52
313.074	12.43
313.286	12.36
313.498	12.14
313.71	12.21
313.922	11.94
314.134	12.18
314.346	12.35
314.558	12.29
314.77	12.76
314.982	12.38
315.193	12.23
315.405	11.95
315.617	12.1
315.829	12.14
316.041	12.27
316.253	12.27
316.465	12.05
316.677	11.84
316.888	11.82
317.1	11.52
317.312	11.32
317.524	12.2
317.736	12.38
317.947	12.9
318.159	13.36
318.371	13.57
318.583	13.54
318.794	13.41
319.006	13.3
319.218	13.27
319.43	13.36
319.641	13.89
319.853	13.65
320.064	13.32
320.276	13.16
320.488	12.53
320.699	12.77
320.911	12.5
321.123	13.03
321.334	13.01
321.546	13.45
321.757	13.54
321.969	13.8
322.18	13.42
322.392	13.47
322.603	13.22
322.815	13.63
323.026	13.24
323.238	13.11
323.449	12.22
323.661	12.23
323.872	12.67
324.083	12.51
324.295	12.55
324.506	12.7
324.718	12.69
324.929	12.3
325.14	12
325.352	12.15
325.563	12.15
325.774	12.32
325.986	12.38
326.197	11.53
326.408	11.95
326.62	11.73
326.831	11.53
327.042	11.83
327.253	11.82
327.464	12.23
327.676	12.14
327.887	12.26
328.098	12.11
328.309	12.61
328.52	12.9
328.732	12.68
328.943	12.16
329.154	12.73
329.365	12.6
329.576	12.75
329.787	12.58
329.998	12.56
330.209	12.55
330.42	12.93
330.631	12.55
330.842	12.2
331.053	11.81
331.264	12.05
331.475	11.56
331.686	11.87
331.897	11.98
332.108	11.58
332.319	11.38
332.53	11.45
332.741	11.53
332.952	11
333.163	11.06
333.374	11.06
333.585	11.02
333.795	10.94
334.006	10.02
334.217	10.02
334.428	10.14
334.639	10.3
334.849	10.03
335.06	9.42
335.271	9.42
335.482	9.39
335.692	9.75
335.903	9.49
336.114	9.41
336.325	10.05
336.535	9.88
336.746	10.14
336.957	10.14
337.167	10.42
337.378	10.84
337.589	11.49
337.799	11.23
338.01	10.94
338.22	11.48
338.431	11.57
338.642	11.29
338.852	11.33
339.063	11.04
339.273	11.06
339.484	11.06
339.694	10.77
339.905	10.67
340.115	10.95
340.326	10.84
340.536	10.28
340.746	10.22
340.957	9.99
341.167	9.61
341.378	9.59
341.588	9.65
341.799	9.38
342.009	9.72
342.219	9.51
342.43	9.63
342.64	9.64
342.85	9.67
343.061	9.58
343.271	9.86
343.481	10.15
343.691	10.1
343.902	9.95
344.112	10.21
344.322	10.08
344.532	9.84
344.743	9.64
344.953	9.6
345.163	9.61
345.373	9.75
345.583	9.46
345.793	9.26
346.004	9.36
346.214	9.34
346.424	8.91
346.634	8.96
346.844	9.39
347.054	9.01
347.264	9.02
347.474	9.06
347.684	8.95
347.894	9.03
348.104	9.18
348.314	9.37
348.524	8.9
348.734	9.01
348.944	8.8
349.154	8.26
349.364	8.57
349.574	8.56
349.784	8.54
349.994	9.08
350.204	9.29
350.413	8.98
350.623	8.74
350.833	8.86
351.043	8.76
351.253	8.54
351.463	9.01
351.672	9.02
351.882	8.89
352.092	8.79
352.302	8.53
352.511	8.4
352.721	8.85
352.931	8.76
353.141	8.71
353.35	8.98
353.56	9.25
353.77	9.07
353.979	9.01
354.189	9.03
354.399	9.05
354.608	8.89
354.818	8.65
355.027	8.95
355.237	9.3
355.447	9.21
355.656	9.16
355.866	9.07
356.075	8.94
356.285	9.01
356.494	9.19
356.704	9.41
356.913	9.67
357.123	9.73
357.332	9.26
357.542	9.08
357.751	9.16
357.96	8.88
358.17	9.08
358.379	9.11
358.589	8.82
358.798	8.62
359.007	8.69
359.217	8.36
359.426	8.4
359.635	8.36
359.845	8.47
360.054	8.68
360.263	8.51
360.472	8.52
360.682	8.64
360.891	8.94
361.1	9.16
361.309	8.73
361.519	8.88
361.728	8.81
361.937	8.83
362.146	8.59
362.355	8.6
362.564	8.79
362.774	8.51
362.983	8.62
363.192	8.4
363.401	8.12
363.61	8.28
363.819	8.42
364.028	8.64
364.237	8.76
364.446	8.72
364.655	8.37
364.864	8.6
365.073	8.67
365.282	8.6
365.491	8.52
365.7	8.48
365.909	8.58
366.118	8.59
366.327	8.44
366.536	8.34
366.745	8.56
366.954	8.44
367.162	8.34
367.371	7.89
367.58	7.58
367.789	7.9
367.998	7.87
368.207	7.58
368.415	7.23
368.624	7.04
368.833	6.91
369.042	6.71
369.25	7.1
369.459	6.85
369.668	7.36
369.877	7.36
370.085	7.09
370.294	7.07
370.503	7.14
370.711	7.16
370.92	6.84
371.129	6.79
371.337	6.49
371.546	5.84
371.754	5.8
371.963	5.77
372.171	5.74
372.38	5.33
372.589	5.18
372.797	5.24
373.006	4.98
373.214	5.39
373.423	5.6
373.631	5.82
373.84	6.31
374.048	6.32
374.256	6.13
374.465	6.09
374.673	6.55
374.882	6.7
375.09	6.44
375.298	6.6
375.507	6.5
375.715	6.21
375.923	6.19
376.132	5.98
376.34	6.23
376.548	6.21
376.757	6.36
376.965	6.22
377.173	6.27
377.381	6.69
377.59	6.94
377.798	7.02
378.006	7.11
378.214	7.11
378.423	7.1
378.631	6.85
378.839	6.74
379.047	6.57
379.255	6.7
379.463	6.72
379.671	6.54
379.879	6.11
380.088	6.35
380.296	6.35
380.504	6.37
380.712	6.55
380.92	6.37
381.128	6.72
381.336	6.49
381.544	6.14
381.752	5.91
381.96	5.72
382.168	6
382.376	5.66
382.584	5.66
382.791	5.55
382.999	5.76
383.207	6.04
383.415	5.6
383.623	5.69
383.831	5.67
384.039	5.91
384.247	6.01
384.454	5.74
384.662	5.62
384.87	5.57
385.078	5.7
385.285	5.58
385.493	5.74
385.701	5.97
385.909	6.01
386.116	6.11
386.324	5.9
386.532	5.65
386.739	5.56
386.947	5.79
387.155	5.89
387.362	5.55
387.57	5.2
387.778	5.04
387.985	4.97
388.193	5.07
388.4	5.08
388.608	5.09
388.816	5.45
389.023	5.53
389.231	5.54
389.438	5.44
389.646	5.54
389.853	5.63
390.061	5.55
390.268	5.51
390.475	5.57
390.683	5.59
390.89	5.65
391.098	5.43
391.305	5.57
391.512	5.37
391.72	5.27
391.927	5.31
392.135	5.27
392.342	5.08
392.549	5.21
392.756	4.8
392.964	4.81
393.171	4.76
393.378	4.75
393.586	4.6
393.793	4.58
394	4.71
394.207	4.68
394.414	4.84
394.622	4.94
394.829	4.76
395.036	4.84
395.243	4.78
395.45	4.75
395.657	4.83
395.864	4.86
396.072	5
396.279	4.93
396.486	4.81
396.693	4.52
396.9	4.54
397.107	4.58
397.314	4.84
397.521	4.85
397.728	4.64
397.935	4.7
398.142	4.59
398.349	4.43
398.556	4.33
398.763	4.61
398.97	4.63
399.177	4.52
399.383	4.54
399.59	4.36
399.797	4.42
400.004	4.75
400.211	4.62
400.418	4.77
400.625	4.78
400.831	4.9
401.038	4.68
401.245	4.54
401.452	4.67
401.658	4.64
401.865	4.52
402.072	4.21
402.279	4.06
402.485	3.96
402.692	4.01
402.899	4.16
403.105	4.19
403.312	4.23
403.519	4.5
403.725	4.27
403.932	4.26
404.138	4.6
404.345	4.7
404.552	4.7
404.758	4.76
404.965	4.61
405.171	4.45
405.378	4.29
405.584	4.23
405.791	4.01
405.997	4.11
406.204	4.12
406.41	3.88
406.617	3.9
406.823	3.81
407.029	3.84
407.236	3.91
407.442	3.86
407.649	3.74
407.855	3.67
408.061	3.89
408.268	3.81
408.474	3.76
408.68	3.82
408.887	3.9
409.093	4.21
409.299	4.15
409.505	3.93
409.712	3.93
409.918	3.96
410.124	4.04
410.33	3.99
410.537	4.23
410.743	4.37
410.949	4.13
411.155	4.23
411.361	3.83
411.567	3.98
411.773	4.03
411.98	3.97
412.186	3.97
412.392	4.11
412.598	3.91
412.804	3.76
413.01	3.49
413.216	3.61
413.422	3.52
413.628	3.58
413.834	3.5
414.04	3.55
414.246	3.61
414.452	3.63
414.658	3.61
414.864	3.62
415.07	3.73
415.275	3.88
415.481	3.85
415.687	3.76
415.893	3.87
416.099	3.92
416.305	3.88
416.511	3.82
416.716	3.94
416.922	3.82
417.128	3.9
417.334	3.78
417.539	3.68
417.745	3.67
417.951	3.63
418.157	3.47
418.362	3.37
418.568	3.4
418.774	3.38
418.979	3.35
419.185	3.38
419.391	3.33
419.596	3.39
419.802	3.33
420.008	3.34
420.213	3.42
420.419	3.56
420.624	3.56
420.83	3.55
421.035	3.54
421.241	3.47
421.446	3.4
421.652	3.42
421.857	3.38
422.063	3.37
422.268	3.32
422.474	3.25
422.679	3.1
422.885	3.05
423.09	2.99
423.295	3.03
423.501	3.06
423.706	3.05
423.911	3.06
424.117	3.07
424.322	3.13
424.527	3.19
424.733	3.17
424.938	3.3
425.143	3.33
425.349	3.31
425.554	3.37
425.759	3.36
425.964	3.39
426.169	3.33
426.375	3.31
426.58	3.3
426.785	3.32
426.99	3.29
427.195	3.21
427.4	3.23
427.605	3.33
427.811	3.15
428.016	3.13
428.221	3.27
428.426	3.28
428.631	3.18
428.836	3.13
429.041	3.12
429.246	3.08
429.451	3.05
429.656	3.09
429.861	3.14
430.066	3.23
430.271	3.28
430.476	3.1
430.681	3.15
430.886	3.14
431.09	3.11
431.295	3.06
431.5	3.11
431.705	3.08
431.91	3.04
432.115	2.89
432.32	2.89
432.524	2.9
432.729	2.94
432.934	2.89
433.139	2.96
433.343	3.07
433.548	3.12
433.753	3.12
433.958	3.15
434.162	3.22
434.367	3.3
434.572	3.41
434.776	3.38
434.981	3.42
435.186	3.51
435.39	3.54
435.595	3.48
435.799	3.39
436.004	3.4
436.209	3.4
436.413	3.29
436.618	3.14
436.822	3.04
437.027	2.99
437.231	2.99
437.436	2.91
437.64	2.76
437.845	2.8
438.049	2.8
438.253	2.83
438.458	2.77
438.662	2.73
438.867	2.82
439.071	2.82
439.275	2.81
439.48	2.77
439.684	2.62
439.888	2.7
440.093	2.64
440.297	2.66
440.501	2.6
440.706	2.62
440.91	2.69
441.114	2.66
441.318	2.6
441.523	2.65
441.727	2.76
441.931	2.93
442.135	2.89
442.339	2.88
442.543	2.88
442.748	2.79
442.952	2.83
443.156	2.82
443.36	2.89
443.564	2.89
443.768	2.88
443.972	2.8
444.176	2.69
444.38	2.68
444.584	2.62
444.788	2.59
444.992	2.67
445.196	2.54
445.4	2.56
445.604	2.54
445.808	2.58
446.012	2.5
446.216	2.49
446.42	2.57
446.624	2.61
446.828	2.7
447.032	2.7
447.235	2.71
447.439	2.81
447.643	2.71
447.847	2.77
448.051	2.72
448.254	2.76
448.458	2.71
448.662	2.71
448.866	2.67
449.069	2.66
449.273	2.66
449.477	2.66
449.681	2.7
449.884	2.72
450.088	2.57
450.292	2.64
450.495	2.71
450.699	2.76
450.902	2.7
451.106	2.76
451.31	2.69
451.513	2.73
451.717	2.67
451.92	2.72
452.124	2.74
452.327	2.88
452.531	2.75
452.734	2.75
452.938	2.72
453.141	2.82
453.345	2.61
453.548	2.62
453.752	2.61
453.955	2.69
454.158	2.61
454.362	2.69
454.565	2.63
454.769	2.8
454.972	2.69
455.175	2.71
455.379	2.66
455.582	2.83
455.785	2.82
455.988	2.78
456.192	2.72
456.395	2.71
456.598	2.6
456.801	2.55
457.005	2.51
457.208	2.53
457.411	2.5
457.614	2.46
457.817	2.4
458.021	2.36
458.224	2.35
458.427	2.31
458.63	2.34
458.833	2.39
459.036	2.38
459.239	2.37
459.442	2.37
459.645	2.39
459.848	2.37
460.051	2.45
460.254	2.56
460.457	2.56
460.66	2.6
460.863	2.49
461.066	2.54
461.269	2.53
461.472	2.52
461.675	2.53
461.878	2.55
462.081	2.59
462.284	2.52
462.486	2.44
462.689	2.51
462.892	2.58
463.095	2.74
463.298	2.61
463.5	2.63
463.703	2.58
463.906	2.6
464.109	2.55
464.311	2.62
464.514	2.6
464.717	2.74
464.92	2.7
465.122	2.74
465.325	2.61
465.528	2.75
465.73	2.79
465.933	2.88
466.135	2.82
466.338	2.8
466.541	2.73
466.743	2.76
466.946	2.66
467.148	2.64
467.351	2.49
467.553	2.6
467.756	2.51
467.958	2.48
468.161	2.46
468.363	2.51
468.566	2.52
468.768	2.59
468.971	2.52
469.173	2.42
469.375	2.33
469.578	2.33
469.78	2.35
469.983	2.34
470.185	2.32
470.387	2.37
470.59	2.35
470.792	2.45
470.994	2.22
471.196	2.32
471.399	2.43
471.601	2.62
471.803	2.68
472.005	2.69
472.208	2.69
472.41	2.68
472.612	2.62
472.814	2.59
473.016	2.58
473.218	2.75
473.421	2.7
473.623	2.67
473.825	2.51
474.027	2.53
474.229	2.44
474.431	2.42
474.633	2.46
474.835	2.38
475.037	2.39
475.239	2.35
475.441	2.35
475.643	2.29
475.845	2.35
476.047	2.45
476.249	2.38
476.451	2.41
476.653	2.39
476.855	2.34
477.057	2.33
477.258	2.35
477.46	2.41
477.662	2.49
477.864	2.5
478.066	2.5
478.268	2.58
478.469	2.62
478.671	2.47
478.873	2.49
479.075	2.47
479.276	2.51
479.478	2.46
479.68	2.37
479.882	2.31
480.083	2.28
480.285	2.3
480.487	2.18
480.688	2.21
480.89	2.31
481.091	2.3
481.293	2.34
481.495	2.3
481.696	2.29
481.898	2.28
482.099	2.26
482.301	2.24
482.502	2.21
482.704	2.21
482.905	2.2
483.107	2.16
483.308	2.13
483.51	2.09
483.711	2.1
483.913	2.09
484.114	2.09
484.315	2.1
484.517	2.12
484.718	2.13
484.92	2.12
485.121	2.08
485.322	2.11
485.524	2.14
485.725	2.17
485.926	2.15
486.127	2.18
486.329	2.17
486.53	2.15
486.731	2.13
486.932	2.1
487.134	2.13
487.335	2.17
487.536	2.16
487.737	2.14
487.938	2.13
488.139	2.17
488.341	2.17
488.542	2.23
488.743	2.26
488.944	2.26
489.145	2.31
489.346	2.3
489.547	2.33
489.748	2.36
489.949	2.38
490.15	2.39
490.351	2.37
490.552	2.39
490.753	2.34
490.954	2.36
491.155	2.41
491.356	2.36
491.557	2.36
491.758	2.34
491.959	2.31
492.159	2.35
492.36	2.33
492.561	2.32
492.762	2.31
492.963	2.33
493.164	2.3
493.364	2.29
493.565	2.38
493.766	2.41
493.967	2.39
494.167	2.39
494.368	2.35
494.569	2.34
494.769	2.34
494.97	2.34
495.171	2.41
495.371	2.37
495.572	2.37
495.773	2.38
495.973	2.35
496.174	2.35
496.375	2.39
496.575	2.36
496.776	2.39
496.976	2.45
497.177	2.56
497.377	2.5
497.578	2.49
497.778	2.45
497.979	2.46
498.179	2.48
498.38	2.49
498.58	2.5
498.78	2.57
498.981	2.63
499.181	2.62
499.382	2.53
499.582	2.51
499.782	2.66
499.983	2.81
500.183	2.75
500.383	2.79
500.584	2.76
500.784	2.77
500.984	2.72
501.184	2.68
501.385	2.71
501.585	2.66
501.785	2.73
501.985	2.68
502.185	2.56
502.386	2.61
502.586	2.56
502.786	2.63
502.986	2.63
503.186	2.68
503.386	2.65
503.586	2.6
503.786	2.64
503.987	2.66
504.187	2.57
504.387	2.59
504.587	2.61
504.787	2.64
504.987	2.65
505.187	2.6
505.387	2.62
505.587	2.7
505.786	2.74
505.986	2.75
506.186	2.69
506.386	2.79
506.586	2.81
506.786	2.78
506.986	2.84
507.186	2.84
507.386	2.88
507.585	2.84
507.785	2.87
507.985	2.85
508.185	2.84
508.384	2.92
508.584	2.89
508.784	2.89
508.984	2.88
509.183	2.89
509.383	2.87
509.583	2.89
509.782	2.93
509.982	2.9
510.182	2.96
510.381	2.96
510.581	2.93
510.781	2.99
510.98	3.04
511.18	3.12
511.379	3.04
511.579	3.14
511.778	3.13
511.978	3.14
512.177	3.14
512.377	3.13
512.576	3.15
512.776	3.19
512.975	3.16
513.175	3.1
513.374	3.05
513.573	3
513.773	2.9
513.972	3.01
514.172	3.01
514.371	3.07
514.57	3.01
514.77	3.05
514.969	3
515.168	3
515.367	3.07
515.567	3.17
515.766	3.27
515.965	3.28
516.164	3.19
516.364	3.23
516.563	3.19
516.762	3.21
516.961	3.13
517.16	3.11
517.359	3.1
517.559	3.08
517.758	3.07
517.957	3.06
518.156	3.08
518.355	3.07
518.554	3.07
518.753	3.1
518.952	3.08
519.151	3.14
519.35	3.22
519.549	3.23
519.748	3.28
519.947	3.21
520.146	3.22
520.345	3.26
520.544	3.24
520.743	3.25
520.942	3.15
521.141	3.22
521.339	3.29
521.538	3.23
521.737	3.29
521.936	3.2
522.135	3.23
522.333	3.25
522.532	3.17
522.731	3.26
522.93	3.25
523.129	3.32
523.327	3.28
523.526	3.21
523.725	3.23
523.923	3.15
524.122	3.2
524.321	3.17
524.519	3.15
524.718	3.21
524.917	3.2
525.115	3.2
525.314	3.24
525.512	3.28
525.711	3.29
525.909	3.31
526.108	3.36
526.306	3.35
526.505	3.4
526.703	3.4
526.902	3.38
527.1	3.39
527.299	3.4
527.497	3.36
527.696	3.36
527.894	3.38
528.092	3.4
528.291	3.43
528.489	3.45
528.688	3.47
528.886	3.52
529.084	3.57
529.283	3.61
529.481	3.64
529.679	3.7
529.877	3.71
530.076	3.8
530.274	3.83
530.472	3.81
530.67	3.83
530.869	3.8
531.067	3.78
531.265	3.82
531.463	3.85
531.661	3.83
531.859	3.84
532.057	3.87
532.255	3.85
532.454	3.85
532.652	3.84
532.85	3.85
533.048	3.89
533.246	3.9
533.444	3.86
533.642	3.89
533.84	3.96
534.038	3.97
534.236	4
534.434	4
534.632	4.01
534.83	4.12
535.027	4.16
535.225	4.18
535.423	4.21
535.621	4.28
535.819	4.22
536.017	4.22
536.215	4.31
536.412	4.33
536.61	4.36
536.808	4.41
537.006	4.4
537.203	4.45
537.401	4.52
537.599	4.56
537.797	4.61
537.994	4.79
538.192	4.83
538.39	4.78
538.587	4.78
538.785	4.81
538.983	4.82
539.18	4.84
539.378	4.84
539.575	4.83
539.773	4.87
539.97	4.82
540.168	4.73
540.366	4.74
540.563	4.76
540.761	4.76
540.958	4.8
541.155	4.81
541.353	4.81
541.55	4.81
541.748	4.81
541.945	4.81
542.143	4.87
542.34	4.96
542.537	5.01
542.735	5.09
542.932	5.2
543.129	5.27
543.327	5.32
543.524	5.4
543.721	5.51
543.919	5.61
544.116	5.71
544.313	5.78
544.51	5.81
544.708	5.86
544.905	5.81
545.102	5.78
545.299	5.77
545.496	5.81
545.693	5.78
545.891	5.84
546.088	5.85
546.285	5.78
546.482	5.83
546.679	5.94
546.876	5.92
547.073	6.03
547.27	6.14
547.467	6.25
547.664	6.3
547.861	6.47
548.058	6.47
548.255	6.51
548.452	6.64
548.649	6.64
548.846	6.61
549.043	6.66
549.24	6.66
549.437	6.77
549.633	6.8
549.83	6.89
550.027	6.91
550.224	6.99
550.421	7.12
550.618	7.13
550.814	7.18
551.011	7.35
551.208	7.5
551.405	7.6
551.601	7.56
551.798	7.52
551.995	7.54
552.191	7.51
552.388	7.58
552.585	7.63
552.781	7.81
552.978	7.88
553.175	7.84
553.371	7.88
553.568	7.98
553.764	8.02
553.961	8.13
554.157	8.24
554.354	8.38
554.55	8.32
554.747	8.3
554.943	8.2
555.14	8.2
555.336	8.36
555.533	8.36
555.729	8.42
555.926	8.48
556.122	8.52
556.318	8.59
556.515	8.75
556.711	8.78
556.907	8.85
557.104	9
557.3	9.1
557.496	9.1
557.693	9.19
557.889	9.22
558.085	9.34
558.281	9.38
558.478	9.38
558.674	9.33
558.87	9.59
559.066	9.58
559.262	9.57
559.459	9.59
559.655	9.63
559.851	9.59
560.047	9.63
560.243	9.64
560.439	9.75
560.635	9.77
560.831	9.83
561.027	9.72
561.223	9.85
561.419	9.98
561.615	10.07
561.811	10.1
562.007	10.22
562.203	10.2
562.399	10.44
562.595	10.52
562.791	10.72
562.987	10.78
563.183	11.06
563.379	11.12
563.575	11.19
563.771	11.28
563.966	11.36
564.162	11.51
564.358	11.61
564.554	11.67
564.75	11.72
564.945	11.76
565.141	11.76
565.337	11.81
565.533	11.9
565.728	11.85
565.924	11.87
566.12	11.98
566.315	12.03
566.511	12.12
566.707	12.09
566.902	12.04
567.098	12.04
567.293	12.23
567.489	12.17
567.684	12.24
567.88	12.38
568.076	12.44
568.271	12.48
568.467	12.54
568.662	12.59
568.858	12.7
569.053	12.89
569.248	12.95
569.444	12.97
569.639	13.06
569.835	13.07
570.03	13.09
570.225	13.15
570.421	13.16
570.616	13.08
570.812	13.04
571.007	13.08
571.202	13.11
571.397	13.14
571.593	13.2
571.788	13.22
571.983	13.24
572.178	13.29
572.374	13.45
572.569	13.51
572.764	13.72
572.959	13.91
573.154	13.92
573.35	13.9
573.545	13.95
573.74	14.04
573.935	14.09
574.13	14.15
574.325	14.3
574.52	14.23
574.715	14.23
574.91	14.23
575.105	14.23
575.3	14.22
575.495	14.3
575.69	14.4
575.885	14.3
576.08	14.39
576.275	14.43
576.47	14.42
576.665	14.46
576.86	14.55
577.055	14.42
577.25	14.45
577.444	14.51
577.639	14.66
577.834	14.6
578.029	14.71
578.224	14.72
578.418	14.95
578.613	15.04
578.808	15.01
579.003	15.12
579.197	15.3
579.392	15.28
579.587	15.41
579.781	15.43
579.976	15.61
580.171	15.68
580.365	15.65
580.56	15.65
580.755	15.62
580.949	15.76
581.144	15.81
581.338	15.89
581.533	16.11
581.727	16.3
581.922	16.28
582.116	16.29
582.311	16.4
582.505	16.62
582.7	16.55
582.894	16.7
583.089	16.72
583.283	16.72
583.478	16.9
583.672	16.88
583.866	16.78
584.061	16.78
584.255	16.66
584.449	16.53
584.644	16.56
584.838	16.46
585.032	16.43
585.226	16.52
585.421	16.47
585.615	16.4
585.809	16.36
586.003	16.37
586.198	16.45
586.392	16.65
586.586	16.84
586.78	16.75
586.974	17.05
587.168	17.17
587.363	17.2
587.557	17.22
587.751	17.31
587.945	17.43
588.139	17.5
588.333	17.52
588.527	17.48
588.721	17.52
588.915	17.67
589.109	17.51
589.303	17.48
589.497	17.54
589.691	17.56
589.885	17.5
590.079	17.39
590.273	17.35
590.466	17.47
590.66	17.48
590.854	17.42
591.048	17.27
591.242	17.39
591.436	17.39
591.629	17.4
591.823	17.5
592.017	17.42
592.211	17.5
592.404	17.63
592.598	17.52
592.792	17.62
592.986	17.7
593.179	17.77
593.373	17.75
593.567	17.81
593.76	17.87
593.954	17.84
594.147	18
594.341	17.96
594.535	17.88
594.728	17.87
594.922	17.72
595.115	17.54
595.309	17.54
595.502	17.58
595.696	17.57
595.889	17.52
596.083	17.62
596.276	17.6
596.47	17.64
596.663	17.74
596.856	17.75
597.05	17.88
597.243	18.05
597.437	18.17
597.63	18.27
597.823	18.33
598.017	18.37
598.21	18.39
598.403	18.4
598.596	18.45
598.79	18.34
598.983	18.55
599.176	18.55
599.369	18.62
599.563	18.57
599.756	18.52
599.949	18.47
600.142	18.46
600.335	18.4
600.528	18.29
600.722	18.42
600.915	18.47
601.108	18.42
601.301	18.56
601.494	18.53
601.687	18.51
601.88	18.37
602.073	18.4
602.266	18.3
602.459	18.31
602.652	18.52
602.845	18.43
603.038	18.49
603.231	18.46
603.424	18.41
603.617	18.3
603.809	18.31
604.002	18.29
604.195	18.3
604.388	18.43
604.581	18.4
604.774	18.33
604.966	18.34
605.159	18.28
605.352	18.24
605.545	18.21
605.737	18.36
605.93	18.34
606.123	18.63
606.316	18.69
606.508	18.66
606.701	18.76
606.894	18.75
607.086	18.85
607.279	18.95
607.471	18.93
607.664	19.04
607.857	19.03
608.049	19.13
608.242	19.14
608.434	19.12
608.627	19.21
608.819	19.18
609.012	19.12
609.204	19.21
609.397	19.1
609.589	19.12
609.782	19.19
609.974	19.26
610.166	19.4
610.359	19.36
610.551	19.3
610.743	19.2
610.936	19.29
611.128	19.32
611.32	19.06
611.513	19.2
611.705	19.24
611.897	19.18
612.09	19.09
612.282	18.91
612.474	18.96
612.666	19.03
612.858	19.21
613.051	19.18
613.243	19.31
613.435	19.46
613.627	19.44
613.819	19.56
614.011	19.66
614.203	19.8
614.395	19.78
614.588	19.56
614.78	19.44
614.972	19.3
615.164	19.18
615.356	19.08
615.548	19.03
615.74	19.06
615.932	19
616.124	18.86
616.315	18.85
616.507	19.02
616.699	19.12
616.891	19.2
617.083	19.55
617.275	19.6
617.467	19.63
617.659	19.77
617.85	19.67
618.042	19.68
618.234	19.63
618.426	19.49
618.618	19.16
618.809	19.17
619.001	19.1
619.193	18.85
619.384	19.05
619.576	19.04
619.768	19.05
619.959	19.11
620.151	19.1
620.343	19.15
620.534	19.12
620.726	19.13
620.917	19.36
621.109	19.54
621.301	19.53
621.492	19.44
621.684	19.5
621.875	19.45
622.067	19.48
622.258	19.5
622.45	19.43
622.641	19.51
622.832	19.69
623.024	19.32
623.215	19.38
623.407	19.39
623.598	19.42
623.789	19.41
623.981	19.39
624.172	19.45
624.363	19.42
624.555	19.51
624.746	19.6
624.937	19.55
625.129	19.67
625.32	19.55
625.511	19.68
625.702	19.64
625.893	19.52
626.085	19.56
626.276	19.53
626.467	19.54
626.658	19.61
626.849	19.55
627.04	19.65
627.231	19.58
627.422	19.72
627.614	19.55
627.805	19.6
627.996	19.74
628.187	19.66
628.378	19.64
628.569	19.68
628.76	19.62
628.951	19.63
629.142	19.51
629.332	19.54
629.523	19.47
629.714	19.66
629.905	19.56
630.096	19.54
630.287	19.46
630.478	19.36
630.669	19.32
630.859	19.43
631.05	19.47
631.241	19.54
631.432	19.81
631.623	19.78
631.813	19.52
632.004	19.5
632.195	19.61
632.385	19.75
632.576	20.05
632.767	20.09
632.957	20.12
633.148	20.1
633.339	20.02
633.529	19.99
633.72	19.95
633.91	20.22
634.101	20.38
634.292	20.39
634.482	20.34
634.673	20.17
634.863	20.15
635.054	19.89
635.244	19.79
635.435	20.05
635.625	19.96
635.815	20.03
636.006	20.01
636.196	19.79
636.387	19.71
636.577	19.76
636.767	19.94
636.958	20.11
637.148	20.21
637.338	20.33
637.529	20.21
637.719	20.2
637.909	20.25
638.099	20.15
638.29	20.21
638.48	20.37
638.67	20.38
638.86	20.19
639.05	20.13
639.241	20.2
639.431	20.45
639.621	20.5
639.811	20.61
640.001	20.57
640.191	20.62
640.381	20.76
640.571	20.52
640.761	20.53
640.951	20.51
641.141	20.43
641.331	20.35
641.521	20.08
641.711	20.05
641.901	19.96
642.091	20
642.281	19.92
642.471	19.9
642.661	20.1
642.851	19.98
643.041	20.12
643.231	20.22
643.42	20.37
643.61	20.45
643.8	20.62
643.99	20.55
644.18	20.52
644.369	20.37
644.559	20.63
644.749	20.63
644.939	20.84
645.128	20.71
645.318	20.81
645.508	20.81
645.697	20.68
645.887	20.57
646.076	20.6
646.266	20.55
646.456	20.65
646.645	20.33
646.835	20.34
647.024	20.26
647.214	20.34
647.403	20.21
647.593	20.08
647.782	20.28
647.972	20.36
648.161	20.29
648.351	20.41
648.54	20.48
648.73	20.56
648.919	20.61
649.108	20.67
649.298	20.67
649.487	20.8
649.677	20.83
649.866	20.71
650.055	20.65
650.244	20.8
650.434	20.5
650.623	20.48
650.812	20.47
651.002	20.23
651.191	20.22
651.38	20.34
651.569	20.04
651.758	20.06
651.947	20.2
652.137	20.04
652.326	19.96
652.515	20.22
652.704	20.34
652.893	20.23
653.082	20.35
653.271	20.3
653.46	20.12
653.649	20.36
653.838	20.43
654.027	20.42
654.216	20.6
654.405	20.52
654.594	20.47
654.783	20.37
654.972	20.5
655.161	20.63
655.35	20.51
655.539	20.43
655.728	20.27
655.916	20.33
656.105	20.16
656.294	20.09
656.483	20.13
656.672	20.1
656.86	19.91
657.049	19.96
657.238	19.88
657.427	19.97
657.615	20.11
657.804	20.11
657.993	20.11
658.181	20.12
658.37	20.17
658.559	20.31
658.747	20.41
658.936	20.44
659.125	20.27
659.313	20.25
659.502	20.24
659.69	20.24
659.879	20.45
660.067	20.32
660.256	20.32
660.444	20.3
660.633	20.15
660.821	19.96
661.01	20.16
661.198	20.29
661.387	20.49
661.575	20.38
661.763	20.34
661.952	20.24
662.14	20.39
662.328	20.25
662.517	20.27
662.705	20.38
662.893	20.71
663.082	20.56
663.27	20.62
663.458	20.46
663.646	20.6
663.834	20.35
664.023	20.18
664.211	19.94
664.399	20.19
664.587	20.19
664.775	20.14
664.963	19.96
665.152	20.03
665.34	20.49
665.528	20.34
665.716	20.36
665.904	20.53
666.092	20.47
666.28	20.46
666.468	20.39
666.656	20.53
666.844	20.66
667.032	20.66
667.22	20.73
667.408	20.46
667.596	20.77
667.784	20.96
667.971	20.98
668.159	20.98
668.347	21.05
668.535	21.2
668.723	21.03
668.911	20.78
669.098	20.77
669.286	20.68
669.474	20.57
669.662	20.38
669.849	20.2
670.037	20.13
670.225	20.33
670.413	20.48
670.6	20.22
670.788	20.39
670.976	20.36
671.163	20.45
671.351	20.46
671.538	20.35
671.726	20.55
671.913	20.36
672.101	20.63
672.289	20.56
672.476	20.37
672.664	20.64
672.851	20.71
673.039	21.03
673.226	20.99
673.413	20.91
673.601	21.09
673.788	21.17
673.976	21.17
674.163	21.16
674.35	21.28
674.538	21.44
674.725	21.26
674.912	21.04
675.1	21.14
675.287	21.08
675.474	21.16
675.662	21.1
675.849	20.72
676.036	20.82
676.223	20.62
676.411	20.67
676.598	20.59
676.785	20.67
676.972	20.78
677.159	20.47
677.346	20.58
677.533	20.98
677.721	20.83
677.908	20.92
678.095	21.07
678.282	21.28
678.469	21.21
678.656	21.37
678.843	21.42
679.03	21.2
679.217	21.27
679.404	21.14
679.591	20.83
679.778	20.99
679.964	20.89
680.151	20.8
680.338	20.67
680.525	20.71
680.712	20.57
680.899	20.67
681.086	20.79
681.272	20.84
681.459	21.05
681.646	21.15
681.833	21.06
682.02	21.24
682.206	21.3
682.393	21.44
682.58	21.42
682.766	21.22
682.953	20.82
683.14	20.7
683.326	20.66
683.513	20.68
683.7	20.62
683.886	20.38
684.073	20.3
684.259	20.31
684.446	20.34
684.632	20.17
684.819	20.52
685.005	20.91
685.192	21
685.378	20.84
685.565	20.79
685.751	20.76
685.938	21.14
686.124	21.26
686.31	21.04
686.497	21.02
686.683	21.12
686.87	20.95
687.056	21.01
687.242	20.91
687.429	20.99
687.615	20.81
687.801	20.88
687.987	20.7
688.174	20.56
688.36	20.99
688.546	21.09
688.732	21.2
688.918	21.41
689.105	21.15
689.291	21.19
689.477	21.26
689.663	21.15
689.849	21
690.035	21.17
690.221	21.33
690.407	21.21
690.593	21.16
690.779	21.21
690.965	21.13
691.151	21.14
691.337	21.05
691.523	21.53
691.709	21.81
691.895	21.93
692.081	21.77
692.267	21.82
692.453	21.59
692.639	21.63
692.825	21.41
693.011	21.48
693.196	21.69
693.382	21.66
693.568	21.17
693.754	21.13
693.94	20.8
694.125	20.75
694.311	20.73
694.497	20.85
694.682	20.37
694.868	20.66
695.054	20.57
695.239	20.84
695.425	21.16
695.611	21.34
695.796	21.4
695.982	21.52
696.168	21.63
696.353	21.55
696.539	21.43
696.724	21.72
696.91	21.7
697.095	21.33
697.281	21
697.466	20.83
697.652	20.79
697.837	20.77
698.023	20.87
698.208	20.79
698.393	20.64
698.579	20.79
698.764	20.68
698.949	20.59
699.135	20.81
699.32	20.85
699.505	20.85
699.691	20.56
699.876	20.28
700.061	20.25
700.246	20.2
700.432	20.46
700.617	20.18
700.802	19.98
700.987	19.63
701.172	19.95
701.358	20.24
701.543	20.29
701.728	20.67
701.913	21.06
702.098	20.81
702.283	21.08
702.468	21.4
702.653	21.55
702.838	21.93
703.023	22.19
703.208	22.18
703.393	22.07
703.578	22.27
703.763	22.01
703.948	21.7
704.133	22.31
704.318	22.29
704.503	21.8
704.688	21.84
704.873	21.52
705.057	21.33
705.242	21.35
705.427	21.32
705.612	21.33
705.797	21.28
705.981	21.33
706.166	21.23
706.351	20.88
706.536	20.71
706.72	20.68
706.905	20.8
707.09	21.18
707.274	20.82
707.459	20.47
707.644	20.66
707.828	20.64
708.013	20.71
708.197	20.58
708.382	20.77
708.567	21
708.751	21.06
708.936	21.36
709.12	20.93
709.305	21.09
709.489	21.44
709.673	21.09
709.858	21.44
710.042	21.86
710.227	22.01
710.411	21.75
710.596	21.78
710.78	21.83
710.964	21.55
711.149	21.95
711.333	21.46
711.517	21.25
711.702	21.78
711.886	21.9
712.07	21.34
712.254	21.4
712.438	21.41
712.623	21.39
712.807	21.44
712.991	21.67
713.175	21.63
713.359	21.87
713.544	21.88
713.728	21.52
713.912	21.02
714.096	20.96
714.28	20.98
714.464	21.37
714.648	21.57
714.832	21.46
715.016	21.13
715.2	20.84
715.384	21.35
715.568	21.64
715.752	21.49
715.936	21.74
716.12	22.14
716.304	21.82
716.488	21.51
716.671	21.04
716.855	21.34
717.039	21.76
717.223	21.75
717.407	21.06
717.59	21
717.774	21.35
717.958	21.53
718.142	21.75
718.325	22.06
718.509	22.19
718.693	22.92
718.877	22.4
719.06	22.28
719.244	22.5
719.428	22.95
719.611	22.74
719.795	22.57
719.978	22.59
720.162	22.66
720.345	22.8
720.529	22.83
720.713	22.44
720.896	22.74
721.08	22.5
721.263	23.03
721.446	23.02
721.63	23.07
721.813	22.92
721.997	22.61
722.18	22.21
722.364	22.38
722.547	22.55
722.73	22.34
722.914	22.51
723.097	22.83
723.28	22.98
723.464	23.03
723.647	23.56
723.83	23.33
724.013	23.96
724.197	23.91
724.38	23.68
724.563	23.76
724.746	23.88
724.929	24.31
725.112	23.79
725.296	23.59
725.479	23.64
725.662	22.9
725.845	23.43
726.028	22.87
726.211	22.88
726.394	22.8
726.577	22.56
726.76	23.1
726.943	22.85
727.126	22.93
727.309	22.43
727.492	22.17
727.675	22.53
727.858	22.78
728.041	23.01
728.224	23
728.407	22.78
728.589	22.75
728.772	22.48
728.955	22.32
729.138	22.47
729.321	22.29
729.503	22.78
729.686	22.7
729.869	22.41
730.052	22.11
730.234	22.19
730.417	22.04
730.6	22.46
730.782	22.34
730.965	22.44
731.148	22.61
731.33	22.81
731.513	23
731.695	22.62
731.878	22.57
732.061	22.47
732.243	22.44
732.426	22.53
732.608	22.62
732.791	22.73
732.973	22.33
733.156	22.36
733.338	22.53
733.52	21.82
733.703	22.46
733.885	22.61
734.068	22.76
734.25	22.66
734.432	22.67
734.615	22.11
734.797	21.65
734.979	21.9
735.162	21.94
735.344	21.77
735.526	21.8
735.708	21.19
735.891	21.08
736.073	21.24
736.255	20.96
736.437	20.8
736.619	20.72
736.802	20.77
736.984	20.83
737.166	20.95
737.348	21.22
737.53	21.36
737.712	21.16
737.894	20.82
738.076	20.58
738.258	20.76
738.44	20.88
738.622	20.72
738.804	20.63
738.986	20.79
739.168	20.3
739.35	19.87
739.532	20.23
739.714	21.33
739.896	21.31
740.078	21.21
740.259	21.33
740.441	21.99
740.623	22.47
740.805	22.69
740.987	22.34
741.168	22.59
741.35	22.91
741.532	22.98
741.714	22.4
741.895	22.69
742.077	23.09
742.259	22.79
742.44	22.41
742.622	22.1
742.804	22.06
742.985	22.31
743.167	22.46
743.348	22.36
743.53	22.37
743.711	22.2
743.893	22.51
744.075	22.77
744.256	23.38
744.438	24.38
744.619	24.82
744.8	25.02
744.982	24.57
745.163	24.73
745.345	24.48
745.526	23.89
745.707	24.23
745.889	23.99
746.07	23.93
746.252	24.43
746.433	23.76
746.614	23.56
746.795	23.31
746.977	23.91
747.158	24.03
747.339	24.62
747.52	24.73
747.702	24.58
747.883	24.31
748.064	24.58
748.245	24.01
748.426	23.24
748.607	23.27
748.788	23.26
748.97	23.35
749.151	22.7
749.332	22.89
749.513	23.11
749.694	23.12
749.875	23.39
750.056	22.62
750.237	21.64
750.418	22.34
750.599	22.59
750.78	22.92
750.96	22.51
751.141	22.81
751.322	22.7
751.503	22.2
751.684	22.65
751.865	22.75
752.046	23.35
752.226	24.56
752.407	24.66
752.588	24.05
752.769	24.42
752.949	24.2
753.13	23.71
753.311	23.02
753.492	23.21
753.672	22.58
753.853	21.83
754.034	21.53
754.214	21.12
754.395	20.6
754.575	20.96
754.756	21.22
754.937	21.81
755.117	22.27
755.298	22.78
755.478	22.59
755.659	22.88
755.839	24.15
756.02	24.31
756.2	24.39
756.381	24.48
756.561	24.42
756.741	23.93
756.922	23.41
757.102	23.93
757.283	23.98
757.463	24.1
757.643	24.08
757.823	23.32
758.004	23.4
758.184	23.32
758.364	22.95
758.545	23.14
758.725	22.56
758.905	22.79
759.085	21.96
759.265	22.41
759.446	21.92
759.626	21.28
759.806	21.56
759.986	21.7
760.166	22.01
760.346	22.57
760.526	22.22
760.706	22.77
760.886	23.09
761.066	23.22
761.246	23.22
761.426	23.85
761.606	24.22
761.786	23.49
761.966	23.11
762.146	22.89
762.326	22.97
762.506	22.91
762.686	22.91
762.866	23.13
763.046	23.23
763.225	22.82
763.405	22.62
763.585	22.58
763.765	22.56
763.945	22.63
764.124	22.82
764.304	22.75
764.484	22.78
764.664	22.67
764.843	22.62
765.023	22.7
765.203	22.41
765.382	22.61
765.562	22.62
765.741	23.11
765.921	23.54
766.101	23.69
766.28	23.81
766.46	24.23
766.639	24.33
766.819	23.95
766.998	24.21
767.178	25
767.357	24.96
767.537	25.13
767.716	25.64
767.896	25.66
768.075	25.13
768.254	25.08
768.434	25.26
768.613	26.07
768.792	25.98
768.972	25.25
769.151	25.36
769.33	25.37
769.51	25.66
769.689	25.44
769.868	25.25
770.047	25.5
770.226	25.05
770.406	24.16
770.585	23.2
770.764	23.2
770.943	23.31
771.122	23.27
771.301	23.42
771.48	23.04
771.66	22.59
771.839	23
772.018	22.59
772.197	21.92
772.376	23.12
772.555	23.09
772.734	22.47
772.913	23.35
773.092	22.29
773.271	22.94
773.449	22.98
773.628	23.07
773.807	22.11
773.986	22.69
774.165	22.91
774.344	22.61
774.523	22.73
774.701	23.31
774.88	22.73
775.059	23.15
775.238	21.86
775.417	22.08
775.595	22.56
775.774	22.68
775.953	22.18
776.131	22.89
776.31	22.74
776.489	22.55
776.667	22.83
776.846	23.26
777.025	23.67
777.203	24.45
777.382	24.15
777.56	24.11
777.739	23.82
777.917	24.62
778.096	25.15
778.274	25.65
778.453	25.6
778.631	25.77
778.81	25.58
778.988	25.06
779.166	24.77
779.345	25.79
779.523	24.46
779.702	24.3
779.88	24.42
780.058	23.25
780.237	22.68
780.415	23.23
780.593	22.81
780.771	22.47
780.95	23.19
781.128	22.77
781.306	21.38
781.484	23.25
781.662	24.02
781.841	23.31
782.019	24.27
782.197	23.58
782.375	22.35
782.553	22.99
782.731	22.75
782.909	22.13
783.087	23.38
783.265	24.45
783.443	23.4
783.621	23.49
783.799	23.06
783.977	23.23
784.155	23.81
784.333	25.23
784.511	25.26
784.689	25.1
784.867	25.21
785.045	23.97
785.223	23.33
785.4	22.64
785.578	22
785.756	22.71
785.934	23
786.112	23.65
786.289	22.25
786.467	21.58
786.645	21.23
786.823	21
787	21.26
787.178	20.98
787.356	21.94
787.533	21.81
787.711	20.95
787.889	19.92
788.066	19.57
788.244	20.82
788.421	21
788.599	22.23
788.776	22.8
788.954	23.2
789.131	22.88
789.309	22.9
789.486	23.22
789.664	24.27
789.841	24.33
790.019	24.09
790.196	23.67
790.373	23.84
790.551	24.32
790.728	23.68
790.906	23.98
791.083	24.48
791.26	24.88
791.437	25.12
791.615	25.45
791.792	26.35
791.969	26.61
792.146	26.17
792.324	25.89
792.501	25.14
792.678	25.61
792.855	24.44
793.032	24.55
793.209	24.31
793.387	25.7
793.564	25.78
793.741	26.7
793.918	26.2
794.095	27.36
794.272	27.78
794.449	27.18
794.626	27.57
794.803	27.41
794.98	26.91
795.157	26.29
795.334	24.35
795.511	22.32
795.688	20.76
795.864	21.78
796.041	21.29
796.218	20.08
796.395	20.15
796.572	20.19
796.749	20.86
796.925	21.95
797.102	22.35
797.279	23.31
797.456	24.95
797.632	25.46
797.809	24.57
797.986	25.38
798.162	26.03
798.339	25.8
798.516	24.2
798.692	24.81
798.869	24.47
799.046	24.41
799.222	23.73
799.399	24.04
799.575	24.52
799.752	25.42
799.928	24.95
800.105	25.13
800.281	26.53
800.458	27.44
800.634	26.44
800.811	25.98
800.987	25.83
801.163	26.59
801.34	26.2
801.516	24.85
801.692	25.1
801.869	24.46
802.045	23.98
802.221	24.36
802.398	24.27
802.574	24.45
802.75	24.22
802.926	25.59
803.103	24.88
803.279	24.45
803.455	24.98
803.631	24.21
803.807	24.5
803.983	25.15
804.16	23.88
804.336	24.77
804.512	24.59
804.688	25.5
804.864	23.42
805.04	24.07
805.216	24.64
805.392	25.33
805.568	24.89
805.744	24.43
805.92	24.25
806.096	23.15
806.272	23.29
806.448	23.61
806.623	24.36
806.799	25.51
806.975	25.49
807.151	24.77
807.327	23.67
807.503	23.65
807.678	24.48
807.854	25.23
808.03	25.84
808.206	25.86
808.381	26.16
808.557	24.58
808.733	24.17
808.908	22.92
809.084	24.16
809.26	25.14
809.435	25.63
809.611	26.53
809.787	26.61
809.962	26.87
810.138	25.73
810.313	26.22
810.489	26.83
810.664	26.9
810.84	28.37
811.015	27.34
811.191	25.12
811.366	26.08
811.542	24.55
811.717	23.86
811.892	25.01
812.068	25.63
812.243	24.72
812.419	24.31
812.594	25.09
812.769	24.04
812.944	24.26
813.12	26.3
813.295	26.26
813.47	26.74
813.645	26.65
813.821	25.8
813.996	27.02
814.171	28.16
814.346	28.95
814.521	28.5
814.697	28.66
814.872	28.44
815.047	28.08
815.222	27.87
815.397	27.45
815.572	27.12
815.747	27.31
815.922	27.71
816.097	28.48
816.272	27.58
816.447	28.5
816.622	29.14
816.797	29.79
816.972	29.68
817.147	28.39
817.322	29.91
817.496	30.29
817.671	30.38
817.846	28.08
818.021	26.51
818.196	26.52
818.371	26.02
818.545	25.11
818.72	24.31
818.895	24.33
819.069	25.02
819.244	23.73
819.419	22.89
819.594	22.9
819.768	24.29
819.943	24.64
820.117	25.17
820.292	24.7
820.467	24.62
820.641	23.96
820.816	23.95
820.99	23.49
821.165	23.01
821.339	23.27
821.514	22.89
821.688	22.58
821.863	22.33
822.037	22.01
822.212	21.92
822.386	22
822.56	22.24
822.735	22.42
822.909	22.68
823.084	22.95
823.258	22.97
823.432	23.3
823.606	23.18
823.781	23.25
823.955	23.38
824.129	23.42
824.303	23.42
824.478	23.74
824.652	23.21
824.826	22.69
825	23.02
825.174	22.76
825.348	22.43
825.523	22.66
825.697	22.44
825.871	22.56
826.045	22.68
826.219	22.56
826.393	22.48
826.567	22.76
826.741	23.28
826.915	22.56
827.089	22.69
827.263	23.22
827.437	23.53
827.611	24.05
827.784	23.8
827.958	24.05
828.132	24.41
828.306	24.39
828.48	24.48
828.654	24.6
828.827	24.64
829.001	25.28
829.175	24.87
829.349	25.09
829.522	25.67
829.696	26.31
829.87	26.71
830.044	26.95
830.217	26.56
830.391	27.45
830.565	27.71
830.738	29
830.912	27.99
831.085	27.23
831.259	27.31
831.432	26.86
831.606	26.77
831.779	26
831.953	25.52
832.126	25.5
832.3	24.64
832.473	24.23
832.647	23.98
832.82	24.65
832.994	25.17
833.167	23.89
833.34	23.65
833.514	23.26
833.687	23.49
833.86	23.64
834.034	23.06
834.207	23.17
834.38	23.22
834.553	23.71
834.727	23.01
834.9	22.56
835.073	22.72
835.246	22.89
835.419	24.15
835.593	24.68
835.766	25.08
835.939	26.16
836.112	25.78
836.285	25.55
836.458	25.44
836.631	25.75
836.804	26.32
836.977	27.54
837.15	26.54
837.323	25.17
837.496	23.36
837.669	22.09
837.842	22.09
838.015	23.17
838.188	22.35
838.361	21.13
838.533	21.27
838.706	20.43
838.879	21.14
839.052	22.06
839.225	24.22
839.398	24.87
839.57	26.64
839.743	25.79
839.916	24.38
840.088	25.39
840.261	27.09
840.434	27.55
840.607	28.85
840.779	28
840.952	28.53
841.124	25.37
841.297	26.89
841.47	25.87
841.642	27.92
841.815	29.93
841.987	30.16
842.16	28.9
842.332	28.73
842.505	28.81
842.677	29.08
842.85	28.07
843.022	28.17
843.194	27.3
843.367	27.37
843.539	25.34
843.712	23.89
843.884	24.01
844.056	25.12
844.229	24.7
844.401	25.51
844.573	24.68
844.745	24.22
844.918	27.58
845.09	27.16
845.262	26.27
845.434	25.35
845.606	30.02
845.779	28.11
845.951	28.15
846.123	28.77
846.295	29
846.467	28.54
846.639	31.55
846.811	28.45
846.983	28.6
847.155	31.01
847.327	36.96
847.499	34.24
847.671	36.73
847.843	33.9
848.015	37.45
848.187	36.26
848.359	38.83
848.531	40.04
848.703	44.64
848.875	44.56
849.047	43.54
849.218	39.64
849.39	39.31
849.562	42.27
849.734	44.87
849.905	41.13
850.077	40.75
850.249	39.25
850.421	38.33
850.592	37.76
850.764	40.01
850.936	39.74
851.107	42.11
851.279	43.29
851.451	42.39
851.622	42.92
851.794	45.6
851.965	46.55
852.137	46.68
852.308	45.53
852.48	48.64
852.651	46.53
852.823	48.42
852.994	46.99
853.166	46.47
853.337	45
853.509	45.41
853.68	43.37
853.851	41.87
854.023	43.19
854.194	44.44
854.365	40.89
854.537	41.92
854.708	40.32
854.879	39.2
855.05	38.29
855.222	38.51
855.393	34.79
855.564	35.25
855.735	37.82
855.906	38.3
856.078	36.47
856.249	32.81
856.42	31.63
856.591	32.21
856.762	34.54
856.933	31.35
857.104	32.7
857.275	32.41
857.446	34.78
857.617	29.76
857.788	28.46
857.959	28.55
858.13	32.03
858.301	33.69
858.472	32.36
858.643	33.44
858.814	35.99
858.985	31.66
859.155	34.92
859.326	36.24
859.497	41.64
859.668	39.08
859.839	39.29
860.009	32.7
860.18	28.62
860.351	30.9
860.522	25.27
860.692	23.69
860.863	28.75
861.034	27.61
861.204	27.16
861.375	28.01
861.546	33.73
861.716	34.56
861.887	40.06
862.057	40.84
862.228	44.39
862.398	48.28
862.569	50.07
862.739	53.98
862.91	51.25
863.08	48.84
863.251	47.12
863.421	48.32
863.592	46.28
863.762	45.14
863.932	46.78
864.103	37.41
864.273	34.58
864.443	36.02
864.614	29.82
864.784	31.78
864.954	32.74
865.125	33.51
865.295	33.33
865.465	34.79
865.635	33.99
865.805	35.17
865.976	40.04
866.146	40.82
866.316	40.91
866.486	42.05
866.656	39.98
866.826	37.56
866.996	36.19
867.166	33.17
867.336	34.37
867.506	35.13
867.676	31.01
867.846	28.85
868.016	28.18
868.186	29.94
868.356	30.39
868.526	30.93
868.696	28.23
868.866	30.87
869.036	29.91
869.206	25.19
869.376	26.88
869.545	25.6
869.715	25.41
869.885	28.01
870.055	27.78
870.224	34.81
870.394	37.42
870.564	41.39
870.734	40.09
870.903	38.64
871.073	42.46
871.243	38.86
871.412	44.04
871.582	46.3
871.751	42.36
871.921	42.96
872.091	36.52
872.26	32.67
872.43	34.09
872.599	35.68
872.769	38.33
872.938	36.62
873.108	38.02
873.277	36.14
873.446	33.88
873.616	36.58
873.785	36.06
873.955	33.77
874.124	39.59
874.293	39.02
874.463	38.54
874.632	42.63
874.801	42.79
874.971	43.74
875.14	41.94
875.309	39.9
875.478	40.07
875.647	40.84
875.817	42.39
875.986	41.81
876.155	39.58
876.324	39.15
876.493	37.67
876.662	37.39
876.831	36.05
877	40.03
877.17	43.33
877.339	42.01
877.508	42.56
877.677	42.51
877.846	39.63
878.015	38.66
878.184	35.15
878.352	32.95
878.521	30.72
878.69	32.6
878.859	31.5
879.028	31.07
879.197	30.84
879.366	28.71
879.534	29.3
879.703	30.69
879.872	28.61
880.041	28.67
880.21	26.09
880.378	27.14
880.547	26.94
880.716	25.33
880.884	25.04
881.053	24.59
881.222	24.44
881.39	24.71
881.559	23.34
881.727	24.54
881.896	24.69
882.065	25.15
882.233	24.72
882.402	24.69
882.57	24.56
882.739	24.48
882.907	24.87
883.076	24.82
883.244	24.14
883.412	25.12
883.581	24.78
883.749	24.31
883.918	24.85
884.086	25.15
884.254	24.73
884.423	25.78
884.591	26.2
884.759	26.52
884.927	27.67
885.096	28.73
885.264	28.86
885.432	29.89
885.6	30.61
885.769	29.35
885.937	29.28
886.105	30.04
886.273	29.86
886.441	30.28
886.609	28.98
886.777	28.97
886.945	29.41
887.113	27.96
887.281	27.21
887.449	28.28
887.617	31.33
887.785	33.3
887.953	34.67
888.121	37.78
888.289	41.43
888.457	45.38
888.625	45.04
888.793	45.92
888.961	47.9
889.129	50.04
889.296	50.12
889.464	51.73
889.632	53.14
889.8	53.82
889.967	52.28
890.135	47.24
