Data from 2938563_Reflection_2.txt Node
Date: Sun Jun 14 23:10:54 EDT 2015
User: robert
Spectrometer: USB4E03002
Autoset integration time: false
Trigger mode: 4
Integration Time (sec): 1.000000E-1
Scans to average: 10
Electric dark correction enabled: true
Nonlinearity correction enabled: false
Boxcar width: 5
Stray light correction enabled: false
XAxis mode: Wavelengths
Stop averaging: false
Number of Pixels in Spectrum: 3648
>>>>>Begin Spectral Data<<<<<
177.575	399.55
177.794	-83.09
178.014	428.72
178.233	-304.62
178.452	-11.61
178.672	116.73
178.891	-5.08
179.11	232.29
179.33	117.2
179.549	104.46
179.768	114.01
179.987	124.64
180.207	83.78
180.426	106.24
180.645	191.12
180.864	161.93
181.084	96.51
181.303	88.14
181.522	89.21
181.741	89.99
181.96	55.46
182.179	72.18
182.398	127.29
182.618	273.2
182.837	121.43
183.056	63.21
183.275	50.29
183.494	79.18
183.713	62.11
183.932	72.35
184.151	89.23
184.37	119.34
184.589	208.93
184.808	199.64
185.027	107.61
185.246	-67.69
185.465	-131.29
185.684	-132.2
185.903	11.18
186.122	514.93
186.341	133.58
186.56	149.19
186.779	242.63
186.998	70.97
187.216	54.89
187.435	82.93
187.654	98.72
187.873	99.76
188.092	169.74
188.311	383.62
188.53	440.68
188.748	-608.76
188.967	-248.93
189.186	-696.13
189.405	-1469.94
189.623	-1063.16
189.842	-6460.32
190.061	-895.73
190.28	-1063.31
190.498	286.29
190.717	121.94
190.936	105.95
191.154	94.85
191.373	117.84
191.592	180.58
191.81	129.17
192.029	236.88
192.248	232.19
192.466	310.39
192.685	147.72
192.904	60.55
193.122	-43.22
193.341	1112.2
193.559	126.5
193.778	-174.32
193.996	-158.6
194.215	-81.11
194.433	-26.78
194.652	22.21
194.87	15.61
195.089	46.93
195.307	6.64
195.526	72.8
195.744	63.94
195.963	79.76
196.181	93.37
196.399	72.73
196.618	34.49
196.836	-17.59
197.055	-23.97
197.273	-41.63
197.491	-284.73
197.71	-54.67
197.928	4.1
198.146	17.91
198.365	-98.36
198.583	-118.73
198.801	54.35
199.019	209.04
199.238	740.55
199.456	240.85
199.674	259.47
199.892	221.3
200.111	186.97
200.329	376.62
200.547	298.05
200.765	213.38
200.983	150.68
201.202	140.39
201.42	94.08
201.638	44.67
201.856	29.89
202.074	61.82
202.292	60.1
202.51	63.18
202.728	69.17
202.946	62.7
203.165	55.26
203.383	30.71
203.601	151.81
203.819	-112.5
204.037	-2157.94
204.255	-305.99
204.473	-154.41
204.691	-31.73
204.909	-96.7
205.127	-159.44
205.345	-347.65
205.562	-351.72
205.78	-713.04
205.998	1007.63
206.216	-5321.84
206.434	-6128.74
206.652	-411.78
206.87	-571.08
207.088	6308.26
207.306	-7282
207.523	-284.23
207.741	-75.88
207.959	-46.05
208.177	-58.06
208.395	-92.1
208.612	-101.65
208.83	-68.74
209.048	-51.03
209.266	-36.03
209.483	-35.37
209.701	-12.35
209.919	-32.26
210.136	-48.06
210.354	-47.84
210.572	-81.73
210.79	-102.64
211.007	-225.57
211.225	-958.44
211.442	279.5
211.66	130.8
211.878	44.01
212.095	125.98
212.313	121.88
212.53	106.71
212.748	79.89
212.966	74.8
213.183	71.94
213.401	74.85
213.618	56.75
213.836	60.79
214.053	53.82
214.271	52.53
214.488	-72.45
214.705	-10.56
214.923	-17.24
215.14	0.34
215.358	-14.24
215.575	-1.4
215.793	5.99
216.01	-3.35
216.227	11.51
216.445	60.73
216.662	48.8
216.879	43.25
217.097	-36.03
217.314	-17.39
217.531	-22.55
217.749	-33.86
217.966	-77.34
218.183	-137.29
218.4	-21.98
218.618	-44.45
218.835	-31.57
219.052	-20.28
219.269	-12.67
219.487	-2.79
219.704	-7.28
219.921	-11.53
220.138	6.98
220.355	13.41
220.572	13.06
220.79	-8.81
221.007	3.6
221.224	-8.64
221.441	-8.23
221.658	-15.12
221.875	-11.85
222.092	-7.76
222.309	-4.95
222.526	-9.73
222.743	-5.91
222.96	-7.66
223.177	-3.62
223.394	-11.35
223.611	-3.06
223.828	-5.29
224.045	-0.81
224.262	-0.27
224.479	3.6
224.696	5.64
224.913	2.36
225.13	-2.02
225.347	1.41
225.564	2.14
225.781	4.01
225.997	5.71
226.214	7.24
226.431	4.97
226.648	4.99
226.865	3.67
227.082	3.54
227.298	3.39
227.515	5.48
227.732	5.6
227.949	4.74
228.165	5.16
228.382	3.58
228.599	2.27
228.816	3.61
229.032	2.72
229.249	3.52
229.466	3.76
229.682	4
229.899	2.43
230.116	1.68
230.332	1.11
230.549	1.22
230.765	-0.28
230.982	-2.77
231.199	-2.32
231.415	-1.76
231.632	-3.15
231.848	-2.41
232.065	-2.89
232.281	-3.03
232.498	-2.42
232.714	-0.87
232.931	-2.51
233.147	2.42
233.364	6.35
233.58	4.4
233.797	5.48
234.013	5.26
234.23	4.1
234.446	4.63
234.662	4.15
234.879	2.58
235.095	1.58
235.312	2.27
235.528	-0.07
235.744	-0.12
235.961	0.95
236.177	1.81
236.393	1.72
236.61	1.19
236.826	1.39
237.042	1.69
237.258	1.75
237.475	3.44
237.691	4.7
237.907	3.72
238.123	2.62
238.339	3.07
238.556	1.28
238.772	-0.08
238.988	0.62
239.204	1.79
239.42	1.73
239.636	2.85
239.853	3.38
240.069	2.66
240.285	3.11
240.501	3.43
240.717	3.88
240.933	3.83
241.149	5.49
241.365	5.79
241.581	5.76
241.797	6.47
242.013	6.86
242.229	6.35
242.445	6.44
242.661	6.9
242.877	7.09
243.093	6.86
243.309	7.53
243.525	5.86
243.741	5.2
243.957	4.22
244.173	3.87
244.388	3.25
244.604	3.43
244.82	3.82
245.036	3.73
245.252	3.43
245.468	3.37
245.683	3.36
245.899	3.67
246.115	3.98
246.331	3.95
246.547	4.26
246.762	4.56
246.978	4.71
247.194	4.47
247.409	4.52
247.625	4.5
247.841	4.21
248.057	4.06
248.272	3.83
248.488	3.52
248.703	4.27
248.919	3.7
249.135	2.85
249.35	2.84
249.566	2.53
249.782	2.12
249.997	2.88
250.213	2.89
250.428	3.58
250.644	4.21
250.859	4.67
251.075	4.19
251.29	4.6
251.506	5.37
251.721	4.12
251.937	4.38
252.152	4.87
252.368	4.62
252.583	4.92
252.798	3.17
253.014	2.44
253.229	1.31
253.445	0.97
253.66	0.27
253.875	-0.71
254.091	-0.69
254.306	-1.02
254.521	-1.58
254.737	-1.25
254.952	-0.9
255.167	-0.66
255.383	0.46
255.598	0.99
255.813	1.09
256.028	1.01
256.244	1.72
256.459	2.84
256.674	2.94
256.889	3.16
257.104	3.04
257.32	3.03
257.535	3.36
257.75	3.3
257.965	3.04
258.18	3.03
258.395	3.05
258.61	2.73
258.826	2.7
259.041	2.41
259.256	2.24
259.471	2
259.686	1.72
259.901	1.78
260.116	1.13
260.331	1.14
260.546	1.28
260.761	1.39
260.976	1.35
261.191	0.88
261.406	1.28
261.621	1.37
261.836	2.1
262.05	2.63
262.265	2.23
262.48	2.69
262.695	2.2
262.91	1.56
263.125	0.96
263.34	1.02
263.555	0.74
263.769	0.55
263.984	0.61
264.199	1.01
264.414	0.99
264.629	1.32
264.843	1.58
265.058	2.04
265.273	2.3
265.488	2.1
265.702	1.89
265.917	2.54
266.132	2.33
266.346	2.47
266.561	1.92
266.776	1.59
266.99	1.53
267.205	1.58
267.42	1.8
267.634	1.9
267.849	2.16
268.063	2.9
268.278	2.74
268.492	2.86
268.707	2.52
268.922	2.39
269.136	2.32
269.351	2.3
269.565	2.47
269.78	2.54
269.994	2.52
270.209	2.54
270.423	2.22
270.637	2.31
270.852	2.71
271.066	2.87
271.281	2.88
271.495	3
271.709	2.94
271.924	2.49
272.138	1.85
272.353	1.54
272.567	2.2
272.781	1.88
272.996	1.72
273.21	1.37
273.424	1.53
273.638	1.45
273.853	1.51
274.067	2.13
274.281	2.15
274.495	2.28
274.71	2.71
274.924	2.09
275.138	2.26
275.352	1.85
275.566	2.08
275.781	2
275.995	2.08
276.209	2.19
276.423	1.8
276.637	1.76
276.851	1.91
277.065	2.08
277.279	2.33
277.493	2.29
277.707	2
277.921	1.8
278.135	1.16
278.349	1.09
278.563	0.86
278.777	0.91
278.991	1.63
279.205	2.02
279.419	1.52
279.633	0.78
279.847	0.96
280.061	1.46
280.275	1.45
280.489	1.9
280.703	1.91
280.917	1.98
281.131	1.6
281.344	1.3
281.558	1.49
281.772	1.65
281.986	2.03
282.2	1.96
282.414	2.18
282.627	2.14
282.841	2.19
283.055	2.46
283.269	2.51
283.482	2.79
283.696	2.55
283.91	2.25
284.123	2.27
284.337	2.23
284.551	2.47
284.764	2.65
284.978	2.62
285.192	2.67
285.405	2.47
285.619	2.63
285.833	2.51
286.046	2.63
286.26	2.45
286.473	2.58
286.687	2.72
286.9	2.65
287.114	2.12
287.327	2.12
287.541	2.08
287.754	2.53
287.968	2.36
288.181	2.96
288.395	3.25
288.608	3.01
288.822	3.06
289.035	2.89
289.248	2.7
289.462	3.16
289.675	3.29
289.889	3.31
290.102	3.09
290.315	2.77
290.529	2.1
290.742	1.57
290.955	2.18
291.169	2.19
291.382	2.65
291.595	3.1
291.808	2.66
292.022	2.5
292.235	2.56
292.448	2.33
292.661	2.56
292.875	2.85
293.088	2.99
293.301	2.99
293.514	3.11
293.727	2.78
293.94	2.73
294.153	2.68
294.367	2.95
294.58	2.86
294.793	3.28
295.006	3.1
295.219	2.91
295.432	3.04
295.645	2.97
295.858	2.83
296.071	2.96
296.284	3.02
296.497	3.23
296.71	2.96
296.923	2.76
297.136	2.64
297.349	2.67
297.562	2.82
297.775	2.9
297.988	2.83
298.201	2.64
298.414	2.59
298.626	2.47
298.839	2.6
299.052	2.82
299.265	3.23
299.478	3.11
299.691	3.77
299.903	3.67
300.116	3.36
300.329	3.39
300.542	3.47
300.755	3.44
300.967	2.95
301.18	3.03
301.393	2.97
301.605	2.9
301.818	2.95
302.031	2.12
302.243	1.81
302.456	2.08
302.669	2.11
302.881	2.83
303.094	3.28
303.307	3.38
303.519	3.1
303.732	3.38
303.944	3.22
304.157	3.24
304.37	3.74
304.582	4.17
304.795	4.02
305.007	4.16
305.22	3.93
305.432	3.25
305.645	3.61
305.857	3.66
306.069	3.25
306.282	3.6
306.494	3.41
306.707	3.36
306.919	3.39
307.132	3.74
307.344	3.54
307.556	3.61
307.769	3.73
307.981	3.51
308.193	3.78
308.406	4.19
308.618	4.02
308.83	4.1
309.043	3.92
309.255	3.65
309.467	3.6
309.679	3.58
309.892	3.68
310.104	3.8
310.316	3.82
310.528	3.67
310.74	3.72
310.953	3.79
311.165	3.64
311.377	3.9
311.589	4.59
311.801	4.56
312.013	5
312.225	4.57
312.437	4.57
312.649	5.25
312.862	5.14
313.074	4.7
313.286	4.64
313.498	4.78
313.71	4.35
313.922	3.73
314.134	3.85
314.346	2.96
314.558	2.84
314.77	2.51
314.982	2.09
315.193	1.82
315.405	1.97
315.617	1.77
315.829	1.91
316.041	2.48
316.253	2.65
316.465	2.28
316.677	2.84
316.888	2.79
317.1	3.44
317.312	2.95
317.524	3.13
317.736	2.63
317.947	3.13
318.159	3.07
318.371	2.68
318.583	2.65
318.794	2.77
319.006	2.66
319.218	3.26
319.43	3.43
319.641	3.88
319.853	3.88
320.064	4.55
320.276	4.25
320.488	4.34
320.699	4.52
320.911	4.77
321.123	4.8
321.334	5.21
321.546	4.88
321.757	4.53
321.969	4.28
322.18	4.21
322.392	4.21
322.603	3.78
322.815	3.55
323.026	3.53
323.238	3.81
323.449	3.62
323.661	3.36
323.872	2.88
324.083	2.56
324.295	2.57
324.506	2.67
324.718	2.73
324.929	2.58
325.14	2.84
325.352	2.86
325.563	2.41
325.774	2.69
325.986	2.51
326.197	3.21
326.408	4.02
326.62	4.09
326.831	4.3
327.042	4.79
327.253	5.57
327.464	5.61
327.676	5.53
327.887	5.21
328.098	5
328.309	5.32
328.52	5.15
328.732	4.16
328.943	4
329.154	3.89
329.365	3.26
329.576	3.16
329.787	2.81
329.998	3.13
330.209	3.28
330.42	3.6
330.631	3.78
330.842	3.69
331.053	3.98
331.264	4.21
331.475	3.94
331.686	3.57
331.897	3.51
332.108	3.5
332.319	3.58
332.53	3.27
332.741	3.36
332.952	3.11
333.163	2.95
333.374	3.05
333.585	3.01
333.795	3.05
334.006	3.59
334.217	3.47
334.428	4.05
334.639	3.64
334.849	4.12
335.06	3.88
335.271	3.84
335.482	4.06
335.692	4.22
335.903	3.8
336.114	3.73
336.325	3.42
336.535	3.37
336.746	2.89
336.957	3.25
337.167	3.38
337.378	3.18
337.589	3.35
337.799	3.36
338.01	3.31
338.22	3.53
338.431	3.83
338.642	3.39
338.852	3.11
339.063	2.96
339.273	2.85
339.484	2.4
339.694	2.29
339.905	2.12
340.115	2.18
340.326	2.1
340.536	2.24
340.746	2.35
340.957	2.71
341.167	3.1
341.378	3.37
341.588	3.55
341.799	3.51
342.009	3.48
342.219	3.48
342.43	3.58
342.64	3.09
342.85	3.14
343.061	2.99
343.271	2.94
343.481	2.93
343.691	3.08
343.902	3.06
344.112	3.29
344.322	3.69
344.532	3.49
344.743	3.33
344.953	3.61
345.163	3.62
345.373	3.5
345.583	3.58
345.793	3.53
346.004	3.17
346.214	2.87
346.424	2.69
346.634	2.58
346.844	2.74
347.054	2.58
347.264	2.96
347.474	3.02
347.684	3.33
347.894	2.94
348.104	2.67
348.314	2.66
348.524	2.32
348.734	2.76
348.944	2.92
349.154	3.12
349.364	3.24
349.574	2.65
349.784	2.7
349.994	2.77
350.204	3.36
350.413	3.31
350.623	3.51
350.833	4.04
351.043	3.77
351.253	4
351.463	3.62
351.672	3.58
351.882	3.98
352.092	4.21
352.302	3.73
352.511	3.51
352.721	3.74
352.931	3.56
353.141	3.42
353.35	3.54
353.56	3.14
353.77	3.38
353.979	3.19
354.189	3.08
354.399	2.68
354.608	2.81
354.818	2.86
355.027	2.98
355.237	3.03
355.447	3.32
355.656	3.55
355.866	3.54
356.075	3.57
356.285	3.85
356.494	3.79
356.704	3.88
356.913	4.06
357.123	3.9
357.332	4.06
357.542	4.03
357.751	3.8
357.96	3.6
358.17	3.78
358.379	3.7
358.589	3.55
358.798	3.75
359.007	3.64
359.217	3.55
359.426	3.7
359.635	3.53
359.845	3.61
360.054	3.53
360.263	3.52
360.472	3.37
360.682	3.45
360.891	3.32
361.1	3.15
361.309	3.23
361.519	3.22
361.728	2.93
361.937	2.96
362.146	2.83
362.355	2.77
362.564	2.83
362.774	2.79
362.983	2.8
363.192	3.04
363.401	3.03
363.61	3.01
363.819	2.99
364.028	3.26
364.237	3.1
364.446	3.15
364.655	3.1
364.864	2.99
365.073	2.95
365.282	2.81
365.491	2.36
365.7	2.71
365.909	2.37
366.118	2.36
366.327	2.53
366.536	2.65
366.745	2.79
366.954	2.88
367.162	2.87
367.371	3.06
367.58	2.98
367.789	3.35
367.998	2.96
368.207	3.08
368.415	3.13
368.624	2.69
368.833	2.48
369.042	2.52
369.25	2.42
369.459	2.62
369.668	2.58
369.877	2.5
370.085	2.47
370.294	2.66
370.503	2.91
370.711	2.73
370.92	3.01
371.129	2.85
371.337	2.58
371.546	2.64
371.754	2.42
371.963	2.58
372.171	2.51
372.38	2.55
372.589	2.54
372.797	2.29
373.006	2.14
373.214	2.21
373.423	2.56
373.631	2.79
373.84	2.72
374.048	2.7
374.256	2.28
374.465	2.17
374.673	2.24
374.882	2.02
375.09	2.18
375.298	2.3
375.507	2.2
375.715	2.15
375.923	1.89
376.132	2.06
376.34	2.04
376.548	2.32
376.757	2.69
376.965	2.74
377.173	2.8
377.381	2.91
377.59	2.94
377.798	3.09
378.006	2.94
378.214	3.12
378.423	3.06
378.631	3.12
378.839	2.96
379.047	2.76
379.255	2.57
379.463	2.48
379.671	2.43
379.879	2.25
380.088	1.89
380.296	2.08
380.504	1.83
380.712	1.9
380.92	2.11
381.128	2.24
381.336	2.33
381.544	2.38
381.752	2.44
381.96	2.17
382.168	2.21
382.376	2.14
382.584	2.03
382.791	2.19
382.999	2.08
383.207	2
383.415	2.01
383.623	2.07
383.831	1.84
384.039	1.89
384.247	1.99
384.454	2.25
384.662	2.5
384.87	2.53
385.078	2.39
385.285	2.29
385.493	1.94
385.701	1.79
385.909	1.84
386.116	2.05
386.324	1.94
386.532	1.75
386.739	1.64
386.947	1.66
387.155	1.71
387.362	1.96
387.57	2.06
387.778	1.87
387.985	1.74
388.193	1.66
388.4	1.51
388.608	1.52
388.816	1.66
389.023	1.5
389.231	1.54
389.438	1.57
389.646	1.47
389.853	1.63
390.061	1.97
390.268	2.09
390.475	2.2
390.683	2.53
390.89	2.4
391.098	2.55
391.305	2.7
391.512	2.52
391.72	2.57
391.927	2.63
392.135	2.55
392.342	2.61
392.549	2.55
392.756	2.52
392.964	2.18
393.171	2.34
393.378	2.07
393.586	1.92
393.793	1.93
394	1.86
394.207	1.84
394.414	1.69
394.622	1.52
394.829	1.53
395.036	1.39
395.243	1.35
395.45	1.3
395.657	1.42
395.864	1.65
396.072	1.88
396.279	1.92
396.486	1.94
396.693	1.86
396.9	1.84
397.107	1.98
397.314	1.98
397.521	2.33
397.728	2.34
397.935	2.38
398.142	2.26
398.349	2.03
398.556	1.94
398.763	1.85
398.97	2.05
399.177	2.15
399.383	2.05
399.59	2.17
399.797	1.98
400.004	1.85
400.211	1.86
400.418	1.9
400.625	1.97
400.831	1.81
401.038	1.69
401.245	1.75
401.452	1.67
401.658	1.65
401.865	1.45
402.072	1.36
402.279	1.47
402.485	1.48
402.692	1.5
402.899	1.55
403.105	1.71
403.312	1.76
403.519	1.57
403.725	1.57
403.932	1.63
404.138	1.48
404.345	1.51
404.552	1.56
404.758	1.56
404.965	1.49
405.171	1.4
405.378	1.46
405.584	1.5
405.791	1.66
405.997	1.8
406.204	1.99
406.41	2.16
406.617	2.47
406.823	2.41
407.029	2.42
407.236	2.42
407.442	2.42
407.649	2.32
407.855	2.41
408.061	2.32
408.268	2.14
408.474	1.8
408.68	1.95
408.887	1.63
409.093	1.67
409.299	1.66
409.505	1.7
409.712	1.83
409.918	1.83
410.124	1.71
410.33	1.63
410.537	1.74
410.743	1.9
410.949	1.92
411.155	1.91
411.361	1.83
411.567	1.66
411.773	1.66
411.98	1.68
412.186	1.65
412.392	1.68
412.598	1.76
412.804	1.59
413.01	1.4
413.216	1.32
413.422	1.36
413.628	1.49
413.834	1.63
414.04	1.59
414.246	1.49
414.452	1.38
414.658	1.24
414.864	1.33
415.07	1.29
415.275	1.35
415.481	1.25
415.687	1.23
415.893	1.28
416.099	1.27
416.305	1.25
416.511	1.18
416.716	1.32
416.922	1.42
417.128	1.37
417.334	1.34
417.539	1.31
417.745	1.31
417.951	1.32
418.157	1.32
418.362	1.33
418.568	1.26
418.774	1.36
418.979	1.32
419.185	1.38
419.391	1.41
419.596	1.55
419.802	1.57
420.008	1.65
420.213	1.58
420.419	1.46
420.624	1.41
420.83	1.48
421.035	1.44
421.241	1.46
421.446	1.37
421.652	1.39
421.857	1.34
422.063	1.34
422.268	1.36
422.474	1.47
422.679	1.54
422.885	1.57
423.09	1.51
423.295	1.5
423.501	1.58
423.706	1.64
423.911	1.58
424.117	1.52
424.322	1.57
424.527	1.57
424.733	1.49
424.938	1.41
425.143	1.42
425.349	1.48
425.554	1.55
425.759	1.4
425.964	1.28
426.169	1.22
426.375	1.27
426.58	1.15
426.785	1.07
426.99	1.16
427.195	1.26
427.4	1.25
427.605	1.32
427.811	1.36
428.016	1.36
428.221	1.41
428.426	1.44
428.631	1.37
428.836	1.43
429.041	1.56
429.246	1.55
429.451	1.6
429.656	1.57
429.861	1.58
430.066	1.48
430.271	1.55
430.476	1.52
430.681	1.52
430.886	1.58
431.09	1.56
431.295	1.37
431.5	1.32
431.705	1.33
431.91	1.22
432.115	1.24
432.32	1.16
432.524	1.22
432.729	1.3
432.934	1.3
433.139	1.27
433.343	1.34
433.548	1.33
433.753	1.29
433.958	1.13
434.162	1.32
434.367	1.34
434.572	1.4
434.776	1.38
434.981	1.37
435.186	1.39
435.39	1.45
435.595	1.44
435.799	1.51
436.004	1.57
436.209	1.56
436.413	1.43
436.618	1.33
436.822	1.36
437.027	1.15
437.231	1.11
437.436	1.16
437.64	1.12
437.845	1.14
438.049	1.12
438.253	1
438.458	1.07
438.662	1.15
438.867	1.07
439.071	1.06
439.275	1.08
439.48	1.13
439.684	1.08
439.888	1.13
440.093	1.08
440.297	1.04
440.501	1.18
440.706	1.13
440.91	1.06
441.114	1.19
441.318	1.17
441.523	1.32
441.727	1.24
441.931	1.31
442.135	1.24
442.339	1.23
442.543	1.29
442.748	1.29
442.952	1.27
443.156	1.31
443.36	1.29
443.564	1.2
443.768	1.1
443.972	1.02
444.176	0.94
444.38	0.94
444.584	0.97
444.788	0.98
444.992	0.94
445.196	0.96
445.4	0.98
445.604	0.94
445.808	1.01
446.012	1.04
446.216	1.15
446.42	1.11
446.624	1.05
446.828	1.01
447.032	0.94
447.235	0.98
447.439	0.98
447.643	0.93
447.847	0.91
448.051	0.93
448.254	0.8
448.458	0.7
448.662	0.77
448.866	0.89
449.069	0.84
449.273	0.94
449.477	0.89
449.681	0.88
449.884	0.85
450.088	0.85
450.292	0.73
450.495	0.88
450.699	0.85
450.902	0.92
451.106	0.88
451.31	0.94
451.513	1
451.717	0.92
451.92	0.88
452.124	0.97
452.327	0.89
452.531	0.85
452.734	0.77
452.938	0.81
453.141	0.73
453.345	0.81
453.548	0.86
453.752	0.71
453.955	0.85
454.158	0.89
454.362	0.83
454.565	0.93
454.769	1.05
454.972	1.23
455.175	1.18
455.379	1.16
455.582	1.11
455.785	0.94
455.988	1.01
456.192	0.94
456.395	0.96
456.598	1.03
456.801	1
457.005	0.98
457.208	0.82
457.411	0.84
457.614	0.9
457.817	0.85
458.021	0.92
458.224	0.89
458.427	1.04
458.63	1.02
458.833	1.01
459.036	1.04
459.239	1.09
459.442	1.09
459.645	1.14
459.848	1.13
460.051	1.23
460.254	1.3
460.457	1.3
460.66	1.17
460.863	1.17
461.066	1.18
461.269	1.13
461.472	1.1
461.675	1.22
461.878	1.15
462.081	1.11
462.284	1.1
462.486	0.98
462.689	1
462.892	0.94
463.095	0.92
463.298	0.88
463.5	0.94
463.703	0.89
463.906	0.94
464.109	1.07
464.311	1.05
464.514	0.97
464.717	1.09
464.92	1.06
465.122	1.07
465.325	1.08
465.528	1.07
465.73	1.06
465.933	1.09
466.135	1.02
466.338	0.99
466.541	1.02
466.743	1.04
466.946	0.98
467.148	0.92
467.351	0.88
467.553	0.9
467.756	0.9
467.958	0.94
468.161	1
468.363	0.98
468.566	0.94
468.768	0.99
468.971	0.99
469.173	0.92
469.375	0.92
469.578	0.94
469.78	0.9
469.983	0.94
470.185	0.85
470.387	0.9
470.59	0.8
470.792	0.75
470.994	0.78
471.196	0.87
471.399	0.9
471.601	0.91
471.803	0.85
472.005	0.84
472.208	0.78
472.41	0.75
472.612	0.67
472.814	0.77
473.016	0.92
473.218	0.88
473.421	0.82
473.623	0.94
473.825	1.01
474.027	1.1
474.229	1.07
474.431	1.04
474.633	1.08
474.835	0.99
475.037	0.96
475.239	0.86
475.441	0.78
475.643	0.77
475.845	0.76
476.047	0.77
476.249	0.8
476.451	0.84
476.653	0.88
476.855	0.89
477.057	0.92
477.258	0.98
477.46	1.07
477.662	1.14
477.864	1.2
478.066	1.13
478.268	1.12
478.469	1.11
478.671	1.06
478.873	1.06
479.075	1.14
479.276	1.03
479.478	0.92
479.68	0.91
479.882	0.88
480.083	0.84
480.285	0.9
480.487	0.94
480.688	0.99
480.89	1.08
481.091	1.05
481.293	0.99
481.495	1.06
481.696	1.08
481.898	1.07
482.099	1.06
482.301	1.06
482.502	1.07
482.704	1.07
482.905	1.03
483.107	1
483.308	0.99
483.51	1.05
483.711	1.05
483.913	1.07
484.114	1.07
484.315	1.08
484.517	1.08
484.718	1.09
484.92	1.07
485.121	1.11
485.322	1.11
485.524	1.15
485.725	1.05
485.926	1.04
486.127	1.02
486.329	1.04
486.53	1.03
486.731	1.02
486.932	0.97
487.134	0.97
487.335	0.95
487.536	0.96
487.737	0.96
487.938	1
488.139	1.06
488.341	1.05
488.542	1.01
488.743	1.04
488.944	1.09
489.145	1.1
489.346	1.07
489.547	1.05
489.748	1.06
489.949	1.08
490.15	1.07
490.351	0.99
490.552	1.04
490.753	1.07
490.954	1.05
491.155	1.06
491.356	1.04
491.557	1.08
491.758	1.03
491.959	1.03
492.159	0.99
492.36	1.02
492.561	1.07
492.762	0.99
492.963	0.96
493.164	0.92
493.364	0.84
493.565	0.87
493.766	0.86
493.967	0.96
494.167	0.87
494.368	0.92
494.569	0.95
494.769	1.06
494.97	1.09
495.171	1.08
495.371	1.08
495.572	1.11
495.773	1.13
495.973	1.17
496.174	1.14
496.375	1.21
496.575	1.2
496.776	1.19
496.976	1.05
497.177	1.05
497.377	1.06
497.578	1.06
497.778	0.97
497.979	1.05
498.179	1.08
498.38	1.1
498.58	1.05
498.78	1.04
498.981	1.02
499.181	1.18
499.382	1.2
499.582	1.2
499.782	1.25
499.983	1.34
500.183	1.36
500.383	1.26
500.584	1.3
500.784	1.39
500.984	1.39
501.184	1.36
501.385	1.28
501.585	1.27
501.785	1.35
501.985	1.34
502.185	1.35
502.386	1.23
502.586	1.25
502.786	1.22
502.986	1.2
503.186	1.25
503.386	1.31
503.586	1.33
503.786	1.38
503.987	1.35
504.187	1.42
504.387	1.51
504.587	1.5
504.787	1.53
504.987	1.53
505.187	1.48
505.387	1.52
505.587	1.44
505.786	1.46
505.986	1.42
506.186	1.38
506.386	1.33
506.586	1.27
506.786	1.22
506.986	1.28
507.186	1.27
507.386	1.33
507.585	1.27
507.785	1.28
507.985	1.29
508.185	1.3
508.384	1.31
508.584	1.28
508.784	1.3
508.984	1.39
509.183	1.39
509.383	1.41
509.583	1.41
509.782	1.43
509.982	1.43
510.182	1.45
510.381	1.54
510.581	1.64
510.781	1.69
510.98	1.69
511.18	1.69
511.379	1.65
511.579	1.68
511.778	1.7
511.978	1.75
512.177	1.73
512.377	1.71
512.576	1.7
512.776	1.59
512.975	1.55
513.175	1.6
513.374	1.61
513.573	1.62
513.773	1.67
513.972	1.63
514.172	1.57
514.371	1.64
514.57	1.61
514.77	1.52
514.969	1.66
515.168	1.57
515.367	1.61
515.567	1.58
515.766	1.58
515.965	1.63
516.164	1.74
516.364	1.8
516.563	1.8
516.762	1.86
516.961	1.92
517.16	1.85
517.359	1.99
517.559	1.93
517.758	1.94
517.957	1.96
518.156	1.96
518.355	1.92
518.554	1.9
518.753	1.96
518.952	1.97
519.151	1.97
519.35	1.95
519.549	1.91
519.748	1.93
519.947	1.95
520.146	1.95
520.345	1.91
520.544	1.91
520.743	1.95
520.942	1.96
521.141	1.9
521.339	1.96
521.538	2.03
521.737	1.98
521.936	2.07
522.135	2.18
522.333	2.3
522.532	2.32
522.731	2.35
522.93	2.38
523.129	2.38
523.327	2.46
523.526	2.39
523.725	2.42
523.923	2.51
524.122	2.49
524.321	2.46
524.519	2.44
524.718	2.49
524.917	2.51
525.115	2.5
525.314	2.57
525.512	2.61
525.711	2.68
525.909	2.68
526.108	2.65
526.306	2.66
526.505	2.65
526.703	2.67
526.902	2.66
527.1	2.67
527.299	2.68
527.497	2.68
527.696	2.62
527.894	2.61
528.092	2.64
528.291	2.68
528.489	2.72
528.688	2.77
528.886	2.8
529.084	2.83
529.283	2.86
529.481	2.93
529.679	2.91
529.877	3.01
530.076	3.06
530.274	3.08
530.472	3.07
530.67	3.03
530.869	3.05
531.067	3.02
531.265	3.04
531.463	3.04
531.661	3.03
531.859	3.07
532.057	3.1
532.255	3.13
532.454	3.16
532.652	3.19
532.85	3.25
533.048	3.29
533.246	3.3
533.444	3.28
533.642	3.3
533.84	3.32
534.038	3.25
534.236	3.29
534.434	3.26
534.632	3.29
534.83	3.32
535.027	3.36
535.225	3.37
535.423	3.42
535.621	3.42
535.819	3.46
536.017	3.41
536.215	3.51
536.412	3.51
536.61	3.55
536.808	3.54
537.006	3.55
537.203	3.51
537.401	3.53
537.599	3.58
537.797	3.68
537.994	3.7
538.192	3.79
538.39	3.84
538.587	3.83
538.785	3.82
538.983	3.85
539.18	3.82
539.378	3.84
539.575	3.82
539.773	3.86
539.97	3.89
540.168	3.89
540.366	3.93
540.563	3.96
540.761	4.01
540.958	4.03
541.155	4.06
541.353	4.08
541.55	4.13
541.748	4.19
541.945	4.22
542.143	4.23
542.34	4.31
542.537	4.34
542.735	4.35
542.932	4.39
543.129	4.42
543.327	4.48
543.524	4.57
543.721	4.62
543.919	4.68
544.116	4.69
544.313	4.7
544.51	4.68
544.708	4.68
544.905	4.7
545.102	4.75
545.299	4.85
545.496	4.89
545.693	4.89
545.891	4.88
546.088	4.96
546.285	4.96
546.482	4.97
546.679	4.98
546.876	5.06
547.073	5.07
547.27	5.11
547.467	5.1
547.664	5.01
547.861	5.04
548.058	5.1
548.255	5
548.452	5.06
548.649	5.16
548.846	5.3
549.043	5.32
549.24	5.39
549.437	5.44
549.633	5.42
549.83	5.63
550.027	5.66
550.224	5.72
550.421	5.73
550.618	5.79
550.814	5.91
551.011	5.95
551.208	6.01
551.405	6.09
551.601	6.01
551.798	6.11
551.995	6.06
552.191	6.14
552.388	6.14
552.585	6.24
552.781	6.17
552.978	6.19
553.175	6.28
553.371	6.37
553.568	6.34
553.764	6.54
553.961	6.49
554.157	6.58
554.354	6.68
554.55	6.72
554.747	6.71
554.943	6.89
555.14	6.78
555.336	6.57
555.533	6.53
555.729	6.73
555.926	6.65
556.122	6.8
556.318	6.89
556.515	6.99
556.711	7.02
556.907	7.15
557.104	7.16
557.3	7.31
557.496	7.57
557.693	7.79
557.889	7.66
558.085	7.77
558.281	7.74
558.478	7.76
558.674	7.74
558.87	7.76
559.066	7.79
559.262	7.82
559.459	7.8
559.655	7.75
559.851	7.6
560.047	7.69
560.243	7.75
560.439	7.84
560.635	7.82
560.831	7.76
561.027	7.84
561.223	7.9
561.419	7.97
561.615	8.07
561.811	8.2
562.007	8.27
562.203	8.31
562.399	8.36
562.595	8.49
562.791	8.7
562.987	8.82
563.183	9.02
563.379	9.13
563.575	9.23
563.771	9.22
563.966	9.23
564.162	9.31
564.358	9.31
564.554	9.36
564.75	9.32
564.945	9.42
565.141	9.5
565.337	9.51
565.533	9.49
565.728	9.44
565.924	9.51
566.12	9.66
566.315	9.76
566.511	9.87
566.707	9.91
566.902	9.93
567.098	9.97
567.293	10.05
567.489	10.01
567.684	9.99
567.88	10.03
568.076	10.15
568.271	10.13
568.467	10.25
568.662	10.42
568.858	10.52
569.053	10.74
569.248	10.7
569.444	10.69
569.639	10.84
569.835	10.96
570.03	11.04
570.225	11.09
570.421	11.15
570.616	11.07
570.812	11
571.007	10.97
571.202	10.96
571.397	10.99
571.593	11.01
571.788	11.06
571.983	11.16
572.178	11.28
572.374	11.25
572.569	11.31
572.764	11.43
572.959	11.53
573.154	11.68
573.35	11.82
573.545	11.94
573.74	12.05
573.935	12.05
574.13	12.02
574.325	12.01
574.52	12.16
574.715	12.17
574.91	12.09
575.105	12.1
575.3	12.07
575.495	11.99
575.69	11.85
575.885	11.89
576.08	11.95
576.275	12.12
576.47	12.17
576.665	12.24
576.86	12.29
577.055	12.26
577.25	12.38
577.444	12.46
577.639	12.5
577.834	12.64
578.029	12.48
578.224	12.52
578.418	12.37
578.613	12.36
578.808	12.37
579.003	12.49
579.197	12.74
579.392	12.81
579.587	12.79
579.781	12.85
579.976	12.9
580.171	13.21
580.365	13.22
580.56	13.31
580.755	13.44
580.949	13.42
581.144	13.34
581.338	13.28
581.533	13.18
581.727	13.28
581.922	13.25
582.116	13.42
582.311	13.51
582.505	13.58
582.7	13.69
582.894	13.61
583.089	13.74
583.283	13.83
583.478	13.93
583.672	14.15
583.866	14.21
584.061	14.36
584.255	14.25
584.449	14.11
584.644	14.11
584.838	14.06
585.032	14.17
585.226	14.03
585.421	14.16
585.615	14.25
585.809	14.08
586.003	14.12
586.198	14.09
586.392	14.15
586.586	14.29
586.78	14.37
586.974	14.52
587.168	14.4
587.363	14.55
587.557	14.55
587.751	14.35
587.945	14.27
588.139	14.32
588.333	14.42
588.527	14.55
588.721	14.63
588.915	14.62
589.109	14.59
589.303	14.71
589.497	14.81
589.691	14.63
589.885	14.74
590.079	14.94
590.273	14.84
590.466	14.87
590.66	14.85
590.854	14.72
591.048	14.8
591.242	14.86
591.436	14.93
591.629	14.81
591.823	15
592.017	15.25
592.211	15.43
592.404	15.58
592.598	15.66
592.792	15.75
592.986	15.84
593.179	15.92
593.373	15.97
593.567	15.99
593.76	16.08
593.954	16.13
594.147	15.96
594.341	15.93
594.535	15.8
594.728	15.73
594.922	15.67
595.115	15.76
595.309	15.75
595.502	15.79
595.696	15.81
595.889	15.81
596.083	15.72
596.276	15.84
596.47	15.81
596.663	15.87
596.856	15.95
597.05	15.96
597.243	15.78
597.437	15.74
597.63	15.65
597.823	15.63
598.017	15.61
598.21	15.61
598.403	15.62
598.596	15.65
598.79	15.68
598.983	15.61
599.176	15.76
599.369	15.79
599.563	15.72
599.756	15.85
599.949	15.93
600.142	15.96
600.335	16.28
600.528	16.28
600.722	16.29
600.915	16.38
601.108	16.46
601.301	16.33
601.494	16.52
601.687	16.54
601.88	16.54
602.073	16.59
602.266	16.64
602.459	16.62
602.652	16.67
602.845	16.79
603.038	16.8
603.231	16.85
603.424	16.85
603.617	16.8
603.809	16.88
604.002	16.84
604.195	16.8
604.388	16.87
604.581	16.82
604.774	16.76
604.966	16.62
605.159	16.57
605.352	16.48
605.545	16.54
605.737	16.52
605.93	16.54
606.123	16.68
606.316	16.76
606.508	16.63
606.701	16.58
606.894	16.55
607.086	16.7
607.279	16.92
607.471	16.98
607.664	17.05
607.857	17.09
608.049	17.21
608.242	17.2
608.434	17.23
608.627	17.3
608.819	17.43
609.012	17.56
609.204	17.41
609.397	17.21
609.589	17.33
609.782	17.36
609.974	17.48
610.166	17.36
610.359	17.32
610.551	17.27
610.743	17.3
610.936	17.2
611.128	17.18
611.32	17.44
611.513	17.59
611.705	17.5
611.897	17.42
612.09	17.33
612.282	17.35
612.474	17.33
612.666	17.33
612.858	17.14
613.051	17.18
613.243	17.12
613.435	17.02
613.627	17.06
613.819	17.07
614.011	17.15
614.203	17.06
614.395	17.08
614.588	17.11
614.78	17.36
614.972	17.7
615.164	17.82
615.356	17.98
615.548	18.05
615.74	18.03
615.932	17.99
616.124	18.1
616.315	18.34
616.507	18.4
616.699	18.4
616.891	18.23
617.083	18.09
617.275	17.95
617.467	17.99
617.659	18.03
617.85	18.08
618.042	18.19
618.234	18.11
618.426	18.11
618.618	18.07
618.809	18.23
619.001	18.32
619.193	18.45
619.384	18.49
619.576	18.49
619.768	18.41
619.959	18.29
620.151	18.24
620.343	18.22
620.534	18.18
620.726	18.32
620.917	18.3
621.109	18.31
621.301	18.21
621.492	18.29
621.684	18.31
621.875	18.22
622.067	18.27
622.258	18.41
622.45	18.52
622.641	18.56
622.832	18.44
623.024	18.55
623.215	18.46
623.407	18.44
623.598	18.36
623.789	18.3
623.981	18.5
624.172	18.59
624.363	18.53
624.555	18.6
624.746	18.53
624.937	18.69
625.129	18.47
625.32	18.34
625.511	18.48
625.702	18.39
625.893	18.35
626.085	18.22
626.276	18.09
626.467	18.12
626.658	18.06
626.849	18.04
627.04	17.99
627.231	18.1
627.422	18.18
627.614	18.2
627.805	18.43
627.996	18.64
628.187	18.89
628.378	18.9
628.569	18.89
628.76	18.93
628.951	19.08
629.142	19.15
629.332	19.2
629.523	19.4
629.714	19.5
629.905	19.6
630.096	19.47
630.287	19.32
630.478	19.61
630.669	19.73
630.859	19.7
631.05	19.75
631.241	19.55
631.432	19.57
631.623	19.5
631.813	19.27
632.004	19.28
632.195	19.45
632.385	19.6
632.576	19.45
632.767	19.4
632.957	19.5
633.148	19.51
633.339	19.64
633.529	19.68
633.72	19.77
633.91	19.94
634.101	19.71
634.292	19.5
634.482	19.54
634.673	19.67
634.863	19.82
635.054	19.7
635.244	19.65
635.435	19.68
635.625	19.65
635.815	19.59
636.006	19.38
636.196	19.4
636.387	19.54
636.577	19.27
636.767	19.14
636.958	18.97
637.148	19.04
637.338	18.93
637.529	18.98
637.719	18.95
637.909	19.09
638.099	19.26
638.29	19.52
638.48	19.58
638.67	19.73
638.86	19.85
639.05	20
639.241	20
639.431	20.4
639.621	20.46
639.811	20.64
640.001	20.56
640.191	20.84
640.381	20.62
640.571	20.61
640.761	20.78
640.951	20.67
641.141	20.76
641.331	20.82
641.521	20.57
641.711	20.4
641.901	20.44
642.091	20.38
642.281	20.27
642.471	20.44
642.661	20.47
642.851	20.23
643.041	20.28
643.231	20.21
643.42	20.19
643.61	20.12
643.8	20.34
643.99	20.4
644.18	20.41
644.369	20.23
644.559	19.92
644.749	19.99
644.939	20.01
645.128	20.13
645.318	19.85
645.508	19.82
645.697	19.91
645.887	19.85
646.076	19.89
646.266	19.96
646.456	20.1
646.645	20.43
646.835	20.42
647.024	20.9
647.214	20.87
647.403	21.28
647.593	21.52
647.782	21.54
647.972	21.63
648.161	21.24
648.351	21.18
648.54	21.25
648.73	21.3
648.919	21.19
649.108	21.03
649.298	20.85
649.487	20.6
649.677	20.36
649.866	20.28
650.055	20.19
650.244	20.62
650.434	20.88
650.623	20.95
650.812	20.88
651.002	20.88
651.191	20.89
651.38	21.15
651.569	21.05
651.758	21.13
651.947	21.28
652.137	21.2
652.326	21.14
652.515	21.05
652.704	20.96
652.893	20.78
653.082	20.89
653.271	20.86
653.46	20.89
653.649	21.09
653.838	21.16
654.027	21
654.216	21.08
654.405	20.86
654.594	20.69
654.783	20.71
654.972	20.75
655.161	20.8
655.35	20.78
655.539	20.53
655.728	20.73
655.916	20.74
656.105	20.87
656.294	20.82
656.483	21.12
656.672	21.48
656.86	21.46
657.049	21.75
657.238	21.68
657.427	21.62
657.615	21.65
657.804	21.65
657.993	21.69
658.181	21.7
658.37	21.7
658.559	21.62
658.747	21.68
658.936	21.92
659.125	21.96
659.313	22.02
659.502	22.05
659.69	22.08
659.879	21.98
660.067	21.97
660.256	22.12
660.444	22.37
660.633	22.3
660.821	22
661.01	21.76
661.198	21.64
661.387	21.74
661.575	21.9
661.763	22.07
661.952	22.24
662.14	22.54
662.328	22.53
662.517	22.51
662.705	22.46
662.893	22.6
663.082	22.61
663.27	22.59
663.458	22.61
663.646	22.61
663.834	22.53
664.023	22.36
664.211	22.08
664.399	21.96
664.587	21.71
664.775	21.71
664.963	21.52
665.152	21.24
665.34	21.31
665.528	21.52
665.716	21.41
665.904	21.31
666.092	21.52
666.28	21.59
666.468	21.78
666.656	22
666.844	22.17
667.032	22.46
667.22	22.66
667.408	22.39
667.596	22.08
667.784	22.26
667.971	22.41
668.159	22.26
668.347	22.34
668.535	22.35
668.723	22.17
668.911	22.31
669.098	22.38
669.286	22.53
669.474	22.84
669.662	22.87
669.849	22.92
670.037	23.11
670.225	23.23
670.413	23.24
670.6	23.26
670.788	23.49
670.976	23.36
671.163	23.25
671.351	23.44
671.538	23.66
671.726	23.84
671.913	23.88
672.101	23.86
672.289	24.03
672.476	23.78
672.664	23.86
672.851	23.8
673.039	23.66
673.226	23.55
673.413	23.19
673.601	23.25
673.788	23.19
673.976	23.11
674.163	22.93
674.35	23.2
674.538	23.38
674.725	23.31
674.912	23.5
675.1	23.84
675.287	23.9
675.474	24.1
675.662	23.87
675.849	24.07
676.036	24.23
676.223	24.21
676.411	23.83
676.598	24.06
676.785	23.99
676.972	23.97
677.159	23.83
677.346	23.9
677.533	24
677.721	23.86
677.908	23.54
678.095	23.33
678.282	23.51
678.469	23.43
678.656	23.15
678.843	23.13
679.03	23.08
679.217	23.14
679.404	23.07
679.591	22.95
679.778	23.14
679.964	23.26
680.151	23.11
680.338	23.07
680.525	23.02
680.712	23.17
680.899	23.01
681.086	22.8
681.272	22.7
681.459	22.7
681.646	22.54
681.833	22.43
682.02	22.49
682.206	22.57
682.393	22.69
682.58	22.84
682.766	22.9
682.953	23.11
683.14	23.43
683.326	23.88
683.513	23.98
683.7	24.19
683.886	24.13
684.073	24.2
684.259	24.41
684.446	24.41
684.632	24.32
684.819	24.13
685.005	24.1
685.192	23.89
685.378	23.47
685.565	23.54
685.751	23.4
685.938	23.35
686.124	23.3
686.31	23.09
686.497	23.13
686.683	23.35
686.87	23.26
687.056	23.35
687.242	23.34
687.429	23.42
687.615	23.42
687.801	23.66
687.987	23.94
688.174	24.08
688.36	23.98
688.546	23.8
688.732	23.48
688.918	23.61
689.105	23.61
689.291	23.84
689.477	23.46
689.663	23.31
689.849	23.08
690.035	23.06
690.221	22.79
690.407	22.83
690.593	23.14
690.779	23.45
690.965	23.43
691.151	23.32
691.337	23.2
691.523	23.6
691.709	23.61
691.895	23.81
692.081	23.75
692.267	23.72
692.453	23.87
692.639	23.77
692.825	23.69
693.011	23.74
693.196	23.91
693.382	24.16
693.568	24.06
693.754	24.04
693.94	23.99
694.125	23.9
694.311	23.86
694.497	23.85
694.682	23.53
694.868	23.6
695.054	23.58
695.239	23.49
695.425	23.49
695.611	23.45
695.796	23.39
695.982	23.55
696.168	23.69
696.353	24.08
696.539	24.15
696.724	24.34
696.91	24.42
697.095	24.47
697.281	24.55
697.466	24.4
697.652	24.43
697.837	24.67
698.023	24.53
698.208	24.46
698.393	24.17
698.579	24.17
698.764	24.17
698.949	24.07
699.135	24.23
699.32	24.22
699.505	24.17
699.691	24.43
699.876	24.25
700.061	24.66
700.246	24.54
700.432	24.64
700.617	24.58
700.802	24.64
700.987	24.45
701.172	24.49
701.358	24.24
701.543	24.36
701.728	24.15
701.913	24.37
702.098	23.83
702.283	24.1
702.468	24.48
702.653	24.53
702.838	24.42
703.023	24.69
703.208	24.49
703.393	24.97
703.578	25.44
703.763	25.3
703.948	25.06
704.133	25.23
704.318	25.27
704.503	24.77
704.688	25.2
704.873	25.13
705.057	25.04
705.242	25.08
705.427	24.7
705.612	24.4
705.797	24.65
705.981	24.52
706.166	24.54
706.351	24.37
706.536	24.72
706.72	24.76
706.905	24.88
707.09	24.99
707.274	25.32
707.459	25.81
707.644	25.69
707.828	25.53
708.013	25.74
708.197	25.8
708.382	26.17
708.567	26.5
708.751	26.27
708.936	26.27
709.12	26.17
709.305	25.91
709.489	25.52
709.673	25.7
709.858	25.81
710.042	25.93
710.227	26.24
710.411	25.91
710.596	25.03
710.78	24.99
710.964	24.95
711.149	24.85
711.333	24.76
711.517	24.76
711.702	25.05
711.886	24.97
712.07	24.72
712.254	24.33
712.438	24.16
712.623	24.92
712.807	24.86
712.991	24.89
713.175	25.28
713.359	25.41
713.544	25.44
713.728	25.19
713.912	25.41
714.096	25.65
714.28	25.48
714.464	25.89
714.648	25.84
714.832	25.88
715.016	25.98
715.2	25.83
715.384	25.81
715.568	26.09
715.752	25.77
715.936	25.67
716.12	25.67
716.304	26.02
716.488	26.27
716.671	25.8
716.855	26.25
717.039	25.82
717.223	25.54
717.407	25.35
717.59	25.36
717.774	25.79
717.958	25.59
718.142	25.61
718.325	24.98
718.509	24.81
718.693	25.13
718.877	24.52
719.06	25
719.244	25.17
719.428	25.33
719.611	25.38
719.795	25.16
719.978	25.23
720.162	25.1
720.345	26.14
720.529	25.64
720.713	25.56
720.896	25.7
721.08	25.49
721.263	25.76
721.446	25.91
721.63	26.05
721.813	26.54
721.997	26.82
722.18	27.16
722.364	26.71
722.547	26.98
722.73	27.44
722.914	27.56
723.097	27.59
723.28	27.5
723.464	27.36
723.647	27.27
723.83	26.87
724.013	26.62
724.197	26.4
724.38	26.38
724.563	26.38
724.746	25.9
724.929	25.51
725.112	26.06
725.296	25.93
725.479	25.67
725.662	25.73
725.845	25.65
726.028	25.4
726.211	25.13
726.394	25.35
726.577	25.52
726.76	25.62
726.943	25.42
727.126	25.13
727.309	25.44
727.492	25.6
727.675	25.26
727.858	25.11
728.041	25.43
728.224	25.6
728.407	25.6
728.589	25.71
728.772	26.27
728.955	26.55
729.138	26.05
729.321	25.86
729.503	25.65
729.686	25.39
729.869	25.68
730.052	25.52
730.234	25.21
730.417	24.92
730.6	24.7
730.782	23.89
730.965	24.18
731.148	24.66
731.33	24.98
731.513	25.26
731.695	25.52
731.878	25.78
732.061	25.73
732.243	25.94
732.426	25.87
732.608	25.41
732.791	25.91
732.973	25.93
733.156	25.6
733.338	25.39
733.52	25.14
733.703	24.69
733.885	24.24
734.068	24.53
734.25	24.62
734.432	24.72
734.615	25.29
734.797	25.16
734.979	25.3
735.162	25.34
735.344	25.25
735.526	25.22
735.708	25.56
735.891	25.48
736.073	25.24
736.255	25.09
736.437	25.13
736.619	25.01
736.802	24.59
736.984	24.52
737.166	24.79
737.348	25.1
737.53	26.07
737.712	26.42
737.894	26.47
738.076	26.61
738.258	27.28
738.44	27.06
738.622	27.34
738.804	27.8
738.986	27.31
739.168	27.18
739.35	26.97
739.532	26.99
739.714	26.69
739.896	26.57
740.078	26.46
740.259	26.24
740.441	25.6
740.623	25.14
740.805	25
740.987	25.07
741.168	25.36
741.35	24.65
741.532	24.41
741.714	24.37
741.895	24.69
742.077	24.67
742.259	24.32
742.44	24.99
742.622	25.52
742.804	25.16
742.985	25.85
743.167	25.8
743.348	25.99
743.53	25.32
743.711	25.84
743.893	25.75
744.075	26.12
744.256	25.47
744.438	25.97
744.619	25.32
744.8	24.84
744.982	24.57
745.163	24.63
745.345	24.54
745.526	24.52
745.707	24.39
745.889	24.43
746.07	24.2
746.252	25.3
746.433	25.1
746.614	25.59
746.795	26.59
746.977	26.21
747.158	26.1
747.339	26.85
747.52	27.09
747.702	26.41
747.883	26.53
748.064	27.06
748.245	26.68
748.426	26.89
748.607	26.92
748.788	26.96
748.97	27.33
749.151	27.86
749.332	27.63
749.513	27.23
749.694	28.19
749.875	27.92
750.056	27.51
750.237	27.63
750.418	26.72
750.599	26.66
750.78	26.63
750.96	26.61
751.141	25.68
751.322	25.57
751.503	26.33
751.684	25.76
751.865	25.63
752.046	25.44
752.226	25.13
752.407	25.66
752.588	26.13
752.769	25.84
752.949	26.02
753.13	25.97
753.311	26.21
753.492	26.01
753.672	26.64
753.853	26.98
754.034	27.12
754.214	27.82
754.395	27.7
754.575	27.59
754.756	27.63
754.937	27.09
755.117	27.58
755.298	27.21
755.478	26.96
755.659	26.62
755.839	26.81
756.02	27
756.2	26.53
756.381	27.05
756.561	26.97
756.741	27.1
756.922	26.83
757.102	26.79
757.283	27.35
757.463	27.68
757.643	27.33
757.823	27.22
758.004	26.96
758.184	27.6
758.364	28.05
758.545	27.61
758.725	28.1
758.905	28.59
759.085	28.65
759.265	28.79
759.446	28.21
759.626	28.25
759.806	28.35
759.986	28.1
760.166	27.3
760.346	26.84
760.526	26.83
760.706	26.57
760.886	26.49
761.066	25.94
761.246	25.91
761.426	25.65
761.606	25.98
761.786	25.73
761.966	26.2
762.146	26.6
762.326	27.03
762.506	27.37
762.686	27.23
762.866	26.83
763.046	27.33
763.225	27.42
763.405	28.11
763.585	28.18
763.765	28.17
763.945	27.76
764.124	27.92
764.304	27.6
764.484	27.09
764.664	27.38
764.843	27.76
765.023	27.34
765.203	27.07
765.382	26.85
765.562	26.25
765.741	26.55
765.921	27.17
766.101	26.87
766.28	26.78
766.46	27.09
766.639	26.91
766.819	27.16
766.998	27.27
767.178	27.27
767.357	27.2
767.537	27.83
767.716	27.08
767.896	26.64
768.075	26.56
768.254	27.14
768.434	26.99
768.613	26.63
768.792	26.29
768.972	26.54
769.151	26.69
769.33	27.2
769.51	26.88
769.689	27.83
769.868	28.17
770.047	29.23
770.226	28.25
770.406	28.48
770.585	28.6
770.764	28.95
770.943	28.26
771.122	27.77
771.301	27.24
771.48	28.01
771.66	27.56
771.839	28.15
772.018	27.79
772.197	28.19
772.376	29.42
772.555	30.33
772.734	30.07
772.913	31.14
773.092	31.25
773.271	31.13
773.449	30.57
773.628	30.41
773.807	30.41
773.986	29.55
774.165	29.53
774.344	27.95
774.523	27.1
774.701	27.25
774.88	27.49
775.059	27.49
775.238	27.86
775.417	27.93
775.595	28.53
775.774	27.88
775.953	27.83
776.131	27.64
776.31	27.9
776.489	28.1
776.667	28.65
776.846	27.74
777.025	27.91
777.203	27.77
777.382	27.39
777.56	27.31
777.739	27.26
777.917	27.64
778.096	27.92
778.274	28.11
778.453	27.47
778.631	27.75
778.81	28.33
778.988	29.16
779.166	29.54
779.345	29.36
779.523	29.46
779.702	29.74
779.88	30.35
780.058	30.85
780.237	30.79
780.415	31.23
780.593	30.77
780.771	30.7
780.95	30.04
781.128	30.3
781.306	30.52
781.484	30.67
781.662	30.92
781.841	29.84
782.019	29.61
782.197	29.29
782.375	29.55
782.553	28.96
782.731	28.73
782.909	29.32
783.087	27.59
783.265	27.99
783.443	27.58
783.621	26.65
783.799	26.54
783.977	26.49
784.155	26.94
784.333	26.54
784.511	26.45
784.689	26.01
784.867	25.7
785.045	26.41
785.223	26.26
785.4	26.02
785.578	25.77
785.756	26.39
785.934	26.66
786.112	26.98
786.289	27.38
786.467	27.61
786.645	28.69
786.823	28.14
787	28.71
787.178	29.46
787.356	29.03
787.533	29.56
787.711	29.9
787.889	29.5
788.066	29.35
788.244	29.08
788.421	28.92
788.599	28.29
788.776	28.77
788.954	28.51
789.131	28.01
789.309	27.88
789.486	28.39
789.664	27.62
789.841	28.17
790.019	27.28
790.196	27.47
790.373	26.81
790.551	26.83
790.728	26.59
790.906	26.46
791.083	26.63
791.26	26.19
791.437	24.74
791.615	25.64
791.792	24.79
791.969	25.15
792.146	25.29
792.324	26.03
792.501	25.39
792.678	25.02
792.855	25.19
793.032	24.31
793.209	25.28
793.387	25.44
793.564	25.13
793.741	25.37
793.918	25.63
794.095	26.07
794.272	25.88
794.449	26.67
794.626	28.25
794.803	28.44
794.98	28.95
795.157	29.65
795.334	30.78
795.511	30.07
795.688	29.74
795.864	30.21
796.041	28.73
796.218	28.52
796.395	28.6
796.572	26.91
796.749	26.23
796.925	26.11
797.102	25.68
797.279	25
797.456	25.53
797.632	25.98
797.809	25.43
797.986	26.71
798.162	27.23
798.339	25.99
798.516	27.06
798.692	27.8
798.869	27.91
799.046	27.26
799.222	26.42
799.399	26.49
799.575	26.05
799.752	27.04
799.928	26.89
800.105	25.97
800.281	26.48
800.458	25.5
800.634	25.07
800.811	25.71
800.987	26.98
801.163	27.78
801.34	28
801.516	27.86
801.692	27.16
801.869	26.39
802.045	28.06
802.221	28.23
802.398	28.72
802.574	29.54
802.75	28.37
802.926	27.57
803.103	26.88
803.279	25.75
803.455	26.59
803.631	26.43
803.807	26.14
803.983	25.29
804.16	25.65
804.336	26.06
804.512	26.3
804.688	26.91
804.864	28.13
805.04	30
805.216	31.15
805.392	31.46
805.568	31.45
805.744	31.39
805.92	32.8
806.096	33.31
806.272	32.16
806.448	31.67
806.623	31.51
806.799	30.17
806.975	29.36
807.151	28.44
807.327	28.53
807.503	27.82
807.678	28.62
807.854	27.56
808.03	26.9
808.206	28.14
808.381	28.07
808.557	29.37
808.733	30.04
808.908	28.58
809.084	28.56
809.26	27.06
809.435	28.06
809.611	28.18
809.787	28.51
809.962	28.38
810.138	27.39
810.313	28.15
810.489	27.81
810.664	28.29
810.84	29.86
811.015	30.32
811.191	31.7
811.366	30.41
811.542	30.89
811.717	31.7
811.892	31.76
812.068	34.24
812.243	33.12
812.419	31.49
812.594	29.07
812.769	28.53
812.944	26.35
813.12	25.63
813.295	26.63
813.47	25.37
813.645	23.96
813.821	24.77
813.996	22.58
814.171	21.98
814.346	23.51
814.521	25.39
814.697	27.09
814.872	29.19
815.047	28.85
815.222	30.51
815.397	31.2
815.572	30.46
815.747	30.03
815.922	29.06
816.097	28.63
816.272	28.15
816.447	27.34
816.622	26.15
816.797	25.12
816.972	24.83
817.147	22.63
817.322	22.3
817.496	21.98
817.671	22.47
817.846	23.71
818.021	24.99
818.196	24.59
818.371	26.27
818.545	26.48
818.72	27.8
818.895	28.46
819.069	29.08
819.244	30.11
819.419	31.54
819.594	30.79
819.768	30.15
819.943	30.13
820.117	29.59
820.292	29.08
820.467	29.09
820.641	29.09
820.816	29.26
820.99	29.25
821.165	28.95
821.339	29.04
821.514	29.14
821.688	29.32
821.863	29.43
822.037	29.65
822.212	29.75
822.386	29.71
822.56	29.65
822.735	29.46
822.909	29.31
823.084	29.36
823.258	28.9
823.432	29.13
823.606	28.95
823.781	28.87
823.955	28.72
824.129	28.63
824.303	28.48
824.478	28.56
824.652	28.79
824.826	29.08
825	28.86
825.174	29.5
825.348	29.27
825.523	29.72
825.697	29.9
825.871	30.19
826.045	30.1
826.219	30.67
826.393	30.08
826.567	30
826.741	29.9
826.915	29.78
827.089	30.04
827.263	30
827.437	29.53
827.611	29.17
827.784	28.82
827.958	28.98
828.132	29.03
828.306	30.01
828.48	30.7
828.654	31.15
828.827	31.67
829.001	31.08
829.175	30.97
829.349	31.1
829.522	31.22
829.696	31.92
829.87	31.35
830.044	31.16
830.217	30.12
830.391	29.34
830.565	28.92
830.738	28.35
830.912	28.57
831.085	29.42
831.259	30.35
831.432	31.62
831.606	31.42
831.779	31.13
831.953	30.51
832.126	31.62
832.3	31.1
832.473	31.59
832.647	30.78
832.82	30.89
832.994	29.22
833.167	29.59
833.34	28.33
833.514	27.81
833.687	28.07
833.86	28.28
834.034	28.12
834.207	28.27
834.38	27.91
834.553	28.68
834.727	28.04
834.9	28.4
835.073	28.26
835.246	28.33
835.419	28.81
835.593	29.12
835.766	29.27
835.939	28.42
836.112	27.99
836.285	28.08
836.458	28.55
836.631	28.53
836.804	29.71
836.977	28.49
837.15	29.3
837.323	28.87
837.496	27.48
837.669	26.78
837.842	26.66
838.015	25.87
838.188	25.53
838.361	24.15
838.533	26.24
838.706	28.19
838.879	28.39
839.052	27.86
839.225	28.08
839.398	30.11
839.57	30.86
839.743	30.32
839.916	32.13
840.088	31.33
840.261	32
840.434	30.36
840.607	29.59
840.779	29.27
840.952	30.78
841.124	32.81
841.297	32.62
841.47	32.19
841.642	33.36
841.815	33.26
841.987	33.06
842.16	32.38
842.332	31.99
842.505	29.96
842.677	30.78
842.85	28.2
843.022	27.09
843.194	25.22
843.367	21.42
843.539	21.35
843.712	21.41
843.884	22.41
844.056	23.11
844.229	21.97
844.401	22.47
844.573	20.66
844.745	23.76
844.918	23.72
845.09	23.58
845.262	26
845.434	25.71
845.606	23.6
845.779	20.18
845.951	22.18
846.123	25.19
846.295	23.27
846.467	23.98
846.639	22.34
846.811	17.62
846.983	19.91
847.155	19.99
847.327	18.76
847.499	24.05
847.671	30.49
847.843	29.85
848.015	26.56
848.187	27.3
848.359	28.27
848.531	29.79
848.703	34.7
848.875	35.98
849.047	34.08
849.218	36.57
849.39	34.67
849.562	32.23
849.734	31.06
849.905	36.03
850.077	37.72
850.249	39.54
850.421	37.51
850.592	37.09
850.764	36.12
850.936	41.36
851.107	40.56
851.279	36.13
851.451	37.06
851.622	37.38
851.794	30.96
851.965	31.15
852.137	30.93
852.308	30.78
852.48	29.72
852.651	28.99
852.823	26.61
852.994	26.17
853.166	29.72
853.337	28.91
853.509	29.43
853.68	30.79
853.851	29.9
854.023	27.79
854.194	26.96
854.365	28.6
854.537	29.51
854.708	30.33
854.879	32.54
855.05	33.4
855.222	29.06
855.393	24.7
855.564	25.22
855.735	20.56
855.906	19.98
856.078	21.54
856.249	22.9
856.42	16.07
856.591	22.24
856.762	20.57
856.933	19.33
857.104	18.97
857.275	18.52
857.446	14.15
857.617	19.43
857.788	19.09
857.959	16.85
858.13	17.39
858.301	26.22
858.472	21.45
858.643	18.53
858.814	18.8
858.985	20.83
859.155	21.03
859.326	25.71
859.497	25.79
859.668	28.86
859.839	29.23
860.009	23.11
860.18	22.35
860.351	21.26
860.522	24.82
860.692	29.09
860.863	24.71
861.034	22.76
861.204	21.44
861.375	18.02
861.546	13.78
861.716	12.35
861.887	13.5
862.057	12.81
862.228	11.89
862.398	14.24
862.569	7.85
862.739	8.57
862.91	15.05
863.08	15.93
863.251	23.04
863.421	25.7
863.592	29.99
863.762	34.64
863.932	34.41
864.103	35.15
864.273	34.82
864.443	39.09
864.614	43.26
864.784	38.86
864.954	38.17
865.125	32.39
865.295	31.78
865.465	29.34
865.635	29.59
865.805	31.56
865.976	33.3
866.146	31.12
866.316	22.39
866.486	24.11
866.656	26.12
866.826	30.46
866.996	33.2
867.166	31.01
867.336	27.46
867.506	22.86
867.676	17.84
867.846	9.48
868.016	6.37
868.186	9.44
868.356	10.36
868.526	10.11
868.696	10.56
868.866	10.4
869.036	11.9
869.206	14.78
869.376	20.42
869.545	26.81
869.715	31.78
869.885	34.2
870.055	40.42
870.224	37.95
870.394	36.67
870.564	35.95
870.734	32.05
870.903	32.19
871.073	29.05
871.243	30.08
871.412	25.26
871.582	21.84
871.751	23.28
871.921	13.47
872.091	13.9
872.26	11.94
872.43	14.1
872.599	20.38
872.769	23.53
872.938	29.96
873.108	25.18
873.277	26.16
873.446	29.9
873.616	28.38
873.785	32.23
873.955	39.74
874.124	44.87
874.293	47.87
874.463	44.08
874.632	42.05
874.801	35.01
874.971	32.96
875.14	31.84
875.309	30.56
875.478	33.16
875.647	34.08
875.817	30.35
875.986	27.64
876.155	23.98
876.324	21.57
876.493	23.98
876.662	26.59
876.831	26.23
877	25.8
877.17	30.19
877.339	27.87
877.508	24.6
877.677	25.7
877.846	27.96
878.015	23.92
878.184	26.37
878.352	24.58
878.521	26.24
878.69	29.1
878.859	24.79
879.028	20.91
879.197	21.04
879.366	22.51
879.534	19.67
879.703	20.3
879.872	25.59
880.041	25.04
880.21	27.51
880.378	27.64
880.547	29.21
880.716	31.37
880.884	31.06
881.053	30.61
881.222	30.67
881.39	30.9
881.559	29.59
881.727	28.91
881.896	29.9
882.065	29.38
882.233	28.43
882.402	28.17
882.57	27.95
882.739	28.35
882.907	28.51
883.076	28.44
883.244	28.37
883.412	29.65
883.581	29.51
883.749	29.71
883.918	29.74
884.086	30.3
884.254	28.81
884.423	29.09
884.591	28.23
884.759	28.7
884.927	27.56
885.096	27.7
885.264	28.04
885.432	26.86
885.6	25.5
885.769	25.08
885.937	24.24
886.105	25.02
886.273	24.6
886.441	25.46
886.609	25.78
886.777	29.46
886.945	28.87
887.113	25.19
887.281	28.05
887.449	30.81
887.617	30.84
887.785	32.55
887.953	31.82
888.121	33.54
888.289	36.08
888.457	33.62
888.625	30.23
888.793	32.58
888.961	36.07
889.129	35.71
889.296	30.97
889.464	31.99
889.632	32.13
889.8	36.76
889.967	32.82
890.135	27.38
