Data from 2938545_Reflection_2.txt Node
Date: Mon Jun 15 00:25:07 EDT 2015
User: robert
Spectrometer: USB4E03002
Autoset integration time: false
Trigger mode: 4
Integration Time (sec): 1.000000E-1
Scans to average: 10
Electric dark correction enabled: true
Nonlinearity correction enabled: false
Boxcar width: 5
Stray light correction enabled: false
XAxis mode: Wavelengths
Stop averaging: false
Number of Pixels in Spectrum: 3648
>>>>>Begin Spectral Data<<<<<
177.575	19.2
177.794	23.36
178.014	47.85
178.233	39.49
178.452	63.89
178.672	45.64
178.891	4.38
179.11	158.36
179.33	151.57
179.549	19.87
179.768	9.76
179.987	5.72
180.207	18.91
180.426	12.83
180.645	32.78
180.864	6.33
181.084	-16.27
181.303	-304.74
181.522	489.89
181.741	-291.46
181.96	2178.13
182.179	170.17
182.398	355.99
182.618	286.25
182.837	-4351.37
183.056	-657.01
183.275	-233.91
183.494	1201.33
183.713	-190.14
183.932	111.55
184.151	99.13
184.37	65.17
184.589	110.62
184.808	158.76
185.027	159.32
185.246	125.69
185.465	120.38
185.684	150.4
185.903	161.89
186.122	216.62
186.341	570.38
186.56	444.96
186.779	-50.89
186.998	7.75
187.216	80.83
187.435	142.68
187.654	133.56
187.873	136.63
188.092	154.13
188.311	113.34
188.53	143.01
188.748	153.1
188.967	128.87
189.186	128.77
189.405	104.98
189.623	93.18
189.842	48.35
190.061	39.08
190.28	38.43
190.498	21.42
190.717	35.59
190.936	-44.87
191.154	-199.1
191.373	-1990
191.592	-242.34
191.81	57.78
192.029	85.96
192.248	123.3
192.466	55.12
192.685	60.88
192.904	44.24
193.122	44.3
193.341	39.93
193.559	-20.25
193.778	-59.75
193.996	-72.28
194.215	-255.48
194.433	-288.38
194.652	-172.8
194.87	-285.38
195.089	2681.92
195.307	220.23
195.526	702.06
195.744	4645.86
195.963	-713.04
196.181	-2722.44
196.399	-863.72
196.618	-612.4
196.836	-350.84
197.055	26.49
197.273	371.1
197.491	5
197.71	62.85
197.928	46.65
198.146	55.66
198.365	17.09
198.583	140.94
198.801	120.59
199.019	-197.19
199.238	3151.72
199.456	46.3
199.674	117.05
199.892	-359.2
200.111	10.82
200.329	-7.46
200.547	-136.85
200.765	-1267.07
200.983	-145.45
201.202	-1302.37
201.42	-990.62
201.638	-350.37
201.856	401.53
202.074	582.69
202.292	-144.37
202.51	-62.9
202.728	-157.46
202.946	431.44
203.165	296.41
203.383	277.46
203.601	178.54
203.819	43.78
204.037	31.85
204.255	5.93
204.473	43.5
204.691	12.33
204.909	23.85
205.127	-21.55
205.345	-116.76
205.562	-124.12
205.78	-149.3
205.998	-326.03
206.216	-272.68
206.434	-3780.31
206.652	380.03
206.87	359.17
207.088	260.48
207.306	62.01
207.523	20.01
207.741	-1.64
207.959	-23.21
208.177	-171.48
208.395	-132.23
208.612	-153.87
208.83	520.87
209.048	200.64
209.266	194.04
209.483	92.7
209.701	67.49
209.919	41.56
210.136	64.9
210.354	61.19
210.572	102.33
210.79	60.21
211.007	72.06
211.225	119.37
211.442	132.28
211.66	101.4
211.878	154.15
212.095	148.81
212.313	125.18
212.53	121.98
212.748	109.95
212.966	97.54
213.183	84.04
213.401	68.86
213.618	25.15
213.836	24.59
214.053	34.04
214.271	39.76
214.488	31.68
214.705	18.84
214.923	33.36
215.14	16.24
215.358	18.87
215.575	30.61
215.793	46.44
216.01	55
216.227	70.11
216.445	62.54
216.662	54.73
216.879	50.58
217.097	22.18
217.314	11.9
217.531	14.27
217.749	18.04
217.966	15.92
218.183	0.89
218.4	-7.99
218.618	-4.83
218.835	-4.13
219.052	-1.11
219.269	-14.24
219.487	9.68
219.704	-0.97
219.921	-0.03
220.138	-5.3
220.355	-8.25
220.572	-11.77
220.79	11.61
221.007	-1.53
221.224	-7.11
221.441	5.66
221.658	29.56
221.875	9.86
222.092	17.53
222.309	12.26
222.526	13.53
222.743	-2.3
222.96	-0.22
223.177	-9.19
223.394	-0.37
223.611	0.35
223.828	-9.16
224.045	-16.81
224.262	-15.5
224.479	-16.98
224.696	-7.81
224.913	-4.13
225.13	1.82
225.347	3.96
225.564	5.86
225.781	3.25
225.997	4.42
226.214	7.52
226.431	6.02
226.648	6.41
226.865	8.48
227.082	7.56
227.298	8.08
227.515	9.35
227.732	9.33
227.949	9.25
228.165	9.94
228.382	10.96
228.599	10.09
228.816	10.94
229.032	11.94
229.249	10.34
229.466	9.75
229.682	9.38
229.899	8.89
230.116	9.28
230.332	9.71
230.549	8.94
230.765	8.05
230.982	9.92
231.199	12.01
231.415	10.84
231.632	12.28
231.848	15.05
232.065	15.2
232.281	15.05
232.498	14.38
232.714	11.58
232.931	12.06
233.147	11.5
233.364	10.04
233.58	8.25
233.797	10.52
234.013	11.6
234.23	10.4
234.446	8.99
234.662	11.08
234.879	10.3
235.095	11.12
235.312	10.35
235.528	12.67
235.744	13.76
235.961	13.84
236.177	11.57
236.393	12.18
236.61	14.17
236.826	13.71
237.042	11.52
237.258	12.47
237.475	12.73
237.691	13.64
237.907	10.45
238.123	9.34
238.339	10.16
238.556	10.64
238.772	9.35
238.988	9.35
239.204	8.76
239.42	9.33
239.636	8.91
239.853	9.44
240.069	9.44
240.285	9.88
240.501	10.22
240.717	9.61
240.933	10.16
241.149	10
241.365	9.75
241.581	10.18
241.797	9.83
242.013	9.67
242.229	9.13
242.445	8.97
242.661	9.32
242.877	9.01
243.093	9.03
243.309	8.77
243.525	8.65
243.741	8.5
243.957	8.5
244.173	8.4
244.388	8.73
244.604	8.77
244.82	9.52
245.036	8.98
245.252	8.89
245.468	8.84
245.683	8.54
245.899	8.32
246.115	8.06
246.331	7.73
246.547	7.44
246.762	7.18
246.978	7.31
247.194	6.54
247.409	6.53
247.625	6.53
247.841	7.1
248.057	7.51
248.272	7.43
248.488	6.73
248.703	7.07
248.919	7.1
249.135	6.95
249.35	6.35
249.566	6.97
249.782	6.63
249.997	6.7
250.213	5.13
250.428	4.98
250.644	5.6
250.859	5.71
251.075	5.68
251.29	6.37
251.506	6.88
251.721	7.25
251.937	6.44
252.152	6.4
252.368	5.91
252.583	6.77
252.798	5.87
253.014	6.1
253.229	5.84
253.445	5.32
253.66	5.32
253.875	5.03
254.091	5.99
254.306	5.79
254.521	5.48
254.737	5.91
254.952	5.77
255.167	5.78
255.383	5.96
255.598	6.95
255.813	6.89
256.028	6.67
256.244	6.07
256.459	5.87
256.674	5.76
256.889	6.01
257.104	6.08
257.32	6.37
257.535	6.24
257.75	6.2
257.965	5.72
258.18	5.85
258.395	5.8
258.61	5.89
258.826	5.81
259.041	6.2
259.256	6.34
259.471	6.43
259.686	5.96
259.901	6.25
260.116	6.21
260.331	6.78
260.546	6.85
260.761	7.11
260.976	7.38
261.191	7.07
261.406	6.14
261.621	6.11
261.836	5.96
262.05	7.06
262.265	7.07
262.48	6.91
262.695	6.75
262.91	6.9
263.125	5.75
263.34	5.43
263.555	5.97
263.769	6.9
263.984	6.74
264.199	6.58
264.414	5.91
264.629	5.6
264.843	5.52
265.058	5.54
265.273	5.46
265.488	5.98
265.702	5.84
265.917	5.98
266.132	5.57
266.346	5.67
266.561	5.27
266.776	5.41
266.99	5.86
267.205	5.67
267.42	5.63
267.634	5.6
267.849	5.99
268.063	6.25
268.278	5.46
268.492	5.23
268.707	4.96
268.922	5.72
269.136	5.67
269.351	5.39
269.565	4.95
269.78	4.97
269.994	5.02
270.209	4.6
270.423	4.76
270.637	4.83
270.852	5
271.066	4.96
271.281	4.66
271.495	4.55
271.709	4.55
271.924	5.15
272.138	5.34
272.353	5.31
272.567	5.45
272.781	4.99
272.996	5.01
273.21	5.34
273.424	5.45
273.638	5.18
273.853	5.47
274.067	5.36
274.281	4.83
274.495	4.3
274.71	4.47
274.924	4.34
275.138	4.62
275.352	4.66
275.566	4.24
275.781	4.5
275.995	4.66
276.209	4.53
276.423	4.91
276.637	5.55
276.851	5.55
277.065	5.54
277.279	5.74
277.493	5.91
277.707	6.1
277.921	6.8
278.135	6.69
278.349	6.41
278.563	5.92
278.777	5.9
278.991	5.79
279.205	5.9
279.419	5.55
279.633	5.5
279.847	5.78
280.061	5.81
280.275	5.67
280.489	5.13
280.703	5.83
280.917	6.1
281.131	5.69
281.344	5.71
281.558	5.69
281.772	5.9
281.986	5.9
282.2	5.88
282.414	5.96
282.627	5.79
282.841	6.24
283.055	6.11
283.269	5.93
283.482	6.5
283.696	6.08
283.91	6.28
284.123	6.3
284.337	6.51
284.551	6.28
284.764	6.36
284.978	6.23
285.192	5.95
285.405	5.45
285.619	5.39
285.833	4.46
286.046	4.6
286.26	4.57
286.473	4.25
286.687	3.98
286.9	3.9
287.114	3.82
287.327	3.92
287.541	4.02
287.754	4.35
287.968	4.63
288.181	5.28
288.395	5.09
288.608	4.92
288.822	5.06
289.035	4.86
289.248	4.7
289.462	4.53
289.675	4.67
289.889	5.33
290.102	5.09
290.315	4.97
290.529	5.01
290.742	5.35
290.955	5.55
291.169	5.22
291.382	5.57
291.595	5.77
291.808	5.98
292.022	6.02
292.235	5.28
292.448	5.62
292.661	5.7
292.875	5.72
293.088	5.76
293.301	5.57
293.514	6.23
293.727	6.27
293.94	6.22
294.153	5.83
294.367	5.42
294.58	5.53
294.793	5.42
295.006	5.44
295.219	5.16
295.432	5.28
295.645	5.58
295.858	5.18
296.071	5.13
296.284	5.1
296.497	5.45
296.71	5.5
296.923	5.74
297.136	5.72
297.349	5.7
297.562	5.86
297.775	5.5
297.988	5.48
298.201	5.37
298.414	5.35
298.626	5.48
298.839	5.54
299.052	5.34
299.265	5.62
299.478	5.77
299.691	5.47
299.903	5.31
300.116	5.51
300.329	5.15
300.542	5.31
300.755	5.16
300.967	5.2
301.18	4.79
301.393	5.39
301.605	4.59
301.818	4.55
302.031	5.15
302.243	5.57
302.456	5.76
302.669	5.75
302.881	6.28
303.094	6.58
303.307	6.48
303.519	6.85
303.732	6.75
303.944	7.23
304.157	7.31
304.37	7.24
304.582	6.8
304.795	6.66
305.007	6.98
305.22	6.51
305.432	6.98
305.645	6.91
305.857	7.02
306.069	6.66
306.282	6.43
306.494	6.47
306.707	6.51
306.919	6.76
307.132	6.56
307.344	6.71
307.556	7.21
307.769	6.53
307.981	6.66
308.193	6.43
308.406	6.78
308.618	6.98
308.83	6.86
309.043	6.4
309.255	6.6
309.467	6.72
309.679	6.81
309.892	6.24
310.104	6.38
310.316	6.36
310.528	6.37
310.74	6.49
310.953	6.31
311.165	6.29
311.377	6.74
311.589	6.55
311.801	6.62
312.013	6.25
312.225	6.35
312.437	6.31
312.649	6.46
312.862	6.44
313.074	5.98
313.286	6.1
313.498	6.32
313.71	6.18
313.922	6.54
314.134	6.14
314.346	6.13
314.558	6.04
314.77	6.37
314.982	6.4
315.193	6.15
315.405	6.42
315.617	6.48
315.829	6.37
316.041	6.45
316.253	5.49
316.465	6.17
316.677	6.16
316.888	6.37
317.1	5.8
317.312	5.79
317.524	6.25
317.736	6.19
317.947	6.06
318.159	5.81
318.371	5.57
318.583	5.81
318.794	5.62
319.006	5.65
319.218	5.93
319.43	6.44
319.641	6.61
319.853	6.57
320.064	6.55
320.276	6.7
320.488	6.98
320.699	7.18
320.911	7.33
321.123	7.34
321.334	7.07
321.546	7.29
321.757	7.28
321.969	6.99
322.18	6.8
322.392	6.87
322.603	7.15
322.815	7.19
323.026	7.13
323.238	7.01
323.449	7.24
323.661	7.38
323.872	7.25
324.083	7.45
324.295	7.71
324.506	8.12
324.718	8.11
324.929	7.83
325.14	7.52
325.352	8.07
325.563	8.37
325.774	8.28
325.986	8.41
326.197	8.46
326.408	8.53
326.62	8.24
326.831	8.35
327.042	8.31
327.253	8.37
327.464	8.51
327.676	8.25
327.887	8.41
328.098	8.44
328.309	8.33
328.52	7.98
328.732	7.7
328.943	8.06
329.154	7.91
329.365	8.46
329.576	7.83
329.787	8.49
329.998	8.29
330.209	8.16
330.42	8.06
330.631	7.8
330.842	8.28
331.053	8.06
331.264	7.72
331.475	7.52
331.686	7.07
331.897	7.47
332.108	6.97
332.319	7
332.53	7.17
332.741	7.31
332.952	7.64
333.163	7.48
333.374	7.79
333.585	7.81
333.795	7.94
334.006	8.05
334.217	8.17
334.428	8.48
334.639	8.5
334.849	8.2
335.06	8.08
335.271	8.18
335.482	7.94
335.692	7.83
335.903	7.75
336.114	7.6
336.325	7.55
336.535	7.9
336.746	7.43
336.957	7.5
337.167	8.03
337.378	7.67
337.589	7.73
337.799	7.74
338.01	7.8
338.22	7.95
338.431	7.79
338.642	7.51
338.852	7.44
339.063	7.56
339.273	7.49
339.484	6.97
339.694	7.37
339.905	7.06
340.115	7.43
340.326	7.53
340.536	7.29
340.746	7.38
340.957	7.61
341.167	7.56
341.378	7.66
341.588	7.36
341.799	7.47
342.009	7.51
342.219	7.85
342.43	7.57
342.64	7.59
342.85	7.81
343.061	7.91
343.271	8.05
343.481	7.72
343.691	7.52
343.902	7.76
344.112	7.89
344.322	7.48
344.532	7.06
344.743	7.16
344.953	7.09
345.163	7.2
345.373	7.22
345.583	6.8
345.793	6.73
346.004	6.92
346.214	6.77
346.424	6.83
346.634	7.35
346.844	7.36
347.054	7.38
347.264	7.07
347.474	6.86
347.684	6.72
347.894	7.21
348.104	7.16
348.314	7.11
348.524	7.37
348.734	7.13
348.944	6.8
349.154	7.57
349.364	7.6
349.574	7.51
349.784	7.84
349.994	8
350.204	7.75
350.413	8.1
350.623	8.09
350.833	8.14
351.043	8.14
351.253	8.18
351.463	7.53
351.672	7.45
351.882	7.85
352.092	7.68
352.302	7.47
352.511	7.14
352.721	6.98
352.931	7.23
353.141	6.85
353.35	6.83
353.56	6.98
353.77	7.14
353.979	7.04
354.189	6.94
354.399	6.98
354.608	6.92
354.818	7.07
355.027	7.15
355.237	6.91
355.447	6.93
355.656	6.9
355.866	6.87
356.075	6.55
356.285	6.71
356.494	6.76
356.704	6.57
356.913	6.6
357.123	6.81
357.332	6.81
357.542	6.85
357.751	6.83
357.96	6.82
358.17	6.63
358.379	6.7
358.589	6.63
358.798	6.33
359.007	6.14
359.217	6.21
359.426	5.96
359.635	6
359.845	5.92
360.054	6.1
360.263	6.29
360.472	6.51
360.682	6.58
360.891	6.62
361.1	6.65
361.309	6.7
361.519	6.64
361.728	6.69
361.937	6.52
362.146	6.61
362.355	6.55
362.564	6.4
362.774	6.28
362.983	6.25
363.192	6.27
363.401	6.49
363.61	6.54
363.819	6.62
364.028	6.93
364.237	7.05
364.446	6.62
364.655	6.57
364.864	6.31
365.073	6.3
365.282	6.16
365.491	6
365.7	5.73
365.909	5.81
366.118	5.87
366.327	5.75
366.536	5.66
366.745	6
366.954	5.79
367.162	5.97
367.371	6.16
367.58	6.24
367.789	6.39
367.998	6.53
368.207	6.54
368.415	6.26
368.624	6.19
368.833	5.9
369.042	6.19
369.25	6.73
369.459	6.81
369.668	6.64
369.877	6.63
370.085	6.53
370.294	6.44
370.503	6.14
370.711	6.37
370.92	6.28
371.129	6.59
371.337	6.32
371.546	5.74
371.754	5.63
371.963	5.51
372.171	5.26
372.38	5.25
372.589	5.12
372.797	5.32
373.006	5.21
373.214	5.47
373.423	5.77
373.631	5.63
373.84	5.84
374.048	5.82
374.256	5.79
374.465	6
374.673	5.83
374.882	6.08
375.09	6.15
375.298	6
375.507	5.81
375.715	5.48
375.923	5.54
376.132	5.74
376.34	5.82
376.548	6.04
376.757	6.22
376.965	6.4
377.173	6.42
377.381	6.2
377.59	6.4
377.798	6.35
378.006	6.36
378.214	6.52
378.423	6.37
378.631	6.28
378.839	5.79
379.047	5.59
379.255	5.49
379.463	5.25
379.671	5.47
379.879	5.62
380.088	5.34
380.296	5.23
380.504	5
380.712	5.27
380.92	5.26
381.128	5.49
381.336	5.55
381.544	5.35
381.752	5.57
381.96	5.57
382.168	5.28
382.376	5.44
382.584	5.61
382.791	5.79
382.999	5.74
383.207	5.68
383.415	5.79
383.623	5.74
383.831	5.89
384.039	5.7
384.247	5.84
384.454	6.07
384.662	6.12
384.87	5.99
385.078	5.81
385.285	5.55
385.493	5.66
385.701	5.56
385.909	5.69
386.116	5.57
386.324	5.58
386.532	5.32
386.739	4.99
386.947	4.98
387.155	5.07
387.362	5.24
387.57	5.05
387.778	4.94
387.985	4.75
388.193	4.59
388.4	4.57
388.608	4.46
388.816	4.36
389.023	4.74
389.231	4.45
389.438	4.31
389.646	4.2
389.853	4.2
390.061	4.4
390.268	4.65
390.475	4.58
390.683	4.5
390.89	4.59
391.098	4.76
391.305	4.59
391.512	4.93
391.72	4.98
391.927	4.97
392.135	5.1
392.342	4.95
392.549	4.85
392.756	5.03
392.964	5.24
393.171	5.15
393.378	5.01
393.586	4.82
393.793	4.72
394	4.9
394.207	4.96
394.414	4.88
394.622	4.77
394.829	4.84
395.036	4.63
395.243	4.48
395.45	4.73
395.657	4.77
395.864	4.92
396.072	4.87
396.279	4.77
396.486	4.72
396.693	4.71
396.9	4.64
397.107	4.42
397.314	4.55
397.521	4.62
397.728	4.47
397.935	4.61
398.142	4.61
398.349	4.61
398.556	4.43
398.763	4.32
398.97	4.27
399.177	4.19
399.383	4.21
399.59	4.15
399.797	4.02
400.004	4.05
400.211	3.88
400.418	3.81
400.625	3.78
400.831	3.94
401.038	4.04
401.245	3.94
401.452	4.09
401.658	4.07
401.865	4.12
402.072	4.09
402.279	4.1
402.485	3.95
402.692	3.97
402.899	3.84
403.105	3.76
403.312	3.62
403.519	3.88
403.725	3.89
403.932	4.01
404.138	3.7
404.345	3.76
404.552	3.75
404.758	3.94
404.965	3.82
405.171	3.95
405.378	3.84
405.584	3.95
405.791	3.72
405.997	3.57
406.204	3.44
406.41	3.75
406.617	3.81
406.823	3.82
407.029	3.86
407.236	3.92
407.442	3.96
407.649	3.88
407.855	3.84
408.061	3.81
408.268	3.95
408.474	4.05
408.68	4.09
408.887	4.06
409.093	3.97
409.299	3.85
409.505	3.91
409.712	3.91
409.918	4.02
410.124	4.06
410.33	4.04
410.537	4.04
410.743	4.15
410.949	3.92
411.155	3.79
411.361	3.78
411.567	3.8
411.773	3.65
411.98	3.68
412.186	3.68
412.392	3.7
412.598	3.66
412.804	3.63
413.01	3.34
413.216	3.5
413.422	3.57
413.628	3.48
413.834	3.54
414.04	3.57
414.246	3.5
414.452	3.51
414.658	3.49
414.864	3.64
415.07	3.7
415.275	3.8
415.481	3.72
415.687	3.69
415.893	3.65
416.099	3.46
416.305	3.49
416.511	3.53
416.716	3.4
416.922	3.38
417.128	3.22
417.334	3.11
417.539	3.05
417.745	3.05
417.951	3.05
418.157	3.12
418.362	3.24
418.568	3.18
418.774	3.1
418.979	3.12
419.185	3.05
419.391	3.15
419.596	3.17
419.802	3.19
420.008	3.18
420.213	3.26
420.419	3.19
420.624	3.24
420.83	3.31
421.035	3.34
421.241	3.42
421.446	3.48
421.652	3.51
421.857	3.46
422.063	3.49
422.268	3.49
422.474	3.4
422.679	3.52
422.885	3.37
423.09	3.33
423.295	3.32
423.501	3.23
423.706	3.19
423.911	3.06
424.117	3.03
424.322	2.92
424.527	2.91
424.733	2.84
424.938	2.77
425.143	2.85
425.349	2.81
425.554	2.73
425.759	2.81
425.964	2.83
426.169	2.96
426.375	3.05
426.58	3.09
426.785	3.01
426.99	3.05
427.195	3.13
427.4	3.02
427.605	2.97
427.811	3.09
428.016	3.1
428.221	3.06
428.426	2.9
428.631	2.84
428.836	2.82
429.041	3.01
429.246	3.09
429.451	2.91
429.656	2.92
429.861	2.99
430.066	2.93
430.271	2.86
430.476	2.85
430.681	2.85
430.886	2.84
431.09	2.84
431.295	2.72
431.5	2.65
431.705	2.69
431.91	2.78
432.115	2.65
432.32	2.72
432.524	2.64
432.729	2.68
432.934	2.67
433.139	2.7
433.343	2.73
433.548	2.79
433.753	2.72
433.958	2.71
434.162	2.61
434.367	2.69
434.572	2.63
434.776	2.6
434.981	2.64
435.186	2.6
435.39	2.61
435.595	2.56
435.799	2.6
436.004	2.66
436.209	2.81
436.413	2.82
436.618	2.86
436.822	2.79
437.027	2.87
437.231	2.79
437.436	2.92
437.64	2.89
437.845	2.87
438.049	2.84
438.253	2.82
438.458	2.72
438.662	2.72
438.867	2.81
439.071	2.96
439.275	2.95
439.48	2.87
439.684	2.82
439.888	2.79
440.093	2.75
440.297	2.77
440.501	2.84
440.706	2.92
440.91	2.89
441.114	2.73
441.318	2.65
441.523	2.59
441.727	2.7
441.931	2.7
442.135	2.78
442.339	2.98
442.543	2.87
442.748	2.84
442.952	2.73
443.156	2.74
443.36	2.75
443.564	2.65
443.768	2.72
443.972	2.7
444.176	2.71
444.38	2.69
444.584	2.57
444.788	2.56
444.992	2.56
445.196	2.65
445.4	2.67
445.604	2.7
445.808	2.74
446.012	2.69
446.216	2.72
446.42	2.63
446.624	2.65
446.828	2.68
447.032	2.71
447.235	2.7
447.439	2.56
447.643	2.58
447.847	2.59
448.051	2.56
448.254	2.65
448.458	2.55
448.662	2.67
448.866	2.72
449.069	2.73
449.273	2.76
449.477	2.65
449.681	2.72
449.884	2.72
450.088	2.76
450.292	2.66
450.495	2.66
450.699	2.75
450.902	2.63
451.106	2.55
451.31	2.5
451.513	2.54
451.717	2.55
451.92	2.59
452.124	2.54
452.327	2.51
452.531	2.7
452.734	2.64
452.938	2.64
453.141	2.69
453.345	2.74
453.548	2.69
453.752	2.66
453.955	2.75
454.158	2.71
454.362	2.78
454.565	2.72
454.769	2.69
454.972	2.72
455.175	2.62
455.379	2.61
455.582	2.49
455.785	2.48
455.988	2.46
456.192	2.46
456.395	2.42
456.598	2.38
456.801	2.46
457.005	2.44
457.208	2.44
457.411	2.52
457.614	2.56
457.817	2.61
458.021	2.61
458.224	2.65
458.427	2.62
458.63	2.7
458.833	2.59
459.036	2.57
459.239	2.59
459.442	2.54
459.645	2.51
459.848	2.55
460.051	2.52
460.254	2.56
460.457	2.47
460.66	2.48
460.863	2.38
461.066	2.47
461.269	2.43
461.472	2.38
461.675	2.42
461.878	2.45
462.081	2.31
462.284	2.27
462.486	2.3
462.689	2.25
462.892	2.24
463.095	2.27
463.298	2.31
463.5	2.4
463.703	2.45
463.906	2.56
464.109	2.53
464.311	2.5
464.514	2.61
464.717	2.61
464.92	2.64
465.122	2.65
465.325	2.66
465.528	2.75
465.73	2.64
465.933	2.6
466.135	2.54
466.338	2.59
466.541	2.72
466.743	2.7
466.946	2.72
467.148	2.77
467.351	2.82
467.553	2.72
467.756	2.48
467.958	2.55
468.161	2.6
468.363	2.58
468.566	2.52
468.768	2.49
468.971	2.37
469.173	2.35
469.375	2.22
469.578	2.13
469.78	2.27
469.983	2.37
470.185	2.38
470.387	2.29
470.59	2.38
470.792	2.51
470.994	2.52
471.196	2.6
471.399	2.64
471.601	2.72
471.803	2.78
472.005	2.72
472.208	2.72
472.41	2.68
472.612	2.72
472.814	2.63
473.016	2.54
473.218	2.51
473.421	2.56
473.623	2.53
473.825	2.62
474.027	2.6
474.229	2.65
474.431	2.67
474.633	2.69
474.835	2.68
475.037	2.69
475.239	2.72
475.441	2.73
475.643	2.68
475.845	2.67
476.047	2.63
476.249	2.64
476.451	2.63
476.653	2.71
476.855	2.72
477.057	2.62
477.258	2.63
477.46	2.62
477.662	2.71
477.864	2.74
478.066	2.82
478.268	2.8
478.469	2.76
478.671	2.74
478.873	2.65
479.075	2.68
479.276	2.72
479.478	2.73
479.68	2.71
479.882	2.65
480.083	2.63
480.285	2.58
480.487	2.59
480.688	2.62
480.89	2.63
481.091	2.63
481.293	2.6
481.495	2.67
481.696	2.64
481.898	2.65
482.099	2.65
482.301	2.65
482.502	2.66
482.704	2.65
482.905	2.67
483.107	2.68
483.308	2.71
483.51	2.71
483.711	2.69
483.913	2.72
484.114	2.71
484.315	2.71
484.517	2.73
484.718	2.72
484.92	2.75
485.121	2.72
485.322	2.67
485.524	2.65
485.725	2.65
485.926	2.64
486.127	2.61
486.329	2.62
486.53	2.63
486.731	2.63
486.932	2.62
487.134	2.61
487.335	2.59
487.536	2.66
487.737	2.64
487.938	2.62
488.139	2.61
488.341	2.57
488.542	2.57
488.743	2.55
488.944	2.53
489.145	2.55
489.346	2.53
489.547	2.58
489.748	2.52
489.949	2.55
490.15	2.52
490.351	2.58
490.552	2.62
490.753	2.64
490.954	2.65
491.155	2.64
491.356	2.64
491.557	2.62
491.758	2.62
491.959	2.67
492.159	2.6
492.36	2.7
492.561	2.68
492.762	2.74
492.963	2.67
493.164	2.66
493.364	2.73
493.565	2.68
493.766	2.72
493.967	2.76
494.167	2.76
494.368	2.78
494.569	2.78
494.769	2.8
494.97	2.66
495.171	2.69
495.371	2.73
495.572	2.72
495.773	2.82
495.973	2.86
496.174	2.81
496.375	2.76
496.575	2.83
496.776	2.84
496.976	2.87
497.177	2.98
497.377	3.02
497.578	3.01
497.778	3.04
497.979	3.02
498.179	2.93
498.38	3.02
498.58	3
498.78	2.98
498.981	2.96
499.181	2.87
499.382	2.86
499.582	2.85
499.782	2.91
499.983	2.88
500.183	2.92
500.383	3.04
500.584	3.02
500.784	3.13
500.984	3.21
501.184	3.18
501.385	3.19
501.585	3.17
501.785	3.2
501.985	3.25
502.185	3.23
502.386	3.15
502.586	3.13
502.786	3.15
502.986	3.18
503.186	2.99
503.386	3.06
503.586	3.18
503.786	3.17
503.987	3.07
504.187	3.09
504.387	3.14
504.587	3.2
504.787	3.21
504.987	3.13
505.187	3.09
505.387	3.27
505.587	3.25
505.786	3.25
505.986	3.33
506.186	3.46
506.386	3.48
506.586	3.56
506.786	3.55
506.986	3.58
507.186	3.61
507.386	3.64
507.585	3.65
507.785	3.66
507.985	3.64
508.185	3.71
508.384	3.7
508.584	3.66
508.784	3.62
508.984	3.65
509.183	3.65
509.383	3.72
509.583	3.74
509.782	3.77
509.982	3.83
510.182	3.85
510.381	3.77
510.581	3.79
510.781	3.83
510.98	3.86
511.18	3.9
511.379	3.95
511.579	3.93
511.778	3.97
511.978	3.93
512.177	3.9
512.377	3.88
512.576	3.97
512.776	3.93
512.975	4
513.175	3.97
513.374	3.9
513.573	3.9
513.773	3.99
513.972	3.98
514.172	4.02
514.371	4.06
514.57	4.1
514.77	4.03
514.969	4.15
515.168	4.05
515.367	4.14
515.567	4.17
515.766	4.15
515.965	4.1
516.164	4.18
516.364	4.16
516.563	4.18
516.762	4.24
516.961	4.22
517.16	4.21
517.359	4.22
517.559	4.24
517.758	4.27
517.957	4.31
518.156	4.39
518.355	4.37
518.554	4.42
518.753	4.41
518.952	4.36
519.151	4.48
519.35	4.52
519.549	4.57
519.748	4.58
519.947	4.6
520.146	4.62
520.345	4.66
520.544	4.7
520.743	4.7
520.942	4.77
521.141	4.82
521.339	4.86
521.538	4.77
521.737	4.77
521.936	4.78
522.135	4.8
522.333	4.84
522.532	4.83
522.731	4.94
522.93	5.04
523.129	5.05
523.327	5.13
523.526	5.04
523.725	5.11
523.923	5.14
524.122	5.16
524.321	5.18
524.519	5.21
524.718	5.24
524.917	5.2
525.115	5.15
525.314	5.16
525.512	5.14
525.711	5.21
525.909	5.22
526.108	5.3
526.306	5.31
526.505	5.32
526.703	5.33
526.902	5.33
527.1	5.33
527.299	5.37
527.497	5.38
527.696	5.41
527.894	5.43
528.092	5.46
528.291	5.44
528.489	5.46
528.688	5.46
528.886	5.49
529.084	5.5
529.283	5.52
529.481	5.55
529.679	5.56
529.877	5.53
530.076	5.61
530.274	5.66
530.472	5.71
530.67	5.78
530.869	5.9
531.067	5.94
531.265	6
531.463	6.01
531.661	6.02
531.859	6.05
532.057	6.17
532.255	6.1
532.454	6.09
532.652	6.1
532.85	6.11
533.048	6.03
533.246	6.08
533.444	6.08
533.642	6.13
533.84	6.15
534.038	6.16
534.236	6.09
534.434	6.14
534.632	6.18
534.83	6.16
535.027	6.15
535.225	6.25
535.423	6.23
535.621	6.23
535.819	6.2
536.017	6.24
536.215	6.26
536.412	6.33
536.61	6.35
536.808	6.38
537.006	6.45
537.203	6.53
537.401	6.57
537.599	6.59
537.797	6.7
537.994	6.78
538.192	6.75
538.39	6.84
538.587	6.85
538.785	6.91
538.983	6.95
539.18	6.98
539.378	7
539.575	6.96
539.773	6.98
539.97	7.01
540.168	7.03
540.366	7.1
540.563	7.1
540.761	7.12
540.958	7.15
541.155	7.2
541.353	7.26
541.55	7.29
541.748	7.35
541.945	7.44
542.143	7.46
542.34	7.51
542.537	7.55
542.735	7.61
542.932	7.76
543.129	7.82
543.327	7.82
543.524	7.81
543.721	7.82
543.919	7.84
544.116	7.86
544.313	7.92
544.51	7.96
544.708	8
544.905	8.06
545.102	8.08
545.299	8.14
545.496	8.25
545.693	8.26
545.891	8.33
546.088	8.31
546.285	8.38
546.482	8.42
546.679	8.52
546.876	8.6
547.073	8.61
547.27	8.62
547.467	8.58
547.664	8.63
547.861	8.79
548.058	8.88
548.255	9.06
548.452	9.12
548.649	9.1
548.846	9.11
549.043	9.09
549.24	9.03
549.437	8.99
549.633	9.13
549.83	9.12
550.027	9.1
550.224	9.14
550.421	9.24
550.618	9.23
550.814	9.31
551.011	9.39
551.208	9.51
551.405	9.74
551.601	9.9
551.798	9.98
551.995	10.03
552.191	10.11
552.388	10.11
552.585	10.18
552.781	10.29
552.978	10.43
553.175	10.43
553.371	10.47
553.568	10.46
553.764	10.51
553.961	10.61
554.157	10.65
554.354	10.75
554.55	10.92
554.747	10.82
554.943	10.77
555.14	10.79
555.336	10.92
555.533	10.97
555.729	11.02
555.926	11.01
556.122	11.01
556.318	11.12
556.515	11.19
556.711	11.25
556.907	11.35
557.104	11.46
557.3	11.42
557.496	11.36
557.693	11.42
557.889	11.49
558.085	11.53
558.281	11.66
558.478	11.67
558.674	11.7
558.87	11.65
559.066	11.82
559.262	11.83
559.459	11.93
559.655	12.07
559.851	12.1
560.047	12.27
560.243	12.44
560.439	12.39
560.635	12.47
560.831	12.61
561.027	12.59
561.223	12.62
561.419	12.75
561.615	12.9
561.811	12.9
562.007	12.9
562.203	12.77
562.399	12.63
562.595	12.69
562.791	12.83
562.987	12.81
563.183	12.92
563.379	13.03
563.575	13.03
563.771	13.02
563.966	13.05
564.162	13.2
564.358	13.28
564.554	13.48
564.75	13.57
564.945	13.51
565.141	13.49
565.337	13.57
565.533	13.47
565.728	13.42
565.924	13.47
566.12	13.66
566.315	13.67
566.511	13.77
566.707	13.79
566.902	13.77
567.098	13.79
567.293	13.85
567.489	13.9
567.684	14.03
567.88	14.1
568.076	14.2
568.271	14.1
568.467	14.2
568.662	14.24
568.858	14.27
569.053	14.45
569.248	14.61
569.444	14.71
569.639	14.65
569.835	14.74
570.03	14.87
570.225	14.81
570.421	14.87
570.616	14.83
570.812	14.92
571.007	14.94
571.202	14.91
571.397	14.79
571.593	14.75
571.788	14.92
571.983	15
572.178	15.03
572.374	15.07
572.569	15.1
572.764	15.2
572.959	15.13
573.154	15.18
573.35	15.16
573.545	15.26
573.74	15.31
573.935	15.37
574.13	15.31
574.325	15.32
574.52	15.42
574.715	15.48
574.91	15.53
575.105	15.56
575.3	15.59
575.495	15.64
575.69	15.71
575.885	15.8
576.08	15.63
576.275	15.71
576.47	15.71
576.665	15.73
576.86	15.8
577.055	15.81
577.25	15.74
577.444	15.76
577.639	15.78
577.834	15.82
578.029	15.9
578.224	16.03
578.418	16.11
578.613	16.19
578.808	16.08
579.003	16.11
579.197	16.13
579.392	16.39
579.587	16.38
579.781	16.52
579.976	16.51
580.171	16.49
580.365	16.44
580.56	16.51
580.755	16.51
580.949	16.58
581.144	16.6
581.338	16.56
581.533	16.51
581.727	16.57
581.922	16.54
582.116	16.66
582.311	16.75
582.505	16.96
582.7	16.75
582.894	16.76
583.089	16.84
583.283	16.9
583.478	17.06
583.672	17.12
583.866	17.22
584.061	17.24
584.255	17.13
584.449	17.16
584.644	17.16
584.838	17.26
585.032	17.27
585.226	17.21
585.421	17.05
585.615	17.08
585.809	17.1
586.003	17.09
586.198	17.15
586.392	17.34
586.586	17.32
586.78	17.29
586.974	17.3
587.168	17.29
587.363	17.46
587.557	17.48
587.751	17.41
587.945	17.49
588.139	17.53
588.333	17.55
588.527	17.57
588.721	17.66
588.915	17.69
589.109	17.64
589.303	17.8
589.497	17.92
589.691	17.99
589.885	17.92
590.079	17.88
590.273	17.84
590.466	17.9
590.66	17.78
590.854	17.68
591.048	17.67
591.242	17.85
591.436	17.74
591.629	17.55
591.823	17.56
592.017	17.63
592.211	17.66
592.404	17.74
592.598	17.72
592.792	17.76
592.986	17.8
593.179	17.82
593.373	17.72
593.567	17.89
593.76	18.06
593.954	18.14
594.147	18.2
594.341	18.16
594.535	18.22
594.728	18.11
594.922	18.22
595.115	18.18
595.309	18.14
595.502	18.25
595.696	18.19
595.889	18.12
596.083	18.15
596.276	18.11
596.47	18.14
596.663	18.04
596.856	18.12
597.05	18.08
597.243	18.15
597.437	18.33
597.63	18.36
597.823	18.54
598.017	18.51
598.21	18.43
598.403	18.57
598.596	18.65
598.79	18.74
598.983	18.68
599.176	18.71
599.369	18.66
599.563	18.69
599.756	18.63
599.949	18.55
600.142	18.48
600.335	18.62
600.528	18.66
600.722	18.68
600.915	18.57
601.108	18.62
601.301	18.58
601.494	18.51
601.687	18.4
601.88	18.51
602.073	18.32
602.266	18.46
602.459	18.4
602.652	18.32
602.845	18.27
603.038	18.4
603.231	18.45
603.424	18.43
603.617	18.48
603.809	18.49
604.002	18.41
604.195	18.5
604.388	18.4
604.581	18.42
604.774	18.38
604.966	18.41
605.159	18.44
605.352	18.42
605.545	18.64
605.737	18.68
605.93	18.66
606.123	18.6
606.316	18.72
606.508	18.74
606.701	18.85
606.894	18.91
607.086	19
607.279	18.84
607.471	18.75
607.664	18.65
607.857	18.71
608.049	18.73
608.242	18.79
608.434	18.79
608.627	18.98
608.819	18.98
609.012	18.98
609.204	18.72
609.397	18.73
609.589	18.91
609.782	18.75
609.974	18.74
610.166	18.69
610.359	18.71
610.551	18.74
610.743	18.56
610.936	18.39
611.128	18.3
611.32	18.5
611.513	18.73
611.705	18.63
611.897	18.87
612.09	19
612.282	18.94
612.474	19
612.666	19.05
612.858	19.14
613.051	19.35
613.243	19.38
613.435	19.4
613.627	19.31
613.819	19.35
614.011	19.39
614.203	19.14
614.395	19.37
614.588	19.43
614.78	19.33
614.972	19.27
615.164	19.23
615.356	19.22
615.548	19.41
615.74	19.39
615.932	19.35
616.124	19.08
616.315	19.15
616.507	19.01
616.699	18.77
616.891	18.76
617.083	18.82
617.275	18.82
617.467	18.92
617.659	18.83
617.85	18.75
618.042	18.85
618.234	19.12
618.426	19.25
618.618	19.56
618.809	19.59
619.001	19.65
619.193	19.66
619.384	19.61
619.576	19.66
619.768	19.79
619.959	19.83
620.151	19.88
620.343	19.42
620.534	19.39
620.726	19.09
620.917	19.22
621.109	19.16
621.301	19.12
621.492	19.18
621.684	19.16
621.875	19.16
622.067	19.23
622.258	19.13
622.45	19.45
622.641	19.24
622.832	19.26
623.024	19.3
623.215	19.37
623.407	19.37
623.598	19.4
623.789	19.45
623.981	19.34
624.172	19.33
624.363	19.25
624.555	19.32
624.746	19.59
624.937	19.83
625.129	19.8
625.32	19.92
625.511	19.96
625.702	19.85
625.893	19.95
626.085	19.97
626.276	19.87
626.467	20.08
626.658	20.01
626.849	19.86
627.04	19.61
627.231	19.69
627.422	19.58
627.614	19.61
627.805	19.72
627.996	19.62
628.187	19.54
628.378	19.67
628.569	19.49
628.76	19.52
628.951	19.6
629.142	19.71
629.332	19.57
629.523	19.68
629.714	19.65
629.905	19.67
630.096	19.49
630.287	19.44
630.478	19.35
630.669	19.49
630.859	19.6
631.05	19.52
631.241	19.56
631.432	19.55
631.623	19.4
631.813	19.57
632.004	19.44
632.195	19.49
632.385	19.54
632.576	19.6
632.767	19.41
632.957	19.35
633.148	19.34
633.339	19.39
633.529	19.36
633.72	19.47
633.91	19.25
634.101	19.3
634.292	19.3
634.482	19.23
634.673	19.27
634.863	19.6
635.054	19.42
635.244	19.81
635.435	19.9
635.625	20
635.815	19.77
636.006	19.9
636.196	19.85
636.387	19.97
636.577	20.18
636.767	20.27
636.958	20.13
637.148	20.35
637.338	20.08
637.529	19.88
637.719	20.01
637.909	20.2
638.099	20.17
638.29	20.27
638.48	20.28
638.67	20.07
638.86	20.03
639.05	20.07
639.241	19.98
639.431	19.78
639.621	19.82
639.811	19.76
640.001	19.76
640.191	19.84
640.381	19.92
640.571	19.91
640.761	20.02
640.951	20.05
641.141	20.04
641.331	20.01
641.521	20.19
641.711	20.07
641.901	20.04
642.091	19.87
642.281	19.7
642.471	19.52
642.661	19.54
642.851	19.61
643.041	19.48
643.231	19.38
643.42	19.38
643.61	19.24
643.8	19.57
643.99	19.62
644.18	19.59
644.369	19.88
644.559	19.92
644.749	19.97
644.939	20
645.128	19.98
645.318	19.96
645.508	20
645.697	20.33
645.887	20
646.076	20.06
646.266	20.48
646.456	20.41
646.645	20.65
646.835	20.54
647.024	20.52
647.214	20.58
647.403	20.53
647.593	20.65
647.782	20.63
647.972	20.69
648.161	20.62
648.351	20.34
648.54	20.2
648.73	20.15
648.919	20.07
649.108	20.17
649.298	20.05
649.487	20.17
649.677	20.41
649.866	20.2
650.055	20.28
650.244	20.25
650.434	20.23
650.623	20.16
650.812	20.1
651.002	20.18
651.191	20.02
651.38	20.1
651.569	19.95
651.758	19.73
651.947	20.02
652.137	20.12
652.326	20.05
652.515	20.19
652.704	20.5
652.893	20.54
653.082	20.7
653.271	20.54
653.46	20.69
653.649	20.89
653.838	20.88
654.027	20.79
654.216	20.86
654.405	20.92
654.594	21
654.783	20.8
654.972	20.64
655.161	20.57
655.35	20.67
655.539	20.61
655.728	20.64
655.916	20.65
656.105	20.48
656.294	20.29
656.483	20.26
656.672	20.33
656.86	20.41
657.049	20.54
657.238	20.55
657.427	20.78
657.615	20.86
657.804	20.83
657.993	20.67
658.181	20.71
658.37	20.84
658.559	20.76
658.747	20.57
658.936	20.41
659.125	20.25
659.313	20.05
659.502	20.03
659.69	19.96
659.879	19.81
660.067	20.01
660.256	20.15
660.444	20.01
660.633	20.1
660.821	20.3
661.01	20.46
661.198	20.71
661.387	20.94
661.575	20.92
661.763	20.74
661.952	20.85
662.14	20.83
662.328	20.65
662.517	20.67
662.705	20.69
662.893	20.43
663.082	20.29
663.27	20.28
663.458	20.48
663.646	20.43
663.834	20.51
664.023	20.63
664.211	20.7
664.399	20.7
664.587	20.69
664.775	20.56
664.963	20.85
665.152	21.01
665.34	20.85
665.528	20.68
665.716	20.7
665.904	20.52
666.092	20.5
666.28	20.66
666.468	20.78
666.656	20.81
666.844	21.1
667.032	20.95
667.22	21.08
667.408	21.32
667.596	21.06
667.784	21.1
667.971	21.38
668.159	21.32
668.347	20.98
668.535	20.7
668.723	20.67
668.911	20.54
669.098	20.57
669.286	20.51
669.474	20.28
669.662	20.57
669.849	20.5
670.037	20.48
670.225	20.54
670.413	20.49
670.6	20.96
670.788	20.94
670.976	20.85
671.163	20.9
671.351	20.9
671.538	21.04
671.726	20.94
671.913	21.12
672.101	20.92
672.289	21.04
672.476	21.15
672.664	21.16
672.851	21.39
673.039	21.47
673.226	21.39
673.413	20.93
673.601	20.87
673.788	21.04
673.976	20.93
674.163	21.08
674.35	20.93
674.538	20.92
674.725	20.76
674.912	20.59
675.1	20.69
675.287	20.6
675.474	20.77
675.662	20.6
675.849	20.43
676.036	20.61
676.223	20.85
676.411	20.76
676.598	20.8
676.785	20.63
676.972	20.87
677.159	20.68
677.346	20.57
677.533	20.77
677.721	21.2
677.908	21.4
678.095	21.2
678.282	21.33
678.469	21.42
678.656	21.5
678.843	21.53
679.03	21.44
679.217	21.62
679.404	21.8
679.591	21.79
679.778	21.51
679.964	21.41
680.151	21.33
680.338	20.96
680.525	20.98
680.712	20.76
680.899	20.7
681.086	20.74
681.272	20.59
681.459	20.79
681.646	20.8
681.833	20.95
682.02	21.02
682.206	21
682.393	20.88
682.58	20.92
682.766	20.95
682.953	21.07
683.14	20.81
683.326	20.97
683.513	20.92
683.7	21.05
683.886	21.08
684.073	21.05
684.259	21.32
684.446	21.64
684.632	21.76
684.819	21.99
685.005	21.95
685.192	22.25
685.378	22.17
685.565	21.99
685.751	21.7
685.938	21.71
686.124	21.65
686.31	21.62
686.497	21.73
686.683	21.63
686.87	21.53
687.056	21.59
687.242	21.35
687.429	21.36
687.615	21.34
687.801	21.82
687.987	21.79
688.174	21.78
688.36	21.59
688.546	21.54
688.732	21.45
688.918	21.56
689.105	21.35
689.291	21.21
689.477	21.18
689.663	21.1
689.849	20.56
690.035	20.32
690.221	20.57
690.407	20.75
690.593	20.53
690.779	20.47
690.965	20.38
691.151	20.69
691.337	21.01
691.523	21.2
691.709	21.25
691.895	21.74
692.081	22.12
692.267	21.6
692.453	21.3
692.639	21.49
692.825	21.71
693.011	21.69
693.196	21.79
693.382	21.84
693.568	22.02
693.754	21.79
693.94	21.24
694.125	21.3
694.311	21.82
694.497	22.14
694.682	22.13
694.868	22.18
695.054	22.2
695.239	22.1
695.425	21.85
695.611	21.86
695.796	22.19
695.982	22.28
696.168	22.09
696.353	21.97
696.539	21.89
696.724	21.96
696.91	21.68
697.095	21.69
697.281	21.44
697.466	21.58
697.652	21.53
697.837	21.38
698.023	21.44
698.208	21.36
698.393	21.33
698.579	21.22
698.764	20.98
698.949	21.29
699.135	21.32
699.32	21.54
699.505	21.27
699.691	21.14
699.876	21.16
700.061	21.1
700.246	21.13
700.432	20.94
700.617	21.16
700.802	21.25
700.987	20.97
701.172	21.02
701.358	20.64
701.543	21.06
701.728	20.83
701.913	20.93
702.098	21.06
702.283	21.38
702.468	21.62
702.653	21.47
702.838	21.63
703.023	21.69
703.208	21.43
703.393	21.42
703.578	21.28
703.763	21.78
703.948	22.06
704.133	22.01
704.318	21.73
704.503	21.33
704.688	21.45
704.873	21.68
705.057	21.62
705.242	21.84
705.427	21.95
705.612	21.9
705.797	21.54
705.981	21.18
706.166	21.22
706.351	20.99
706.536	21.5
706.72	21.33
706.905	21.12
707.09	20.85
707.274	20.6
707.459	20.98
707.644	21.33
707.828	21.46
708.013	21.24
708.197	21.23
708.382	21.48
708.567	21.53
708.751	21.41
708.936	21.39
709.12	21.68
709.305	21.9
709.489	21.79
709.673	21.33
709.858	21.29
710.042	22.01
710.227	22.07
710.411	22.11
710.596	21.97
710.78	22.51
710.964	22.52
711.149	22.62
711.333	22.81
711.517	22.62
711.702	23
711.886	23.08
712.07	22.81
712.254	22.44
712.438	22.38
712.623	22.19
712.807	21.72
712.991	21.95
713.175	22.04
713.359	21.64
713.544	21.61
713.728	21.42
713.912	21.27
714.096	21.06
714.28	21.58
714.464	21.58
714.648	21.74
714.832	22.07
715.016	21.78
715.2	21.73
715.384	21.83
715.568	22.28
715.752	22.32
715.936	22.48
716.12	22.66
716.304	22.38
716.488	22.77
716.671	22.84
716.855	22.7
717.039	22.45
717.223	22.56
717.407	22.7
717.59	22.3
717.774	22.33
717.958	22.37
718.142	22.07
718.325	22.24
718.509	21.61
718.693	21.91
718.877	21.7
719.06	21.64
719.244	21.28
719.428	20.77
719.611	20.99
719.795	20.31
719.978	20.32
720.162	20.28
720.345	20.11
720.529	20.15
720.713	19.68
720.896	19.54
721.08	19.76
721.263	19.71
721.446	19.69
721.63	19.48
721.813	20.05
721.997	19.64
722.18	19.67
722.364	19.88
722.547	19.81
722.73	19.78
722.914	20.08
723.097	20.23
723.28	20.24
723.464	20.44
723.647	20.34
723.83	20.48
724.013	20.76
724.197	20.89
724.38	20.81
724.563	20.84
724.746	20.82
724.929	20.89
725.112	20.83
725.296	20.9
725.479	21.02
725.662	21.41
725.845	21.39
726.028	21.33
726.211	21.28
726.394	21.25
726.577	21.08
726.76	21.28
726.943	20.78
727.126	21.02
727.309	20.98
727.492	21.07
727.675	20.82
727.858	20.75
728.041	20.51
728.224	20.54
728.407	20.52
728.589	21.04
728.772	20.85
728.955	21.46
729.138	21.25
729.321	21.15
729.503	21.02
729.686	21.11
729.869	20.95
730.052	20.98
730.234	21.09
730.417	21.03
730.6	20.34
730.782	20.15
730.965	20.42
731.148	20.43
731.33	20.63
731.513	20.7
731.695	20.94
731.878	21.6
732.061	21.65
732.243	21.64
732.426	21.69
732.608	22.23
732.791	22.07
732.973	21.55
733.156	21.62
733.338	21.57
733.52	21.88
733.703	21.72
733.885	21.52
734.068	21.7
734.25	21.5
734.432	21.49
734.615	21.22
734.797	21.14
734.979	21.37
735.162	21.39
735.344	21.63
735.526	21.35
735.708	21.52
735.891	20.93
736.073	21.04
736.255	21.4
736.437	20.91
736.619	20.93
736.802	21.52
736.984	21.3
737.166	21.74
737.348	22.04
737.53	22.32
737.712	22.19
737.894	22.11
738.076	21.86
738.258	21.83
738.44	22.09
738.622	22.32
738.804	22.15
738.986	22.17
739.168	22.1
739.35	21.53
739.532	21.33
739.714	21.52
739.896	21.56
740.078	22.27
740.259	22.38
740.441	22.99
740.623	23.28
740.805	23.68
740.987	23.62
741.168	23.09
741.35	23.41
741.532	23.5
741.714	23.38
741.895	23.55
742.077	23.39
742.259	23.08
742.44	23.02
742.622	23.24
742.804	22.55
742.985	22.88
743.167	23.3
743.348	23.05
743.53	23.58
743.711	22.76
743.893	22.66
744.075	22.7
744.256	22.74
744.438	22.83
744.619	22.48
744.8	23.19
744.982	22.8
745.163	22.7
745.345	22.91
745.526	22.71
745.707	23.46
745.889	24.17
746.07	24.02
746.252	24.1
746.433	23.29
746.614	22.92
746.795	22.59
746.977	22.75
747.158	22.46
747.339	22.64
747.52	22.88
747.702	23.17
747.883	22.68
748.064	22.11
748.245	22.18
748.426	22.15
748.607	22.11
748.788	22.19
748.97	22.1
749.151	21.96
749.332	21.97
749.513	21.26
749.694	20.49
749.875	21.36
750.056	21.75
750.237	21.71
750.418	22.53
750.599	22.57
750.78	22.75
750.96	22.58
751.141	23.46
751.322	23.78
751.503	23.75
751.684	24.16
751.865	23.42
752.046	23.8
752.226	23.49
752.407	22.99
752.588	23.38
752.769	23.3
752.949	23.5
753.13	22.77
753.311	21.89
753.492	21.5
753.672	21.64
753.853	21.36
754.034	20.86
754.214	20.32
754.395	20.26
754.575	20.21
754.756	19.8
754.937	19.98
755.117	20.43
755.298	20.88
755.478	21.21
755.659	21.13
755.839	19.99
756.02	19.58
756.2	20.21
756.381	20.48
756.561	21.07
756.741	21.21
756.922	20.88
757.102	20.66
757.283	20.36
757.463	20.66
757.643	20.93
757.823	22.16
758.004	22.92
758.184	22.59
758.364	22.84
758.545	22.31
758.725	22.25
758.905	22.41
759.085	22.72
759.265	23
759.446	22.93
759.626	22.56
759.806	22.64
759.986	22.46
760.166	23.08
760.346	22.57
760.526	22.64
760.706	22.94
760.886	22.76
761.066	22.81
761.246	23.04
761.426	22.81
761.606	23.04
761.786	22.31
761.966	22.25
762.146	22.23
762.326	22.07
762.506	22.37
762.686	22.07
762.866	22.47
763.046	22.21
763.225	21.67
763.405	21.68
763.585	21.52
763.765	21.91
763.945	21.79
764.124	22.15
764.304	22.54
764.484	22.06
764.664	22.27
764.843	21.9
765.023	21.83
765.203	21.85
765.382	21.89
765.562	21.66
765.741	21.9
765.921	22.02
766.101	21.36
766.28	20.9
766.46	21.32
766.639	21.37
766.819	22.05
766.998	22.01
767.178	22.38
767.357	22.27
767.537	22.78
767.716	22.71
767.896	22.33
768.075	22
768.254	22.12
768.434	21.24
768.613	20.91
768.792	20.08
768.972	20.82
769.151	20.8
769.33	21.01
769.51	20.44
769.689	19.75
769.868	20.19
770.047	20.93
770.226	21.42
770.406	22.11
770.585	21.92
770.764	22.39
770.943	21.24
771.122	21.11
771.301	21.31
771.48	21.6
771.66	22.34
771.839	21.39
772.018	20.62
772.197	20.44
772.376	20.6
772.555	21.35
772.734	20.48
772.913	19.92
773.092	19.56
773.271	18.8
773.449	18.48
773.628	18.59
773.807	19.98
773.986	19.44
774.165	19.31
774.344	19.46
774.523	19.44
774.701	20.16
774.88	21.12
775.059	21.28
775.238	21.44
775.417	21.85
775.595	21.29
775.774	20.79
775.953	21.47
776.131	21.02
776.31	20.73
776.489	20.7
776.667	21.15
776.846	20.87
777.025	20.34
777.203	21.13
777.382	21.69
777.56	22.32
777.739	22.38
777.917	22.68
778.096	22.89
778.274	22.57
778.453	22.17
778.631	21.71
778.81	22.22
778.988	23.09
779.166	22.36
779.345	22.38
779.523	21.98
779.702	22.06
779.88	21.89
780.058	21.47
780.237	21.88
780.415	22.28
780.593	21.97
780.771	22.18
780.95	22.21
781.128	22.89
781.306	21.92
781.484	21.9
781.662	21.88
781.841	21.96
782.019	22.87
782.197	22.74
782.375	22.31
782.553	22.36
782.731	22.15
782.909	21.79
783.087	21.39
783.265	21.67
783.443	21.86
783.621	22.01
783.799	21.82
783.977	21.14
784.155	20.84
784.333	21.95
784.511	21.65
784.689	20.99
784.867	21.36
785.045	21.63
785.223	21.77
785.4	22.19
785.578	22.2
785.756	22.1
785.934	23.15
786.112	22.86
786.289	21.48
786.467	21.93
786.645	22.59
786.823	22.28
787	21.51
787.178	20.68
787.356	20.4
787.533	19.91
787.711	20.47
787.889	19.97
788.066	20.45
788.244	20.96
788.421	19.74
788.599	19.03
788.776	19.4
788.954	19.1
789.131	19.33
789.309	18.96
789.486	18.99
789.664	19.12
789.841	18.83
790.019	18.32
790.196	18.38
790.373	19.75
790.551	20.26
790.728	19.75
790.906	21.09
791.083	20.9
791.26	21.19
791.437	21.55
791.615	20.61
791.792	20.82
791.969	19.3
792.146	19.8
792.324	20.05
792.501	20.21
792.678	19.75
792.855	19.56
793.032	20.23
793.209	20.98
793.387	21.3
793.564	23.69
793.741	23.44
793.918	25.58
794.095	25.06
794.272	24.12
794.449	23.59
794.626	23.93
794.803	23.34
794.98	23.52
795.157	22.46
795.334	21.78
795.511	19.61
795.688	20.06
795.864	19.59
796.041	19.78
796.218	20.38
796.395	21.06
796.572	21.39
796.749	22.55
796.925	22.98
797.102	23.88
797.279	23.54
797.456	23.38
797.632	23.19
797.809	22.97
797.986	21.98
798.162	21.67
798.339	20.79
798.516	20.03
798.692	19.36
798.869	19.11
799.046	18.56
799.222	19.53
799.399	19.89
799.575	19.49
799.752	19.65
799.928	20.42
800.105	20.3
800.281	20.97
800.458	22.75
800.634	22.95
800.811	22.7
800.987	22.46
801.163	22.29
801.34	22.5
801.516	22.45
801.692	22.53
801.869	21.65
802.045	22.25
802.221	22.1
802.398	21.87
802.574	21.8
802.75	21.79
802.926	22.58
803.103	22.53
803.279	22.6
803.455	23
803.631	22.83
803.807	23.27
803.983	23.55
804.16	23.81
804.336	23
804.512	22.63
804.688	22.62
804.864	21.73
805.04	21.4
805.216	20.72
805.392	20.23
805.568	21.11
805.744	21.42
805.92	20.79
806.096	19.97
806.272	19.18
806.448	19.78
806.623	20.59
806.799	20.02
806.975	19.91
807.151	20.68
807.327	22.06
807.503	21.45
807.678	21.22
807.854	21.62
808.03	21.65
808.206	22.15
808.381	21.75
808.557	20.72
808.733	21.61
808.908	21.97
809.084	20.99
809.26	19.4
809.435	18.94
809.611	19.06
809.787	18.68
809.962	18.69
810.138	18.28
810.313	18.27
810.489	19.29
810.664	19.52
810.84	18.6
811.015	19.07
811.191	19.12
811.366	19.71
811.542	20.39
811.717	19.58
811.892	20.81
812.068	21.18
812.243	20.66
812.419	20.59
812.594	18.96
812.769	20.29
812.944	20.52
813.12	20.28
813.295	18.68
813.47	19.08
813.645	19.29
813.821	18.5
813.996	17.68
814.171	16.83
814.346	15.36
814.521	17.25
814.697	17.51
814.872	17.59
815.047	18.03
815.222	19.73
815.397	18.38
815.572	18.7
815.747	19.04
815.922	19.89
816.097	21.43
816.272	20.87
816.447	20.39
816.622	19.51
816.797	19.9
816.972	19.58
817.147	19.37
817.322	20.01
817.496	20.17
817.671	20.53
817.846	20.93
818.021	21.92
818.196	22.78
818.371	22.89
818.545	24.05
818.72	25
818.895	25.98
819.069	25.63
819.244	25.19
819.419	24.57
819.594	24.16
819.768	24.59
819.943	23.54
820.117	23.3
820.292	22.55
820.467	21.95
820.641	21.28
820.816	21.04
820.99	21.39
821.165	21.71
821.339	21.9
821.514	21.57
821.688	21.63
821.863	21.62
822.037	21.87
822.212	22.28
822.386	22.08
822.56	22.15
822.735	22.42
822.909	22.22
823.084	22.15
823.258	21.89
823.432	21.98
823.606	21.61
823.781	21.61
823.955	21.33
824.129	21.19
824.303	21.09
824.478	21.15
824.652	20.28
824.826	20.28
825	20.27
825.174	20.92
825.348	21.31
825.523	21.56
825.697	21.57
825.871	22.02
826.045	21.8
826.219	22.36
826.393	22.34
826.567	22.77
826.741	22.88
826.915	22.67
827.089	22.37
827.263	22.09
827.437	22.38
827.611	21.83
827.784	21.08
827.958	21.15
828.132	20.87
828.306	20.5
828.48	20.53
828.654	20.62
828.827	20.74
829.001	20.43
829.175	20.9
829.349	20.4
829.522	21.35
829.696	21.46
829.87	21.67
830.044	21.11
830.217	20.92
830.391	20.62
830.565	20.29
830.738	19.2
830.912	19.45
831.085	17.62
831.259	17.46
831.432	18.05
831.606	18.71
831.779	18.25
831.953	18.85
832.126	19.88
832.3	20.56
832.473	20.42
832.647	21.35
832.82	21.9
832.994	22.72
833.167	22.61
833.34	21.41
833.514	21.3
833.687	21.17
833.86	21.58
834.034	21.07
834.207	20.92
834.38	20.44
834.553	20.09
834.727	19.92
834.9	20.15
835.073	20.82
835.246	21.49
835.419	21.77
835.593	21.12
835.766	20.4
835.939	20.4
836.112	20.76
836.285	20.58
836.458	21.7
836.631	20.94
836.804	20.11
836.977	18.89
837.15	19.47
837.323	18.09
837.496	17.9
837.669	18.24
837.842	18.7
838.015	17.58
838.188	17.11
838.361	14.98
838.533	14.15
838.706	13.59
838.879	13.84
839.052	13.93
839.225	13.27
839.398	14.33
839.57	15.23
839.743	14.7
839.916	15.62
840.088	18.82
840.261	18.54
840.434	21.3
840.607	21.95
840.779	22.67
840.952	20.67
841.124	22.42
841.297	23.42
841.47	23.01
841.642	21.05
841.815	19.45
841.987	19.22
842.16	21.29
842.332	19.38
842.505	19.63
842.677	18.88
842.85	19.1
843.022	18.81
843.194	17.28
843.367	18.12
843.539	19.39
843.712	19.59
843.884	16.14
844.056	12.8
844.229	13.97
844.401	13.73
844.573	11.52
844.745	11.09
844.918	9.5
845.09	12.45
845.262	11.3
845.434	11.97
845.606	12.78
845.779	17.63
845.951	18.18
846.123	15.76
846.295	14.38
846.467	14.02
846.639	12.9
846.811	16.59
846.983	13.6
847.155	13.7
847.327	13.73
847.499	16.03
847.671	11.46
847.843	13.76
848.015	13.76
848.187	17.24
848.359	19.64
848.531	16.64
848.703	14.61
848.875	16.36
849.047	17.84
849.218	18.61
849.39	16.97
849.562	16.57
849.734	16.26
849.905	16.93
850.077	14.18
850.249	12.77
850.421	16.88
850.592	17.49
850.764	15.32
850.936	15.15
851.107	13.96
851.279	11.15
851.451	18.54
851.622	20.17
851.794	24.75
851.965	26.14
852.137	28.41
852.308	28.61
852.48	29.9
852.651	31.97
852.823	27.69
852.994	28.95
853.166	29.97
853.337	23.99
853.509	18.28
853.68	15.86
853.851	12.46
854.023	10.68
854.194	14.21
854.365	9.32
854.537	7.75
854.708	9.45
854.879	8.32
855.05	7.22
855.222	6.75
855.393	13.8
855.564	9.06
855.735	9.93
855.906	7.25
856.078	4.37
856.249	10.01
856.42	3.93
856.591	8.39
856.762	5.8
856.933	6.3
857.104	4.09
857.275	0.58
857.446	6.73
857.617	12.3
857.788	18.34
857.959	18.51
858.13	19.42
858.301	26.8
858.472	22.47
858.643	25.96
858.814	28.11
858.985	30.86
859.155	30.08
859.326	27.24
859.497	23.56
859.668	25.52
859.839	31.72
860.009	29.04
860.18	23.83
860.351	28.34
860.522	31.91
860.692	31.4
860.863	30.17
861.034	29.59
861.204	30.84
861.375	28.24
861.546	27.32
861.716	23.55
861.887	20.77
862.057	23.75
862.228	19.95
862.398	11.34
862.569	12.43
862.739	11.55
862.91	14.59
863.08	13.79
863.251	19.6
863.421	13.94
863.592	11.75
863.762	17.57
863.932	15.3
864.103	17.28
864.273	21.64
864.443	19.36
864.614	15.46
864.784	11.69
864.954	13.52
865.125	7.73
865.295	8.08
865.465	12.92
865.635	12.75
865.805	14.36
865.976	15.65
866.146	14.41
866.316	15.98
866.486	21.35
866.656	22.57
866.826	24.9
866.996	26.53
867.166	28.15
867.336	26.14
867.506	22.53
867.676	21.05
867.846	19.08
868.016	19.29
868.186	15.06
868.356	13.54
868.526	12.81
868.696	12.12
868.866	12.9
869.036	10.8
869.206	5.44
869.376	3.09
869.545	-0.7
869.715	-0.78
869.885	6.23
870.055	7.69
870.224	4.91
870.394	5.38
870.564	6.57
870.734	9.87
870.903	9.8
871.073	9.65
871.243	8.88
871.412	13.87
871.582	17.4
871.751	10.16
871.921	12.86
872.091	13.68
872.26	12.61
872.43	12.65
872.599	10.13
872.769	15.04
872.938	22.11
873.108	24.29
873.277	28.28
873.446	21.32
873.616	24.12
873.785	26.19
873.955	26.16
874.124	23.88
874.293	20.88
874.463	21.81
874.632	25.19
874.801	20
874.971	16.29
875.14	12.88
875.309	14.4
875.478	14.93
875.647	10.47
875.817	13.17
875.986	15.93
876.155	20.73
876.324	24.59
876.493	19.88
876.662	17.15
876.831	18.99
877	18.91
877.17	21.32
877.339	17.14
877.508	22.14
877.677	17.92
877.846	15.31
878.015	9.64
878.184	0.1
878.352	-3.25
878.521	-0.59
878.69	-0.41
878.859	2.57
879.028	2.62
879.197	5.58
879.366	2.23
879.534	6.53
879.703	10.87
879.872	14.86
880.041	20.18
880.21	23.39
880.378	22.74
880.547	22.49
880.716	21.59
880.884	21.85
881.053	22.03
881.222	22.8
881.39	24.27
881.559	23.6
881.727	22.98
881.896	22.71
882.065	22.71
882.233	23.04
882.402	23.44
882.57	23.65
882.739	23.62
882.907	23.77
883.076	23.75
883.244	22.63
883.412	22.94
883.581	22.57
883.749	22.28
883.918	21.46
884.086	21.85
884.254	21.24
884.423	20.53
884.591	21.28
884.759	20.91
884.927	20.34
885.096	21.04
885.264	20.34
885.432	20.12
885.6	20.1
885.769	19.51
885.937	18.6
886.105	18.69
886.273	20.95
886.441	20.72
886.609	22.3
886.777	22.44
886.945	21.58
887.113	23.71
887.281	23.17
887.449	23.66
887.617	25.15
887.785	24.04
887.953	25.5
888.121	25.86
888.289	20.22
888.457	18.05
888.625	15.46
888.793	15.34
888.961	12.48
889.129	18.58
889.296	16.81
889.464	16.15
889.632	17.01
889.8	16.42
889.967	11.2
890.135	18.5
