Data from 2938547_Reflection_2.txt Node
Date: Mon Jun 15 00:16:57 EDT 2015
User: robert
Spectrometer: USB4E03002
Autoset integration time: false
Trigger mode: 4
Integration Time (sec): 1.000000E-1
Scans to average: 10
Electric dark correction enabled: true
Nonlinearity correction enabled: false
Boxcar width: 5
Stray light correction enabled: false
XAxis mode: Wavelengths
Stop averaging: false
Number of Pixels in Spectrum: 3648
>>>>>Begin Spectral Data<<<<<
177.575	61.65
177.794	75.25
178.014	58.45
178.233	33.47
178.452	65.59
178.672	65.77
178.891	73.39
179.11	169.91
179.33	185.56
179.549	93.83
179.768	54.28
179.987	7.47
180.207	29.87
180.426	-30.93
180.645	-35.82
180.864	-44.24
181.084	-114.9
181.303	-532.97
181.522	770.11
181.741	-747.54
181.96	3642.71
182.179	281.23
182.398	292.03
182.618	263.14
182.837	-4327.4
183.056	-448.11
183.275	-229.91
183.494	595.35
183.713	10.07
183.932	3.05
184.151	28.78
184.37	83.29
184.589	55.1
184.808	147.27
185.027	193.12
185.246	114.63
185.465	122.42
185.684	99.31
185.903	112.16
186.122	129.6
186.341	432.1
186.56	275.51
186.779	106.68
186.998	72.81
187.216	82.49
187.435	99.93
187.654	77.66
187.873	79.16
188.092	88.84
188.311	58.55
188.53	65.02
188.748	88.2
188.967	69.81
189.186	57.28
189.405	37.23
189.623	36.65
189.842	41.56
190.061	44.09
190.28	30.8
190.498	19.09
190.717	11.95
190.936	-34.79
191.154	-226.44
191.373	-552.5
191.592	-220.16
191.81	55.42
192.029	50.04
192.248	31.98
192.466	0.63
192.685	49.06
192.904	35.43
193.122	44.52
193.341	77.2
193.559	42.9
193.778	14.24
193.996	3.52
194.215	-109.82
194.433	-120.04
194.652	-27.42
194.87	-71.75
195.089	1729.66
195.307	131.22
195.526	480.36
195.744	3596.99
195.963	-240.25
196.181	-399.51
196.399	-557.96
196.618	-463.57
196.836	-217.88
197.055	-41.68
197.273	82.38
197.491	67.33
197.71	74.04
197.928	18.82
198.146	0.76
198.365	-247.05
198.583	-428.77
198.801	443.53
199.019	-166.78
199.238	1479.31
199.456	57.54
199.674	108.96
199.892	78.14
200.111	104
200.329	-31.72
200.547	-41.57
200.765	-907.62
200.983	-55.76
201.202	-164.21
201.42	77.19
201.638	124.96
201.856	69.96
202.074	24.03
202.292	75.07
202.51	110.11
202.728	204.31
202.946	-441.23
203.165	96.19
203.383	196.62
203.601	216.54
203.819	201.11
204.037	71.55
204.255	0.87
204.473	59.46
204.691	56.09
204.909	48.24
205.127	28.55
205.345	5.77
205.562	-62.19
205.78	-90.21
205.998	-196.42
206.216	-130.53
206.434	-839.37
206.652	-31.56
206.87	42.42
207.088	-4.67
207.306	38.93
207.523	-6.05
207.741	-52.06
207.959	-72.7
208.177	-1334.6
208.395	-267.57
208.612	-190.98
208.83	745.12
209.048	280.47
209.266	247.02
209.483	147.52
209.701	128.57
209.919	89.06
210.136	93.68
210.354	120.02
210.572	114.69
210.79	84.18
211.007	113.91
211.225	130.06
211.442	128.9
211.66	132.14
211.878	209.53
212.095	177.76
212.313	143.04
212.53	147.21
212.748	129.74
212.966	92.71
213.183	84.64
213.401	82.9
213.618	63.59
213.836	44.65
214.053	77.14
214.271	90.35
214.488	38.85
214.705	16.86
214.923	23.06
215.14	-16.97
215.358	36.38
215.575	28.9
215.793	-7.24
216.01	-18.29
216.227	11.79
216.445	-13.85
216.662	-17.47
216.879	23.11
217.097	13.34
217.314	-2.44
217.531	14
217.749	14.23
217.966	17.58
218.183	23.63
218.4	16.6
218.618	8.28
218.835	19.63
219.052	14.41
219.269	3.41
219.487	10.95
219.704	18.9
219.921	18.75
220.138	7.29
220.355	0.09
220.572	-6.35
220.79	8
221.007	16.39
221.224	-18.71
221.441	0.08
221.658	12.9
221.875	10.37
222.092	19.21
222.309	12.34
222.526	13.28
222.743	5.15
222.96	3.3
223.177	7.92
223.394	8.96
223.611	16.04
223.828	10.02
224.045	3.63
224.262	3.13
224.479	-5.83
224.696	1.87
224.913	4.53
225.13	7.84
225.347	9.03
225.564	6.71
225.781	4.75
225.997	4.62
226.214	6.31
226.431	7.31
226.648	7.81
226.865	9.29
227.082	8.77
227.298	8.03
227.515	7.46
227.732	6.82
227.949	6.98
228.165	6.89
228.382	7.5
228.599	6.31
228.816	6.46
229.032	6.54
229.249	6.39
229.466	5.28
229.682	5.67
229.899	7.25
230.116	7.9
230.332	8.61
230.549	5.98
230.765	5.41
230.982	6.62
231.199	6.06
231.415	4.26
231.632	3.38
231.848	6.92
232.065	6.1
232.281	3.93
232.498	3.07
232.714	2.01
232.931	4.57
233.147	6.72
233.364	5.42
233.58	5
233.797	7.6
234.013	7.57
234.23	5.67
234.446	5.51
234.662	9.06
234.879	9.94
235.095	9.57
235.312	9.93
235.528	9.37
235.744	10.31
235.961	9.49
236.177	9.49
236.393	11.77
236.61	13
236.826	12.82
237.042	10.01
237.258	10.65
237.475	9.12
237.691	10.43
237.907	8.48
238.123	8.61
238.339	10.08
238.556	7.06
238.772	4.84
238.988	4.73
239.204	3.49
239.42	4.44
239.636	3.88
239.853	5.29
240.069	4.83
240.285	4.95
240.501	5.03
240.717	5.02
240.933	6.23
241.149	6.92
241.365	6.86
241.581	8.08
241.797	8.41
242.013	8.74
242.229	8.13
242.445	8.46
242.661	9.52
242.877	9.69
243.093	9.5
243.309	10.26
243.525	9.75
243.741	9.75
243.957	9.2
244.173	8.38
244.388	8.72
244.604	8.99
244.82	8.86
245.036	8.01
245.252	8
245.468	7.69
245.683	7.04
245.899	6.79
246.115	6.73
246.331	6.68
246.547	6.5
246.762	6.18
246.978	5.85
247.194	6.05
247.409	5.99
247.625	5.43
247.841	5.59
248.057	6.07
248.272	6.28
248.488	5.37
248.703	5.38
248.919	6.38
249.135	6.22
249.35	6.13
249.566	5.28
249.782	5.43
249.997	5.31
250.213	4.63
250.428	4.08
250.644	4.27
250.859	4.42
251.075	4
251.29	3.92
251.506	3.85
251.721	3.99
251.937	3.35
252.152	3.02
252.368	3.44
252.583	2.94
252.798	2.25
253.014	2
253.229	2.82
253.445	2.85
253.66	1.67
253.875	2.09
254.091	2.88
254.306	3.93
254.521	3.78
254.737	4.35
254.952	5.73
255.167	6.27
255.383	7.02
255.598	5.93
255.813	5.6
256.028	5.69
256.244	4.76
256.459	4.35
256.674	3.68
256.889	4.25
257.104	4.34
257.32	4.51
257.535	4.62
257.75	4.63
257.965	4.75
258.18	4.91
258.395	4.82
258.61	5.28
258.826	5.24
259.041	5.59
259.256	5.63
259.471	5.5
259.686	5.41
259.901	5.38
260.116	4.96
260.331	5.42
260.546	5.45
260.761	6
260.976	5.91
261.191	6.1
261.406	5.68
261.621	5.12
261.836	4.82
262.05	5.02
262.265	5.39
262.48	6.26
262.695	6.14
262.91	5.64
263.125	5.08
263.34	4.92
263.555	5.17
263.769	6.3
263.984	6.18
264.199	6
264.414	6.18
264.629	6.17
264.843	5.51
265.058	5.42
265.273	5.74
265.488	5.54
265.702	5.31
265.917	5.16
266.132	4.46
266.346	5.17
266.561	5.18
266.776	5.18
266.99	4.66
267.205	5.19
267.42	5.34
267.634	5.67
267.849	6.04
268.063	6.69
268.278	6.26
268.492	6.1
268.707	5.74
268.922	6.37
269.136	6.21
269.351	6.22
269.565	5.44
269.78	5.31
269.994	4.96
270.209	4.89
270.423	4.44
270.637	4.61
270.852	4.93
271.066	4.71
271.281	4.59
271.495	4.55
271.709	4.94
271.924	5.37
272.138	4.89
272.353	5.06
272.567	5.3
272.781	5.34
272.996	5.31
273.21	5.32
273.424	5.73
273.638	5.45
273.853	5.23
274.067	4.75
274.281	4.27
274.495	4.43
274.71	4.54
274.924	3.88
275.138	4.25
275.352	3.76
275.566	3.13
275.781	3.06
275.995	3.36
276.209	3.16
276.423	3.26
276.637	3.68
276.851	3.61
277.065	3.63
277.279	4.35
277.493	4.31
277.707	4.4
277.921	4.8
278.135	4.85
278.349	4.66
278.563	4.56
278.777	4.91
278.991	4.99
279.205	4.81
279.419	4.44
279.633	4.29
279.847	4.07
280.061	4.55
280.275	4.44
280.489	4.55
280.703	4.64
280.917	5.04
281.131	4.67
281.344	4.67
281.558	4.91
281.772	5.21
281.986	5.09
282.2	5.42
282.414	5.14
282.627	5.38
282.841	5.46
283.055	5.26
283.269	4.93
283.482	5.38
283.696	5.24
283.91	5.28
284.123	5.46
284.337	5.35
284.551	5.01
284.764	5.31
284.978	5.01
285.192	4.49
285.405	4.43
285.619	4.31
285.833	3.3
286.046	3.24
286.26	3.47
286.473	2.74
286.687	2.93
286.9	2.85
287.114	2.78
287.327	2.88
287.541	2.98
287.754	2.74
287.968	3.29
288.181	4.01
288.395	3.97
288.608	3.69
288.822	3.69
289.035	3.41
289.248	3.47
289.462	3.47
289.675	3.66
289.889	4.12
290.102	4.33
290.315	4.22
290.529	4.4
290.742	4.34
290.955	4.43
291.169	4.43
291.382	4.51
291.595	4.42
291.808	4.29
292.022	4.45
292.235	4.21
292.448	4.56
292.661	4.77
292.875	4.68
293.088	4.67
293.301	4.62
293.514	5.06
293.727	5.02
293.94	5.19
294.153	5.24
294.367	4.63
294.58	4.76
294.793	4.42
295.006	4.26
295.219	3.69
295.432	3.89
295.645	4.36
295.858	4.36
296.071	4.54
296.284	4.43
296.497	4.27
296.71	4.58
296.923	4.68
297.136	4.86
297.349	4.6
297.562	4.88
297.775	4.8
297.988	4.5
298.201	4.17
298.414	3.83
298.626	3.72
298.839	3.98
299.052	4.01
299.265	4.07
299.478	4.32
299.691	4.3
299.903	4.61
300.116	4.76
300.329	4.65
300.542	5.08
300.755	5.46
300.967	5.93
301.18	6.02
301.393	5.95
301.605	5.8
301.818	5.43
302.031	5.82
302.243	6
302.456	5.84
302.669	5.79
302.881	5.84
303.094	5.84
303.307	5.65
303.519	5.79
303.732	5.83
303.944	5.8
304.157	5.71
304.37	5.65
304.582	5.35
304.795	5.32
305.007	5.42
305.22	4.92
305.432	4.85
305.645	4.93
305.857	5.04
306.069	5.09
306.282	4.78
306.494	4.98
306.707	5.08
306.919	5.19
307.132	4.79
307.344	4.85
307.556	5.42
307.769	5.09
307.981	4.58
308.193	4.35
308.406	4.31
308.618	4.35
308.83	4.45
309.043	4.32
309.255	4.46
309.467	4.92
309.679	5.04
309.892	4.42
310.104	4.58
310.316	4.9
310.528	4.61
310.74	4.83
310.953	4.64
311.165	4.43
311.377	4.6
311.589	4.47
311.801	4.18
312.013	3.99
312.225	4.41
312.437	4.46
312.649	4.15
312.862	4.15
313.074	3.83
313.286	4.16
313.498	4.76
313.71	4.31
313.922	4.29
314.134	4.27
314.346	4.07
314.558	4.2
314.77	4.73
314.982	5.34
315.193	5.3
315.405	5.2
315.617	5.33
315.829	5.12
316.041	5.31
316.253	5.1
316.465	5.13
316.677	4.95
316.888	4.74
317.1	4.11
317.312	4.16
317.524	4.53
317.736	4.72
317.947	4.88
318.159	4.44
318.371	4.24
318.583	4.1
318.794	4.46
319.006	4.67
319.218	4.97
319.43	5.19
319.641	5.03
319.853	5.61
320.064	5.29
320.276	5.26
320.488	5.55
320.699	5.78
320.911	6
321.123	6.42
321.334	6.04
321.546	6.22
321.757	6.49
321.969	6.74
322.18	6.25
322.392	6.44
322.603	6.56
322.815	6.22
323.026	6.08
323.238	6.08
323.449	5.61
323.661	5.69
323.872	5.5
324.083	5.27
324.295	4.88
324.506	4.83
324.718	4.9
324.929	4.86
325.14	5.18
325.352	5.61
325.563	5.76
325.774	6.05
325.986	6.23
326.197	6.22
326.408	6.15
326.62	6.12
326.831	6.08
327.042	6.04
327.253	5.65
327.464	5.33
327.676	4.97
327.887	4.74
328.098	4.44
328.309	4.63
328.52	4.44
328.732	4.8
328.943	5
329.154	5.07
329.365	5.66
329.576	5.77
329.787	6.64
329.998	6.56
330.209	6.53
330.42	6.44
330.631	6.2
330.842	6.29
331.053	6.26
331.264	6.22
331.475	6.26
331.686	6.2
331.897	6.16
332.108	5.03
332.319	5.69
332.53	5.98
332.741	6.06
332.952	5.95
333.163	5.96
333.374	5.22
333.585	4.96
333.795	4.92
334.006	4.73
334.217	4.92
334.428	5.75
334.639	5.49
334.849	5.49
335.06	5.68
335.271	6
335.482	5.74
335.692	5.96
335.903	5.78
336.114	5.66
336.325	5.74
336.535	5.81
336.746	5.7
336.957	5.46
337.167	5.57
337.378	5.27
337.589	5.22
337.799	5.37
338.01	5.77
338.22	6.55
338.431	6.46
338.642	6.08
338.852	6.14
339.063	6.13
339.273	6.26
339.484	6
339.694	6.33
339.905	6.5
340.115	6.77
340.326	6.42
340.536	5.9
340.746	5.83
340.957	5.95
341.167	6.09
341.378	6.22
341.588	5.8
341.799	5.9
342.009	5.74
342.219	5.61
342.43	5.86
342.64	6.08
342.85	6.09
343.061	6.36
343.271	6.58
343.481	6.24
343.691	6.07
343.902	6.57
344.112	6.39
344.322	6.2
344.532	5.94
344.743	5.68
344.953	5.69
345.163	5.72
345.373	5.8
345.583	5.27
345.793	5.13
346.004	5.03
346.214	4.71
346.424	5.1
346.634	5.37
346.844	5.67
347.054	5.61
347.264	5.56
347.474	5.57
347.684	5.41
347.894	5.94
348.104	5.99
348.314	6.03
348.524	5.96
348.734	5.38
348.944	5.21
349.154	5.28
349.364	5.08
349.574	5.24
349.784	5.21
349.994	5.15
350.204	4.89
350.413	4.96
350.623	4.81
350.833	4.94
351.043	5.25
351.253	5.11
351.463	5.1
351.672	5.27
351.882	5.04
352.092	5.11
352.302	5.12
352.511	4.96
352.721	5.09
352.931	5.15
353.141	5.15
353.35	5.42
353.56	5.71
353.77	5.51
353.979	5.42
354.189	5.39
354.399	5.72
354.608	5.71
354.818	5.89
355.027	5.97
355.237	5.8
355.447	5.54
355.656	5.38
355.866	5.17
356.075	5.16
356.285	5.17
356.494	5.33
356.704	4.84
356.913	4.66
357.123	4.68
357.332	4.43
357.542	4.76
357.751	4.89
357.96	4.74
358.17	5.1
358.379	5.05
358.589	5.11
358.798	4.78
359.007	5.01
359.217	5.22
359.426	5.25
359.635	5.44
359.845	5.4
360.054	5.67
360.263	5.81
360.472	5.54
360.682	5.55
360.891	5.55
361.1	5.71
361.309	5.64
361.519	5.63
361.728	5.46
361.937	5.27
362.146	5.18
362.355	5.02
362.564	4.87
362.774	4.89
362.983	4.93
363.192	4.84
363.401	4.78
363.61	4.66
363.819	4.72
364.028	4.82
364.237	4.89
364.446	4.75
364.655	4.55
364.864	4.52
365.073	4.46
365.282	4.38
365.491	4.43
365.7	4.46
365.909	4.64
366.118	4.47
366.327	4.64
366.536	4.53
366.745	4.71
366.954	4.72
367.162	4.65
367.371	4.92
367.58	4.84
367.789	4.74
367.998	4.89
368.207	4.83
368.415	4.62
368.624	4.66
368.833	4.58
369.042	4.45
369.25	4.57
369.459	4.58
369.668	4.52
369.877	4.66
370.085	4.58
370.294	4.54
370.503	4.27
370.711	4.47
370.92	4.37
371.129	4.56
371.337	4.54
371.546	4.36
371.754	4.58
371.963	4.35
372.171	4.12
372.38	3.9
372.589	3.59
372.797	3.74
373.006	3.71
373.214	3.88
373.423	3.74
373.631	3.57
373.84	3.5
374.048	3.33
374.256	3.35
374.465	3.34
374.673	3.61
374.882	3.86
375.09	3.96
375.298	3.77
375.507	3.58
375.715	3.58
375.923	3.75
376.132	4.21
376.34	4.22
376.548	4.43
376.757	4.59
376.965	4.56
377.173	4.54
377.381	4.5
377.59	4.75
377.798	4.59
378.006	4.67
378.214	4.75
378.423	4.69
378.631	4.64
378.839	4.11
379.047	4.14
379.255	4.1
379.463	3.96
379.671	4
379.879	4.14
380.088	4.14
380.296	4.11
380.504	4.14
380.712	3.98
380.92	4.03
381.128	4.14
381.336	4.18
381.544	4.11
381.752	4.19
381.96	4.27
382.168	4.15
382.376	4.3
382.584	4.35
382.791	4.18
382.999	4.07
383.207	4.07
383.415	4.34
383.623	4.09
383.831	4.33
384.039	4.26
384.247	4.11
384.454	4.19
384.662	4.2
384.87	4.07
385.078	4.09
385.285	4.26
385.493	4.23
385.701	4.21
385.909	4.41
386.116	4.28
386.324	4.2
386.532	4.11
386.739	3.85
386.947	3.7
387.155	3.82
387.362	3.92
387.57	3.58
387.778	3.37
387.985	3.33
388.193	3.2
388.4	3.1
388.608	3.13
388.816	3.26
389.023	3.39
389.231	3.36
389.438	3.38
389.646	3.29
389.853	3.32
390.061	3.58
390.268	3.61
390.475	3.75
390.683	3.75
390.89	3.78
391.098	3.95
391.305	3.88
391.512	4.02
391.72	3.92
391.927	3.82
392.135	4.07
392.342	3.96
392.549	4.01
392.756	3.93
392.964	3.96
393.171	3.88
393.378	3.52
393.586	3.42
393.793	3.56
394	3.62
394.207	3.57
394.414	3.31
394.622	3.27
394.829	3.16
395.036	3.06
395.243	3.02
395.45	3.15
395.657	3.25
395.864	3.32
396.072	3.03
396.279	2.96
396.486	3.21
396.693	3.26
396.9	3.24
397.107	3.05
397.314	2.98
397.521	2.96
397.728	2.96
397.935	3.14
398.142	3.26
398.349	3.24
398.556	3.32
398.763	3.1
398.97	3.29
399.177	3.24
399.383	3.28
399.59	3.43
399.797	3.46
400.004	3.45
400.211	3.34
400.418	3.2
400.625	3.19
400.831	3.08
401.038	3.21
401.245	2.93
401.452	2.94
401.658	3.05
401.865	3.09
402.072	3.07
402.279	2.99
402.485	2.74
402.692	2.69
402.899	2.71
403.105	2.59
403.312	2.42
403.519	2.65
403.725	2.62
403.932	2.74
404.138	2.53
404.345	2.57
404.552	2.66
404.758	2.89
404.965	2.91
405.171	2.79
405.378	2.78
405.584	2.99
405.791	2.87
405.997	2.85
406.204	2.74
406.41	2.97
406.617	2.98
406.823	2.83
407.029	2.78
407.236	2.76
407.442	2.94
407.649	2.97
407.855	2.94
408.061	2.81
408.268	2.89
408.474	2.75
408.68	2.74
408.887	2.6
409.093	2.69
409.299	2.75
409.505	2.76
409.712	2.79
409.918	2.92
410.124	2.89
410.33	2.97
410.537	3.08
410.743	3.23
410.949	3.1
411.155	3.11
411.361	3.04
411.567	2.92
411.773	2.85
411.98	2.8
412.186	2.73
412.392	2.72
412.598	2.69
412.804	2.63
413.01	2.44
413.216	2.46
413.422	2.64
413.628	2.57
413.834	2.61
414.04	2.67
414.246	2.75
414.452	2.85
414.658	2.88
414.864	3.04
415.07	3.07
415.275	3.18
415.481	3.2
415.687	3.11
415.893	3.06
416.099	3.03
416.305	3.11
416.511	3.08
416.716	2.93
416.922	2.9
417.128	2.77
417.334	2.67
417.539	2.61
417.745	2.59
417.951	2.54
418.157	2.62
418.362	2.67
418.568	2.53
418.774	2.49
418.979	2.55
419.185	2.52
419.391	2.61
419.596	2.65
419.802	2.7
420.008	2.72
420.213	2.8
420.419	2.75
420.624	2.79
420.83	2.82
421.035	2.74
421.241	2.71
421.446	2.77
421.652	2.75
421.857	2.72
422.063	2.76
422.268	2.77
422.474	2.67
422.679	2.73
422.885	2.57
423.09	2.62
423.295	2.67
423.501	2.73
423.706	2.68
423.911	2.61
424.117	2.59
424.322	2.42
424.527	2.41
424.733	2.39
424.938	2.27
425.143	2.4
425.349	2.34
425.554	2.26
425.759	2.2
425.964	2.15
426.169	2.17
426.375	2.11
426.58	2.27
426.785	2.22
426.99	2.21
427.195	2.38
427.4	2.29
427.605	2.28
427.811	2.4
428.016	2.4
428.221	2.44
428.426	2.39
428.631	2.48
428.836	2.31
429.041	2.43
429.246	2.42
429.451	2.19
429.656	2.17
429.861	2.29
430.066	2.23
430.271	2.21
430.476	2.09
430.681	2.05
430.886	2.01
431.09	2.1
431.295	1.99
431.5	2.07
431.705	2.16
431.91	2.21
432.115	2.12
432.32	2.15
432.524	2.11
432.729	2.07
432.934	2.08
433.139	2.09
433.343	2.04
433.548	2.07
433.753	2.07
433.958	2.07
434.162	2.02
434.367	1.98
434.572	2.02
434.776	1.95
434.981	2.14
435.186	2.11
435.39	2.1
435.595	2.19
435.799	2.2
436.004	2.12
436.209	2.17
436.413	2.14
436.618	2.23
436.822	2.16
437.027	2.2
437.231	2.11
437.436	2.22
437.64	2.17
437.845	2.1
438.049	2.12
438.253	2.16
438.458	2.13
438.662	2.2
438.867	2.22
439.071	2.22
439.275	2.22
439.48	2.21
439.684	2.17
439.888	2.2
440.093	2.22
440.297	2.23
440.501	2.22
440.706	2.2
440.91	2.16
441.114	2.03
441.318	2.04
441.523	2.03
441.727	2.12
441.931	2.12
442.135	2.22
442.339	2.29
442.543	2.13
442.748	2.19
442.952	2.12
443.156	2.07
443.36	2.04
443.564	2.01
443.768	2.01
443.972	2.03
444.176	2.04
444.38	1.99
444.584	1.97
444.788	2.03
444.992	2.02
445.196	2.03
445.4	2.07
445.604	2.12
445.808	2.13
446.012	2.16
446.216	2.12
446.42	2.06
446.624	2
446.828	1.95
447.032	1.94
447.235	1.91
447.439	1.91
447.643	1.91
447.847	2
448.051	2.05
448.254	2
448.458	2
448.662	2.04
448.866	2.18
449.069	2.29
449.273	2.23
449.477	2.12
449.681	2.19
449.884	2.12
450.088	2.05
450.292	1.99
450.495	2.03
450.699	1.96
450.902	1.91
451.106	1.8
451.31	1.75
451.513	1.83
451.717	1.96
451.92	1.95
452.124	2.05
452.327	2.04
452.531	2.1
452.734	2.1
452.938	2.17
453.141	2.29
453.345	2.36
453.548	2.43
453.752	2.35
453.955	2.32
454.158	2.34
454.362	2.37
454.565	2.32
454.769	2.32
454.972	2.34
455.175	2.31
455.379	2.17
455.582	2.14
455.785	2.05
455.988	2.19
456.192	2.19
456.395	2.21
456.598	2.19
456.801	2.29
457.005	2.24
457.208	2.22
457.411	2.22
457.614	2.22
457.817	2.32
458.021	2.27
458.224	2.28
458.427	2.22
458.63	2.19
458.833	2.09
459.036	2.05
459.239	2.07
459.442	2.05
459.645	2.03
459.848	2.15
460.051	2.06
460.254	2.07
460.457	1.91
460.66	1.96
460.863	1.9
461.066	1.94
461.269	1.83
461.472	1.78
461.675	1.78
461.878	1.81
462.081	1.6
462.284	1.51
462.486	1.6
462.689	1.59
462.892	1.68
463.095	1.85
463.298	1.86
463.5	1.97
463.703	2.02
463.906	2.07
464.109	2
464.311	2.02
464.514	2.02
464.717	1.98
464.92	2.06
465.122	2.01
465.325	2.06
465.528	2.12
465.73	2.04
465.933	1.96
466.135	1.91
466.338	2
466.541	2.08
466.743	2.16
466.946	2.17
467.148	2.22
467.351	2.25
467.553	2.06
467.756	1.91
467.958	1.91
468.161	1.88
468.363	1.92
468.566	1.78
468.768	1.81
468.971	1.7
469.173	1.6
469.375	1.51
469.578	1.6
469.78	1.63
469.983	1.74
470.185	1.81
470.387	1.85
470.59	1.82
470.792	1.89
470.994	1.81
471.196	1.84
471.399	1.89
471.601	1.95
471.803	1.8
472.005	1.79
472.208	1.69
472.41	1.56
472.612	1.65
472.814	1.62
473.016	1.64
473.218	1.65
473.421	1.65
473.623	1.65
473.825	1.68
474.027	1.65
474.229	1.71
474.431	1.77
474.633	1.91
474.835	1.86
475.037	1.9
475.239	1.89
475.441	1.92
475.643	1.89
475.845	1.89
476.047	1.87
476.249	1.91
476.451	1.93
476.653	2.02
476.855	1.98
477.057	2.02
477.258	2.03
477.46	2.04
477.662	2.01
477.864	2.11
478.066	2.19
478.268	2.18
478.469	2.2
478.671	2.17
478.873	2.09
479.075	2.16
479.276	1.99
479.478	1.99
479.68	1.99
479.882	2.02
480.083	1.96
480.285	1.89
480.487	1.94
480.688	1.93
480.89	1.94
481.091	1.95
481.293	1.94
481.495	1.99
481.696	1.96
481.898	1.96
482.099	1.96
482.301	1.96
482.502	1.98
482.704	1.98
482.905	2
483.107	2.02
483.308	2.05
483.51	2.05
483.711	2.05
483.913	2.1
484.114	2.12
484.315	2.14
484.517	2.16
484.718	2.15
484.92	2.15
485.121	2.15
485.322	2.14
485.524	2.14
485.725	2.09
485.926	2.11
486.127	2.1
486.329	2.12
486.53	2.12
486.731	2.13
486.932	2.17
487.134	2.21
487.335	2.16
487.536	2.16
487.737	2.16
487.938	2.16
488.139	2.19
488.341	2.22
488.542	2.22
488.743	2.19
488.944	2.16
489.145	2.13
489.346	2.07
489.547	2.1
489.748	2.09
489.949	2.06
490.15	2.06
490.351	2.03
490.552	2.01
490.753	2.01
490.954	2.04
491.155	2.05
491.356	2.04
491.557	2.04
491.758	2.07
491.959	2.12
492.159	2.12
492.36	2.21
492.561	2.17
492.762	2.18
492.963	2.13
493.164	2.16
493.364	2.19
493.565	2.18
493.766	2.19
493.967	2.16
494.167	2.08
494.368	2.17
494.569	2.18
494.769	2.23
494.97	2.1
495.171	2.09
495.371	2.08
495.572	2.11
495.773	2.16
495.973	2.18
496.174	2.22
496.375	2.18
496.575	2.14
496.776	2.12
496.976	2.16
497.177	2.27
497.377	2.31
497.578	2.26
497.778	2.27
497.979	2.17
498.179	2.09
498.38	2.06
498.58	2.09
498.78	2.14
498.981	2.14
499.181	2.04
499.382	2.05
499.582	2.07
499.782	2.13
499.983	2.12
500.183	2.28
500.383	2.34
500.584	2.33
500.784	2.36
500.984	2.39
501.184	2.31
501.385	2.35
501.585	2.36
501.785	2.35
501.985	2.42
502.185	2.32
502.386	2.3
502.586	2.32
502.786	2.38
502.986	2.38
503.186	2.35
503.386	2.43
503.586	2.53
503.786	2.49
503.987	2.42
504.187	2.43
504.387	2.51
504.587	2.53
504.787	2.51
504.987	2.51
505.187	2.58
505.387	2.65
505.587	2.65
505.786	2.6
505.986	2.58
506.186	2.77
506.386	2.81
506.586	2.87
506.786	2.86
506.986	2.9
507.186	2.95
507.386	2.9
507.585	2.89
507.785	2.88
507.985	2.88
508.185	2.96
508.384	2.87
508.584	2.87
508.784	2.83
508.984	2.84
509.183	2.82
509.383	2.82
509.583	2.91
509.782	2.89
509.982	2.95
510.182	2.95
510.381	2.96
510.581	2.97
510.781	2.98
510.98	3.04
511.18	3.05
511.379	3.12
511.579	3.12
511.778	3.13
511.978	3.22
512.177	3.19
512.377	3.25
512.576	3.25
512.776	3.24
512.975	3.17
513.175	3.14
513.374	3.13
513.573	3.14
513.773	3.19
513.972	3.2
514.172	3.19
514.371	3.21
514.57	3.25
514.77	3.18
514.969	3.34
515.168	3.39
515.367	3.48
515.567	3.49
515.766	3.43
515.965	3.37
516.164	3.45
516.364	3.42
516.563	3.46
516.762	3.45
516.961	3.54
517.16	3.58
517.359	3.6
517.559	3.59
517.758	3.63
517.957	3.63
518.156	3.69
518.355	3.7
518.554	3.77
518.753	3.76
518.952	3.73
519.151	3.8
519.35	3.7
519.549	3.75
519.748	3.75
519.947	3.81
520.146	3.9
520.345	3.91
520.544	3.86
520.743	3.9
520.942	3.96
521.141	4.05
521.339	4.04
521.538	4.11
521.737	4.16
521.936	4.2
522.135	4.15
522.333	4.21
522.532	4.22
522.731	4.3
522.93	4.41
523.129	4.46
523.327	4.48
523.526	4.47
523.725	4.52
523.923	4.46
524.122	4.51
524.321	4.59
524.519	4.62
524.718	4.61
524.917	4.59
525.115	4.54
525.314	4.51
525.512	4.56
525.711	4.59
525.909	4.61
526.108	4.64
526.306	4.67
526.505	4.68
526.703	4.7
526.902	4.74
527.1	4.77
527.299	4.81
527.497	4.83
527.696	4.85
527.894	4.86
528.092	4.87
528.291	4.89
528.489	4.87
528.688	4.88
528.886	4.9
529.084	4.89
529.283	4.89
529.481	4.9
529.679	4.91
529.877	4.91
530.076	4.95
530.274	4.99
530.472	5.04
530.67	5.09
530.869	5.15
531.067	5.18
531.265	5.24
531.463	5.25
531.661	5.27
531.859	5.3
532.057	5.38
532.255	5.38
532.454	5.43
532.652	5.45
532.85	5.52
533.048	5.5
533.246	5.54
533.444	5.57
533.642	5.64
533.84	5.68
534.038	5.7
534.236	5.67
534.434	5.75
534.632	5.7
534.83	5.67
535.027	5.64
535.225	5.7
535.423	5.7
535.621	5.76
535.819	5.73
536.017	5.73
536.215	5.75
536.412	5.81
536.61	5.78
536.808	5.87
537.006	5.93
537.203	5.96
537.401	5.99
537.599	6.03
537.797	6.05
537.994	6.19
538.192	6.21
538.39	6.28
538.587	6.29
538.785	6.35
538.983	6.36
539.18	6.43
539.378	6.46
539.575	6.46
539.773	6.44
539.97	6.47
540.168	6.45
540.366	6.47
540.563	6.5
540.761	6.55
540.958	6.61
541.155	6.66
541.353	6.71
541.55	6.73
541.748	6.78
541.945	6.88
542.143	6.86
542.34	6.89
542.537	6.91
542.735	6.94
542.932	6.99
543.129	7
543.327	6.99
543.524	6.94
543.721	7.04
543.919	7.07
544.116	7.06
544.313	7.18
544.51	7.2
544.708	7.29
544.905	7.34
545.102	7.35
545.299	7.42
545.496	7.52
545.693	7.48
545.891	7.43
546.088	7.42
546.285	7.42
546.482	7.44
546.679	7.53
546.876	7.59
547.073	7.66
547.27	7.7
547.467	7.64
547.664	7.75
547.861	7.92
548.058	8.05
548.255	8.25
548.452	8.36
548.649	8.33
548.846	8.29
549.043	8.3
549.24	8.33
549.437	8.4
549.633	8.6
549.83	8.49
550.027	8.5
550.224	8.57
550.421	8.54
550.618	8.54
550.814	8.65
551.011	8.77
551.208	8.96
551.405	9.1
551.601	9.21
551.798	9.19
551.995	9.25
552.191	9.33
552.388	9.28
552.585	9.39
552.781	9.46
552.978	9.58
553.175	9.7
553.371	9.58
553.568	9.49
553.764	9.46
553.961	9.47
554.157	9.47
554.354	9.52
554.55	9.66
554.747	9.62
554.943	9.61
555.14	9.68
555.336	9.69
555.533	9.83
555.729	9.99
555.926	9.99
556.122	10
556.318	10.23
556.515	10.35
556.711	10.42
556.907	10.62
557.104	10.8
557.3	10.69
557.496	10.67
557.693	10.66
557.889	10.63
558.085	10.82
558.281	11.04
558.478	10.9
558.674	10.95
558.87	10.99
559.066	10.98
559.262	11.07
559.459	11.3
559.655	11.46
559.851	11.62
560.047	11.71
560.243	11.73
560.439	11.75
560.635	12.01
560.831	12.03
561.027	12.02
561.223	12.06
561.419	12.04
561.615	12.05
561.811	12.08
562.007	12.09
562.203	12.08
562.399	12.12
562.595	12.11
562.791	12.12
562.987	12.12
563.183	12.27
563.379	12.47
563.575	12.67
563.771	12.79
563.966	12.82
564.162	12.83
564.358	12.88
564.554	13
564.75	13.1
564.945	13.16
565.141	13.33
565.337	13.42
565.533	13.37
565.728	13.24
565.924	13.26
566.12	13.37
566.315	13.5
566.511	13.66
566.707	13.72
566.902	13.77
567.098	13.77
567.293	13.79
567.489	13.85
567.684	13.86
567.88	13.98
568.076	14.05
568.271	14.06
568.467	14.23
568.662	14.3
568.858	14.37
569.053	14.44
569.248	14.57
569.444	14.67
569.639	14.62
569.835	14.75
570.03	14.89
570.225	14.93
570.421	15.03
570.616	14.92
570.812	15.04
571.007	15.02
571.202	15.15
571.397	15.2
571.593	15.25
571.788	15.34
571.983	15.41
572.178	15.48
572.374	15.42
572.569	15.42
572.764	15.49
572.959	15.43
573.154	15.5
573.35	15.43
573.545	15.49
573.74	15.53
573.935	15.57
574.13	15.57
574.325	15.57
574.52	15.67
574.715	15.82
574.91	15.89
575.105	15.92
575.3	16.02
575.495	16.15
575.69	16.19
575.885	16.17
576.08	16.2
576.275	16.35
576.47	16.39
576.665	16.56
576.86	16.59
577.055	16.6
577.25	16.67
577.444	16.69
577.639	16.69
577.834	16.64
578.029	16.78
578.224	16.9
578.418	16.97
578.613	17.04
578.808	17.07
579.003	17.04
579.197	17.13
579.392	17.23
579.587	17.19
579.781	17.27
579.976	17.38
580.171	17.38
580.365	17.32
580.56	17.29
580.755	17.22
580.949	17.25
581.144	17.25
581.338	17.23
581.533	17.19
581.727	17.4
581.922	17.33
582.116	17.4
582.311	17.44
582.505	17.55
582.7	17.64
582.894	17.62
583.089	17.72
583.283	17.82
583.478	18.03
583.672	18.19
583.866	18.13
584.061	18.21
584.255	18.11
584.449	18.28
584.644	18.37
584.838	18.21
585.032	18.27
585.226	18.18
585.421	18.21
585.615	18.19
585.809	18.12
586.003	18.08
586.198	18.14
586.392	18.28
586.586	18.13
586.78	18.06
586.974	18.21
587.168	18.34
587.363	18.45
587.557	18.44
587.751	18.39
587.945	18.5
588.139	18.57
588.333	18.66
588.527	18.63
588.721	18.91
588.915	19.04
589.109	19.11
589.303	19.28
589.497	19.3
589.691	19.3
589.885	19.29
590.079	19.26
590.273	19.36
590.466	19.42
590.66	19.54
590.854	19.32
591.048	19.34
591.242	19.37
591.436	19.28
591.629	19.28
591.823	19.4
592.017	19.5
592.211	19.49
592.404	19.53
592.598	19.54
592.792	19.56
592.986	19.62
593.179	19.65
593.373	19.66
593.567	19.59
593.76	19.69
593.954	19.7
594.147	19.72
594.341	19.86
594.535	19.91
594.728	19.89
594.922	19.96
595.115	20.01
595.309	20
595.502	20.03
595.696	20.1
595.889	20.03
596.083	20.14
596.276	20.22
596.47	20.15
596.663	20.11
596.856	20.13
597.05	20.08
597.243	20.16
597.437	20.25
597.63	20.37
597.823	20.54
598.017	20.66
598.21	20.65
598.403	20.76
598.596	20.92
598.79	20.88
598.983	20.93
599.176	20.89
599.369	20.68
599.563	20.78
599.756	20.61
599.949	20.57
600.142	20.59
600.335	20.53
600.528	20.35
600.722	20.41
600.915	20.43
601.108	20.49
601.301	20.48
601.494	20.49
601.687	20.49
601.88	20.76
602.073	20.62
602.266	20.63
602.459	20.63
602.652	20.66
602.845	20.63
603.038	20.79
603.231	20.91
603.424	20.91
603.617	20.99
603.809	20.89
604.002	20.7
604.195	20.89
604.388	20.87
604.581	20.91
604.774	20.98
604.966	20.98
605.159	20.98
605.352	20.88
605.545	21.14
605.737	21.23
605.93	21.21
606.123	21.2
606.316	21.1
606.508	21.04
606.701	21.07
606.894	21.07
607.086	21.14
607.279	20.97
607.471	20.95
607.664	20.88
607.857	20.96
608.049	21.13
608.242	21.24
608.434	21.31
608.627	21.39
608.819	21.5
609.012	21.54
609.204	21.34
609.397	21.47
609.589	21.61
609.782	21.64
609.974	21.55
610.166	21.51
610.359	21.48
610.551	21.46
610.743	21.47
610.936	21.34
611.128	21.37
611.32	21.63
611.513	21.58
611.705	21.45
611.897	21.49
612.09	21.6
612.282	21.58
612.474	21.69
612.666	21.69
612.858	21.71
613.051	21.92
613.243	21.79
613.435	21.77
613.627	21.74
613.819	21.99
614.011	21.97
614.203	21.95
614.395	21.86
614.588	21.74
614.78	21.74
614.972	21.89
615.164	21.85
615.356	21.93
615.548	22.03
615.74	22.15
615.932	21.85
616.124	21.74
616.315	21.69
616.507	21.89
616.699	21.91
616.891	21.83
617.083	21.8
617.275	21.77
617.467	21.84
617.659	21.79
617.85	21.82
618.042	21.91
618.234	22.24
618.426	22.42
618.618	22.57
618.809	22.71
619.001	22.79
619.193	22.69
619.384	22.7
619.576	22.7
619.768	22.71
619.959	22.56
620.151	22.86
620.343	22.49
620.534	22.4
620.726	22.26
620.917	22.17
621.109	22.33
621.301	22.41
621.492	22.4
621.684	22.45
621.875	22.6
622.067	22.8
622.258	22.58
622.45	22.82
622.641	22.78
622.832	22.66
623.024	22.81
623.215	22.91
623.407	22.79
623.598	22.85
623.789	22.9
623.981	22.79
624.172	22.68
624.363	22.61
624.555	22.73
624.746	22.81
624.937	23.13
625.129	22.84
625.32	22.91
625.511	23.08
625.702	22.97
625.893	23
626.085	23.02
626.276	23.03
626.467	23.18
626.658	23.03
626.849	22.9
627.04	22.76
627.231	23.03
627.422	23.09
627.614	22.99
627.805	23.16
627.996	23.26
628.187	23.33
628.378	23.46
628.569	23.41
628.76	23.45
628.951	23.67
629.142	23.79
629.332	23.7
629.523	23.51
629.714	23.62
629.905	23.65
630.096	23.42
630.287	23.34
630.478	23.29
630.669	23.44
630.859	23.33
631.05	23.18
631.241	23.09
631.432	23
631.623	22.94
631.813	23.09
632.004	22.99
632.195	22.99
632.385	22.97
632.576	23.01
632.767	22.83
632.957	23.05
633.148	23.19
633.339	23.16
633.529	23.41
633.72	23.55
633.91	23.33
634.101	23.43
634.292	23.6
634.482	23.58
634.673	23.74
634.863	24.05
635.054	23.76
635.244	23.9
635.435	24.02
635.625	23.83
635.815	23.58
636.006	23.81
636.196	23.88
636.387	23.77
636.577	23.81
636.767	23.54
636.958	23.35
637.148	23.69
637.338	23.5
637.529	23.36
637.719	23.53
637.909	23.72
638.099	23.75
638.29	23.6
638.48	23.61
638.67	23.67
638.86	23.78
639.05	23.64
639.241	23.53
639.431	23.4
639.621	23.51
639.811	23.61
640.001	23.48
640.191	23.5
640.381	23.61
640.571	23.59
640.761	23.54
640.951	23.62
641.141	23.76
641.331	23.9
641.521	24.13
641.711	24.06
641.901	23.84
642.091	23.74
642.281	23.6
642.471	23.43
642.661	23.49
642.851	23.71
643.041	23.79
643.231	23.68
643.42	23.53
643.61	23.42
643.8	23.52
643.99	23.84
644.18	24.02
644.369	24.06
644.559	24.28
644.749	24.36
644.939	24.31
645.128	24.07
645.318	24.09
645.508	24.05
645.697	24.21
645.887	23.95
646.076	23.88
646.266	23.99
646.456	24.09
646.645	24.05
646.835	24
647.024	24.07
647.214	24.21
647.403	24.17
647.593	24.38
647.782	24.34
647.972	24.67
648.161	24.59
648.351	24.74
648.54	24.57
648.73	24.55
648.919	24.66
649.108	24.64
649.298	24.52
649.487	24.54
649.677	24.71
649.866	24.52
650.055	24.4
650.244	24.54
650.434	24.24
650.623	24.39
650.812	24.42
651.002	24.4
651.191	24.29
651.38	24.4
651.569	24.53
651.758	24.24
651.947	24.34
652.137	24.53
652.326	24.38
652.515	24.37
652.704	24.23
652.893	24.18
653.082	24.02
653.271	24.12
653.46	24.28
653.649	24.44
653.838	24.5
654.027	24.49
654.216	24.41
654.405	24.48
654.594	24.67
654.783	24.76
654.972	24.93
655.161	25.03
655.35	24.9
655.539	24.8
655.728	24.64
655.916	24.89
656.105	25.05
656.294	25.01
656.483	25.09
656.672	25.05
656.86	25.04
657.049	24.87
657.238	24.91
657.427	24.93
657.615	25.16
657.804	25.1
657.993	24.93
658.181	24.97
658.37	24.92
658.559	24.78
658.747	24.75
658.936	24.81
659.125	25.24
659.313	25.13
659.502	25.14
659.69	24.96
659.879	25
660.067	25.1
660.256	24.99
660.444	25.03
660.633	24.91
660.821	25.11
661.01	25.19
661.198	24.63
661.387	24.93
661.575	24.91
661.763	25.07
661.952	25.05
662.14	25.01
662.328	25.27
662.517	25.21
662.705	25.47
662.893	25.3
663.082	25.1
663.27	25.12
663.458	24.88
663.646	24.87
663.834	24.63
664.023	24.75
664.211	24.99
664.399	24.95
664.587	25.01
664.775	24.87
664.963	25.08
665.152	25.14
665.34	25.48
665.528	25.62
665.716	25.68
665.904	25.76
666.092	25.83
666.28	25.67
666.468	25.67
666.656	25.74
666.844	25.64
667.032	25.64
667.22	25.92
667.408	25.89
667.596	25.86
667.784	25.83
667.971	26.01
668.159	25.75
668.347	25.5
668.535	25.37
668.723	25.13
668.911	25.3
669.098	25.34
669.286	25.08
669.474	24.78
669.662	24.92
669.849	25.05
670.037	24.78
670.225	25.23
670.413	25.24
670.6	25.27
670.788	25.39
670.976	25.37
671.163	25.14
671.351	25.16
671.538	25.23
671.726	25.13
671.913	24.94
672.101	25.13
672.289	25.12
672.476	25.35
672.664	25.7
672.851	25.88
673.039	26.26
673.226	26.32
673.413	26.16
673.601	26.22
673.788	26.25
673.976	26.72
674.163	26.86
674.35	26.59
674.538	26.74
674.725	26.63
674.912	26.81
675.1	26.71
675.287	26.96
675.474	26.98
675.662	27.06
675.849	27.08
676.036	26.77
676.223	26.77
676.411	26.66
676.598	26.44
676.785	26.3
676.972	26.11
677.159	25.97
677.346	25.73
677.533	25.93
677.721	25.87
677.908	25.98
678.095	26.11
678.282	26.17
678.469	26.25
678.656	26.39
678.843	26.47
679.03	26.54
679.217	26.65
679.404	26.71
679.591	26.73
679.778	26.83
679.964	26.66
680.151	26.45
680.338	26.38
680.525	26.48
680.712	26.21
680.899	26.13
681.086	26.31
681.272	26.4
681.459	26.59
681.646	26.63
681.833	26.58
682.02	26.89
682.206	27.26
682.393	27.16
682.58	27.15
682.766	27.32
682.953	27.43
683.14	27.23
683.326	27.42
683.513	27.3
683.7	27.44
683.886	27.37
684.073	27.27
684.259	27.13
684.446	27.25
684.632	27.64
684.819	27.96
685.005	28.04
685.192	28.18
685.378	27.55
685.565	27.66
685.751	27.4
685.938	27.66
686.124	27.5
686.31	27.52
686.497	27.35
686.683	26.87
686.87	26.73
687.056	26.67
687.242	26.56
687.429	26.93
687.615	26.7
687.801	27
687.987	26.91
688.174	27.02
688.36	26.91
688.546	26.97
688.732	27.04
688.918	26.91
689.105	26.76
689.291	26.72
689.477	26.59
689.663	26.52
689.849	26.34
690.035	26.04
690.221	26
690.407	25.95
690.593	25.92
690.779	26.13
690.965	26.32
691.151	26.16
691.337	26.06
691.523	26.08
691.709	26.24
691.895	26.14
692.081	26.57
692.267	26.64
692.453	26.42
692.639	26.35
692.825	26.26
693.011	25.91
693.196	26.13
693.382	26.41
693.568	26.5
693.754	26.54
693.94	26.6
694.125	26.68
694.311	26.76
694.497	27.02
694.682	27.13
694.868	26.96
695.054	27.13
695.239	27.12
695.425	27.03
695.611	27.18
695.796	27.01
695.982	27.02
696.168	26.77
696.353	26.79
696.539	26.96
696.724	26.95
696.91	27.03
697.095	27
697.281	26.81
697.466	26.69
697.652	26.49
697.837	26.42
698.023	26.61
698.208	26.64
698.393	26.69
698.579	26.68
698.764	26.87
698.949	26.97
699.135	26.84
699.32	27.15
699.505	27.25
699.691	27.39
699.876	27.53
700.061	27.4
700.246	27.17
700.432	26.96
700.617	26.89
700.802	26.48
700.987	26.36
701.172	26.99
701.358	26.81
701.543	26.57
701.728	26.55
701.913	26.63
702.098	26.48
702.283	26.95
702.468	27.2
702.653	26.83
702.838	27.44
703.023	27.26
703.208	27.11
703.393	27.3
703.578	27.59
703.763	27.81
703.948	27.87
704.133	28.22
704.318	28.16
704.503	27.58
704.688	27.54
704.873	27.31
705.057	27.37
705.242	27.14
705.427	26.75
705.612	26.72
705.797	26.4
705.981	26.73
706.166	26.66
706.351	26.34
706.536	26.8
706.72	26.98
706.905	27.21
707.09	27.31
707.274	27.29
707.459	27.68
707.644	27.73
707.828	27.99
708.013	27.67
708.197	27.37
708.382	27.59
708.567	27.64
708.751	27.92
708.936	27.77
709.12	27.95
709.305	27.81
709.489	27.67
709.673	27.36
709.858	26.98
710.042	27.1
710.227	27.52
710.411	27.76
710.596	27.56
710.78	27.49
710.964	27.43
711.149	27.37
711.333	27.57
711.517	27.49
711.702	27.98
711.886	28.16
712.07	28
712.254	27.72
712.438	27.56
712.623	27.72
712.807	27.53
712.991	28.01
713.175	28.24
713.359	28.23
713.544	28.46
713.728	28.17
713.912	28.38
714.096	28.37
714.28	28.53
714.464	28.56
714.648	28.49
714.832	28.7
715.016	28.2
715.2	28.13
715.384	28.04
715.568	27.93
715.752	28.1
715.936	28.02
716.12	28.08
716.304	28.08
716.488	28.51
716.671	28.89
716.855	28.93
717.039	28.73
717.223	28.46
717.407	28.66
717.59	28.57
717.774	28.42
717.958	28.48
718.142	28.53
718.325	28.44
718.509	27.83
718.693	27.58
718.877	27.56
719.06	27.65
719.244	27.91
719.428	27.62
719.611	27.81
719.795	28.06
719.978	28.27
720.162	28.02
720.345	27.77
720.529	27.5
720.713	27.34
720.896	27.15
721.08	27.11
721.263	26.8
721.446	27.26
721.63	27.41
721.813	27.33
721.997	26.53
722.18	26.36
722.364	26.69
722.547	26.66
722.73	26.38
722.914	26.78
723.097	27.18
723.28	27.32
723.464	26.94
723.647	26.56
723.83	26.36
724.013	27.02
724.197	27.43
724.38	27.23
724.563	27.28
724.746	27.23
724.929	26.76
725.112	26.58
725.296	26.41
725.479	26.59
725.662	26.71
725.845	26.81
726.028	26.58
726.211	26.66
726.394	26.89
726.577	27.38
726.76	27.81
726.943	27.68
727.126	27.53
727.309	27.57
727.492	27.55
727.675	27.64
727.858	28.25
728.041	28.19
728.224	28.38
728.407	28.32
728.589	27.98
728.772	27.48
728.955	27.94
729.138	28.15
729.321	28.24
729.503	28.08
729.686	28.29
729.869	27.46
730.052	27.39
730.234	27.28
730.417	27.32
730.6	27.19
730.782	27.51
730.965	27.84
731.148	27.92
731.33	27.98
731.513	28.05
731.695	27.94
731.878	28.44
732.061	28.63
732.243	28.77
732.426	28.48
732.608	29.19
732.791	29.12
732.973	28.36
733.156	28.21
733.338	28.37
733.52	28.57
733.703	28.77
733.885	28.56
734.068	28.61
734.25	28.38
734.432	28.75
734.615	28.6
734.797	28.38
734.979	28.61
735.162	28.5
735.344	28
735.526	27.55
735.708	27.63
735.891	27.79
736.073	27.83
736.255	27.61
736.437	27.39
736.619	26.94
736.802	27.5
736.984	27.3
737.166	27.46
737.348	28.05
737.53	28.46
737.712	28.01
737.894	27.83
738.076	27.62
738.258	27.69
738.44	27.38
738.622	27.91
738.804	27.57
738.986	28.37
739.168	28.2
739.35	27.92
739.532	27.75
739.714	27.48
739.896	27.83
740.078	28.03
740.259	28.17
740.441	28.41
740.623	27.92
740.805	27.79
740.987	27.72
741.168	28
741.35	27.97
741.532	28.07
741.714	28.4
741.895	28.44
742.077	28.45
742.259	28.6
742.44	28.92
742.622	29.34
742.804	29.63
742.985	29.17
743.167	29.18
743.348	28.55
743.53	28.79
743.711	28.68
743.893	28.68
744.075	28.67
744.256	28.51
744.438	28.84
744.619	28.68
744.8	29.03
744.982	28.95
745.163	28.75
745.345	29.7
745.526	29.27
745.707	29.43
745.889	29.05
746.07	29.51
746.252	29.69
746.433	28.78
746.614	28.6
746.795	27.7
746.977	27.97
747.158	28.11
747.339	27.67
747.52	27.83
747.702	28.05
747.883	28.02
748.064	27.4
748.245	27.47
748.426	27.61
748.607	27.13
748.788	27.28
748.97	27.49
749.151	26.85
749.332	27.03
749.513	26.8
749.694	26.4
749.875	26.93
750.056	27.05
750.237	27.31
750.418	27.83
750.599	28.08
750.78	28.39
750.96	28.32
751.141	28.81
751.322	29.4
751.503	29.18
751.684	29.19
751.865	29.04
752.046	29.05
752.226	28.81
752.407	28.6
752.588	28.52
752.769	28.47
752.949	28.44
753.13	28.15
753.311	27.6
753.492	27.68
753.672	27.96
753.853	27.66
754.034	27.52
754.214	27.13
754.395	27.06
754.575	26.63
754.756	26.94
754.937	26.8
755.117	27.83
755.298	28.12
755.478	28.54
755.659	28.6
755.839	28.12
756.02	28.6
756.2	28.79
756.381	29.43
756.561	31.09
756.741	31.29
756.922	31.18
757.102	30.27
757.283	29.79
757.463	30.05
757.643	29.95
757.823	30.85
758.004	31.13
758.184	30.53
758.364	30.18
758.545	29.47
758.725	29.2
758.905	29.68
759.085	29.58
759.265	30.03
759.446	29.2
759.626	29.21
759.806	28.7
759.986	28.69
760.166	29.37
760.346	29.18
760.526	28.82
760.706	29.11
760.886	28.77
761.066	29.54
761.246	29.59
761.426	30.14
761.606	30.03
761.786	29.64
761.966	29.47
762.146	29.67
762.326	29.61
762.506	29.92
762.686	29.92
762.866	30.56
763.046	30.11
763.225	30.03
763.405	29.63
763.585	29.41
763.765	29.36
763.945	29.19
764.124	29.31
764.304	29.22
764.484	29.02
764.664	28.67
764.843	28.04
765.023	28.15
765.203	28.07
765.382	28.44
765.562	28.1
765.741	28.03
765.921	27.54
766.101	26.33
766.28	26.52
766.46	26.53
766.639	26.48
766.819	26.3
766.998	26.13
767.178	25.78
767.357	25.39
767.537	26.08
767.716	26.63
767.896	27.05
768.075	27.29
768.254	26.71
768.434	26.14
768.613	26.55
768.792	26.74
768.972	26.74
769.151	26.89
769.33	27.76
769.51	27.59
769.689	27.01
769.868	26.96
770.047	27.47
770.226	27.61
770.406	29.03
770.585	28.66
770.764	28.61
770.943	28.8
771.122	28.6
771.301	28.05
771.48	28.16
771.66	28.61
771.839	27.88
772.018	28.17
772.197	29.05
772.376	28.28
772.555	28.28
772.734	28.12
772.913	28.18
773.092	28.09
773.271	28.15
773.449	27.43
773.628	27.38
773.807	28.51
773.986	28.14
774.165	28.11
774.344	28.78
774.523	29.27
774.701	29.32
774.88	28.93
775.059	29.02
775.238	29.37
775.417	29.9
775.595	29.64
775.774	29.1
775.953	28.69
776.131	28.8
776.31	27.52
776.489	27.54
776.667	28.04
776.846	28.21
777.025	27.7
777.203	27.33
777.382	28.36
777.56	28.68
777.739	29.26
777.917	29.64
778.096	29.37
778.274	30.45
778.453	30.8
778.631	30.4
778.81	30.31
778.988	30.78
779.166	31.57
779.345	31.09
779.523	31.05
779.702	30.65
779.88	30.36
780.058	29.88
780.237	29.31
780.415	28.6
780.593	28.4
780.771	28.68
780.95	28.4
781.128	27.8
781.306	26.84
781.484	26.7
781.662	27.41
781.841	28.09
782.019	28.21
782.197	27.83
782.375	28.37
782.553	27.96
782.731	28.87
782.909	29.06
783.087	29.58
783.265	30.15
783.443	30.48
783.621	29.38
783.799	28.18
783.977	28.31
784.155	28.94
784.333	29.39
784.511	29.29
784.689	28.62
784.867	29.34
785.045	29.17
785.223	29.43
785.4	30.09
785.578	30.23
785.756	31.64
785.934	32.33
786.112	32.27
786.289	32.2
786.467	32.58
786.645	32.08
786.823	32
787	31.34
787.178	31
787.356	30.2
787.533	30.06
787.711	30.77
787.889	29.8
788.066	29.25
788.244	28.38
788.421	27.18
788.599	27.27
788.776	26.62
788.954	26.63
789.131	26.57
789.309	27.02
789.486	28.12
789.664	26.39
789.841	26.05
790.019	25.95
790.196	25.86
790.373	27.49
790.551	27.84
790.728	28.53
790.906	28.16
791.083	27.91
791.26	27.34
791.437	26.64
791.615	27.13
791.792	28.01
791.969	28.25
792.146	29.29
792.324	28.84
792.501	29.72
792.678	28.95
792.855	29.48
793.032	29.82
793.209	30.5
793.387	29.69
793.564	30.63
793.741	30.78
793.918	31.45
794.095	30.22
794.272	30.27
794.449	28.56
794.626	28.89
794.803	29.25
794.98	29.01
795.157	28.32
795.334	28.6
795.511	28.02
795.688	27.69
795.864	27.11
796.041	27.48
796.218	27.94
796.395	27.87
796.572	28.29
796.749	27.88
796.925	28.18
797.102	29.58
797.279	30.13
797.456	29.17
797.632	30.07
797.809	30.02
797.986	29.59
798.162	28.81
798.339	28.67
798.516	28.43
798.692	28.63
798.869	29.2
799.046	27.81
799.222	27.73
799.399	28.72
799.575	27.52
799.752	28.09
799.928	27.63
800.105	28.63
800.281	28.55
800.458	29.24
800.634	29.09
800.811	28.86
800.987	29.08
801.163	28.53
801.34	29.1
801.516	28.68
801.692	27.71
801.869	28.05
802.045	27.16
802.221	27.24
802.398	27.33
802.574	28.2
802.75	28.84
802.926	30.53
803.103	31.66
803.279	30.97
803.455	32.05
803.631	32.35
803.807	33.06
803.983	33.44
804.16	33.22
804.336	32.95
804.512	31.9
804.688	32.37
804.864	30.72
805.04	29.38
805.216	29.34
805.392	28.4
805.568	29.65
805.744	29.48
805.92	28.87
806.096	28.6
806.272	27.38
806.448	27.5
806.623	25.98
806.799	25.5
806.975	26.92
807.151	27.21
807.327	28.4
807.503	26.85
807.678	27.45
807.854	28.06
808.03	29.39
808.206	30.69
808.381	30.88
808.557	30.61
808.733	31.71
808.908	32.91
809.084	31.91
809.26	31.12
809.435	32.12
809.611	31.58
809.787	31.21
809.962	31.16
810.138	30.36
810.313	30.44
810.489	29.93
810.664	29.7
810.84	27.99
811.015	27.88
811.191	27.74
811.366	27.16
811.542	26.11
811.717	26.11
811.892	25.83
812.068	26.76
812.243	26.83
812.419	28.23
812.594	28.05
812.769	27.38
812.944	28.42
813.12	28.65
813.295	28.62
813.47	29.2
813.645	28.12
813.821	27.63
813.996	25.91
814.171	24.86
814.346	24.63
814.521	24.76
814.697	24.95
814.872	24.25
815.047	24.8
815.222	26.13
815.397	26.57
815.572	28.49
815.747	28.28
815.922	29.39
816.097	29.67
816.272	27.54
816.447	27.06
816.622	28.01
816.797	28.12
816.972	28.11
817.147	26.32
817.322	25.71
817.496	25.32
817.671	26.26
817.846	27.15
818.021	28.18
818.196	31.02
818.371	31.85
818.545	31.88
818.72	32.67
818.895	33.17
819.069	33.86
819.244	34.19
819.419	34.05
819.594	34.1
819.768	34.08
819.943	33.58
820.117	32.63
820.292	31.4
820.467	30.31
820.641	30.2
820.816	29.58
820.99	29.46
821.165	29.77
821.339	29.68
821.514	29.49
821.688	29.45
821.863	29.28
822.037	29.36
822.212	29.55
822.386	29.82
822.56	29.84
822.735	30.21
822.909	30.38
823.084	30.2
823.258	30.08
823.432	30.12
823.606	29.93
823.781	30.11
823.955	30.16
824.129	30.59
824.303	30.62
824.478	30.6
824.652	29.97
824.826	29.77
825	29.75
825.174	29.68
825.348	29.95
825.523	30.1
825.697	30.09
825.871	29.99
826.045	29.54
826.219	29.34
826.393	29.4
826.567	29.51
826.741	29.29
826.915	29.5
827.089	29.66
827.263	29.52
827.437	29.54
827.611	29.18
827.784	28.82
827.958	29.03
828.132	29.03
828.306	28.75
828.48	28.87
828.654	29.01
828.827	28.47
829.001	27.9
829.175	27.67
829.349	27.53
829.522	27.86
829.696	28.49
829.87	28.28
830.044	28.6
830.217	29.27
830.391	29.43
830.565	30.75
830.738	31.58
830.912	33.3
831.085	33.35
831.259	32.78
831.432	33.21
831.606	33.09
831.779	32.51
831.953	31.75
832.126	30.67
832.3	30.72
832.473	30.25
832.647	29.95
832.82	29.82
832.994	29.77
833.167	29.89
833.34	28.85
833.514	28.39
833.687	28.48
833.86	29.45
834.034	29.24
834.207	28.86
834.38	28.02
834.553	27.82
834.727	27.38
834.9	28.03
835.073	28.06
835.246	29.1
835.419	29.57
835.593	29.21
835.766	28.48
835.939	29.2
836.112	29.61
836.285	29.88
836.458	30.13
836.631	29.87
836.804	28.81
836.977	28.83
837.15	29.34
837.323	29.19
837.496	29.83
837.669	29.7
837.842	30.05
838.015	29.69
838.188	30.12
838.361	29.19
838.533	28.82
838.706	30.32
838.879	29.72
839.052	29.03
839.225	28.81
839.398	27.76
839.57	27.68
839.743	25.96
839.916	28.12
840.088	27.42
840.261	27.57
840.434	27.55
840.607	25.19
840.779	26.13
840.952	25.13
841.124	25.14
841.297	25.24
841.47	25.39
841.642	25.5
841.815	24.45
841.987	25.06
842.16	26.76
842.332	28.41
842.505	29.13
842.677	28.14
842.85	27.93
843.022	28.41
843.194	27.34
843.367	26.05
843.539	27.13
843.712	23.46
843.884	23.17
844.056	19.47
844.229	18.59
844.401	18.88
844.573	18.63
844.745	20.42
844.918	19.04
845.09	24.44
845.262	28.48
845.434	27.88
845.606	30.4
845.779	30.09
845.951	28.58
846.123	27.95
846.295	25.2
846.467	24.13
846.639	23.63
846.811	24.31
846.983	21.37
847.155	17.46
847.327	16.89
847.499	17.27
847.671	18.45
847.843	26.41
848.015	25.79
848.187	27.25
848.359	29.61
848.531	23.52
848.703	24.8
848.875	25.96
849.047	27.65
849.218	26.11
849.39	22.57
849.562	21.89
849.734	16.37
849.905	19.9
850.077	24.44
850.249	26.2
850.421	28.5
850.592	27.63
850.764	24.21
850.936	27.03
851.107	24.92
851.279	26.05
851.451	25.31
851.622	28.47
851.794	24.46
851.965	22.01
852.137	18.79
852.308	21.62
852.48	22.41
852.651	26.6
852.823	23.62
852.994	26.41
853.166	27.24
853.337	26.39
853.509	25.82
853.68	27.45
853.851	27.55
854.023	25.89
854.194	25.59
854.365	23.22
854.537	19.56
854.708	19.97
854.879	22.56
855.05	23.65
855.222	26.22
855.393	28.21
855.564	28.44
855.735	27.93
855.906	28.12
856.078	28.24
856.249	29.31
856.42	29.17
856.591	32.01
856.762	30.17
856.933	25.45
857.104	20.18
857.275	15.54
857.446	17.55
857.617	21.71
857.788	26.64
857.959	28.66
858.13	32.1
858.301	34.8
858.472	29.41
858.643	27.76
858.814	30.55
858.985	32.8
859.155	31.53
859.326	27.83
859.497	24.48
859.668	24.2
859.839	25.8
860.009	21.39
860.18	22.05
860.351	21.58
860.522	26.56
860.692	27.53
860.863	29.18
861.034	28.06
861.204	29.57
861.375	30.82
861.546	25.98
861.716	23.68
861.887	23.29
862.057	21.44
862.228	22
862.398	17.57
862.569	15.21
862.739	13.47
862.91	17.96
863.08	17.71
863.251	16.5
863.421	17.54
863.592	18.75
863.762	26.2
863.932	26.15
864.103	25.78
864.273	30.51
864.443	28.53
864.614	25.63
864.784	21.92
864.954	23.54
865.125	27.82
865.295	25.18
865.465	25.17
865.635	23.47
865.805	23.8
865.976	26.72
866.146	23.72
866.316	27.66
866.486	35.36
866.656	41.28
866.826	43.06
866.996	37.6
867.166	39.14
867.336	36.81
867.506	39.99
867.676	38.43
867.846	35.32
868.016	35.77
868.186	33.25
868.356	28.3
868.526	20.78
868.696	17.47
868.866	16.55
869.036	16.66
869.206	13.21
869.376	4.74
869.545	2.33
869.715	4.81
869.885	8.57
870.055	10.71
870.224	11.98
870.394	14.7
870.564	18.66
870.734	27.07
870.903	26.52
871.073	32.86
871.243	28.04
871.412	31.48
871.582	28.49
871.751	23.14
871.921	28.19
872.091	30.64
872.26	29.79
872.43	27.93
872.599	22.68
872.769	24.3
872.938	23.96
873.108	29.57
873.277	30.53
873.446	31.92
873.616	35.76
873.785	36.13
873.955	30.97
874.124	32.2
874.293	27.12
874.463	31.73
874.632	32.38
874.801	30.1
874.971	23.17
875.14	24.2
875.309	27.39
875.478	24.63
875.647	15.93
875.817	14.31
875.986	14.52
876.155	24.19
876.324	24.38
876.493	24.08
876.662	24.01
876.831	30.47
877	27.74
877.17	21.93
877.339	16.62
877.508	20.15
877.677	22.78
877.846	21.3
878.015	18.04
878.184	10.72
878.352	8.02
878.521	6.66
878.69	3.02
878.859	5.11
879.028	11.6
879.197	19.65
879.366	19.37
879.534	20.82
879.703	25.07
879.872	26.78
880.041	30.55
880.21	31.17
880.378	32.14
880.547	33.22
880.716	32
880.884	31.21
881.053	30.55
881.222	31.86
881.39	31.63
881.559	31.15
881.727	30.51
881.896	30.4
882.065	31.57
882.233	32.15
882.402	31.71
882.57	32.82
882.739	33.47
882.907	33.72
883.076	33.3
883.244	32.93
883.412	33.31
883.581	33.35
883.749	32.9
883.918	31.8
884.086	30.88
884.254	31.72
884.423	31.07
884.591	30.53
884.759	30.58
884.927	30.89
885.096	31.34
885.264	30.77
885.432	30.81
885.6	31.33
885.769	30
885.937	29.69
886.105	28.96
886.273	30
886.441	28.83
886.609	29.08
886.777	28.88
886.945	30.07
887.113	31.14
887.281	30.45
887.449	31.23
887.617	35.33
887.785	37.17
887.953	37.89
888.121	37.82
888.289	36.72
888.457	31.09
888.625	27.14
888.793	26.37
888.961	26.45
889.129	30.59
889.296	31.67
889.464	29.31
889.632	28.09
889.8	26.78
889.967	21.99
890.135	27.85
