Data from 2938435_Reflection_2.txt Node
Date: Fri Jun 19 18:38:53 EDT 2015
User: robert
Spectrometer: USB4E03002
Autoset integration time: false
Trigger mode: 4
Integration Time (sec): 1.000000E-1
Scans to average: 10
Electric dark correction enabled: true
Nonlinearity correction enabled: false
Boxcar width: 5
Stray light correction enabled: false
XAxis mode: Wavelengths
Stop averaging: false
Number of Pixels in Spectrum: 3648
>>>>>Begin Spectral Data<<<<<
177.575	-89.71
177.794	79.7
178.014	59.17
178.233	-11566.67
178.452	68.17
178.672	155.3
178.891	31.85
179.11	-337.45
179.33	-479.1
179.549	-128.24
179.768	-34.64
179.987	778.72
180.207	-207.33
180.426	-283.07
180.645	-166.02
180.864	-440.09
181.084	-117.4
181.303	-150.46
181.522	-63.23
181.741	-60.97
181.96	-102.91
182.179	-77.75
182.398	17.54
182.618	131.87
182.837	302.22
183.056	581.52
183.275	201.57
183.494	-1716.07
183.713	91.14
183.932	79.46
184.151	-52.68
184.37	106.99
184.589	-48.18
184.808	74.95
185.027	53.08
185.246	-111.39
185.465	408.5
185.684	27.21
185.903	40.45
186.122	155.75
186.341	133.33
186.56	-7679.41
186.779	-71800
186.998	-534.37
187.216	-765.34
187.435	-568.15
187.654	-193.8
187.873	-3.37
188.092	-29.35
188.311	-9.78
188.53	-14.13
188.748	-49.68
188.967	1.61
189.186	42.69
189.405	-8.8
189.623	-7.66
189.842	11.56
190.061	2.37
190.28	-55.17
190.498	-78.22
190.717	-25.13
190.936	-66.58
191.154	-20.17
191.373	-31.09
191.592	-68.59
191.81	-10.16
192.029	-20.32
192.248	-20.06
192.466	-72.74
192.685	-77.35
192.904	1.11
193.122	-43.67
193.341	7.76
193.559	20.01
193.778	36.78
193.996	55.1
194.215	6.15
194.433	-5.73
194.652	6.76
194.87	49.75
195.089	74.99
195.307	65.74
195.526	65.71
195.744	51.25
195.963	59.62
196.181	58.6
196.399	76.57
196.618	253.83
196.836	162.89
197.055	381.89
197.273	992.49
197.491	-498
197.71	218.6
197.928	-1575.47
198.146	288.69
198.365	118.88
198.583	128.8
198.801	87.81
199.019	50.18
199.238	80.07
199.456	35.48
199.674	47.24
199.892	63.84
200.111	84.12
200.329	46.33
200.547	-7.67
200.765	683.78
200.983	-81.66
201.202	120.43
201.42	57.84
201.638	17.55
201.856	59.16
202.074	25.15
202.292	24.01
202.51	16.31
202.728	-2.78
202.946	-18.38
203.165	-113.15
203.383	-115.32
203.601	-75.8
203.819	-67.15
204.037	-117.97
204.255	205.27
204.473	-42.21
204.691	182.56
204.909	179.36
205.127	-193.05
205.345	682.22
205.562	102.4
205.78	116.87
205.998	199.31
206.216	210.06
206.434	-1003.67
206.652	27.86
206.87	54.77
207.088	41.44
207.306	10.86
207.523	0.43
207.741	-19.8
207.959	-412.07
208.177	141.87
208.395	346.74
208.612	-161.24
208.83	12.79
209.048	64.8
209.266	-288.07
209.483	48.32
209.701	-36.66
209.919	-0.87
210.136	-46.17
210.354	27.13
210.572	40.37
210.79	14.26
211.007	6.56
211.225	-41.43
211.442	595.34
211.66	-170.39
211.878	-147.99
212.095	53.23
212.313	79.71
212.53	72.82
212.748	68.82
212.966	62.32
213.183	53.42
213.401	54.84
213.618	71
213.836	65.77
214.053	23.63
214.271	0.52
214.488	62.69
214.705	73.86
214.923	66.52
215.14	56.44
215.358	48.1
215.575	55.3
215.793	61.22
216.01	83.84
216.227	66.12
216.445	45.28
216.662	32.44
216.879	6.91
217.097	23.83
217.314	67.26
217.531	77.43
217.749	56.79
217.966	21.49
218.183	22.5
218.4	-4.75
218.618	8.13
218.835	32.03
219.052	22.7
219.269	13.66
219.487	-9.34
219.704	-27.58
219.921	-36.56
220.138	-52.95
220.355	-17.65
220.572	1.43
220.79	10.31
221.007	-1.46
221.224	-20.01
221.441	-16.9
221.658	-26.36
221.875	-7.14
222.092	-36.97
222.309	-35.85
222.526	-28.08
222.743	-28.28
222.96	-14.09
223.177	-14.52
223.394	2.1
223.611	12
223.828	14.37
224.045	23.15
224.262	22.25
224.479	35.78
224.696	28.91
224.913	27.65
225.13	27.52
225.347	26.98
225.564	25.64
225.781	19.3
225.997	17.73
226.214	15.92
226.431	12.6
226.648	14.15
226.865	13.91
227.082	16.91
227.298	17.26
227.515	15.49
227.732	12.45
227.949	14.35
228.165	15.14
228.382	13.4
228.599	15.17
228.816	16.57
229.032	16.85
229.249	14.76
229.466	13.32
229.682	12.78
229.899	12.1
230.116	13.12
230.332	11.47
230.549	9.12
230.765	9.89
230.982	7.53
231.199	9.31
231.415	9.38
231.632	10.43
231.848	11.17
232.065	14.18
232.281	17.88
232.498	15.43
232.714	15.36
232.931	20.43
233.147	18.66
233.364	21.57
233.58	21.13
233.797	21.03
234.013	22.42
234.23	25.19
234.446	23.62
234.662	20.64
234.879	21.05
235.095	21.75
235.312	16.81
235.528	17.34
235.744	13.78
235.961	9.43
236.177	8.76
236.393	12.03
236.61	9.88
236.826	8.5
237.042	13.44
237.258	15.68
237.475	17.96
237.691	18.5
237.907	20.52
238.123	21.59
238.339	22.46
238.556	20.88
238.772	20
238.988	18.08
239.204	18.53
239.42	17.19
239.636	14.51
239.853	12.92
240.069	13.77
240.285	13.66
240.501	13.1
240.717	13.63
240.933	14.59
241.149	14.23
241.365	15.08
241.581	15.11
241.797	15.53
242.013	16.93
242.229	17.43
242.445	17.65
242.661	17.51
242.877	18
243.093	17.88
243.309	17.01
243.525	17.56
243.741	16.98
243.957	16.28
244.173	14.91
244.388	15.12
244.604	15.25
244.82	15.73
245.036	16
245.252	15.22
245.468	14.18
245.683	14.03
245.899	13.72
246.115	13.89
246.331	13.99
246.547	14.68
246.762	15.05
246.978	14.41
247.194	13.69
247.409	13.51
247.625	13.77
247.841	14.2
248.057	14.9
248.272	14.29
248.488	14.03
248.703	14.62
248.919	14.09
249.135	11.9
249.35	11.69
249.566	11.39
249.782	10.85
249.997	12.18
250.213	11.84
250.428	11.17
250.644	12.19
250.859	12.85
251.075	11.47
251.29	9.4
251.506	10.11
251.721	10.91
251.937	12.23
252.152	11.82
252.368	11.81
252.583	13.34
252.798	13.84
253.014	12.71
253.229	12.65
253.445	13.05
253.66	15.99
253.875	15.84
254.091	16.3
254.306	14.28
254.521	14.38
254.737	14.17
254.952	13.59
255.167	13.11
255.383	13.65
255.598	13.05
255.813	12.6
256.028	12.61
256.244	12.32
256.459	10.93
256.674	11.76
256.889	11.4
257.104	11.13
257.32	11.07
257.535	11.44
257.75	11.12
257.965	11
258.18	11.1
258.395	10.7
258.61	10.77
258.826	10.79
259.041	10.76
259.256	11.03
259.471	10.68
259.686	10.46
259.901	10
260.116	9.44
260.331	9.09
260.546	9.36
260.761	9.42
260.976	9.49
261.191	10.55
261.406	10.35
261.621	10.71
261.836	9.64
262.05	10.17
262.265	10.72
262.48	12.18
262.695	12.71
262.91	12.11
263.125	11.82
263.34	11.35
263.555	10.38
263.769	10.4
263.984	9.39
264.199	10.43
264.414	9.37
264.629	9.48
264.843	9.48
265.058	9.64
265.273	9.73
265.488	9.67
265.702	9.56
265.917	10.3
266.132	10.33
266.346	9.89
266.561	9.69
266.776	10.34
266.99	9.63
267.205	9.43
267.42	8.98
267.634	10.04
267.849	10.2
268.063	10.85
268.278	10.33
268.492	9.64
268.707	10.64
268.922	11.48
269.136	11.68
269.351	11.97
269.565	11.44
269.78	11.44
269.994	10.46
270.209	10.71
270.423	10.87
270.637	10.81
270.852	10.9
271.066	10.69
271.281	11.06
271.495	11.22
271.709	10.72
271.924	11.45
272.138	11.85
272.353	12.14
272.567	11.82
272.781	11.37
272.996	11.43
273.21	11.03
273.424	11.1
273.638	11.21
273.853	10.49
274.067	10.86
274.281	10.06
274.495	9.89
274.71	9.96
274.924	10.36
275.138	10.37
275.352	11.14
275.566	12.38
275.781	11.64
275.995	10.44
276.209	11.31
276.423	12.12
276.637	13.17
276.851	13.74
277.065	13.65
277.279	13.18
277.493	13.03
277.707	12.29
277.921	12.06
278.135	12.39
278.349	12.72
278.563	12.7
278.777	11.49
278.991	11.19
279.205	10.86
279.419	11.86
279.633	11.38
279.847	11.39
280.061	11.86
280.275	12.09
280.489	12.68
280.703	12.36
280.917	12.6
281.131	13.36
281.344	12.66
281.558	12.49
281.772	11.78
281.986	12.83
282.2	12.97
282.414	12.78
282.627	12.31
282.841	11.63
283.055	11.38
283.269	10.78
283.482	10.52
283.696	10.73
283.91	10.91
284.123	10.69
284.337	10.67
284.551	10.68
284.764	10.47
284.978	10.7
285.192	10.84
285.405	10.92
285.619	10.49
285.833	10.4
286.046	10.37
286.26	10.25
286.473	9.81
286.687	9.27
286.9	9.22
287.114	9.84
287.327	9.73
287.541	10.34
287.754	10.92
287.968	11.62
288.181	12.6
288.395	12.83
288.608	12.9
288.822	13.71
289.035	14.77
289.248	14.86
289.462	14.83
289.675	14.78
289.889	14.91
290.102	15.04
290.315	15.01
290.529	14.89
290.742	14.82
290.955	15.78
291.169	15.32
291.382	15.27
291.595	16
291.808	15.4
292.022	15.04
292.235	15.54
292.448	15.29
292.661	15.95
292.875	14.99
293.088	15.08
293.301	13.82
293.514	13.99
293.727	13.35
293.94	13.47
294.153	13.88
294.367	14.11
294.58	13.32
294.793	13.36
295.006	13.21
295.219	14.35
295.432	14.71
295.645	15.21
295.858	15.41
296.071	15.79
296.284	15.88
296.497	16.2
296.71	16.28
296.923	16.41
297.136	16.59
297.349	16.96
297.562	16.38
297.775	15.84
297.988	15.76
298.201	15.99
298.414	15.46
298.626	15.24
298.839	15.1
299.052	15.04
299.265	14.96
299.478	14.55
299.691	15.1
299.903	15.68
300.116	15.52
300.329	16.82
300.542	17.37
300.755	17.96
300.967	17.64
301.18	16.98
301.393	17.42
301.605	18.4
301.818	19.51
302.031	19.07
302.243	18.05
302.456	18.92
302.669	18.09
302.881	17.76
303.094	17.89
303.307	18.01
303.519	18.46
303.732	18.98
303.944	18.86
304.157	18.65
304.37	17.61
304.582	18.59
304.795	18.53
305.007	18.28
305.22	17.44
305.432	16.32
305.645	16.42
305.857	16.67
306.069	16.4
306.282	16.38
306.494	16.33
306.707	16.6
306.919	15.93
307.132	15.58
307.344	15.45
307.556	14.9
307.769	14.89
307.981	14.74
308.193	14.25
308.406	14.14
308.618	13.86
308.83	13.81
309.043	13.79
309.255	14.58
309.467	15.16
309.679	15.65
309.892	16.58
310.104	17.2
310.316	17.02
310.528	17.96
310.74	18.03
310.953	18.35
311.165	18.16
311.377	19.14
311.589	18.96
311.801	18.8
312.013	17.97
312.225	17.88
312.437	18.99
312.649	19.68
312.862	19.51
313.074	19.57
313.286	19.58
313.498	19.64
313.71	19.19
313.922	20.06
314.134	19.54
314.346	20.72
314.558	21.1
314.77	19.78
314.982	19.87
315.193	19.93
315.405	20.54
315.617	20.77
315.829	21.62
316.041	21.46
316.253	20.8
316.465	21.63
316.677	21.7
316.888	21.46
317.1	22.53
317.312	22.55
317.524	22.73
317.736	21.93
317.947	21.53
318.159	21.16
318.371	20.73
318.583	20.24
318.794	20.13
319.006	19.39
319.218	19.68
319.43	18.77
319.641	18.75
319.853	17.91
320.064	18.73
320.276	17.95
320.488	17.52
320.699	17.32
320.911	18.53
321.123	18.2
321.334	19.26
321.546	19.2
321.757	19.61
321.969	19.2
322.18	19.06
322.392	18.56
322.603	19.94
322.815	20.32
323.026	21.39
323.238	20.13
323.449	20.99
323.661	20.44
323.872	20.22
324.083	19.91
324.295	20.11
324.506	20.46
324.718	20.28
324.929	19.94
325.14	19.95
325.352	19.86
325.563	20.41
325.774	19.53
325.986	18.63
326.197	19.21
326.408	19.84
326.62	20.22
326.831	19.96
327.042	20.33
327.253	19.96
327.464	20.03
327.676	20.13
327.887	20.59
328.098	21.11
328.309	22.54
328.52	22.62
328.732	22.08
328.943	21.84
329.154	22.54
329.365	22.64
329.576	23.19
329.787	22.46
329.998	22.05
330.209	21.09
330.42	21.42
330.631	21.31
330.842	21.22
331.053	21.1
331.264	21.33
331.475	21.09
331.686	20.75
331.897	20.98
332.108	21.78
332.319	21.37
332.53	21.09
332.741	20.83
332.952	20.62
333.163	19.81
333.374	20.46
333.585	20.87
333.795	21.18
334.006	20.1
334.217	19.33
334.428	18.62
334.639	18.97
334.849	19.56
335.06	19.21
335.271	18.6
335.482	19.22
335.692	18.53
335.903	18.34
336.114	17.28
336.325	18.36
336.535	18.11
336.746	18.84
336.957	18.89
337.167	18.8
337.378	18.61
337.589	19.38
337.799	18.86
338.01	18.85
338.22	18.28
338.431	18.94
338.642	19.17
338.852	19.89
339.063	19.83
339.273	19.34
339.484	18.97
339.694	20.04
339.905	20.32
340.115	20.72
340.326	20.8
340.536	21.12
340.746	20.83
340.957	20.66
341.167	20.25
341.378	20.04
341.588	20.09
341.799	20.5
342.009	19.93
342.219	19.16
342.43	18.71
342.64	18.09
342.85	17.77
343.061	17.73
343.271	17.96
343.481	18.34
343.691	18.49
343.902	19.12
344.112	18.77
344.322	18.19
344.532	17.93
344.743	18.64
344.953	19.52
345.163	19.25
345.373	19.34
345.583	18.65
345.793	18.57
346.004	18.26
346.214	17.94
346.424	18.27
346.634	19.02
346.844	19.77
347.054	19.08
347.264	19.48
347.474	20.07
347.684	20.33
347.894	21.85
348.104	21.56
348.314	21.36
348.524	21.15
348.734	21.06
348.944	20.5
349.154	20.21
349.364	20.04
349.574	19.1
349.784	18.75
349.994	18.13
350.204	16.78
350.413	16.82
350.623	17.47
350.833	17.32
351.043	17.64
351.253	17.4
351.463	17.23
351.672	17.78
351.882	17.66
352.092	18
352.302	18.14
352.511	18.58
352.721	18.14
352.931	17.42
353.141	17.9
353.35	17.22
353.56	18.02
353.77	17.28
353.979	16.71
354.189	16.8
354.399	16.04
354.608	16.8
354.818	15.73
355.027	15.94
355.237	15.72
355.447	15.04
355.656	15.37
355.866	14.74
356.075	15.12
356.285	14.87
356.494	14.9
356.704	15.33
356.913	14.76
357.123	15.4
357.332	15.52
357.542	15.91
357.751	16.78
357.96	16.46
358.17	16.47
358.379	16.22
358.589	16.69
358.798	16.41
359.007	16.47
359.217	16.49
359.426	16.85
359.635	16.69
359.845	16.41
360.054	15.84
360.263	15.36
360.472	15.49
360.682	15.84
360.891	15.4
361.1	15.71
361.309	15.68
361.519	15.54
361.728	14.88
361.937	14.94
362.146	14.65
362.355	14.33
362.564	14.99
362.774	14.67
362.983	14.03
363.192	14.26
363.401	13.78
363.61	13.24
363.819	13.41
364.028	13.35
364.237	13.24
364.446	13.79
364.655	13.98
364.864	14.08
365.073	14.28
365.282	14.7
365.491	15.05
365.7	14.84
365.909	15.08
366.118	15.08
366.327	15.38
366.536	15.16
366.745	14.92
366.954	15.18
367.162	14.87
367.371	14.75
367.58	14.65
367.789	14.42
367.998	14.9
368.207	14.8
368.415	14.28
368.624	14.12
368.833	14.23
369.042	13.68
369.25	13.16
369.459	13.08
369.668	12.94
369.877	12.92
370.085	12.6
370.294	12.58
370.503	12.09
370.711	12.21
370.92	12.11
371.129	12.16
371.337	12.47
371.546	12.66
371.754	12.52
371.963	12.16
372.171	12.38
372.38	12.17
372.589	11.43
372.797	11.74
373.006	11.87
373.214	12
373.423	11.57
373.631	11.33
373.84	11.21
374.048	11.51
374.256	11.85
374.465	11.33
374.673	11.4
374.882	12.05
375.09	11.88
375.298	11.55
375.507	11.39
375.715	11.4
375.923	11.47
376.132	11.33
376.34	11.36
376.548	11.47
376.757	11.84
376.965	11.7
377.173	11.58
377.381	11.63
377.59	11.65
377.798	11.41
378.006	11.48
378.214	11.6
378.423	11.63
378.631	10.98
378.839	11.02
379.047	10.9
379.255	10.92
379.463	10.7
379.671	10.63
379.879	10.89
380.088	11.42
380.296	11.31
380.504	11.36
380.712	11.35
380.92	11.5
381.128	10.99
381.336	10.53
381.544	10.58
381.752	10.27
381.96	10.16
382.168	9.77
382.376	9.34
382.584	9.41
382.791	9.09
382.999	9.31
383.207	9.17
383.415	9.15
383.623	9.17
383.831	8.96
384.039	8.93
384.247	8.81
384.454	8.76
384.662	8.64
384.87	8.7
385.078	8.43
385.285	8.14
385.493	8.37
385.701	8.27
385.909	8.13
386.116	7.99
386.324	8.23
386.532	8.21
386.739	8.05
386.947	8.16
387.155	7.98
387.362	8.15
387.57	8.01
387.778	7.78
387.985	7.81
388.193	7.62
388.4	7.7
388.608	7.26
388.816	7.14
389.023	7
389.231	6.77
389.438	6.57
389.646	6.75
389.853	6.79
390.061	6.82
390.268	6.71
390.475	6.73
390.683	6.97
390.89	7.18
391.098	7.27
391.305	7.3
391.512	7.28
391.72	7.24
391.927	6.82
392.135	6.68
392.342	6.53
392.549	6.43
392.756	6.6
392.964	6.12
393.171	6.05
393.378	6.14
393.586	6.25
393.793	6.14
394	6.06
394.207	6.28
394.414	6.19
394.622	6.11
394.829	6.29
395.036	6.05
395.243	6.29
395.45	6.3
395.657	6.18
395.864	6.04
396.072	6.04
396.279	6.21
396.486	6.18
396.693	6.21
396.9	6.12
397.107	5.84
397.314	5.92
397.521	6.1
397.728	5.95
397.935	5.89
398.142	5.98
398.349	6.04
398.556	5.84
398.763	5.62
398.97	5.82
399.177	6.1
399.383	6.33
399.59	6.29
399.797	5.78
400.004	5.97
400.211	5.77
400.418	5.89
400.625	5.69
400.831	5.96
401.038	6.19
401.245	5.97
401.452	5.56
401.658	5.4
401.865	5.55
402.072	5.86
402.279	5.86
402.485	5.97
402.692	5.76
402.899	5.94
403.105	5.6
403.312	5.44
403.519	5.44
403.725	5.59
403.932	5.67
404.138	5.4
404.345	5.14
404.552	4.91
404.758	4.79
404.965	4.71
405.171	4.58
405.378	4.72
405.584	4.58
405.791	4.46
405.997	4.54
406.204	4.46
406.41	4.71
406.617	4.84
406.823	4.99
407.029	4.99
407.236	4.97
407.442	4.98
407.649	4.98
407.855	5.17
408.061	5.2
408.268	5.2
408.474	5.37
408.68	5.19
408.887	5.01
409.093	4.83
409.299	4.76
409.505	4.76
409.712	4.86
409.918	4.8
410.124	4.79
410.33	4.91
410.537	4.87
410.743	4.71
410.949	4.73
411.155	5.02
411.361	5.04
411.567	5.23
411.773	5.3
411.98	5.29
412.186	5.21
412.392	5.07
412.598	4.98
412.804	5.05
413.01	5.02
413.216	5.05
413.422	4.82
413.628	4.78
413.834	4.64
414.04	4.56
414.246	4.41
414.452	4.58
414.658	4.79
414.864	4.75
415.07	4.65
415.275	4.56
415.481	4.46
415.687	4.49
415.893	4.48
416.099	4.6
416.305	4.65
416.511	4.68
416.716	4.67
416.922	4.52
417.128	4.49
417.334	4.52
417.539	4.65
417.745	4.65
417.951	4.62
418.157	4.71
418.362	4.66
418.568	4.66
418.774	4.73
418.979	4.65
419.185	4.64
419.391	4.68
419.596	4.61
419.802	4.55
420.008	4.6
420.213	3.88
420.419	3.84
420.624	3.84
420.83	3.87
421.035	3.81
421.241	3.79
421.446	3.82
421.652	3.85
421.857	3.82
422.063	3.75
422.268	3.74
422.474	4.38
422.679	4.33
422.885	4.37
423.09	4.29
423.295	4.26
423.501	4.26
423.706	4.24
423.911	4.23
424.117	4.31
424.322	4.39
424.527	4.28
424.733	4.43
424.938	4.46
425.143	4.4
425.349	4.38
425.554	4.42
425.759	4.46
425.964	4.42
426.169	4.34
426.375	4.27
426.58	4.16
426.785	4.33
426.99	4.18
427.195	4.31
427.4	4.21
427.605	4.27
427.811	4.24
428.016	4.2
428.221	4.25
428.426	4.2
428.631	4.25
428.836	4.26
429.041	4.14
429.246	4.11
429.451	4.01
429.656	4.08
429.861	4.03
430.066	4.05
430.271	4.1
430.476	4.05
430.681	4.02
430.886	4.06
431.09	3.97
431.295	4.09
431.5	4.13
431.705	4.12
431.91	4.15
432.115	4.17
432.32	4.1
432.524	4.12
432.729	4.14
432.934	4.07
433.139	4.13
433.343	4.28
433.548	4.18
433.753	4.19
433.958	4.09
434.162	3.96
434.367	4
434.572	4.13
434.776	4.15
434.981	4.15
435.186	4.18
435.39	4.05
435.595	3.93
435.799	3.96
436.004	3.95
436.209	4.05
436.413	4.23
436.618	4.14
436.822	4.05
437.027	4
437.231	3.98
437.436	4.02
437.64	4.01
437.845	4.08
438.049	4.1
438.253	4.05
438.458	4.07
438.662	4.02
438.867	4.04
439.071	3.96
439.275	3.89
439.48	3.87
439.684	3.86
439.888	3.88
440.093	3.9
440.297	3.89
440.501	4.01
440.706	3.99
440.91	3.94
441.114	3.9
441.318	3.94
441.523	4.08
441.727	4.1
441.931	4.05
442.135	4.04
442.339	4.06
442.543	4.06
442.748	3.97
442.952	3.97
443.156	3.95
443.36	3.93
443.564	4.04
443.768	3.92
443.972	3.95
444.176	3.99
444.38	3.98
444.584	3.95
444.788	3.89
444.992	3.98
445.196	4.03
445.4	4.03
445.604	4.06
445.808	3.95
446.012	3.97
446.216	3.92
446.42	3.99
446.624	4.01
446.828	4.01
447.032	4.04
447.235	3.97
447.439	3.9
447.643	3.93
447.847	3.94
448.051	3.93
448.254	3.87
448.458	3.86
448.662	3.82
448.866	3.79
449.069	3.66
449.273	3.64
449.477	3.48
449.681	3.48
449.884	3.57
450.088	3.64
450.292	3.62
450.495	3.75
450.699	3.8
450.902	3.7
451.106	3.68
451.31	3.75
451.513	3.81
451.717	3.92
451.92	3.92
452.124	3.83
452.327	3.76
452.531	3.94
452.734	3.87
452.938	3.72
453.141	3.79
453.345	3.71
453.548	3.73
453.752	3.68
453.955	3.71
454.158	3.58
454.362	3.57
454.565	3.49
454.769	3.33
454.972	3.36
455.175	3.38
455.379	3.43
455.582	3.55
455.785	3.47
455.988	3.52
456.192	3.48
456.395	3.43
456.598	3.42
456.801	3.47
457.005	3.48
457.208	3.47
457.411	3.66
457.614	3.58
457.817	3.56
458.021	3.61
458.224	3.58
458.427	3.61
458.63	3.73
458.833	3.79
459.036	3.83
459.239	3.82
459.442	3.78
459.645	3.64
459.848	3.65
460.051	3.68
460.254	3.63
460.457	3.68
460.66	3.61
460.863	3.5
461.066	3.38
461.269	3.34
461.472	3.33
461.675	3.38
461.878	3.51
462.081	3.5
462.284	3.46
462.486	3.52
462.689	3.37
462.892	3.33
463.095	3.46
463.298	3.59
463.5	3.57
463.703	3.63
463.906	3.6
464.109	3.55
464.311	3.68
464.514	3.62
464.717	3.6
464.92	3.7
465.122	3.8
465.325	3.84
465.528	3.65
465.73	3.68
465.933	3.68
466.135	3.75
466.338	3.78
466.541	3.66
466.743	3.7
466.946	3.68
467.148	3.66
467.351	3.62
467.553	3.56
467.756	3.71
467.958	3.72
468.161	3.71
468.363	3.65
468.566	3.66
468.768	3.75
468.971	3.73
469.173	3.66
469.375	3.62
469.578	3.61
469.78	3.63
469.983	3.54
470.185	3.5
470.387	3.62
470.59	3.61
470.792	3.64
470.994	3.59
471.196	3.6
471.399	3.69
471.601	3.71
471.803	3.69
472.005	3.61
472.208	3.7
472.41	3.67
472.612	3.52
472.814	3.52
473.016	3.48
473.218	3.43
473.421	3.38
473.623	3.37
473.825	3.34
474.027	3.35
474.229	3.4
474.431	3.35
474.633	3.35
474.835	3.55
475.037	3.65
475.239	3.59
475.441	3.69
475.643	3.73
475.845	3.65
476.047	3.76
476.249	3.73
476.451	3.78
476.653	3.76
476.855	3.72
477.057	3.62
477.258	3.58
477.46	3.57
477.662	3.59
477.864	3.65
478.066	3.77
478.268	3.7
478.469	3.74
478.671	3.65
478.873	3.64
479.075	3.75
479.276	3.7
479.478	3.65
479.68	3.65
479.882	3.56
480.083	3.49
480.285	3.47
480.487	3.47
480.688	3.52
480.89	3.5
481.091	3.53
481.293	3.5
481.495	3.48
481.696	3.51
481.898	3.49
482.099	3.52
482.301	3.52
482.502	3.53
482.704	3.52
482.905	3.49
483.107	3.52
483.308	3.54
483.51	3.54
483.711	3.55
483.913	3.56
484.114	3.6
484.315	3.57
484.517	3.58
484.718	3.56
484.92	3.61
485.121	3.63
485.322	3.64
485.524	3.64
485.725	3.62
485.926	3.63
486.127	3.65
486.329	3.64
486.53	3.68
486.731	3.65
486.932	3.68
487.134	3.67
487.335	3.65
487.536	3.67
487.737	3.65
487.938	3.67
488.139	3.71
488.341	3.71
488.542	3.71
488.743	3.71
488.944	3.75
489.145	3.7
489.346	3.71
489.547	3.74
489.748	3.72
489.949	3.72
490.15	3.7
490.351	3.69
490.552	3.65
490.753	3.64
490.954	3.63
491.155	3.64
491.356	3.67
491.557	3.67
491.758	3.67
491.959	3.66
492.159	3.67
492.36	3.71
492.561	3.64
492.762	3.7
492.963	3.73
493.164	3.75
493.364	3.78
493.565	3.85
493.766	3.85
493.967	3.78
494.167	3.81
494.368	3.84
494.569	3.77
494.769	3.89
494.97	3.86
495.171	3.87
495.371	3.87
495.572	3.9
495.773	3.82
495.973	3.84
496.174	3.93
496.375	3.92
496.575	3.82
496.776	3.81
496.976	3.66
497.177	3.62
497.377	3.67
497.578	3.71
497.778	3.58
497.979	3.65
498.179	3.65
498.38	3.67
498.58	3.64
498.78	3.84
498.981	3.92
499.181	4.03
499.382	4.08
499.582	4.08
499.782	4.09
499.983	4.17
500.183	4.08
500.383	4.06
500.584	4.03
500.784	4.08
500.984	3.98
501.184	4.02
501.385	4.11
501.585	4.12
501.785	4.09
501.985	4.06
502.185	4.1
502.386	4.22
502.586	4.23
502.786	4.24
502.986	4.21
503.186	4.28
503.386	4.28
503.586	4.23
503.786	4.29
503.987	4.37
504.187	4.39
504.387	4.45
504.587	4.47
504.787	4.53
504.987	4.63
505.187	4.67
505.387	4.71
505.587	4.77
505.786	4.76
505.986	4.75
506.186	4.72
506.386	4.79
506.586	4.78
506.786	4.88
506.986	4.89
507.186	4.89
507.386	4.99
507.585	4.94
507.785	4.95
507.985	5.05
508.185	5.09
508.384	5.09
508.584	5.17
508.784	5.19
508.984	5.15
509.183	5.24
509.383	5.23
509.583	5.27
509.782	5.37
509.982	5.4
510.182	5.47
510.381	5.52
510.581	5.61
510.781	5.62
510.98	5.64
511.18	5.71
511.379	5.72
511.579	5.78
511.778	5.78
511.978	5.75
512.177	5.79
512.377	5.83
512.576	5.82
512.776	5.77
512.975	5.78
513.175	5.89
513.374	5.88
513.573	5.87
513.773	5.88
513.972	5.9
514.172	5.92
514.371	5.99
514.57	5.88
514.77	6
514.969	6.1
515.168	6.13
515.367	6.2
515.567	6.25
515.766	6.31
515.965	6.38
516.164	6.36
516.364	6.48
516.563	6.4
516.762	6.51
516.961	6.58
517.16	6.6
517.359	6.63
517.559	6.64
517.758	6.65
517.957	6.69
518.156	6.72
518.355	6.8
518.554	6.83
518.753	6.91
518.952	6.93
519.151	6.91
519.35	6.97
519.549	7
519.748	6.99
519.947	6.96
520.146	6.94
520.345	6.97
520.544	6.93
520.743	6.92
520.942	7.01
521.141	7
521.339	7.02
521.538	7.04
521.737	7.03
521.936	7.02
522.135	7.17
522.333	7.3
522.532	7.36
522.731	7.48
522.93	7.54
523.129	7.57
523.327	7.62
523.526	7.65
523.725	7.64
523.923	7.71
524.122	7.79
524.321	7.76
524.519	7.79
524.718	7.82
524.917	7.79
525.115	7.85
525.314	7.85
525.512	7.9
525.711	7.92
525.909	7.97
526.108	7.98
526.306	8.02
526.505	8.02
526.703	8.07
526.902	8.11
527.1	8.16
527.299	8.19
527.497	8.24
527.696	8.31
527.894	8.38
528.092	8.42
528.291	8.48
528.489	8.54
528.688	8.63
528.886	8.66
529.084	8.69
529.283	8.75
529.481	8.76
529.679	8.78
529.877	8.79
530.076	8.78
530.274	8.8
530.472	8.77
530.67	8.74
530.869	8.77
531.067	8.77
531.265	8.8
531.463	8.81
531.661	8.83
531.859	8.89
532.057	8.87
532.255	8.91
532.454	8.95
532.652	9.02
532.85	9.09
533.048	9.1
533.246	9.18
533.444	9.2
533.642	9.26
533.84	9.33
534.038	9.31
534.236	9.38
534.434	9.39
534.632	9.42
534.83	9.42
535.027	9.45
535.225	9.46
535.423	9.41
535.621	9.42
535.819	9.39
536.017	9.4
536.215	9.46
536.412	9.48
536.61	9.53
536.808	9.57
537.006	9.56
537.203	9.52
537.401	9.6
537.599	9.68
537.797	9.75
537.994	9.8
538.192	9.79
538.39	9.76
538.587	9.79
538.785	9.77
538.983	9.83
539.18	9.95
539.378	10.01
539.575	10.03
539.773	10.04
539.97	10.07
540.168	10.14
540.366	10.23
540.563	10.31
540.761	10.35
540.958	10.42
541.155	10.43
541.353	10.44
541.55	10.46
541.748	10.49
541.945	10.55
542.143	10.63
542.34	10.62
542.537	10.67
542.735	10.68
542.932	10.62
543.129	10.72
543.327	10.77
543.524	10.84
543.721	10.86
543.919	10.88
544.116	10.84
544.313	10.87
544.51	10.92
544.708	10.87
544.905	10.96
545.102	11.03
545.299	10.99
545.496	11.04
545.693	11.05
545.891	11.11
546.088	11.1
546.285	11.19
546.482	11.16
546.679	11.25
546.876	11.34
547.073	11.3
547.27	11.35
547.467	11.48
547.664	11.47
547.861	11.46
548.058	11.58
548.255	11.68
548.452	11.74
548.649	11.81
548.846	11.73
549.043	11.83
549.24	11.81
549.437	11.92
549.633	11.81
549.83	11.85
550.027	11.81
550.224	11.77
550.421	11.79
550.618	11.83
550.814	11.9
551.011	12.02
551.208	11.96
551.405	12.15
551.601	12.05
551.798	12.14
551.995	12.21
552.191	12.32
552.388	12.44
552.585	12.51
552.781	12.52
552.978	12.53
553.175	12.52
553.371	12.66
553.568	12.65
553.764	12.71
553.961	12.76
554.157	12.83
554.354	12.98
554.55	12.97
554.747	13.11
554.943	13.17
555.14	13.24
555.336	13.28
555.533	13.15
555.729	13.3
555.926	13.52
556.122	13.55
556.318	13.53
556.515	13.54
556.711	13.57
556.907	13.55
557.104	13.65
557.3	13.67
557.496	13.77
557.693	13.85
557.889	13.76
558.085	13.75
558.281	13.94
558.478	14.1
558.674	14.1
558.87	14.11
559.066	14.22
559.262	14.26
559.459	14.29
559.655	14.22
559.851	14.32
560.047	14.34
560.243	14.27
560.439	14.27
560.635	14.13
560.831	14.15
561.027	14.27
561.223	14.26
561.419	14.34
561.615	14.42
561.811	14.71
562.007	14.7
562.203	14.85
562.399	15.06
562.595	15.06
562.791	15.18
562.987	15.27
563.183	15.26
563.379	15.24
563.575	15.23
563.771	15.32
563.966	15.24
564.162	15.39
564.358	15.36
564.554	15.42
564.75	15.39
564.945	15.5
565.141	15.57
565.337	15.73
565.533	15.79
565.728	15.87
565.924	15.9
566.12	15.89
566.315	15.93
566.511	16.07
566.707	16.13
566.902	16.25
567.098	16.31
567.293	16.37
567.489	16.33
567.684	16.45
567.88	16.52
568.076	16.5
568.271	16.69
568.467	16.73
568.662	16.69
568.858	16.76
569.053	16.75
569.248	16.79
569.444	16.8
569.639	16.78
569.835	16.83
570.03	16.82
570.225	17
570.421	17.03
570.616	17.12
570.812	17.18
571.007	17.17
571.202	17.23
571.397	17.3
571.593	17.33
571.788	17.47
571.983	17.49
572.178	17.58
572.374	17.54
572.569	17.56
572.764	17.63
572.959	17.65
573.154	17.65
573.35	17.78
573.545	17.79
573.74	17.85
573.935	17.86
574.13	17.86
574.325	17.83
574.52	17.88
574.715	17.92
574.91	17.84
575.105	17.86
575.3	17.87
575.495	17.75
575.69	17.66
575.885	17.6
576.08	17.58
576.275	17.58
576.47	17.57
576.665	17.57
576.86	17.64
577.055	17.63
577.25	17.75
577.444	17.89
577.639	18.06
577.834	18.14
578.029	18.23
578.224	18.34
578.418	18.39
578.613	18.54
578.808	18.71
579.003	18.71
579.197	18.85
579.392	18.8
579.587	18.75
579.781	18.75
579.976	18.89
580.171	18.89
580.365	18.88
580.56	18.97
580.755	18.95
580.949	18.82
581.144	18.79
581.338	18.81
581.533	18.96
581.727	18.98
581.922	18.98
582.116	18.9
582.311	18.84
582.505	18.88
582.7	18.83
582.894	18.91
583.089	18.98
583.283	19.04
583.478	19.03
583.672	18.87
583.866	19.03
584.061	18.98
584.255	19.03
584.449	19.11
584.644	19.22
584.838	19.33
585.032	19.4
585.226	19.42
585.421	19.38
585.615	19.38
585.809	19.51
586.003	19.34
586.198	19.54
586.392	19.52
586.586	19.64
586.78	19.59
586.974	19.64
587.168	19.56
587.363	19.52
587.557	19.52
587.751	19.73
587.945	19.74
588.139	19.96
588.333	19.92
588.527	19.98
588.721	19.99
588.915	19.93
589.109	19.91
589.303	19.96
589.497	20.01
589.691	20.05
589.885	19.8
590.079	19.82
590.273	19.65
590.466	19.74
590.66	19.64
590.854	19.73
591.048	19.81
591.242	19.75
591.436	19.84
591.629	19.77
591.823	19.79
592.017	19.99
592.211	20.01
592.404	20.15
592.598	20.13
592.792	20.28
592.986	20.19
593.179	20.34
593.373	20.42
593.567	20.32
593.76	20.28
593.954	20.36
594.147	20.39
594.341	20.36
594.535	20.27
594.728	20.17
594.922	20.21
595.115	20.22
595.309	20.05
595.502	20.05
595.696	20.17
595.889	20.32
596.083	20.26
596.276	20.2
596.47	20.26
596.663	20.38
596.856	20.47
597.05	20.44
597.243	20.47
597.437	20.71
597.63	20.75
597.823	20.76
598.017	20.83
598.21	20.82
598.403	20.93
598.596	20.95
598.79	20.93
598.983	20.86
599.176	20.89
599.369	21.14
599.563	20.96
599.756	20.95
599.949	20.86
600.142	20.71
600.335	20.84
600.528	20.83
600.722	20.72
600.915	20.78
601.108	20.93
601.301	20.97
601.494	20.81
601.687	20.91
601.88	20.95
602.073	21.05
602.266	21.14
602.459	21.14
602.652	21.12
602.845	21.15
603.038	21.04
603.231	21.05
603.424	21.08
603.617	21.05
603.809	21.07
604.002	21.01
604.195	21.06
604.388	21.05
604.581	21.05
604.774	21.02
604.966	21.13
605.159	21.27
605.352	21.22
605.545	21.19
605.737	21.18
605.93	21.25
606.123	21.42
606.316	21.33
606.508	21.36
606.701	21.39
606.894	21.42
607.086	21.27
607.279	21.19
607.471	21.24
607.664	21.29
607.857	21.39
608.049	21.22
608.242	21.11
608.434	21.08
608.627	21.04
608.819	21.02
609.012	21.11
609.204	21.35
609.397	21.53
609.589	21.48
609.782	21.5
609.974	21.49
610.166	21.56
610.359	21.7
610.551	21.78
610.743	21.89
610.936	21.81
611.128	21.87
611.32	21.62
611.513	21.29
611.705	21.47
611.897	21.37
612.09	21.51
612.282	21.61
612.474	21.7
612.666	21.67
612.858	21.49
613.051	21.41
613.243	21.26
613.435	21.3
613.627	21.53
613.819	21.55
614.011	21.55
614.203	21.49
614.395	21.4
614.588	21.37
614.78	21.45
614.972	21.55
615.164	21.79
615.356	21.97
615.548	22.2
615.74	22.1
615.932	21.93
616.124	22.08
616.315	21.98
616.507	22.09
616.699	21.87
616.891	21.75
617.083	21.73
617.275	21.63
617.467	21.53
617.659	21.61
617.85	21.85
618.042	21.87
618.234	21.85
618.426	21.83
618.618	21.77
618.809	21.88
619.001	21.93
619.193	21.96
619.384	22.18
619.576	22.2
619.768	21.75
619.959	21.66
620.151	21.68
620.343	21.77
620.534	21.75
620.726	21.73
620.917	21.84
621.109	21.83
621.301	21.9
621.492	21.73
621.684	21.89
621.875	22.19
622.067	22.35
622.258	22.22
622.45	22.07
622.641	22.18
622.832	22.17
623.024	22.25
623.215	22.26
623.407	22.38
623.598	22.36
623.789	22.39
623.981	22.28
624.172	22.11
624.363	22.33
624.555	22.33
624.746	22.41
624.937	22.59
625.129	22.51
625.32	22.49
625.511	22.47
625.702	22.64
625.893	22.6
626.085	22.75
626.276	22.76
626.467	22.83
626.658	22.91
626.849	22.85
627.04	22.82
627.231	22.8
627.422	22.88
627.614	22.79
627.805	22.76
627.996	22.64
628.187	22.58
628.378	22.54
628.569	22.28
628.76	22.25
628.951	22.31
629.142	22.3
629.332	22.36
629.523	22.44
629.714	22.51
629.905	22.33
630.096	22.46
630.287	22.28
630.478	22.29
630.669	22.39
630.859	22.34
631.05	22.34
631.241	22.27
631.432	22.3
631.623	22.32
631.813	22.21
632.004	22.18
632.195	22.04
632.385	22.1
632.576	22.11
632.767	22.18
632.957	22.14
633.148	22.15
633.339	22.11
633.529	22.07
633.72	21.96
633.91	22.21
634.101	22.31
634.292	22.34
634.482	22.42
634.673	22.5
634.863	22.6
635.054	22.76
635.244	22.62
635.435	22.62
635.625	22.68
635.815	22.6
636.006	22.4
636.196	22.47
636.387	22.54
636.577	22.64
636.767	22.54
636.958	22.45
637.148	22.46
637.338	22.65
637.529	22.62
637.719	22.46
637.909	22.67
638.099	22.62
638.29	22.57
638.48	22.68
638.67	22.59
638.86	22.68
639.05	22.67
639.241	22.5
639.431	22.31
639.621	22.32
639.811	22.31
640.001	22.1
640.191	22.33
640.381	22.23
640.571	21.94
640.761	21.9
640.951	21.81
641.141	22.04
641.331	22.18
641.521	22.38
641.711	22.39
641.901	22.51
642.091	22.6
642.281	22.5
642.471	22.54
642.661	22.59
642.851	22.85
643.041	22.97
643.231	22.91
643.42	22.85
643.61	22.69
643.8	22.74
643.99	22.82
644.18	22.77
644.369	22.92
644.559	23.04
644.749	23.14
644.939	22.78
645.128	22.69
645.318	22.64
645.508	22.78
645.697	22.92
645.887	23.04
646.076	22.89
646.266	22.92
646.456	22.67
646.645	22.65
646.835	22.8
647.024	23.17
647.214	23.39
647.403	23.41
647.593	23.48
647.782	23.32
647.972	23.08
648.161	23.25
648.351	23.22
648.54	23.41
648.73	23.6
648.919	23.64
649.108	23.51
649.298	23.52
649.487	23.46
649.677	23.24
649.866	23.18
650.055	23.41
650.244	23.26
650.434	23.3
650.623	23.17
650.812	23.05
651.002	22.91
651.191	22.95
651.38	22.75
651.569	22.85
651.758	22.89
651.947	22.9
652.137	22.76
652.326	22.97
652.515	23.12
652.704	23.06
652.893	23.23
653.082	23.22
653.271	23.22
653.46	23.18
653.649	23.08
653.838	23.14
654.027	23.26
654.216	23.33
654.405	23.03
654.594	22.97
654.783	23.25
654.972	23.04
655.161	22.99
655.35	22.96
655.539	22.96
655.728	22.88
655.916	22.76
656.105	22.79
656.294	22.88
656.483	22.96
656.672	22.76
656.86	22.71
657.049	22.74
657.238	22.9
657.427	22.8
657.615	22.99
657.804	22.94
657.993	23.02
658.181	23.06
658.37	22.92
658.559	22.87
658.747	23.03
658.936	23.01
659.125	22.85
659.313	22.84
659.502	23.01
659.69	22.79
659.879	22.96
660.067	22.96
660.256	23.12
660.444	23.19
660.633	23.48
660.821	23.58
661.01	23.52
661.198	23.7
661.387	23.68
661.575	23.38
661.763	23.53
661.952	23.5
662.14	23.52
662.328	23.1
662.517	23.15
662.705	22.94
662.893	22.87
663.082	22.86
663.27	22.76
663.458	22.71
663.646	23.1
663.834	22.9
664.023	22.69
664.211	22.61
664.399	22.89
664.587	22.66
664.775	22.38
664.963	22.36
665.152	22.4
665.34	22.41
665.528	22.35
665.716	22.27
665.904	22.55
666.092	22.91
666.28	23.02
666.468	22.85
666.656	23.05
666.844	23.24
667.032	23.3
667.22	23.36
667.408	23.37
667.596	23.59
667.784	23.44
667.971	23.46
668.159	23.4
668.347	23.46
668.535	23.46
668.723	23.46
668.911	23.6
669.098	23.33
669.286	23.22
669.474	23.36
669.662	23.16
669.849	23.3
670.037	23.12
670.225	22.98
670.413	22.86
670.6	23.19
670.788	23.25
670.976	23.17
671.163	23.49
671.351	23.57
671.538	23.7
671.726	23.79
671.913	23.66
672.101	23.75
672.289	24.05
672.476	24.1
672.664	23.97
672.851	23.76
673.039	24.08
673.226	23.94
673.413	24.07
673.601	23.89
673.788	23.55
673.976	23.73
674.163	23.49
674.35	23.14
674.538	23.24
674.725	23.23
674.912	23.13
675.1	22.86
675.287	22.94
675.474	22.74
675.662	22.78
675.849	23.13
676.036	22.94
676.223	23.13
676.411	23.27
676.598	22.99
676.785	23.16
676.972	23.26
677.159	23.34
677.346	23.28
677.533	23.31
677.721	23.32
677.908	23.25
678.095	23.24
678.282	23.29
678.469	23.28
678.656	23.59
678.843	23.71
679.03	23.88
679.217	23.81
679.404	23.88
679.591	24.09
679.778	24.11
679.964	24.19
680.151	24.2
680.338	24.38
680.525	24.66
680.712	24.61
680.899	24.12
681.086	24.21
681.272	24.2
681.459	24.23
681.646	23.96
681.833	23.78
682.02	23.47
682.206	23.72
682.393	23.54
682.58	23.34
682.766	23.24
682.953	23.45
683.14	23.56
683.326	23.42
683.513	23.2
683.7	23.38
683.886	23.57
684.073	23.86
684.259	23.73
684.446	23.83
684.632	23.76
684.819	23.92
685.005	24.09
685.192	23.82
685.378	24.08
685.565	24.29
685.751	24.17
685.938	24.39
686.124	24.17
686.31	24.26
686.497	24.34
686.683	24.22
686.87	23.93
687.056	23.68
687.242	23.64
687.429	23.61
687.615	23.63
687.801	23.52
687.987	23.05
688.174	23.28
688.36	23.17
688.546	23.1
688.732	23.05
688.918	23.25
689.105	23.23
689.291	23.55
689.477	23.58
689.663	23.25
689.849	23.55
690.035	23.87
690.221	23.91
690.407	23.93
690.593	23.75
690.779	23.79
690.965	23.85
691.151	24.03
691.337	23.76
691.523	23.61
691.709	23.64
691.895	23.33
692.081	23.23
692.267	23.38
692.453	23.26
692.639	23.75
692.825	23.9
693.011	23.82
693.196	23.33
693.382	23.27
693.568	23.31
693.754	23.5
693.94	23.57
694.125	23.63
694.311	23.57
694.497	23.46
694.682	23.11
694.868	23.15
695.054	22.68
695.239	23.17
695.425	23.05
695.611	22.9
695.796	23.03
695.982	23.35
696.168	23.2
696.353	23.31
696.539	23.45
696.724	23.57
696.91	23.42
697.095	23.78
697.281	23.61
697.466	23.61
697.652	23.84
697.837	23.72
698.023	23.55
698.208	23.7
698.393	23.56
698.579	23.61
698.764	23.42
698.949	23.49
699.135	23.46
699.32	23.47
699.505	23.67
699.691	23.43
699.876	23.75
700.061	23.73
700.246	23.59
700.432	23.35
700.617	23.36
700.802	23.59
700.987	23.4
701.172	22.88
701.358	22.83
701.543	22.65
701.728	23.09
701.913	22.51
702.098	22.83
702.283	22.67
702.468	23.03
702.653	22.62
702.838	22.19
703.023	22.42
703.208	23.01
703.393	23.08
703.578	22.95
703.763	22.45
703.948	23.23
704.133	22.66
704.318	22.73
704.503	22.56
704.688	22.83
704.873	22.77
705.057	22.67
705.242	22.25
705.427	22.53
705.612	22.51
705.797	22.84
705.981	22.43
706.166	22.8
706.351	23.11
706.536	23.14
706.72	23.19
706.905	23.14
707.09	23.28
707.274	23.72
707.459	23.6
707.644	23.87
707.828	23.72
708.013	23.46
708.197	23.33
708.382	22.9
708.567	22.7
708.751	22.36
708.936	22.88
709.12	22.58
709.305	22.74
709.489	22.32
709.673	22.34
709.858	22.15
710.042	22.14
710.227	22.08
710.411	22.55
710.596	22.69
710.78	22.83
710.964	22.81
711.149	23.22
711.333	22.84
711.517	23.32
711.702	23.45
711.886	23.77
712.07	23.96
712.254	24.08
712.438	23.88
712.623	23.72
712.807	23.95
712.991	23.89
713.175	23.76
713.359	23.83
713.544	23.75
713.728	23.55
713.912	23.37
714.096	23.3
714.28	23.16
714.464	23.33
714.648	23.31
714.832	23.13
715.016	23.15
715.2	23.11
715.384	23.07
715.568	22.97
715.752	23.19
715.936	23.28
716.12	23.33
716.304	23.3
716.488	23.07
716.671	23.29
716.855	23.33
717.039	23.13
717.223	23.28
717.407	23.36
717.59	23.43
717.774	23.23
717.958	23.19
718.142	23.26
718.325	23.33
718.509	23.49
718.693	23.59
718.877	23.6
719.06	23.95
719.244	23.92
719.428	23.89
719.611	23.92
719.795	24.07
719.978	24.03
720.162	24.27
720.345	24.46
720.529	24.33
720.713	24.25
720.896	24.32
721.08	23.79
721.263	23.63
721.446	23.64
721.63	24.15
721.813	23.94
721.997	24.26
722.18	23.6
722.364	23.14
722.547	22.97
722.73	23.22
722.914	22.87
723.097	23.22
723.28	23.15
723.464	23.15
723.647	22.69
723.83	22.46
724.013	22.1
724.197	22.06
724.38	22.58
724.563	22.86
724.746	22.83
724.929	23.11
725.112	23.16
725.296	23.27
725.479	23.07
725.662	23.16
725.845	23.37
726.028	23.34
726.211	24
726.394	24.28
726.577	24.51
726.76	24.46
726.943	24.56
727.126	24.35
727.309	24.7
727.492	25.06
727.675	25.14
727.858	25.12
728.041	25.45
728.224	25.25
728.407	25.01
728.589	24.68
728.772	24.58
728.955	24.34
729.138	24.2
729.321	23.64
729.503	23.61
729.686	23.31
729.869	23.28
730.052	22.82
730.234	22.71
730.417	22.53
730.6	22.13
730.782	21.82
730.965	21.96
731.148	21.69
731.33	22.11
731.513	22.18
731.695	21.92
731.878	22.15
732.061	22.05
732.243	22.02
732.426	22.1
732.608	22.73
732.791	23.1
732.973	23.24
733.156	23.52
733.338	23.43
733.52	23.29
733.703	23.58
733.885	23.22
734.068	23.59
734.25	23.86
734.432	24.02
734.615	23.68
734.797	23.91
734.979	23.63
735.162	23.63
735.344	23.4
735.526	23.58
735.708	23.64
735.891	23.95
736.073	24.35
736.255	24.08
736.437	24.11
736.619	24.01
736.802	23.64
736.984	24.06
737.166	24.19
737.348	24.25
737.53	24.08
737.712	23.91
737.894	23.98
738.076	23.8
738.258	23.72
738.44	23.19
738.622	23.66
738.804	23.4
738.986	22.98
739.168	22.81
739.35	23
739.532	22.74
739.714	23.07
739.896	22.98
740.078	22.79
740.259	22.92
740.441	23.17
740.623	22.71
740.805	23.22
740.987	23.37
741.168	23.38
741.35	23.26
741.532	23.55
741.714	23.47
741.895	22.89
742.077	22.73
742.259	22.99
742.44	22.91
742.622	22.65
742.804	22.91
742.985	23.11
743.167	23.25
743.348	22.93
743.53	23.32
743.711	23.05
743.893	23.85
744.075	23.79
744.256	23.44
744.438	23.5
744.619	24.05
744.8	23.13
744.982	23.27
745.163	23.77
745.345	23.79
745.526	23.64
745.707	24.04
745.889	23.85
746.07	24.21
746.252	23.86
746.433	23.73
746.614	23.63
746.795	24.09
746.977	23.03
747.158	22.36
747.339	22.73
747.52	22.72
747.702	22.41
747.883	22.13
748.064	22.06
748.245	22.75
748.426	22.87
748.607	22.22
748.788	22.44
748.97	24.02
749.151	24.4
749.332	23.92
749.513	24.32
749.694	24.54
749.875	24.44
750.056	24.25
750.237	23.77
750.418	24.15
750.599	24.96
750.78	24.45
750.96	23.96
751.141	23.79
751.322	24.35
751.503	24.46
751.684	24.23
751.865	24.49
752.046	24.1
752.226	24.16
752.407	23.31
752.588	23.5
752.769	23.3
752.949	23.09
753.13	23.49
753.311	23.67
753.492	23.57
753.672	23.14
753.853	23.68
754.034	24.21
754.214	24.31
754.395	24.84
754.575	24.4
754.756	24.97
754.937	25.12
755.117	24.9
755.298	24.32
755.478	23.86
755.659	24.41
755.839	23.79
756.02	23.63
756.2	23.57
756.381	23.39
756.561	23.81
756.741	23.4
756.922	23.09
757.102	23.06
757.283	23.28
757.463	23.45
757.643	22.85
757.823	23.05
758.004	23.09
758.184	23.3
758.364	23.58
758.545	23.53
758.725	23.93
758.905	23.52
759.085	23.39
759.265	23.1
759.446	22.53
759.626	23.42
759.806	23.36
759.986	23.23
760.166	22.44
760.346	22.06
760.526	21.79
760.706	21.46
760.886	21.8
761.066	22.54
761.246	22.87
761.426	22.88
761.606	21.95
761.786	22.23
761.966	22.61
762.146	22.92
762.326	22.87
762.506	22.86
762.686	22.96
762.866	23.34
763.046	22.99
763.225	23.04
763.405	22.81
763.585	23.31
763.765	23.28
763.945	23.22
764.124	23.46
764.304	23.69
764.484	23.91
764.664	23.62
764.843	23.36
765.023	23.2
765.203	23
765.382	23.99
765.562	23.67
765.741	23.48
765.921	23.1
766.101	23.26
766.28	23.18
766.46	23.12
766.639	24.13
766.819	24.02
766.998	24.21
767.178	24.33
767.357	23.58
767.537	23.99
767.716	24.04
767.896	24.23
768.075	24.36
768.254	24.8
768.434	24.68
768.613	23.99
768.792	23.75
768.972	23.56
769.151	22.97
769.33	22.67
769.51	22.98
769.689	23.18
769.868	22.05
770.047	21.8
770.226	21.27
770.406	21.12
770.585	21.26
770.764	21.62
770.943	22
771.122	22.94
771.301	23.07
771.48	22.59
771.66	22.36
771.839	23.6
772.018	22.49
772.197	22.45
772.376	22.06
772.555	21.88
772.734	21.51
772.913	21.07
773.092	21.33
773.271	20.97
773.449	21.2
773.628	21.54
773.807	21.26
773.986	22.43
774.165	22.73
774.344	23.52
774.523	23.72
774.701	23.68
774.88	23.83
775.059	23.63
775.238	23.79
775.417	23.9
775.595	23.82
775.774	24.48
775.953	24.64
776.131	24.91
776.31	23.87
776.489	23.29
776.667	23.84
776.846	23.76
777.025	23.77
777.203	24.35
777.382	24.44
777.56	25.08
777.739	24.41
777.917	23.73
778.096	23.73
778.274	24.69
778.453	24.92
778.631	24.65
778.81	24.64
778.988	23.36
779.166	23.11
779.345	21.84
779.523	21.41
779.702	22.57
779.88	22.76
780.058	22.28
780.237	22.36
780.415	22.38
780.593	22.63
780.771	23.15
780.95	24.35
781.128	24.13
781.306	25.87
781.484	24.57
781.662	24.24
781.841	24.88
782.019	25.26
782.197	24.92
782.375	25.88
782.553	25.72
782.731	25.58
782.909	25.7
783.087	25.58
783.265	23.78
783.443	24.16
783.621	23.73
783.799	23.03
783.977	23.16
784.155	23.81
784.333	22.9
784.511	23.56
784.689	22.94
784.867	22.79
785.045	23.45
785.223	24.67
785.4	25
785.578	25.3
785.756	25.5
785.934	24.18
786.112	23.52
786.289	23.68
786.467	24.31
786.645	24.73
786.823	24
787	23.85
787.178	23.33
787.356	23.79
787.533	24.13
787.711	24.39
787.889	25.11
788.066	25.25
788.244	24.3
788.421	23.09
788.599	22.84
788.776	22.83
788.954	22.7
789.131	23.39
789.309	23.21
789.486	23.44
789.664	23.49
789.841	23.6
790.019	22.99
790.196	24.83
790.373	25.46
790.551	25.96
790.728	26.06
790.906	25.99
791.083	24.68
791.26	24.51
791.437	23.1
791.615	23.56
791.792	23.98
791.969	24.68
792.146	23.24
792.324	23.03
792.501	22.88
792.678	22.18
792.855	22.69
793.032	24.29
793.209	25.55
793.387	25.39
793.564	25.31
793.741	24.7
793.918	24.15
794.095	24.63
794.272	23.62
794.449	23.73
794.626	24.55
794.803	24.27
794.98	23.71
795.157	21.7
795.334	22.06
795.511	21.29
795.688	20.71
795.864	21.37
796.041	21.83
796.218	22.67
796.395	22.14
796.572	22.96
796.749	22.87
796.925	23.1
797.102	24.55
797.279	25.28
797.456	25.47
797.632	26.26
797.809	25.62
797.986	25.62
798.162	25.78
798.339	26.1
798.516	25.1
798.692	24.66
798.869	24.49
799.046	24.33
799.222	24.07
799.399	23.15
799.575	22.7
799.752	23.1
799.928	22.47
800.105	20.77
800.281	20.22
800.458	20.76
800.634	21.3
800.811	22.07
800.987	22.37
801.163	22.34
801.34	22.98
801.516	23.31
801.692	23.52
801.869	23.58
802.045	23.98
802.221	23.99
802.398	23.53
802.574	23.71
802.75	23.61
802.926	22.62
803.103	22.94
803.279	24.35
803.455	24.78
803.631	23.98
803.807	23.51
803.983	24.95
804.16	25.79
804.336	25.08
804.512	24.61
804.688	24.31
804.864	24.1
805.04	23.46
805.216	22.67
805.392	22.3
805.568	23.57
805.744	23.47
805.92	22.98
806.096	22.53
806.272	23.92
806.448	22.87
806.623	22.94
806.799	21.6
806.975	22.08
807.151	21.19
807.327	22.24
807.503	20.92
807.678	21.67
807.854	21.66
808.03	21.65
808.206	21.53
808.381	22.78
808.557	23.02
808.733	25.04
808.908	25.15
809.084	24.94
809.26	23.85
809.435	25.36
809.611	25.36
809.787	25.19
809.962	24.78
810.138	25.06
810.313	26.45
810.489	25.6
810.664	25.82
810.84	25.65
811.015	26.43
811.191	25.63
811.366	24.15
811.542	23.4
811.717	23.81
811.892	23.58
812.068	22.34
812.243	20.59
812.419	20.64
812.594	19.83
812.769	19.74
812.944	18.48
813.12	19.16
813.295	20.1
813.47	20.24
813.645	20.73
813.821	21.37
813.996	22.37
814.171	22.39
814.346	21.73
814.521	23.2
814.697	23.06
814.872	24.22
815.047	23.85
815.222	24.56
815.397	24.46
815.572	23.99
815.747	24.57
815.922	22.9
816.097	23.14
816.272	23.11
816.447	22.8
816.622	22.91
816.797	23.57
816.972	25.12
817.147	24.5
817.322	25.49
817.496	24.8
817.671	23.87
817.846	25.51
818.021	25.43
818.196	25.03
818.371	24.38
818.545	24
818.72	23.73
818.895	23.54
819.069	23.61
819.244	23.31
819.419	23.11
819.594	24
819.768	23.34
819.943	23.67
820.117	24.16
820.292	23.34
820.467	23.39
820.641	23.73
820.816	23.47
820.99	23.19
821.165	23.14
821.339	23.59
821.514	23.42
821.688	23.35
821.863	23.28
822.037	23.41
822.212	23.66
822.386	23.78
822.56	23.51
822.735	23.64
822.909	23.39
823.084	23.19
823.258	23.01
823.432	22.91
823.606	23.19
823.781	23.52
823.955	23.2
824.129	23.28
824.303	23.14
824.478	23.19
824.652	22.92
824.826	23.29
825	23.6
825.174	23.58
825.348	23.4
825.523	23.26
825.697	22.38
825.871	22.94
826.045	22.65
826.219	22.69
826.393	22.41
826.567	22.21
826.741	22.12
826.915	22.09
827.089	21.85
827.263	22.05
827.437	22.44
827.611	22.45
827.784	22.29
827.958	22.27
828.132	22.23
828.306	22.97
828.48	23.04
828.654	22.95
828.827	23.3
829.001	24.04
829.175	24.33
829.349	24.28
829.522	24.31
829.696	24.54
829.87	24.86
830.044	25.04
830.217	23.85
830.391	23.87
830.565	24.06
830.738	23.89
830.912	24.14
831.085	23.01
831.259	22.5
831.432	23.42
831.606	22.8
831.779	23.27
831.953	23.37
832.126	23.67
832.3	23.81
832.473	23.89
832.647	23.69
832.82	22.95
832.994	23.68
833.167	22.99
833.34	22.6
833.514	22.61
833.687	22.48
833.86	22.84
834.034	22.91
834.207	22.79
834.38	22.55
834.553	22.83
834.727	22.83
834.9	23.11
835.073	23.22
835.246	24.05
835.419	23.64
835.593	23.09
835.766	22.88
835.939	23.78
836.112	24.35
836.285	25.71
836.458	26.02
836.631	26.67
836.804	26.31
836.977	26.37
837.15	25.29
837.323	26.11
837.496	26.5
837.669	24.76
837.842	22.96
838.015	22.31
838.188	21.77
838.361	21.6
838.533	20.81
838.706	20.26
838.879	19.91
839.052	20.81
839.225	21.26
839.398	21.62
839.57	23.15
839.743	24.97
839.916	25.9
840.088	25.47
840.261	23.71
840.434	22.75
840.607	25.23
840.779	25.94
840.952	27.83
841.124	26.75
841.297	26.16
841.47	26.01
841.642	23.23
841.815	22.4
841.987	20.66
842.16	23.55
842.332	24.09
842.505	22.13
842.677	23.88
842.85	21.98
843.022	23.68
843.194	25.54
843.367	26.75
843.539	30.11
843.712	27.91
843.884	29.06
844.056	25.14
844.229	27.95
844.401	28.98
844.573	25.35
844.745	25.81
844.918	25.5
845.09	23.75
845.262	24.13
845.434	20.65
845.606	19.08
845.779	20.43
845.951	24.83
846.123	20.4
846.295	18.81
846.467	20.3
846.639	17.74
846.811	14.48
846.983	16.25
847.155	13.77
847.327	16.91
847.499	20.23
847.671	17.65
847.843	15.49
848.015	20.79
848.187	18.64
848.359	20.17
848.531	19.54
848.703	16.25
848.875	16.97
849.047	16.41
849.218	15.43
849.39	15.13
849.562	16.4
849.734	14.58
849.905	12.54
850.077	16.94
850.249	14.99
850.421	14.02
850.592	20.12
850.764	17.2
850.936	20.95
851.107	23.9
851.279	25.12
851.451	25.71
851.622	31.51
851.794	32.84
851.965	35.24
852.137	38.92
852.308	41.21
852.48	40.29
852.651	39.9
852.823	36.23
852.994	33.81
853.166	34.9
853.337	36.65
853.509	32.57
853.68	29.03
853.851	26.06
854.023	21.36
854.194	19.63
854.365	18.72
854.537	20.36
854.708	18.86
854.879	19.53
855.05	22.69
855.222	21.36
855.393	22.35
855.564	24.08
855.735	27.66
855.906	32.47
856.078	35.75
856.249	36.29
856.42	34.26
856.591	36.84
856.762	34
856.933	31.8
857.104	30.21
857.275	30.07
857.446	27.93
857.617	24.6
857.788	23.96
857.959	24.58
858.13	21.35
858.301	23.81
858.472	25.79
858.643	30.66
858.814	30.09
858.985	33.7
859.155	31.71
859.326	31.81
859.497	33.09
859.668	28.71
859.839	26.68
860.009	32.61
860.18	33.46
860.351	30.04
860.522	26.11
860.692	24.43
860.863	20.59
861.034	22.42
861.204	26.1
861.375	22.84
861.546	25.8
861.716	23.01
861.887	21.84
862.057	22.44
862.228	21.69
862.398	22.64
862.569	29.2
862.739	29.46
862.91	27.39
863.08	23.3
863.251	25.01
863.421	22.82
863.592	23.8
863.762	25.72
863.932	24.54
864.103	26.91
864.273	30.48
864.443	28.2
864.614	32.19
864.784	27.08
864.954	27.49
865.125	29.24
865.295	29.63
865.465	34.76
865.635	29.72
865.805	28.93
865.976	28.81
866.146	28.77
866.316	26.58
866.486	23.77
866.656	27.32
866.826	27.07
866.996	26.5
867.166	24.06
867.336	19.69
867.506	19.01
867.676	18.01
867.846	19.91
868.016	16.25
868.186	14.35
868.356	12.63
868.526	13.09
868.696	13.78
868.866	16.06
869.036	17.66
869.206	17.7
869.376	20.51
869.545	23.07
869.715	21.22
869.885	20.78
870.055	20.38
870.224	23.17
870.394	21.92
870.564	21.33
870.734	18.76
870.903	20.92
871.073	21.11
871.243	17.57
871.412	15.64
871.582	17.35
871.751	20.72
871.921	22.01
872.091	22.29
872.26	27.33
872.43	30.55
872.599	31.65
872.769	29.6
872.938	31.65
873.108	34.82
873.277	35.52
873.446	30.43
873.616	30.58
873.785	30.35
873.955	29.72
874.124	29.8
874.293	28.88
874.463	27.23
874.632	30.62
874.801	30.65
874.971	29.59
875.14	28.61
875.309	28.96
875.478	27.89
875.647	30.76
875.817	33.16
875.986	30.85
876.155	29.61
876.324	30.2
876.493	28.69
876.662	27.45
876.831	26.52
877	26.19
877.17	31.1
877.339	29.89
877.508	26.04
877.677	23.77
877.846	28.4
878.015	28.46
878.184	29.79
878.352	32.55
878.521	31.38
878.69	33.59
878.859	34.76
879.028	32.87
879.197	31.95
879.366	31.84
879.534	28.57
879.703	25.89
879.872	25.04
880.041	23.23
880.21	22.47
880.378	23.1
880.547	22.33
880.716	21.71
880.884	21.86
881.053	21.43
881.222	21.86
881.39	22.74
881.559	23.3
881.727	23.43
881.896	24.94
882.065	24.91
882.233	25.15
882.402	25.13
882.57	25.27
882.739	25.49
882.907	25.65
883.076	25.49
883.244	25.29
883.412	24.38
883.581	25.18
883.749	25.05
883.918	25.33
884.086	25.32
884.254	26.15
884.423	25.16
884.591	25.27
884.759	26
884.927	26.11
885.096	25.74
885.264	27.16
885.432	25
885.6	20.79
885.769	19.88
885.937	19.41
886.105	18.59
886.273	21.58
886.441	19.75
886.609	18.43
886.777	16.28
886.945	16.63
887.113	15.9
887.281	16.99
887.449	23.85
887.617	23.27
887.785	21.92
887.953	18.72
888.121	17.53
888.289	19.49
888.457	19.68
888.625	23.34
888.793	29.23
888.961	28.18
889.129	31.86
889.296	32.02
889.464	33.18
889.632	35.19
889.8	39.54
889.967	43.54
890.135	44.93
