Data from 2938495_Reflection_3.txt Node
Date: Wed Jun 17 00:33:47 EDT 2015
User: robert
Spectrometer: USB4E03002
Autoset integration time: false
Trigger mode: 4
Integration Time (sec): 1.000000E-1
Scans to average: 10
Electric dark correction enabled: true
Nonlinearity correction enabled: false
Boxcar width: 5
Stray light correction enabled: false
XAxis mode: Wavelengths
Stop averaging: false
Number of Pixels in Spectrum: 3648
>>>>>Begin Spectral Data<<<<<
177.575	-305.57
177.794	-144.04
178.014	-65.34
178.233	-50.8
178.452	24.9
178.672	11.3
178.891	81.81
179.11	173.1
179.33	235.48
179.549	407.93
179.768	657.46
179.987	-1762.43
180.207	-737.35
180.426	5671.13
180.645	-615.65
180.864	423.18
181.084	308.23
181.303	343.21
181.522	263.97
181.741	270.83
181.96	241.35
182.179	169.23
182.398	169.03
182.618	168.3
182.837	223.23
183.056	248.38
183.275	449.93
183.494	345.34
183.713	378.69
183.932	417.84
184.151	250.75
184.37	291.16
184.589	340.79
184.808	415.18
185.027	349.87
185.246	800.11
185.465	536.98
185.684	1949.84
185.903	-1201.79
186.122	1016.1
186.341	607.14
186.56	1118.43
186.779	673.88
186.998	465.07
187.216	978.8
187.435	351.29
187.654	174.1
187.873	231.21
188.092	367.46
188.311	513.32
188.53	2429.61
188.748	873.74
188.967	-133
189.186	-738.89
189.405	-232.91
189.623	-390.8
189.842	-138.75
190.061	-119.95
190.28	-112.81
190.498	-123.65
190.717	-80.74
190.936	-76.71
191.154	-75.77
191.373	-152.24
191.592	-119.86
191.81	-240.86
192.029	-401.96
192.248	-2803.73
192.466	705.64
192.685	667.18
192.904	356.45
193.122	290.79
193.341	192.77
193.559	230.81
193.778	285.4
193.996	364.11
194.215	295.46
194.433	278.3
194.652	344.41
194.87	642.12
195.089	254.56
195.307	609.86
195.526	665.63
195.744	-4807.63
195.963	265.04
196.181	200.17
196.399	184.67
196.618	392.36
196.836	637.34
197.055	226.55
197.273	514.29
197.491	986.59
197.71	664.9
197.928	407.8
198.146	435.66
198.365	-954.2
198.583	-154.75
198.801	-171.32
199.019	-228.18
199.238	-584.35
199.456	-256.41
199.674	-1027.98
199.892	2928.57
200.111	595.97
200.329	555.63
200.547	344.62
200.765	260.08
200.983	212.28
201.202	185.43
201.42	156.29
201.638	178.53
201.856	167.07
202.074	155.1
202.292	168.69
202.51	196.41
202.728	185.19
202.946	309
203.165	528.79
203.383	-27120
203.601	-2662.98
203.819	-4456.67
204.037	-2792.1
204.255	-1444.3
204.473	-862.43
204.691	-310.86
204.909	-309.86
205.127	-178.26
205.345	-326.05
205.562	-279.33
205.78	-285.33
205.998	-249.49
206.216	-115.2
206.434	-1308.77
206.652	-272.65
206.87	-339.06
207.088	284.79
207.306	166.8
207.523	106.76
207.741	116.58
207.959	92.72
208.177	124.55
208.395	95.51
208.612	119.51
208.83	163.66
209.048	156.2
209.266	166.27
209.483	199.65
209.701	179.96
209.919	144.1
210.136	112.45
210.354	165.78
210.572	137.69
210.79	188.38
211.007	139.73
211.225	152.57
211.442	71.11
211.66	99.14
211.878	103.01
212.095	86.98
212.313	90.8
212.53	122.17
212.748	92.04
212.966	96.3
213.183	92.11
213.401	92.66
213.618	91.4
213.836	136.86
214.053	110.33
214.271	119.38
214.488	135.55
214.705	196.08
214.923	201.99
215.14	163.72
215.358	138.93
215.575	120.99
215.793	131.65
216.01	139.63
216.227	119.03
216.445	111.19
216.662	103.47
216.879	98.39
217.097	93.68
217.314	89.47
217.531	89.31
217.749	86.91
217.966	96.21
218.183	74.46
218.4	50.05
218.618	56.52
218.835	73.87
219.052	78.05
219.269	77.79
219.487	83.28
219.704	73.19
219.921	79.77
220.138	84.28
220.355	77.91
220.572	88.17
220.79	98.39
221.007	104.22
221.224	95.49
221.441	85.66
221.658	69.77
221.875	57.49
222.092	53.27
222.309	51.62
222.526	46.21
222.743	40.75
222.96	36.1
223.177	28.05
223.394	18.61
223.611	13.28
223.828	14.56
224.045	20.93
224.262	24.98
224.479	25.82
224.696	24.96
224.913	25.77
225.13	22.8
225.347	22.79
225.564	22.34
225.781	23.47
225.997	22.99
226.214	22.03
226.431	19.94
226.648	17.81
226.865	16.66
227.082	15.86
227.298	16.79
227.515	18.54
227.732	17.77
227.949	17.06
228.165	16.45
228.382	16.4
228.599	16.36
228.816	17.61
229.032	17.88
229.249	19.59
229.466	20.23
229.682	19.17
229.899	17.64
230.116	20.15
230.332	21.85
230.549	24.12
230.765	25.15
230.982	26.22
231.199	25.5
231.415	24.14
231.632	23.28
231.848	21.04
232.065	19.45
232.281	20.21
232.498	17.62
232.714	17.64
232.931	15.37
233.147	16.59
233.364	15.78
233.58	15.17
233.797	15.87
234.013	16.86
234.23	17.77
234.446	19.97
234.662	21.13
234.879	21.42
235.095	23.28
235.312	23.37
235.528	22.27
235.744	22.37
235.961	23.66
236.177	23.19
236.393	19.76
236.61	18.55
236.826	18.73
237.042	19.46
237.258	18.06
237.475	17.18
237.691	16.58
237.907	15.1
238.123	16.87
238.339	17.41
238.556	19.81
238.772	20.86
238.988	21.67
239.204	21.32
239.42	19.49
239.636	19.09
239.853	17.39
240.069	17.72
240.285	18.64
240.501	17.72
240.717	17.18
240.933	16.06
241.149	15.52
241.365	15.33
241.581	14.96
241.797	15.33
242.013	15.41
242.229	16.01
242.445	16.11
242.661	15.22
242.877	15.7
243.093	15.29
243.309	15.13
243.525	15.78
243.741	14.94
243.957	14.45
244.173	13.98
244.388	13.17
244.604	12.74
244.82	12.33
245.036	11.91
245.252	11.78
245.468	11.63
245.683	11.58
245.899	11.15
246.115	11.28
246.331	11.64
246.547	11.6
246.762	11.94
246.978	11.76
247.194	11.57
247.409	12.04
247.625	11.92
247.841	11.86
248.057	11.75
248.272	11.69
248.488	11.65
248.703	11.18
248.919	10.6
249.135	9.62
249.35	9.51
249.566	10.22
249.782	9.84
249.997	9.07
250.213	8.92
250.428	9.76
250.644	10.48
250.859	10.53
251.075	9.89
251.29	10.01
251.506	10.66
251.721	11.37
251.937	11.5
252.152	11.58
252.368	12.08
252.583	12.44
252.798	12.98
253.014	12.5
253.229	12.4
253.445	12.55
253.66	13.7
253.875	14.58
254.091	13.82
254.306	13.16
254.521	12.47
254.737	12.54
254.952	12.07
255.167	11.17
255.383	11.33
255.598	11.18
255.813	11.59
256.028	10.79
256.244	9.73
256.459	10.16
256.674	9.63
256.889	9.35
257.104	8.78
257.32	9.03
257.535	8.5
257.75	8.43
257.965	8.32
258.18	7.93
258.395	8.31
258.61	8.32
258.826	7.93
259.041	7.93
259.256	8.13
259.471	8.34
259.686	8.16
259.901	8.44
260.116	8.45
260.331	8.54
260.546	8.67
260.761	8.18
260.976	8.38
261.191	8.81
261.406	8.45
261.621	8.65
261.836	8.96
262.05	9.7
262.265	9.71
262.48	9.86
262.695	9.53
262.91	10.07
263.125	9.88
263.34	10.51
263.555	10.66
263.769	11.74
263.984	11.16
264.199	9.81
264.414	9.81
264.629	9.48
264.843	9.16
265.058	9.35
265.273	9.1
265.488	9.24
265.702	9.16
265.917	9.31
266.132	9.21
266.346	9.44
266.561	9.79
266.776	9.28
266.99	9.46
267.205	9.9
267.42	10.11
267.634	9.95
267.849	10.38
268.063	9.86
268.278	9.34
268.492	8.78
268.707	8.87
268.922	9.47
269.136	9.42
269.351	9.24
269.565	9.08
269.78	9.22
269.994	8.9
270.209	8.6
270.423	8.86
270.637	8.83
270.852	8.64
271.066	8.5
271.281	8.19
271.495	8.16
271.709	8.38
271.924	8.23
272.138	8.13
272.353	8.51
272.567	8.22
272.781	8.46
272.996	8.92
273.21	8.7
273.424	8.61
273.638	8.66
273.853	8.63
274.067	8.07
274.281	8.25
274.495	8.37
274.71	8.59
274.924	9.1
275.138	8.8
275.352	8.3
275.566	9.49
275.781	9.8
275.995	9.57
276.209	10
276.423	10.17
276.637	9.79
276.851	9.29
277.065	10.07
277.279	9.53
277.493	9.42
277.707	9.29
277.921	8.76
278.135	8.56
278.349	8.5
278.563	8.01
278.777	7.76
278.991	7.76
279.205	7.89
279.419	6.88
279.633	7.48
279.847	7.55
280.061	7.82
280.275	8.14
280.489	7.97
280.703	8.65
280.917	8.82
281.131	8.97
281.344	9.19
281.558	9.28
281.772	9.4
281.986	9.04
282.2	9.1
282.414	8.88
282.627	8.52
282.841	8.76
283.055	8.59
283.269	8.49
283.482	8.48
283.696	8.35
283.91	8.49
284.123	8.66
284.337	8.95
284.551	8.46
284.764	8.92
284.978	9.39
285.192	9.05
285.405	8.98
285.619	9.07
285.833	9.65
286.046	9.72
286.26	9.37
286.473	9.16
286.687	9.25
286.9	9.62
287.114	9.23
287.327	8.62
287.541	8.79
287.754	8.68
287.968	8.63
288.181	8.57
288.395	8.4
288.608	8.52
288.822	8.51
289.035	8.09
289.248	8.27
289.462	8.5
289.675	8.86
289.889	8.94
290.102	8.75
290.315	8.99
290.529	9
290.742	9.07
290.955	9.16
291.169	9.61
291.382	9.74
291.595	9.16
291.808	9.4
292.022	9.44
292.235	9.8
292.448	9.82
292.661	9.62
292.875	9.41
293.088	9.15
293.301	9.29
293.514	8.7
293.727	8.29
293.94	8.93
294.153	8.74
294.367	8.34
294.58	7.97
294.793	7.64
295.006	7.59
295.219	7.13
295.432	7.46
295.645	7.41
295.858	7.49
296.071	7.87
296.284	7.56
296.497	7.36
296.71	7.44
296.923	7.6
297.136	8.07
297.349	8.29
297.562	8.79
297.775	8.93
297.988	8.75
298.201	8.85
298.414	8.77
298.626	8.93
298.839	8.97
299.052	9.41
299.265	9.35
299.478	9.22
299.691	9.11
299.903	8.91
300.116	8.38
300.329	8.22
300.542	8.28
300.755	8.69
300.967	8.53
301.18	8.75
301.393	8.94
301.605	8.79
301.818	8.88
302.031	8.83
302.243	9.08
302.456	9.18
302.669	9.26
302.881	9.07
303.094	8.66
303.307	8.69
303.519	8.37
303.732	7.99
303.944	8.13
304.157	7.51
304.37	7.54
304.582	6.95
304.795	7.11
305.007	7.14
305.22	7.47
305.432	7.58
305.645	7.5
305.857	7.51
306.069	7.49
306.282	7.4
306.494	8.29
306.707	8
306.919	8.58
307.132	8.52
307.344	8.72
307.556	9.04
307.769	8.95
307.981	8.86
308.193	9.28
308.406	9.2
308.618	9.44
308.83	9.09
309.043	9.42
309.255	9.23
309.467	9.23
309.679	9.25
309.892	8.72
310.104	8.66
310.316	9.14
310.528	9.23
310.74	9.21
310.953	9.27
311.165	9.35
311.377	9.16
311.589	8.82
311.801	9.1
312.013	9.18
312.225	9.8
312.437	10.02
312.649	10.16
312.862	9.63
313.074	9.9
313.286	9.65
313.498	9.77
313.71	10.02
313.922	10.36
314.134	10.53
314.346	10.49
314.558	10.33
314.77	10.72
314.982	10.43
315.193	10.61
315.405	10.7
315.617	10.1
315.829	10.01
316.041	9.5
316.253	9.71
316.465	9.68
316.677	9.65
316.888	9.48
317.1	9.23
317.312	9.12
317.524	9.38
317.736	8.88
317.947	9.44
318.159	9.52
318.371	9.76
318.583	9.18
318.794	9.01
319.006	9.23
319.218	9.11
319.43	9.06
319.641	9.09
319.853	9.28
320.064	9.43
320.276	9.45
320.488	9.73
320.699	10.37
320.911	10.84
321.123	10.89
321.334	10.73
321.546	10.96
321.757	10.21
321.969	9.76
322.18	9.31
322.392	9.75
322.603	9.59
322.815	9.12
323.026	8.56
323.238	8.57
323.449	8.32
323.661	8.29
323.872	8.24
324.083	8.71
324.295	8.65
324.506	8.91
324.718	8.57
324.929	8.72
325.14	8.82
325.352	9.18
325.563	9.41
325.774	9.59
325.986	9.48
326.197	9.32
326.408	9.36
326.62	9.82
326.831	9.68
327.042	9.76
327.253	9.69
327.464	9.42
327.676	9.34
327.887	8.99
328.098	8.58
328.309	8.79
328.52	8.58
328.732	8.68
328.943	8.56
329.154	8.27
329.365	8.16
329.576	8.56
329.787	9.52
329.998	9.66
330.209	9.96
330.42	10.11
330.631	9.94
330.842	10.09
331.053	10.28
331.264	9.8
331.475	9.89
331.686	9.76
331.897	9.47
332.108	8.95
332.319	8.2
332.53	8
332.741	7.68
332.952	7.77
333.163	7.85
333.374	7.47
333.585	7.82
333.795	8.12
334.006	8.29
334.217	8.27
334.428	8.05
334.639	8.07
334.849	8.31
335.06	8.78
335.271	8.45
335.482	8.68
335.692	8.6
335.903	8.62
336.114	8.39
336.325	8.35
336.535	8.02
336.746	8.43
336.957	8.71
337.167	8.3
337.378	8.36
337.589	8.59
337.799	8.61
338.01	8.5
338.22	8.28
338.431	8.43
338.642	8.32
338.852	8.65
339.063	8.41
339.273	8.22
339.484	8.29
339.694	8.31
339.905	8.46
340.115	8.14
340.326	8.59
340.536	8.94
340.746	8.54
340.957	8.82
341.167	8.78
341.378	8.49
341.588	8.57
341.799	8.48
342.009	8.19
342.219	7.74
342.43	7.72
342.64	7.62
342.85	7.48
343.061	7.83
343.271	7.6
343.481	7.62
343.691	7.83
343.902	7.52
344.112	7.33
344.322	7.36
344.532	7.64
344.743	7.71
344.953	7.35
345.163	7.21
345.373	7.05
345.583	6.91
345.793	6.85
346.004	6.9
346.214	7.42
346.424	7.51
346.634	7.66
346.844	7.69
347.054	7.67
347.264	7.87
347.474	7.65
347.684	7.6
347.894	7.86
348.104	7.69
348.314	7.23
348.524	6.92
348.734	7
348.944	6.56
349.154	6.47
349.364	6.59
349.574	6.69
349.784	6.93
349.994	7.08
350.204	6.49
350.413	6.62
350.623	6.96
350.833	6.79
351.043	7.07
351.253	7.45
351.463	7.6
351.672	7.42
351.882	7.34
352.092	7.39
352.302	7.25
352.511	7.78
352.721	7.58
352.931	7.75
353.141	7.83
353.35	7.72
353.56	7.45
353.77	7.57
353.979	7.52
354.189	7.38
354.399	7.24
354.608	7.35
354.818	7.33
355.027	7.33
355.237	7.1
355.447	6.99
355.656	6.8
355.866	6.82
356.075	6.42
356.285	6.57
356.494	6.57
356.704	6.56
356.913	6.54
357.123	6.4
357.332	6.44
357.542	6.35
357.751	6.54
357.96	6.52
358.17	6.31
358.379	6.33
358.589	6.26
358.798	6.24
359.007	6.11
359.217	6.03
359.426	5.82
359.635	5.9
359.845	5.74
360.054	5.7
360.263	5.64
360.472	5.74
360.682	5.72
360.891	5.64
361.1	5.74
361.309	5.87
361.519	5.84
361.728	6.2
361.937	6.18
362.146	6.26
362.355	5.97
362.564	6.02
362.774	5.95
362.983	6.25
363.192	6.2
363.401	6.21
363.61	5.96
363.819	6.04
364.028	5.66
364.237	5.87
364.446	5.91
364.655	6.43
364.864	6.32
365.073	6.59
365.282	6.4
365.491	6.5
365.7	6.57
365.909	7.02
366.118	6.72
366.327	7.01
366.536	6.82
366.745	6.75
366.954	6.51
367.162	6.72
367.371	6.58
367.58	6.48
367.789	6.25
367.998	5.97
368.207	5.31
368.415	5.69
368.624	5.71
368.833	5.46
369.042	5.61
369.25	5.56
369.459	5.47
369.668	5.37
369.877	5.26
370.085	5.55
370.294	5.54
370.503	5.86
370.711	5.66
370.92	5.53
371.129	5.48
371.337	5.41
371.546	5.24
371.754	5.45
371.963	5.38
372.171	5.4
372.38	5.3
372.589	5.27
372.797	4.95
373.006	5.06
373.214	5.15
373.423	5.36
373.631	5.31
373.84	5.54
374.048	5.37
374.256	5.22
374.465	5.48
374.673	5.37
374.882	5.25
375.09	5.58
375.298	5.1
375.507	4.9
375.715	5.04
375.923	5.08
376.132	4.97
376.34	4.84
376.548	5.07
376.757	4.74
376.965	4.8
377.173	4.91
377.381	4.71
377.59	4.98
377.798	4.95
378.006	4.77
378.214	4.75
378.423	4.96
378.631	4.85
378.839	4.52
379.047	4.63
379.255	4.61
379.463	4.55
379.671	4.74
379.879	4.93
380.088	5.03
380.296	4.99
380.504	4.73
380.712	4.65
380.92	4.75
381.128	4.9
381.336	4.75
381.544	4.47
381.752	4.52
381.96	4.19
382.168	4.12
382.376	4.26
382.584	4.24
382.791	4.41
382.999	4.27
383.207	4.3
383.415	4.34
383.623	4.37
383.831	4.35
384.039	4.32
384.247	4.45
384.454	4.26
384.662	4.11
384.87	4.03
385.078	3.91
385.285	3.91
385.493	3.95
385.701	3.99
385.909	4.04
386.116	4.12
386.324	4.3
386.532	4.55
386.739	4.67
386.947	4.78
387.155	4.97
387.362	4.98
387.57	5.1
387.778	4.86
387.985	4.82
388.193	4.66
388.4	4.82
388.608	4.7
388.816	4.52
389.023	4.44
389.231	4.32
389.438	4.18
389.646	4.38
389.853	4.42
390.061	4.68
390.268	4.59
390.475	4.61
390.683	4.7
390.89	4.55
391.098	4.57
391.305	4.66
391.512	4.43
391.72	4.43
391.927	4.43
392.135	4.35
392.342	4.33
392.549	4.52
392.756	4.57
392.964	4.47
393.171	4.63
393.378	4.57
393.586	4.41
393.793	4.72
394	4.82
394.207	4.86
394.414	4.92
394.622	4.88
394.829	4.92
395.036	5.04
395.243	4.86
395.45	4.72
395.657	4.66
395.864	4.65
396.072	4.57
396.279	4.36
396.486	4.29
396.693	3.96
396.9	3.97
397.107	3.85
397.314	3.67
397.521	3.89
397.728	3.93
397.935	4.1
398.142	4.04
398.349	4.05
398.556	4.17
398.763	4.02
398.97	4.3
399.177	4.23
399.383	4.42
399.59	4.59
399.797	4.67
400.004	4.77
400.211	4.63
400.418	4.93
400.625	4.98
400.831	5.06
401.038	5.28
401.245	5.08
401.452	5.05
401.658	4.79
401.865	4.57
402.072	4.18
402.279	4.07
402.485	4.09
402.692	3.89
402.899	3.71
403.105	3.67
403.312	3.63
403.519	3.84
403.725	3.81
403.932	3.82
404.138	3.88
404.345	4.06
404.552	4.08
404.758	3.97
404.965	3.91
405.171	3.81
405.378	3.91
405.584	3.81
405.791	3.56
405.997	3.69
406.204	3.66
406.41	3.76
406.617	3.72
406.823	3.77
407.029	3.7
407.236	3.74
407.442	3.66
407.649	3.47
407.855	3.39
408.061	3.47
408.268	3.39
408.474	3.34
408.68	3.26
408.887	3.34
409.093	3.28
409.299	3.3
409.505	3.35
409.712	3.6
409.918	3.67
410.124	3.7
410.33	3.66
410.537	3.58
410.743	3.64
410.949	3.41
411.155	3.42
411.361	3.38
411.567	3.51
411.773	3.37
411.98	3.24
412.186	3.02
412.392	2.96
412.598	3.11
412.804	3.23
413.01	3.33
413.216	3.64
413.422	3.51
413.628	3.57
413.834	3.53
414.04	3.6
414.246	3.68
414.452	3.68
414.658	3.74
414.864	3.8
415.07	3.88
415.275	3.82
415.481	3.77
415.687	3.76
415.893	3.76
416.099	3.79
416.305	3.7
416.511	3.63
416.716	3.77
416.922	3.76
417.128	3.56
417.334	3.4
417.539	3.38
417.745	3.36
417.951	3.37
418.157	3.37
418.362	3.36
418.568	3.46
418.774	3.5
418.979	3.46
419.185	3.44
419.391	3.43
419.596	3.47
419.802	3.45
420.008	3.45
420.213	2.71
420.419	2.61
420.624	2.56
420.83	2.42
421.035	2.33
421.241	2.28
421.446	2.31
421.652	2.35
421.857	2.31
422.063	2.32
422.268	2.3
422.474	2.99
422.679	3.03
422.885	2.94
423.09	3.04
423.295	3.1
423.501	3.04
423.706	3
423.911	2.96
424.117	2.97
424.322	2.94
424.527	2.91
424.733	2.86
424.938	2.89
425.143	2.94
425.349	2.94
425.554	2.81
425.759	2.87
425.964	2.85
426.169	2.87
426.375	2.8
426.58	2.88
426.785	2.87
426.99	3
427.195	2.99
427.4	3.03
427.605	2.97
427.811	3.09
428.016	3.11
428.221	3.11
428.426	3.05
428.631	3.07
428.836	3.09
429.041	3.11
429.246	3.03
429.451	2.98
429.656	3
429.861	2.99
430.066	2.96
430.271	3.04
430.476	3.03
430.681	3.1
430.886	3.04
431.09	2.92
431.295	2.95
431.5	2.98
431.705	3.02
431.91	3
432.115	2.98
432.32	2.99
432.524	2.84
432.729	2.83
432.934	2.78
433.139	2.82
433.343	2.86
433.548	2.86
433.753	2.83
433.958	2.87
434.162	2.9
434.367	2.91
434.572	2.9
434.776	2.95
434.981	2.94
435.186	3.01
435.39	3.03
435.595	3.01
435.799	2.87
436.004	2.89
436.209	2.83
436.413	2.74
436.618	2.76
436.822	2.76
437.027	2.78
437.231	2.71
437.436	2.66
437.64	2.67
437.845	2.75
438.049	2.86
438.253	2.88
438.458	2.82
438.662	2.83
438.867	2.8
439.071	2.75
439.275	2.77
439.48	2.81
439.684	2.82
439.888	2.79
440.093	2.79
440.297	2.74
440.501	2.72
440.706	2.79
440.91	2.83
441.114	2.91
441.318	2.86
441.523	2.81
441.727	2.86
441.931	2.78
442.135	2.85
442.339	2.83
442.543	2.78
442.748	2.71
442.952	2.68
443.156	2.7
443.36	2.7
443.564	2.8
443.768	2.8
443.972	2.79
444.176	2.71
444.38	2.62
444.584	2.63
444.788	2.7
444.992	2.66
445.196	2.67
445.4	2.7
445.604	2.67
445.808	2.73
446.012	2.73
446.216	2.65
446.42	2.77
446.624	2.78
446.828	2.75
447.032	2.72
447.235	2.78
447.439	2.76
447.643	2.69
447.847	2.68
448.051	2.65
448.254	2.62
448.458	2.75
448.662	2.76
448.866	2.78
449.069	2.81
449.273	2.77
449.477	2.83
449.681	2.77
449.884	2.85
450.088	2.92
450.292	2.86
450.495	2.91
450.699	2.81
450.902	2.75
451.106	2.76
451.31	2.79
451.513	2.81
451.717	2.77
451.92	2.85
452.124	2.83
452.327	2.77
452.531	2.8
452.734	2.72
452.938	2.92
453.141	2.85
453.345	2.91
453.548	2.91
453.752	2.96
453.955	2.86
454.158	2.74
454.362	2.65
454.565	2.69
454.769	2.73
454.972	2.66
455.175	2.48
455.379	2.66
455.582	2.59
455.785	2.49
455.988	2.41
456.192	2.43
456.395	2.54
456.598	2.69
456.801	2.62
457.005	2.5
457.208	2.59
457.411	2.59
457.614	2.57
457.817	2.62
458.021	2.65
458.224	2.72
458.427	2.77
458.63	2.76
458.833	2.67
459.036	2.69
459.239	2.75
459.442	2.75
459.645	2.75
459.848	2.68
460.051	2.68
460.254	2.6
460.457	2.62
460.66	2.57
460.863	2.54
461.066	2.54
461.269	2.49
461.472	2.48
461.675	2.48
461.878	2.43
462.081	2.49
462.284	2.48
462.486	2.53
462.689	2.5
462.892	2.56
463.095	2.55
463.298	2.59
463.5	2.71
463.703	2.78
463.906	2.84
464.109	2.83
464.311	2.89
464.514	2.84
464.717	2.9
464.92	2.81
465.122	2.81
465.325	2.86
465.528	2.87
465.73	2.73
465.933	2.62
466.135	2.48
466.338	2.54
466.541	2.49
466.743	2.56
466.946	2.52
467.148	2.55
467.351	2.62
467.553	2.5
467.756	2.48
467.958	2.6
468.161	2.61
468.363	2.77
468.566	2.73
468.768	2.76
468.971	2.72
469.173	2.72
469.375	2.73
469.578	2.63
469.78	2.73
469.983	2.71
470.185	2.68
470.387	2.62
470.59	2.54
470.792	2.58
470.994	2.34
471.196	2.26
471.399	2.27
471.601	2.28
471.803	2.34
472.005	2.34
472.208	2.32
472.41	2.31
472.612	2.37
472.814	2.39
473.016	2.31
473.218	2.54
473.421	2.54
473.623	2.53
473.825	2.6
474.027	2.51
474.229	2.59
474.431	2.68
474.633	2.7
474.835	2.68
475.037	2.78
475.239	2.87
475.441	2.76
475.643	2.87
475.845	2.88
476.047	2.87
476.249	2.93
476.451	2.82
476.653	2.8
476.855	2.83
477.057	2.77
477.258	2.69
477.46	2.71
477.662	2.87
477.864	2.77
478.066	2.77
478.268	2.74
478.469	2.68
478.671	2.68
478.873	2.62
479.075	2.57
479.276	2.61
479.478	2.63
479.68	2.57
479.882	2.51
480.083	2.56
480.285	2.53
480.487	2.47
480.688	2.41
480.89	2.4
481.091	2.38
481.293	2.41
481.495	2.4
481.696	2.38
481.898	2.41
482.099	2.38
482.301	2.36
482.502	2.35
482.704	2.36
482.905	2.38
483.107	2.38
483.308	2.42
483.51	2.41
483.711	2.41
483.913	2.4
484.114	2.39
484.315	2.42
484.517	2.44
484.718	2.44
484.92	2.46
485.121	2.48
485.322	2.51
485.524	2.46
485.725	2.46
485.926	2.51
486.127	2.51
486.329	2.49
486.53	2.44
486.731	2.43
486.932	2.45
487.134	2.44
487.335	2.47
487.536	2.45
487.737	2.41
487.938	2.38
488.139	2.32
488.341	2.31
488.542	2.35
488.743	2.35
488.944	2.37
489.145	2.4
489.346	2.41
489.547	2.37
489.748	2.36
489.949	2.45
490.15	2.46
490.351	2.49
490.552	2.48
490.753	2.47
490.954	2.53
491.155	2.48
491.356	2.46
491.557	2.47
491.758	2.49
491.959	2.53
492.159	2.52
492.36	2.55
492.561	2.5
492.762	2.53
492.963	2.53
493.164	2.46
493.364	2.43
493.565	2.49
493.766	2.42
493.967	2.45
494.167	2.44
494.368	2.4
494.569	2.51
494.769	2.51
494.97	2.48
495.171	2.51
495.371	2.52
495.572	2.62
495.773	2.6
495.973	2.64
496.174	2.58
496.375	2.56
496.575	2.52
496.776	2.46
496.976	2.45
497.177	2.48
497.377	2.43
497.578	2.43
497.778	2.44
497.979	2.38
498.179	2.39
498.38	2.44
498.58	2.42
498.78	2.43
498.981	2.38
499.181	2.43
499.382	2.53
499.582	2.61
499.782	2.68
499.983	2.63
500.183	2.68
500.383	2.58
500.584	2.52
500.784	2.6
500.984	2.63
501.184	2.69
501.385	2.7
501.585	2.66
501.785	2.56
501.985	2.55
502.185	2.55
502.386	2.51
502.586	2.64
502.786	2.7
502.986	2.68
503.186	2.73
503.386	2.72
503.586	2.59
503.786	2.59
503.987	2.68
504.187	2.64
504.387	2.68
504.587	2.74
504.787	2.7
504.987	2.72
505.187	2.72
505.387	2.63
505.587	2.61
505.786	2.75
505.986	2.67
506.186	2.66
506.386	2.68
506.586	2.7
506.786	2.69
506.986	2.73
507.186	2.66
507.386	2.65
507.585	2.65
507.785	2.79
507.985	2.73
508.185	2.81
508.384	2.82
508.584	2.84
508.784	2.85
508.984	2.81
509.183	2.79
509.383	2.85
509.583	2.89
509.782	2.93
509.982	2.79
510.182	2.79
510.381	2.75
510.581	2.66
510.781	2.6
510.98	2.64
511.18	2.65
511.379	2.69
511.579	2.68
511.778	2.67
511.978	2.72
512.177	2.75
512.377	2.83
512.576	2.96
512.776	3.07
512.975	3.19
513.175	3.23
513.374	3.26
513.573	3.3
513.773	3.36
513.972	3.34
514.172	3.34
514.371	3.29
514.57	3.23
514.77	3.04
514.969	3.03
515.168	2.99
515.367	2.88
515.567	2.94
515.766	2.87
515.965	2.93
516.164	3.05
516.364	3.03
516.563	3.12
516.762	3.05
516.961	3.05
517.16	3.05
517.359	2.99
517.559	3.01
517.758	2.98
517.957	2.96
518.156	2.95
518.355	2.9
518.554	2.93
518.753	2.85
518.952	2.89
519.151	2.93
519.35	2.92
519.549	2.98
519.748	2.98
519.947	3.07
520.146	3.08
520.345	3.06
520.544	3.03
520.743	2.98
520.942	3.02
521.141	3.09
521.339	3.11
521.538	3.13
521.737	3.16
521.936	3.19
522.135	3.1
522.333	3.14
522.532	3.15
522.731	3.15
522.93	3.18
523.129	3.2
523.327	3.17
523.526	3.19
523.725	3.21
523.923	3.19
524.122	3.17
524.321	3.11
524.519	3.08
524.718	3.05
524.917	3.03
525.115	3.02
525.314	3.02
525.512	3.01
525.711	2.98
525.909	2.97
526.108	2.97
526.306	2.97
526.505	3
526.703	3.05
526.902	3.01
527.1	3.03
527.299	3.02
527.497	3.04
527.696	3.05
527.894	3.07
528.092	3.07
528.291	3.07
528.489	3.07
528.688	3.11
528.886	3.08
529.084	3.11
529.283	3.1
529.481	3.14
529.679	3.11
529.877	3.16
530.076	3.2
530.274	3.15
530.472	3.2
530.67	3.23
530.869	3.24
531.067	3.22
531.265	3.25
531.463	3.28
531.661	3.32
531.859	3.33
532.057	3.3
532.255	3.31
532.454	3.39
532.652	3.37
532.85	3.39
533.048	3.39
533.246	3.45
533.444	3.43
533.642	3.54
533.84	3.53
534.038	3.61
534.236	3.66
534.434	3.67
534.632	3.74
534.83	3.81
535.027	3.84
535.225	3.87
535.423	3.9
535.621	3.95
535.819	3.89
536.017	3.94
536.215	3.9
536.412	3.89
536.61	3.92
536.808	3.93
537.006	3.93
537.203	3.95
537.401	3.92
537.599	3.99
537.797	3.99
537.994	3.95
538.192	3.95
538.39	4
538.587	4.05
538.785	4.03
538.983	4.02
539.18	4.05
539.378	4.05
539.575	4.1
539.773	4.12
539.97	4.12
540.168	4.15
540.366	4.19
540.563	4.2
540.761	4.19
540.958	4.21
541.155	4.22
541.353	4.21
541.55	4.28
541.748	4.33
541.945	4.35
542.143	4.39
542.34	4.34
542.537	4.37
542.735	4.41
542.932	4.46
543.129	4.52
543.327	4.59
543.524	4.62
543.721	4.59
543.919	4.55
544.116	4.51
544.313	4.51
544.51	4.6
544.708	4.64
544.905	4.66
545.102	4.77
545.299	4.74
545.496	4.76
545.693	4.74
545.891	4.75
546.088	4.81
546.285	4.86
546.482	4.87
546.679	4.99
546.876	4.95
547.073	4.97
547.27	4.86
547.467	4.94
547.664	4.94
547.861	4.98
548.058	5.04
548.255	5.21
548.452	5.35
548.649	5.51
548.846	5.52
549.043	5.47
549.24	5.5
549.437	5.62
549.633	5.65
549.83	5.7
550.027	5.79
550.224	5.85
550.421	5.82
550.618	5.78
550.814	5.79
551.011	5.83
551.208	6.05
551.405	6.17
551.601	6.18
551.798	6.25
551.995	6.34
552.191	6.46
552.388	6.36
552.585	6.36
552.781	6.32
552.978	6.34
553.175	6.37
553.371	6.35
553.568	6.3
553.764	6.32
553.961	6.36
554.157	6.31
554.354	6.26
554.55	6.44
554.747	6.49
554.943	6.63
555.14	6.67
555.336	6.61
555.533	6.76
555.729	6.82
555.926	6.87
556.122	6.87
556.318	6.87
556.515	6.93
556.711	6.95
556.907	7.01
557.104	7.16
557.3	7.24
557.496	7.44
557.693	7.45
557.889	7.46
558.085	7.53
558.281	7.7
558.478	7.77
558.674	7.82
558.87	7.88
559.066	7.95
559.262	7.87
559.459	7.88
559.655	7.84
559.851	7.79
560.047	7.83
560.243	7.93
560.439	7.94
560.635	7.99
560.831	8.09
561.027	8.16
561.223	8.18
561.419	8.25
561.615	8.39
561.811	8.51
562.007	8.6
562.203	8.7
562.399	8.81
562.595	8.86
562.791	8.97
562.987	9.06
563.183	9.16
563.379	9.2
563.575	9.23
563.771	9.25
563.966	9.32
564.162	9.39
564.358	9.48
564.554	9.5
564.75	9.56
564.945	9.59
565.141	9.5
565.337	9.52
565.533	9.68
565.728	9.79
565.924	9.85
566.12	9.8
566.315	9.78
566.511	9.82
566.707	9.8
566.902	9.76
567.098	9.78
567.293	9.94
567.489	9.93
567.684	9.94
567.88	9.99
568.076	10.03
568.271	10.05
568.467	10.15
568.662	10.22
568.858	10.3
569.053	10.44
569.248	10.55
569.444	10.54
569.639	10.6
569.835	10.54
570.03	10.56
570.225	10.59
570.421	10.77
570.616	10.82
570.812	10.82
571.007	10.92
571.202	10.87
571.397	10.84
571.593	10.9
571.788	10.94
571.983	11.06
572.178	11.18
572.374	11.21
572.569	11.23
572.764	11.26
572.959	11.37
573.154	11.36
573.35	11.48
573.545	11.61
573.74	11.62
573.935	11.75
574.13	11.76
574.325	11.71
574.52	11.81
574.715	11.97
574.91	12.06
575.105	12.11
575.3	12.25
575.495	12.32
575.69	12.33
575.885	12.43
576.08	12.39
576.275	12.47
576.47	12.54
576.665	12.57
576.86	12.52
577.055	12.55
577.25	12.6
577.444	12.54
577.639	12.56
577.834	12.67
578.029	12.74
578.224	12.82
578.418	12.94
578.613	13.05
578.808	13.12
579.003	13.01
579.197	12.99
579.392	12.99
579.587	13.13
579.781	13.24
579.976	13.24
580.171	13.36
580.365	13.41
580.56	13.33
580.755	13.35
580.949	13.4
581.144	13.62
581.338	13.68
581.533	13.66
581.727	13.61
581.922	13.68
582.116	13.71
582.311	13.71
582.505	13.77
582.7	13.74
582.894	13.76
583.089	13.71
583.283	13.66
583.478	13.68
583.672	13.88
583.866	13.93
584.061	14.07
584.255	14.13
584.449	14.2
584.644	14.29
584.838	14.4
585.032	14.3
585.226	14.38
585.421	14.45
585.615	14.45
585.809	14.33
586.003	14.37
586.198	14.28
586.392	14.32
586.586	14.27
586.78	14.31
586.974	14.53
587.168	14.58
587.363	14.65
587.557	14.71
587.751	14.9
587.945	15.07
588.139	15.12
588.333	15.18
588.527	15.21
588.721	15.16
588.915	15.2
589.109	14.98
589.303	15.17
589.497	15.2
589.691	15.19
589.885	15.05
590.079	14.91
590.273	15
590.466	14.97
590.66	14.92
590.854	15.12
591.048	15
591.242	15.19
591.436	15.19
591.629	15.37
591.823	15.32
592.017	15.36
592.211	15.43
592.404	15.3
592.598	15.27
592.792	15.48
592.986	15.39
593.179	15.47
593.373	15.46
593.567	15.53
593.76	15.38
593.954	15.47
594.147	15.52
594.341	15.68
594.535	15.79
594.728	15.78
594.922	15.6
595.115	15.65
595.309	15.62
595.502	15.62
595.696	15.58
595.889	15.56
596.083	15.55
596.276	15.54
596.47	15.43
596.663	15.28
596.856	15.29
597.05	15.39
597.243	15.51
597.437	15.57
597.63	15.6
597.823	15.7
598.017	15.75
598.21	15.81
598.403	16.04
598.596	16.1
598.79	16.32
598.983	16.38
599.176	16.49
599.369	16.29
599.563	16.31
599.756	16.35
599.949	16.3
600.142	16.32
600.335	16.35
600.528	16.22
600.722	16.18
600.915	16.32
601.108	16.41
601.301	16.37
601.494	16.47
601.687	16.46
601.88	16.5
602.073	16.45
602.266	16.36
602.459	16.42
602.652	16.43
602.845	16.46
603.038	16.25
603.231	16.23
603.424	16.32
603.617	16.33
603.809	16.26
604.002	16.22
604.195	16.16
604.388	16.23
604.581	16.13
604.774	16.11
604.966	16.18
605.159	16.36
605.352	16.45
605.545	16.53
605.737	16.49
605.93	16.65
606.123	16.66
606.316	16.91
606.508	16.99
606.701	17.16
606.894	17.23
607.086	17.22
607.279	17.25
607.471	17.2
607.664	16.94
607.857	16.99
608.049	17.01
608.242	17.04
608.434	17.02
608.627	17
608.819	16.92
609.012	17.01
609.204	17
609.397	16.98
609.589	16.98
609.782	17.16
609.974	17.27
610.166	17.38
610.359	17.32
610.551	17.39
610.743	17.49
610.936	17.52
611.128	17.44
611.32	17.5
611.513	17.53
611.705	17.54
611.897	17.54
612.09	17.46
612.282	17.37
612.474	17.69
612.666	17.72
612.858	17.64
613.051	17.67
613.243	17.72
613.435	17.73
613.627	17.73
613.819	17.67
614.011	17.7
614.203	17.62
614.395	17.67
614.588	17.52
614.78	17.44
614.972	17.47
615.164	17.48
615.356	17.4
615.548	17.45
615.74	17.49
615.932	17.63
616.124	17.75
616.315	17.83
616.507	17.8
616.699	17.67
616.891	17.64
617.083	17.88
617.275	17.93
617.467	17.98
617.659	17.98
617.85	17.86
618.042	18.03
618.234	17.85
618.426	17.79
618.618	17.72
618.809	17.87
619.001	17.93
619.193	17.72
619.384	17.97
619.576	18.03
619.768	17.93
619.959	17.9
620.151	17.91
620.343	17.96
620.534	18.1
620.726	18.08
620.917	18.02
621.109	18.13
621.301	18.21
621.492	17.83
621.684	17.72
621.875	17.73
622.067	17.78
622.258	17.71
622.45	17.83
622.641	17.81
622.832	18.05
623.024	18.18
623.215	18.17
623.407	18.13
623.598	18.11
623.789	18.26
623.981	18.48
624.172	18.55
624.363	18.3
624.555	18.31
624.746	18.23
624.937	18.04
625.129	17.97
625.32	18.03
625.511	18.01
625.702	18.25
625.893	18.23
626.085	18.22
626.276	18.16
626.467	18.35
626.658	18.21
626.849	18.36
627.04	18.41
627.231	18.38
627.422	18.33
627.614	18.39
627.805	18.34
627.996	18.46
628.187	18.42
628.378	18.43
628.569	18.4
628.76	18.32
628.951	18.27
629.142	18.35
629.332	18.35
629.523	18.3
629.714	18.28
629.905	18.27
630.096	18.16
630.287	18.23
630.478	18.2
630.669	18.16
630.859	18.25
631.05	18.2
631.241	18.07
631.432	17.97
631.623	18.07
631.813	18.07
632.004	17.9
632.195	17.71
632.385	17.6
632.576	17.55
632.767	17.62
632.957	17.72
633.148	17.77
633.339	17.79
633.529	17.99
633.72	17.84
633.91	17.78
634.101	17.97
634.292	18.04
634.482	18.18
634.673	18.39
634.863	18.33
635.054	18.39
635.244	18.31
635.435	18.32
635.625	18.16
635.815	18.27
636.006	18.38
636.196	18.23
636.387	18.46
636.577	18.42
636.767	18.42
636.958	18.43
637.148	18.22
637.338	18.4
637.529	18.38
637.719	18.58
637.909	18.66
638.099	18.63
638.29	18.88
638.48	18.7
638.67	18.48
638.86	18.45
639.05	18.44
639.241	18.78
639.431	18.83
639.621	18.97
639.811	18.89
640.001	18.79
640.191	18.95
640.381	18.72
640.571	18.8
640.761	18.98
640.951	18.99
641.141	18.96
641.331	18.7
641.521	18.67
641.711	18.67
641.901	18.75
642.091	18.75
642.281	18.67
642.471	18.68
642.661	18.83
642.851	18.76
643.041	18.7
643.231	18.68
643.42	18.73
643.61	18.48
643.8	18.39
643.99	18.3
644.18	18.4
644.369	18.54
644.559	18.73
644.749	18.66
644.939	18.71
645.128	18.95
645.318	19.16
645.508	19.33
645.697	19.67
645.887	19.68
646.076	19.86
646.266	19.59
646.456	19.28
646.645	19.24
646.835	19.34
647.024	19.23
647.214	19.04
647.403	19.01
647.593	18.88
647.782	18.51
647.972	18.62
648.161	18.59
648.351	18.88
648.54	19.03
648.73	19.13
648.919	18.99
649.108	19.09
649.298	19.26
649.487	19.31
649.677	19.5
649.866	19.75
650.055	19.89
650.244	19.96
650.434	19.97
650.623	19.86
650.812	19.76
651.002	19.84
651.191	20.15
651.38	20.19
651.569	20.24
651.758	20.15
651.947	20.31
652.137	20.31
652.326	20.44
652.515	20.32
652.704	20.52
652.893	20.63
653.082	20.55
653.271	20.34
653.46	20.27
653.649	20.21
653.838	20.4
654.027	20.27
654.216	20.17
654.405	20.12
654.594	20.19
654.783	20.11
654.972	20.12
655.161	20.24
655.35	20.12
655.539	19.97
655.728	19.91
655.916	19.82
656.105	19.83
656.294	19.87
656.483	19.77
656.672	19.67
656.86	19.56
657.049	19.54
657.238	19.66
657.427	19.63
657.615	19.87
657.804	19.97
657.993	19.91
658.181	19.87
658.37	20.01
658.559	19.93
658.747	20.07
658.936	20.27
659.125	19.99
659.313	19.97
659.502	20.04
659.69	19.88
659.879	20.01
660.067	20.05
660.256	20.04
660.444	19.98
660.633	20.11
660.821	20.02
661.01	20.05
661.198	20.39
661.387	20.3
661.575	20.49
661.763	20.55
661.952	20.24
662.14	20.28
662.328	20.33
662.517	20.02
662.705	20.14
662.893	20.38
663.082	20.59
663.27	20.76
663.458	20.77
663.646	20.56
663.834	20.51
664.023	20.67
664.211	20.67
664.399	20.71
664.587	20.88
664.775	20.4
664.963	20.35
665.152	19.97
665.34	19.87
665.528	19.92
665.716	20.16
665.904	20.14
666.092	20.29
666.28	20.48
666.468	20.61
666.656	20.72
666.844	21.06
667.032	20.78
667.22	20.88
667.408	20.94
667.596	20.84
667.784	20.77
667.971	20.97
668.159	21
668.347	20.88
668.535	20.87
668.723	20.75
668.911	20.87
669.098	21.04
669.286	21.05
669.474	21.02
669.662	21.24
669.849	21.23
670.037	21.11
670.225	20.91
670.413	21.02
670.6	21.02
670.788	21.33
670.976	21.23
671.163	21.21
671.351	21.14
671.538	21.27
671.726	21.13
671.913	21.14
672.101	21.41
672.289	21.33
672.476	20.9
672.664	20.69
672.851	20.52
673.039	20.62
673.226	20.75
673.413	20.91
673.601	20.67
673.788	20.8
673.976	20.8
674.163	20.66
674.35	20.74
674.538	20.98
674.725	21.26
674.912	21.38
675.1	21.39
675.287	21.27
675.474	21.26
675.662	21.16
675.849	21.08
676.036	21.03
676.223	21.01
676.411	20.96
676.598	20.92
676.785	20.94
676.972	20.77
677.159	20.54
677.346	20.53
677.533	20.48
677.721	20.55
677.908	20.76
678.095	20.93
678.282	20.84
678.469	20.85
678.656	20.84
678.843	20.87
679.03	21.17
679.217	21.42
679.404	21.38
679.591	21.66
679.778	21.66
679.964	21.33
680.151	21.23
680.338	21.1
680.525	21.2
680.712	21.34
680.899	21.25
681.086	20.95
681.272	20.83
681.459	20.98
681.646	20.64
681.833	20.62
682.02	20.69
682.206	20.67
682.393	21.03
682.58	20.85
682.766	20.82
682.953	20.95
683.14	21
683.326	21.35
683.513	21.32
683.7	21.53
683.886	21.7
684.073	21.55
684.259	21.47
684.446	21.24
684.632	21.31
684.819	21.22
685.005	21.08
685.192	21.12
685.378	21.06
685.565	21.03
685.751	20.94
685.938	20.86
686.124	20.95
686.31	21.21
686.497	21.21
686.683	21.37
686.87	21.46
687.056	21.41
687.242	21.16
687.429	21.14
687.615	21.4
687.801	21.24
687.987	21.39
688.174	21.46
688.36	21.58
688.546	21.91
688.732	21.82
688.918	21.76
689.105	22.14
689.291	22.54
689.477	22.18
689.663	21.94
689.849	22.39
690.035	22.39
690.221	22.71
690.407	22.54
690.593	22.4
690.779	22.85
690.965	23.03
691.151	22.92
691.337	22.8
691.523	22.9
691.709	23.06
691.895	22.89
692.081	23.06
692.267	23.07
692.453	23.28
692.639	23.15
692.825	22.89
693.011	23.03
693.196	23.1
693.382	23.21
693.568	23.4
693.754	23.38
693.94	22.84
694.125	22.64
694.311	22.35
694.497	22.16
694.682	22.37
694.868	22
695.054	22.13
695.239	22.05
695.425	21.82
695.611	21.78
695.796	21.74
695.982	22.04
696.168	22.23
696.353	22.3
696.539	22.4
696.724	22.2
696.91	22.56
697.095	22.34
697.281	22.05
697.466	22.08
697.652	21.96
697.837	21.98
698.023	21.95
698.208	21.95
698.393	21.92
698.579	21.81
698.764	21.88
698.949	21.63
699.135	21.5
699.32	21.49
699.505	21.68
699.691	21.8
699.876	21.64
700.061	21.58
700.246	21.58
700.432	21.77
700.617	21.6
700.802	21.74
700.987	22.03
701.172	22.26
701.358	22.79
701.543	22.48
701.728	22.18
701.913	22.41
702.098	22.81
702.283	22.58
702.468	22.8
702.653	23.43
702.838	23.23
703.023	23.14
703.208	23.32
703.393	23.01
703.578	23.64
703.763	23.9
703.948	23.84
704.133	23.88
704.318	23.88
704.503	24.01
704.688	23.73
704.873	23.9
705.057	23.65
705.242	23.11
705.427	23.27
705.612	22.98
705.797	23.01
705.981	23
706.166	22.88
706.351	22.91
706.536	22.38
706.72	22.56
706.905	22.68
707.09	23.16
707.274	23.51
707.459	23.35
707.644	23.25
707.828	23.22
708.013	22.95
708.197	22.57
708.382	22.51
708.567	22.61
708.751	22.26
708.936	22.06
709.12	21.66
709.305	21.36
709.489	21.15
709.673	21.23
709.858	21.28
710.042	21.66
710.227	21.72
710.411	22.03
710.596	22.14
710.78	22.22
710.964	22.43
711.149	22.46
711.333	22.56
711.517	22.84
711.702	22.56
711.886	22.42
712.07	22.46
712.254	22.65
712.438	22.59
712.623	22.62
712.807	22.68
712.991	22.52
713.175	22.43
713.359	22.47
713.544	22.51
713.728	22.63
713.912	22.96
714.096	22.65
714.28	22.56
714.464	22.64
714.648	22.66
714.832	22.32
715.016	22.31
715.2	22.66
715.384	22.62
715.568	22.6
715.752	22.7
715.936	22.26
716.12	22.53
716.304	22.66
716.488	22.53
716.671	22.53
716.855	22.83
717.039	23.05
717.223	23.11
717.407	23.18
717.59	23.91
717.774	24.05
717.958	24.62
718.142	24.81
718.325	25.08
718.509	25.12
718.693	25.03
718.877	24.99
719.06	24.7
719.244	24.24
719.428	24.51
719.611	23.83
719.795	23.87
719.978	23.78
720.162	23.58
720.345	23.3
720.529	23.63
720.713	23.28
720.896	23.61
721.08	23.97
721.263	24.08
721.446	24.13
721.63	23.82
721.813	23.91
721.997	23.77
722.18	23.72
722.364	23.88
722.547	23.37
722.73	23.64
722.914	23.49
723.097	23.29
723.28	23.51
723.464	23.09
723.647	23.38
723.83	23.5
724.013	23.8
724.197	23.98
724.38	24.15
724.563	24.38
724.746	24.12
724.929	24.1
725.112	23.94
725.296	24
725.479	24.13
725.662	23.87
725.845	23.6
726.028	23.13
726.211	23.12
726.394	22.68
726.577	22.5
726.76	22.68
726.943	22.76
727.126	23.15
727.309	22.99
727.492	23.24
727.675	23.18
727.858	23.05
728.041	22.99
728.224	23.11
728.407	23.04
728.589	23.03
728.772	23.2
728.955	22.95
729.138	22.95
729.321	23.23
729.503	23.01
729.686	23.16
729.869	23.91
730.052	24.22
730.234	23.94
730.417	24.29
730.6	24.56
730.782	24.27
730.965	24.4
731.148	24.42
731.33	24.44
731.513	24.3
731.695	24.06
731.878	23.45
732.061	23.35
732.243	23.75
732.426	23.47
732.608	23.23
732.791	23.69
732.973	23.8
733.156	23.6
733.338	23.46
733.52	23.63
733.703	24.06
733.885	23.91
734.068	23.94
734.25	23.31
734.432	23.37
734.615	23.53
734.797	23.12
734.979	23.28
735.162	23.27
735.344	23.05
735.526	23.1
735.708	23.35
735.891	23.41
736.073	23.43
736.255	23.65
736.437	24.15
736.619	24.16
736.802	23.72
736.984	23.73
737.166	23.81
737.348	24.12
737.53	24.18
737.712	23.71
737.894	23.83
738.076	23.79
738.258	24.26
738.44	24.04
738.622	24.07
738.804	24.65
738.986	24.69
739.168	24.47
739.35	24.68
739.532	24.83
739.714	24.94
739.896	24.92
740.078	25.42
740.259	25.32
740.441	25.3
740.623	24.79
740.805	24.72
740.987	24.85
741.168	25.27
741.35	25.26
741.532	25.04
741.714	25.64
741.895	25.85
742.077	25.56
742.259	25.26
742.44	24.94
742.622	25.58
742.804	25.26
742.985	24.76
743.167	24.01
743.348	23.94
743.53	23.53
743.711	22.89
743.893	23.16
744.075	22.84
744.256	23.23
744.438	23.93
744.619	23.53
744.8	24.07
744.982	24.2
745.163	24.89
745.345	24.13
745.526	24.28
745.707	24.19
745.889	23.57
746.07	23.95
746.252	23.06
746.433	22.36
746.614	22.62
746.795	22.84
746.977	23.06
747.158	22.71
747.339	22.91
747.52	23.31
747.702	23.38
747.883	23.61
748.064	24.05
748.245	24.57
748.426	25.34
748.607	25.63
748.788	25.31
748.97	25.09
749.151	25.18
749.332	25.96
749.513	25.95
749.694	26.18
749.875	26.06
750.056	26.05
750.237	26.13
750.418	25.59
750.599	24.81
750.78	25.06
750.96	25.29
751.141	26.09
751.322	25.06
751.503	25.44
751.684	26.07
751.865	26.42
752.046	25.32
752.226	25.34
752.407	25.8
752.588	26.27
752.769	25.94
752.949	25.73
753.13	24.76
753.311	25.65
753.492	25.44
753.672	24.78
753.853	24.65
754.034	25.51
754.214	25.5
754.395	25.37
754.575	25.73
754.756	25.97
754.937	26.28
755.117	26.67
755.298	26.56
755.478	26.58
755.659	26.95
755.839	26.93
756.02	26.45
756.2	26.15
756.381	26.01
756.561	26.34
756.741	26.54
756.922	26.09
757.102	25.59
757.283	25.44
757.463	25.59
757.643	25.32
757.823	25.62
758.004	26.15
758.184	26.35
758.364	26.67
758.545	25.75
758.725	25.35
758.905	25.69
759.085	25.84
759.265	26.01
759.446	25.63
759.626	25.63
759.806	24.94
759.986	24.79
760.166	24.71
760.346	24.44
760.526	24.87
760.706	24.58
760.886	24.03
761.066	24.23
761.246	23.73
761.426	24.04
761.606	24.01
761.786	24.73
761.966	24.55
762.146	24.76
762.326	24.49
762.506	24.55
762.686	24.97
762.866	25.3
763.046	25.47
763.225	25.61
763.405	25.24
763.585	25.28
763.765	24.8
763.945	24.88
764.124	25.03
764.304	25.25
764.484	24.95
764.664	24.51
764.843	24.61
765.023	23.83
765.203	23.63
765.382	24.07
765.562	23.71
765.741	23.85
765.921	24.3
766.101	24
766.28	24.45
766.46	24.95
766.639	25.03
766.819	24.48
766.998	24.71
767.178	25.08
767.357	24.95
767.537	25.52
767.716	25.67
767.896	25.15
768.075	24.89
768.254	23.94
768.434	23.44
768.613	23.51
768.792	23.81
768.972	24.55
769.151	24.34
769.33	24.49
769.51	24.59
769.689	24.52
769.868	24.54
770.047	25.48
770.226	25.86
770.406	25.27
770.585	26.41
770.764	26.98
770.943	27.01
771.122	27.25
771.301	26.9
771.48	27.21
771.66	27.61
771.839	27.99
772.018	27.41
772.197	28.02
772.376	28.79
772.555	28.3
772.734	27.91
772.913	27.99
773.092	28.79
773.271	28.8
773.449	27.54
773.628	27.92
773.807	27.58
773.986	27.64
774.165	27.08
774.344	27.3
774.523	27.14
774.701	27.64
774.88	27.86
775.059	26.9
775.238	26.76
775.417	27.38
775.595	25.97
775.774	25.82
775.953	26.32
776.131	26.28
776.31	27.02
776.489	27.03
776.667	26.76
776.846	26.02
777.025	26.47
777.203	26.57
777.382	26.15
777.56	26.6
777.739	27.14
777.917	26.37
778.096	26.09
778.274	25.79
778.453	25.81
778.631	25.7
778.81	25.91
778.988	24.74
779.166	24.54
779.345	25.63
779.523	25.89
779.702	25.79
779.88	25.95
780.058	26.53
780.237	25.92
780.415	26.22
780.593	26.97
780.771	27.32
780.95	28.28
781.128	27.53
781.306	26.71
781.484	27.25
781.662	26.59
781.841	25.91
782.019	25.8
782.197	26.03
782.375	25.58
782.553	24.29
782.731	23.63
782.909	23.7
783.087	25.03
783.265	25.01
783.443	25.17
783.621	24.94
783.799	25.78
783.977	25.83
784.155	25.7
784.333	26.77
784.511	27.61
784.689	28.48
784.867	28.85
785.045	29.21
785.223	29.62
785.4	29.13
785.578	28.86
785.756	28.89
785.934	28.59
786.112	28.77
786.289	28.19
786.467	27.64
786.645	26.9
786.823	27.24
787	27.35
787.178	26.33
787.356	25.51
787.533	25.89
787.711	25.88
787.889	26.49
788.066	26.15
788.244	25.93
788.421	25.63
788.599	25.78
788.776	25.1
788.954	25.16
789.131	26.09
789.309	26.78
789.486	26.68
789.664	26.02
789.841	26.18
790.019	27.16
790.196	27.65
790.373	27.89
790.551	28.52
790.728	28.99
790.906	28.45
791.083	29.24
791.26	30.03
791.437	30.2
791.615	32.03
791.792	31.7
791.969	31.25
792.146	31.03
792.324	29.66
792.501	29.08
792.678	28.69
792.855	29.07
793.032	27.75
793.209	26.95
793.387	28.95
793.564	26.73
793.741	27.07
793.918	28.25
794.095	28.44
794.272	29.76
794.449	29.91
794.626	30.52
794.803	30.04
794.98	30.46
795.157	31.01
795.334	29.45
795.511	30.07
795.688	28.6
795.864	26.95
796.041	26.1
796.218	25.77
796.395	26.23
796.572	25.2
796.749	26.55
796.925	26.73
797.102	26.49
797.279	26.1
797.456	26.64
797.632	27.61
797.809	27.92
797.986	28.77
798.162	30.07
798.339	29.78
798.516	30.05
798.692	29.11
798.869	29.25
799.046	28.83
799.222	27.82
799.399	27.87
799.575	28.51
799.752	28.62
799.928	29.11
800.105	27.78
800.281	28.13
800.458	27.94
800.634	27.55
800.811	27.69
800.987	27.15
801.163	28.82
801.34	29.05
801.516	28.97
801.692	29.11
801.869	28.24
802.045	29.32
802.221	28.86
802.398	28.82
802.574	29.26
802.75	29.98
802.926	30.5
803.103	30.65
803.279	30.33
803.455	28.96
803.631	28.55
803.807	28.29
803.983	27.62
804.16	28.22
804.336	27.92
804.512	28.26
804.688	27.38
804.864	27.87
805.04	28.22
805.216	27.63
805.392	28.69
805.568	30.01
805.744	29.32
805.92	30.01
806.096	30.09
806.272	29.39
806.448	28.53
806.623	28.4
806.799	28.12
806.975	28.92
807.151	29.83
807.327	29.97
807.503	28.81
807.678	30.48
807.854	29.56
808.03	29.27
808.206	31.7
808.381	32.08
808.557	31.27
808.733	30.96
808.908	29.16
809.084	29.05
809.26	29.71
809.435	28.86
809.611	29.54
809.787	30.23
809.962	31.31
810.138	31.09
810.313	31.38
810.489	32.05
810.664	31.62
810.84	32.52
811.015	33.12
811.191	32.12
811.366	33.32
811.542	31.81
811.717	32.48
811.892	30.97
812.068	29.55
812.243	29.22
812.419	28.56
812.594	29.14
812.769	28.62
812.944	27.98
813.12	27.84
813.295	29.02
813.47	29.03
813.645	29.08
813.821	29.37
813.996	30.42
814.171	30.8
814.346	31.5
814.521	32.11
814.697	32.72
814.872	32.56
815.047	32.18
815.222	31.73
815.397	30.56
815.572	29.3
815.747	28.89
815.922	29.3
816.097	29.65
816.272	30.43
816.447	30.44
816.622	30.2
816.797	30.66
816.972	31.28
817.147	30.86
817.322	31.63
817.496	32.45
817.671	32.79
817.846	31.6
818.021	30.32
818.196	29.4
818.371	28.04
818.545	28.23
818.72	27.31
818.895	26.14
819.069	25.82
819.244	25.8
819.419	24.9
819.594	24.41
819.768	25.17
819.943	25.31
820.117	25.03
820.292	25.34
820.467	25.65
820.641	26.1
820.816	26.64
820.99	26.51
821.165	26.28
821.339	26.44
821.514	26.31
821.688	25.98
821.863	26
822.037	26.44
822.212	26.28
822.386	26.01
822.56	25.96
822.735	25.69
822.909	25.59
823.084	25.88
823.258	25.84
823.432	25.85
823.606	25.76
823.781	25.76
823.955	25.51
824.129	25.59
824.303	25.79
824.478	25.57
824.652	25.81
824.826	25.32
825	24.9
825.174	24.82
825.348	24.94
825.523	24.89
825.697	25.05
825.871	24.88
826.045	25.27
826.219	25.28
826.393	25.33
826.567	25.3
826.741	25.98
826.915	26.28
827.089	25.97
827.263	26.06
827.437	26.31
827.611	26.41
827.784	26.24
827.958	25.77
828.132	25.65
828.306	25.66
828.48	25.34
828.654	25.7
828.827	25.85
829.001	26.95
829.175	27.19
829.349	27.92
829.522	28.19
829.696	28.36
829.87	28.15
830.044	27.49
830.217	28.15
830.391	29.38
830.565	29.25
830.738	28.54
830.912	27.46
831.085	27.85
831.259	26.8
831.432	26.85
831.606	28.41
831.779	29.4
831.953	29.92
832.126	29.15
832.3	28.58
832.473	28.86
832.647	28.84
832.82	28.96
832.994	29.05
833.167	28.81
833.34	28.18
833.514	27.93
833.687	28.47
833.86	28.43
834.034	28.44
834.207	29.28
834.38	28.89
834.553	29.49
834.727	29.91
834.9	30.01
835.073	30.42
835.246	30.84
835.419	30.04
835.593	29.99
835.766	31.11
835.939	32.16
836.112	31.14
836.285	32.47
836.458	31.96
836.631	32.11
836.804	31.31
836.977	32.26
837.15	33.14
837.323	34.6
837.496	33.6
837.669	31.71
837.842	31.23
838.015	30.43
838.188	28.46
838.361	29.12
838.533	28.35
838.706	30.06
838.879	29.85
839.052	28.73
839.225	28.4
839.398	29.73
839.57	31.75
839.743	32.65
839.916	33.92
840.088	33.94
840.261	35.12
840.434	36.2
840.607	35.4
840.779	36.08
840.952	36.63
841.124	37.47
841.297	37.73
841.47	37.01
841.642	37.09
841.815	37.29
841.987	38.92
842.16	38.22
842.332	38.77
842.505	37.72
842.677	34.91
842.85	34.54
843.022	32.97
843.194	33.14
843.367	34.3
843.539	34
843.712	32.69
843.884	32.37
844.056	33.22
844.229	31.08
844.401	30.03
844.573	34.56
844.745	36.53
844.918	38.69
845.09	36.42
845.262	37.03
845.434	36.59
845.606	37.46
845.779	38.06
845.951	37.71
846.123	40.15
846.295	47.12
846.467	46.76
846.639	47.79
846.811	46.26
846.983	48.74
847.155	46.4
847.327	46.88
847.499	48.55
847.671	48.59
847.843	48.53
848.015	50.2
848.187	44.44
848.359	44.9
848.531	41.2
848.703	44.68
848.875	45.2
849.047	44.98
849.218	42.86
849.39	41.26
849.562	41.49
849.734	40.03
849.905	35.99
850.077	37.87
850.249	36.83
850.421	39.63
850.592	38.35
850.764	37.97
850.936	39.16
851.107	38.43
851.279	38
851.451	37.16
851.622	32.88
851.794	36.14
851.965	33.84
852.137	30.52
852.308	28.52
852.48	27.53
852.651	26.2
852.823	24.67
852.994	28.34
853.166	33.53
853.337	35.7
853.509	39.72
853.68	40.57
853.851	41.28
854.023	45.44
854.194	45.04
854.365	46.47
854.537	46.93
854.708	50.45
854.879	51.05
855.05	47.59
855.222	45.2
855.393	46.54
855.564	45.9
855.735	45.77
855.906	44.89
856.078	44.99
856.249	42.2
856.42	42.15
856.591	44.39
856.762	43.98
856.933	43.36
857.104	44.27
857.275	41.95
857.446	41.88
857.617	46.43
857.788	45.85
857.959	44.56
858.13	47.09
858.301	44.99
858.472	45.78
858.643	46.74
858.814	51.88
858.985	51.12
859.155	53.88
859.326	53.06
859.497	50.16
859.668	50.23
859.839	55.46
860.009	55.55
860.18	59
860.351	59.76
860.522	61.02
860.692	59.7
860.863	61.17
861.034	58.68
861.204	55.98
861.375	54.81
861.546	51.01
861.716	40.05
861.887	37
862.057	37.26
862.228	35.12
862.398	31.04
862.569	26.18
862.739	26.29
862.91	27.09
863.08	24.82
863.251	27.79
863.421	34.05
863.592	38.26
863.762	40.66
863.932	38.07
864.103	32.22
864.273	34.25
864.443	39.06
864.614	36.09
864.784	36.49
864.954	39.82
865.125	39.81
865.295	36.87
865.465	35.93
865.635	34.97
865.805	36.94
865.976	38.2
866.146	40.03
866.316	35.55
866.486	33.63
866.656	40.4
866.826	37.67
866.996	37.54
867.166	40.28
867.336	45.81
867.506	42.45
867.676	36.84
867.846	35.09
868.016	34.72
868.186	38.45
868.356	45.71
868.526	38.23
868.696	41.8
868.866	43.94
869.036	37.47
869.206	35.11
869.376	39.91
869.545	47.6
869.715	48.96
869.885	45.2
870.055	43.39
870.224	41.75
870.394	41.98
870.564	43.42
870.734	41.78
870.903	44.59
871.073	43.12
871.243	41.76
871.412	39.64
871.582	45.15
871.751	48.79
871.921	48.17
872.091	46.84
872.26	50.12
872.43	49.42
872.599	49.86
872.769	51.81
872.938	51.91
873.108	49.62
873.277	48.32
873.446	46.45
873.616	47.35
873.785	45.21
873.955	43.79
874.124	44.1
874.293	42.56
874.463	42.23
874.632	42.91
874.801	48.48
874.971	50.19
875.14	50.31
875.309	47.57
875.478	42.85
875.647	50.46
875.817	50.43
875.986	52.73
876.155	55.8
876.324	53.32
876.493	50.44
876.662	46.53
876.831	51.35
877	53.32
877.17	53.62
877.339	52.68
877.508	50.24
877.677	49.31
877.846	47.72
878.015	46.56
878.184	45.54
878.352	46.84
878.521	47.46
878.69	46.11
878.859	44.01
879.028	40.96
879.197	42.59
879.366	39.36
879.534	40.86
879.703	40.18
879.872	37.96
880.041	38.32
880.21	37.21
880.378	35.43
880.547	34.85
880.716	34.28
880.884	34.36
881.053	32.44
881.222	31.61
881.39	30.82
881.559	29.93
881.727	30.25
881.896	30.36
882.065	30.68
882.233	30.51
882.402	29.39
882.57	28.99
882.739	28.55
882.907	29.1
883.076	29.71
883.244	29.58
883.412	29.62
883.581	28.55
883.749	28.64
883.918	28.31
884.086	27.75
884.254	27.83
884.423	28.03
884.591	28.41
884.759	28.07
884.927	27.72
885.096	27.65
885.264	28.24
885.432	28.76
885.6	28.31
885.769	29.27
885.937	32.41
886.105	32.67
886.273	34.64
886.441	36.39
886.609	37.77
886.777	38
886.945	39.55
887.113	39.46
887.281	41.89
887.449	41.82
887.617	40.66
887.785	36.44
887.953	35.99
888.121	33.45
888.289	31.25
888.457	35.33
888.625	38.25
888.793	39.05
888.961	39.87
889.129	40.97
889.296	44.44
889.464	44.02
889.632	46.1
889.8	49.68
889.967	52.15
890.135	55.96
