Data from 2938541_Reflection_3.txt Node
Date: Mon Jun 15 23:34:46 EDT 2015
User: robert
Spectrometer: USB4E03002
Autoset integration time: false
Trigger mode: 4
Integration Time (sec): 1.000000E-1
Scans to average: 10
Electric dark correction enabled: true
Nonlinearity correction enabled: false
Boxcar width: 6
Stray light correction enabled: false
XAxis mode: Wavelengths
Stop averaging: false
Number of Pixels in Spectrum: 3648
>>>>>Begin Spectral Data<<<<<
177.575	48.33
177.794	61.72
178.014	67.77
178.233	17.85
178.452	278.95
178.672	72.75
178.891	360
179.11	-106.45
179.33	-88.71
179.549	-164.32
179.768	-142.91
179.987	-173.66
180.207	-13.51
180.426	-19.12
180.645	-11.78
180.864	17.64
181.084	-2.92
181.303	-0.98
181.522	-21.38
181.741	-31.18
181.96	-10.6
182.179	-7.45
182.398	-15.13
182.618	-30.32
182.837	-25.58
183.056	-59.53
183.275	-17.7
183.494	-19.69
183.713	-60.05
183.932	-58.03
184.151	-108.53
184.37	-89.41
184.589	-52.43
184.808	-174.87
185.027	-322.31
185.246	-94.32
185.465	-63.41
185.684	-104.61
185.903	-135.19
186.122	-1036.17
186.341	3315
186.56	971.6
186.779	2148.72
186.998	-470.42
187.216	2826.92
187.435	308.37
187.654	777.67
187.873	3328.57
188.092	618.75
188.311	565.87
188.53	3250
188.748	-3805
188.967	-660
189.186	-1592.68
189.405	-742.86
189.623	1055.77
189.842	408.07
190.061	5509.09
190.28	-368.47
190.498	-710.53
190.717	-745.95
190.936	-3278.57
191.154	-1059.46
191.373	4100
191.592	1981.48
191.81	1359.46
192.029	888.71
192.248	807.94
192.466	-1704.17
192.685	-216.44
192.904	-285.95
193.122	1302.04
193.341	1888.89
193.559	229.88
193.778	438.96
193.996	243.39
194.215	265.22
194.433	181.33
194.652	219.87
194.87	239.77
195.089	156.23
195.307	205.23
195.526	186.98
195.744	206.35
195.963	462.84
196.181	504.05
196.399	2475.76
196.618	473.28
196.836	-216.58
197.055	-137.5
197.273	-400.83
197.491	-109.97
197.71	-367.36
197.928	-139.72
198.146	-113.93
198.365	-64.71
198.583	-129.96
198.801	9575
199.019	608.42
199.238	689.66
199.456	1725
199.674	302.03
199.892	330.77
200.111	1278.57
200.329	130.03
200.547	100.41
200.765	88.54
200.983	119.23
201.202	203.91
201.42	355.17
201.638	284.62
201.856	646.67
202.074	496.52
202.292	343.58
202.51	342.41
202.728	348.63
202.946	291.58
203.165	284.62
203.383	294.51
203.601	301.96
203.819	200
204.037	221.17
204.255	190.34
204.473	267.3
204.691	217.17
204.909	124.48
205.127	145.39
205.345	123.28
205.562	164.94
205.78	198.06
205.998	104.5
206.216	88.79
206.434	73.75
206.652	110.34
206.87	113.36
207.088	122.93
207.306	125.18
207.523	118.31
207.741	170.29
207.959	139.55
208.177	162.26
208.395	117.74
208.612	104.33
208.83	127.96
209.048	123.53
209.266	113.48
209.483	120.34
209.701	175
209.919	318.46
210.136	202.16
210.354	204.84
210.572	206.08
210.79	210.91
211.007	173.72
211.225	178.92
211.442	158.99
211.66	136.11
211.878	45.36
212.095	13.38
212.313	-2
212.53	-6.54
212.748	-22.33
212.966	-64.14
213.183	-45.52
213.401	-26.07
213.618	-3.32
213.836	-13.1
214.053	1.65
214.271	-3.66
214.488	-29.17
214.705	115.48
214.923	126.79
215.14	146.7
215.358	105.67
215.575	118.67
215.793	133.06
216.01	126.3
216.227	99.27
216.445	72.44
216.662	75.04
216.879	78.84
217.097	64.39
217.314	67.64
217.531	69.12
217.749	81.3
217.966	65.55
218.183	58.77
218.4	54.04
218.618	43.85
218.835	36.18
219.052	32.34
219.269	30.1
219.487	17.68
219.704	21.45
219.921	21.72
220.138	17.59
220.355	29.3
220.572	28.65
220.79	28.7
221.007	27.97
221.224	24.85
221.441	20.2
221.658	28.49
221.875	29.58
222.092	37.21
222.309	38.56
222.526	37.52
222.743	33.26
222.96	32.58
223.177	25.97
223.394	26.6
223.611	25.77
223.828	28.87
224.045	30.25
224.262	31.24
224.479	21.99
224.696	18.25
224.913	16.03
225.13	15.76
225.347	16.53
225.564	14.47
225.781	13.26
225.997	14.36
226.214	12.55
226.431	12.01
226.648	12.18
226.865	10.94
227.082	11.98
227.298	13.09
227.515	13.35
227.732	12.71
227.949	11.4
228.165	11.72
228.382	12.83
228.599	12.88
228.816	11.76
229.032	12.15
229.249	12.48
229.466	11.44
229.682	11.7
229.899	10.2
230.116	9.65
230.332	8.77
230.549	8.96
230.765	10.78
230.982	9.97
231.199	10.14
231.415	9.24
231.632	9.35
231.848	8.81
232.065	7.16
232.281	6.81
232.498	7.51
232.714	7.43
232.931	8.07
233.147	9.76
233.364	10.03
233.58	9.03
233.797	9.05
234.013	8.27
234.23	8.46
234.446	8.92
234.662	8.84
234.879	8.91
235.095	9.93
235.312	9.62
235.528	8.75
235.744	8.08
235.961	7.67
236.177	7.39
236.393	7.49
236.61	6.83
236.826	5.96
237.042	6.52
237.258	6.1
237.475	6.35
237.691	6.19
237.907	6.7
238.123	6.93
238.339	9
238.556	10.41
238.772	10.14
238.988	10.63
239.204	12.66
239.42	12.19
239.636	12.8
239.853	12.73
240.069	12.56
240.285	12.11
240.501	12.67
240.717	12.65
240.933	13.51
241.149	13.23
241.365	13
241.581	12.82
241.797	12.15
242.013	10.92
242.229	11.26
242.445	11.75
242.661	11.98
242.877	12.14
243.093	12.89
243.309	12.45
243.525	11.43
243.741	10.22
243.957	10.11
244.173	9.86
244.388	10.29
244.604	10.48
244.82	9.95
245.036	9.25
245.252	8.53
245.468	8.65
245.683	8.75
245.899	8.4
246.115	8.57
246.331	8.66
246.547	8.51
246.762	8.46
246.978	8.39
247.194	8.26
247.409	8.23
247.625	8.6
247.841	9.22
248.057	9.4
248.272	8.99
248.488	8.31
248.703	8.63
248.919	7.87
249.135	7.8
249.35	8.32
249.566	8.06
249.782	8.19
249.997	7.74
250.213	7.52
250.428	6.87
250.644	6.85
250.859	6.82
251.075	7.26
251.29	7.92
251.506	7.77
251.721	8.28
251.937	8.24
252.152	9.08
252.368	9.27
252.583	8.84
252.798	8.85
253.014	9.17
253.229	9.55
253.445	9.84
253.66	9.61
253.875	8.79
254.091	9.4
254.306	9.09
254.521	9.03
254.737	8.44
254.952	7.12
255.167	6.84
255.383	6.86
255.598	7.15
255.813	6.95
256.028	7.79
256.244	7.44
256.459	7.73
256.674	8.3
256.889	7.34
257.104	7.09
257.32	7.07
257.535	7.44
257.75	7.16
257.965	7.12
258.18	7.39
258.395	7.33
258.61	7.29
258.826	7.05
259.041	7.16
259.256	7.27
259.471	6.72
259.686	6.94
259.901	7.05
260.116	7.1
260.331	7.22
260.546	7.34
260.761	7.4
260.976	6.98
261.191	7.02
261.406	6.69
261.621	6.59
261.836	6.7
262.05	6.61
262.265	7.02
262.48	6.92
262.695	6.88
262.91	6.68
263.125	6.74
263.34	7.01
263.555	7.13
263.769	7.2
263.984	7.31
264.199	7.74
264.414	7.32
264.629	6.64
264.843	6.97
265.058	7.62
265.273	7.13
265.488	7.19
265.702	7.46
265.917	7.07
266.132	7.34
266.346	7.45
266.561	7.54
266.776	7.08
266.99	7.45
267.205	7.74
267.42	7.61
267.634	7.24
267.849	7.15
268.063	7.83
268.278	7.8
268.492	7.21
268.707	7.29
268.922	6.86
269.136	6.95
269.351	7.02
269.565	7.15
269.78	7.01
269.994	6.99
270.209	6.6
270.423	6.69
270.637	6.11
270.852	5.95
271.066	6.4
271.281	6.9
271.495	7.03
271.709	7.02
271.924	7.01
272.138	6.99
272.353	7.1
272.567	6.84
272.781	6.62
272.996	7.35
273.21	7.14
273.424	7.58
273.638	7.53
273.853	7.42
274.067	6.83
274.281	6.61
274.495	6.41
274.71	6.04
274.924	5.62
275.138	5.66
275.352	5.69
275.566	5.86
275.781	5.76
275.995	5.87
276.209	6
276.423	5.56
276.637	4.99
276.851	5.41
277.065	5.23
277.279	5.66
277.493	5.83
277.707	6.27
277.921	6.23
278.135	6.01
278.349	6.15
278.563	5.97
278.777	5.99
278.991	5.82
279.205	6.17
279.419	6.3
279.633	6.05
279.847	6.25
280.061	6.12
280.275	6.06
280.489	5.68
280.703	5.72
280.917	5.87
281.131	5.94
281.344	5.89
281.558	5.91
281.772	5.48
281.986	5.55
282.2	5.78
282.414	5.82
282.627	5.53
282.841	5.47
283.055	5.52
283.269	5.97
283.482	5.78
283.696	5.84
283.91	5.58
284.123	5.83
284.337	5.6
284.551	5.8
284.764	5.5
284.978	5.19
285.192	5.28
285.405	5.78
285.619	5.81
285.833	5.97
286.046	5.71
286.26	5.74
286.473	6.14
286.687	6.46
286.9	6.62
287.114	7.06
287.327	6.99
287.541	7.19
287.754	7.63
287.968	7.36
288.181	6.94
288.395	7.24
288.608	7.22
288.822	7.26
289.035	7.14
289.248	6.78
289.462	6.44
289.675	6.4
289.889	6.19
290.102	6.4
290.315	6.37
290.529	6.06
290.742	6.3
290.955	6.92
291.169	6.86
291.382	6.72
291.595	7.04
291.808	7.49
292.022	7.53
292.235	7.97
292.448	7.7
292.661	7.98
292.875	8.05
293.088	8.61
293.301	8.6
293.514	8.51
293.727	7.89
293.94	8.09
294.153	7.93
294.367	7.73
294.58	7.49
294.793	7.57
295.006	7.63
295.219	7.83
295.432	7.61
295.645	7.45
295.858	7.05
296.071	7.19
296.284	7.35
296.497	7.49
296.71	7.31
296.923	7.69
297.136	7.95
297.349	7.94
297.562	7.87
297.775	7.55
297.988	7.51
298.201	7.61
298.414	7.57
298.626	7.74
298.839	7.75
299.052	7.76
299.265	8.01
299.478	7.82
299.691	7.31
299.903	7.34
300.116	7.83
300.329	7.62
300.542	7.97
300.755	8.42
300.967	8.49
301.18	8.66
301.393	8.56
301.605	8.53
301.818	8.61
302.031	8.36
302.243	8.73
302.456	8.95
302.669	9.09
302.881	9.09
303.094	9.61
303.307	9.51
303.519	9.12
303.732	8.87
303.944	8.96
304.157	9.13
304.37	9.21
304.582	9.44
304.795	9.94
305.007	9.64
305.22	9.86
305.432	9.75
305.645	9.39
305.857	9.32
306.069	9.61
306.282	9.65
306.494	10.17
306.707	10.44
306.919	10.45
307.132	10.47
307.344	10.13
307.556	9.7
307.769	9.76
307.981	9.7
308.193	9.62
308.406	9.77
308.618	9.58
308.83	9.39
309.043	9.57
309.255	9.82
309.467	9.8
309.679	9.85
309.892	9.88
310.104	10.12
310.316	10.22
310.528	10.52
310.74	10.68
310.953	10.84
311.165	10.9
311.377	11.01
311.589	11.24
311.801	10.99
312.013	10.71
312.225	10.44
312.437	10.68
312.649	10.47
312.862	10.74
313.074	11.01
313.286	10.73
313.498	10.66
313.71	10.43
313.922	10.37
314.134	10.36
314.346	10.5
314.558	10.83
314.77	10.7
314.982	10.74
315.193	10.55
315.405	10.87
315.617	10.61
315.829	10.32
316.041	10.41
316.253	10.48
316.465	10.19
316.677	10.33
316.888	10.33
317.1	10.51
317.312	10.27
317.524	10.39
317.736	10.7
317.947	10.85
318.159	10.94
318.371	11.17
318.583	11.43
318.794	11.52
319.006	11.62
319.218	12.26
319.43	12.65
319.641	13.01
319.853	12.78
320.064	13.19
320.276	13.26
320.488	13.31
320.699	13.53
320.911	13.61
321.123	14.02
321.334	13.72
321.546	13.58
321.757	13.21
321.969	13.34
322.18	13.12
322.392	13.16
322.603	13.31
322.815	13.12
323.026	12.75
323.238	12.95
323.449	13.03
323.661	13.13
323.872	13.01
324.083	13.49
324.295	13.77
324.506	14.21
324.718	14.46
324.929	14.33
325.14	14.37
325.352	14.29
325.563	14.45
325.774	15.16
325.986	15.25
326.197	15.18
326.408	15.53
326.62	15.59
326.831	15.9
327.042	16.21
327.253	16.61
327.464	16.5
327.676	17.29
327.887	17.77
328.098	18.26
328.309	18.27
328.52	18.46
328.732	18.79
328.943	18.95
329.154	19.41
329.365	19.48
329.576	19.12
329.787	18.97
329.998	19.04
330.209	19.1
330.42	19.02
330.631	18.97
330.842	19.02
331.053	19.46
331.264	19.46
331.475	19.56
331.686	19.58
331.897	19.43
332.108	19.79
332.319	20.4
332.53	20.58
332.741	20.58
332.952	20.68
333.163	20.5
333.374	20.42
333.585	20.53
333.795	20.2
334.006	20.31
334.217	20.4
334.428	20.3
334.639	20.02
334.849	19.73
335.06	19.37
335.271	19.85
335.482	19.61
335.692	19.97
335.903	20.16
336.114	20.37
336.325	20.25
336.535	20.65
336.746	20.4
336.957	20.34
337.167	20.77
337.378	21.27
337.589	21.22
337.799	21.65
338.01	21.18
338.22	21.03
338.431	20.48
338.642	20.57
338.852	20.52
339.063	20.64
339.273	20.69
339.484	21.01
339.694	21.24
339.905	20.98
340.115	20.42
340.326	20.66
340.536	20.3
340.746	20.51
340.957	20.99
341.167	21.26
341.378	21.05
341.588	20.74
341.799	20.4
342.009	20.32
342.219	19.93
342.43	19.48
342.64	19.73
342.85	19.77
343.061	19.83
343.271	19.86
343.481	19.73
343.691	19.14
343.902	19.21
344.112	19.31
344.322	19.39
344.532	19.57
344.743	19.11
344.953	19.24
345.163	19.16
345.373	18.85
345.583	18.94
345.793	18.88
346.004	18.94
346.214	19
346.424	19.54
346.634	19.36
346.844	19.06
347.054	19.16
347.264	19.25
347.474	19.49
347.684	19.46
347.894	19.68
348.104	19.81
348.314	19.63
348.524	19.26
348.734	19.38
348.944	19.37
349.154	19.37
349.364	19.34
349.574	19.78
349.784	19.63
349.994	19.48
350.204	19.75
350.413	19.45
350.623	19.25
350.833	19
351.043	19.12
351.253	19.22
351.463	18.86
351.672	18.82
351.882	18.51
352.092	18.43
352.302	18.2
352.511	17.99
352.721	18.09
352.931	17.98
353.141	17.9
353.35	17.99
353.56	18.06
353.77	17.94
353.979	18.07
354.189	18.13
354.399	18
354.608	18.15
354.818	18.06
355.027	18.08
355.237	18.09
355.447	18
355.656	17.64
355.866	17.9
356.075	17.86
356.285	17.9
356.494	17.94
356.704	17.77
356.913	17.77
357.123	17.81
357.332	17.7
357.542	17.72
357.751	17.68
357.96	17.94
358.17	17.88
358.379	18.17
358.589	18.05
358.798	17.87
359.007	17.75
359.217	17.63
359.426	17.57
359.635	17.57
359.845	17.64
360.054	17.52
360.263	17.55
360.472	17.44
360.682	17.41
360.891	17.41
361.1	17.55
361.309	17.67
361.519	17.7
361.728	17.74
361.937	17.84
362.146	17.87
362.355	17.95
362.564	17.71
362.774	17.7
362.983	17.64
363.192	17.65
363.401	17.48
363.61	17.74
363.819	17.55
364.028	17.45
364.237	17.5
364.446	17.48
364.655	17.39
364.864	17.51
365.073	17.34
365.282	17.3
365.491	17.5
365.7	17.48
365.909	17.48
366.118	17.77
366.327	17.42
366.536	17.48
366.745	17.42
366.954	17.5
367.162	17.52
367.371	17.57
367.58	17.33
367.789	17.38
367.998	17.38
368.207	17.2
368.415	17.39
368.624	17.59
368.833	17.37
369.042	17.47
369.25	17.33
369.459	17.53
369.668	17.14
369.877	17.14
370.085	16.9
370.294	17.05
370.503	16.86
370.711	16.75
370.92	16.78
371.129	16.54
371.337	16.06
371.546	16.09
371.754	15.96
371.963	15.86
372.171	15.68
372.38	15.62
372.589	15.59
372.797	15.66
373.006	15.43
373.214	15.8
373.423	15.99
373.631	15.87
373.84	16.17
374.048	16.36
374.256	16.16
374.465	16.13
374.673	16.17
374.882	16.01
375.09	16.36
375.298	16.3
375.507	16.17
375.715	16.12
375.923	15.77
376.132	15.63
376.34	15.56
376.548	15.41
376.757	15.48
376.965	15.54
377.173	15.43
377.381	15.29
377.59	15.25
377.798	14.94
378.006	14.68
378.214	14.61
378.423	14.65
378.631	14.75
378.839	14.86
379.047	14.83
379.255	14.58
379.463	14.3
379.671	14.24
379.879	14.18
380.088	14.23
380.296	14.25
380.504	14.49
380.712	14.61
380.92	14.67
381.128	14.46
381.336	14.3
381.544	14.02
381.752	14.14
381.96	14.12
382.168	14.14
382.376	14.11
382.584	14.11
382.791	14
382.999	14.02
383.207	13.83
383.415	13.92
383.623	13.93
383.831	14.1
384.039	14.17
384.247	14.13
384.454	13.87
384.662	13.82
384.87	13.92
385.078	13.68
385.285	13.55
385.493	13.5
385.701	13.5
385.909	13.56
386.116	13.37
386.324	13.36
386.532	13.22
386.739	13.27
386.947	13.25
387.155	13.28
387.362	13.42
387.57	13.31
387.778	13.5
387.985	13.43
388.193	13.42
388.4	13.42
388.608	13.17
388.816	13.3
389.023	13.21
389.231	13.24
389.438	13.04
389.646	13.12
389.853	13.17
390.061	12.85
390.268	12.74
390.475	12.65
390.683	12.71
390.89	12.66
391.098	12.45
391.305	12.44
391.512	12.38
391.72	12.36
391.927	12.31
392.135	12.12
392.342	12.19
392.549	12.09
392.756	12.02
392.964	12.02
393.171	11.92
393.378	11.93
393.586	11.9
393.793	11.78
394	11.91
394.207	11.74
394.414	11.65
394.622	11.38
394.829	11.63
395.036	11.62
395.243	11.63
395.45	11.75
395.657	11.62
395.864	11.63
396.072	11.49
396.279	11.39
396.486	11.59
396.693	11.5
396.9	11.56
397.107	11.67
397.314	12.03
397.521	11.89
397.728	11.64
397.935	11.61
398.142	11.59
398.349	11.63
398.556	11.61
398.763	11.6
398.97	11.61
399.177	11.46
399.383	11.35
399.59	11.3
399.797	11.26
400.004	11.19
400.211	11.23
400.418	11.24
400.625	11.21
400.831	11.15
401.038	11.12
401.245	11.05
401.452	10.95
401.658	11.08
401.865	11.13
402.072	11.12
402.279	11.1
402.485	10.98
402.692	10.63
402.899	10.5
403.105	10.38
403.312	10.31
403.519	10.31
403.725	10.21
403.932	10.14
404.138	10.21
404.345	10.05
404.552	10.06
404.758	10.14
404.965	9.94
405.171	9.93
405.378	9.95
405.584	9.95
405.791	9.85
405.997	9.86
406.204	9.88
406.41	9.93
406.617	10.01
406.823	9.89
407.029	9.81
407.236	9.73
407.442	9.63
407.649	9.56
407.855	9.49
408.061	9.57
408.268	9.71
408.474	9.86
408.68	9.83
408.887	9.84
409.093	9.76
409.299	9.73
409.505	9.71
409.712	9.77
409.918	9.7
410.124	9.68
410.33	9.85
410.537	9.8
410.743	9.68
410.949	9.42
411.155	9.34
411.361	9.33
411.567	9.04
411.773	8.94
411.98	9.02
412.186	9.09
412.392	8.98
412.598	8.98
412.804	8.93
413.01	8.89
413.216	9
413.422	9.22
413.628	9.25
413.834	9.25
414.04	9.25
414.246	9.4
414.452	9.4
414.658	9.22
414.864	9.16
415.07	9.26
415.275	9.24
415.481	9.18
415.687	9.11
415.893	9.04
416.099	8.98
416.305	8.96
416.511	8.95
416.716	8.9
416.922	8.86
417.128	8.82
417.334	8.9
417.539	8.87
417.745	8.83
417.951	8.8
418.157	8.81
418.362	8.85
418.568	8.83
418.774	8.7
418.979	8.67
419.185	8.59
419.391	8.58
419.596	8.57
419.802	8.59
420.008	8.07
420.213	8.04
420.419	7.98
420.624	7.94
420.83	7.9
421.035	7.88
421.241	7.85
421.446	7.85
421.652	7.87
421.857	7.82
422.063	7.76
422.268	7.65
422.474	7.6
422.679	8
422.885	7.94
423.09	7.9
423.295	7.89
423.501	7.87
423.706	7.8
423.911	7.75
424.117	7.7
424.322	7.64
424.527	7.69
424.733	7.62
424.938	7.65
425.143	7.68
425.349	7.66
425.554	7.74
425.759	7.78
425.964	7.76
426.169	7.77
426.375	7.84
426.58	7.82
426.785	7.93
426.99	7.93
427.195	7.94
427.4	8.03
427.605	8.12
427.811	8.14
428.016	8.13
428.221	8.05
428.426	7.97
428.631	7.92
428.836	7.9
429.041	7.82
429.246	7.82
429.451	7.73
429.656	7.66
429.861	7.68
430.066	7.71
430.271	7.59
430.476	7.51
430.681	7.61
430.886	7.69
431.09	7.7
431.295	7.73
431.5	7.68
431.705	7.72
431.91	7.72
432.115	7.7
432.32	7.7
432.524	7.64
432.729	7.6
432.934	7.6
433.139	7.62
433.343	7.47
433.548	7.29
433.753	7.32
433.958	7.24
434.162	7.25
434.367	7.3
434.572	7.34
434.776	7.44
434.981	7.41
435.186	7.38
435.39	7.28
435.595	7.26
435.799	7.26
436.004	7.29
436.209	7.42
436.413	7.35
436.618	7.42
436.822	7.43
437.027	7.36
437.231	7.17
437.436	7.15
437.64	7.27
437.845	7.33
438.049	7.36
438.253	7.37
438.458	7.31
438.662	7.28
438.867	7.34
439.071	7.26
439.275	7.26
439.48	7.27
439.684	7.22
439.888	7.41
440.093	7.36
440.297	7.35
440.501	7.31
440.706	7.38
440.91	7.37
441.114	7.43
441.318	7.45
441.523	7.38
441.727	7.44
441.931	7.45
442.135	7.43
442.339	7.48
442.543	7.46
442.748	7.48
442.952	7.5
443.156	7.49
443.36	7.45
443.564	7.4
443.768	7.31
443.972	7.33
444.176	7.35
444.38	7.33
444.584	7.28
444.788	7.29
444.992	7.26
445.196	7.2
445.4	7.04
445.604	6.95
445.808	6.92
446.012	6.84
446.216	6.81
446.42	6.83
446.624	6.78
446.828	6.75
447.032	6.77
447.235	6.75
447.439	6.73
447.643	6.72
447.847	6.7
448.051	6.84
448.254	6.85
448.458	6.89
448.662	6.99
448.866	7.06
449.069	7.03
449.273	7.05
449.477	6.99
449.681	6.99
449.884	7.03
450.088	6.99
450.292	6.97
450.495	6.98
450.699	6.95
450.902	6.89
451.106	6.79
451.31	6.7
451.513	6.73
451.717	6.8
451.92	6.8
452.124	6.74
452.327	6.69
452.531	6.71
452.734	6.69
452.938	6.65
453.141	6.57
453.345	6.58
453.548	6.6
453.752	6.69
453.955	6.67
454.158	6.55
454.362	6.49
454.565	6.45
454.769	6.52
454.972	6.55
455.175	6.48
455.379	6.51
455.582	6.53
455.785	6.66
455.988	6.64
456.192	6.57
456.395	6.5
456.598	6.52
456.801	6.58
457.005	6.57
457.208	6.56
457.411	6.59
457.614	6.55
457.817	6.54
458.021	6.49
458.224	6.5
458.427	6.45
458.63	6.43
458.833	6.47
459.036	6.53
459.239	6.5
459.442	6.53
459.645	6.54
459.848	6.63
460.051	6.67
460.254	6.68
460.457	6.7
460.66	6.8
460.863	6.77
461.066	6.77
461.269	6.75
461.472	6.76
461.675	6.6
461.878	6.68
462.081	6.65
462.284	6.58
462.486	6.45
462.689	6.34
462.892	6.32
463.095	6.34
463.298	6.3
463.5	6.34
463.703	6.33
463.906	6.44
464.109	6.46
464.311	6.65
464.514	6.73
464.717	6.78
464.92	6.88
465.122	6.97
465.325	6.97
465.528	7.03
465.73	7.01
465.933	6.94
466.135	6.98
466.338	7.06
466.541	7
466.743	6.96
466.946	6.85
467.148	6.83
467.351	6.84
467.553	6.87
467.756	6.85
467.958	6.91
468.161	6.96
468.363	7
468.566	7.05
468.768	6.98
468.971	6.94
469.173	6.92
469.375	6.99
469.578	6.99
469.78	7.07
469.983	7.05
470.185	7.06
470.387	7.07
470.59	7.12
470.792	7.06
470.994	7.04
471.196	7.15
471.399	7.21
471.601	7.27
471.803	7.35
472.005	7.4
472.208	7.44
472.41	7.4
472.612	7.31
472.814	7.28
473.016	7.3
473.218	7.31
473.421	7.37
473.623	7.35
473.825	7.33
474.027	7.34
474.229	7.32
474.431	7.32
474.633	7.32
474.835	7.42
475.037	7.44
475.239	7.53
475.441	7.57
475.643	7.59
475.845	7.54
476.047	7.53
476.249	7.57
476.451	7.55
476.653	7.57
476.855	7.53
477.057	7.45
477.258	7.4
477.46	7.36
477.662	7.32
477.864	7.31
478.066	7.26
478.268	7.26
478.469	7.29
478.671	7.25
478.873	7.29
479.075	7.21
479.276	7.15
479.478	7.14
479.68	7.19
479.882	7.19
480.083	7.19
480.285	7.13
480.487	7.05
480.688	7.04
480.89	7.01
481.091	6.98
481.293	6.96
481.495	6.9
481.696	6.87
481.898	6.84
482.099	6.82
482.301	6.78
482.502	6.78
482.704	6.75
482.905	6.75
483.107	6.74
483.308	6.71
483.51	6.69
483.711	6.72
483.913	6.7
484.114	6.71
484.315	6.75
484.517	6.78
484.718	6.77
484.92	6.8
485.121	6.82
485.322	6.83
485.524	6.85
485.725	6.87
485.926	6.9
486.127	6.87
486.329	6.85
486.53	6.85
486.731	6.85
486.932	6.84
487.134	6.82
487.335	6.84
487.536	6.84
487.737	6.82
487.938	6.83
488.139	6.83
488.341	6.83
488.542	6.84
488.743	6.88
488.944	6.9
489.145	6.94
489.346	6.94
489.547	6.96
489.748	7.02
489.949	7.04
490.15	7.06
490.351	7.07
490.552	7.08
490.753	7.08
490.954	7.08
491.155	7.1
491.356	7.08
491.557	7.04
491.758	7.02
491.959	7.03
492.159	7.01
492.36	7.01
492.561	7.04
492.762	7.06
492.963	7.11
493.164	7.15
493.364	7.21
493.565	7.3
493.766	7.32
493.967	7.35
494.167	7.44
494.368	7.5
494.569	7.54
494.769	7.59
494.97	7.66
495.171	7.65
495.371	7.68
495.572	7.64
495.773	7.65
495.973	7.66
496.174	7.64
496.375	7.7
496.575	7.79
496.776	7.86
496.976	7.88
497.177	7.94
497.377	7.95
497.578	7.89
497.778	7.97
497.979	8.05
498.179	8.16
498.38	8.26
498.58	8.37
498.78	8.46
498.981	8.5
499.181	8.54
499.382	8.56
499.582	8.66
499.782	8.64
499.983	8.75
500.183	8.87
500.383	8.87
500.584	8.85
500.784	8.89
500.984	8.85
501.184	8.8
501.385	8.85
501.585	8.9
501.785	8.95
501.985	8.97
502.185	8.94
502.386	9.02
502.586	9.06
502.786	9.09
502.986	9.25
503.186	9.26
503.386	9.29
503.586	9.44
503.786	9.58
503.987	9.66
504.187	9.66
504.387	9.72
504.587	9.76
504.787	9.88
504.987	9.92
505.187	9.94
505.387	10.03
505.587	10.02
505.786	10.09
505.986	10.14
506.186	10.17
506.386	10.13
506.586	10.11
506.786	10.19
506.986	10.18
507.186	10.23
507.386	10.2
507.585	10.26
507.785	10.36
507.985	10.38
508.185	10.4
508.384	10.42
508.584	10.5
508.784	10.48
508.984	10.58
509.183	10.65
509.383	10.68
509.583	10.83
509.782	10.87
509.982	11
510.182	11.03
510.381	11.02
510.581	11.11
510.781	11.2
510.98	11.32
511.18	11.37
511.379	11.44
511.579	11.55
511.778	11.6
511.978	11.75
512.177	11.71
512.377	11.79
512.576	11.84
512.776	11.94
512.975	11.99
513.175	12.02
513.374	12.06
513.573	12.14
513.773	12.2
513.972	12.28
514.172	12.28
514.371	12.46
514.57	12.53
514.77	12.63
514.969	12.73
515.168	12.77
515.367	12.8
515.567	12.87
515.766	12.96
515.965	12.96
516.164	12.99
516.364	13.04
516.563	13.09
516.762	13.11
516.961	13.12
517.16	13.11
517.359	13.15
517.559	13.16
517.758	13.19
517.957	13.33
518.156	13.4
518.355	13.45
518.554	13.5
518.753	13.55
518.952	13.59
519.151	13.64
519.35	13.69
519.549	13.77
519.748	13.89
519.947	13.97
520.146	14.05
520.345	14.15
520.544	14.2
520.743	14.29
520.942	14.38
521.141	14.51
521.339	14.52
521.538	14.51
521.737	14.6
521.936	14.64
522.135	14.57
522.333	14.59
522.532	14.71
522.731	14.71
522.93	14.74
523.129	14.7
523.327	14.71
523.526	14.75
523.725	14.79
523.923	14.85
524.122	14.95
524.321	14.96
524.519	15.03
524.718	15.1
524.917	15.09
525.115	15.06
525.314	15.16
525.512	15.2
525.711	15.22
525.909	15.23
526.108	15.24
526.306	15.28
526.505	15.26
526.703	15.24
526.902	15.26
527.1	15.26
527.299	15.28
527.497	15.27
527.696	15.27
527.894	15.22
528.092	15.23
528.291	15.23
528.489	15.25
528.688	15.23
528.886	15.2
529.084	15.28
529.283	15.33
529.481	15.34
529.679	15.42
529.877	15.45
530.076	15.54
530.274	15.66
530.472	15.78
530.67	15.84
530.869	15.97
531.067	16.02
531.265	16.12
531.463	16.19
531.661	16.23
531.859	16.26
532.057	16.32
532.255	16.31
532.454	16.3
532.652	16.34
532.85	16.36
533.048	16.39
533.246	16.46
533.444	16.44
533.642	16.5
533.84	16.54
534.038	16.55
534.236	16.61
534.434	16.64
534.632	16.66
534.83	16.67
535.027	16.73
535.225	16.77
535.423	16.77
535.621	16.82
535.819	16.79
536.017	16.8
536.215	16.86
536.412	16.82
536.61	16.86
536.808	16.87
537.006	16.98
537.203	17.03
537.401	17.11
537.599	17.18
537.797	17.26
537.994	17.36
538.192	17.37
538.39	17.43
538.587	17.47
538.785	17.46
538.983	17.51
539.18	17.52
539.378	17.55
539.575	17.46
539.773	17.49
539.97	17.49
540.168	17.48
540.366	17.44
540.563	17.42
540.761	17.43
540.958	17.45
541.155	17.48
541.353	17.51
541.55	17.55
541.748	17.58
541.945	17.58
542.143	17.65
542.34	17.68
542.537	17.79
542.735	17.88
542.932	18
543.129	18.06
543.327	18.15
543.524	18.21
543.721	18.31
543.919	18.45
544.116	18.53
544.313	18.58
544.51	18.63
544.708	18.69
544.905	18.72
545.102	18.69
545.299	18.75
545.496	18.71
545.693	18.76
545.891	18.73
546.088	18.71
546.285	18.71
546.482	18.64
546.679	18.67
546.876	18.79
547.073	18.83
547.27	18.83
547.467	18.93
547.664	19.02
547.861	19.04
548.058	19.1
548.255	19.16
548.452	19.34
548.649	19.43
548.846	19.4
549.043	19.61
549.24	19.65
549.437	19.66
549.633	19.78
549.83	19.91
550.027	19.89
550.224	19.93
550.421	19.88
550.618	20.03
550.814	20.11
551.011	20.09
551.208	20.17
551.405	20.32
551.601	20.16
551.798	20.18
551.995	20.19
552.191	20.19
552.388	20.24
552.585	20.3
552.781	20.38
552.978	20.56
553.175	20.53
553.371	20.47
553.568	20.61
553.764	20.62
553.961	20.63
554.157	20.77
554.354	20.93
554.55	20.94
554.747	20.98
554.943	21
555.14	21.05
555.336	20.97
555.533	20.96
555.729	21.06
555.926	21.14
556.122	21.13
556.318	21.18
556.515	21.24
556.711	21.41
556.907	21.44
557.104	21.58
557.3	21.65
557.496	21.75
557.693	21.86
557.889	22.07
558.085	22.21
558.281	22.24
558.478	22.38
558.674	22.39
558.87	22.52
559.066	22.61
559.262	22.57
559.459	22.58
559.655	22.67
559.851	22.77
560.047	22.73
560.243	22.76
560.439	22.84
560.635	22.88
560.831	22.96
561.027	22.9
561.223	23.03
561.419	23.09
561.615	23.1
561.811	23.27
562.007	23.39
562.203	23.38
562.399	23.45
562.595	23.6
562.791	23.75
562.987	23.83
563.183	23.86
563.379	23.96
563.575	24.12
563.771	24.26
563.966	24.28
564.162	24.33
564.358	24.42
564.554	24.4
564.75	24.45
564.945	24.47
565.141	24.51
565.337	24.54
565.533	24.57
565.728	24.65
565.924	24.7
566.12	24.74
566.315	24.85
566.511	25.03
566.707	25.21
566.902	25.23
567.098	25.31
567.293	25.46
567.489	25.44
567.684	25.54
567.88	25.56
568.076	25.66
568.271	25.77
568.467	25.86
568.662	25.98
568.858	25.96
569.053	25.9
569.248	25.81
569.444	25.85
569.639	25.9
569.835	25.92
570.03	26.11
570.225	26.2
570.421	26.3
570.616	26.36
570.812	26.35
571.007	26.38
571.202	26.43
571.397	26.43
571.593	26.56
571.788	26.64
571.983	26.71
572.178	26.88
572.374	26.93
572.569	26.95
572.764	26.97
572.959	27
573.154	27
573.35	27.08
573.545	27.12
573.74	27.15
573.935	27.24
574.13	27.25
574.325	27.35
574.52	27.41
574.715	27.36
574.91	27.51
575.105	27.66
575.3	27.7
575.495	27.78
575.69	27.84
575.885	27.92
576.08	28.01
576.275	28.09
576.47	28.15
576.665	28.29
576.86	28.34
577.055	28.39
577.25	28.53
577.444	28.51
577.639	28.4
577.834	28.56
578.029	28.51
578.224	28.57
578.418	28.66
578.613	28.71
578.808	28.59
579.003	28.66
579.197	28.68
579.392	28.71
579.587	28.74
579.781	28.76
579.976	28.75
580.171	28.86
580.365	28.99
580.56	29.13
580.755	29.18
580.949	29.09
581.144	29.12
581.338	29.4
581.533	29.4
581.727	29.44
581.922	29.64
582.116	29.64
582.311	29.71
582.505	29.78
582.7	29.83
582.894	29.83
583.089	29.87
583.283	29.89
583.478	30.06
583.672	30.1
583.866	30.12
584.061	30.35
584.255	30.46
584.449	30.5
584.644	30.64
584.838	30.73
585.032	30.81
585.226	30.83
585.421	30.75
585.615	30.83
585.809	31
586.003	31.05
586.198	31.08
586.392	31.09
586.586	31.04
586.78	30.97
586.974	30.98
587.168	31.08
587.363	31.16
587.557	31.22
587.751	31.3
587.945	31.44
588.139	31.56
588.333	31.54
588.527	31.56
588.721	31.53
588.915	31.64
589.109	31.59
589.303	31.76
589.497	31.76
589.691	31.68
589.885	31.65
590.079	31.64
590.273	31.66
590.466	31.72
590.66	31.71
590.854	31.7
591.048	31.77
591.242	31.98
591.436	31.99
591.629	32.15
591.823	32.06
592.017	32.1
592.211	32.1
592.404	32.13
592.598	32.2
592.792	32.3
592.986	32.29
593.179	32.29
593.373	32.37
593.567	32.5
593.76	32.48
593.954	32.48
594.147	32.49
594.341	32.59
594.535	32.62
594.728	32.74
594.922	32.84
595.115	32.89
595.309	32.98
595.502	33.05
595.696	33.03
595.889	33
596.083	32.9
596.276	32.89
596.47	32.83
596.663	32.86
596.856	32.89
597.05	32.92
597.243	32.86
597.437	32.73
597.63	32.82
597.823	32.8
598.017	32.79
598.21	32.94
598.403	33.21
598.596	33.22
598.79	33.36
598.983	33.56
599.176	33.58
599.369	33.49
599.563	33.55
599.756	33.79
599.949	34.03
600.142	34.06
600.335	34
600.528	34.08
600.722	33.95
600.915	33.96
601.108	34.13
601.301	34.07
601.494	34.12
601.687	34.2
601.88	34.26
602.073	34.26
602.266	34.25
602.459	34.25
602.652	34.25
602.845	34.23
603.038	34.21
603.231	34.37
603.424	34.2
603.617	34.18
603.809	34.23
604.002	34.28
604.195	34.3
604.388	34.36
604.581	34.38
604.774	34.37
604.966	34.38
605.159	34.39
605.352	34.57
605.545	34.72
605.737	34.59
605.93	34.72
606.123	34.67
606.316	34.67
606.508	34.75
606.701	34.77
606.894	34.83
607.086	34.82
607.279	34.85
607.471	34.87
607.664	34.94
607.857	34.88
608.049	34.78
608.242	34.85
608.434	34.79
608.627	34.78
608.819	34.78
609.012	34.65
609.204	34.56
609.397	34.54
609.589	34.64
609.782	34.57
609.974	34.57
610.166	34.54
610.359	34.62
610.551	34.51
610.743	34.52
610.936	34.59
611.128	34.68
611.32	34.69
611.513	34.75
611.705	34.86
611.897	34.89
612.09	34.87
612.282	34.97
612.474	35.04
612.666	35.13
612.858	35.08
613.051	35.23
613.243	35.42
613.435	35.61
613.627	35.63
613.819	35.96
614.011	36.04
614.203	36.15
614.395	36.2
614.588	36.11
614.78	36.16
614.972	36.21
615.164	36.18
615.356	36.27
615.548	36.35
615.74	36.27
615.932	36.14
616.124	36.26
616.315	36
616.507	36.06
616.699	36.05
616.891	36.12
617.083	36.19
617.275	36.23
617.467	36.23
617.659	36.19
617.85	36.09
618.042	36
618.234	35.83
618.426	35.83
618.618	35.93
618.809	35.97
619.001	35.87
619.193	35.84
619.384	35.68
619.576	35.64
619.768	35.45
619.959	35.29
620.151	35.32
620.343	35.44
620.534	35.56
620.726	35.76
620.917	35.72
621.109	35.7
621.301	35.8
621.492	35.9
621.684	35.81
621.875	36.02
622.067	36.17
622.258	36.28
622.45	36.4
622.641	36.38
622.832	36.41
623.024	36.43
623.215	36.39
623.407	36.51
623.598	36.45
623.789	36.39
623.981	36.27
624.172	36.39
624.363	36.33
624.555	36.27
624.746	36.24
624.937	36.24
625.129	36.29
625.32	36.17
625.511	36.15
625.702	36
625.893	35.97
626.085	35.93
626.276	35.85
626.467	35.94
626.658	35.82
626.849	35.87
627.04	35.89
627.231	35.93
627.422	36.02
627.614	35.89
627.805	36
627.996	35.84
628.187	35.93
628.378	35.98
628.569	36
628.76	36.13
628.951	35.99
629.142	36.07
629.332	35.91
629.523	36.04
629.714	35.91
629.905	35.5
630.096	35.58
630.287	35.42
630.478	35.56
630.669	35.73
630.859	35.64
631.05	35.53
631.241	35.55
631.432	35.52
631.623	35.57
631.813	35.6
632.004	35.43
632.195	35.55
632.385	35.66
632.576	35.71
632.767	35.78
632.957	35.77
633.148	35.7
633.339	35.68
633.529	35.68
633.72	35.73
633.91	35.8
634.101	35.82
634.292	35.85
634.482	35.89
634.673	35.92
634.863	36
635.054	35.95
635.244	35.92
635.435	36
635.625	36.12
635.815	36.19
636.006	36.29
636.196	36.19
636.387	36.3
636.577	36.27
636.767	36.33
636.958	36.32
637.148	36.43
637.338	36.53
637.529	36.58
637.719	36.73
637.909	36.64
638.099	36.55
638.29	36.56
638.48	36.73
638.67	36.85
638.86	36.83
639.05	36.83
639.241	36.86
639.431	36.81
639.621	36.84
639.811	36.94
640.001	36.94
640.191	36.79
640.381	36.8
640.571	36.89
640.761	36.78
640.951	36.62
641.141	36.44
641.331	36.56
641.521	36.53
641.711	36.58
641.901	36.73
642.091	36.58
642.281	36.59
642.471	36.82
642.661	36.95
642.851	37.02
643.041	37.07
643.231	37.14
643.42	37.19
643.61	37.25
643.8	37.13
643.99	37.17
644.18	37.1
644.369	37.09
644.559	37.05
644.749	36.92
644.939	36.67
645.128	36.59
645.318	36.68
645.508	36.52
645.697	36.47
645.887	36.63
646.076	36.78
646.266	36.83
646.456	36.96
646.645	37.05
646.835	37.02
647.024	37.17
647.214	37.34
647.403	37.43
647.593	37.57
647.782	37.57
647.972	37.52
648.161	37.61
648.351	37.6
648.54	37.45
648.73	37.5
648.919	37.27
649.108	37.03
649.298	36.93
649.487	36.95
649.677	36.81
649.866	36.82
650.055	36.83
650.244	36.68
650.434	36.8
650.623	36.83
650.812	36.8
651.002	36.82
651.191	36.99
651.38	37.14
651.569	37.29
651.758	37.37
651.947	37.37
652.137	37.39
652.326	37.37
652.515	37.3
652.704	37.34
652.893	37.35
653.082	37.53
653.271	37.62
653.46	37.63
653.649	37.55
653.838	37.58
654.027	37.7
654.216	37.74
654.405	37.84
654.594	37.84
654.783	37.69
654.972	37.76
655.161	37.76
655.35	37.61
655.539	37.52
655.728	37.36
655.916	37.35
656.105	37.36
656.294	37.38
656.483	37.58
656.672	37.58
656.86	37.42
657.049	37.34
657.238	37.61
657.427	37.57
657.615	37.6
657.804	37.64
657.993	37.63
658.181	37.64
658.37	37.58
658.559	37.33
658.747	37.42
658.936	37.04
659.125	37.13
659.313	37.12
659.502	37.18
659.69	37.24
659.879	37.23
660.067	37.32
660.256	37.41
660.444	37.37
660.633	37.32
660.821	37.3
661.01	37.43
661.198	37.19
661.387	37.3
661.575	37.23
661.763	37.24
661.952	37.29
662.14	37.09
662.328	37.13
662.517	36.95
662.705	36.75
662.893	36.99
663.082	37.03
663.27	37.19
663.458	37.22
663.646	37.41
663.834	37.56
664.023	37.37
664.211	37.34
664.399	37.18
664.587	37.28
664.775	37.36
664.963	37.76
665.152	38.09
665.34	37.87
665.528	37.91
665.716	38.06
665.904	37.95
666.092	37.83
666.28	37.8
666.468	38.1
666.656	37.97
666.844	38.24
667.032	37.95
667.22	37.79
667.408	37.32
667.596	37.17
667.784	37.17
667.971	37.1
668.159	36.93
668.347	37.03
668.535	37.04
668.723	37.03
668.911	36.9
669.098	36.97
669.286	36.86
669.474	37.05
669.662	37.12
669.849	37.08
670.037	37.17
670.225	37.25
670.413	37.47
670.6	37.58
670.788	37.53
670.976	37.58
671.163	37.44
671.351	37.37
671.538	37.41
671.726	37.4
671.913	37.43
672.101	37.54
672.289	37.77
672.476	37.9
672.664	37.82
672.851	37.7
673.039	37.62
673.226	37.8
673.413	37.8
673.601	37.96
673.788	38.05
673.976	38.07
674.163	38.02
674.35	37.88
674.538	37.62
674.725	37.6
674.912	37.16
675.1	37.31
675.287	37.28
675.474	37.31
675.662	37.26
675.849	37.42
676.036	37.32
676.223	37.16
676.411	37.37
676.598	37.38
676.785	37.26
676.972	37.42
677.159	37.38
677.346	37.59
677.533	37.44
677.721	37.44
677.908	37.32
678.095	37.3
678.282	37.03
678.469	37.02
678.656	37.08
678.843	37.09
679.03	37.33
679.217	37.31
679.404	37.37
679.591	37.2
679.778	37.17
679.964	37.14
680.151	37.23
680.338	37.25
680.525	37.1
680.712	37.26
680.899	37.34
681.086	37.33
681.272	37.05
681.459	37.08
681.646	37.26
681.833	37.17
682.02	37.26
682.206	37.08
682.393	37.02
682.58	36.72
682.766	36.89
682.953	36.94
683.14	36.93
683.326	37.07
683.513	37.06
683.7	37.17
683.886	36.87
684.073	37.01
684.259	37
684.446	37.13
684.632	37.47
684.819	37.71
685.005	38.04
685.192	38.08
685.378	38.34
685.565	38.36
685.751	38.16
685.938	38.25
686.124	38.28
686.31	38.51
686.497	38.22
686.683	38.1
686.87	38.19
687.056	38.04
687.242	38.01
687.429	37.79
687.615	37.91
687.801	37.88
687.987	37.84
688.174	38.08
688.36	38.13
688.546	38.34
688.732	38.22
688.918	38.27
689.105	38.57
689.291	38.81
689.477	38.98
689.663	38.74
689.849	39.05
690.035	38.7
690.221	38.81
690.407	38.79
690.593	38.81
690.779	38.93
690.965	38.81
691.151	38.99
691.337	39.29
691.523	39.27
691.709	38.95
691.895	38.97
692.081	39.25
692.267	39.2
692.453	38.94
692.639	38.62
692.825	38.67
693.011	38.82
693.196	38.18
693.382	38.07
693.568	37.59
693.754	37.57
693.94	37.3
694.125	37.17
694.311	37.18
694.497	37.08
694.682	37.15
694.868	37.55
695.054	37.47
695.239	37.55
695.425	37.31
695.611	37.68
695.796	37.77
695.982	38.11
696.168	38
696.353	38.43
696.539	38.42
696.724	38.23
696.91	38.04
697.095	37.72
697.281	37.74
697.466	37.84
697.652	37.98
697.837	37.94
698.023	38.01
698.208	38.08
698.393	38.08
698.579	37.95
698.764	37.59
698.949	37.66
699.135	37.81
699.32	38.03
699.505	37.97
699.691	37.75
699.876	37.7
700.061	37.46
700.246	37.7
700.432	37.69
700.617	37.47
700.802	37.38
700.987	38.06
701.172	38.37
701.358	38.29
701.543	38.28
701.728	37.83
701.913	38.12
702.098	38.41
702.283	38.67
702.468	38.8
702.653	38.73
702.838	38.76
703.023	38.95
703.208	38.96
703.393	38.46
703.578	38.24
703.763	38
703.948	38.23
704.133	38.67
704.318	38.77
704.503	38.64
704.688	38.56
704.873	38.06
705.057	37.83
705.242	37.71
705.427	37.62
705.612	37.71
705.797	37.79
705.981	38
706.166	38.2
706.351	37.96
706.536	37.82
706.72	37.95
706.905	38.13
707.09	37.84
707.274	38.2
707.459	38.36
707.644	38.42
707.828	38.45
708.013	38.64
708.197	38.71
708.382	38.35
708.567	38.33
708.751	38.1
708.936	38.02
709.12	37.88
709.305	37.59
709.489	37.87
709.673	37.92
709.858	38.07
710.042	37.89
710.227	37.94
710.411	37.93
710.596	37.44
710.78	37.85
710.964	38.15
711.149	38.01
711.333	38.11
711.517	38.19
711.702	38.41
711.886	38.11
712.07	37.98
712.254	37.68
712.438	37.83
712.623	37.76
712.807	37.64
712.991	37.73
713.175	37.46
713.359	37.32
713.544	37.85
713.728	37.81
713.912	37.89
714.096	37.67
714.28	37.65
714.464	37.7
714.648	37.93
714.832	37.81
715.016	37.91
715.2	37.87
715.384	38.05
715.568	38.12
715.752	38.08
715.936	37.84
716.12	38.07
716.304	37.79
716.488	37.86
716.671	37.99
716.855	38.23
717.039	37.86
717.223	37.65
717.407	37.64
717.59	38.03
717.774	37.83
717.958	37.87
718.142	37.92
718.325	37.71
718.509	37.43
718.693	37.87
718.877	37.9
719.06	37.67
719.244	37.4
719.428	37.44
719.611	38.02
719.795	37.99
719.978	37.35
720.162	37.44
720.345	37.59
720.529	37.38
720.713	37.36
720.896	37.66
721.08	37.62
721.263	37.71
721.446	38.17
721.63	38.22
721.813	38.69
721.997	38.29
722.18	38.26
722.364	38.48
722.547	38.46
722.73	38.26
722.914	38.57
723.097	38.97
723.28	38.58
723.464	38.29
723.647	38.23
723.83	37.91
724.013	38
724.197	37.99
724.38	38.31
724.563	38.62
724.746	38.79
724.929	38.65
725.112	38.52
725.296	38.39
725.479	38.21
725.662	38.48
725.845	38.52
726.028	38.4
726.211	38.72
726.394	38.57
726.577	38.42
726.76	38.32
726.943	38.13
727.126	38.02
727.309	38.27
727.492	38.48
727.675	38.42
727.858	38.41
728.041	38.08
728.224	38.15
728.407	38.45
728.589	38.48
728.772	38.46
728.955	38.48
729.138	38.39
729.321	38.55
729.503	38.46
729.686	38.51
729.869	38.26
730.052	38.23
730.234	37.97
730.417	38.13
730.6	37.52
730.782	37.49
730.965	37.79
731.148	37.89
731.33	37.46
731.513	37.21
731.695	36.95
731.878	36.96
732.061	37.2
732.243	37.47
732.426	37.8
732.608	38.02
732.791	38.17
732.973	38.59
733.156	38.66
733.338	38.07
733.52	37.69
733.703	38.02
733.885	38.42
734.068	38
734.25	37.88
734.432	37.55
734.615	37.65
734.797	37.31
734.979	37.13
735.162	36.96
735.344	37.12
735.526	37.29
735.708	37.45
735.891	37.53
736.073	37.32
736.255	37.09
736.437	37.7
736.619	37.72
736.802	37.48
736.984	37.02
737.166	37.2
737.348	37.31
737.53	37.58
737.712	37.12
737.894	36.57
738.076	36.12
738.258	36.2
738.44	36.31
738.622	36.34
738.804	36.36
738.986	36.24
739.168	36.25
739.35	36.41
739.532	36.62
739.714	36.86
739.896	36.72
740.078	37.13
740.259	37.47
740.441	37.79
740.623	37.54
740.805	37.86
740.987	37.61
741.168	37.51
741.35	37.79
741.532	37.39
741.714	37.2
741.895	37.03
742.077	36.78
742.259	36.63
742.44	36.21
742.622	35.8
742.804	35.5
742.985	35.52
743.167	35.22
743.348	35.58
743.53	35.04
743.711	35.3
743.893	35.95
744.075	36.26
744.256	35.89
744.438	36.06
744.619	35.9
744.8	36.31
744.982	36.27
745.163	36.66
745.345	37.21
745.526	37.14
745.707	37.53
745.889	38
746.07	37.64
746.252	37.44
746.433	36.7
746.614	36.85
746.795	36.78
746.977	37.07
747.158	37.06
747.339	37.37
747.52	37.21
747.702	36.99
747.883	37.03
748.064	36.67
748.245	37.14
748.426	37.18
748.607	37.51
748.788	38.47
748.97	38.08
749.151	38.07
749.332	38.11
749.513	38.28
749.694	37.79
749.875	37.43
750.056	37.33
750.237	37.41
750.418	37.42
750.599	36.69
750.78	36.9
750.96	36.46
751.141	35.83
751.322	36.8
751.503	36.8
751.684	36.81
751.865	36.41
752.046	36.57
752.226	36.89
752.407	37.25
752.588	36.93
752.769	36.65
752.949	37.28
753.13	36.81
753.311	37.2
753.492	37.29
753.672	36.87
753.853	37.13
754.034	37.04
754.214	36.95
754.395	36.65
754.575	36.74
754.756	36.72
754.937	37.14
755.117	37.48
755.298	37.62
755.478	37.36
755.659	37.3
755.839	37.7
756.02	37.6
756.2	37.07
756.381	37.37
756.561	37.83
756.741	38.45
756.922	38.88
757.102	38.91
757.283	38.98
757.463	38.85
757.643	38.34
757.823	38.58
758.004	38.59
758.184	38.55
758.364	38.57
758.545	38.43
758.725	38.47
758.905	38.31
759.085	37.9
759.265	37.44
759.446	37.42
759.626	37.07
759.806	37.1
759.986	36.82
760.166	37.22
760.346	36.94
760.526	36.31
760.706	36.19
760.886	36.27
761.066	36.02
761.246	35.49
761.426	35.65
761.606	35.61
761.786	35.25
761.966	35.21
762.146	35.17
762.326	35.64
762.506	35.49
762.686	35.65
762.866	35.7
763.046	35.76
763.225	35.79
763.405	35.54
763.585	36.04
763.765	36.08
763.945	36.37
764.124	36.95
764.304	37.44
764.484	37.25
764.664	36.88
764.843	36.81
765.023	36.45
765.203	36.77
765.382	36.66
765.562	37.02
765.741	37.55
765.921	37.29
766.101	37.34
766.28	37.44
766.46	36.81
766.639	36.44
766.819	37.51
766.998	37.65
767.178	37.95
767.357	39.02
767.537	38.85
767.716	38.61
767.896	38.36
768.075	37.98
768.254	37.98
768.434	38.56
768.613	38.26
768.792	38.45
768.972	38.35
769.151	36.91
769.33	37.01
769.51	36.67
769.689	36.15
769.868	36.52
770.047	36.99
770.226	37.57
770.406	37.81
770.585	37.64
770.764	37.18
770.943	37.3
771.122	37.82
771.301	37.78
771.48	38.28
771.66	38.16
771.839	38.33
772.018	38.85
772.197	38.46
772.376	37.76
772.555	36.95
772.734	36.05
772.913	36.78
773.092	37
773.271	37.44
773.449	37.37
773.628	37.16
773.807	37.51
773.986	37.4
774.165	37.12
774.344	35.81
774.523	36.02
774.701	36.45
774.88	36.98
775.059	37.38
775.238	36.44
775.417	36.2
775.595	35.94
775.774	35.79
775.953	36.91
776.131	36.23
776.31	36.17
776.489	36.94
776.667	37.16
776.846	36.51
777.025	36.65
777.203	36.75
777.382	36.77
777.56	36.59
777.739	36.7
777.917	36.65
778.096	36.6
778.274	36.34
778.453	36.71
778.631	36.34
778.81	35.81
778.988	36.28
779.166	36.62
779.345	36.51
779.523	36.44
779.702	37.37
779.88	38.18
780.058	37.99
780.237	38.01
780.415	37.78
780.593	36.81
780.771	37.46
780.95	37.88
781.128	38.05
781.306	38.65
781.484	38.97
781.662	39.23
781.841	38.89
782.019	38.07
782.197	37.12
782.375	36.82
782.553	35.95
782.731	36.01
782.909	36.46
783.087	36.11
783.265	36.58
783.443	36.64
783.621	36.27
783.799	35.96
783.977	35.32
784.155	36.16
784.333	37.4
784.511	38.08
784.689	38.75
784.867	38.97
785.045	39.06
785.223	38.42
785.4	38.69
785.578	38.11
785.756	37.67
785.934	37.22
786.112	36.66
786.289	36.36
786.467	35.72
786.645	34.58
786.823	34.68
787	34.99
787.178	35.08
787.356	35.02
787.533	36.35
787.711	36.13
787.889	36.22
788.066	36.16
788.244	36.25
788.421	36.42
788.599	37.2
788.776	36.85
788.954	37.22
789.131	37.11
789.309	37.46
789.486	37.82
789.664	38.3
789.841	36.84
790.019	36.54
790.196	36.6
790.373	37.12
790.551	37.24
790.728	38
790.906	38.11
791.083	38.58
791.26	38.22
791.437	38.24
791.615	36.75
791.792	36.77
791.969	36.52
792.146	37.54
792.324	38.33
792.501	39.45
792.678	39.19
792.855	39.03
793.032	38.92
793.209	39.56
793.387	39.35
793.564	40.14
793.741	40.11
793.918	40.82
794.095	40.65
794.272	39.87
794.449	39.44
794.626	38.52
794.803	38.55
794.98	38.48
795.157	39.14
795.334	38.93
795.511	37.97
795.688	37.45
795.864	37.08
796.041	38.06
796.218	37.46
796.395	37.99
796.572	38.28
796.749	37.43
796.925	38.53
797.102	37.72
797.279	38.15
797.456	37.66
797.632	37.73
797.809	38.27
797.986	38.93
798.162	38.31
798.339	37.31
798.516	38.15
798.692	38.39
798.869	38.82
799.046	39.68
799.222	39.18
799.399	39.19
799.575	39.29
799.752	39.6
799.928	40.2
800.105	40.6
800.281	40.28
800.458	40.27
800.634	40.28
800.811	40.44
800.987	40.56
801.163	40.25
801.34	40.68
801.516	40.42
801.692	39.72
801.869	38.89
802.045	37.86
802.221	37.76
802.398	37.35
802.574	38.6
802.75	39.13
802.926	39.74
803.103	39.06
803.279	37.73
803.455	37.49
803.631	37.09
803.807	37.54
803.983	38.11
804.16	38.18
804.336	38.82
804.512	38.18
804.688	37.31
804.864	36.3
805.04	35.99
805.216	35.97
805.392	36.24
805.568	37.61
805.744	37.58
805.92	36.96
806.096	36.87
806.272	37.4
806.448	37.63
806.623	36.67
806.799	36.05
806.975	37.08
807.151	37.01
807.327	37.12
807.503	36.34
807.678	37.06
807.854	35.25
808.03	36.28
808.206	35.97
808.381	35.81
808.557	35.46
808.733	35.27
808.908	37.08
809.084	37.75
809.26	36.63
809.435	36.25
809.611	36.06
809.787	37.35
809.962	35.79
810.138	37.29
810.313	36.28
810.489	38.82
810.664	37.51
810.84	36.87
811.015	37.46
811.191	36.5
811.366	37.09
811.542	37.74
811.717	39.58
811.892	41.23
812.068	40.43
812.243	42.46
812.419	41.2
812.594	42.47
812.769	42.4
812.944	42.62
813.12	43.13
813.295	42.94
813.47	42.69
813.645	42.82
813.821	44.29
813.996	43.44
814.171	44.19
814.346	44.81
814.521	43.64
814.697	43.97
814.872	42.59
815.047	42.54
815.222	41.6
815.397	41.43
815.572	40
815.747	40.19
815.922	40.53
816.097	39.04
816.272	38.63
816.447	37.12
816.622	36.1
816.797	36.71
816.972	35.81
817.147	35.48
817.322	33.76
817.496	35.97
817.671	36.12
817.846	37.28
818.021	37.53
818.196	36.96
818.371	37.95
818.545	37.92
818.72	38.04
818.895	37.79
819.069	37.28
819.244	37.52
819.419	37.3
819.594	37.65
819.768	36.55
819.943	36.26
820.117	36.4
820.292	36.22
820.467	35.49
820.641	34.79
820.816	34.42
820.99	34.42
821.165	34.17
821.339	34.05
821.514	34.22
821.688	34.35
821.863	34.23
822.037	34.21
822.212	34.37
822.386	33.93
822.56	34.05
822.735	34.26
822.909	34.12
823.084	34.24
823.258	33.81
823.432	34.02
823.606	34.03
823.781	33.92
823.955	33.64
824.129	33.8
824.303	33.96
824.478	33.72
824.652	34.06
824.826	33.76
825	33.93
825.174	33.94
825.348	33.93
825.523	34.35
825.697	34.53
825.871	34.44
826.045	34.51
826.219	34.98
826.393	34.74
826.567	34.84
826.741	34.39
826.915	34.26
827.089	34.03
827.263	34
827.437	34.3
827.611	34.6
827.784	34.73
827.958	34.43
828.132	34.53
828.306	34.62
828.48	34.33
828.654	34.55
828.827	34.6
829.001	35.46
829.175	35.34
829.349	35.52
829.522	35.07
829.696	35.6
829.87	35.3
830.044	35.47
830.217	34.83
830.391	34.38
830.565	33.6
830.738	34.53
830.912	33.56
831.085	32.89
831.259	32.78
831.432	34.29
831.606	34.22
831.779	34.82
831.953	33.83
832.126	33.93
832.3	33.69
832.473	34.91
832.647	35.4
832.82	36.45
832.994	35.83
833.167	36.89
833.34	37.59
833.514	37.81
833.687	37.21
833.86	37.52
834.034	36.9
834.207	37.02
834.38	36.98
834.553	37.28
834.727	36.7
834.9	36.68
835.073	36.55
835.246	36.76
835.419	36.64
835.593	36.28
835.766	36.43
835.939	36.34
836.112	36.91
836.285	38.23
836.458	39.08
836.631	39.07
836.804	39.03
836.977	39.22
837.15	39.42
837.323	39.38
837.496	38.27
837.669	37.82
837.842	37.78
838.015	37.75
838.188	38.12
838.361	38.51
838.533	37.37
838.706	37.23
838.879	36.78
839.052	36.85
839.225	36.77
839.398	37
839.57	36.39
839.743	38.53
839.916	38.03
840.088	36.87
840.261	36.81
840.434	36.68
840.607	36.09
840.779	35.96
840.952	36.3
841.124	37.85
841.297	37.69
841.47	39.42
841.642	40.43
841.815	40.51
841.987	39.05
842.16	40.6
842.332	42.7
842.505	42.88
842.677	43.57
842.85	42.28
843.022	41.33
843.194	40.77
843.367	41.75
843.539	41.87
843.712	41.61
843.884	41.92
844.056	41.05
844.229	44.31
844.401	42.13
844.573	41.55
844.745	39.83
844.918	39.56
845.09	41.45
845.262	43.15
845.434	41.52
845.606	41.99
845.779	42.88
845.951	45.34
846.123	43.71
846.295	44.99
846.467	41.45
846.639	43.41
846.811	43.56
846.983	46.26
847.155	45.53
847.327	47.11
847.499	46.14
847.671	48.57
847.843	46.83
848.015	47.47
848.187	43.77
848.359	42.95
848.531	43.36
848.703	44.51
848.875	43.55
849.047	43.25
849.218	42.17
849.39	44
849.562	42.17
849.734	47.09
849.905	48.66
850.077	45.89
850.249	44.34
850.421	47.45
850.592	49.04
850.764	48.75
850.936	48.93
851.107	46.57
851.279	50.29
851.451	48.15
851.622	45.67
851.794	47.14
851.965	44.04
852.137	42.74
852.308	42.73
852.48	41.62
852.651	36.37
852.823	33.94
852.994	33.37
853.166	33.43
853.337	36.87
853.509	32.26
853.68	37.27
853.851	39.4
854.023	38.52
854.194	37.09
854.365	38.03
854.537	39.02
854.708	41.64
854.879	47.33
855.05	48.96
855.222	49.41
855.393	50.51
855.564	52.28
855.735	55.32
855.906	49.43
856.078	52.98
856.249	52.49
856.42	56.81
856.591	53.89
856.762	52.47
856.933	53.18
857.104	53.1
857.275	52.2
857.446	51.2
857.617	49.96
857.788	48.15
857.959	46.68
858.13	51.95
858.301	48.18
858.472	48.28
858.643	45.31
858.814	46.09
858.985	46.87
859.155	47.08
859.326	44.87
859.497	44.98
859.668	44.9
859.839	47.26
860.009	47.85
860.18	47.64
860.351	43.82
860.522	45.62
860.692	45.6
860.863	47.51
861.034	45.28
861.204	45.07
861.375	45.72
861.546	47.42
861.716	48.79
861.887	49.8
862.057	48.07
862.228	45.62
862.398	46.41
862.569	45.18
862.739	40.76
862.91	37.93
863.08	37.04
863.251	39.5
863.421	38.88
863.592	38.44
863.762	36.77
863.932	34.64
864.103	35.73
864.273	38.88
864.443	38.1
864.614	36.02
864.784	40.29
864.954	42.65
865.125	49.48
865.295	48.75
865.465	50.76
865.635	53.42
865.805	52.48
865.976	52.48
866.146	53.94
866.316	54.76
866.486	52.55
866.656	55.08
866.826	55.42
866.996	56.64
867.166	58.09
867.336	52.85
867.506	52.43
867.676	48.81
867.846	47.58
868.016	49.59
868.186	49.83
868.356	50.05
868.526	48.53
868.696	48.61
868.866	47.74
869.036	50.22
869.206	46.52
869.376	46.45
869.545	48.19
869.715	48.53
869.885	49.11
870.055	48.95
870.224	48.52
870.394	47.69
870.564	50.24
870.734	52.96
870.903	49.1
871.073	53.5
871.243	54.28
871.412	54.98
871.582	58.14
871.751	55.43
871.921	56.03
872.091	57.93
872.26	55.35
872.43	53.23
872.599	56.19
872.769	56.63
872.938	56.2
873.108	57.18
873.277	54.86
873.446	50.63
873.616	49.72
873.785	48.01
873.955	50.37
874.124	54.44
874.293	51.8
874.463	53.12
874.632	54.44
874.801	51.99
874.971	49.03
875.14	46.61
875.309	49.36
875.478	47.01
875.647	49.89
875.817	48.37
875.986	47.42
876.155	43.8
876.324	36.22
876.493	32.51
876.662	33.05
876.831	28.46
877	25.42
877.17	24.3
877.339	25
877.508	25.89
877.677	26.92
877.846	26.52
878.015	24.17
878.184	25.77
878.352	27.58
878.521	32.24
878.69	38.13
878.859	37.8
879.028	38.97
879.197	38.38
879.366	37.39
879.534	37.14
879.703	38.02
879.872	37.81
880.041	38.24
880.21	38.39
880.378	37.75
880.547	37.16
880.716	36.63
880.884	36.03
881.053	36.48
881.222	37.15
881.39	38.15
881.559	37.93
881.727	37.41
881.896	37.15
882.065	36.58
882.233	36.38
882.402	36.9
882.57	36.97
882.739	37.22
882.907	37.24
883.076	37.19
883.244	37.32
883.412	37.31
883.581	36.54
883.749	36.94
883.918	36.86
884.086	36.7
884.254	37.32
884.423	36.64
884.591	36.59
884.759	36.56
884.927	36.25
885.096	35.99
885.264	36.49
885.432	37.01
885.6	36.55
885.769	37.54
885.937	38.14
886.105	42.47
886.273	42.42
886.441	44.36
886.609	46.05
886.777	47
886.945	47.97
887.113	49.69
887.281	49.75
887.449	48.25
887.617	46.53
887.785	45.79
887.953	45.72
888.121	45.51
888.289	40.26
888.457	41.97
888.625	41.29
888.793	43.55
888.961	42.73
889.129	44.19
889.296	44.42
889.464	45.61
889.632	49.06
889.8	50.72
889.967	52.74
890.135	55.67
