Data from 2938536_Reflection_2.txt Node
Date: Mon Jun 15 23:48:25 EDT 2015
User: robert
Spectrometer: USB4E03002
Autoset integration time: false
Trigger mode: 4
Integration Time (sec): 1.000000E-1
Scans to average: 10
Electric dark correction enabled: true
Nonlinearity correction enabled: false
Boxcar width: 6
Stray light correction enabled: false
XAxis mode: Wavelengths
Stop averaging: false
Number of Pixels in Spectrum: 3648
>>>>>Begin Spectral Data<<<<<
177.575	-42.76
177.794	-44.13
178.014	-26.48
178.233	-68.52
178.452	-146.62
178.672	223.16
178.891	120
179.11	-119.35
179.33	-210.22
179.549	-259.47
179.768	-213.82
179.987	-414.15
180.207	-179.95
180.426	-185.25
180.645	-174.44
180.864	-123.05
181.084	-150.49
181.303	-146.68
181.522	-126.99
181.741	-154.3
181.96	-146.07
182.179	-100
182.398	-98.15
182.618	-106.38
182.837	-33.54
183.056	-51.06
183.275	5.33
183.494	12.81
183.713	19.06
183.932	37.89
184.151	-3.1
184.37	-70.59
184.589	-1.35
184.808	-90.37
185.027	-215.38
185.246	-102.27
185.465	-113.53
185.684	-195.07
185.903	-238.89
186.122	-1817.02
186.341	4800
186.56	1239.51
186.779	2682.05
186.998	-394.37
187.216	1969.23
187.435	313.69
187.654	814.56
187.873	4238.1
188.092	691.41
188.311	602.38
188.53	3787.5
188.748	-4370
188.967	-558.18
189.186	-1841.46
189.405	-885.71
189.623	1407.69
189.842	623.6
190.061	7990.91
190.28	-608.11
190.498	-1142.11
190.717	-825.68
190.936	-4907.14
191.154	-1694.59
191.373	6955.56
191.592	2111.11
191.81	2048.65
192.029	1087.1
192.248	1452.38
192.466	-2962.5
192.685	-431.51
192.904	-630.58
193.122	1585.71
193.341	2333.33
193.559	276.1
193.778	422.73
193.996	236.78
194.215	254.52
194.433	239.46
194.652	282.45
194.87	428.41
195.089	225.51
195.307	266.86
195.526	206.51
195.744	201.64
195.963	533.88
196.181	583.82
196.399	3236.36
196.618	751.91
196.836	-446.52
197.055	-327.31
197.273	-735.83
197.491	-227.41
197.71	-435.75
197.928	-134.58
198.146	-138.65
198.365	-141.18
198.583	-290.28
198.801	17225
199.019	797.89
199.238	1013.79
199.456	2118.75
199.674	379.19
199.892	421.79
200.111	1821.43
200.329	159.74
200.547	200.81
200.765	207.29
200.983	219.23
201.202	243.36
201.42	389.66
201.638	374.18
201.856	966.67
202.074	464.35
202.292	321.23
202.51	291.52
202.728	298.82
202.946	195.41
203.165	181.45
203.383	192.75
203.601	158.48
203.819	117.26
204.037	85.81
204.255	71.63
204.473	86.35
204.691	58.31
204.909	80.17
205.127	90.78
205.345	53.17
205.562	52.44
205.78	140.65
205.998	78.78
206.216	56.32
206.434	69.5
206.652	80.62
206.87	113.15
207.088	115.29
207.306	130.47
207.523	140.51
207.741	180.43
207.959	154.53
208.177	196.23
208.395	184.17
208.612	161.18
208.83	275.7
209.048	304.52
209.266	318.48
209.483	290.11
209.701	433.33
209.919	947.69
210.136	389.73
210.354	408.33
210.572	359.12
210.79	406.19
211.007	290.6
211.225	275.18
211.442	250.22
211.66	173.96
211.878	64.42
212.095	61.52
212.313	75.32
212.53	58.66
212.748	48.9
212.966	18.74
213.183	1.23
213.401	5.94
213.618	3.49
213.836	-15.59
214.053	12.33
214.271	-15.7
214.488	-30.3
214.705	140.54
214.923	102.04
215.14	82.52
215.358	71.26
215.575	82.3
215.793	96.81
216.01	98.08
216.227	101.1
216.445	84.57
216.662	87.65
216.879	78.95
217.097	71.85
217.314	70.48
217.531	67.56
217.749	78.82
217.966	79.56
218.183	80.41
218.4	71.13
218.618	48.32
218.835	34.78
219.052	25.75
219.269	26.27
219.487	35.68
219.704	53.98
219.921	47.36
220.138	45.47
220.355	52.89
220.572	45.52
220.79	43.83
221.007	40.96
221.224	49.7
221.441	62.42
221.658	68.4
221.875	62.81
222.092	56.43
222.309	54.55
222.526	46.77
222.743	42.18
222.96	39.18
223.177	37.43
223.394	40.72
223.611	36.76
223.828	36.45
224.045	32.59
224.262	29.46
224.479	25.08
224.696	28.55
224.913	26.4
225.13	23.78
225.347	23.12
225.564	22.8
225.781	21.65
225.997	20
226.214	18.88
226.431	17.21
226.648	16.08
226.865	14.58
227.082	15.21
227.298	15.4
227.515	14.94
227.732	15.01
227.949	14.27
228.165	14.66
228.382	14.84
228.599	15.02
228.816	13.71
229.032	13.86
229.249	14.21
229.466	14.36
229.682	14.74
229.899	12.33
230.116	11.5
230.332	9.83
230.549	10.12
230.765	11.62
230.982	11.15
231.199	12.24
231.415	10.3
231.632	11.2
231.848	10.25
232.065	10.39
232.281	10.4
232.498	12.3
232.714	14.09
232.931	14.03
233.147	13.84
233.364	12.92
233.58	13
233.797	12.75
234.013	10.84
234.23	11.43
234.446	11
234.662	12.73
234.879	12.82
235.095	12.11
235.312	12.2
235.528	9.92
235.744	10.82
235.961	12.01
236.177	15.28
236.393	13.34
236.61	12.29
236.826	12.79
237.042	13.24
237.258	13.31
237.475	11.81
237.691	10.29
237.907	11.39
238.123	11.54
238.339	13.74
238.556	14.44
238.772	13.8
238.988	11.77
239.204	12.65
239.42	12.96
239.636	12.58
239.853	12.95
240.069	12.44
240.285	12.31
240.501	12.94
240.717	12.89
240.933	12.9
241.149	12.57
241.365	12.32
241.581	12.34
241.797	11.5
242.013	10.93
242.229	10.68
242.445	11.07
242.661	10.23
242.877	10.52
243.093	10.4
243.309	9.85
243.525	9.36
243.741	8.69
243.957	8.36
244.173	7.9
244.388	7.92
244.604	8.67
244.82	8.68
245.036	8.27
245.252	8.21
245.468	8.26
245.683	8.08
245.899	8.11
246.115	8.2
246.331	7.99
246.547	7.93
246.762	7.94
246.978	7.85
247.194	7.92
247.409	8.28
247.625	8.15
247.841	8.78
248.057	8.3
248.272	8.26
248.488	7.99
248.703	8.02
248.919	7.63
249.135	7.81
249.35	7.99
249.566	7.93
249.782	8.45
249.997	7.95
250.213	7.17
250.428	7.43
250.644	7.42
250.859	7.89
251.075	7.93
251.29	8.68
251.506	8.84
251.721	8.83
251.937	9
252.152	9.42
252.368	10.26
252.583	10.19
252.798	10.32
253.014	9.91
253.229	9.53
253.445	10.01
253.66	9.87
253.875	9.98
254.091	10.27
254.306	9.54
254.521	9.82
254.737	8.47
254.952	7.45
255.167	6.97
255.383	6.28
255.598	6.71
255.813	6.84
256.028	7.21
256.244	6.61
256.459	6.09
256.674	6.14
256.889	5.75
257.104	5.47
257.32	5.5
257.535	5.96
257.75	5.65
257.965	5.36
258.18	5.81
258.395	5.66
258.61	5.5
258.826	5.52
259.041	5.51
259.256	5.66
259.471	5.49
259.686	5.59
259.901	5.87
260.116	5.77
260.331	5.82
260.546	6.21
260.761	6.51
260.976	6.19
261.191	6.48
261.406	6.71
261.621	6.61
261.836	6.8
262.05	7.16
262.265	7.02
262.48	6.7
262.695	6.99
262.91	6.87
263.125	7.47
263.34	6.86
263.555	6.32
263.769	6.19
263.984	6.48
264.199	6.9
264.414	6.61
264.629	6.48
264.843	6.99
265.058	7.18
265.273	6.7
265.488	6.7
265.702	6.89
265.917	6.5
266.132	6.97
266.346	7.17
266.561	7.15
266.776	7.01
266.99	7.16
267.205	7.31
267.42	6.88
267.634	6.56
267.849	6.65
268.063	7.32
268.278	7
268.492	7.15
268.707	7.2
268.922	7.19
269.136	7.36
269.351	7.46
269.565	6.99
269.78	6.79
269.994	6.78
270.209	6.63
270.423	6.4
270.637	6.36
270.852	6.27
271.066	6.73
271.281	6.6
271.495	6.59
271.709	6.47
271.924	6.46
272.138	6.44
272.353	6.78
272.567	6.91
272.781	6.66
272.996	7.36
273.21	7.51
273.424	7.66
273.638	7.57
273.853	7.18
274.067	7.04
274.281	6.91
274.495	7.15
274.71	6.83
274.924	6.64
275.138	6.4
275.352	6.22
275.566	6.5
275.781	6.07
275.995	6.08
276.209	6.21
276.423	6.01
276.637	5.89
276.851	5.61
277.065	5.26
277.279	5.3
277.493	5.4
277.707	5.8
277.921	5.65
278.135	5.81
278.349	5.85
278.563	6.04
278.777	5.99
278.991	5.59
279.205	5.76
279.419	5.95
279.633	6.17
279.847	6.16
280.061	6.13
280.275	6.07
280.489	5.77
280.703	5.76
280.917	5.34
281.131	5.45
281.344	4.96
281.558	4.69
281.772	4.73
281.986	4.9
282.2	4.59
282.414	4.75
282.627	4.83
282.841	4.7
283.055	4.48
283.269	4.71
283.482	4.67
283.696	4.91
283.91	4.6
284.123	4.95
284.337	4.91
284.551	4.78
284.764	4.38
284.978	4.32
285.192	4.31
285.405	4.51
285.619	4.71
285.833	5.14
286.046	4.96
286.26	5.12
286.473	5.15
286.687	5.34
286.9	5.55
287.114	5.82
287.327	5.91
287.541	6.07
287.754	6.43
287.968	6.1
288.181	5.75
288.395	5.6
288.608	5.39
288.822	5.26
289.035	5.46
289.248	5.52
289.462	5.21
289.675	4.95
289.889	4.36
290.102	4.54
290.315	4.48
290.529	4.12
290.742	4.33
290.955	4.68
291.169	4.65
291.382	4.84
291.595	4.95
291.808	4.47
292.022	4.43
292.235	4.5
292.448	4.28
292.661	4.92
292.875	4.93
293.088	5
293.301	5.04
293.514	4.77
293.727	4.69
293.94	4.96
294.153	4.6
294.367	4.52
294.58	4.85
294.793	4.87
295.006	4.98
295.219	5.18
295.432	5.16
295.645	5.03
295.858	4.9
296.071	5.02
296.284	5.35
296.497	5.1
296.71	4.88
296.923	4.96
297.136	5.34
297.349	5.21
297.562	5.14
297.775	5.07
297.988	5.05
298.201	4.9
298.414	4.97
298.626	5.12
298.839	5.08
299.052	4.97
299.265	5.24
299.478	5.08
299.691	5.05
299.903	5.04
300.116	5.2
300.329	4.99
300.542	5
300.755	5.09
300.967	4.95
301.18	4.87
301.393	4.67
301.605	5.05
301.818	4.89
302.031	4.65
302.243	4.61
302.456	4.61
302.669	4.71
302.881	4.73
303.094	4.98
303.307	5.07
303.519	5.12
303.732	5.31
303.944	5.54
304.157	6.05
304.37	5.33
304.582	5.94
304.795	6.64
305.007	6.82
305.22	6.8
305.432	6.11
305.645	5.9
305.857	6.02
306.069	6.27
306.282	6.15
306.494	6.42
306.707	6.3
306.919	5.91
307.132	6.37
307.344	6.04
307.556	5.5
307.769	5.11
307.981	4.98
308.193	5.21
308.406	5.25
308.618	4.76
308.83	4.58
309.043	4.69
309.255	4.92
309.467	4.93
309.679	5.22
309.892	4.86
310.104	4.88
310.316	4.85
310.528	5.23
310.74	5.33
310.953	5.48
311.165	5.72
311.377	5.94
311.589	6.16
311.801	5.96
312.013	5.76
312.225	5.77
312.437	5.83
312.649	6.16
312.862	6.08
313.074	6.57
313.286	6.53
313.498	6.57
313.71	6.41
313.922	6.39
314.134	6.62
314.346	6.67
314.558	6.75
314.77	6.6
314.982	6.32
315.193	6.03
315.405	5.64
315.617	5.52
315.829	5.06
316.041	4.75
316.253	5.14
316.465	4.87
316.677	4.73
316.888	4.69
317.1	4.79
317.312	4.52
317.524	4.7
317.736	5.42
317.947	5.77
318.159	6.13
318.371	6.46
318.583	6.54
318.794	7.06
319.006	6.96
319.218	7.2
319.43	7.13
319.641	7.14
319.853	7.06
320.064	7.37
320.276	7.28
320.488	7.25
320.699	7.3
320.911	7.35
321.123	7.68
321.334	8
321.546	7.47
321.757	7.28
321.969	7.58
322.18	7.22
322.392	7.41
322.603	7.27
322.815	7.27
323.026	6.68
323.238	6.37
323.449	6.08
323.661	6.4
323.872	6.14
324.083	6.1
324.295	6.06
324.506	6.03
324.718	5.95
324.929	6.09
325.14	5.9
325.352	5.78
325.563	5.67
325.774	6.27
325.986	6.42
326.197	6.43
326.408	6.02
326.62	5.81
326.831	5.83
327.042	6.51
327.253	6.94
327.464	6.73
327.676	7.08
327.887	7.28
328.098	7.47
328.309	7.63
328.52	7.47
328.732	7.33
328.943	7.26
329.154	7.63
329.365	7.88
329.576	7.99
329.787	7.53
329.998	7.17
330.209	7.02
330.42	6.66
330.631	6.65
330.842	6.82
331.053	6.3
331.264	6.21
331.475	6.35
331.686	6.52
331.897	6.14
332.108	6.25
332.319	6.17
332.53	6.27
332.741	6.51
332.952	6.39
333.163	6.51
333.374	6.31
333.585	6.21
333.795	6.32
334.006	6.38
334.217	6.41
334.428	6.69
334.639	6.6
334.849	6.13
335.06	6.04
335.271	6.01
335.482	5.7
335.692	6.14
335.903	6.46
336.114	6.42
336.325	6.28
336.535	6.91
336.746	7.08
336.957	6.98
337.167	6.86
337.378	7.56
337.589	7.7
337.799	7.83
338.01	7.99
338.22	7.77
338.431	7.66
338.642	7.4
338.852	7.39
339.063	7.45
339.273	7.06
339.484	6.85
339.694	6.98
339.905	6.72
340.115	6.31
340.326	6.49
340.536	6.15
340.746	6.08
340.957	6.53
341.167	6.45
341.378	6.52
341.588	6.41
341.799	6.03
342.009	5.85
342.219	5.89
342.43	5.58
342.64	5.47
342.85	5.55
343.061	5.65
343.271	5.71
343.481	5.4
343.691	4.87
343.902	4.98
344.112	5.13
344.322	5.05
344.532	5.2
344.743	5.12
344.953	5.05
345.163	5
345.373	4.97
345.583	5.01
345.793	4.99
346.004	5.17
346.214	5.81
346.424	6.13
346.634	5.99
346.844	5.71
347.054	5.99
347.264	6.34
347.474	6.46
347.684	6.23
347.894	6.38
348.104	6.53
348.314	6.23
348.524	5.8
348.734	5.96
348.944	5.64
349.154	5.75
349.364	5.85
349.574	5.92
349.784	5.77
349.994	5.44
350.204	5.73
350.413	5.74
350.623	5.31
350.833	5.03
351.043	5
351.253	5.04
351.463	4.62
351.672	4.49
351.882	4.46
352.092	4.24
352.302	4.23
352.511	3.98
352.721	4.15
352.931	4.01
353.141	4.25
353.35	4.46
353.56	4.89
353.77	4.92
353.979	4.98
354.189	5.13
354.399	5.13
354.608	5.18
354.818	5.46
355.027	5.37
355.237	5.6
355.447	5.56
355.656	5.28
355.866	5.19
356.075	5.3
356.285	5.05
356.494	5.09
356.704	5.1
356.913	5.11
357.123	5.16
357.332	5.03
357.542	4.87
357.751	5.02
357.96	5.03
358.17	4.81
358.379	5.01
358.589	5.05
358.798	4.89
359.007	4.71
359.217	4.55
359.426	4.66
359.635	4.74
359.845	4.76
360.054	4.78
360.263	4.94
360.472	4.78
360.682	4.85
360.891	4.87
361.1	4.9
361.309	4.86
361.519	4.95
361.728	5.24
361.937	5.48
362.146	5.25
362.355	5.34
362.564	5.16
362.774	5.08
362.983	4.83
363.192	4.98
363.401	4.67
363.61	5.03
363.819	4.99
364.028	4.88
364.237	4.79
364.446	4.73
364.655	4.68
364.864	4.95
365.073	4.59
365.282	4.5
365.491	4.82
365.7	4.91
365.909	4.79
366.118	5.02
366.327	4.93
366.536	4.95
366.745	5.11
366.954	5.31
367.162	5.11
367.371	5.24
367.58	4.9
367.789	4.99
367.998	5.11
368.207	4.86
368.415	4.82
368.624	4.89
368.833	4.86
369.042	4.68
369.25	4.67
369.459	4.77
369.668	4.52
369.877	4.68
370.085	4.37
370.294	4.55
370.503	4.65
370.711	4.64
370.92	4.82
371.129	4.7
371.337	4.49
371.546	4.57
371.754	4.45
371.963	4.45
372.171	4.33
372.38	4.32
372.589	4.24
372.797	4.25
373.006	4.18
373.214	4.27
373.423	4.31
373.631	4.13
373.84	4.62
374.048	4.72
374.256	4.47
374.465	4.74
374.673	4.62
374.882	4.78
375.09	4.78
375.298	4.86
375.507	4.83
375.715	4.82
375.923	4.74
376.132	4.73
376.34	4.84
376.548	4.5
376.757	4.73
376.965	4.89
377.173	4.69
377.381	4.89
377.59	4.48
377.798	4.38
378.006	4.22
378.214	4.13
378.423	4.08
378.631	3.98
378.839	4.14
379.047	4.03
379.255	4.15
379.463	3.95
379.671	3.96
379.879	4.05
380.088	3.94
380.296	4.22
380.504	4.54
380.712	4.37
380.92	4.61
381.128	4.58
381.336	4.48
381.544	4.38
381.752	4.45
381.96	4.27
382.168	4.39
382.376	4.43
382.584	4.58
382.791	4.73
382.999	4.83
383.207	4.88
383.415	5.09
383.623	5.08
383.831	5.23
384.039	5.26
384.247	5.13
384.454	4.88
384.662	4.94
384.87	4.68
385.078	4.49
385.285	4.47
385.493	4.13
385.701	4.01
385.909	3.87
386.116	3.79
386.324	3.73
386.532	3.73
386.739	3.88
386.947	4.06
387.155	4.15
387.362	4.17
387.57	4.42
387.778	4.47
387.985	4.26
388.193	4.46
388.4	4.55
388.608	4.61
388.816	4.69
389.023	4.67
389.231	4.54
389.438	4.47
389.646	4.38
389.853	4.43
390.061	4.39
390.268	4.23
390.475	4.25
390.683	4.18
390.89	3.96
391.098	3.88
391.305	3.78
391.512	3.86
391.72	3.87
391.927	3.91
392.135	3.77
392.342	3.78
392.549	3.66
392.756	3.58
392.964	3.68
393.171	3.59
393.378	3.59
393.586	3.69
393.793	3.61
394	3.55
394.207	3.37
394.414	3.32
394.622	3.18
394.829	3.26
395.036	3.24
395.243	3.45
395.45	3.47
395.657	3.43
395.864	3.44
396.072	3.58
396.279	3.63
396.486	3.72
396.693	3.75
396.9	3.91
397.107	4.07
397.314	4.15
397.521	4.12
397.728	4.16
397.935	4
398.142	4.02
398.349	3.98
398.556	4.16
398.763	4.1
398.97	4.11
399.177	4.04
399.383	4.07
399.59	4.06
399.797	4.08
400.004	4.37
400.211	4.35
400.418	4.28
400.625	4.3
400.831	4.36
401.038	4.32
401.245	4.1
401.452	4.02
401.658	4.05
401.865	4.03
402.072	3.99
402.279	3.91
402.485	3.68
402.692	3.37
402.899	3.56
403.105	3.42
403.312	3.47
403.519	3.4
403.725	3.44
403.932	3.44
404.138	3.6
404.345	3.54
404.552	3.7
404.758	3.72
404.965	3.67
405.171	3.8
405.378	3.89
405.584	3.85
405.791	3.88
405.997	4.02
406.204	4.1
406.41	4.05
406.617	4.12
406.823	4.06
407.029	4.04
407.236	4
407.442	4.19
407.649	4.22
407.855	4.1
408.061	4.13
408.268	4.06
408.474	4.05
408.68	4.08
408.887	4.06
409.093	4.04
409.299	3.99
409.505	3.79
409.712	3.78
409.918	3.57
410.124	3.33
410.33	3.18
410.537	3.31
410.743	3.27
410.949	3.21
411.155	3.23
411.361	2.98
411.567	2.89
411.773	2.77
411.98	2.85
412.186	3.02
412.392	2.99
412.598	3.14
412.804	3.34
413.01	3.52
413.216	3.52
413.422	3.66
413.628	3.6
413.834	3.55
414.04	3.58
414.246	3.61
414.452	3.68
414.658	3.55
414.864	3.51
415.07	3.63
415.275	3.59
415.481	3.53
415.687	3.4
415.893	3.23
416.099	3.11
416.305	3.19
416.511	3.3
416.716	3.29
416.922	3.35
417.128	3.41
417.334	3.43
417.539	3.44
417.745	3.36
417.951	3.34
418.157	3.3
418.362	3.33
418.568	3.41
418.774	3.31
418.979	3.23
419.185	3.16
419.391	3.17
419.596	3.07
419.802	3.02
420.008	2.59
420.213	2.55
420.419	2.53
420.624	2.55
420.83	2.51
421.035	2.54
421.241	2.48
421.446	2.52
421.652	2.55
421.857	2.51
422.063	2.46
422.268	2.42
422.474	2.38
422.679	2.88
422.885	2.81
423.09	2.75
423.295	2.72
423.501	2.71
423.706	2.61
423.911	2.57
424.117	2.55
424.322	2.53
424.527	2.62
424.733	2.53
424.938	2.58
425.143	2.68
425.349	2.64
425.554	2.78
425.759	2.84
425.964	2.91
426.169	3
426.375	3.11
426.58	3.2
426.785	3.29
426.99	3.23
427.195	3.13
427.4	3.28
427.605	3.36
427.811	3.23
428.016	3.13
428.221	2.97
428.426	2.96
428.631	2.82
428.836	2.86
429.041	2.75
429.246	2.71
429.451	2.64
429.656	2.71
429.861	2.76
430.066	2.75
430.271	2.65
430.476	2.65
430.681	2.67
430.886	2.8
431.09	2.81
431.295	2.89
431.5	2.75
431.705	2.87
431.91	2.84
432.115	2.9
432.32	2.89
432.524	2.9
432.729	2.89
432.934	2.92
433.139	2.97
433.343	2.96
433.548	2.86
433.753	2.88
433.958	2.82
434.162	2.79
434.367	2.82
434.572	2.84
434.776	2.87
434.981	2.84
435.186	2.87
435.39	2.75
435.595	2.66
435.799	2.57
436.004	2.52
436.209	2.59
436.413	2.5
436.618	2.41
436.822	2.44
437.027	2.37
437.231	2.33
437.436	2.23
437.64	2.27
437.845	2.25
438.049	2.33
438.253	2.45
438.458	2.48
438.662	2.53
438.867	2.59
439.071	2.58
439.275	2.7
439.48	2.7
439.684	2.72
439.888	2.83
440.093	2.84
440.297	2.83
440.501	2.81
440.706	2.86
440.91	2.8
441.114	2.86
441.318	2.8
441.523	2.73
441.727	2.77
441.931	2.73
442.135	2.66
442.339	2.71
442.543	2.66
442.748	2.73
442.952	2.73
443.156	2.82
443.36	2.82
443.564	2.82
443.768	2.69
443.972	2.75
444.176	2.78
444.38	2.75
444.584	2.69
444.788	2.71
444.992	2.64
445.196	2.6
445.4	2.44
445.604	2.44
445.808	2.36
446.012	2.18
446.216	2.14
446.42	2.18
446.624	2.09
446.828	2.02
447.032	2.03
447.235	2.03
447.439	2.04
447.643	2.06
447.847	2.1
448.051	2.23
448.254	2.23
448.458	2.18
448.662	2.32
448.866	2.29
449.069	2.39
449.273	2.39
449.477	2.34
449.681	2.33
449.884	2.34
450.088	2.33
450.292	2.28
450.495	2.25
450.699	2.25
450.902	2.22
451.106	2.28
451.31	2.28
451.513	2.31
451.717	2.25
451.92	2.35
452.124	2.36
452.327	2.38
452.531	2.53
452.734	2.55
452.938	2.64
453.141	2.6
453.345	2.51
453.548	2.58
453.752	2.61
453.955	2.54
454.158	2.56
454.362	2.49
454.565	2.46
454.769	2.64
454.972	2.63
455.175	2.56
455.379	2.51
455.582	2.36
455.785	2.51
455.988	2.52
456.192	2.36
456.395	2.31
456.598	2.34
456.801	2.36
457.005	2.43
457.208	2.41
457.411	2.32
457.614	2.26
457.817	2.2
458.021	2.21
458.224	2.24
458.427	2.23
458.63	2.27
458.833	2.31
459.036	2.36
459.239	2.36
459.442	2.37
459.645	2.34
459.848	2.34
460.051	2.38
460.254	2.47
460.457	2.55
460.66	2.63
460.863	2.58
461.066	2.53
461.269	2.55
461.472	2.52
461.675	2.44
461.878	2.45
462.081	2.41
462.284	2.33
462.486	2.37
462.689	2.32
462.892	2.22
463.095	2.22
463.298	2.14
463.5	2.2
463.703	2.08
463.906	2.07
464.109	2.15
464.311	2.22
464.514	2.36
464.717	2.44
464.92	2.57
465.122	2.62
465.325	2.62
465.528	2.63
465.73	2.52
465.933	2.48
466.135	2.4
466.338	2.48
466.541	2.41
466.743	2.35
466.946	2.24
467.148	2.16
467.351	2.07
467.553	2.03
467.756	1.96
467.958	1.96
468.161	1.96
468.363	2.06
468.566	2.08
468.768	2.08
468.971	2.04
469.173	2.05
469.375	2.11
469.578	2.11
469.78	2.13
469.983	2.14
470.185	2.13
470.387	2.1
470.59	2.15
470.792	2.25
470.994	2.09
471.196	2.1
471.399	2.17
471.601	2.17
471.803	2.2
472.005	2.22
472.208	2.17
472.41	2.2
472.612	2.19
472.814	2.21
473.016	2.28
473.218	2.22
473.421	2.19
473.623	2.33
473.825	2.34
474.027	2.4
474.229	2.45
474.431	2.53
474.633	2.53
474.835	2.63
475.037	2.63
475.239	2.74
475.441	2.77
475.643	2.72
475.845	2.73
476.047	2.73
476.249	2.68
476.451	2.7
476.653	2.73
476.855	2.69
477.057	2.57
477.258	2.57
477.46	2.64
477.662	2.58
477.864	2.48
478.066	2.43
478.268	2.45
478.469	2.42
478.671	2.41
478.873	2.42
479.075	2.35
479.276	2.28
479.478	2.27
479.68	2.37
479.882	2.32
480.083	2.26
480.285	2.26
480.487	2.27
480.688	2.32
480.89	2.28
481.091	2.31
481.293	2.3
481.495	2.27
481.696	2.26
481.898	2.26
482.099	2.25
482.301	2.21
482.502	2.23
482.704	2.24
482.905	2.21
483.107	2.19
483.308	2.13
483.51	2.13
483.711	2.14
483.913	2.11
484.114	2.14
484.315	2.18
484.517	2.18
484.718	2.2
484.92	2.22
485.121	2.23
485.322	2.24
485.524	2.28
485.725	2.29
485.926	2.34
486.127	2.31
486.329	2.29
486.53	2.29
486.731	2.29
486.932	2.27
487.134	2.25
487.335	2.22
487.536	2.23
487.737	2.2
487.938	2.17
488.139	2.16
488.341	2.19
488.542	2.17
488.743	2.24
488.944	2.22
489.145	2.26
489.346	2.29
489.547	2.3
489.748	2.37
489.949	2.36
490.15	2.35
490.351	2.35
490.552	2.34
490.753	2.35
490.954	2.34
491.155	2.36
491.356	2.36
491.557	2.38
491.758	2.35
491.959	2.29
492.159	2.28
492.36	2.27
492.561	2.31
492.762	2.35
492.963	2.35
493.164	2.41
493.364	2.4
493.565	2.41
493.766	2.39
493.967	2.25
494.167	2.29
494.368	2.32
494.569	2.38
494.769	2.47
494.97	2.43
495.171	2.4
495.371	2.42
495.572	2.4
495.773	2.42
495.973	2.42
496.174	2.39
496.375	2.38
496.575	2.51
496.776	2.5
496.976	2.52
497.177	2.53
497.377	2.51
497.578	2.48
497.778	2.53
497.979	2.56
498.179	2.65
498.38	2.7
498.58	2.79
498.78	2.84
498.981	2.97
499.181	2.95
499.382	2.98
499.582	3
499.782	2.95
499.983	2.94
500.183	3.02
500.383	2.99
500.584	2.94
500.784	2.94
500.984	2.86
501.184	2.82
501.385	2.76
501.585	2.74
501.785	2.71
501.985	2.76
502.185	2.72
502.386	2.72
502.586	2.78
502.786	2.75
502.986	2.88
503.186	2.84
503.386	2.81
503.586	2.89
503.786	2.93
503.987	2.96
504.187	2.94
504.387	2.93
504.587	2.91
504.787	2.99
504.987	3.01
505.187	2.94
505.387	2.98
505.587	2.97
505.786	3.03
505.986	3
506.186	2.99
506.386	2.99
506.586	3.01
506.786	3.03
506.986	3.07
507.186	3.05
507.386	3.02
507.585	3.02
507.785	3
507.985	3.08
508.185	3.05
508.384	3.02
508.584	3.07
508.784	3.08
508.984	3.1
509.183	3.13
509.383	3.14
509.583	3.2
509.782	3.28
509.982	3.3
510.182	3.36
510.381	3.39
510.581	3.34
510.781	3.37
510.98	3.47
511.18	3.52
511.379	3.5
511.579	3.6
511.778	3.63
511.978	3.66
512.177	3.65
512.377	3.63
512.576	3.65
512.776	3.64
512.975	3.72
513.175	3.67
513.374	3.74
513.573	3.69
513.773	3.74
513.972	3.78
514.172	3.76
514.371	3.87
514.57	3.91
514.77	3.9
514.969	3.94
515.168	3.95
515.367	4.03
515.567	4.03
515.766	4.05
515.965	4.01
516.164	4.01
516.364	3.94
516.563	3.97
516.762	3.98
516.961	3.95
517.16	3.91
517.359	3.94
517.559	3.91
517.758	3.9
517.957	3.89
518.156	3.92
518.355	3.95
518.554	3.92
518.753	3.95
518.952	4.04
519.151	4.06
519.35	4.01
519.549	4.05
519.748	4.14
519.947	4.14
520.146	4.22
520.345	4.27
520.544	4.33
520.743	4.32
520.942	4.4
521.141	4.48
521.339	4.44
521.538	4.4
521.737	4.38
521.936	4.47
522.135	4.45
522.333	4.42
522.532	4.47
522.731	4.47
522.93	4.55
523.129	4.52
523.327	4.58
523.526	4.59
523.725	4.63
523.923	4.68
524.122	4.74
524.321	4.79
524.519	4.84
524.718	4.84
524.917	4.81
525.115	4.82
525.314	4.89
525.512	4.91
525.711	4.95
525.909	4.95
526.108	4.98
526.306	5.02
526.505	5.05
526.703	5.04
526.902	5.04
527.1	5.02
527.299	5.02
527.497	5.05
527.696	5.04
527.894	4.98
528.092	4.98
528.291	4.97
528.489	4.96
528.688	4.9
528.886	4.87
529.084	4.88
529.283	4.88
529.481	4.91
529.679	4.95
529.877	5.01
530.076	5.11
530.274	5.18
530.472	5.3
530.67	5.31
530.869	5.4
531.067	5.46
531.265	5.58
531.463	5.66
531.661	5.71
531.859	5.75
532.057	5.78
532.255	5.74
532.454	5.72
532.652	5.7
532.85	5.69
533.048	5.69
533.246	5.73
533.444	5.73
533.642	5.79
533.84	5.81
534.038	5.82
534.236	5.83
534.434	5.85
534.632	5.88
534.83	5.93
535.027	6
535.225	6
535.423	6.06
535.621	6.12
535.819	6.17
536.017	6.15
536.215	6.17
536.412	6.18
536.61	6.18
536.808	6.18
537.006	6.26
537.203	6.32
537.401	6.37
537.599	6.46
537.797	6.54
537.994	6.65
538.192	6.7
538.39	6.75
538.587	6.87
538.785	6.88
538.983	6.94
539.18	6.97
539.378	7.04
539.575	7
539.773	6.96
539.97	6.94
540.168	6.88
540.366	6.89
540.563	6.87
540.761	6.85
540.958	6.89
541.155	6.86
541.353	6.86
541.55	6.84
541.748	6.88
541.945	6.88
542.143	6.95
542.34	7.02
542.537	7.16
542.735	7.24
542.932	7.32
543.129	7.38
543.327	7.46
543.524	7.47
543.721	7.59
543.919	7.73
544.116	7.88
544.313	7.96
544.51	8.1
544.708	8.15
544.905	8.2
545.102	8.18
545.299	8.3
545.496	8.36
545.693	8.35
545.891	8.41
546.088	8.46
546.285	8.49
546.482	8.51
546.679	8.48
546.876	8.53
547.073	8.54
547.27	8.57
547.467	8.71
547.664	8.78
547.861	8.79
548.058	8.84
548.255	9.01
548.452	9.12
548.649	9.26
548.846	9.27
549.043	9.32
549.24	9.49
549.437	9.49
549.633	9.57
549.83	9.73
550.027	9.75
550.224	9.82
550.421	9.94
550.618	10.07
550.814	10.08
551.011	10.05
551.208	10.11
551.405	10.2
551.601	10.23
551.798	10.26
551.995	10.37
552.191	10.33
552.388	10.33
552.585	10.24
552.781	10.31
552.978	10.39
553.175	10.46
553.371	10.49
553.568	10.71
553.764	10.69
553.961	10.72
554.157	10.81
554.354	10.93
554.55	10.95
554.747	11.03
554.943	11.11
555.14	11.28
555.336	11.35
555.533	11.35
555.729	11.45
555.926	11.56
556.122	11.44
556.318	11.68
556.515	11.79
556.711	11.86
556.907	11.92
557.104	11.97
557.3	12.05
557.496	12.09
557.693	12.19
557.889	12.23
558.085	12.36
558.281	12.35
558.478	12.37
558.674	12.48
558.87	12.5
559.066	12.54
559.262	12.63
559.459	12.66
559.655	12.82
559.851	13.02
560.047	13.07
560.243	13.09
560.439	13.18
560.635	13.24
560.831	13.36
561.027	13.38
561.223	13.45
561.419	13.57
561.615	13.7
561.811	13.81
562.007	13.85
562.203	13.9
562.399	13.82
562.595	13.99
562.791	14.08
562.987	14.16
563.183	14.27
563.379	14.37
563.575	14.57
563.771	14.67
563.966	14.71
564.162	14.81
564.358	14.85
564.554	14.91
564.75	14.91
564.945	14.98
565.141	15.03
565.337	15.08
565.533	15.05
565.728	15.07
565.924	15.04
566.12	15.09
566.315	15.2
566.511	15.23
566.707	15.21
566.902	15.31
567.098	15.41
567.293	15.5
567.489	15.53
567.684	15.6
567.88	15.75
568.076	15.94
568.271	15.99
568.467	16.11
568.662	16.25
568.858	16.21
569.053	16.16
569.248	16.13
569.444	16.16
569.639	16.17
569.835	16.25
570.03	16.37
570.225	16.35
570.421	16.34
570.616	16.43
570.812	16.43
571.007	16.49
571.202	16.46
571.397	16.57
571.593	16.71
571.788	16.81
571.983	16.84
572.178	16.97
572.374	16.98
572.569	17.09
572.764	17.17
572.959	17.25
573.154	17.25
573.35	17.36
573.545	17.32
573.74	17.38
573.935	17.4
574.13	17.34
574.325	17.37
574.52	17.48
574.715	17.27
574.91	17.39
575.105	17.43
575.3	17.42
575.495	17.47
575.69	17.52
575.885	17.48
576.08	17.58
576.275	17.63
576.47	17.64
576.665	17.84
576.86	17.9
577.055	17.9
577.25	18.19
577.444	18.21
577.639	18.11
577.834	18.28
578.029	18.13
578.224	18.13
578.418	18.29
578.613	18.33
578.808	18.29
579.003	18.46
579.197	18.45
579.392	18.59
579.587	18.57
579.781	18.6
579.976	18.62
580.171	18.75
580.365	18.8
580.56	18.96
580.755	18.96
580.949	18.9
581.144	18.95
581.338	19.02
581.533	18.9
581.727	18.93
581.922	18.97
582.116	18.98
582.311	18.99
582.505	19.06
582.7	19.15
582.894	19.15
583.089	19.2
583.283	19.18
583.478	19.28
583.672	19.42
583.866	19.51
584.061	19.72
584.255	19.82
584.449	19.99
584.644	20.07
584.838	20.08
585.032	19.99
585.226	19.89
585.421	19.99
585.615	20.07
585.809	20.28
586.003	20.32
586.198	20.19
586.392	20.17
586.586	20.08
586.78	20.08
586.974	19.91
587.168	19.95
587.363	20.09
587.557	20.11
587.751	20.2
587.945	20.2
588.139	20.18
588.333	20.13
588.527	20.17
588.721	20.29
588.915	20.24
589.109	20.25
589.303	20.3
589.497	20.36
589.691	20.48
589.885	20.45
590.079	20.51
590.273	20.49
590.466	20.5
590.66	20.64
590.854	20.59
591.048	20.58
591.242	20.5
591.436	20.71
591.629	20.78
591.823	20.87
592.017	20.87
592.211	20.81
592.404	20.81
592.598	20.92
592.792	21.02
592.986	21
593.179	20.98
593.373	21.11
593.567	21.2
593.76	21.26
593.954	21.27
594.147	21.26
594.341	21.32
594.535	21.41
594.728	21.47
594.922	21.51
595.115	21.41
595.309	21.52
595.502	21.57
595.696	21.6
595.889	21.55
596.083	21.57
596.276	21.71
596.47	21.61
596.663	21.76
596.856	21.72
597.05	21.69
597.243	21.59
597.437	21.64
597.63	21.83
597.823	21.78
598.017	21.8
598.21	21.88
598.403	21.98
598.596	21.84
598.79	21.77
598.983	21.89
599.176	21.8
599.369	21.82
599.563	21.79
599.756	21.87
599.949	21.8
600.142	21.77
600.335	21.85
600.528	21.79
600.722	21.67
600.915	21.87
601.108	22.07
601.301	22.08
601.494	22.15
601.687	22.31
601.88	22.28
602.073	22.33
602.266	22.39
602.459	22.52
602.652	22.59
602.845	22.49
603.038	22.55
603.231	22.57
603.424	22.46
603.617	22.46
603.809	22.47
604.002	22.51
604.195	22.43
604.388	22.52
604.581	22.62
604.774	22.59
604.966	22.56
605.159	22.46
605.352	22.58
605.545	22.63
605.737	22.8
605.93	22.76
606.123	22.75
606.316	22.81
606.508	22.8
606.701	22.83
606.894	22.82
607.086	22.82
607.279	22.93
607.471	22.94
607.664	23.02
607.857	22.96
608.049	22.87
608.242	22.73
608.434	22.71
608.627	22.64
608.819	22.54
609.012	22.54
609.204	22.42
609.397	22.39
609.589	22.36
609.782	22.37
609.974	22.38
610.166	22.26
610.359	22.32
610.551	22.42
610.743	22.47
610.936	22.57
611.128	22.67
611.32	22.71
611.513	22.52
611.705	22.61
611.897	22.78
612.09	22.89
612.282	22.88
612.474	23.1
612.666	23.39
612.858	23.54
613.051	23.41
613.243	23.61
613.435	23.62
613.627	23.55
613.819	24.15
614.011	24.46
614.203	24.45
614.395	24.21
614.588	24.09
614.78	24.16
614.972	24.09
615.164	23.9
615.356	23.79
615.548	23.99
615.74	23.82
615.932	23.85
616.124	24.12
616.315	23.79
616.507	23.78
616.699	23.87
616.891	24.08
617.083	24.26
617.275	24.22
617.467	24.16
617.659	24.31
617.85	24.29
618.042	24.34
618.234	24.47
618.426	24.41
618.618	24.27
618.809	24.09
619.001	24.12
619.193	24.2
619.384	23.97
619.576	23.82
619.768	23.57
619.959	23.48
620.151	23.38
620.343	23.42
620.534	23.32
620.726	23.31
620.917	23.34
621.109	23.34
621.301	23.41
621.492	23.45
621.684	23.46
621.875	23.67
622.067	23.84
622.258	24.16
622.45	24.32
622.641	24.59
622.832	24.65
623.024	24.69
623.215	24.66
623.407	24.65
623.598	24.73
623.789	24.73
623.981	24.6
624.172	24.55
624.363	24.64
624.555	24.58
624.746	24.47
624.937	24.35
625.129	24.22
625.32	24.22
625.511	24.28
625.702	24.42
625.893	24.56
626.085	24.54
626.276	24.69
626.467	24.74
626.658	24.76
626.849	24.74
627.04	24.68
627.231	24.63
627.422	24.78
627.614	24.64
627.805	24.62
627.996	24.64
628.187	24.43
628.378	24.48
628.569	24.45
628.76	24.34
628.951	24.22
629.142	24.38
629.332	24.25
629.523	24.34
629.714	24.56
629.905	24.37
630.096	24.32
630.287	24.29
630.478	24.16
630.669	24.42
630.859	24.29
631.05	24.41
631.241	24.44
631.432	24.56
631.623	24.45
631.813	24.37
632.004	24.33
632.195	24.23
632.385	24.31
632.576	24.46
632.767	24.54
632.957	24.57
633.148	24.34
633.339	24.37
633.529	24.27
633.72	24.27
633.91	24.26
634.101	24.25
634.292	24.32
634.482	24.5
634.673	24.51
634.863	24.72
635.054	24.6
635.244	24.59
635.435	24.68
635.625	24.84
635.815	24.93
636.006	25.03
636.196	25.2
636.387	25.43
636.577	25.48
636.767	25.62
636.958	25.52
637.148	25.61
637.338	25.38
637.529	25.51
637.719	25.55
637.909	25.58
638.099	25.62
638.29	25.52
638.48	25.62
638.67	25.49
638.86	25.32
639.05	25.24
639.241	25.2
639.431	25.19
639.621	25.28
639.811	25.45
640.001	25.51
640.191	25.51
640.381	25.59
640.571	25.45
640.761	25.4
640.951	25.24
641.141	25.12
641.331	25.23
641.521	25.45
641.711	25.44
641.901	25.55
642.091	25.38
642.281	25.3
642.471	25.53
642.661	25.65
642.851	25.47
643.041	25.68
643.231	25.67
643.42	25.89
643.61	25.96
643.8	25.82
643.99	25.52
644.18	25.45
644.369	25.47
644.559	25.56
644.749	25.39
644.939	25.26
645.128	25.21
645.318	25.52
645.508	25.39
645.697	25.58
645.887	25.55
646.076	25.79
646.266	26.08
646.456	26.44
646.645	26.65
646.835	26.48
647.024	26.56
647.214	26.91
647.403	26.89
647.593	27.03
647.782	26.83
647.972	27.08
648.161	27.03
648.351	27.09
648.54	26.91
648.73	26.57
648.919	26.42
649.108	26.35
649.298	26.43
649.487	26.44
649.677	26.35
649.866	26.27
650.055	26.25
650.244	26.26
650.434	26.14
650.623	26.18
650.812	25.95
651.002	26.09
651.191	26.2
651.38	26.12
651.569	26.12
651.758	26.15
651.947	26.18
652.137	26.13
652.326	26.17
652.515	25.98
652.704	26
652.893	25.93
653.082	26.04
653.271	26.25
653.46	26.24
653.649	26.32
653.838	26.45
654.027	26.43
654.216	26.67
654.405	26.63
654.594	26.82
654.783	26.83
654.972	27.04
655.161	26.99
655.35	27.05
655.539	26.92
655.728	26.88
655.916	26.8
656.105	27.03
656.294	27.02
656.483	27.1
656.672	26.86
656.86	26.94
657.049	26.91
657.238	26.95
657.427	26.94
657.615	27.05
657.804	26.99
657.993	27.01
658.181	27.03
658.37	26.97
658.559	26.77
658.747	26.78
658.936	26.56
659.125	26.66
659.313	26.56
659.502	26.42
659.69	26.53
659.879	26.43
660.067	26.28
660.256	26.26
660.444	26.19
660.633	26.02
660.821	25.87
661.01	25.79
661.198	25.7
661.387	25.97
661.575	26.2
661.763	26.27
661.952	26.37
662.14	26.14
662.328	26.31
662.517	26.33
662.705	26.29
662.893	26.68
663.082	26.75
663.27	27.13
663.458	27.21
663.646	27.31
663.834	27.21
664.023	26.9
664.211	26.78
664.399	26.73
664.587	26.78
664.775	26.59
664.963	26.78
665.152	27.06
665.34	26.51
665.528	26.69
665.716	26.78
665.904	26.88
666.092	26.86
666.28	26.91
666.468	26.83
666.656	27.12
666.844	27.29
667.032	27.28
667.22	27.51
667.408	27.46
667.596	27.17
667.784	27.55
667.971	27.62
668.159	27.55
668.347	27.57
668.535	27.5
668.723	27.47
668.911	27.48
669.098	27.28
669.286	27.14
669.474	27.07
669.662	27.07
669.849	27.09
670.037	27.21
670.225	27.03
670.413	26.82
670.6	27.01
670.788	26.84
670.976	26.91
671.163	26.98
671.351	27.05
671.538	27.18
671.726	27.24
671.913	27.49
672.101	27.2
672.289	27.1
672.476	27.25
672.664	27.39
672.851	27.5
673.039	27.16
673.226	27.51
673.413	27.41
673.601	27.29
673.788	27.25
673.976	26.92
674.163	26.69
674.35	26.54
674.538	26.65
674.725	26.55
674.912	26.26
675.1	26.13
675.287	25.99
675.474	26.11
675.662	25.94
675.849	26.19
676.036	26.22
676.223	26.09
676.411	26.35
676.598	26.7
676.785	26.74
676.972	26.97
677.159	27.27
677.346	27.38
677.533	27.53
677.721	27.7
677.908	27.77
678.095	27.74
678.282	27.46
678.469	27.43
678.656	27.69
678.843	27.79
679.03	27.7
679.217	27.7
679.404	27.41
679.591	27.29
679.778	27.24
679.964	27.08
680.151	27.04
680.338	26.95
680.525	26.85
680.712	27.2
680.899	27.33
681.086	27.09
681.272	26.99
681.459	27.08
681.646	26.97
681.833	27.17
682.02	27.1
682.206	27.11
682.393	26.96
682.58	26.97
682.766	27.06
682.953	26.97
683.14	27.31
683.326	27.44
683.513	27.69
683.7	27.49
683.886	27.37
684.073	27.5
684.259	27.54
684.446	27.62
684.632	27.67
684.819	27.89
685.005	28.01
685.192	27.97
685.378	28.31
685.565	27.77
685.751	27.62
685.938	27.66
686.124	27.72
686.31	27.8
686.497	27.77
686.683	27.45
686.87	27.47
687.056	27.78
687.242	27.71
687.429	27.44
687.615	27.57
687.801	27.61
687.987	27.71
688.174	27.98
688.36	27.86
688.546	28.03
688.732	27.84
688.918	27.81
689.105	28.01
689.291	28.29
689.477	28.21
689.663	28.45
689.849	28.83
690.035	28.79
690.221	28.55
690.407	28.41
690.593	28.16
690.779	28.19
690.965	28.13
691.151	28.47
691.337	28.6
691.523	28.89
691.709	28.82
691.895	28.77
692.081	28.71
692.267	28.58
692.453	28.43
692.639	28.77
692.825	28.69
693.011	28.7
693.196	28.66
693.382	28.49
693.568	28.6
693.754	28.39
693.94	28.09
694.125	27.89
694.311	27.65
694.497	27.8
694.682	27.91
694.868	28.11
695.054	27.94
695.239	28.15
695.425	28.36
695.611	28.34
695.796	28.52
695.982	28.31
696.168	28.39
696.353	28.71
696.539	28.88
696.724	28.87
696.91	28.81
697.095	28.54
697.281	28.34
697.466	28.19
697.652	28.26
697.837	28.11
698.023	28.25
698.208	28.21
698.393	28.15
698.579	28.01
698.764	27.76
698.949	27.62
699.135	27.72
699.32	27.71
699.505	27.64
699.691	27.56
699.876	27.69
700.061	27.33
700.246	27.53
700.432	27.19
700.617	27.2
700.802	27.38
700.987	27.86
701.172	27.92
701.358	27.99
701.543	27.82
701.728	27.29
701.913	27.55
702.098	28.01
702.283	27.94
702.468	28.29
702.653	28.36
702.838	28.72
703.023	28.61
703.208	28.5
703.393	28.5
703.578	28.63
703.763	28.28
703.948	28.67
704.133	28.96
704.318	29.09
704.503	28.65
704.688	28.95
704.873	28.96
705.057	28.58
705.242	28.49
705.427	28.43
705.612	28.39
705.797	28.05
705.981	28.19
706.166	28.34
706.351	28.03
706.536	28.06
706.72	27.77
706.905	27.94
707.09	27.6
707.274	27.67
707.459	27.99
707.644	27.93
707.828	27.93
708.013	27.81
708.197	28
708.382	27.82
708.567	27.89
708.751	27.69
708.936	27.73
709.12	27.75
709.305	27.47
709.489	27.67
709.673	27.87
709.858	27.81
710.042	27.67
710.227	28.06
710.411	28.53
710.596	28.37
710.78	28.41
710.964	28.54
711.149	28.67
711.333	28.87
711.517	29.47
711.702	29.75
711.886	29.82
712.07	29.4
712.254	28.94
712.438	29.13
712.623	28.89
712.807	28.71
712.991	28.62
713.175	28.61
713.359	28.54
713.544	28.71
713.728	28.72
713.912	28.4
714.096	28.22
714.28	27.84
714.464	27.82
714.648	28.16
714.832	28.07
715.016	28.15
715.2	28.02
715.384	28.21
715.568	28.02
715.752	28.15
715.936	28.17
716.12	28.42
716.304	28.38
716.488	28.33
716.671	28.98
716.855	29.37
717.039	29.34
717.223	29.52
717.407	29.48
717.59	29.72
717.774	29.61
717.958	29.83
718.142	29.83
718.325	29.88
718.509	29.35
718.693	29.69
718.877	29.8
719.06	29.35
719.244	28.81
719.428	28.65
719.611	28.95
719.795	29.07
719.978	29.01
720.162	29.1
720.345	29.31
720.529	29.05
720.713	29.05
720.896	29.02
721.08	28.97
721.263	29.02
721.446	28.82
721.63	29.06
721.813	29.15
721.997	28.62
722.18	28.48
722.364	28.15
722.547	28.17
722.73	27.77
722.914	27.82
723.097	27.8
723.28	27.78
723.464	27.31
723.647	27.68
723.83	27.58
724.013	27.61
724.197	27.55
724.38	27.56
724.563	27.95
724.746	28.29
724.929	28.76
725.112	28.93
725.296	29.04
725.479	28.98
725.662	29
725.845	28.75
726.028	28.18
726.211	28.61
726.394	28.75
726.577	28.96
726.76	29.06
726.943	29
727.126	28.75
727.309	28.44
727.492	28.2
727.675	28.19
727.858	28.42
728.041	28.5
728.224	28.86
728.407	29.21
728.589	29.16
728.772	29.22
728.955	28.97
729.138	29.33
729.321	29.67
729.503	29.89
729.686	29.77
729.869	29.94
730.052	29.82
730.234	29.76
730.417	29.98
730.6	29.77
730.782	29.85
730.965	30.24
731.148	29.9
731.33	30.15
731.513	29.61
731.695	28.93
731.878	28.81
732.061	29.16
732.243	29.52
732.426	29.71
732.608	29.37
732.791	29.38
732.973	29.91
733.156	30.07
733.338	29.73
733.52	29.85
733.703	29.95
733.885	30.64
734.068	30.41
734.25	30.43
734.432	30.12
734.615	29.77
734.797	29.39
734.979	29.58
735.162	29.53
735.344	29.2
735.526	29.09
735.708	29.18
735.891	28.9
736.073	28.49
736.255	27.95
736.437	28.3
736.619	28.01
736.802	27.9
736.984	28.36
737.166	28.73
737.348	28.95
737.53	28.88
737.712	28.94
737.894	28.9
738.076	28.1
738.258	28.35
738.44	28.75
738.622	28.84
738.804	28.61
738.986	28.63
739.168	28.61
739.35	28.3
739.532	28.67
739.714	28.47
739.896	28.63
740.078	28.31
740.259	28.27
740.441	28.98
740.623	28.89
740.805	28.83
740.987	28.74
741.168	29.27
741.35	29.95
741.532	29.85
741.714	29.9
741.895	29.87
742.077	30.08
742.259	29.92
742.44	29.9
742.622	29.67
742.804	29.19
742.985	29.24
743.167	29
743.348	29.13
743.53	28.65
743.711	28.88
743.893	29.1
744.075	28.65
744.256	28.58
744.438	28.47
744.619	28.58
744.8	28.95
744.982	29.05
745.163	29.5
745.345	29.66
745.526	29.73
745.707	29.73
745.889	29.93
746.07	29.17
746.252	29.47
746.433	29.28
746.614	28.62
746.795	28.58
746.977	28.84
747.158	28.86
747.339	28.72
747.52	28.76
747.702	28.92
747.883	29.43
748.064	29.45
748.245	29.9
748.426	30.62
748.607	30.88
748.788	31.25
748.97	31.35
749.151	30.83
749.332	30.41
749.513	30.1
749.694	30.2
749.875	29.74
750.056	29.26
750.237	29.14
750.418	28.79
750.599	28.3
750.78	27.94
750.96	27.68
751.141	27.65
751.322	28.62
751.503	29.1
751.684	28.88
751.865	29.11
752.046	28.79
752.226	28.88
752.407	29.36
752.588	29.4
752.769	29.4
752.949	30.06
753.13	29.71
753.311	29.51
753.492	29.94
753.672	28.64
753.853	29.1
754.034	29.35
754.214	29.03
754.395	29.43
754.575	29.53
754.756	29.67
754.937	29.14
755.117	29.96
755.298	29.61
755.478	28.74
755.659	28.8
755.839	28.38
756.02	28.71
756.2	28.29
756.381	28.66
756.561	29.12
756.741	29.22
756.922	29.51
757.102	29.71
757.283	30.26
757.463	30.12
757.643	30.38
757.823	31.36
758.004	31.88
758.184	32.64
758.364	32.5
758.545	32.4
758.725	32.04
758.905	32.36
759.085	32.19
759.265	31.88
759.446	31.47
759.626	31.22
759.806	30.79
759.986	30.09
760.166	29.86
760.346	29.23
760.526	29.2
760.706	29.44
760.886	29.63
761.066	29.78
761.246	29.35
761.426	28.94
761.606	29.46
761.786	29.3
761.966	29.38
762.146	29.34
762.326	29.75
762.506	29.89
762.686	30.19
762.866	29.8
763.046	29.89
763.225	29.7
763.405	29.47
763.585	29.26
763.765	29.57
763.945	29.18
764.124	29.63
764.304	29.98
764.484	30.1
764.664	30.12
764.843	30
765.023	29.44
765.203	29.33
765.382	29.37
765.562	29.9
765.741	30.44
765.921	30.85
766.101	31.12
766.28	31.31
766.46	31.12
766.639	30.75
766.819	31.29
766.998	31
767.178	31.41
767.357	31.76
767.537	31.81
767.716	31.62
767.896	31.39
768.075	30.64
768.254	30.91
768.434	31.7
768.613	32.06
768.792	32.09
768.972	32
769.151	31.09
769.33	31.99
769.51	31.95
769.689	32.13
769.868	32.9
770.047	32.97
770.226	32.98
770.406	33.54
770.585	33.13
770.764	32.03
770.943	31.7
771.122	32.11
771.301	32.16
771.48	32.65
771.66	32.36
771.839	32.08
772.018	32.22
772.197	31.4
772.376	31.16
772.555	30.88
772.734	30.58
772.913	30.62
773.092	30.59
773.271	30.54
773.449	30.36
773.628	30.37
773.807	30.34
773.986	30.04
774.165	30.17
774.344	29.63
774.523	29.99
774.701	30.14
774.88	30.44
775.059	30.29
775.238	30.29
775.417	30.56
775.595	30.04
775.774	30.08
775.953	29.67
776.131	29.09
776.31	28.65
776.489	28.55
776.667	28.66
776.846	28.24
777.025	27.89
777.203	27.62
777.382	27.81
777.56	27.58
777.739	27.39
777.917	28.41
778.096	28.09
778.274	29.55
778.453	30.63
778.631	29.85
778.81	30.83
778.988	31.09
779.166	31.56
779.345	32.18
779.523	32.16
779.702	32.34
779.88	32.13
780.058	31.92
780.237	32.81
780.415	33.24
780.593	32.38
780.771	32.55
780.95	33.7
781.128	32.28
781.306	32.87
781.484	32.6
781.662	33.05
781.841	32.81
782.019	32.54
782.197	32.56
782.375	32.71
782.553	30.85
782.731	30.06
782.909	30.27
783.087	30.34
783.265	30.45
783.443	30.78
783.621	31.03
783.799	30.58
783.977	29.21
784.155	29.7
784.333	29.51
784.511	28.93
784.689	29.55
784.867	30.02
785.045	30.01
785.223	29.22
785.4	28.94
785.578	29.01
785.756	28.71
785.934	27.81
786.112	28.17
786.289	28.56
786.467	28.25
786.645	28.44
786.823	30.27
787	29.26
787.178	29.29
787.356	29.76
787.533	29.71
787.711	28.83
787.889	28.37
788.066	28.27
788.244	28.57
788.421	28.08
788.599	28.6
788.776	28.3
788.954	28.73
789.131	28.21
789.309	30
789.486	30.18
789.664	30.8
789.841	30.79
790.019	31.42
790.196	31.66
790.373	33.28
790.551	33.57
790.728	34.86
790.906	34.94
791.083	35.87
791.26	36.15
791.437	35.2
791.615	33.21
791.792	33.33
791.969	32.09
792.146	33.77
792.324	34.17
792.501	34.42
792.678	32.93
792.855	32.72
793.032	31.7
793.209	31.73
793.387	30.88
793.564	30.76
793.741	30.83
793.918	31.25
794.095	30.66
794.272	31.02
794.449	30.87
794.626	30.88
794.803	31.83
794.98	32.19
795.157	32.47
795.334	33.24
795.511	33.38
795.688	33.19
795.864	33.17
796.041	34.05
796.218	33.97
796.395	35
796.572	34.88
796.749	32.86
796.925	33.14
797.102	32.38
797.279	32.62
797.456	32
797.632	31.95
797.809	32.13
797.986	32.34
798.162	31.55
798.339	31.28
798.516	31.77
798.692	31.64
798.869	32.52
799.046	33.34
799.222	32.21
799.399	32.81
799.575	32.37
799.752	33.52
799.928	33.86
800.105	33.98
800.281	34.58
800.458	34.85
800.634	34.23
800.811	34.56
800.987	33.93
801.163	33.54
801.34	33.53
801.516	34.55
801.692	33.51
801.869	34.24
802.045	32.62
802.221	31.95
802.398	31.95
802.574	32.65
802.75	32.81
802.926	34.07
803.103	34.12
803.279	34.25
803.455	34.27
803.631	34.62
803.807	33.8
803.983	33.37
804.16	32.1
804.336	32.42
804.512	33.72
804.688	33.2
804.864	32.28
805.04	33.24
805.216	33.07
805.392	32.73
805.568	33.14
805.744	32.86
805.92	32.58
806.096	33.51
806.272	34.49
806.448	35.78
806.623	35.8
806.799	34.96
806.975	35.39
807.151	35.55
807.327	34.5
807.503	34.41
807.678	35.21
807.854	35.01
808.03	35.21
808.206	34.53
808.381	34.49
808.557	33.48
808.733	32.16
808.908	32.96
809.084	32.4
809.26	31.56
809.435	32.1
809.611	31.35
809.787	32.29
809.962	31.58
810.138	32.21
810.313	31.56
810.489	33.11
810.664	31.14
810.84	31.45
811.015	32.68
811.191	33.93
811.366	34.4
811.542	34.94
811.717	36.13
811.892	37.13
812.068	35.92
812.243	36.1
812.419	35.73
812.594	35.89
812.769	35.92
812.944	35.97
813.12	36.78
813.295	35.71
813.47	34.96
813.645	34.82
813.821	34.75
813.996	33.38
814.171	34.59
814.346	35.36
814.521	35.36
814.697	34.07
814.872	33.97
815.047	33.76
815.222	34.1
815.397	34.33
815.572	34.81
815.747	34.24
815.922	35.24
816.097	34.61
816.272	34.34
816.447	33.71
816.622	32.01
816.797	31.82
816.972	32.95
817.147	33.7
817.322	32.66
817.496	34.39
817.671	34.38
817.846	34.56
818.021	33.43
818.196	33
818.371	34.22
818.545	34.55
818.72	33.86
818.895	34.08
819.069	34.18
819.244	33.56
819.419	32.43
819.594	32.95
819.768	32.21
819.943	31.2
820.117	31.51
820.292	31.68
820.467	31.37
820.641	30.99
820.816	30.58
820.99	30.93
821.165	31.18
821.339	30.85
821.514	30.78
821.688	30.64
821.863	30.37
822.037	30.12
822.212	30.15
822.386	29.76
822.56	29.82
822.735	29.74
822.909	29.5
823.084	29.52
823.258	29.24
823.432	28.91
823.606	29.11
823.781	28.96
823.955	29.03
824.129	29.44
824.303	29.72
824.478	29.75
824.652	30.07
824.826	29.72
825	29.86
825.174	29.87
825.348	29.66
825.523	29.57
825.697	30.04
825.871	29.69
826.045	30.31
826.219	30.65
826.393	30.21
826.567	30.39
826.741	29.95
826.915	29.92
827.089	29.96
827.263	30.27
827.437	30.39
827.611	30.77
827.784	31.02
827.958	30.57
828.132	30.84
828.306	30.04
828.48	29.35
828.654	29.6
828.827	29.28
829.001	30.22
829.175	30.62
829.349	30.99
829.522	29.83
829.696	30.36
829.87	30.82
830.044	30.78
830.217	31.04
830.391	30.21
830.565	30.82
830.738	32.33
830.912	31.6
831.085	32.12
831.259	32.18
831.432	31.56
831.606	31.27
831.779	32.06
831.953	32
832.126	30.62
832.3	30.85
832.473	31.3
832.647	32.63
832.82	33.07
832.994	32.41
833.167	32.56
833.34	32.22
833.514	31.66
833.687	31.78
833.86	32.26
834.034	31.6
834.207	31.38
834.38	31.96
834.553	31.77
834.727	31.42
834.9	30.51
835.073	30.28
835.246	30.83
835.419	31.16
835.593	30.6
835.766	32.4
835.939	32.22
836.112	32.07
836.285	33.16
836.458	33.22
836.631	33.98
836.804	34.34
836.977	35.01
837.15	34.82
837.323	34.95
837.496	33.85
837.669	33.03
837.842	34.05
838.015	32.25
838.188	31.09
838.361	30.73
838.533	30.42
838.706	31.99
838.879	32.05
839.052	34.69
839.225	34.49
839.398	35.72
839.57	36.57
839.743	37.45
839.916	36.89
840.088	35.64
840.261	35.07
840.434	36.24
840.607	37.4
840.779	37.19
840.952	35.94
841.124	35
841.297	31.48
841.47	32.07
841.642	32.99
841.815	32.74
841.987	31.77
842.16	35.05
842.332	36.63
842.505	36.85
842.677	36.99
842.85	35.54
843.022	37.53
843.194	39.38
843.367	40.38
843.539	43.17
843.712	42.88
843.884	40.69
844.056	39.86
844.229	42.44
844.401	39.38
844.573	40.17
844.745	39.8
844.918	40.6
845.09	40.73
845.262	38.54
845.434	36.35
845.606	35.93
845.779	30.8
845.951	33.58
846.123	36.18
846.295	38.01
846.467	39.29
846.639	39.22
846.811	36.54
846.983	37.05
847.155	35.49
847.327	38.32
847.499	37.41
847.671	36.26
847.843	36.67
848.015	39.92
848.187	37.75
848.359	38.17
848.531	36.52
848.703	33.46
848.875	30.95
849.047	33.05
849.218	32.15
849.39	33.53
849.562	29.89
849.734	37.23
849.905	40.38
850.077	39.2
850.249	38.9
850.421	38.1
850.592	36.28
850.764	35.37
850.936	36.26
851.107	39.8
851.279	41.49
851.451	38.92
851.622	37.52
851.794	42.93
851.965	37.88
852.137	39.05
852.308	40.44
852.48	42.54
852.651	41.59
852.823	38.97
852.994	39.11
853.166	40.13
853.337	41.51
853.509	41.05
853.68	44.8
853.851	46.61
854.023	42.8
854.194	41.73
854.365	38.57
854.537	42.78
854.708	44.67
854.879	47.25
855.05	51.68
855.222	51
855.393	47.96
855.564	50.51
855.735	49.15
855.906	49.98
856.078	50.9
856.249	53.34
856.42	62.05
856.591	64.54
856.762	57.19
856.933	52.91
857.104	53.27
857.275	51.11
857.446	50.99
857.617	52.31
857.788	46.44
857.959	48.33
858.13	53.31
858.301	52.47
858.472	51.03
858.643	44.85
858.814	45.19
858.985	44.98
859.155	50.27
859.326	47.47
859.497	43.75
859.668	44.47
859.839	44.45
860.009	47.04
860.18	47.45
860.351	41.4
860.522	42
860.692	43.19
860.863	43.76
861.034	41.43
861.204	41.16
861.375	38.32
861.546	38.61
861.716	45.44
861.887	46.16
862.057	45.59
862.228	44.75
862.398	39.36
862.569	41.63
862.739	42.61
862.91	38.66
863.08	39.58
863.251	39.01
863.421	40.71
863.592	38.83
863.762	40.15
863.932	37
864.103	37.92
864.273	39.74
864.443	38.81
864.614	40.79
864.784	37.3
864.954	37.95
865.125	43.21
865.295	40.69
865.465	43.85
865.635	43.71
865.805	47.73
865.976	49.93
866.146	50.8
866.316	53.29
866.486	50.8
866.656	53.02
866.826	54.49
866.996	59.29
867.166	59.65
867.336	55.14
867.506	53.78
867.676	48.16
867.846	46.57
868.016	42.12
868.186	40.96
868.356	42.21
868.526	39.75
868.696	42.88
868.866	43.01
869.036	42.12
869.206	42.23
869.376	41.55
869.545	45.4
869.715	47.36
869.885	50.81
870.055	53.88
870.224	57.54
870.394	59.92
870.564	59.36
870.734	57.9
870.903	56.8
871.073	61.31
871.243	65.77
871.412	64.88
871.582	68.57
871.751	63.86
871.921	62.46
872.091	59.31
872.26	55.43
872.43	52.95
872.599	52.84
872.769	54.4
872.938	58.99
873.108	56.36
873.277	54.34
873.446	50.46
873.616	49.62
873.785	44.81
873.955	48.09
874.124	51.68
874.293	55.9
874.463	57.72
874.632	60.66
874.801	58.73
874.971	56.7
875.14	49.42
875.309	47.72
875.478	46.38
875.647	45.03
875.817	45.04
875.986	49.5
876.155	43.3
876.324	42.68
876.493	41.58
876.662	41.16
876.831	35.77
877	35.24
877.17	34.29
877.339	37.05
877.508	44.55
877.677	47.41
877.846	49.61
878.015	45.16
878.184	41.01
878.352	42.77
878.521	42.62
878.69	42.96
878.859	42.73
879.028	41.17
879.197	38.36
879.366	39.25
879.534	37.15
879.703	34.67
879.872	33.81
880.041	33.73
880.21	33.92
880.378	32.95
880.547	33.22
880.716	32.03
880.884	31.6
881.053	31.2
881.222	31.96
881.39	31.96
881.559	31.34
881.727	31.55
881.896	31.56
882.065	31.32
882.233	30.94
882.402	31.33
882.57	31.16
882.739	31.59
882.907	31.57
883.076	30.81
883.244	31.9
883.412	32.13
883.581	32.05
883.749	32.57
883.918	32.27
884.086	33.04
884.254	33.46
884.423	34.13
884.591	33.65
884.759	34.55
884.927	33.92
885.096	34.46
885.264	35.92
885.432	34.88
885.6	34.03
885.769	35.17
885.937	34.2
886.105	36.43
886.273	35.7
886.441	35.82
886.609	33.48
886.777	34.85
886.945	36.01
887.113	36.2
887.281	36.09
887.449	35.26
887.617	34.23
887.785	37.34
887.953	36.56
888.121	35.63
888.289	35.99
888.457	32.6
888.625	30.27
888.793	33
888.961	33.86
889.129	34.48
889.296	35.64
889.464	35.68
889.632	37.02
889.8	38.62
889.967	35.77
890.135	36.92
