Data from 2938521_Reflection_1.txt Node
Date: Tue Jun 16 22:17:26 EDT 2015
User: robert
Spectrometer: USB4E03002
Autoset integration time: false
Trigger mode: 4
Integration Time (sec): 1.000000E-1
Scans to average: 10
Electric dark correction enabled: true
Nonlinearity correction enabled: false
Boxcar width: 5
Stray light correction enabled: false
XAxis mode: Wavelengths
Stop averaging: false
Number of Pixels in Spectrum: 3648
>>>>>Begin Spectral Data<<<<<
177.575	-291.05
177.794	-237.93
178.014	-135.05
178.233	-110.61
178.452	-94.42
178.672	-46.23
178.891	105.41
179.11	2483.47
179.33	5760.45
179.549	1172.73
179.768	471.34
179.987	703.55
180.207	635.33
180.426	240.82
180.645	159.27
180.864	152.33
181.084	143.44
181.303	99.45
181.522	71.7
181.741	74.01
181.96	78.39
182.179	88.43
182.398	87.02
182.618	89.87
182.837	91.57
183.056	83.8
183.275	83.89
183.494	76.08
183.713	86.11
183.932	93.82
184.151	75.22
184.37	71.66
184.589	85.29
184.808	70.94
185.027	53.7
185.246	80.95
185.465	90.72
185.684	89.2
185.903	67.89
186.122	47.52
186.341	38.81
186.56	68.7
186.779	28.61
186.998	17.78
187.216	112.8
187.435	173.29
187.654	197.37
187.873	310.38
188.092	469.14
188.311	-509.26
188.53	-260.82
188.748	-426.26
188.967	-5651.04
189.186	429.31
189.405	183.16
189.623	146
189.842	167.1
190.061	116.82
190.28	112.55
190.498	82.74
190.717	88.01
190.936	93.45
191.154	87.03
191.373	107.76
191.592	121.51
191.81	126.73
192.029	135.68
192.248	126.27
192.466	156.68
192.685	127.68
192.904	144.2
193.122	132.18
193.341	148.49
193.559	137.72
193.778	127.26
193.996	125.86
194.215	159.46
194.433	143.74
194.652	156.13
194.87	131.47
195.089	142.82
195.307	143.65
195.526	158.99
195.744	135.22
195.963	143.81
196.181	130.41
196.399	129.97
196.618	122.83
196.836	118.92
197.055	103.63
197.273	108.66
197.491	97.71
197.71	108.72
197.928	92.01
198.146	111.7
198.365	101.41
198.583	107.39
198.801	110.24
199.019	102.66
199.238	127.31
199.456	127.48
199.674	142.09
199.892	141.38
200.111	117.51
200.329	124.3
200.547	87.79
200.765	94.79
200.983	93.74
201.202	93.78
201.42	103.26
201.638	90.05
201.856	86.12
202.074	81.64
202.292	75.27
202.51	83.29
202.728	76.65
202.946	90.32
203.165	90.24
203.383	108.88
203.601	114.22
203.819	109.87
204.037	75.16
204.255	71.41
204.473	58.69
204.691	66.82
204.909	67.83
205.127	74.32
205.345	76.78
205.562	81.95
205.78	74.59
205.998	65.45
206.216	59.4
206.434	75.9
206.652	84.85
206.87	100.75
207.088	114.16
207.306	119.29
207.523	118.27
207.741	122.34
207.959	125.28
208.177	117.44
208.395	119.71
208.612	120.16
208.83	118.42
209.048	117.85
209.266	98.99
209.483	80.17
209.701	71.55
209.919	76.18
210.136	81.63
210.354	82.21
210.572	91.68
210.79	102.16
211.007	103.7
211.225	97.45
211.442	87.38
211.66	93.01
211.878	110.53
212.095	182.74
212.313	189.17
212.53	199.4
212.748	173.45
212.966	151.6
213.183	141.36
213.401	161.14
213.618	157.18
213.836	169.62
214.053	151.91
214.271	156.46
214.488	62.61
214.705	69.39
214.923	65.44
215.14	66.53
215.358	68.81
215.575	62.8
215.793	68.3
216.01	67.92
216.227	69.74
216.445	68.9
216.662	71.35
216.879	73.87
217.097	62.99
217.314	60.62
217.531	67.09
217.749	73.59
217.966	76.34
218.183	60.34
218.4	50.31
218.618	68.89
218.835	76.92
219.052	65.87
219.269	69.24
219.487	76.87
219.704	75.17
219.921	62.53
220.138	60.39
220.355	59.57
220.572	68.58
220.79	75.8
221.007	64.05
221.224	62.51
221.441	60.43
221.658	62.14
221.875	57.65
222.092	47.99
222.309	51.44
222.526	48.99
222.743	47.28
222.96	42.1
223.177	38.94
223.394	36.78
223.611	38.49
223.828	45.76
224.045	43.44
224.262	46.16
224.479	46.4
224.696	43.35
224.913	41.79
225.13	38.82
225.347	34.57
225.564	30.36
225.781	26.76
225.997	23.87
226.214	20.99
226.431	18.87
226.648	15.49
226.865	16.59
227.082	16.4
227.298	14.92
227.515	15.73
227.732	16.79
227.949	17.02
228.165	17.46
228.382	17.57
228.599	17.39
228.816	17.77
229.032	18.18
229.249	17.07
229.466	16.97
229.682	17.71
229.899	17.42
230.116	16.67
230.332	18.15
230.549	17.89
230.765	16.26
230.982	17.7
231.199	18.03
231.415	20.28
231.632	19.87
231.848	19.71
232.065	18.37
232.281	18.96
232.498	18.24
232.714	16.82
232.931	18.41
233.147	20.53
233.364	18.29
233.58	19.12
233.797	18.4
234.013	18.93
234.23	19.93
234.446	20.67
234.662	19.38
234.879	18.45
235.095	18.16
235.312	16.99
235.528	17.23
235.744	16.67
235.961	14.15
236.177	12.8
236.393	15.51
236.61	14.39
236.826	15.95
237.042	16.29
237.258	17.3
237.475	17.5
237.691	17.02
237.907	16.85
238.123	18.55
238.339	20.42
238.556	20.26
238.772	19.88
238.988	20.1
239.204	19.48
239.42	18.09
239.636	17.45
239.853	16.37
240.069	16.65
240.285	16.3
240.501	15
240.717	13.82
240.933	13.19
241.149	12.12
241.365	12.12
241.581	11.87
241.797	12.08
242.013	12.12
242.229	12.81
242.445	12.84
242.661	12.03
242.877	12.32
243.093	11.98
243.309	12.36
243.525	12.19
243.741	11.43
243.957	10.95
244.173	10.89
244.388	11.26
244.604	10.69
244.82	10.08
245.036	9.97
245.252	10.02
245.468	10.48
245.683	10.28
245.899	10.24
246.115	10.32
246.331	9.93
246.547	9.69
246.762	9.91
246.978	10.39
247.194	10.74
247.409	11.03
247.625	11.35
247.841	11.19
248.057	11.52
248.272	11.82
248.488	12.03
248.703	12.42
248.919	12.59
249.135	11.37
249.35	10.26
249.566	9.72
249.782	9.66
249.997	10
250.213	9.96
250.428	9.68
250.644	9.15
250.859	9.56
251.075	10.31
251.29	10.77
251.506	11.29
251.721	11.41
251.937	11.5
252.152	11.08
252.368	10.25
252.583	11.26
252.798	12.26
253.014	13.49
253.229	12.64
253.445	13.18
253.66	13.04
253.875	13.21
254.091	13.86
254.306	13.19
254.521	13.63
254.737	12.99
254.952	11.23
255.167	9.85
255.383	9.76
255.598	9.58
255.813	9.19
256.028	9.71
256.244	9.63
256.459	9.31
256.674	9.48
256.889	8.94
257.104	9.14
257.32	9.24
257.535	9.12
257.75	8.67
257.965	8.57
258.18	8.53
258.395	8.45
258.61	8.07
258.826	8.25
259.041	8.15
259.256	8.44
259.471	8.56
259.686	8.59
259.901	8.85
260.116	8.91
260.331	8.57
260.546	8.41
260.761	8.03
260.976	8.17
261.191	7.92
261.406	8.41
261.621	7.98
261.836	7.48
262.05	7.29
262.265	7.22
262.48	8.06
262.695	9.6
262.91	9.83
263.125	10.16
263.34	10
263.555	9.63
263.769	9.82
263.984	9.83
264.199	9.84
264.414	9.17
264.629	9.67
264.843	9.35
265.058	8.33
265.273	7.81
265.488	7.9
265.702	8.19
265.917	8.66
266.132	8.55
266.346	8.92
266.561	9.09
266.776	9.22
266.99	8.59
267.205	8.41
267.42	8.63
267.634	8.79
267.849	8.93
268.063	8.68
268.278	8.2
268.492	7.91
268.707	7.82
268.922	7.47
269.136	7.67
269.351	7.42
269.565	6.89
269.78	6.91
269.994	6.82
270.209	6.52
270.423	6.72
270.637	7.09
270.852	6.8
271.066	6.76
271.281	6.93
271.495	6.71
271.709	7.33
271.924	7.64
272.138	7.81
272.353	8.31
272.567	8.43
272.781	8.48
272.996	8.6
273.21	8.95
273.424	8.75
273.638	9.02
273.853	9.63
274.067	8.91
274.281	8.97
274.495	9.5
274.71	8.84
274.924	8.29
275.138	7.57
275.352	7.13
275.566	7.21
275.781	7.44
275.995	7.03
276.209	6.96
276.423	7.13
276.637	7.22
276.851	6.36
277.065	6.47
277.279	6.88
277.493	7.83
277.707	7.87
277.921	7.17
278.135	7.48
278.349	8.17
278.563	7.9
278.777	8.37
278.991	8.23
279.205	7.87
279.419	8.1
279.633	8.54
279.847	8.53
280.061	8.36
280.275	8.9
280.489	8.47
280.703	7.79
280.917	7.95
281.131	7.46
281.344	7.8
281.558	8.17
281.772	8.35
281.986	7.87
282.2	7.8
282.414	7.92
282.627	7.96
282.841	8.23
283.055	8.69
283.269	8.6
283.482	8.22
283.696	7.7
283.91	7.69
284.123	7.21
284.337	7.44
284.551	7.35
284.764	7.37
284.978	7.4
285.192	7.06
285.405	6.85
285.619	6.77
285.833	7.42
286.046	7.48
286.26	7.29
286.473	7.68
286.687	7.7
286.9	7.6
287.114	7.34
287.327	7.28
287.541	7.48
287.754	7.71
287.968	7.94
288.181	7.6
288.395	7.87
288.608	8.46
288.822	8.44
289.035	8.24
289.248	8.21
289.462	8.69
289.675	8.43
289.889	8.57
290.102	8.32
290.315	8.28
290.529	8.13
290.742	7.68
290.955	7.34
291.169	7.63
291.382	7.99
291.595	8.12
291.808	8.03
292.022	8.8
292.235	8.49
292.448	8.82
292.661	8.55
292.875	8.91
293.088	9.44
293.301	9.09
293.514	8.55
293.727	8.3
293.94	8.47
294.153	8.1
294.367	7.75
294.58	7.64
294.793	7.43
295.006	7.53
295.219	7.6
295.432	7.49
295.645	7.56
295.858	7.67
296.071	7.64
296.284	7.6
296.497	7.7
296.71	7.65
296.923	8.03
297.136	7.93
297.349	7.77
297.562	7.75
297.775	7.83
297.988	8.12
298.201	8.5
298.414	8.72
298.626	8.68
298.839	8.73
299.052	8.42
299.265	8.65
299.478	9
299.691	9.41
299.903	9.49
300.116	9.42
300.329	9.73
300.542	9.63
300.755	9.25
300.967	9.26
301.18	9.34
301.393	9.75
301.605	9.12
301.818	9.13
302.031	9.27
302.243	9.41
302.456	9.58
302.669	9.26
302.881	9.47
303.094	10.01
303.307	10.25
303.519	10.52
303.732	10.48
303.944	10.62
304.157	10.85
304.37	10.81
304.582	10.65
304.795	10.39
305.007	10.29
305.22	9.85
305.432	9.78
305.645	9.48
305.857	9.29
306.069	9.44
306.282	9.82
306.494	9.43
306.707	9.59
306.919	9.7
307.132	10
307.344	10.17
307.556	10.37
307.769	10.6
307.981	10.43
308.193	10.34
308.406	9.83
308.618	9.85
308.83	10
309.043	9.58
309.255	9.16
309.467	9.2
309.679	9.04
309.892	8.77
310.104	8.49
310.316	8.77
310.528	8.74
310.74	9.32
310.953	9.25
311.165	9.26
311.377	9.44
311.589	9.86
311.801	9.48
312.013	9.6
312.225	10.01
312.437	9.72
312.649	9.98
312.862	10.22
313.074	10.01
313.286	9.93
313.498	9.74
313.71	9.71
313.922	9.77
314.134	9.78
314.346	9.78
314.558	9.31
314.77	9.87
314.982	9.47
315.193	9.35
315.405	9.24
315.617	8.95
315.829	9.03
316.041	9.21
316.253	9.13
316.465	9.81
316.677	9.33
316.888	9.67
317.1	10.06
317.312	10.17
317.524	10.53
317.736	10.79
317.947	11.71
318.159	11.51
318.371	11.43
318.583	11.67
318.794	11.39
319.006	12.19
319.218	11.85
319.43	11.01
319.641	11.06
319.853	10.84
320.064	10.59
320.276	10.42
320.488	10.86
320.699	11.22
320.911	10.78
321.123	10.15
321.334	9.9
321.546	10.23
321.757	10.71
321.969	10.96
322.18	10.77
322.392	10.98
322.603	10.77
322.815	10.7
323.026	10.66
323.238	10.88
323.449	11.31
323.661	11.2
323.872	11.34
324.083	10.97
324.295	10.48
324.506	10.34
324.718	10.44
324.929	10.13
325.14	10.11
325.352	10.11
325.563	10.18
325.774	10.31
325.986	10.3
326.197	10.22
326.408	10.24
326.62	10.29
326.831	10.61
327.042	10.31
327.253	10.55
327.464	10.46
327.676	9.83
327.887	9.8
328.098	9.51
328.309	9.9
328.52	10.23
328.732	10.28
328.943	10.59
329.154	10.42
329.365	10.55
329.576	10.26
329.787	10.34
329.998	10.96
330.209	11.16
330.42	11.56
330.631	11.22
330.842	10.66
331.053	10.7
331.264	10.51
331.475	10.4
331.686	10.63
331.897	10.79
332.108	10.45
332.319	10.47
332.53	9.89
332.741	9.79
332.952	10.05
333.163	10.33
333.374	10.53
333.585	10.39
333.795	10.34
334.006	10.23
334.217	9.88
334.428	10.37
334.639	10.57
334.849	10.9
335.06	10.55
335.271	10.48
335.482	10.24
335.692	10.04
335.903	9.99
336.114	10.1
336.325	9.98
336.535	10.67
336.746	10.62
336.957	10.66
337.167	10.83
337.378	10.99
337.589	10.79
337.799	10.44
338.01	10.55
338.22	10.46
338.431	10.83
338.642	10.77
338.852	10.16
339.063	9.84
339.273	9.51
339.484	9.3
339.694	9.25
339.905	8.95
340.115	9.3
340.326	9.23
340.536	9.5
340.746	8.48
340.957	8.16
341.167	8.48
341.378	8.25
341.588	7.76
341.799	7.77
342.009	7.93
342.219	8.4
342.43	8.5
342.64	8.68
342.85	8.54
343.061	9.27
343.271	9.63
343.481	9.04
343.691	9
343.902	9.16
344.112	9.33
344.322	9.03
344.532	8.97
344.743	8.65
344.953	8.38
345.163	8.23
345.373	8.2
345.583	8.25
345.793	8.41
346.004	8.99
346.214	8.97
346.424	8.73
346.634	8.98
346.844	9.22
347.054	9.49
347.264	9.77
347.474	9.97
347.684	9.86
347.894	9.63
348.104	9.83
348.314	9.56
348.524	9.64
348.734	9.26
348.944	9.21
349.154	8.58
349.364	8.17
349.574	7.98
349.784	7.63
349.994	7.6
350.204	7.21
350.413	7.27
350.623	7.32
350.833	7.29
351.043	7.57
351.253	7.36
351.463	7.21
351.672	7.74
351.882	7.76
352.092	8.09
352.302	8
352.511	8.61
352.721	8.7
352.931	8.65
353.141	8.51
353.35	8.89
353.56	8.85
353.77	8.95
353.979	8.96
354.189	8.77
354.399	8.7
354.608	8.91
354.818	8.74
355.027	8.61
355.237	8.32
355.447	8.24
355.656	7.92
355.866	7.93
356.075	7.87
356.285	7.58
356.494	7.65
356.704	7.66
356.913	7.64
357.123	7.63
357.332	7.34
357.542	7.51
357.751	7.76
357.96	7.52
358.17	7.77
358.379	8.07
358.589	8.23
358.798	7.85
359.007	7.44
359.217	7.3
359.426	7.19
359.635	7.49
359.845	7.57
360.054	7.49
360.263	7.53
360.472	7.44
360.682	7.24
360.891	7.19
361.1	7.26
361.309	7.65
361.519	7.61
361.728	7.8
361.937	7.77
362.146	7.65
362.355	7.54
362.564	7.56
362.774	7.32
362.983	7.24
363.192	7.24
363.401	7.22
363.61	7.05
363.819	7.03
364.028	6.94
364.237	6.53
364.446	6.61
364.655	6.65
364.864	6.81
365.073	6.95
365.282	6.96
365.491	6.82
365.7	7.03
365.909	6.99
366.118	6.87
366.327	6.65
366.536	6.74
366.745	6.68
366.954	6.74
367.162	6.78
367.371	6.74
367.58	7.03
367.789	6.98
367.998	7.11
368.207	7.13
368.415	7.15
368.624	7.07
368.833	7.16
369.042	6.91
369.25	6.79
369.459	6.53
369.668	6.6
369.877	6.36
370.085	6.57
370.294	6.46
370.503	6.35
370.711	6.6
370.92	6.49
371.129	6.57
371.337	6.56
371.546	6.39
371.754	6.56
371.963	6.25
372.171	6.17
372.38	6.12
372.589	6.29
372.797	6.43
373.006	6.08
373.214	6.36
373.423	6.5
373.631	6.7
373.84	7.03
374.048	6.88
374.256	7.14
374.465	7.49
374.673	7.42
374.882	7.12
375.09	6.96
375.298	7.09
375.507	6.98
375.715	6.86
375.923	7.04
376.132	6.69
376.34	6.86
376.548	6.72
376.757	6.55
376.965	6.4
377.173	6.33
377.381	6.51
377.59	6.6
377.798	6.62
378.006	6.79
378.214	6.57
378.423	6.72
378.631	6.28
378.839	6.55
379.047	6.45
379.255	6.34
379.463	6.32
379.671	6.27
379.879	6.33
380.088	6.48
380.296	6.17
380.504	6.36
380.712	6.51
380.92	6.7
381.128	6.67
381.336	6.53
381.544	6.52
381.752	6.6
381.96	6.56
382.168	6.37
382.376	6.44
382.584	6.66
382.791	6.26
382.999	6.15
383.207	6.26
383.415	6.21
383.623	6.28
383.831	6.38
384.039	6.33
384.247	6.16
384.454	6.16
384.662	5.85
384.87	5.76
385.078	6.01
385.285	6.01
385.493	6.03
385.701	5.94
385.909	5.8
386.116	5.82
386.324	5.78
386.532	6.01
386.739	5.98
386.947	6.03
387.155	5.9
387.362	5.8
387.57	5.75
387.778	5.62
387.985	5.54
388.193	5.69
388.4	5.45
388.608	5.65
388.816	5.44
389.023	5.33
389.231	5.12
389.438	5.1
389.646	5.07
389.853	5.16
390.061	5.1
390.268	5.29
390.475	5.38
390.683	5.44
390.89	5.12
391.098	5.16
391.305	5.36
391.512	5.58
391.72	5.39
391.927	5.28
392.135	5.09
392.342	5.05
392.549	4.96
392.756	4.59
392.964	4.45
393.171	4.69
393.378	4.81
393.586	4.63
393.793	4.47
394	4.71
394.207	4.92
394.414	4.98
394.622	5
394.829	4.98
395.036	5.24
395.243	5.51
395.45	5.42
395.657	5.29
395.864	5.25
396.072	5.52
396.279	5.58
396.486	5.51
396.693	5.48
396.9	5.46
397.107	5.25
397.314	5.29
397.521	5.33
397.728	5.33
397.935	5.58
398.142	5.73
398.349	5.6
398.556	5.48
398.763	5.63
398.97	5.67
399.177	5.59
399.383	5.62
399.59	5.41
399.797	5.33
400.004	5.31
400.211	5.16
400.418	5.04
400.625	4.97
400.831	4.97
401.038	4.7
401.245	4.78
401.452	4.92
401.658	4.97
401.865	5.04
402.072	5.03
402.279	5.08
402.485	4.92
402.692	5.02
402.899	5.04
403.105	4.91
403.312	4.85
403.519	4.72
403.725	4.67
403.932	4.57
404.138	4.62
404.345	4.5
404.552	4.47
404.758	4.53
404.965	4.37
405.171	4.19
405.378	4.29
405.584	4.48
405.791	4.58
405.997	4.68
406.204	4.74
406.41	4.89
406.617	4.92
406.823	4.77
407.029	4.72
407.236	4.83
407.442	5.01
407.649	5.03
407.855	4.84
408.061	4.79
408.268	4.62
408.474	4.49
408.68	4.32
408.887	4.41
409.093	4.47
409.299	4.5
409.505	4.45
409.712	4.44
409.918	4.48
410.124	4.48
410.33	4.53
410.537	4.55
410.743	4.69
410.949	4.77
411.155	4.81
411.361	4.71
411.567	4.64
411.773	4.52
411.98	4.56
412.186	4.5
412.392	4.6
412.598	4.48
412.804	4.41
413.01	4.34
413.216	4.26
413.422	4.26
413.628	4.33
413.834	4.22
414.04	4.3
414.246	4.2
414.452	4.12
414.658	4.09
414.864	4.1
415.07	4.23
415.275	4.31
415.481	4.16
415.687	4.14
415.893	4.24
416.099	4.33
416.305	4.25
416.511	4.16
416.716	4.08
416.922	4.04
417.128	4.05
417.334	4.02
417.539	3.89
417.745	3.9
417.951	3.81
418.157	3.79
418.362	3.87
418.568	3.87
418.774	3.95
418.979	4.01
419.185	3.96
419.391	3.93
419.596	3.88
419.802	3.92
420.008	3.93
420.213	4.66
420.419	4.68
420.624	4.54
420.83	4.49
421.035	4.49
421.241	4.48
421.446	4.48
421.652	4.47
421.857	4.41
422.063	4.4
422.268	4.47
422.474	3.78
422.679	3.77
422.885	3.78
423.09	3.83
423.295	3.74
423.501	3.75
423.706	3.76
423.911	3.72
424.117	3.81
424.322	3.77
424.527	3.79
424.733	3.74
424.938	3.69
425.143	3.75
425.349	3.81
425.554	3.87
425.759	3.86
425.964	3.9
426.169	4.01
426.375	3.97
426.58	3.96
426.785	3.89
426.99	3.93
427.195	3.87
427.4	3.9
427.605	3.92
427.811	3.91
428.016	3.81
428.221	3.81
428.426	3.71
428.631	3.7
428.836	3.79
429.041	3.81
429.246	3.83
429.451	3.77
429.656	3.62
429.861	3.54
430.066	3.59
430.271	3.65
430.476	3.67
430.681	3.7
430.886	3.66
431.09	3.56
431.295	3.54
431.5	3.43
431.705	3.49
431.91	3.5
432.115	3.48
432.32	3.4
432.524	3.34
432.729	3.32
432.934	3.38
433.139	3.4
433.343	3.45
433.548	3.49
433.753	3.56
433.958	3.55
434.162	3.64
434.367	3.68
434.572	3.73
434.776	3.74
434.981	3.82
435.186	3.67
435.39	3.66
435.595	3.71
435.799	3.55
436.004	3.52
436.209	3.45
436.413	3.31
436.618	3.35
436.822	3.36
437.027	3.5
437.231	3.37
437.436	3.33
437.64	3.29
437.845	3.24
438.049	3.31
438.253	3.38
438.458	3.45
438.662	3.46
438.867	3.45
439.071	3.39
439.275	3.35
439.48	3.31
439.684	3.38
439.888	3.5
440.093	3.5
440.297	3.43
440.501	3.35
440.706	3.36
440.91	3.44
441.114	3.4
441.318	3.45
441.523	3.48
441.727	3.52
441.931	3.52
442.135	3.51
442.339	3.46
442.543	3.57
442.748	3.62
442.952	3.61
443.156	3.53
443.36	3.53
443.564	3.56
443.768	3.46
443.972	3.45
444.176	3.48
444.38	3.42
444.584	3.39
444.788	3.34
444.992	3.32
445.196	3.33
445.4	3.34
445.604	3.4
445.808	3.4
446.012	3.43
446.216	3.41
446.42	3.43
446.624	3.4
446.828	3.48
447.032	3.51
447.235	3.51
447.439	3.49
447.643	3.54
447.847	3.41
448.051	3.32
448.254	3.28
448.458	3.36
448.662	3.28
448.866	3.3
449.069	3.37
449.273	3.36
449.477	3.29
449.681	3.3
449.884	3.28
450.088	3.37
450.292	3.4
450.495	3.44
450.699	3.48
450.902	3.45
451.106	3.34
451.31	3.26
451.513	3.29
451.717	3.42
451.92	3.33
452.124	3.32
452.327	3.36
452.531	3.39
452.734	3.39
452.938	3.35
453.141	3.43
453.345	3.53
453.548	3.44
453.752	3.37
453.955	3.37
454.158	3.43
454.362	3.35
454.565	3.4
454.769	3.4
454.972	3.45
455.175	3.47
455.379	3.49
455.582	3.52
455.785	3.63
455.988	3.68
456.192	3.59
456.395	3.6
456.598	3.66
456.801	3.56
457.005	3.53
457.208	3.54
457.411	3.5
457.614	3.44
457.817	3.45
458.021	3.38
458.224	3.38
458.427	3.29
458.63	3.24
458.833	3.28
459.036	3.22
459.239	3.22
459.442	3.22
459.645	3.18
459.848	3.16
460.051	3.12
460.254	3.14
460.457	3.09
460.66	3.28
460.863	3.33
461.066	3.31
461.269	3.38
461.472	3.38
461.675	3.28
461.878	3.38
462.081	3.36
462.284	3.42
462.486	3.42
462.689	3.42
462.892	3.38
463.095	3.33
463.298	3.19
463.5	3.33
463.703	3.21
463.906	3.35
464.109	3.32
464.311	3.3
464.514	3.31
464.717	3.33
464.92	3.31
465.122	3.36
465.325	3.37
465.528	3.49
465.73	3.33
465.933	3.41
466.135	3.27
466.338	3.23
466.541	3.27
466.743	3.26
466.946	3.3
467.148	3.29
467.351	3.25
467.553	3.32
467.756	3.35
467.958	3.45
468.161	3.4
468.363	3.5
468.566	3.5
468.768	3.59
468.971	3.49
469.173	3.43
469.375	3.37
469.578	3.26
469.78	3.18
469.983	3.04
470.185	2.92
470.387	2.87
470.59	2.77
470.792	2.83
470.994	2.79
471.196	2.88
471.399	2.93
471.601	3.06
471.803	2.98
472.005	3.15
472.208	3.22
472.41	3.3
472.612	3.39
472.814	3.43
473.016	3.52
473.218	3.54
473.421	3.39
473.623	3.4
473.825	3.42
474.027	3.58
474.229	3.51
474.431	3.53
474.633	3.45
474.835	3.48
475.037	3.52
475.239	3.31
475.441	3.33
475.643	3.44
475.845	3.43
476.047	3.44
476.249	3.39
476.451	3.36
476.653	3.38
476.855	3.46
477.057	3.45
477.258	3.41
477.46	3.51
477.662	3.44
477.864	3.35
478.066	3.3
478.268	3.2
478.469	3.21
478.671	3.21
478.873	3.18
479.075	3.13
479.276	3.09
479.478	3.06
479.68	2.97
479.882	2.96
480.083	2.99
480.285	3.01
480.487	3.04
480.688	3.03
480.89	3.02
481.091	2.97
481.293	3.01
481.495	3.02
481.696	3.04
481.898	3.01
482.099	3.02
482.301	3.04
482.502	3.03
482.704	3.02
482.905	3.01
483.107	3.03
483.308	3.04
483.51	3
483.711	2.96
483.913	2.94
484.114	2.98
484.315	2.96
484.517	2.96
484.718	2.94
484.92	2.98
485.121	2.97
485.322	2.95
485.524	2.96
485.725	2.95
485.926	2.94
486.127	2.98
486.329	2.94
486.53	2.96
486.731	2.93
486.932	2.95
487.134	2.92
487.335	2.92
487.536	2.89
487.737	2.88
487.938	2.9
488.139	2.96
488.341	2.94
488.542	2.97
488.743	2.95
488.944	2.98
489.145	3.01
489.346	3.04
489.547	3.06
489.748	3.07
489.949	3.11
490.15	3.11
490.351	3.08
490.552	3.07
490.753	3.08
490.954	3.12
491.155	3.08
491.356	3.06
491.557	3.04
491.758	3.06
491.959	3.07
492.159	3.1
492.36	3.08
492.561	3.12
492.762	3.2
492.963	3.22
493.164	3.19
493.364	3.28
493.565	3.31
493.766	3.33
493.967	3.32
494.167	3.37
494.368	3.31
494.569	3.34
494.769	3.33
494.97	3.3
495.171	3.32
495.371	3.33
495.572	3.29
495.773	3.31
495.973	3.37
496.174	3.33
496.375	3.31
496.575	3.35
496.776	3.36
496.976	3.36
497.177	3.39
497.377	3.42
497.578	3.45
497.778	3.5
497.979	3.45
498.179	3.35
498.38	3.43
498.58	3.47
498.78	3.49
498.981	3.51
499.181	3.54
499.382	3.51
499.582	3.59
499.782	3.61
499.983	3.63
500.183	3.7
500.383	3.81
500.584	3.74
500.784	3.73
500.984	3.75
501.184	3.77
501.385	3.78
501.585	3.76
501.785	3.61
501.985	3.57
502.185	3.47
502.386	3.47
502.586	3.38
502.786	3.44
502.986	3.51
503.186	3.46
503.386	3.46
503.586	3.5
503.786	3.51
503.987	3.52
504.187	3.55
504.387	3.62
504.587	3.68
504.787	3.77
504.987	3.77
505.187	3.71
505.387	3.76
505.587	3.84
505.786	3.82
505.986	3.82
506.186	3.91
506.386	3.93
506.586	3.89
506.786	3.87
506.986	3.89
507.186	3.89
507.386	3.96
507.585	3.9
507.785	3.86
507.985	3.91
508.185	3.95
508.384	3.92
508.584	3.87
508.784	3.93
508.984	4
509.183	3.92
509.383	3.91
509.583	3.91
509.782	3.91
509.982	3.93
510.182	3.93
510.381	3.91
510.581	3.94
510.781	4
510.98	4.02
511.18	4.01
511.379	4.11
511.579	4.11
511.778	4.05
511.978	4.1
512.177	4.06
512.377	4.04
512.576	4.11
512.776	4.07
512.975	4.11
513.175	4.09
513.374	3.99
513.573	3.93
513.773	4.01
513.972	4.04
514.172	4.03
514.371	4.15
514.57	4.18
514.77	4.22
514.969	4.38
515.168	4.33
515.367	4.39
515.567	4.45
515.766	4.49
515.965	4.5
516.164	4.55
516.364	4.59
516.563	4.53
516.762	4.53
516.961	4.48
517.16	4.37
517.359	4.39
517.559	4.41
517.758	4.39
517.957	4.4
518.156	4.42
518.355	4.4
518.554	4.36
518.753	4.36
518.952	4.4
519.151	4.44
519.35	4.42
519.549	4.45
519.748	4.41
519.947	4.53
520.146	4.58
520.345	4.59
520.544	4.64
520.743	4.67
520.942	4.72
521.141	4.71
521.339	4.78
521.538	4.83
521.737	4.88
521.936	4.91
522.135	4.9
522.333	4.93
522.532	4.91
522.731	4.9
522.93	4.98
523.129	5.03
523.327	5.06
523.526	4.97
523.725	5.05
523.923	5.07
524.122	5.14
524.321	5.12
524.519	5.1
524.718	5.15
524.917	5.16
525.115	5.13
525.314	5.14
525.512	5.16
525.711	5.21
525.909	5.24
526.108	5.22
526.306	5.27
526.505	5.27
526.703	5.28
526.902	5.25
527.1	5.28
527.299	5.31
527.497	5.3
527.696	5.33
527.894	5.34
528.092	5.36
528.291	5.35
528.489	5.3
528.688	5.32
528.886	5.35
529.084	5.39
529.283	5.41
529.481	5.44
529.679	5.44
529.877	5.42
530.076	5.45
530.274	5.44
530.472	5.49
530.67	5.57
530.869	5.63
531.067	5.65
531.265	5.68
531.463	5.7
531.661	5.71
531.859	5.71
532.057	5.78
532.255	5.8
532.454	5.84
532.652	5.84
532.85	5.87
533.048	5.89
533.246	5.89
533.444	5.94
533.642	5.97
533.84	5.98
534.038	6.03
534.236	6.02
534.434	6.01
534.632	5.99
534.83	6.07
535.027	6.04
535.225	6.06
535.423	6.12
535.621	6.16
535.819	6.19
536.017	6.22
536.215	6.27
536.412	6.29
536.61	6.33
536.808	6.36
537.006	6.35
537.203	6.45
537.401	6.61
537.599	6.65
537.797	6.62
537.994	6.69
538.192	6.73
538.39	6.83
538.587	6.85
538.785	6.93
538.983	7.01
539.18	7.05
539.378	7.05
539.575	6.95
539.773	6.9
539.97	6.93
540.168	6.89
540.366	6.94
540.563	6.93
540.761	6.94
540.958	6.92
541.155	6.91
541.353	6.91
541.55	6.91
541.748	6.94
541.945	7
542.143	7.02
542.34	7.04
542.537	7.07
542.735	7.11
542.932	7.14
543.129	7.19
543.327	7.2
543.524	7.37
543.721	7.38
543.919	7.51
544.116	7.59
544.313	7.77
544.51	7.85
544.708	7.87
544.905	7.88
545.102	8.03
545.299	8.07
545.496	8.17
545.693	8.1
545.891	8.21
546.088	8.14
546.285	8.24
546.482	8.18
546.679	8.21
546.876	8.24
547.073	8.32
547.27	8.32
547.467	8.35
547.664	8.34
547.861	8.44
548.058	8.55
548.255	8.72
548.452	8.64
548.649	8.79
548.846	8.88
549.043	8.95
549.24	9.15
549.437	9.15
549.633	9.25
549.83	9.34
550.027	9.37
550.224	9.32
550.421	9.33
550.618	9.37
550.814	9.42
551.011	9.48
551.208	9.57
551.405	9.49
551.601	9.57
551.798	9.67
551.995	9.65
552.191	9.75
552.388	9.79
552.585	9.85
552.781	9.97
552.978	9.93
553.175	10.01
553.371	10.04
553.568	10.1
553.764	10.14
553.961	10.12
554.157	10.29
554.354	10.28
554.55	10.35
554.747	10.34
554.943	10.44
555.14	10.6
555.336	10.58
555.533	10.59
555.729	10.73
555.926	10.78
556.122	10.9
556.318	10.9
556.515	11.06
556.711	11.13
556.907	11.23
557.104	11.3
557.3	11.41
557.496	11.49
557.693	11.52
557.889	11.58
558.085	11.71
558.281	11.79
558.478	11.92
558.674	11.93
558.87	11.9
559.066	12.09
559.262	12.13
559.459	12
559.655	12.05
559.851	12.27
560.047	12.28
560.243	12.31
560.439	12.41
560.635	12.35
560.831	12.37
561.027	12.51
561.223	12.45
561.419	12.39
561.615	12.46
561.811	12.59
562.007	12.51
562.203	12.54
562.399	12.56
562.595	12.62
562.791	12.82
562.987	12.99
563.183	13.1
563.379	13.2
563.575	13.32
563.771	13.51
563.966	13.57
564.162	13.63
564.358	13.81
564.554	13.88
564.75	13.88
564.945	13.9
565.141	13.93
565.337	14
565.533	14.04
565.728	14.11
565.924	14.07
566.12	14.2
566.315	14.3
566.511	14.24
566.707	14.31
566.902	14.39
567.098	14.49
567.293	14.53
567.489	14.61
567.684	14.64
567.88	14.72
568.076	14.79
568.271	14.78
568.467	14.89
568.662	15.04
568.858	15.12
569.053	15.16
569.248	15.14
569.444	15.26
569.639	15.41
569.835	15.51
570.03	15.63
570.225	15.72
570.421	15.93
570.616	16.04
570.812	16.14
571.007	16.19
571.202	16.34
571.397	16.47
571.593	16.51
571.788	16.55
571.983	16.61
572.178	16.59
572.374	16.69
572.569	16.59
572.764	16.66
572.959	16.65
573.154	16.65
573.35	16.62
573.545	16.76
573.74	16.77
573.935	16.74
574.13	16.85
574.325	16.9
574.52	16.97
574.715	17.03
574.91	16.95
575.105	17.02
575.3	17.17
575.495	17.22
575.69	17.15
575.885	17.3
576.08	17.37
576.275	17.43
576.47	17.61
576.665	17.61
576.86	17.61
577.055	17.73
577.25	17.86
577.444	17.83
577.639	18.03
577.834	18.17
578.029	18.14
578.224	18.23
578.418	18.21
578.613	18.27
578.808	18.28
579.003	18.38
579.197	18.57
579.392	18.5
579.587	18.76
579.781	18.66
579.976	18.69
580.171	18.87
580.365	18.86
580.56	18.9
580.755	18.9
580.949	19.06
581.144	19.15
581.338	19.18
581.533	19.24
581.727	19.22
581.922	19.37
582.116	19.4
582.311	19.29
582.505	19.51
582.7	19.55
582.894	19.51
583.089	19.39
583.283	19.39
583.478	19.44
583.672	19.55
583.866	19.56
584.061	19.44
584.255	19.47
584.449	19.59
584.644	19.53
584.838	19.63
585.032	19.73
585.226	19.77
585.421	19.86
585.615	19.89
585.809	19.81
586.003	19.95
586.198	20.25
586.392	20.33
586.586	20.28
586.78	20.37
586.974	20.25
587.168	20.38
587.363	20.59
587.557	20.54
587.751	20.5
587.945	20.66
588.139	20.57
588.333	20.45
588.527	20.31
588.721	20.36
588.915	20.24
589.109	20.47
589.303	20.35
589.497	20.17
589.691	20.2
589.885	20.14
590.079	20.1
590.273	20.19
590.466	20.09
590.66	20.15
590.854	20.2
591.048	20.36
591.242	20.3
591.436	20.37
591.629	20.55
591.823	20.74
592.017	20.91
592.211	20.9
592.404	20.74
592.598	20.88
592.792	20.98
592.986	21.07
593.179	21.03
593.373	21.08
593.567	21.16
593.76	21.08
593.954	21.14
594.147	21.23
594.341	21.38
594.535	21.58
594.728	21.54
594.922	21.63
595.115	21.58
595.309	21.57
595.502	21.63
595.696	21.63
595.889	21.69
596.083	21.61
596.276	21.61
596.47	21.62
596.663	21.59
596.856	21.71
597.05	21.75
597.243	21.71
597.437	21.83
597.63	21.86
597.823	21.88
598.017	21.87
598.21	22.03
598.403	22.04
598.596	21.99
598.79	22.05
598.983	22.04
599.176	22.08
599.369	22.18
599.563	22.26
599.756	22.18
599.949	22.2
600.142	22.35
600.335	22.14
600.528	22.04
600.722	22.06
600.915	22.02
601.108	22.07
601.301	21.97
601.494	22.03
601.687	21.83
601.88	21.91
602.073	21.89
602.266	21.91
602.459	21.99
602.652	22.07
602.845	22.09
603.038	22.06
603.231	22.17
603.424	22.22
603.617	22.23
603.809	22.33
604.002	22.36
604.195	22.48
604.388	22.47
604.581	22.49
604.774	22.48
604.966	22.47
605.159	22.45
605.352	22.43
605.545	22.42
605.737	22.43
605.93	22.5
606.123	22.57
606.316	22.58
606.508	22.61
606.701	22.64
606.894	22.77
607.086	22.92
607.279	22.96
607.471	22.86
607.664	23.01
607.857	22.94
608.049	23.01
608.242	23.01
608.434	23.09
608.627	23.09
608.819	23.03
609.012	23.03
609.204	22.95
609.397	23.06
609.589	23.12
609.782	23.04
609.974	23.21
610.166	23.18
610.359	23.18
610.551	23.03
610.743	23.11
610.936	23.25
611.128	23.21
611.32	23.2
611.513	23.23
611.705	23.26
611.897	23.21
612.09	23.24
612.282	23.26
612.474	23.15
612.666	23.3
612.858	23.26
613.051	23.4
613.243	23.38
613.435	23.58
613.627	23.59
613.819	23.48
614.011	23.83
614.203	23.77
614.395	23.84
614.588	23.9
614.78	23.92
614.972	23.9
615.164	23.82
615.356	23.67
615.548	23.63
615.74	23.72
615.932	23.71
616.124	23.48
616.315	23.71
616.507	23.76
616.699	24.01
616.891	24.11
617.083	24.22
617.275	24.38
617.467	24.39
617.659	24.43
617.85	24.61
618.042	24.89
618.234	24.88
618.426	24.73
618.618	24.71
618.809	24.52
619.001	24.23
619.193	24.3
619.384	24.19
619.576	24.44
619.768	24.36
619.959	24.23
620.151	24.37
620.343	24.53
620.534	24.62
620.726	24.47
620.917	24.57
621.109	24.61
621.301	24.46
621.492	24.35
621.684	24.34
621.875	24.38
622.067	24.26
622.258	24.04
622.45	23.99
622.641	23.89
622.832	24.08
623.024	24.15
623.215	24.28
623.407	24.28
623.598	24.38
623.789	24.35
623.981	24.26
624.172	24.5
624.363	24.51
624.555	24.66
624.746	24.59
624.937	24.49
625.129	24.43
625.32	24.43
625.511	24.5
625.702	24.5
625.893	24.44
626.085	24.54
626.276	24.39
626.467	24.54
626.658	24.36
626.849	24.45
627.04	24.38
627.231	24.46
627.422	24.56
627.614	24.65
627.805	24.55
627.996	24.63
628.187	24.68
628.378	24.54
628.569	24.4
628.76	24.46
628.951	24.49
629.142	24.63
629.332	24.43
629.523	24.31
629.714	24.18
629.905	24.36
630.096	24.46
630.287	24.64
630.478	24.71
630.669	24.78
630.859	24.77
631.05	24.82
631.241	24.82
631.432	24.9
631.623	24.93
631.813	25.02
632.004	25.01
632.195	25
632.385	24.76
632.576	24.79
632.767	24.89
632.957	25.02
633.148	25.05
633.339	25.2
633.529	25.1
633.72	25.12
633.91	25.15
634.101	24.96
634.292	24.96
634.482	25.01
634.673	25.25
634.863	25.22
635.054	25.14
635.244	25.06
635.435	25.03
635.625	25.14
635.815	25.12
636.006	25.12
636.196	25.48
636.387	25.77
636.577	25.94
636.767	25.8
636.958	25.86
637.148	25.89
637.338	25.84
637.529	25.88
637.719	26.11
637.909	26.1
638.099	26.02
638.29	25.97
638.48	25.67
638.67	25.45
638.86	25.5
639.05	25.41
639.241	25.49
639.431	25.43
639.621	25.24
639.811	25.23
640.001	25.36
640.191	25.24
640.381	25.01
640.571	25.14
640.761	25.14
640.951	24.97
641.141	24.89
641.331	24.63
641.521	24.81
641.711	24.79
641.901	24.85
642.091	24.76
642.281	24.96
642.471	25.04
642.661	24.89
642.851	25.12
643.041	25.33
643.231	25.37
643.42	25.51
643.61	25.57
643.8	25.77
643.99	25.5
644.18	25.32
644.369	25.54
644.559	25.65
644.749	25.95
644.939	25.75
645.128	25.65
645.318	25.49
645.508	25.4
645.697	25.5
645.887	25.42
646.076	25.39
646.266	25.55
646.456	25.37
646.645	25.49
646.835	25.26
647.024	25.26
647.214	25.42
647.403	25.62
647.593	25.64
647.782	25.54
647.972	25.61
648.161	25.87
648.351	25.99
648.54	25.8
648.73	25.63
648.919	25.65
649.108	25.79
649.298	25.68
649.487	25.67
649.677	25.7
649.866	25.68
650.055	25.65
650.244	25.46
650.434	25.61
650.623	25.75
650.812	25.7
651.002	25.67
651.191	25.41
651.38	25.46
651.569	25.35
651.758	25.27
651.947	25.32
652.137	25.27
652.326	25.48
652.515	25.42
652.704	25.35
652.893	25.29
653.082	25.57
653.271	26.06
653.46	26.11
653.649	26.18
653.838	26.45
654.027	26.43
654.216	26.34
654.405	26.31
654.594	26.17
654.783	26.47
654.972	26.74
655.161	26.8
655.35	26.6
655.539	26.74
655.728	26.88
655.916	26.85
656.105	26.79
656.294	27.1
656.483	26.98
656.672	26.96
656.86	26.82
657.049	26.61
657.238	26.26
657.427	26.28
657.615	26.15
657.804	26.16
657.993	26.1
658.181	26.2
658.37	26.16
658.559	26.01
658.747	26.04
658.936	26.14
659.125	26.24
659.313	26.27
659.502	26.15
659.69	26.12
659.879	26.14
660.067	26.07
660.256	25.97
660.444	25.83
660.633	26.05
660.821	26.15
661.01	26.16
661.198	26.09
661.387	26.22
661.575	26.41
661.763	26.66
661.952	26.48
662.14	26.76
662.328	26.75
662.517	26.68
662.705	26.77
662.893	26.53
663.082	26.55
663.27	26.55
663.458	26.52
663.646	26.33
663.834	26.13
664.023	26.32
664.211	26.14
664.399	26.38
664.587	26.49
664.775	26.16
664.963	26.47
665.152	26.4
665.34	26.49
665.528	26.51
665.716	26.59
665.904	26.65
666.092	26.5
666.28	26.55
666.468	26.52
666.656	26.66
666.844	27.27
667.032	27.1
667.22	27.23
667.408	27.31
667.596	27.49
667.784	27.43
667.971	27.29
668.159	27.2
668.347	27.09
668.535	26.98
668.723	26.9
668.911	26.47
669.098	26.42
669.286	26.29
669.474	26.17
669.662	26.33
669.849	26.45
670.037	26.48
670.225	26.61
670.413	26.71
670.6	26.61
670.788	26.55
670.976	26.76
671.163	26.9
671.351	27.02
671.538	27.07
671.726	26.91
671.913	26.86
672.101	26.93
672.289	27.05
672.476	27.15
672.664	27.4
672.851	27.5
673.039	27.35
673.226	27.16
673.413	27.04
673.601	26.86
673.788	26.73
673.976	26.72
674.163	26.77
674.35	26.6
674.538	26.82
674.725	26.68
674.912	26.45
675.1	26.55
675.287	26.75
675.474	26.51
675.662	26.81
675.849	27.01
676.036	27
676.223	26.89
676.411	26.86
676.598	26.63
676.785	26.55
676.972	26.68
677.159	26.51
677.346	26.27
677.533	26.51
677.721	26.3
677.908	26.3
678.095	26.39
678.282	26.53
678.469	26.61
678.656	26.55
678.843	26.63
679.03	26.62
679.217	26.96
679.404	27.22
679.591	27.34
679.778	27.54
679.964	27.35
680.151	27.37
680.338	27.24
680.525	27.28
680.712	27.5
680.899	27.79
681.086	27.83
681.272	27.8
681.459	27.54
681.646	27.42
681.833	27.27
682.02	27.11
682.206	27.1
682.393	27.31
682.58	27.43
682.766	27.27
682.953	26.98
683.14	27.27
683.326	27.3
683.513	27.52
683.7	27.71
683.886	27.86
684.073	28.04
684.259	28.26
684.446	28.37
684.632	28.43
684.819	28.2
685.005	28.26
685.192	28.39
685.378	28.38
685.565	28.5
685.751	28.12
685.938	28.29
686.124	28.45
686.31	28.39
686.497	27.84
686.683	27.62
686.87	27.71
687.056	27.4
687.242	26.88
687.429	26.8
687.615	26.84
687.801	27.12
687.987	27.23
688.174	27.36
688.36	27.52
688.546	27.96
688.732	27.84
688.918	27.99
689.105	28.46
689.291	28.73
689.477	28.61
689.663	28.52
689.849	28.2
690.035	28
690.221	28
690.407	27.77
690.593	27.68
690.779	27.85
690.965	27.9
691.151	27.75
691.337	27.66
691.523	27.6
691.709	28.03
691.895	28.74
692.081	28.55
692.267	28.48
692.453	28.71
692.639	28.74
692.825	28.89
693.011	28.9
693.196	29.05
693.382	28.92
693.568	28.89
693.754	28.69
693.94	27.88
694.125	28.28
694.311	28.14
694.497	27.61
694.682	27.85
694.868	27.93
695.054	28.08
695.239	27.99
695.425	28.13
695.611	28.62
695.796	28.06
695.982	28.22
696.168	27.63
696.353	27.62
696.539	27.84
696.724	27.79
696.91	27.51
697.095	27.57
697.281	27.49
697.466	27.44
697.652	27.2
697.837	27.49
698.023	27.47
698.208	27.75
698.393	27.82
698.579	27.67
698.764	27.51
698.949	27.6
699.135	27.33
699.32	27.3
699.505	27.08
699.691	27.01
699.876	26.93
700.061	27.2
700.246	27.15
700.432	26.8
700.617	27.12
700.802	26.75
700.987	26.94
701.172	26.87
701.358	26.99
701.543	27.48
701.728	27.74
701.913	28.14
702.098	28.36
702.283	28.58
702.468	29
702.653	29.2
702.838	30.03
703.023	29.63
703.208	29.8
703.393	29.57
703.578	29.42
703.763	29.43
703.948	28.96
704.133	28.71
704.318	28.68
704.503	28.54
704.688	28.44
704.873	28.22
705.057	28.46
705.242	28.38
705.427	28.74
705.612	28.69
705.797	28.49
705.981	28.57
706.166	28.61
706.351	28.42
706.536	28.29
706.72	28
706.905	27.63
707.09	27.76
707.274	27.61
707.459	27.35
707.644	27.6
707.828	27.85
708.013	28.13
708.197	28.15
708.382	28.17
708.567	28.2
708.751	28.21
708.936	28.27
709.12	28.21
709.305	28.38
709.489	28.44
709.673	28.06
709.858	28.02
710.042	27.91
710.227	27.81
710.411	27.56
710.596	27.93
710.78	28.05
710.964	28.09
711.149	28.26
711.333	28.26
711.517	28.38
711.702	28.71
711.886	28.78
712.07	28.71
712.254	28.45
712.438	28.8
712.623	28.73
712.807	28.4
712.991	28.77
713.175	28.7
713.359	29.12
713.544	28.72
713.728	28.49
713.912	28.12
714.096	28.19
714.28	28.47
714.464	28.54
714.648	28.51
714.832	29.17
715.016	28.78
715.2	28.57
715.384	28.4
715.568	28.97
715.752	28.92
715.936	29.49
716.12	29.07
716.304	29.38
716.488	29.12
716.671	29.12
716.855	29.07
717.039	29.22
717.223	29.43
717.407	29.4
717.59	28.9
717.774	29.12
717.958	28.54
718.142	28.5
718.325	28.07
718.509	28.05
718.693	27.81
718.877	27.31
719.06	27.01
719.244	27.16
719.428	27.36
719.611	27.74
719.795	28.1
719.978	28.89
720.162	29.1
720.345	29.28
720.529	29.46
720.713	29.63
720.896	29.55
721.08	30.34
721.263	30.07
721.446	29.7
721.63	29.88
721.813	29.55
721.997	29.09
722.18	29.08
722.364	29.3
722.547	29.16
722.73	29.01
722.914	28.88
723.097	28.82
723.28	29.23
723.464	29.1
723.647	28.93
723.83	28.52
724.013	28.51
724.197	28.9
724.38	28.64
724.563	28.37
724.746	28.56
724.929	29
725.112	29.17
725.296	28.48
725.479	28.91
725.662	28.82
725.845	29.39
726.028	28.96
726.211	28.69
726.394	28.77
726.577	28.99
726.76	29.1
726.943	28.85
727.126	28.61
727.309	28.7
727.492	28.44
727.675	28.33
727.858	27.82
728.041	28.24
728.224	28.21
728.407	28.17
728.589	28.04
728.772	27.92
728.955	27.86
729.138	27.86
729.321	27.95
729.503	28.54
729.686	28.51
729.869	28.95
730.052	28.79
730.234	28.72
730.417	28.73
730.6	28.78
730.782	29.02
730.965	29.34
731.148	29.08
731.33	29.19
731.513	28.83
731.695	29.16
731.878	28.95
732.061	28.56
732.243	28.9
732.426	28.41
732.608	28.58
732.791	28.93
732.973	29.05
733.156	29.23
733.338	29.4
733.52	29.12
733.703	28.87
733.885	28.82
734.068	29.48
734.25	29.64
734.432	30.04
734.615	29.96
734.797	29.21
734.979	28.82
735.162	29
735.344	28.97
735.526	29.1
735.708	29.17
735.891	29.91
736.073	29.64
736.255	29.33
736.437	29.46
736.619	29.62
736.802	29.99
736.984	30.06
737.166	29.5
737.348	29.33
737.53	29.56
737.712	29.7
737.894	29.68
738.076	29.92
738.258	29.67
738.44	29.38
738.622	29.69
738.804	29.4
738.986	29.55
739.168	29.54
739.35	29.64
739.532	29.36
739.714	29.03
739.896	28.39
740.078	28.24
740.259	28.42
740.441	28.91
740.623	28.87
740.805	28.43
740.987	28.42
741.168	28.69
741.35	28.7
741.532	28.96
741.714	29.04
741.895	28.89
742.077	29.06
742.259	28.82
742.44	28.48
742.622	28.43
742.804	29.73
742.985	29.64
743.167	29.44
743.348	29.8
743.53	30.48
743.711	30.71
743.893	30.97
744.075	30.97
744.256	31.12
744.438	31.22
744.619	30.83
744.8	29.91
744.982	30.35
745.163	30.04
745.345	29.85
745.526	29.53
745.707	29.2
745.889	29.12
746.07	28.34
746.252	28.52
746.433	28.79
746.614	28.61
746.795	29.14
746.977	29.07
747.158	30.06
747.339	30.3
747.52	29.78
747.702	29.72
747.883	29.57
748.064	30.39
748.245	30.52
748.426	29.68
748.607	30.41
748.788	29.83
748.97	29.34
749.151	28.71
749.332	28.73
749.513	29.53
749.694	29.32
749.875	29.79
750.056	29.68
750.237	30.02
750.418	30.66
750.599	30.29
750.78	30.09
750.96	30.39
751.141	31.14
751.322	30.73
751.503	30.56
751.684	31.11
751.865	31
752.046	30.62
752.226	30.24
752.407	30.38
752.588	30.32
752.769	32.12
752.949	32.31
753.13	32.53
753.311	32.81
753.492	32.37
753.672	32.66
753.853	32.84
754.034	32.88
754.214	33
754.395	32.78
754.575	32.77
754.756	31.47
754.937	31.42
755.117	30.3
755.298	29.4
755.478	29.51
755.659	28.67
755.839	28.42
756.02	28.42
756.2	28.15
756.381	28.1
756.561	28.25
756.741	28.07
756.922	27.86
757.102	28.3
757.283	28.4
757.463	28.42
757.643	29.08
757.823	29.23
758.004	29.42
758.184	29.24
758.364	29.51
758.545	29.69
758.725	29.89
758.905	30.57
759.085	30.5
759.265	30.42
759.446	29.56
759.626	30.09
759.806	29.64
759.986	30.08
760.166	29.85
760.346	29.36
760.526	28.74
760.706	28.5
760.886	27.67
761.066	27.85
761.246	28.84
761.426	29.48
761.606	28.64
761.786	29.2
761.966	28.86
762.146	29.51
762.326	30.17
762.506	30.44
762.686	30.88
762.866	30.98
763.046	31.03
763.225	30.35
763.405	30.11
763.585	29.62
763.765	29.65
763.945	29.35
764.124	29.2
764.304	29.27
764.484	29.88
764.664	29.57
764.843	29.77
765.023	29.48
765.203	29.71
765.382	29.94
765.562	30.82
765.741	30.41
765.921	31.08
766.101	31.15
766.28	30.51
766.46	29.74
766.639	29.44
766.819	28.94
766.998	29.2
767.178	28.6
767.357	28.55
767.537	28.72
767.716	28.76
767.896	28.37
768.075	28.44
768.254	28.59
768.434	29.01
768.613	29.2
768.792	29.67
768.972	29.69
769.151	30.55
769.33	30.43
769.51	30.62
769.689	30.5
769.868	30.41
770.047	30.25
770.226	29.83
770.406	30.24
770.585	31.23
770.764	31.52
770.943	31.75
771.122	31.81
771.301	32.36
771.48	32.37
771.66	32.4
771.839	33.52
772.018	33.91
772.197	34.1
772.376	33.93
772.555	33.68
772.734	33.15
772.913	32.72
773.092	32.61
773.271	32.68
773.449	32.13
773.628	31.98
773.807	30.81
773.986	30.8
774.165	31.22
774.344	31.14
774.523	31
774.701	30.42
774.88	30.26
775.059	30.47
775.238	30.13
775.417	31.17
775.595	31.86
775.774	31.85
775.953	31.31
776.131	31.22
776.31	30.67
776.489	29.44
776.667	30.4
776.846	30.48
777.025	30.85
777.203	30.81
777.382	30.43
777.56	30.04
777.739	30.59
777.917	31.12
778.096	30.67
778.274	29.83
778.453	30.86
778.631	30.62
778.81	31.31
778.988	30.7
779.166	30.16
779.345	29.96
779.523	30.91
779.702	30.56
779.88	30.42
780.058	30.9
780.237	31.43
780.415	30.91
780.593	30.89
780.771	30.54
780.95	31.82
781.128	33.17
781.306	33.32
781.484	32.92
781.662	32.35
781.841	31.99
782.019	31.8
782.197	32.84
782.375	33.05
782.553	32.72
782.731	32.73
782.909	31.15
783.087	31.1
783.265	32.22
783.443	32.02
783.621	32.7
783.799	32.55
783.977	33.03
784.155	32.4
784.333	33.31
784.511	33.51
784.689	33.34
784.867	33.59
785.045	34.02
785.223	33.08
785.4	32.88
785.578	33.28
785.756	34.01
785.934	33.52
786.112	33.72
786.289	33.62
786.467	34.11
786.645	33.28
786.823	33.79
787	33.41
787.178	32.6
787.356	32.09
787.533	31.54
787.711	31.49
787.889	31.68
788.066	31.41
788.244	31.47
788.421	31.52
788.599	32.22
788.776	31.67
788.954	30.71
789.131	30.65
789.309	30.82
789.486	30.44
789.664	30.64
789.841	30.92
790.019	30.82
790.196	30.49
790.373	30.19
790.551	30.26
790.728	30.83
790.906	31.14
791.083	31.73
791.26	32.81
791.437	33.29
791.615	33.73
791.792	33.77
791.969	34.03
792.146	34.1
792.324	34.41
792.501	34.43
792.678	34.3
792.855	34.64
793.032	33.86
793.209	33.66
793.387	35.06
793.564	34.7
793.741	34.8
793.918	34.15
794.095	33.76
794.272	32.59
794.449	32.19
794.626	32.79
794.803	32.61
794.98	33.64
795.157	33.35
795.334	32.73
795.511	31.15
795.688	30.88
795.864	31.76
796.041	32.35
796.218	32.76
796.395	33.55
796.572	31.99
796.749	31.57
796.925	30.93
797.102	30.47
797.279	29.76
797.456	31.09
797.632	30.58
797.809	30.19
797.986	29.82
798.162	29.35
798.339	28.99
798.516	30.01
798.692	28.76
798.869	28.56
799.046	28.63
799.222	29.28
799.399	28.7
799.575	28.92
799.752	28.8
799.928	28.66
800.105	29.51
800.281	30.09
800.458	29.42
800.634	32.44
800.811	33.93
800.987	33
801.163	33.03
801.34	34.42
801.516	34.75
801.692	35.65
801.869	35.36
802.045	35.53
802.221	34.24
802.398	35.11
802.574	33.98
802.75	33.1
802.926	33.23
803.103	33.38
803.279	32.38
803.455	31.12
803.631	30.55
803.807	31.47
803.983	30.78
804.16	30.88
804.336	29.76
804.512	29.3
804.688	30.23
804.864	31.25
805.04	31.15
805.216	32.49
805.392	33.6
805.568	34.29
805.744	34.42
805.92	35.02
806.096	35.92
806.272	36.69
806.448	37.51
806.623	35.9
806.799	37.35
806.975	37.51
807.151	36.33
807.327	35.95
807.503	34.76
807.678	34.26
807.854	34.06
808.03	32.83
808.206	33.12
808.381	32.18
808.557	32.48
808.733	30.54
808.908	29.65
809.084	30.22
809.26	29.25
809.435	30.13
809.611	29.51
809.787	28.73
809.962	30.32
810.138	29.19
810.313	30.35
810.489	31.48
810.664	31.16
810.84	30.79
811.015	29.36
811.191	32.35
811.366	31.3
811.542	30.9
811.717	32.06
811.892	32.31
812.068	33.46
812.243	32.48
812.419	31.46
812.594	32.95
812.769	34.5
812.944	34.82
813.12	32.93
813.295	32.46
813.47	33.82
813.645	34.4
813.821	32.2
813.996	32.39
814.171	32.8
814.346	33.28
814.521	33.11
814.697	32.77
814.872	32.57
815.047	33.33
815.222	36
815.397	34.57
815.572	33.54
815.747	34.41
815.922	33.17
816.097	32.55
816.272	33.52
816.447	33.63
816.622	33.32
816.797	34.3
816.972	33.75
817.147	32.01
817.322	33.03
817.496	32.68
817.671	33.82
817.846	33.23
818.021	33.17
818.196	32.46
818.371	32.34
818.545	32.21
818.72	31.79
818.895	32.34
819.069	33.13
819.244	32.77
819.419	33.31
819.594	31.77
819.768	32.07
819.943	31.93
820.117	31.67
820.292	31.17
820.467	30.92
820.641	30.52
820.816	29.81
820.99	29.32
821.165	29.25
821.339	28.95
821.514	29.39
821.688	29.6
821.863	29.34
822.037	28.96
822.212	29.12
822.386	29
822.56	29.17
822.735	29.39
822.909	29.56
823.084	29.48
823.258	29.48
823.432	29.3
823.606	29.02
823.781	29.27
823.955	29.55
824.129	29.4
824.303	29.65
824.478	29.38
824.652	29.23
824.826	29.1
825	29.43
825.174	29.27
825.348	29.22
825.523	29.45
825.697	29.04
825.871	28.85
826.045	28.65
826.219	28.73
826.393	28.92
826.567	29.36
826.741	29.5
826.915	29
827.089	29.56
827.263	29.57
827.437	29.73
827.611	30.59
827.784	30.87
827.958	31.36
828.132	30.81
828.306	30.77
828.48	30.35
828.654	30.33
828.827	30.66
829.001	30.83
829.175	31.94
829.349	32.2
829.522	31.41
829.696	32.54
829.87	32.03
830.044	33.6
830.217	34.53
830.391	34.5
830.565	35.12
830.738	35.36
830.912	35.49
831.085	34.03
831.259	33.88
831.432	33.56
831.606	32.8
831.779	33.23
831.953	32.63
832.126	31.61
832.3	32.08
832.473	31.6
832.647	31.86
832.82	31.97
832.994	32.15
833.167	32.18
833.34	32.62
833.514	32.6
833.687	32.03
833.86	31.69
834.034	32.11
834.207	32.01
834.38	31.7
834.553	31.4
834.727	31.37
834.9	31.13
835.073	30.35
835.246	30.77
835.419	30.36
835.593	31.25
835.766	31.59
835.939	31.73
836.112	31.86
836.285	32.76
836.458	33.37
836.631	32.77
836.804	33.41
836.977	35.75
837.15	37.27
837.323	37.03
837.496	37.72
837.669	37.4
837.842	36.69
838.015	37.16
838.188	35.87
838.361	34.71
838.533	35.1
838.706	34.32
838.879	31.94
839.052	29.2
839.225	31.17
839.398	29.03
839.57	28.58
839.743	29.98
839.916	29.61
840.088	31.76
840.261	33.09
840.434	32.94
840.607	33.89
840.779	34.49
840.952	34.37
841.124	33.04
841.297	35.36
841.47	37.23
841.642	37.03
841.815	37.19
841.987	35.39
842.16	34.76
842.332	36.73
842.505	36.72
842.677	37.75
842.85	39.78
843.022	42.4
843.194	41.64
843.367	43.43
843.539	42.77
843.712	42.91
843.884	45.57
844.056	47.67
844.229	46.4
844.401	46.36
844.573	46.21
844.745	44.88
844.918	45.39
845.09	45.09
845.262	43.71
845.434	46.12
845.606	45.15
845.779	44.15
845.951	41.37
846.123	36.26
846.295	38.71
846.467	38.77
846.639	42.59
846.811	41.37
846.983	40.29
847.155	40.3
847.327	42.12
847.499	42.64
847.671	43.36
847.843	43.62
848.015	48.16
848.187	45.83
848.359	44.14
848.531	39.64
848.703	39.9
848.875	42.12
849.047	39.21
849.218	36.52
849.39	38.86
849.562	35.02
849.734	36.3
849.905	37.49
850.077	35.22
850.249	35.14
850.421	39.57
850.592	36.18
850.764	36.32
850.936	38.39
851.107	36.44
851.279	36.64
851.451	42.02
851.622	43.2
851.794	38.8
851.965	43.61
852.137	48.06
852.308	44.16
852.48	48.94
852.651	48.6
852.823	49.25
852.994	49.2
853.166	46.45
853.337	45.92
853.509	44.13
853.68	48.48
853.851	45.57
854.023	43.95
854.194	42.85
854.365	36.69
854.537	38.72
854.708	41.06
854.879	40.86
855.05	43.37
855.222	44.96
855.393	45.92
855.564	45.12
855.735	46.67
855.906	45.56
856.078	46.43
856.249	50.2
856.42	46.61
856.591	45.41
856.762	48.88
856.933	45.48
857.104	44.09
857.275	42.8
857.446	40.01
857.617	40.33
857.788	43.19
857.959	44.1
858.13	45.3
858.301	48.46
858.472	44.93
858.643	43.49
858.814	46.12
858.985	46.09
859.155	50.8
859.326	51.93
859.497	50.72
859.668	48.57
859.839	48.8
860.009	47.22
860.18	47.19
860.351	48.66
860.522	45.26
860.692	44.23
860.863	40.52
861.034	36.08
861.204	35.88
861.375	38.91
861.546	38.96
861.716	37.88
861.887	39.52
862.057	35.49
862.228	36.1
862.398	38.95
862.569	39.67
862.739	44.94
862.91	43.8
863.08	45.18
863.251	44.1
863.421	44.75
863.592	45.28
863.762	43.59
863.932	44.56
864.103	43.1
864.273	48.32
864.443	46.81
864.614	46.81
864.784	48.89
864.954	53.01
865.125	50.68
865.295	53.79
865.465	53.13
865.635	53.5
865.805	57.06
865.976	60.22
866.146	56.7
866.316	58.86
866.486	56.12
866.656	56.38
866.826	52.14
866.996	51.97
867.166	49.58
867.336	53.02
867.506	53.69
867.676	50.29
867.846	52.05
868.016	50.45
868.186	50.22
868.356	51.75
868.526	50.91
868.696	53.23
868.866	58.27
869.036	60.97
869.206	60.54
869.376	60.18
869.545	60.03
869.715	54.28
869.885	52.82
870.055	52.42
870.224	50.08
870.394	49.5
870.564	50.05
870.734	43.98
870.903	41.54
871.073	37.15
871.243	38.25
871.412	42.68
871.582	46.23
871.751	45.73
871.921	45.49
872.091	46.42
872.26	45.85
872.43	47.62
872.599	48.49
872.769	47.59
872.938	48.54
873.108	46.37
873.277	41.69
873.446	38.85
873.616	40.19
873.785	44.66
873.955	41.46
874.124	41.46
874.293	40.2
874.463	40.77
874.632	40.02
874.801	41.82
874.971	41.64
875.14	47.13
875.309	47.84
875.478	49.7
875.647	43.12
875.817	42.94
875.986	44.14
876.155	41.77
876.324	46.66
876.493	46.74
876.662	45.64
876.831	44.75
877	41.75
877.17	42.16
877.339	39.27
877.508	42.23
877.677	44.38
877.846	45.06
878.015	43.19
878.184	39.08
878.352	39.49
878.521	40.04
878.69	38.32
878.859	38.67
879.028	40.2
879.197	40.37
879.366	37.44
879.534	37.62
879.703	36.34
879.872	36.78
880.041	36.06
880.21	34.21
880.378	34.45
880.547	34.25
880.716	34.25
880.884	33.59
881.053	33.11
881.222	33.24
881.39	32.66
881.559	32.21
881.727	32.03
881.896	31.59
882.065	32.19
882.233	31.72
882.402	32.36
882.57	31.61
882.739	31.06
882.907	31.11
883.076	30.89
883.244	31.05
883.412	31.29
883.581	32.03
883.749	32.81
883.918	32.48
884.086	33.35
884.254	32.99
884.423	33.98
884.591	35.02
884.759	34.48
884.927	35.6
885.096	35.4
885.264	36.63
885.432	37.52
885.6	38.06
885.769	38.22
885.937	36.2
886.105	37.43
886.273	37.81
886.441	37.91
886.609	40.26
886.777	39.49
886.945	41.27
887.113	40.61
887.281	39.04
887.449	39.94
887.617	42.23
887.785	45.43
887.953	45.39
888.121	45.54
888.289	46.05
888.457	46.78
888.625	46.79
888.793	46.2
888.961	45.3
889.129	43.87
889.296	44.15
889.464	44.33
889.632	43.45
889.8	44.07
889.967	42.56
890.135	40.79
