Data from 2938467_Reflection_3.txt Node
Date: Wed Jun 17 13:45:40 EDT 2015
User: robert
Spectrometer: USB4E03002
Autoset integration time: false
Trigger mode: 4
Integration Time (sec): 1.000000E-1
Scans to average: 10
Electric dark correction enabled: true
Nonlinearity correction enabled: false
Boxcar width: 5
Stray light correction enabled: false
XAxis mode: Wavelengths
Stop averaging: false
Number of Pixels in Spectrum: 3648
>>>>>Begin Spectral Data<<<<<
177.575	-33.64
177.794	-156.34
178.014	-76.13
178.233	-158.1
178.452	231.08
178.672	205.54
178.891	39.81
179.11	-126.46
179.33	2669.79
179.549	-6151.85
179.768	-366
179.987	-96.03
180.207	-691.33
180.426	-194.57
180.645	147.95
180.864	118.3
181.084	106.53
181.303	137.73
181.522	98.84
181.741	76.51
181.96	131.96
182.179	156.61
182.398	130.34
182.618	111.76
182.837	138.04
183.056	490.82
183.275	432.17
183.494	442.88
183.713	369.66
183.932	3330.75
184.151	1205.76
184.37	457.61
184.589	250.63
184.808	192.92
185.027	656.62
185.246	272.61
185.465	155
185.684	133.12
185.903	170.61
186.122	109.27
186.341	66.69
186.56	55.37
186.779	108.45
186.998	106.63
187.216	114.43
187.435	93.79
187.654	99.93
187.873	119.6
188.092	127.78
188.311	97.19
188.53	103.26
188.748	98.27
188.967	104.65
189.186	88.31
189.405	127.23
189.623	68.47
189.842	106.76
190.061	-402
190.28	47.06
190.498	129.19
190.717	113.68
190.936	96.24
191.154	42.23
191.373	72.47
191.592	108.14
191.81	45.74
192.029	-2.04
192.248	205.68
192.466	208.05
192.685	106.64
192.904	152.21
193.122	150.99
193.341	158.98
193.559	191.12
193.778	171.07
193.996	215.74
194.215	189.93
194.433	180.3
194.652	158.58
194.87	148.82
195.089	183.5
195.307	145.79
195.526	283.92
195.744	202
195.963	154.81
196.181	147.53
196.399	114.24
196.618	128.94
196.836	142.58
197.055	131.38
197.273	105.44
197.491	101.81
197.71	103.19
197.928	97.42
198.146	91.15
198.365	81.38
198.583	69.89
198.801	62.58
199.019	69.26
199.238	61.18
199.456	43.47
199.674	28.59
199.892	35.2
200.111	27.57
200.329	50.53
200.547	72.12
200.765	71.93
200.983	93.69
201.202	81.07
201.42	103.85
201.638	104.88
201.856	90.65
202.074	108.33
202.292	98.46
202.51	95.2
202.728	87.71
202.946	85.27
203.165	80.4
203.383	74.69
203.601	99
203.819	91.4
204.037	92.97
204.255	111.75
204.473	107.22
204.691	112.33
204.909	114.04
205.127	82.12
205.345	79.24
205.562	83.54
205.78	96.89
205.998	75.57
206.216	73.79
206.434	88.35
206.652	71.4
206.87	75.79
207.088	71.88
207.306	71.4
207.523	83.89
207.741	84.75
207.959	87.02
208.177	72.86
208.395	66.74
208.612	58.66
208.83	27.37
209.048	38.34
209.266	37.28
209.483	39.44
209.701	42.44
209.919	38.41
210.136	33.3
210.354	28.21
210.572	42.25
210.79	38.02
211.007	47.82
211.225	54.32
211.442	59.68
211.66	73.43
211.878	62.64
212.095	58.91
212.313	61.99
212.53	59.34
212.748	76.07
212.966	62.97
213.183	63.79
213.401	54.46
213.618	40.66
213.836	38.44
214.053	26.4
214.271	24.42
214.488	28.52
214.705	22.82
214.923	19.64
215.14	22.61
215.358	27.65
215.575	32.58
215.793	37.34
216.01	41.44
216.227	52.89
216.445	57.73
216.662	74.12
216.879	68.63
217.097	66.07
217.314	70.47
217.531	55.87
217.749	65.42
217.966	55.34
218.183	28.54
218.4	23.25
218.618	14.4
218.835	-26.94
219.052	-21.87
219.269	-47
219.487	-42.7
219.704	-25.85
219.921	-10.48
220.138	-14.63
220.355	-5.74
220.572	1.14
220.79	13.66
221.007	14.13
221.224	29.28
221.441	27.4
221.658	26.05
221.875	34.43
222.092	36.23
222.309	43.37
222.526	43.24
222.743	46.11
222.96	47.42
223.177	44.11
223.394	40.91
223.611	36.24
223.828	39.07
224.045	40.46
224.262	32.75
224.479	26.07
224.696	25.33
224.913	23.76
225.13	21.83
225.347	20.36
225.564	19.7
225.781	19.99
225.997	20.16
226.214	18.55
226.431	17.29
226.648	17.69
226.865	18.45
227.082	18.69
227.298	19.03
227.515	18.23
227.732	17.94
227.949	17.7
228.165	17.6
228.382	16.93
228.599	17.26
228.816	17.03
229.032	16.85
229.249	16.74
229.466	16.54
229.682	15.59
229.899	17.19
230.116	18.31
230.332	16.57
230.549	15.68
230.765	17.22
230.982	15.88
231.199	17.86
231.415	18.89
231.632	19.68
231.848	20.16
232.065	19.99
232.281	17.58
232.498	14.98
232.714	16.94
232.931	16.83
233.147	14.87
233.364	12.7
233.58	12.31
233.797	13.36
234.013	12.14
234.23	9.68
234.446	8.84
234.662	9.27
234.879	10
235.095	10.14
235.312	12.81
235.528	13.24
235.744	15.26
235.961	14.86
236.177	10.7
236.393	11.59
236.61	11.58
236.826	12.39
237.042	12.64
237.258	14.86
237.475	13.47
237.691	11.88
237.907	11.24
238.123	11.73
238.339	12.98
238.556	15.92
238.772	14.87
238.988	15.32
239.204	13.87
239.42	13.97
239.636	13.71
239.853	13.82
240.069	13.69
240.285	13.53
240.501	13.7
240.717	13.23
240.933	12.18
241.149	12.67
241.365	12.73
241.581	13.22
241.797	13.33
242.013	13.34
242.229	14.2
242.445	14.61
242.661	14.65
242.877	14.8
243.093	14.61
243.309	14.74
243.525	14.23
243.741	13.34
243.957	12.67
244.173	12.42
244.388	11.72
244.604	11.07
244.82	10.61
245.036	10.85
245.252	10.17
245.468	10.14
245.683	10.45
245.899	10.45
246.115	10.45
246.331	10.48
246.547	10.08
246.762	9.95
246.978	9.89
247.194	10.15
247.409	10.06
247.625	10.18
247.841	10.09
248.057	9.66
248.272	10.06
248.488	10.22
248.703	9.84
248.919	9.92
249.135	10.1
249.35	10.71
249.566	10.77
249.782	10.63
249.997	10.32
250.213	9.9
250.428	9.47
250.644	8.89
250.859	9.05
251.075	10.34
251.29	11.49
251.506	11.4
251.721	11.34
251.937	10.88
252.152	10.28
252.368	11.55
252.583	12.93
252.798	13.63
253.014	14.34
253.229	14.77
253.445	13.99
253.66	13.43
253.875	13.59
254.091	13.27
254.306	13.42
254.521	13.7
254.737	12.21
254.952	10.13
255.167	9.63
255.383	9.31
255.598	8.37
255.813	8.47
256.028	8.06
256.244	8.41
256.459	7.66
256.674	7.56
256.889	7.77
257.104	8.18
257.32	8.6
257.535	8.46
257.75	8.05
257.965	8
258.18	7.62
258.395	7.74
258.61	7.48
258.826	7.65
259.041	7.53
259.256	7.49
259.471	7.6
259.686	7.69
259.901	7.74
260.116	7.92
260.331	8.49
260.546	8.92
260.761	8.39
260.976	8.96
261.191	8.75
261.406	9.13
261.621	8.78
261.836	8.49
262.05	8.3
262.265	8.52
262.48	8.41
262.695	6.68
262.91	7.34
263.125	7.36
263.34	7.02
263.555	7.33
263.769	7.56
263.984	8.04
264.199	8.11
264.414	7.4
264.629	7.71
264.843	7.86
265.058	7.72
265.273	7.72
265.488	8.38
265.702	8.19
265.917	7.99
266.132	8.03
266.346	8.46
266.561	8.55
266.776	9.22
266.99	8.89
267.205	8.67
267.42	8.81
267.634	8.55
267.849	8.27
268.063	8.36
268.278	9.25
268.492	8.93
268.707	8.12
268.922	7.59
269.136	7.22
269.351	7.23
269.565	7.81
269.78	7.82
269.994	8.16
270.209	8.05
270.423	8.26
270.637	7.59
270.852	7.93
271.066	8.28
271.281	8.38
271.495	8.36
271.709	8.53
271.924	7.77
272.138	8.3
272.353	7.77
272.567	7.78
272.781	7.31
272.996	7.41
273.21	7.16
273.424	7.21
273.638	6.93
273.853	7.41
274.067	7.82
274.281	8.38
274.495	8.39
274.71	8.41
274.924	8.22
275.138	8.28
275.352	7.78
275.566	7.08
275.781	6.51
275.995	7.16
276.209	6.34
276.423	5.67
276.637	5.09
276.851	5.29
277.065	5.45
277.279	6.08
277.493	6.04
277.707	7.14
277.921	7.62
278.135	7.79
278.349	7.73
278.563	8.05
278.777	7.99
278.991	7.59
279.205	7.25
279.419	7.24
279.633	6.79
279.847	7.13
280.061	6.76
280.275	6.78
280.489	6.81
280.703	6.85
280.917	6.91
281.131	7.36
281.344	7.85
281.558	7.64
281.772	7.68
281.986	7.53
282.2	7.03
282.414	7.01
282.627	6.89
282.841	7.28
283.055	6.88
283.269	6.87
283.482	6.53
283.696	6.61
283.91	6.77
284.123	6.43
284.337	6.58
284.551	6.86
284.764	7.19
284.978	7.24
285.192	7.18
285.405	7.81
285.619	7.95
285.833	8.14
286.046	7.77
286.26	8.26
286.473	8.37
286.687	8.56
286.9	8.67
287.114	7.87
287.327	7.84
287.541	7.63
287.754	7.32
287.968	7.11
288.181	6.65
288.395	7.31
288.608	7.16
288.822	7.24
289.035	6.81
289.248	6.86
289.462	7.47
289.675	7.32
289.889	7.49
290.102	7.23
290.315	7.29
290.529	7.79
290.742	7.51
290.955	7.53
291.169	7.45
291.382	8.02
291.595	7.96
291.808	7.81
292.022	8.29
292.235	8.01
292.448	8.5
292.661	9.02
292.875	9.04
293.088	9.24
293.301	9.31
293.514	9.22
293.727	9.65
293.94	9.72
294.153	9.65
294.367	9.47
294.58	9.28
294.793	9.1
295.006	9.27
295.219	9.72
295.432	9.71
295.645	9.81
295.858	10.05
296.071	9.42
296.284	9.29
296.497	9.32
296.71	9.54
296.923	9.95
297.136	9.72
297.349	9.62
297.562	9.18
297.775	9.36
297.988	9.08
298.201	9.22
298.414	9.62
298.626	9.63
298.839	10.13
299.052	9.59
299.265	9.32
299.478	9.63
299.691	9.48
299.903	9.35
300.116	9.32
300.329	9.17
300.542	9.24
300.755	9.39
300.967	9.88
301.18	9.8
301.393	10.15
301.605	10.6
301.818	10.66
302.031	11.36
302.243	11.47
302.456	12.05
302.669	12.36
302.881	12.14
303.094	12.18
303.307	12.26
303.519	12.64
303.732	13.26
303.944	13.51
304.157	13.87
304.37	13.36
304.582	13.7
304.795	13.47
305.007	13.72
305.22	14.34
305.432	14.51
305.645	13.95
305.857	13.42
306.069	12.98
306.282	12.71
306.494	12.68
306.707	12.9
306.919	13.05
307.132	13.05
307.344	12.84
307.556	13.17
307.769	13.28
307.981	13.58
308.193	13.54
308.406	13.37
308.618	13.62
308.83	13.74
309.043	13.51
309.255	13.43
309.467	12.94
309.679	13.15
309.892	12.87
310.104	12.58
310.316	12.79
310.528	13.01
310.74	13.46
310.953	13.19
311.165	12.85
311.377	12.97
311.589	13.27
311.801	13.85
312.013	13.84
312.225	13.94
312.437	14.2
312.649	14.34
312.862	14.43
313.074	14.92
313.286	15.37
313.498	15.89
313.71	16.27
313.922	16.06
314.134	15.74
314.346	15.31
314.558	15.48
314.77	15.86
314.982	16.01
315.193	16.18
315.405	15.46
315.617	15.44
315.829	15.57
316.041	15.66
316.253	15.79
316.465	16.22
316.677	16.7
316.888	16.54
317.1	16.98
317.312	17
317.524	17.18
317.736	18.13
317.947	17.75
318.159	17.45
318.371	17.35
318.583	17.36
318.794	17.33
319.006	17.6
319.218	17.63
319.43	17.13
319.641	17.09
319.853	17.05
320.064	16.77
320.276	17.33
320.488	17.39
320.699	17.68
320.911	17.57
321.123	17.21
321.334	17.6
321.546	17.52
321.757	17.48
321.969	17.55
322.18	17.58
322.392	17.51
322.603	17.55
322.815	17.77
323.026	17.54
323.238	17.88
323.449	18.52
323.661	18
323.872	18.23
324.083	18.42
324.295	18.69
324.506	18.93
324.718	19.18
324.929	19.72
325.14	19.96
325.352	19.83
325.563	19.84
325.774	20.11
325.986	21.09
326.197	21.26
326.408	21.58
326.62	21.56
326.831	21.77
327.042	21.7
327.253	21.52
327.464	21.34
327.676	21.93
327.887	22.11
328.098	22.29
328.309	22.04
328.52	22.24
328.732	22.25
328.943	22.51
329.154	22.17
329.365	21.97
329.576	21.92
329.787	22.6
329.998	22.78
330.209	23.14
330.42	23.04
330.631	23.49
330.842	23.77
331.053	24.32
331.264	24.55
331.475	24.83
331.686	25.79
331.897	25.9
332.108	25.81
332.319	26
332.53	25.87
332.741	25.86
332.952	25.4
333.163	25.82
333.374	25.45
333.585	25.36
333.795	25.53
334.006	25.43
334.217	25.58
334.428	25.5
334.639	25.35
334.849	25.53
335.06	25.82
335.271	26.32
335.482	25.52
335.692	25.58
335.903	25.67
336.114	25.89
336.325	26.03
336.535	26.04
336.746	26.33
336.957	26.07
337.167	26.35
337.378	26.22
337.589	26.01
337.799	26.59
338.01	26.8
338.22	26.73
338.431	26.66
338.642	26.38
338.852	26.43
339.063	26.73
339.273	27.3
339.484	27.04
339.694	27.09
339.905	27.15
340.115	27.35
340.326	27.13
340.536	27.42
340.746	27.12
340.957	27.26
341.167	27.5
341.378	26.89
341.588	26.79
341.799	27.04
342.009	26.9
342.219	27.02
342.43	27.07
342.64	27.11
342.85	27.16
343.061	27.35
343.271	27.16
343.481	27.08
343.691	27.46
343.902	27.13
344.112	26.81
344.322	27.11
344.532	27.02
344.743	26.64
344.953	26.77
345.163	26.6
345.373	26.3
345.583	26.36
345.793	26.26
346.004	26.38
346.214	26.75
346.424	27.02
346.634	27.02
346.844	26.92
347.054	26.94
347.264	26.86
347.474	26.55
347.684	26.77
347.894	26.95
348.104	27.03
348.314	27.07
348.524	27.12
348.734	27.07
348.944	27.01
349.154	27.12
349.364	27.25
349.574	26.86
349.784	27.14
349.994	27.39
350.204	27.21
350.413	27.62
350.623	27.61
350.833	27.88
351.043	27.75
351.253	27.75
351.463	27.46
351.672	27.53
351.882	28.34
352.092	28.37
352.302	28.4
352.511	28.43
352.721	28.02
352.931	27.67
353.141	27.17
353.35	27.22
353.56	27.18
353.77	27.48
353.979	27.29
354.189	26.87
354.399	26.85
354.608	26.53
354.818	26.37
355.027	26.24
355.237	26.12
355.447	25.87
355.656	25.72
355.866	25.61
356.075	25.38
356.285	25.36
356.494	25.22
356.704	24.96
356.913	24.96
357.123	25.16
357.332	25.1
357.542	25
357.751	25.26
357.96	25.12
358.17	25.08
358.379	25.1
358.589	25.12
358.798	25.05
359.007	25.02
359.217	25.08
359.426	25.02
359.635	24.95
359.845	25.03
360.054	24.9
360.263	25.04
360.472	24.8
360.682	24.67
360.891	24.77
361.1	24.92
361.309	24.94
361.519	24.82
361.728	24.69
361.937	24.76
362.146	24.77
362.355	24.75
362.564	24.85
362.774	25.15
362.983	25.12
363.192	24.76
363.401	24.53
363.61	24.6
363.819	24.77
364.028	24.64
364.237	24.74
364.446	24.62
364.655	24.54
364.864	24.29
365.073	24.03
365.282	24.03
365.491	24.19
365.7	24.21
365.909	24.06
366.118	24.24
366.327	23.99
366.536	23.87
366.745	23.94
366.954	23.97
367.162	24.07
367.371	24.28
367.58	24.28
367.789	24.28
367.998	24.31
368.207	24.49
368.415	23.9
368.624	24.42
368.833	24.36
369.042	24.21
369.25	24.16
369.459	24.18
369.668	23.82
369.877	24.01
370.085	23.88
370.294	23.7
370.503	23.22
370.711	23.44
370.92	22.96
371.129	22.8
371.337	22.95
371.546	22.73
371.754	22.57
371.963	22.63
372.171	22.19
372.38	22.06
372.589	22.19
372.797	22.57
373.006	22.32
373.214	22.6
373.423	22.66
373.631	22.46
373.84	22.52
374.048	22.54
374.256	22.61
374.465	22.7
374.673	22.7
374.882	22.54
375.09	22.04
375.298	21.96
375.507	21.85
375.715	21.7
375.923	21.69
376.132	21.65
376.34	21.58
376.548	21.56
376.757	21.57
376.965	21.79
377.173	21.55
377.381	21.79
377.59	21.9
377.798	21.81
378.006	21.77
378.214	21.65
378.423	21.68
378.631	21.43
378.839	21.29
379.047	21.18
379.255	20.95
379.463	21.08
379.671	20.81
379.879	20.67
380.088	20.68
380.296	20.47
380.504	20.55
380.712	20.48
380.92	20.56
381.128	20.54
381.336	20.17
381.544	19.97
381.752	19.83
381.96	19.93
382.168	19.85
382.376	19.75
382.584	19.81
382.791	19.73
382.999	19.78
383.207	19.67
383.415	19.73
383.623	20.21
383.831	20.43
384.039	20.52
384.247	20.56
384.454	20.6
384.662	20.59
384.87	20.62
385.078	20.61
385.285	20.32
385.493	20.29
385.701	20.22
385.909	20.04
386.116	19.94
386.324	19.54
386.532	19.29
386.739	19.17
386.947	19.32
387.155	19.35
387.362	19.44
387.57	19.61
387.778	19.71
387.985	19.65
388.193	19.57
388.4	19.38
388.608	19.79
388.816	19.77
389.023	19.78
389.231	19.35
389.438	19.24
389.646	19.09
389.853	18.86
390.061	18.55
390.268	18.41
390.475	18.47
390.683	18.42
390.89	18.21
391.098	18.32
391.305	18.23
391.512	18.36
391.72	18.44
391.927	18.55
392.135	18.56
392.342	18.83
392.549	18.89
392.756	18.81
392.964	18.9
393.171	18.82
393.378	18.62
393.586	18.69
393.793	18.74
394	18.54
394.207	18.36
394.414	18.62
394.622	18.38
394.829	18.32
395.036	18.31
395.243	18.06
395.45	18.44
395.657	18.52
395.864	18.37
396.072	18.3
396.279	18.28
396.486	18.18
396.693	18.12
396.9	18.08
397.107	18.11
397.314	18.09
397.521	18.12
397.728	17.9
397.935	17.98
398.142	18.09
398.349	17.85
398.556	17.95
398.763	17.9
398.97	17.8
399.177	18.02
399.383	18.01
399.59	17.88
399.797	17.93
400.004	17.82
400.211	17.76
400.418	17.73
400.625	17.86
400.831	17.72
401.038	17.58
401.245	17.66
401.452	17.52
401.658	17.4
401.865	17.33
402.072	17.2
402.279	17.18
402.485	17.12
402.692	17.25
402.899	17.22
403.105	17.18
403.312	17.24
403.519	17.11
403.725	17
403.932	17.07
404.138	17.24
404.345	17.41
404.552	17.36
404.758	17.46
404.965	17.25
405.171	17.25
405.378	17.34
405.584	17.35
405.791	17.18
405.997	17.4
406.204	17.21
406.41	17.08
406.617	17.11
406.823	17.34
407.029	17.25
407.236	17.32
407.442	17.26
407.649	17.31
407.855	17.29
408.061	17.32
408.268	17.2
408.474	17.25
408.68	17.31
408.887	17.17
409.093	17.04
409.299	16.98
409.505	16.82
409.712	16.94
409.918	16.8
410.124	16.61
410.33	16.68
410.537	16.63
410.743	16.59
410.949	16.37
411.155	16.32
411.361	16.41
411.567	16.35
411.773	16.36
411.98	16.24
412.186	16.24
412.392	16.46
412.598	16.4
412.804	16.19
413.01	16.27
413.216	16.49
413.422	16.59
413.628	16.45
413.834	16.43
414.04	16.34
414.246	16.27
414.452	16.22
414.658	16.21
414.864	16.08
415.07	16.12
415.275	16.18
415.481	16.11
415.687	15.93
415.893	15.83
416.099	15.65
416.305	15.74
416.511	15.86
416.716	15.9
416.922	15.87
417.128	15.96
417.334	15.97
417.539	15.79
417.745	15.65
417.951	15.68
418.157	15.67
418.362	15.7
418.568	15.61
418.774	15.43
418.979	15.31
419.185	15.28
419.391	15.19
419.596	15.17
419.802	15.12
420.008	15.15
420.213	15.6
420.419	15.52
420.624	15.5
420.83	15.48
421.035	15.44
421.241	15.44
421.446	15.35
421.652	15.31
421.857	15.26
422.063	15.28
422.268	15.24
422.474	14.77
422.679	14.82
422.885	14.88
423.09	14.74
423.295	14.75
423.501	14.73
423.706	14.75
423.911	14.74
424.117	14.78
424.322	14.77
424.527	14.83
424.733	14.85
424.938	14.92
425.143	14.94
425.349	15.06
425.554	15.08
425.759	15.07
425.964	15.05
426.169	15.17
426.375	15.15
426.58	15.18
426.785	15.21
426.99	15.16
427.195	14.95
427.4	14.81
427.605	14.85
427.811	14.84
428.016	14.95
428.221	15.06
428.426	14.87
428.631	14.91
428.836	14.83
429.041	14.69
429.246	14.61
429.451	14.66
429.656	14.76
429.861	14.76
430.066	14.86
430.271	14.81
430.476	14.87
430.681	15.04
430.886	14.93
431.09	14.91
431.295	14.89
431.5	14.82
431.705	14.82
431.91	14.87
432.115	14.9
432.32	14.83
432.524	14.86
432.729	14.72
432.934	14.7
433.139	14.73
433.343	14.87
433.548	14.93
433.753	15
433.958	14.98
434.162	14.91
434.367	14.85
434.572	15
434.776	14.93
434.981	14.95
435.186	14.8
435.39	14.86
435.595	14.85
435.799	14.92
436.004	14.94
436.209	14.95
436.413	14.87
436.618	14.78
436.822	14.69
437.027	14.71
437.231	14.79
437.436	14.83
437.64	14.91
437.845	14.84
438.049	14.87
438.253	14.88
438.458	14.92
438.662	15.1
438.867	15.15
439.071	15.27
439.275	15.33
439.48	15.2
439.684	15.26
439.888	15.16
440.093	15.23
440.297	15.14
440.501	15.09
440.706	15.13
440.91	15.03
441.114	15.1
441.318	14.93
441.523	14.9
441.727	14.97
441.931	15.13
442.135	15.17
442.339	15.06
442.543	15.1
442.748	15.1
442.952	15
443.156	14.98
443.36	14.9
443.564	14.96
443.768	14.91
443.972	14.91
444.176	14.85
444.38	14.76
444.584	14.72
444.788	14.63
444.992	14.66
445.196	14.74
445.4	14.75
445.604	14.71
445.808	14.76
446.012	14.82
446.216	14.77
446.42	14.65
446.624	14.69
446.828	14.74
447.032	14.73
447.235	14.76
447.439	14.67
447.643	14.69
447.847	14.68
448.051	14.67
448.254	14.63
448.458	14.69
448.662	14.81
448.866	14.85
449.069	14.84
449.273	14.83
449.477	14.83
449.681	14.84
449.884	14.79
450.088	14.93
450.292	14.82
450.495	14.76
450.699	14.74
450.902	14.68
451.106	14.66
451.31	14.6
451.513	14.72
451.717	14.61
451.92	14.57
452.124	14.58
452.327	14.4
452.531	14.49
452.734	14.48
452.938	14.47
453.141	14.47
453.345	14.35
453.548	14.41
453.752	14.36
453.955	14.47
454.158	14.47
454.362	14.4
454.565	14.55
454.769	14.54
454.972	14.63
455.175	14.63
455.379	14.6
455.582	14.64
455.785	14.68
455.988	14.78
456.192	14.72
456.395	14.8
456.598	14.88
456.801	14.83
457.005	14.75
457.208	14.72
457.411	14.64
457.614	14.58
457.817	14.58
458.021	14.51
458.224	14.47
458.427	14.41
458.63	14.38
458.833	14.34
459.036	14.34
459.239	14.38
459.442	14.32
459.645	14.39
459.848	14.43
460.051	14.45
460.254	14.57
460.457	14.53
460.66	14.59
460.863	14.68
461.066	14.72
461.269	14.75
461.472	14.81
461.675	14.79
461.878	14.73
462.081	14.86
462.284	14.99
462.486	14.86
462.689	14.92
462.892	14.98
463.095	14.96
463.298	15.01
463.5	15.06
463.703	15.02
463.906	15.12
464.109	15.09
464.311	15.05
464.514	15.03
464.717	15.27
464.92	15.34
465.122	15.38
465.325	15.3
465.528	15.29
465.73	15.32
465.933	15.36
466.135	15.42
466.338	15.54
466.541	15.57
466.743	15.5
466.946	15.49
467.148	15.46
467.351	15.42
467.553	15.47
467.756	15.48
467.958	15.5
468.161	15.54
468.363	15.47
468.566	15.5
468.768	15.5
468.971	15.55
469.173	15.54
469.375	15.48
469.578	15.41
469.78	15.51
469.983	15.5
470.185	15.56
470.387	15.38
470.59	15.55
470.792	15.46
470.994	15.39
471.196	15.34
471.399	15.2
471.601	15.28
471.803	15.5
472.005	15.46
472.208	15.5
472.41	15.39
472.612	15.44
472.814	15.3
473.016	15.47
473.218	15.54
473.421	15.52
473.623	15.66
473.825	15.63
474.027	15.48
474.229	15.46
474.431	15.4
474.633	15.41
474.835	15.46
475.037	15.45
475.239	15.31
475.441	15.32
475.643	15.35
475.845	15.32
476.047	15.34
476.249	15.36
476.451	15.31
476.653	15.31
476.855	15.35
477.057	15.33
477.258	15.29
477.46	15.32
477.662	15.19
477.864	15.22
478.066	15.19
478.268	15.2
478.469	15.21
478.671	15.21
478.873	15.32
479.075	15.27
479.276	15.3
479.478	15.34
479.68	15.43
479.882	15.42
480.083	15.33
480.285	15.31
480.487	15.22
480.688	15.16
480.89	15.06
481.091	14.99
481.293	14.91
481.495	14.82
481.696	14.79
481.898	14.7
482.099	14.68
482.301	14.64
482.502	14.58
482.704	14.58
482.905	14.54
483.107	14.55
483.308	14.52
483.51	14.54
483.711	14.56
483.913	14.57
484.114	14.6
484.315	14.62
484.517	14.63
484.718	14.65
484.92	14.62
485.121	14.63
485.322	14.65
485.524	14.61
485.725	14.6
485.926	14.58
486.127	14.57
486.329	14.53
486.53	14.51
486.731	14.53
486.932	14.58
487.134	14.6
487.335	14.64
487.536	14.67
487.737	14.76
487.938	14.85
488.139	14.88
488.341	14.92
488.542	14.98
488.743	15.05
488.944	15.1
489.145	15.11
489.346	15.12
489.547	15.13
489.748	15.12
489.949	15.09
490.15	15.06
490.351	15.08
490.552	15.06
490.753	15.07
490.954	15.11
491.155	15.13
491.356	15.13
491.557	15.18
491.758	15.22
491.959	15.31
492.159	15.39
492.36	15.4
492.561	15.5
492.762	15.56
492.963	15.64
493.164	15.67
493.364	15.74
493.565	15.78
493.766	15.85
493.967	15.96
494.167	15.89
494.368	15.86
494.569	15.91
494.769	15.87
494.97	15.89
495.171	15.91
495.371	15.99
495.572	16.05
495.773	16.04
495.973	15.98
496.174	15.97
496.375	16.08
496.575	16.08
496.776	16.11
496.976	16.23
497.177	16.25
497.377	16.26
497.578	16.26
497.778	16.32
497.979	16.5
498.179	16.55
498.38	16.55
498.58	16.59
498.78	16.73
498.981	16.86
499.181	16.87
499.382	16.95
499.582	17.04
499.782	17.14
499.983	17.14
500.183	17.13
500.383	17.29
500.584	17.35
500.784	17.47
500.984	17.45
501.184	17.38
501.385	17.49
501.585	17.59
501.785	17.6
501.985	17.54
502.185	17.57
502.386	17.65
502.586	17.61
502.786	17.78
502.986	17.74
503.186	17.81
503.386	17.81
503.586	17.82
503.786	17.9
503.987	18
504.187	18.11
504.387	18.19
504.587	18.23
504.787	18.32
504.987	18.24
505.187	18.34
505.387	18.44
505.587	18.63
505.786	18.75
505.986	18.77
506.186	18.76
506.386	18.73
506.586	18.79
506.786	18.85
506.986	18.91
507.186	19.1
507.386	19.22
507.585	19.34
507.785	19.43
507.985	19.44
508.185	19.47
508.384	19.58
508.584	19.69
508.784	19.72
508.984	19.82
509.183	19.88
509.383	19.98
509.583	20.15
509.782	20.2
509.982	20.29
510.182	20.39
510.381	20.5
510.581	20.63
510.781	20.79
510.98	20.89
511.18	20.99
511.379	21.12
511.579	21.07
511.778	20.97
511.978	21.02
512.177	21.06
512.377	21.2
512.576	21.32
512.776	21.36
512.975	21.43
513.175	21.57
513.374	21.65
513.573	21.76
513.773	21.91
513.972	22.06
514.172	22.22
514.371	22.32
514.57	22.43
514.77	22.52
514.969	22.64
515.168	22.77
515.367	22.93
515.567	23.03
515.766	23.06
515.965	23.17
516.164	23.21
516.364	23.26
516.563	23.4
516.762	23.38
516.961	23.45
517.16	23.5
517.359	23.45
517.559	23.44
517.758	23.52
517.957	23.61
518.156	23.64
518.355	23.76
518.554	23.81
518.753	23.82
518.952	23.91
519.151	23.95
519.35	24.02
519.549	24.21
519.748	24.32
519.947	24.34
520.146	24.44
520.345	24.61
520.544	24.69
520.743	24.77
520.942	24.92
521.141	25.01
521.339	25.11
521.538	25.3
521.737	25.33
521.936	25.42
522.135	25.55
522.333	25.59
522.532	25.69
522.731	25.85
522.93	26.03
523.129	26.05
523.327	26.12
523.526	26.17
523.725	26.2
523.923	26.32
524.122	26.44
524.321	26.44
524.519	26.54
524.718	26.57
524.917	26.58
525.115	26.57
525.314	26.61
525.512	26.69
525.711	26.82
525.909	26.87
526.108	26.93
526.306	26.91
526.505	26.92
526.703	26.93
526.902	26.93
527.1	26.91
527.299	26.91
527.497	26.92
527.696	26.93
527.894	26.93
528.092	26.93
528.291	26.92
528.489	26.95
528.688	27
528.886	27.06
529.084	27.12
529.283	27.22
529.481	27.4
529.679	27.55
529.877	27.69
530.076	27.81
530.274	27.95
530.472	28.09
530.67	28.26
530.869	28.37
531.067	28.42
531.265	28.48
531.463	28.48
531.661	28.42
531.859	28.44
532.057	28.42
532.255	28.37
532.454	28.4
532.652	28.45
532.85	28.42
533.048	28.41
533.246	28.41
533.444	28.43
533.642	28.5
533.84	28.54
534.038	28.56
534.236	28.66
534.434	28.82
534.632	28.86
534.83	28.95
535.027	29.04
535.225	29.16
535.423	29.26
535.621	29.31
535.819	29.32
536.017	29.4
536.215	29.46
536.412	29.55
536.61	29.6
536.808	29.62
537.006	29.62
537.203	29.64
537.401	29.68
537.599	29.76
537.797	29.92
537.994	30.02
538.192	30.16
538.39	30.29
538.587	30.33
538.785	30.29
538.983	30.25
539.18	30.3
539.378	30.27
539.575	30.28
539.773	30.31
539.97	30.21
540.168	30.23
540.366	30.12
540.563	30.05
540.761	29.95
540.958	29.97
541.155	30.03
541.353	29.95
541.55	29.98
541.748	30.01
541.945	29.97
542.143	30.04
542.34	30.07
542.537	30.17
542.735	30.24
542.932	30.4
543.129	30.46
543.327	30.54
543.524	30.67
543.721	30.8
543.919	30.93
544.116	30.96
544.313	31.06
544.51	31.1
544.708	31.17
544.905	31.28
545.102	31.25
545.299	31.29
545.496	31.31
545.693	31.35
545.891	31.35
546.088	31.31
546.285	31.36
546.482	31.38
546.679	31.48
546.876	31.54
547.073	31.62
547.27	31.75
547.467	31.84
547.664	32.03
547.861	32.08
548.058	32.1
548.255	32.22
548.452	32.36
548.649	32.44
548.846	32.48
549.043	32.56
549.24	32.66
549.437	32.8
549.633	32.87
549.83	32.86
550.027	33
550.224	33.12
550.421	33.14
550.618	33.28
550.814	33.32
551.011	33.27
551.208	33.23
551.405	33.21
551.601	33.2
551.798	33.22
551.995	33.18
552.191	33.18
552.388	33.04
552.585	33.13
552.781	33.15
552.978	33.11
553.175	33.25
553.371	33.43
553.568	33.46
553.764	33.51
553.961	33.53
554.157	33.57
554.354	33.61
554.55	33.72
554.747	33.77
554.943	33.61
555.14	33.76
555.336	33.67
555.533	33.65
555.729	33.65
555.926	33.65
556.122	33.68
556.318	33.78
556.515	33.71
556.711	33.84
556.907	33.75
557.104	33.91
557.3	33.91
557.496	33.93
557.693	33.89
557.889	33.88
558.085	33.85
558.281	33.95
558.478	33.88
558.674	34.01
558.87	34.09
559.066	34.08
559.262	34.14
559.459	34.15
559.655	34.3
559.851	34.31
560.047	34.34
560.243	34.4
560.439	34.36
560.635	34.49
560.831	34.44
561.027	34.4
561.223	34.52
561.419	34.4
561.615	34.46
561.811	34.49
562.007	34.63
562.203	34.75
562.399	34.77
562.595	34.71
562.791	34.77
562.987	34.99
563.183	35.21
563.379	35.19
563.575	35.32
563.771	35.31
563.966	35.32
564.162	35.27
564.358	35.29
564.554	35.36
564.75	35.38
564.945	35.32
565.141	35.22
565.337	35.14
565.533	35.26
565.728	35.22
565.924	35.21
566.12	35.18
566.315	35.26
566.511	35.14
566.707	35.16
566.902	35.2
567.098	35.32
567.293	35.42
567.489	35.5
567.684	35.46
567.88	35.56
568.076	35.7
568.271	35.83
568.467	35.89
568.662	36.09
568.858	36.19
569.053	36.22
569.248	36.37
569.444	36.34
569.639	36.27
569.835	36.38
570.03	36.44
570.225	36.34
570.421	36.32
570.616	36.35
570.812	36.37
571.007	36.32
571.202	36.49
571.397	36.44
571.593	36.52
571.788	36.52
571.983	36.5
572.178	36.54
572.374	36.62
572.569	36.71
572.764	36.72
572.959	36.76
573.154	36.78
573.35	36.76
573.545	36.73
573.74	36.76
573.935	36.87
574.13	36.94
574.325	37.01
574.52	37.15
574.715	37.12
574.91	37.07
575.105	37.09
575.3	37.21
575.495	37.21
575.69	37.19
575.885	37.16
576.08	37.17
576.275	37.16
576.47	37.12
576.665	37.09
576.86	37.12
577.055	37.21
577.25	37.33
577.444	37.46
577.639	37.46
577.834	37.61
578.029	37.69
578.224	37.66
578.418	37.57
578.613	37.8
578.808	37.86
579.003	37.92
579.197	37.99
579.392	37.93
579.587	37.85
579.781	38.01
579.976	38.2
580.171	38.19
580.365	38.32
580.56	38.5
580.755	38.37
580.949	38.39
581.144	38.39
581.338	38.48
581.533	38.46
581.727	38.46
581.922	38.56
582.116	38.46
582.311	38.53
582.505	38.63
582.7	38.58
582.894	38.65
583.089	38.75
583.283	38.83
583.478	38.76
583.672	38.85
583.866	38.98
584.061	38.85
584.255	38.74
584.449	38.79
584.644	38.71
584.838	38.78
585.032	38.78
585.226	38.59
585.421	38.6
585.615	38.58
585.809	38.65
586.003	38.55
586.198	38.4
586.392	38.4
586.586	38.37
586.78	38.44
586.974	38.56
587.168	38.57
587.363	38.54
587.557	38.62
587.751	38.69
587.945	38.73
588.139	38.82
588.333	39.1
588.527	39.21
588.721	39.31
588.915	39.29
589.109	39.18
589.303	39.21
589.497	39.45
589.691	39.51
589.885	39.52
590.079	39.44
590.273	39.41
590.466	39.38
590.66	39.48
590.854	39.48
591.048	39.58
591.242	39.72
591.436	39.7
591.629	39.66
591.823	39.62
592.017	39.79
592.211	39.86
592.404	39.93
592.598	39.95
592.792	39.87
592.986	39.76
593.179	39.62
593.373	39.54
593.567	39.64
593.76	39.57
593.954	39.73
594.147	39.67
594.341	39.64
594.535	39.71
594.728	39.67
594.922	39.62
595.115	39.69
595.309	39.79
595.502	39.77
595.696	39.73
595.889	39.84
596.083	39.84
596.276	39.86
596.47	39.95
596.663	39.87
596.856	39.9
597.05	40.07
597.243	40.15
597.437	40.09
597.63	40.12
597.823	40.13
598.017	40.15
598.21	40.03
598.403	40.08
598.596	40.04
598.79	40.19
598.983	40.28
599.176	40.33
599.369	40.37
599.563	40.54
599.756	40.56
599.949	40.54
600.142	40.51
600.335	40.44
600.528	40.38
600.722	40.43
600.915	40.43
601.108	40.53
601.301	40.6
601.494	40.54
601.687	40.52
601.88	40.65
602.073	40.73
602.266	40.71
602.459	40.73
602.652	40.62
602.845	40.48
603.038	40.28
603.231	40.19
603.424	40.11
603.617	40.14
603.809	40.14
604.002	40.17
604.195	40.12
604.388	40.05
604.581	40.17
604.774	40.33
604.966	40.48
605.159	40.73
605.352	40.79
605.545	40.77
605.737	40.94
605.93	41.11
606.123	41.24
606.316	41.29
606.508	41.5
606.701	41.66
606.894	41.65
607.086	41.75
607.279	41.71
607.471	41.66
607.664	41.72
607.857	41.58
608.049	41.48
608.242	41.3
608.434	41.36
608.627	41.21
608.819	41.16
609.012	41.12
609.204	41.02
609.397	41.14
609.589	41.08
609.782	41.03
609.974	41.21
610.166	41.31
610.359	41.29
610.551	41.43
610.743	41.55
610.936	41.54
611.128	41.63
611.32	41.73
611.513	41.53
611.705	41.67
611.897	41.76
612.09	41.65
612.282	41.77
612.474	41.86
612.666	42
612.858	42.22
613.051	42.12
613.243	42.11
613.435	42.02
613.627	42.12
613.819	42.24
614.011	42.37
614.203	42.28
614.395	42.17
614.588	42.29
614.78	41.95
614.972	41.9
615.164	41.99
615.356	42.13
615.548	42.09
615.74	42.01
615.932	41.99
616.124	41.89
616.315	41.97
616.507	41.94
616.699	41.73
616.891	41.82
617.083	41.78
617.275	41.78
617.467	41.8
617.659	41.93
617.85	42.07
618.042	42.01
618.234	42.14
618.426	41.93
618.618	42.07
618.809	42.08
619.001	42.26
619.193	42.3
619.384	42.23
619.576	42.1
619.768	42.13
619.959	42.25
620.151	42.38
620.343	42.35
620.534	42.56
620.726	42.52
620.917	42.65
621.109	42.47
621.301	42.36
621.492	42.52
621.684	42.53
621.875	42.5
622.067	42.42
622.258	42.28
622.45	42.05
622.641	42.1
622.832	42.02
623.024	42.03
623.215	42.04
623.407	42.08
623.598	42.02
623.789	42.19
623.981	42.2
624.172	42.19
624.363	42.18
624.555	42.31
624.746	42.26
624.937	42.25
625.129	42.27
625.32	42.3
625.511	42.42
625.702	42.3
625.893	42.14
626.085	42.24
626.276	42.07
626.467	42.02
626.658	41.88
626.849	41.91
627.04	41.86
627.231	41.8
627.422	41.85
627.614	41.89
627.805	42
627.996	42.26
628.187	42.07
628.378	42.22
628.569	42.34
628.76	42.6
628.951	42.59
629.142	42.7
629.332	42.82
629.523	42.72
629.714	42.61
629.905	42.61
630.096	42.36
630.287	42.55
630.478	42.59
630.669	42.62
630.859	42.78
631.05	42.76
631.241	42.65
631.432	42.6
631.623	42.81
631.813	42.72
632.004	42.69
632.195	42.73
632.385	42.74
632.576	42.76
632.767	42.84
632.957	42.57
633.148	42.52
633.339	42.73
633.529	42.59
633.72	42.61
633.91	42.66
634.101	42.54
634.292	42.7
634.482	42.7
634.673	42.6
634.863	42.49
635.054	42.55
635.244	42.56
635.435	42.46
635.625	42.52
635.815	42.35
636.006	42.4
636.196	42.53
636.387	42.21
636.577	42.14
636.767	42.19
636.958	41.98
637.148	42.06
637.338	42.21
637.529	42.43
637.719	42.63
637.909	42.65
638.099	42.61
638.29	42.81
638.48	43.18
638.67	43.27
638.86	43.3
639.05	43.54
639.241	43.45
639.431	43.58
639.621	43.48
639.811	43.18
640.001	43.29
640.191	43.64
640.381	43.6
640.571	43.59
640.761	43.33
640.951	43.34
641.141	43.37
641.331	43.63
641.521	43.46
641.711	43.5
641.901	43.52
642.091	43.59
642.281	42.9
642.471	42.83
642.661	42.69
642.851	43.12
643.041	43.19
643.231	43.1
643.42	42.85
643.61	42.78
643.8	42.48
643.99	42.59
644.18	42.63
644.369	43.23
644.559	43.17
644.749	43.12
644.939	42.9
645.128	42.8
645.318	43.02
645.508	43.07
645.697	43.18
645.887	43.37
646.076	43.6
646.266	43.54
646.456	43.28
646.645	43.41
646.835	43.38
647.024	43.38
647.214	43.58
647.403	43.51
647.593	43.51
647.782	43.48
647.972	43.43
648.161	43.37
648.351	43.4
648.54	43.48
648.73	43.38
648.919	43.23
649.108	43.26
649.298	43.22
649.487	43.14
649.677	43.3
649.866	43.45
650.055	43.51
650.244	43.46
650.434	43.45
650.623	43.66
650.812	43.66
651.002	44.05
651.191	44.13
651.38	43.92
651.569	44.12
651.758	43.89
651.947	43.77
652.137	43.84
652.326	44.15
652.515	43.87
652.704	43.79
652.893	43.99
653.082	43.9
653.271	43.61
653.46	43.59
653.649	43.36
653.838	43.58
654.027	43.53
654.216	43.33
654.405	43.03
654.594	43.22
654.783	43.08
654.972	42.97
655.161	42.95
655.35	43.32
655.539	43.37
655.728	43.68
655.916	43.52
656.105	43.79
656.294	44.07
656.483	44.07
656.672	44.01
656.86	44.08
657.049	44.07
657.238	44.04
657.427	43.97
657.615	44.06
657.804	44.05
657.993	44.21
658.181	44.1
658.37	44.13
658.559	44.07
658.747	43.85
658.936	43.73
659.125	43.72
659.313	43.77
659.502	43.72
659.69	43.76
659.879	43.75
660.067	43.61
660.256	43.63
660.444	43.61
660.633	43.65
660.821	44.13
661.01	44.37
661.198	44.56
661.387	44.73
661.575	44.79
661.763	44.95
661.952	44.75
662.14	44.98
662.328	44.84
662.517	44.81
662.705	44.85
662.893	44.69
663.082	44.79
663.27	44.65
663.458	44.47
663.646	44.52
663.834	44.43
664.023	44.58
664.211	44.32
664.399	44.51
664.587	44.53
664.775	44.74
664.963	44.78
665.152	44.5
665.34	44.52
665.528	44.43
665.716	44.3
665.904	44.22
666.092	44.22
666.28	44.49
666.468	44.51
666.656	44.39
666.844	44.28
667.032	44.45
667.22	44.65
667.408	44.61
667.596	44.71
667.784	44.79
667.971	44.95
668.159	44.72
668.347	44.43
668.535	44.39
668.723	44.48
668.911	44.66
669.098	44.54
669.286	44.46
669.474	44.68
669.662	44.89
669.849	44.84
670.037	44.96
670.225	44.96
670.413	45.29
670.6	45.14
670.788	44.99
670.976	44.91
671.163	44.62
671.351	44.4
671.538	44.22
671.726	44.03
671.913	43.96
672.101	43.71
672.289	44.04
672.476	43.61
672.664	43.59
672.851	43.74
673.039	43.76
673.226	43.89
673.413	44.04
673.601	44.25
673.788	44.08
673.976	44.12
674.163	44.11
674.35	44.19
674.538	44.33
674.725	44.25
674.912	44.26
675.1	44.16
675.287	44.26
675.474	44.4
675.662	44.3
675.849	44.66
676.036	44.53
676.223	44.52
676.411	44.48
676.598	44.58
676.785	45.19
676.972	45
677.159	45.02
677.346	45.55
677.533	45.67
677.721	45.51
677.908	45.35
678.095	45.42
678.282	45.38
678.469	45.19
678.656	45.12
678.843	44.7
679.03	44.68
679.217	44.71
679.404	44.33
679.591	44.07
679.778	43.86
679.964	43.94
680.151	44.03
680.338	44.1
680.525	44.2
680.712	44.34
680.899	44.35
681.086	44.55
681.272	44.41
681.459	44.53
681.646	44.68
681.833	45.21
682.02	45.01
682.206	45.05
682.393	44.8
682.58	44.78
682.766	44.89
682.953	45.03
683.14	44.98
683.326	45.27
683.513	45.23
683.7	45.15
683.886	44.67
684.073	44.52
684.259	44.46
684.446	45.08
684.632	45.13
684.819	45.16
685.005	44.91
685.192	44.77
685.378	44.62
685.565	44.71
685.751	44.86
685.938	45.28
686.124	45.56
686.31	45.7
686.497	45.54
686.683	45.36
686.87	44.99
687.056	45.02
687.242	45.14
687.429	44.88
687.615	44.53
687.801	44.33
687.987	44.35
688.174	44.35
688.36	44.31
688.546	44.09
688.732	44.11
688.918	44.1
689.105	44.4
689.291	44.52
689.477	44.67
689.663	44.96
689.849	45.22
690.035	45.33
690.221	45.08
690.407	45.32
690.593	45.14
690.779	45.16
690.965	45.3
691.151	45.29
691.337	45.33
691.523	45.23
691.709	45.1
691.895	45
692.081	44.73
692.267	44.88
692.453	44.58
692.639	44.78
692.825	44.85
693.011	45.08
693.196	44.94
693.382	44.96
693.568	44.73
693.754	44.65
693.94	44.63
694.125	44.49
694.311	44.83
694.497	44.78
694.682	44.91
694.868	44.95
695.054	44.58
695.239	44.49
695.425	44.33
695.611	44.7
695.796	45.07
695.982	44.87
696.168	44.93
696.353	44.74
696.539	44.77
696.724	44.7
696.91	44.54
697.095	44.76
697.281	44.79
697.466	44.8
697.652	44.89
697.837	44.58
698.023	44.78
698.208	44.78
698.393	44.51
698.579	44.3
698.764	44.31
698.949	44.39
699.135	44.37
699.32	44.24
699.505	44.32
699.691	44.2
699.876	44.23
700.061	43.89
700.246	43.82
700.432	43.83
700.617	44.02
700.802	44.14
700.987	44.14
701.172	44.44
701.358	44.65
701.543	44.55
701.728	44.42
701.913	44.71
702.098	44.72
702.283	44.84
702.468	45.31
702.653	45.47
702.838	45.38
703.023	45.67
703.208	45.37
703.393	45.61
703.578	45.61
703.763	45.66
703.948	45.51
704.133	45.84
704.318	46.03
704.503	46.27
704.688	46.41
704.873	46.16
705.057	46.03
705.242	45.83
705.427	45.49
705.612	45.15
705.797	45.2
705.981	45.17
706.166	45.04
706.351	45.08
706.536	44.76
706.72	44.5
706.905	45
707.09	45.02
707.274	45.24
707.459	45.46
707.644	45.64
707.828	45.54
708.013	45.52
708.197	45.64
708.382	45.36
708.567	45.64
708.751	45.95
708.936	45.9
709.12	45.96
709.305	45.91
709.489	46.03
709.673	46.04
709.858	46.34
710.042	46.25
710.227	46.03
710.411	46.1
710.596	45.43
710.78	45.03
710.964	44.84
711.149	44.33
711.333	44.21
711.517	43.69
711.702	43.82
711.886	43.69
712.07	43.85
712.254	43.73
712.438	43.8
712.623	44.2
712.807	44.25
712.991	44.24
713.175	45.07
713.359	45.3
713.544	45.47
713.728	45.49
713.912	45.39
714.096	45.59
714.28	45.98
714.464	45.77
714.648	45.56
714.832	45.51
715.016	45.42
715.2	44.82
715.384	44.6
715.568	44.73
715.752	44.56
715.936	44.93
716.12	44.7
716.304	44.76
716.488	44.89
716.671	44.82
716.855	45.13
717.039	44.91
717.223	45.28
717.407	45.05
717.59	45.05
717.774	45.09
717.958	45.05
718.142	44.85
718.325	44.45
718.509	44.5
718.693	44.69
718.877	44.2
719.06	44.35
719.244	44.41
719.428	44.66
719.611	44.44
719.795	44.41
719.978	44.04
720.162	43.97
720.345	44.78
720.529	44.68
720.713	44.7
720.896	44.89
721.08	44.97
721.263	44.7
721.446	44.66
721.63	44.9
721.813	45.11
721.997	45.3
722.18	45.26
722.364	44.37
722.547	43.91
722.73	44.15
722.914	44
723.097	44.14
723.28	44.35
723.464	44.62
723.647	44.59
723.83	44.54
724.013	44.37
724.197	44.38
724.38	44.34
724.563	45.08
724.746	44.77
724.929	45.31
725.112	45.25
725.296	44.86
725.479	44.29
725.662	44.07
725.845	44.59
726.028	44.6
726.211	44.78
726.394	45.29
726.577	44.71
726.76	44.62
726.943	44.68
727.126	44.51
727.309	44.76
727.492	45.25
727.675	45.33
727.858	44.96
728.041	44.95
728.224	44.93
728.407	44.58
728.589	45.14
728.772	45.39
728.955	45.21
729.138	44.99
729.321	45.13
729.503	45.06
729.686	45.48
729.869	45.12
730.052	45.38
730.234	45.4
730.417	45.54
730.6	45.12
730.782	45.24
730.965	45.3
731.148	45.74
731.33	45.75
731.513	45.66
731.695	45.67
731.878	46.35
732.061	46.36
732.243	46.69
732.426	46.82
732.608	47.58
732.791	46.94
732.973	46.85
733.156	46.89
733.338	46.88
733.52	46.95
733.703	46.83
733.885	46.32
734.068	46.14
734.25	46.2
734.432	45.7
734.615	45.1
734.797	45.65
734.979	45.45
735.162	45.37
735.344	45.23
735.526	45.29
735.708	44.91
735.891	45.43
736.073	45.38
736.255	45.14
736.437	45.71
736.619	45.64
736.802	46.3
736.984	46.66
737.166	46.77
737.348	46.48
737.53	46.31
737.712	46.42
737.894	46.29
738.076	46.24
738.258	46.18
738.44	45.92
738.622	46.12
738.804	45.74
738.986	45.65
739.168	45.63
739.35	45.77
739.532	46.47
739.714	46.41
739.896	45.76
740.078	45.77
740.259	46.02
740.441	46.56
740.623	45.99
740.805	46.33
740.987	46.4
741.168	46.27
741.35	46.89
741.532	46.46
741.714	46.55
741.895	46.69
742.077	46.42
742.259	45.97
742.44	45.12
742.622	45.77
742.804	45.06
742.985	44.94
743.167	45.2
743.348	44.59
743.53	44.28
743.711	44.53
743.893	44.58
744.075	45.55
744.256	45.87
744.438	46.47
744.619	46.3
744.8	46.29
744.982	45.98
745.163	46.04
745.345	45.82
745.526	46.54
745.707	47.19
745.889	47.45
746.07	46.9
746.252	47.5
746.433	47.56
746.614	48.1
746.795	48.66
746.977	49.03
747.158	49.23
747.339	49.27
747.52	48.93
747.702	48.01
747.883	48.23
748.064	48.48
748.245	47.56
748.426	47.74
748.607	47.79
748.788	47.35
748.97	47.34
749.151	47.4
749.332	47.89
749.513	47.81
749.694	47.69
749.875	47.84
750.056	47.71
750.237	47.68
750.418	47.69
750.599	46.81
750.78	47.17
750.96	47.45
751.141	47.38
751.322	47.78
751.503	47.51
751.684	48.27
751.865	48.39
752.046	48.52
752.226	48.45
752.407	47.78
752.588	48.68
752.769	48.55
752.949	48.46
753.13	48.02
753.311	47.53
753.492	47.85
753.672	47.84
753.853	47.42
754.034	46.85
754.214	47.51
754.395	47.73
754.575	47.21
754.756	47.65
754.937	47.29
755.117	47.79
755.298	47.37
755.478	47.76
755.659	47.38
755.839	47.39
756.02	48.21
756.2	48.2
756.381	48.07
756.561	48.91
756.741	48.31
756.922	48.29
757.102	48.29
757.283	49.45
757.463	49.27
757.643	48.78
757.823	48.31
758.004	47.91
758.184	47
758.364	47.26
758.545	46.73
758.725	46.81
758.905	46.83
759.085	46.04
759.265	45.12
759.446	44.43
759.626	44.75
759.806	45.2
759.986	45.32
760.166	46.02
760.346	45.72
760.526	45.58
760.706	45.76
760.886	45.27
761.066	45.21
761.246	45.01
761.426	45.16
761.606	44.93
761.786	44.77
761.966	44.75
762.146	44.16
762.326	43.97
762.506	43.91
762.686	43.73
762.866	44.08
763.046	44.22
763.225	44.62
763.405	45
763.585	45.09
763.765	44.99
763.945	44.73
764.124	45.15
764.304	45.23
764.484	45.26
764.664	45.18
764.843	45.23
765.023	45.28
765.203	45.26
765.382	45.04
765.562	44.93
765.741	45.27
765.921	45.83
766.101	45.85
766.28	46.07
766.46	46.17
766.639	46.7
766.819	47.03
766.998	47.32
767.178	47.38
767.357	47.09
767.537	47.59
767.716	47.2
767.896	46.78
768.075	46.72
768.254	47.26
768.434	47.4
768.613	48.33
768.792	47.69
768.972	48.07
769.151	47.39
769.33	47.81
769.51	48.23
769.689	48.69
769.868	48.74
770.047	49.46
770.226	48.51
770.406	48.62
770.585	47.55
770.764	47.83
770.943	47.66
771.122	48.04
771.301	48.26
771.48	47.24
771.66	47.24
771.839	47.17
772.018	47.56
772.197	47.9
772.376	48
772.555	47.12
772.734	47.36
772.913	46.97
773.092	47.28
773.271	47.53
773.449	48.6
773.628	48.31
773.807	49.01
773.986	48.21
774.165	48.86
774.344	49.05
774.523	50.04
774.701	49.56
774.88	49.84
775.059	49.7
775.238	48.74
775.417	48.24
775.595	48.48
775.774	48.53
775.953	48.74
776.131	49.13
776.31	48.45
776.489	48.31
776.667	48.31
776.846	47.79
777.025	48.16
777.203	48.61
777.382	49.4
777.56	49.58
777.739	49.02
777.917	49.1
778.096	48.13
778.274	48.14
778.453	48.33
778.631	49.56
778.81	49.8
778.988	49.28
779.166	50.17
779.345	48.71
779.523	48.97
779.702	49.09
779.88	48.87
780.058	48.99
780.237	48.88
780.415	48.26
780.593	47.13
780.771	46.91
780.95	47.9
781.128	46.01
781.306	46.42
781.484	45.95
781.662	45.15
781.841	44.58
782.019	44.9
782.197	45.18
782.375	45.1
782.553	45.86
782.731	45.74
782.909	44.56
783.087	45.28
783.265	45.89
783.443	46.27
783.621	47.15
783.799	47.61
783.977	48.14
784.155	48.68
784.333	48.94
784.511	48.47
784.689	48.99
784.867	49.89
785.045	50.11
785.223	50.14
785.4	50.35
785.578	49.75
785.756	50.09
785.934	49.78
786.112	50.05
786.289	49.99
786.467	49.78
786.645	49.97
786.823	48.47
787	48.29
787.178	47.25
787.356	46.49
787.533	46.61
787.711	45.56
787.889	45.14
788.066	44.83
788.244	45.27
788.421	45.06
788.599	44.83
788.776	45.12
788.954	45.29
789.131	45.85
789.309	45.72
789.486	45.62
789.664	46.74
789.841	46.14
790.019	45.92
790.196	45.27
790.373	45.38
790.551	45.67
790.728	45.89
790.906	46.34
791.083	45.95
791.26	46.22
791.437	46.11
791.615	45.59
791.792	46.05
791.969	45.44
792.146	45.13
792.324	44.72
792.501	44.1
792.678	44.91
792.855	43.41
793.032	43.85
793.209	44.98
793.387	44.33
793.564	44.74
793.741	44.93
793.918	45.06
794.095	46.45
794.272	47.23
794.449	47.59
794.626	47.45
794.803	47.61
794.98	47.04
795.157	45.12
795.334	46.38
795.511	46.36
795.688	45.56
795.864	45.6
796.041	44.67
796.218	45.28
796.395	44.72
796.572	44.86
796.749	45.3
796.925	45.68
797.102	46.58
797.279	45.66
797.456	45.24
797.632	46.2
797.809	46.09
797.986	46.22
798.162	46.41
798.339	47.32
798.516	47.21
798.692	47.38
798.869	48.01
799.046	47.29
799.222	48.22
799.399	47.45
799.575	47.1
799.752	47.32
799.928	47.26
800.105	46.69
800.281	45.67
800.458	45.12
800.634	45.11
800.811	44.13
800.987	45.78
801.163	45.34
801.34	45.92
801.516	45.35
801.692	44.69
801.869	45.44
802.045	44.93
802.221	45.41
802.398	45.52
802.574	45.85
802.75	45.76
802.926	44.19
803.103	44.23
803.279	44.17
803.455	45.85
803.631	46.66
803.807	46.17
803.983	46.64
804.16	46.14
804.336	47.57
804.512	47.38
804.688	48.21
804.864	48.66
805.04	47.62
805.216	49.02
805.392	47.76
805.568	47.13
805.744	47.84
805.92	47.83
806.096	48.85
806.272	47.68
806.448	48
806.623	46.8
806.799	47.01
806.975	48.83
807.151	47.58
807.327	47.66
807.503	48.57
807.678	47.73
807.854	48.02
808.03	47.17
808.206	46.84
808.381	47.02
808.557	48.53
808.733	48.88
808.908	48.47
809.084	49.51
809.26	50.17
809.435	48.28
809.611	48.28
809.787	46.85
809.962	47.78
810.138	47.9
810.313	47.87
810.489	47.56
810.664	47.57
810.84	47.41
811.015	46.47
811.191	46.51
811.366	48.01
811.542	47.8
811.717	48.68
811.892	48.19
812.068	48.09
812.243	47.95
812.419	48.28
812.594	47.07
812.769	46.87
812.944	46.16
813.12	45.5
813.295	44.62
813.47	44.34
813.645	43.75
813.821	43.63
813.996	43.83
814.171	42.11
814.346	41.98
814.521	42.91
814.697	43.17
814.872	44.37
815.047	44.16
815.222	44.91
815.397	44.83
815.572	44.04
815.747	43.51
815.922	42.57
816.097	43.93
816.272	42.84
816.447	42.26
816.622	41.63
816.797	42.51
816.972	43.38
817.147	43.26
817.322	43.44
817.496	43.66
817.671	43.5
817.846	44.01
818.021	43.56
818.196	44.18
818.371	44.42
818.545	44.22
818.72	42.06
818.895	41.93
819.069	41.31
819.244	41.54
819.419	42.16
819.594	42.63
819.768	43.37
819.943	44.23
820.117	44.32
820.292	43.59
820.467	43.65
820.641	44.17
820.816	44.02
820.99	44.32
821.165	44.12
821.339	44.23
821.514	44
821.688	43.65
821.863	43.25
822.037	43.11
822.212	43.27
822.386	43.13
822.56	42.75
822.735	42.46
822.909	42.4
823.084	42.35
823.258	42.12
823.432	42.07
823.606	41.84
823.781	41.65
823.955	41.6
824.129	41.67
824.303	41.63
824.478	41.86
824.652	42.42
824.826	42.36
825	42.01
825.174	41.91
825.348	41.76
825.523	41.78
825.697	41.97
825.871	42.14
826.045	42.24
826.219	42.37
826.393	42.45
826.567	42.33
826.741	42.59
826.915	43.03
827.089	43.19
827.263	43.21
827.437	43.19
827.611	43.52
827.784	42.97
827.958	42.78
828.132	43.04
828.306	43.26
828.48	43.05
828.654	42.59
828.827	42.39
829.001	42.91
829.175	43.86
829.349	44.97
829.522	44.51
829.696	45.27
829.87	45.39
830.044	46.01
830.217	45.83
830.391	45.86
830.565	47.49
830.738	49.07
830.912	48.67
831.085	48
831.259	47.63
831.432	47.83
831.606	48.41
831.779	48.44
831.953	46.56
832.126	46.04
832.3	46.42
832.473	45.19
832.647	44
832.82	43.84
832.994	42.93
833.167	42.51
833.34	42.31
833.514	42.09
833.687	41.69
833.86	42.79
834.034	42.76
834.207	42.35
834.38	42.78
834.553	43.27
834.727	42.57
834.9	43.58
835.073	43.82
835.246	43.8
835.419	44.14
835.593	44.94
835.766	44.5
835.939	45.43
836.112	46.67
836.285	46.5
836.458	46.09
836.631	47.38
836.804	47.09
836.977	47.07
837.15	46.71
837.323	46.4
837.496	45.29
837.669	44.77
837.842	45.13
838.015	45.18
838.188	43.77
838.361	43.93
838.533	43.21
838.706	43.85
838.879	42.76
839.052	45.16
839.225	44.06
839.398	44.96
839.57	46.79
839.743	46.18
839.916	44.36
840.088	44.96
840.261	45.26
840.434	45.91
840.607	45.1
840.779	45.02
840.952	44.91
841.124	44.98
841.297	44.27
841.47	42.1
841.642	42.58
841.815	43.2
841.987	43.82
842.16	42.84
842.332	42.32
842.505	42.62
842.677	42.99
842.85	42.97
843.022	44.6
843.194	45.02
843.367	46.1
843.539	46.41
843.712	44.72
843.884	44.36
844.056	42.96
844.229	45.18
844.401	45.45
844.573	48.87
844.745	48.51
844.918	49.01
845.09	52.8
845.262	53.64
845.434	50.94
845.606	57.43
845.779	58.91
845.951	60.65
846.123	57.39
846.295	59.59
846.467	57.38
846.639	59.39
846.811	58.89
846.983	55.63
847.155	53.93
847.327	54.17
847.499	49.54
847.671	47.96
847.843	46.75
848.015	44.53
848.187	45.39
848.359	47.98
848.531	45.5
848.703	47.43
848.875	45.65
849.047	45.02
849.218	47.3
849.39	47.14
849.562	49.08
849.734	52.62
849.905	54.81
850.077	52.69
850.249	50.5
850.421	48.21
850.592	43.61
850.764	47.32
850.936	48.7
851.107	50.42
851.279	53.5
851.451	54.46
851.622	50.35
851.794	54.91
851.965	53.99
852.137	54.42
852.308	59.01
852.48	61.29
852.651	58.59
852.823	58.29
852.994	53.57
853.166	51.08
853.337	50.8
853.509	52.13
853.68	49.4
853.851	49.48
854.023	51.73
854.194	51.06
854.365	51.76
854.537	50.66
854.708	52.3
854.879	55.37
855.05	55.43
855.222	54.57
855.393	56.88
855.564	58.26
855.735	60.66
855.906	57.5
856.078	57.28
856.249	57.73
856.42	61.07
856.591	58
856.762	57.27
856.933	58.08
857.104	53.73
857.275	54.83
857.446	51.97
857.617	51.47
857.788	53.16
857.959	53.57
858.13	54.2
858.301	52.59
858.472	54.28
858.643	53.58
858.814	54.86
858.985	55.86
859.155	54.58
859.326	55.89
859.497	53.35
859.668	55.34
859.839	51.55
860.009	52.48
860.18	51.13
860.351	50.53
860.522	48.99
860.692	49.06
860.863	50.28
861.034	50.28
861.204	49.06
861.375	50.27
861.546	45.99
861.716	49.35
861.887	45.77
862.057	46.49
862.228	46.18
862.398	54.11
862.569	56.12
862.739	59.8
862.91	58.71
863.08	58.07
863.251	59.28
863.421	61.34
863.592	60.37
863.762	58.26
863.932	61.26
864.103	63.26
864.273	57.62
864.443	53.49
864.614	49.8
864.784	52.54
864.954	56.1
865.125	58.75
865.295	56.44
865.465	55.5
865.635	55.4
865.805	56.41
865.976	52.58
866.146	55.19
866.316	53.42
866.486	51.14
866.656	54.67
866.826	55.35
866.996	53.04
867.166	53.55
867.336	54.81
867.506	58.12
867.676	56.47
867.846	55.12
868.016	51.9
868.186	54.82
868.356	58.78
868.526	50.08
868.696	50.16
868.866	52.37
869.036	54.48
869.206	50
869.376	49.33
869.545	48.9
869.715	50.92
869.885	51.7
870.055	47
870.224	51.92
870.394	57.71
870.564	54.75
870.734	50.13
870.903	48.34
871.073	52.31
871.243	52.17
871.412	52.7
871.582	54.13
871.751	57.37
871.921	61.13
872.091	53.49
872.26	50
872.43	52.27
872.599	53.91
872.769	51.32
872.938	48.69
873.108	49.02
873.277	48.64
873.446	50.11
873.616	46.94
873.785	52.23
873.955	52.08
874.124	50.47
874.293	45.82
874.463	43.05
874.632	46.33
874.801	50.56
874.971	53.14
875.14	55.47
875.309	54.77
875.478	56.96
875.647	49.55
875.817	51.68
875.986	55.85
876.155	60.61
876.324	62.94
876.493	61
876.662	56.55
876.831	56.47
877	50.43
877.17	46.7
877.339	43.4
877.508	44.81
877.677	45.51
877.846	42.75
878.015	40.76
878.184	41.4
878.352	42.07
878.521	41.86
878.69	40.51
878.859	43.06
879.028	46.15
879.197	48.67
879.366	46.42
879.534	45.1
879.703	45.37
879.872	44.2
880.041	44.19
880.21	43.04
880.378	43.86
880.547	42.43
880.716	42.3
880.884	40.58
881.053	39.93
881.222	41.48
881.39	41.42
881.559	41.62
881.727	42.09
881.896	41.31
882.065	41.96
882.233	41.78
882.402	41.48
882.57	41.67
882.739	42.75
882.907	43.38
883.076	42.61
883.244	42.32
883.412	42.04
883.581	41.72
883.749	41.64
883.918	41.74
884.086	41.29
884.254	42.32
884.423	41.65
884.591	41.57
884.759	41.08
884.927	41.29
885.096	41.05
885.264	41.89
885.432	42.62
885.6	44.03
885.769	44.12
885.937	44.76
886.105	45.51
886.273	46.71
886.441	46.61
886.609	47.19
886.777	48.21
886.945	49.39
887.113	48.75
887.281	47.62
887.449	47.44
887.617	45.89
887.785	45.79
887.953	43.72
888.121	44.37
888.289	44.21
888.457	45.68
888.625	44.9
888.793	47.29
888.961	47.25
889.129	49.1
889.296	47.18
889.464	48.65
889.632	50.54
889.8	51.33
889.967	51.49
890.135	51.63
