Data from 2938489_Reflection_1.txt Node
Date: Wed Jun 17 00:49:37 EDT 2015
User: robert
Spectrometer: USB4E03002
Autoset integration time: false
Trigger mode: 4
Integration Time (sec): 1.000000E-1
Scans to average: 10
Electric dark correction enabled: true
Nonlinearity correction enabled: false
Boxcar width: 5
Stray light correction enabled: false
XAxis mode: Wavelengths
Stop averaging: false
Number of Pixels in Spectrum: 3648
>>>>>Begin Spectral Data<<<<<
177.575	52.58
177.794	219.21
178.014	90.09
178.233	88.67
178.452	90.6
178.672	130.5
178.891	63.82
179.11	12.59
179.33	-1.99
179.549	71.22
179.768	-12.6
179.987	-15.47
180.207	47.14
180.426	43.86
180.645	6.96
180.864	-124.55
181.084	-4.03
181.303	5.19
181.522	40.69
181.741	33.74
181.96	6.68
182.179	171.67
182.398	-151.33
182.618	165.38
182.837	164.56
183.056	102.64
183.275	206.69
183.494	235.33
183.713	646.48
183.932	614.65
184.151	-198.56
184.37	-1196.22
184.589	-6894.37
184.808	1633.62
185.027	675.19
185.246	-9170.24
185.465	1175.8
185.684	283.69
185.903	219.57
186.122	179.18
186.341	141.18
186.56	142.87
186.779	268.74
186.998	537.76
187.216	504.55
187.435	540.35
187.654	1496.3
187.873	-1281.61
188.092	-1497.02
188.311	9429.41
188.53	-1148.06
188.748	-347.33
188.967	-606.81
189.186	-1463.81
189.405	-1476.25
189.623	2519.71
189.842	-220.49
190.061	-569.18
190.28	121.12
190.498	-520.39
190.717	-251.75
190.936	197.48
191.154	238.68
191.373	186.31
191.592	451
191.81	755.26
192.029	367.63
192.248	431.77
192.466	351.65
192.685	549.11
192.904	5310.48
193.122	826.47
193.341	-87
193.559	-181.28
193.778	-424.84
193.996	-172.42
194.215	-68.9
194.433	-19.45
194.652	-33.71
194.87	-17.9
195.089	20.24
195.307	-11.06
195.526	-110.45
195.744	57.05
195.963	39.14
196.181	-4.49
196.399	37.57
196.618	10.83
196.836	68.89
197.055	46.61
197.273	17.58
197.491	32.48
197.71	7.76
197.928	197.82
198.146	-683.56
198.365	-97.55
198.583	-142.52
198.801	-130.65
199.019	-17.18
199.238	89.78
199.456	1923.61
199.674	366.21
199.892	-21.44
200.111	-144.34
200.329	55.39
200.547	118.43
200.765	47.04
200.983	-147.67
201.202	-54.9
201.42	-118.89
201.638	-5303.13
201.856	-30.39
202.074	47.06
202.292	44.06
202.51	64.53
202.728	311.96
202.946	949.76
203.165	-1566.52
203.383	-312.2
203.601	-496.19
203.819	-446.69
204.037	-156.34
204.255	280.06
204.473	128.78
204.691	131.75
204.909	104.34
205.127	310.28
205.345	-144.77
205.562	-910.62
205.78	-76.15
205.998	-506.18
206.216	-789.47
206.434	-248.41
206.652	-149.02
206.87	-75.93
207.088	-72.28
207.306	-197.11
207.523	-121.51
207.741	340.22
207.959	-42.64
208.177	-241.93
208.395	21.69
208.612	-313.08
208.83	63.64
209.048	150.51
209.266	114.55
209.483	77.28
209.701	83.46
209.919	102.31
210.136	102.08
210.354	64.06
210.572	106.78
210.79	56.71
211.007	50.76
211.225	54.38
211.442	48.73
211.66	74.76
211.878	87.52
212.095	168.42
212.313	141.62
212.53	149.12
212.748	161.36
212.966	156.07
213.183	189.21
213.401	190.05
213.618	232.64
213.836	210.01
214.053	226.76
214.271	219.39
214.488	99.02
214.705	117.15
214.923	78.6
215.14	81.05
215.358	65.24
215.575	45.3
215.793	19.94
216.01	16.77
216.227	-13.69
216.445	13.07
216.662	-2.54
216.879	-12.28
217.097	-17.63
217.314	14.69
217.531	-17.09
217.749	-26.58
217.966	-13.47
218.183	14.14
218.4	23.48
218.618	34.77
218.835	16.99
219.052	6.59
219.269	-10.03
219.487	0.06
219.704	-4.2
219.921	0.19
220.138	9.97
220.355	12.49
220.572	9.75
220.79	-3.09
221.007	-11.45
221.224	-6.52
221.441	4.69
221.658	13.18
221.875	23.13
222.092	26.57
222.309	22.85
222.526	20.92
222.743	24.84
222.96	23.72
223.177	28.62
223.394	24.57
223.611	25.71
223.828	17.45
224.045	17.92
224.262	12.41
224.479	8.33
224.696	11.15
224.913	18.14
225.13	15.7
225.347	11.77
225.564	12.59
225.781	14.21
225.997	14.11
226.214	16.41
226.431	15.19
226.648	16.52
226.865	16.34
227.082	15.17
227.298	14.15
227.515	13.32
227.732	14.62
227.949	14.67
228.165	15.05
228.382	14.54
228.599	14.02
228.816	14.98
229.032	15.06
229.249	15.17
229.466	14.97
229.682	14.44
229.899	16.08
230.116	15.37
230.332	15.99
230.549	15.4
230.765	15.33
230.982	15.15
231.199	14.87
231.415	13.36
231.632	14.58
231.848	17.2
232.065	19.35
232.281	21.15
232.498	20.4
232.714	19.17
232.931	21.16
233.147	22.91
233.364	23.92
233.58	22.94
233.797	22.16
234.013	20.97
234.23	19.83
234.446	16.21
234.662	13.65
234.879	16.04
235.095	14.64
235.312	12.28
235.528	12.39
235.744	9.97
235.961	9.21
236.177	9.89
236.393	10.86
236.61	11.02
236.826	11.75
237.042	11.22
237.258	10.15
237.475	13.48
237.691	13.71
237.907	14.84
238.123	15.29
238.339	16.83
238.556	18.61
238.772	16.72
238.988	16.55
239.204	17.46
239.42	17.39
239.636	17.15
239.853	16.31
240.069	16.6
240.285	15.56
240.501	15.38
240.717	14.78
240.933	13.72
241.149	14.23
241.365	13.71
241.581	12.89
241.797	13
242.013	12.63
242.229	12.09
242.445	11.58
242.661	12.02
242.877	11.64
243.093	11.62
243.309	12.26
243.525	13.02
243.741	13.1
243.957	13.41
244.173	13.35
244.388	13.46
244.604	13.89
244.82	13.68
245.036	13.32
245.252	13.68
245.468	13.94
245.683	13.46
245.899	12.83
246.115	13.3
246.331	13.22
246.547	13.33
246.762	13.67
246.978	13.35
247.194	13.37
247.409	13.64
247.625	13.97
247.841	13.7
248.057	14.47
248.272	15.13
248.488	15.01
248.703	15.49
248.919	14.64
249.135	13.64
249.35	14.55
249.566	15.12
249.782	14.55
249.997	14.46
250.213	14.25
250.428	13.08
250.644	12.82
250.859	12.51
251.075	12.11
251.29	12.5
251.506	12.15
251.721	11.48
251.937	10.79
252.152	11.06
252.368	10.67
252.583	12.14
252.798	13.38
253.014	13.28
253.229	12.6
253.445	13.59
253.66	14.18
253.875	15.49
254.091	15.87
254.306	14.85
254.521	14.35
254.737	13.73
254.952	12.54
255.167	12.76
255.383	12.31
255.598	13.14
255.813	12.74
256.028	12.28
256.244	11.59
256.459	11.02
256.674	11.27
256.889	11.2
257.104	10.45
257.32	10.15
257.535	9.88
257.75	10.23
257.965	9.79
258.18	9.51
258.395	9.44
258.61	9.52
258.826	9.47
259.041	9.39
259.256	9.58
259.471	10.08
259.686	9.77
259.901	9.51
260.116	9.05
260.331	9.13
260.546	9.31
260.761	9.45
260.976	9.37
261.191	9.37
261.406	10.2
261.621	9.62
261.836	8.81
262.05	9.03
262.265	9.29
262.48	10.65
262.695	10.81
262.91	10.25
263.125	9.89
263.34	9.84
263.555	10.18
263.769	9.61
263.984	9.41
264.199	9.68
264.414	10.29
264.629	10.32
264.843	8.97
265.058	9.06
265.273	9.87
265.488	10.19
265.702	10.58
265.917	10.68
266.132	10.83
266.346	11.21
266.561	10.94
266.776	10.7
266.99	10.52
267.205	10.94
267.42	11.03
267.634	10.78
267.849	10.69
268.063	10.44
268.278	10.17
268.492	9.67
268.707	9.49
268.922	9.83
269.136	9.93
269.351	9.94
269.565	9.8
269.78	9.08
269.994	8.63
270.209	8.98
270.423	8.91
270.637	8.95
270.852	9.13
271.066	8.87
271.281	9.21
271.495	9.11
271.709	9.09
271.924	9.32
272.138	9.67
272.353	9.9
272.567	9.33
272.781	9.3
272.996	9.11
273.21	9.58
273.424	9.85
273.638	9.7
273.853	10.31
274.067	9.87
274.281	9.93
274.495	10.06
274.71	9.9
274.924	10.25
275.138	10.8
275.352	11.04
275.566	10.44
275.781	10.26
275.995	10.14
276.209	8.86
276.423	9.4
276.637	8.77
276.851	8.94
277.065	9.19
277.279	8.66
277.493	8.87
277.707	8.48
277.921	8.27
278.135	8.25
278.349	8.07
278.563	8.98
278.777	8.81
278.991	8.93
279.205	8.55
279.419	8.34
279.633	8.72
279.847	7.87
280.061	8.48
280.275	8.73
280.489	9.04
280.703	9.17
280.917	8.68
281.131	8.96
281.344	8.88
281.558	9.16
281.772	8.99
281.986	9.02
282.2	9.17
282.414	9.16
282.627	9.27
282.841	9.39
283.055	9.53
283.269	9.84
283.482	9.53
283.696	10.07
283.91	9.78
284.123	10.12
284.337	9.92
284.551	9.74
284.764	9.79
284.978	9.67
285.192	9.46
285.405	9.07
285.619	9.12
285.833	9.74
286.046	9.83
286.26	10.28
286.473	9.87
286.687	10.21
286.9	11.02
287.114	10.86
287.327	10.83
287.541	11.22
287.754	11.57
287.968	10.78
288.181	10.34
288.395	9.88
288.608	9.91
288.822	10.65
289.035	10.88
289.248	10.31
289.462	9.93
289.675	10.02
289.889	9.74
290.102	9.95
290.315	10.97
290.529	11.14
290.742	10.82
290.955	10.96
291.169	10.44
291.382	10.34
291.595	10.28
291.808	10.89
292.022	11.21
292.235	11.19
292.448	10.81
292.661	10.71
292.875	10.82
293.088	11.28
293.301	10.8
293.514	10.84
293.727	10.62
293.94	10.83
294.153	10.58
294.367	10.83
294.58	11.19
294.793	11.22
295.006	11.13
295.219	11.08
295.432	11.26
295.645	11.49
295.858	11.76
296.071	11.61
296.284	11.92
296.497	11.9
296.71	11.76
296.923	11.67
297.136	11.86
297.349	11.99
297.562	11.92
297.775	11.78
297.988	11.94
298.201	11.9
298.414	12.1
298.626	11.98
298.839	12.36
299.052	12.27
299.265	12.06
299.478	12
299.691	12.37
299.903	12.65
300.116	12.38
300.329	12.42
300.542	12.2
300.755	12.4
300.967	12.54
301.18	12.52
301.393	12.68
301.605	12.92
301.818	12.95
302.031	12.48
302.243	12.38
302.456	12.77
302.669	12.52
302.881	12.72
303.094	12.91
303.307	12.86
303.519	13.04
303.732	13.01
303.944	12.89
304.157	13.12
304.37	13.32
304.582	13.73
304.795	13.88
305.007	13.76
305.22	13.54
305.432	13.46
305.645	13.6
305.857	13.3
306.069	12.89
306.282	12.68
306.494	12.41
306.707	12.36
306.919	12.41
307.132	12.36
307.344	12.78
307.556	13.16
307.769	13.2
307.981	13.14
308.193	12.97
308.406	13.4
308.618	13.58
308.83	13.65
309.043	13.52
309.255	13.21
309.467	13.25
309.679	13.17
309.892	13.01
310.104	12.77
310.316	12.73
310.528	13.24
310.74	13.27
310.953	13.41
311.165	13.67
311.377	13.81
311.589	14.17
311.801	13.98
312.013	14.28
312.225	14.61
312.437	14.7
312.649	14.55
312.862	14.43
313.074	14.28
313.286	13.97
313.498	13.62
313.71	14.04
313.922	14.04
314.134	14.31
314.346	13.79
314.558	13.11
314.77	13.08
314.982	12.99
315.193	13.11
315.405	13.12
315.617	13.84
315.829	14.2
316.041	13.76
316.253	13.44
316.465	14.17
316.677	14.15
316.888	14.75
317.1	15.35
317.312	15.31
317.524	14.93
317.736	14.8
317.947	14.03
318.159	13.69
318.371	14.09
318.583	14.13
318.794	13.5
319.006	13.99
319.218	13.62
319.43	13.48
319.641	13.51
319.853	13.5
320.064	13.13
320.276	13.61
320.488	13.83
320.699	13.3
320.911	13.23
321.123	13.32
321.334	12.76
321.546	12.69
321.757	12.29
321.969	12.25
322.18	12.11
322.392	12.91
322.603	13.11
322.815	13.1
323.026	13.29
323.238	13.45
323.449	13.25
323.661	13.41
323.872	13.94
324.083	14.1
324.295	14.35
324.506	14.17
324.718	13.67
324.929	13.06
325.14	13.02
325.352	13.06
325.563	13.02
325.774	12.64
325.986	13.25
326.197	13.32
326.408	13.41
326.62	13.91
326.831	14.31
327.042	14.75
327.253	15.07
327.464	15.2
327.676	15.49
327.887	15.4
328.098	15.98
328.309	15.6
328.52	14.98
328.732	14.96
328.943	14.04
329.154	13.91
329.365	13.82
329.576	13.74
329.787	13.68
329.998	13.44
330.209	12.84
330.42	12.99
330.631	12.7
330.842	13.23
331.053	13.33
331.264	13.45
331.475	13.39
331.686	12.87
331.897	13.25
332.108	13.45
332.319	13.44
332.53	14.49
332.741	14.56
332.952	14.67
333.163	14.6
333.374	14.04
333.585	14.05
333.795	13.99
334.006	14.3
334.217	13.57
334.428	13.01
334.639	12.77
334.849	12.15
335.06	11.79
335.271	12.28
335.482	12.23
335.692	12.37
335.903	12.64
336.114	12.59
336.325	12.51
336.535	13.17
336.746	13.54
336.957	13.2
337.167	13.22
337.378	13.24
337.589	13.25
337.799	12.89
338.01	12.89
338.22	12.52
338.431	12.54
338.642	12.76
338.852	12.23
339.063	12.18
339.273	12.51
339.484	12.37
339.694	12.21
339.905	12.05
340.115	12.2
340.326	12.07
340.536	12.36
340.746	12.39
340.957	12.45
341.167	12.8
341.378	12.3
341.588	12.62
341.799	12.59
342.009	12.5
342.219	12.06
342.43	11.86
342.64	11.96
342.85	11.77
343.061	11.58
343.271	11.57
343.481	11.19
343.691	11.68
343.902	11.38
344.112	11.54
344.322	12.03
344.532	12.17
344.743	12.25
344.953	12.41
345.163	12.63
345.373	13.12
345.583	13
345.793	13.32
346.004	13.22
346.214	13.37
346.424	13.55
346.634	13.57
346.844	13.2
347.054	13.09
347.264	12.63
347.474	12.5
347.684	12.28
347.894	12.17
348.104	11.82
348.314	11.9
348.524	11.64
348.734	11.58
348.944	11.24
349.154	11.35
349.364	11.52
349.574	11.74
349.784	11.7
349.994	11.54
350.204	11.43
350.413	11.73
350.623	11.32
350.833	11.33
351.043	11.15
351.253	11.21
351.463	11.57
351.672	11.65
351.882	11.71
352.092	11.62
352.302	11.78
352.511	11.89
352.721	11.85
352.931	11.93
353.141	11.86
353.35	11.99
353.56	11.78
353.77	11.58
353.979	11.41
354.189	11.2
354.399	11.15
354.608	11.24
354.818	11.32
355.027	11.17
355.237	11.28
355.447	11.47
355.656	11.3
355.866	11.26
356.075	11.01
356.285	10.95
356.494	11.12
356.704	11.18
356.913	10.83
357.123	10.7
357.332	10.77
357.542	10.65
357.751	10.31
357.96	10.59
358.17	10.57
358.379	10.71
358.589	10.99
358.798	11.07
359.007	10.79
359.217	10.7
359.426	10.67
359.635	10.63
359.845	10.53
360.054	10.76
360.263	10.47
360.472	10.56
360.682	10.63
360.891	10.61
361.1	10.38
361.309	10.84
361.519	10.97
361.728	11.08
361.937	10.95
362.146	11.33
362.355	11.14
362.564	11.06
362.774	10.83
362.983	10.78
363.192	10.32
363.401	10.33
363.61	9.92
363.819	10.06
364.028	9.9
364.237	9.9
364.446	9.79
364.655	9.96
364.864	9.98
365.073	10.11
365.282	9.84
365.491	10.23
365.7	10.35
365.909	10.48
366.118	10.29
366.327	10.29
366.536	10.37
366.745	10.2
366.954	10.32
367.162	10.34
367.371	10.2
367.58	10.22
367.789	10.13
367.998	10.13
368.207	9.91
368.415	9.72
368.624	9.77
368.833	9.48
369.042	9.43
369.25	9.09
369.459	9.25
369.668	9.48
369.877	9.71
370.085	9.71
370.294	9.69
370.503	9.91
370.711	10.43
370.92	10.38
371.129	10.68
371.337	10.81
371.546	10.82
371.754	10.71
371.963	10.81
372.171	10.84
372.38	10.59
372.589	10.74
372.797	10.92
373.006	10.63
373.214	10.66
373.423	10.72
373.631	10.65
373.84	10.78
374.048	10.69
374.256	10.4
374.465	10.15
374.673	10.06
374.882	9.93
375.09	9.55
375.298	9.32
375.507	9.12
375.715	9.02
375.923	8.68
376.132	8.59
376.34	8.64
376.548	8.81
376.757	8.75
376.965	9.04
377.173	8.88
377.381	9.1
377.59	9.41
377.798	9.51
378.006	9.43
378.214	9.43
378.423	9.39
378.631	9.47
378.839	9.49
379.047	9.64
379.255	9.25
379.463	9.14
379.671	8.92
379.879	8.73
380.088	8.6
380.296	8.72
380.504	9.12
380.712	9.26
380.92	9.38
381.128	9.1
381.336	9.04
381.544	9.3
381.752	9.36
381.96	9.29
382.168	9.33
382.376	9.5
382.584	9.32
382.791	9.26
382.999	9.21
383.207	8.87
383.415	8.89
383.623	9.04
383.831	8.81
384.039	9.06
384.247	9.03
384.454	8.81
384.662	8.61
384.87	8.63
385.078	8.56
385.285	8.45
385.493	8.67
385.701	8.61
385.909	8.4
386.116	8.48
386.324	8.2
386.532	8.41
386.739	8.74
386.947	8.79
387.155	8.84
387.362	8.66
387.57	8.76
387.778	8.56
387.985	8.74
388.193	8.95
388.4	9.06
388.608	9.08
388.816	9.02
389.023	8.91
389.231	8.82
389.438	8.88
389.646	8.99
389.853	8.93
390.061	8.9
390.268	8.52
390.475	8.4
390.683	8.32
390.89	8.46
391.098	8.55
391.305	8.45
391.512	8.55
391.72	8.44
391.927	8.47
392.135	8.47
392.342	8.55
392.549	8.74
392.756	8.58
392.964	8.62
393.171	8.51
393.378	8.36
393.586	8.22
393.793	8.08
394	8
394.207	7.93
394.414	7.89
394.622	7.97
394.829	8.03
395.036	8.27
395.243	8.26
395.45	8.17
395.657	8.02
395.864	8.33
396.072	8.29
396.279	8.29
396.486	8.3
396.693	8.14
396.9	8.14
397.107	8.19
397.314	8.21
397.521	7.98
397.728	8.04
397.935	8.21
398.142	8.09
398.349	8.39
398.556	8.49
398.763	8.39
398.97	8.48
399.177	8.33
399.383	8.35
399.59	8.32
399.797	8.36
400.004	8.27
400.211	8.18
400.418	8.08
400.625	7.81
400.831	7.81
401.038	7.79
401.245	7.64
401.452	7.79
401.658	7.7
401.865	7.38
402.072	7.53
402.279	7.62
402.485	7.69
402.692	7.69
402.899	7.77
403.105	7.69
403.312	7.8
403.519	7.87
403.725	7.75
403.932	7.78
404.138	7.95
404.345	7.85
404.552	7.82
404.758	7.77
404.965	7.64
405.171	7.64
405.378	7.76
405.584	7.69
405.791	7.73
405.997	7.91
406.204	8.04
406.41	8.13
406.617	8.32
406.823	8.43
407.029	8.29
407.236	8.57
407.442	8.66
407.649	8.57
407.855	8.59
408.061	8.54
408.268	8.31
408.474	8.13
408.68	7.94
408.887	7.83
409.093	7.69
409.299	7.75
409.505	7.53
409.712	7.5
409.918	7.61
410.124	7.61
410.33	7.63
410.537	7.66
410.743	7.77
410.949	7.77
411.155	7.74
411.361	7.69
411.567	7.7
411.773	7.83
411.98	7.71
412.186	7.53
412.392	7.43
412.598	7.47
412.804	7.5
413.01	7.41
413.216	7.61
413.422	7.7
413.628	7.87
413.834	7.9
414.04	7.87
414.246	7.89
414.452	7.93
414.658	8.01
414.864	8.04
415.07	7.98
415.275	8.07
415.481	8.04
415.687	7.94
415.893	7.86
416.099	7.71
416.305	7.66
416.511	7.64
416.716	7.63
416.922	7.64
417.128	7.56
417.334	7.64
417.539	7.58
417.745	7.52
417.951	7.53
418.157	7.53
418.362	7.57
418.568	7.61
418.774	7.61
418.979	7.64
419.185	7.59
419.391	7.63
419.596	7.59
419.802	7.56
420.008	7.58
420.213	7.6
420.419	7.64
420.624	7.65
420.83	7.65
421.035	7.65
421.241	7.64
421.446	7.6
421.652	7.62
421.857	7.61
422.063	7.75
422.268	7.81
422.474	7.78
422.679	7.78
422.885	7.87
423.09	7.87
423.295	7.94
423.501	7.86
423.706	7.9
423.911	7.87
424.117	7.98
424.322	7.84
424.527	7.82
424.733	7.9
424.938	7.87
425.143	7.78
425.349	7.77
425.554	7.77
425.759	7.87
425.964	7.97
426.169	7.94
426.375	7.85
426.58	7.98
426.785	7.86
426.99	7.83
427.195	7.82
427.4	7.88
427.605	7.86
427.811	7.93
428.016	7.99
428.221	7.89
428.426	7.94
428.631	7.89
428.836	7.83
429.041	8.06
429.246	7.96
429.451	8.01
429.656	8.08
429.861	8.27
430.066	8.1
430.271	8.07
430.476	8.06
430.681	8.08
430.886	8.09
431.09	8.11
431.295	7.99
431.5	8.14
431.705	8.1
431.91	8.11
432.115	7.83
432.32	7.95
432.524	7.93
432.729	7.92
432.934	7.95
433.139	8.03
433.343	8.05
433.548	8.08
433.753	8.06
433.958	8.11
434.162	8.1
434.367	8.26
434.572	8.08
434.776	8.09
434.981	8.18
435.186	8.15
435.39	8.1
435.595	8.06
435.799	8.16
436.004	8.13
436.209	8.1
436.413	7.95
436.618	7.99
436.822	8.11
437.027	8.11
437.231	8.1
437.436	8.04
437.64	8
437.845	8.06
438.049	8
438.253	8
438.458	8.04
438.662	8.1
438.867	8.12
439.071	8.1
439.275	8.09
439.48	8.15
439.684	8.27
439.888	8.33
440.093	8.24
440.297	8.2
440.501	8.21
440.706	8.25
440.91	8.22
441.114	8.18
441.318	8.16
441.523	8.15
441.727	8.11
441.931	8.02
442.135	8.07
442.339	8.12
442.543	8.1
442.748	8.03
442.952	7.96
443.156	8.01
443.36	7.97
443.564	7.97
443.768	7.92
443.972	7.82
444.176	7.91
444.38	7.88
444.584	7.88
444.788	8
444.992	8.02
445.196	8.12
445.4	8.12
445.604	8.18
445.808	8.22
446.012	8.36
446.216	8.48
446.42	8.4
446.624	8.29
446.828	8.24
447.032	8.18
447.235	8.28
447.439	8.23
447.643	8.27
447.847	8.33
448.051	8.39
448.254	8.37
448.458	8.31
448.662	8.39
448.866	8.48
449.069	8.61
449.273	8.65
449.477	8.57
449.681	8.55
449.884	8.45
450.088	8.41
450.292	8.33
450.495	8.36
450.699	8.38
450.902	8.42
451.106	8.46
451.31	8.28
451.513	8.28
451.717	8.31
451.92	8.4
452.124	8.49
452.327	8.56
452.531	8.52
452.734	8.41
452.938	8.36
453.141	8.35
453.345	8.37
453.548	8.53
453.752	8.51
453.955	8.41
454.158	8.32
454.362	8.2
454.565	8.12
454.769	8.03
454.972	8.06
455.175	8.04
455.379	7.95
455.582	7.92
455.785	7.9
455.988	7.86
456.192	7.88
456.395	7.87
456.598	7.97
456.801	7.81
457.005	7.82
457.208	7.79
457.411	7.83
457.614	7.82
457.817	7.81
458.021	7.79
458.224	7.78
458.427	7.75
458.63	7.77
458.833	7.76
459.036	7.88
459.239	8
459.442	8.04
459.645	8.01
459.848	8.04
460.051	8.05
460.254	8.07
460.457	8.11
460.66	8.23
460.863	8.3
461.066	8.43
461.269	8.4
461.472	8.32
461.675	8.37
461.878	8.43
462.081	8.43
462.284	8.47
462.486	8.58
462.689	8.56
462.892	8.44
463.095	8.3
463.298	8.12
463.5	8.16
463.703	8.26
463.906	8.25
464.109	8.18
464.311	8.26
464.514	8.2
464.717	8.24
464.92	8.29
465.122	8.4
465.325	8.5
465.528	8.51
465.73	8.46
465.933	8.5
466.135	8.43
466.338	8.39
466.541	8.32
466.743	8.29
466.946	8.18
467.148	8.19
467.351	8.19
467.553	8.16
467.756	8.19
467.958	8.21
468.161	8.03
468.363	8.03
468.566	8.23
468.768	8.27
468.971	8.29
469.173	8.31
469.375	8.2
469.578	8.27
469.78	8.24
469.983	8.23
470.185	8.29
470.387	8.4
470.59	8.48
470.792	8.47
470.994	8.52
471.196	8.52
471.399	8.52
471.601	8.54
471.803	8.43
472.005	8.44
472.208	8.46
472.41	8.37
472.612	8.43
472.814	8.33
473.016	8.24
473.218	8.21
473.421	8.23
473.623	8.19
473.825	8.23
474.027	8.16
474.229	8.2
474.431	8.16
474.633	8.23
474.835	8.22
475.037	8.3
475.239	8.27
475.441	8.17
475.643	8.2
475.845	8.25
476.047	8.2
476.249	8.35
476.451	8.32
476.653	8.39
476.855	8.41
477.057	8.38
477.258	8.34
477.46	8.41
477.662	8.44
477.864	8.47
478.066	8.49
478.268	8.54
478.469	8.42
478.671	8.33
478.873	8.25
479.075	8.21
479.276	8.1
479.478	8.16
479.68	8.07
479.882	8.1
480.083	8.02
480.285	7.97
480.487	7.94
480.688	7.88
480.89	7.9
481.091	7.84
481.293	7.82
481.495	7.89
481.696	7.9
481.898	7.95
482.099	7.98
482.301	8.01
482.502	8.05
482.704	8.1
482.905	8.19
483.107	8.24
483.308	8.34
483.51	8.39
483.711	8.44
483.913	8.45
484.114	8.48
484.315	8.47
484.517	8.52
484.718	8.49
484.92	8.48
485.121	8.42
485.322	8.37
485.524	8.32
485.725	8.26
485.926	8.21
486.127	8.22
486.329	8.21
486.53	8.22
486.731	8.24
486.932	8.28
487.134	8.29
487.335	8.31
487.536	8.33
487.737	8.35
487.938	8.4
488.139	8.41
488.341	8.33
488.542	8.31
488.743	8.27
488.944	8.19
489.145	8.11
489.346	8.1
489.547	8.03
489.748	8.03
489.949	8.02
490.15	8.03
490.351	8.09
490.552	8.16
490.753	8.23
490.954	8.28
491.155	8.33
491.356	8.37
491.557	8.4
491.758	8.47
491.959	8.49
492.159	8.47
492.36	8.47
492.561	8.44
492.762	8.45
492.963	8.39
493.164	8.37
493.364	8.25
493.565	8.19
493.766	8.16
493.967	8.11
494.167	8.1
494.368	8.15
494.569	8.09
494.769	8.06
494.97	8.12
495.171	8.18
495.371	8.23
495.572	8.32
495.773	8.35
495.973	8.34
496.174	8.34
496.375	8.36
496.575	8.49
496.776	8.61
496.976	8.64
497.177	8.47
497.377	8.44
497.578	8.33
497.778	8.3
497.979	8.36
498.179	8.46
498.38	8.53
498.58	8.5
498.78	8.39
498.981	8.35
499.181	8.29
499.382	8.48
499.582	8.52
499.782	8.65
499.983	8.69
500.183	8.72
500.383	8.62
500.584	8.62
500.784	8.65
500.984	8.68
501.184	8.64
501.385	8.71
501.585	8.75
501.785	8.79
501.985	8.71
502.185	8.74
502.386	8.69
502.586	8.71
502.786	8.68
502.986	8.7
503.186	8.66
503.386	8.7
503.586	8.72
503.786	8.67
503.987	8.63
504.187	8.75
504.387	8.77
504.587	8.8
504.787	8.74
504.987	8.88
505.187	8.86
505.387	8.91
505.587	8.89
505.786	8.75
505.986	8.76
506.186	8.68
506.386	8.65
506.586	8.74
506.786	8.75
506.986	8.83
507.186	8.84
507.386	8.88
507.585	8.94
507.785	9.01
507.985	9.12
508.185	9.14
508.384	9.3
508.584	9.29
508.784	9.27
508.984	9.25
509.183	9.31
509.383	9.33
509.583	9.38
509.782	9.37
509.982	9.37
510.182	9.48
510.381	9.57
510.581	9.5
510.781	9.56
510.98	9.49
511.18	9.57
511.379	9.52
511.579	9.51
511.778	9.5
511.978	9.46
512.177	9.51
512.377	9.5
512.576	9.35
512.776	9.39
512.975	9.37
513.175	9.42
513.374	9.38
513.573	9.35
513.773	9.29
513.972	9.34
514.172	9.37
514.371	9.33
514.57	9.27
514.77	9.32
514.969	9.38
515.168	9.4
515.367	9.4
515.567	9.33
515.766	9.4
515.965	9.44
516.164	9.41
516.364	9.43
516.563	9.44
516.762	9.44
516.961	9.45
517.16	9.45
517.359	9.44
517.559	9.5
517.758	9.6
517.957	9.6
518.156	9.68
518.355	9.69
518.554	9.7
518.753	9.7
518.952	9.77
519.151	9.77
519.35	9.77
519.549	9.75
519.748	9.69
519.947	9.73
520.146	9.77
520.345	9.69
520.544	9.64
520.743	9.56
520.942	9.67
521.141	9.62
521.339	9.67
521.538	9.72
521.737	9.81
521.936	9.82
522.135	9.79
522.333	9.74
522.532	9.74
522.731	9.79
522.93	9.87
523.129	9.84
523.327	9.88
523.526	9.89
523.725	9.84
523.923	9.84
524.122	9.85
524.321	9.87
524.519	9.9
524.718	9.9
524.917	9.88
525.115	9.82
525.314	9.79
525.512	9.73
525.711	9.71
525.909	9.68
526.108	9.66
526.306	9.62
526.505	9.62
526.703	9.61
526.902	9.66
527.1	9.67
527.299	9.77
527.497	9.84
527.696	9.9
527.894	9.98
528.092	10.07
528.291	10.15
528.489	10.26
528.688	10.35
528.886	10.47
529.084	10.53
529.283	10.63
529.481	10.62
529.679	10.57
529.877	10.6
530.076	10.54
530.274	10.49
530.472	10.42
530.67	10.37
530.869	10.26
531.067	10.18
531.265	10.16
531.463	10.12
531.661	10.14
531.859	10.24
532.057	10.27
532.255	10.33
532.454	10.35
532.652	10.37
532.85	10.43
533.048	10.51
533.246	10.55
533.444	10.57
533.642	10.61
533.84	10.66
534.038	10.69
534.236	10.64
534.434	10.59
534.632	10.59
534.83	10.62
535.027	10.59
535.225	10.62
535.423	10.58
535.621	10.61
535.819	10.63
536.017	10.68
536.215	10.63
536.412	10.73
536.61	10.79
536.808	10.83
537.006	10.93
537.203	10.95
537.401	10.87
537.599	10.96
537.797	10.91
537.994	10.92
538.192	10.84
538.39	10.88
538.587	10.83
538.785	10.81
538.983	10.74
539.18	10.66
539.378	10.73
539.575	10.77
539.773	10.79
539.97	10.83
540.168	10.91
540.366	11
540.563	11.04
540.761	11.09
540.958	11.15
541.155	11.26
541.353	11.33
541.55	11.3
541.748	11.34
541.945	11.4
542.143	11.48
542.34	11.43
542.537	11.41
542.735	11.36
542.932	11.42
543.129	11.43
543.327	11.44
543.524	11.42
543.721	11.51
543.919	11.56
544.116	11.52
544.313	11.51
544.51	11.62
544.708	11.61
544.905	11.59
545.102	11.6
545.299	11.64
545.496	11.68
545.693	11.74
545.891	11.77
546.088	11.85
546.285	11.94
546.482	11.97
546.679	11.99
546.876	12.06
547.073	12.29
547.27	12.24
547.467	12.22
547.664	12.26
547.861	12.28
548.058	12.38
548.255	12.28
548.452	12.34
548.649	12.32
548.846	12.35
549.043	12.35
549.24	12.24
549.437	12.31
549.633	12.24
549.83	12.17
550.027	12.18
550.224	12.11
550.421	12.15
550.618	12.2
550.814	12.32
551.011	12.39
551.208	12.3
551.405	12.36
551.601	12.48
551.798	12.67
551.995	12.67
552.191	12.74
552.388	12.83
552.585	12.9
552.781	12.82
552.978	12.83
553.175	12.91
553.371	13.02
553.568	13.05
553.764	13.13
553.961	13.26
554.157	13.48
554.354	13.54
554.55	13.51
554.747	13.45
554.943	13.57
555.14	13.64
555.336	13.53
555.533	13.54
555.729	13.64
555.926	13.54
556.122	13.4
556.318	13.31
556.515	13.28
556.711	13.39
556.907	13.52
557.104	13.56
557.3	13.41
557.496	13.51
557.693	13.53
557.889	13.46
558.085	13.44
558.281	13.41
558.478	13.42
558.674	13.41
558.87	13.35
559.066	13.4
559.262	13.4
559.459	13.6
559.655	13.65
559.851	13.75
560.047	13.93
560.243	13.99
560.439	14.12
560.635	14.18
560.831	14.28
561.027	14.36
561.223	14.39
561.419	14.3
561.615	14.31
561.811	14.27
562.007	14.32
562.203	14.25
562.399	14.33
562.595	14.35
562.791	14.32
562.987	14.28
563.183	14.4
563.379	14.47
563.575	14.67
563.771	14.69
563.966	14.67
564.162	14.7
564.358	14.69
564.554	14.68
564.75	14.7
564.945	14.75
565.141	14.83
565.337	14.75
565.533	14.73
565.728	14.74
565.924	14.69
566.12	14.8
566.315	14.81
566.511	14.91
566.707	15
566.902	15.08
567.098	15.2
567.293	15.22
567.489	15.32
567.684	15.37
567.88	15.33
568.076	15.35
568.271	15.26
568.467	15.2
568.662	15.17
568.858	15.16
569.053	15.12
569.248	15.05
569.444	15.17
569.639	15.19
569.835	15.23
570.03	15.22
570.225	15.33
570.421	15.46
570.616	15.64
570.812	15.77
571.007	15.9
571.202	15.96
571.397	16.06
571.593	16.05
571.788	16.11
571.983	16.12
572.178	16.27
572.374	16.34
572.569	16.43
572.764	16.44
572.959	16.35
573.154	16.28
573.35	16.3
573.545	16.29
573.74	16.35
573.935	16.31
574.13	16.34
574.325	16.32
574.52	16.24
574.715	16.2
574.91	16.17
575.105	16.27
575.3	16.26
575.495	16.33
575.69	16.46
575.885	16.4
576.08	16.47
576.275	16.55
576.47	16.49
576.665	16.52
576.86	16.47
577.055	16.56
577.25	16.59
577.444	16.66
577.639	16.56
577.834	16.39
578.029	16.42
578.224	16.47
578.418	16.37
578.613	16.47
578.808	16.53
579.003	16.57
579.197	16.6
579.392	16.56
579.587	16.62
579.781	16.66
579.976	16.81
580.171	16.83
580.365	16.89
580.56	17.01
580.755	16.99
580.949	17
581.144	17.06
581.338	16.99
581.533	17.07
581.727	17.05
581.922	17
582.116	16.92
582.311	16.92
582.505	16.91
582.7	16.8
582.894	16.84
583.089	16.96
583.283	16.84
583.478	16.81
583.672	16.88
583.866	16.84
584.061	17.06
584.255	17.12
584.449	17.09
584.644	17.18
584.838	17.35
585.032	17.39
585.226	17.34
585.421	17.64
585.615	17.61
585.809	17.51
586.003	17.49
586.198	17.3
586.392	17.3
586.586	17.32
586.78	17.27
586.974	17.31
587.168	17.34
587.363	17.43
587.557	17.29
587.751	17.3
587.945	17.41
588.139	17.51
588.333	17.66
588.527	17.85
588.721	17.82
588.915	17.9
589.109	17.97
589.303	17.81
589.497	17.88
589.691	17.99
589.885	18.11
590.079	18.12
590.273	18.09
590.466	18.09
590.66	18
590.854	18.07
591.048	17.97
591.242	17.84
591.436	18.04
591.629	18.01
591.823	18.09
592.017	17.99
592.211	17.9
592.404	18
592.598	17.99
592.792	17.81
592.986	17.88
593.179	17.9
593.373	17.94
593.567	18.03
593.76	18.01
593.954	17.83
594.147	17.82
594.341	17.89
594.535	17.74
594.728	17.85
594.922	18.01
595.115	17.97
595.309	18.04
595.502	18.01
595.696	17.96
595.889	17.93
596.083	17.96
596.276	18.15
596.47	18.16
596.663	18.35
596.856	18.25
597.05	18.29
597.243	18.26
597.437	18.17
597.63	18.15
597.823	18.16
598.017	18.11
598.21	18.22
598.403	18.24
598.596	18.34
598.79	18.18
598.983	18.21
599.176	18.02
599.369	18.15
599.563	18.15
599.756	18.35
599.949	18.43
600.142	18.5
600.335	18.44
600.528	18.22
600.722	18.18
600.915	18.28
601.108	18.39
601.301	18.47
601.494	18.37
601.687	18.49
601.88	18.3
602.073	18.25
602.266	18.29
602.459	18.36
602.652	18.52
602.845	18.38
603.038	18.45
603.231	18.31
603.424	18.36
603.617	18.4
603.809	18.35
604.002	18.37
604.195	18.38
604.388	18.41
604.581	18.3
604.774	18.21
604.966	18.34
605.159	18.26
605.352	18.35
605.545	18.38
605.737	18.44
605.93	18.48
606.123	18.51
606.316	18.49
606.508	18.51
606.701	18.61
606.894	18.55
607.086	18.55
607.279	18.5
607.471	18.55
607.664	18.63
607.857	18.62
608.049	18.53
608.242	18.6
608.434	18.65
608.627	18.48
608.819	18.5
609.012	18.47
609.204	18.51
609.397	18.63
609.589	18.62
609.782	18.58
609.974	18.71
610.166	18.74
610.359	18.76
610.551	18.77
610.743	18.92
610.936	18.94
611.128	19.01
611.32	19.03
611.513	18.97
611.705	19.04
611.897	18.98
612.09	18.8
612.282	18.87
612.474	18.76
612.666	18.74
612.858	18.84
613.051	18.9
613.243	19.04
613.435	19.03
613.627	19.06
613.819	18.95
614.011	19.07
614.203	19.32
614.395	19.16
614.588	19.31
614.78	19.32
614.972	19.15
615.164	19.19
615.356	19.26
615.548	19.21
615.74	19.01
615.932	19.04
616.124	18.97
616.315	18.99
616.507	19.13
616.699	19.09
616.891	19.03
617.083	19.07
617.275	18.97
617.467	18.85
617.659	18.87
617.85	19.11
618.042	19.05
618.234	19.04
618.426	18.77
618.618	18.94
618.809	19.15
619.001	19.12
619.193	19.24
619.384	19.31
619.576	19.37
619.768	19.4
619.959	19.37
620.151	19.3
620.343	19.57
620.534	19.83
620.726	19.8
620.917	19.64
621.109	19.76
621.301	19.75
621.492	19.93
621.684	19.9
621.875	20.03
622.067	20.06
622.258	20.22
622.45	20.13
622.641	19.78
622.832	19.65
623.024	19.59
623.215	19.61
623.407	19.42
623.598	19.19
623.789	19.09
623.981	19.04
624.172	19.05
624.363	19
624.555	18.85
624.746	18.96
624.937	19.01
625.129	18.94
625.32	18.9
625.511	18.98
625.702	19.06
625.893	19.14
626.085	19.32
626.276	19.27
626.467	19.34
626.658	19.39
626.849	19.44
627.04	19.49
627.231	19.65
627.422	19.7
627.614	19.75
627.805	19.57
627.996	19.55
628.187	19.23
628.378	19.26
628.569	19.21
628.76	19.39
628.951	19.35
629.142	19.3
629.332	19.31
629.523	19.35
629.714	19.44
629.905	19.54
630.096	19.81
630.287	20
630.478	20.07
630.669	20.12
630.859	19.94
631.05	19.8
631.241	19.77
631.432	19.7
631.623	19.58
631.813	19.54
632.004	19.57
632.195	19.36
632.385	19.27
632.576	19.17
632.767	19.2
632.957	19.22
633.148	19.49
633.339	19.64
633.529	19.68
633.72	19.87
633.91	19.86
634.101	19.96
634.292	19.8
634.482	19.82
634.673	19.95
634.863	19.85
635.054	19.86
635.244	19.9
635.435	19.9
635.625	19.87
635.815	19.9
636.006	19.93
636.196	19.98
636.387	20.23
636.577	20.37
636.767	20.43
636.958	20.41
637.148	20.41
637.338	20.33
637.529	20.27
637.719	20.15
637.909	19.82
638.099	19.88
638.29	19.84
638.48	19.91
638.67	19.74
638.86	19.73
639.05	19.88
639.241	20.07
639.431	20.04
639.621	20
639.811	20.22
640.001	20.38
640.191	20.45
640.381	20.46
640.571	20.22
640.761	20.26
640.951	20.1
641.141	20.04
641.331	19.79
641.521	19.8
641.711	19.87
641.901	19.91
642.091	19.85
642.281	19.88
642.471	19.75
642.661	19.82
642.851	19.88
643.041	19.95
643.231	19.96
643.42	19.87
643.61	19.95
643.8	19.96
643.99	19.77
644.18	19.83
644.369	19.71
644.559	19.83
644.749	19.71
644.939	19.82
645.128	19.84
645.318	19.77
645.508	19.93
645.697	19.99
645.887	19.9
646.076	19.94
646.266	20.06
646.456	20.08
646.645	20.17
646.835	20.48
647.024	20.23
647.214	20.17
647.403	20.23
647.593	20.3
647.782	20.23
647.972	20.36
648.161	20.29
648.351	20.27
648.54	20.08
648.73	20.08
648.919	20.02
649.108	20.33
649.298	20.25
649.487	20.16
649.677	20.34
649.866	20.33
650.055	20.34
650.244	20.3
650.434	20.25
650.623	20.39
650.812	20.16
651.002	20.04
651.191	19.93
651.38	20.12
651.569	20.16
651.758	19.87
651.947	19.77
652.137	19.69
652.326	19.86
652.515	20.07
652.704	20.14
652.893	20.39
653.082	20.58
653.271	20.43
653.46	20.27
653.649	20.57
653.838	20.76
654.027	20.97
654.216	20.8
654.405	20.91
654.594	20.54
654.783	20.45
654.972	20.37
655.161	20.18
655.35	20.34
655.539	20.33
655.728	20.22
655.916	20.07
656.105	19.87
656.294	20.13
656.483	19.97
656.672	20.03
656.86	19.96
657.049	19.96
657.238	19.89
657.427	19.71
657.615	19.76
657.804	19.74
657.993	19.87
658.181	19.87
658.37	19.93
658.559	20.04
658.747	20.14
658.936	20.27
659.125	20.14
659.313	20.19
659.502	20.38
659.69	20.53
659.879	20.52
660.067	20.53
660.256	20.62
660.444	20.51
660.633	20.61
660.821	20.46
661.01	20.46
661.198	20.68
661.387	20.69
661.575	20.58
661.763	20.62
661.952	20.68
662.14	20.64
662.328	20.61
662.517	20.52
662.705	20.44
662.893	20.53
663.082	20.58
663.27	20.46
663.458	20.61
663.646	20.64
663.834	20.66
664.023	20.42
664.211	20.31
664.399	20.47
664.587	20.79
664.775	20.56
664.963	20.65
665.152	20.67
665.34	20.66
665.528	20.69
665.716	20.82
665.904	20.7
666.092	20.95
666.28	21.16
666.468	21.02
666.656	21.03
666.844	21.22
667.032	21.51
667.22	21.34
667.408	21.39
667.596	21.4
667.784	21.21
667.971	21.34
668.159	21.47
668.347	21.59
668.535	21.69
668.723	21.59
668.911	21.44
669.098	20.89
669.286	21.02
669.474	20.91
669.662	21.05
669.849	21.09
670.037	20.79
670.225	20.58
670.413	20.36
670.6	20.54
670.788	20.52
670.976	20.73
671.163	20.95
671.351	20.78
671.538	20.98
671.726	20.88
671.913	20.76
672.101	20.91
672.289	21.02
672.476	20.98
672.664	20.48
672.851	20.45
673.039	20.25
673.226	20.36
673.413	20.47
673.601	20.33
673.788	20.41
673.976	20.68
674.163	20.53
674.35	20.38
674.538	20.3
674.725	20.67
674.912	20.78
675.1	20.78
675.287	20.87
675.474	20.67
675.662	20.69
675.849	20.63
676.036	20.66
676.223	20.81
676.411	21.03
676.598	21.07
676.785	21.23
676.972	21.07
677.159	20.99
677.346	20.78
677.533	20.77
677.721	20.8
677.908	20.64
678.095	20.63
678.282	20.62
678.469	20.46
678.656	20.36
678.843	20.18
679.03	20.04
679.217	20.24
679.404	20.35
679.591	20.35
679.778	20.57
679.964	20.56
680.151	20.47
680.338	20.41
680.525	20.51
680.712	20.65
680.899	20.85
681.086	20.82
681.272	20.76
681.459	20.77
681.646	20.86
681.833	20.63
682.02	20.76
682.206	20.86
682.393	20.96
682.58	20.93
682.766	21.01
682.953	20.68
683.14	20.95
683.326	21.1
683.513	21.1
683.7	21.07
683.886	20.98
684.073	20.95
684.259	20.96
684.446	20.93
684.632	20.95
684.819	20.85
685.005	21.06
685.192	20.86
685.378	20.71
685.565	20.87
685.751	21.19
685.938	21.37
686.124	21.37
686.31	21.36
686.497	21.26
686.683	21.08
686.87	21.22
687.056	21.28
687.242	21.5
687.429	21.58
687.615	21.26
687.801	21.28
687.987	21.19
688.174	20.93
688.36	21.07
688.546	21.16
688.732	21.35
688.918	21.21
689.105	21.28
689.291	21.15
689.477	21.11
689.663	21.2
689.849	21.28
690.035	21.39
690.221	21.78
690.407	21.65
690.593	21.6
690.779	21.61
690.965	21.64
691.151	21.36
691.337	21.31
691.523	21.24
691.709	21.25
691.895	21.18
692.081	21.2
692.267	21.2
692.453	21.25
692.639	21.49
692.825	21.33
693.011	21.14
693.196	20.94
693.382	21.1
693.568	21.36
693.754	21.36
693.94	21.38
694.125	21.19
694.311	20.94
694.497	20.7
694.682	20.41
694.868	20.24
695.054	20.44
695.239	20.98
695.425	21.14
695.611	20.98
695.796	20.89
695.982	20.66
696.168	20.67
696.353	20.77
696.539	20.93
696.724	20.86
696.91	20.95
697.095	20.95
697.281	20.98
697.466	21.07
697.652	21.07
697.837	21.14
698.023	21.46
698.208	21.57
698.393	21.77
698.579	21.74
698.764	21.9
698.949	21.97
699.135	22.06
699.32	21.95
699.505	21.97
699.691	22.04
699.876	22.11
700.061	21.83
700.246	21.83
700.432	21.47
700.617	21.58
700.802	21.35
700.987	21.41
701.172	21.76
701.358	21.45
701.543	21.16
701.728	21.23
701.913	21.34
702.098	21.27
702.283	21.16
702.468	21.5
702.653	21.58
702.838	22.04
703.023	22.23
703.208	21.83
703.393	22.25
703.578	22.3
703.763	21.91
703.948	21.89
704.133	22.1
704.318	22.64
704.503	22.54
704.688	22.37
704.873	22.12
705.057	21.87
705.242	21.83
705.427	21.41
705.612	21.43
705.797	21.7
705.981	21.55
706.166	21.62
706.351	21.39
706.536	21.21
706.72	21.43
706.905	21.72
707.09	22.24
707.274	22.35
707.459	22.56
707.644	22.73
707.828	22.48
708.013	22.7
708.197	22.7
708.382	22.32
708.567	22.34
708.751	22.29
708.936	22.06
709.12	21.9
709.305	21.87
709.489	21.92
709.673	21.51
709.858	21.57
710.042	21.51
710.227	21.38
710.411	21.71
710.596	22.03
710.78	21.92
710.964	22.12
711.149	21.95
711.333	21.95
711.517	21.86
711.702	21.9
711.886	22.02
712.07	21.83
712.254	21.79
712.438	21.86
712.623	21.36
712.807	21.08
712.991	20.99
713.175	20.9
713.359	20.93
713.544	21.27
713.728	21.51
713.912	21.45
714.096	21.51
714.28	21.37
714.464	21.26
714.648	21.89
714.832	22.16
715.016	21.97
715.2	21.83
715.384	21.65
715.568	21.69
715.752	21.48
715.936	21.42
716.12	21.75
716.304	21.57
716.488	21.4
716.671	21.11
716.855	21.38
717.039	21.64
717.223	21.59
717.407	21.87
717.59	21.48
717.774	21.49
717.958	21.77
718.142	21.52
718.325	21.49
718.509	21.48
718.693	21.63
718.877	21.24
719.06	21.02
719.244	21.18
719.428	20.89
719.611	20.98
719.795	21.22
719.978	21.13
720.162	21.23
720.345	21.71
720.529	22.36
720.713	22.15
720.896	22.67
721.08	22.87
721.263	22.91
721.446	23.07
721.63	22.87
721.813	22.82
721.997	22.84
722.18	23.02
722.364	23.51
722.547	22.82
722.73	22.95
722.914	22.61
723.097	22.46
723.28	22.22
723.464	21.87
723.647	22.15
723.83	22.13
724.013	22.68
724.197	22.26
724.38	21.38
724.563	21.22
724.746	21
724.929	21.07
725.112	20.85
725.296	21.25
725.479	21.38
725.662	21.65
725.845	21.43
726.028	21.2
726.211	21.22
726.394	21.58
726.577	21.8
726.76	21.95
726.943	21.99
727.126	22.03
727.309	21.96
727.492	21.9
727.675	21.82
727.858	21.54
728.041	21.49
728.224	21.55
728.407	21.58
728.589	21.4
728.772	20.95
728.955	20.96
729.138	21.36
729.321	21.29
729.503	21.17
729.686	21.29
729.869	21.67
730.052	21.6
730.234	21.51
730.417	21.34
730.6	21.69
730.782	22.42
730.965	22.08
731.148	22.04
731.33	22.11
731.513	22.42
731.695	22.08
731.878	21.93
732.061	21.92
732.243	21.94
732.426	22.1
732.608	22.02
732.791	21.67
732.973	22.09
733.156	22
733.338	22.27
733.52	22.46
733.703	23.23
733.885	23.87
734.068	23.75
734.25	23.68
734.432	23.65
734.615	23.59
734.797	23.95
734.979	23.71
735.162	23.95
735.344	23.76
735.526	23.52
735.708	22.44
735.891	22.52
736.073	22.53
736.255	22.76
736.437	22.72
736.619	22.54
736.802	22.37
736.984	22.21
737.166	22.24
737.348	22
737.53	22.29
737.712	22.75
737.894	22.12
738.076	22.09
738.258	22.14
738.44	22.61
738.622	22.77
738.804	22.93
738.986	22.73
739.168	22.49
739.35	22.43
739.532	22.18
739.714	21.76
739.896	22.14
740.078	22.33
740.259	22.02
740.441	21.98
740.623	22.37
740.805	22.05
740.987	22.36
741.168	22.1
741.35	22.05
741.532	22.49
741.714	23.34
741.895	23.11
742.077	22.79
742.259	23.3
742.44	23.02
742.622	22.24
742.804	22.03
742.985	22.18
743.167	22.72
743.348	23.15
743.53	22.59
743.711	22.04
743.893	22.21
744.075	22.32
744.256	22.11
744.438	21.83
744.619	22.63
744.8	22.79
744.982	22.98
745.163	23
745.345	23.1
745.526	23.34
745.707	23.19
745.889	23.68
746.07	23.9
746.252	23.58
746.433	23.67
746.614	23.01
746.795	23.39
746.977	22.99
747.158	23.13
747.339	22.49
747.52	22.55
747.702	22.99
747.883	22.28
748.064	22.19
748.245	21.67
748.426	22
748.607	22.22
748.788	22
748.97	22.42
749.151	21.55
749.332	22.51
749.513	22.18
749.694	21.46
749.875	21.82
750.056	22.44
750.237	23.43
750.418	23.57
750.599	23.04
750.78	22.69
750.96	22.58
751.141	22.55
751.322	21.86
751.503	21.86
751.684	21.99
751.865	21.57
752.046	20.38
752.226	20.27
752.407	20.46
752.588	21.84
752.769	21.74
752.949	21.13
753.13	21.3
753.311	21.68
753.492	21.58
753.672	21.79
753.853	21.35
754.034	22.64
754.214	23.19
754.395	22.13
754.575	21.12
754.756	21.61
754.937	21.41
755.117	21.6
755.298	21.25
755.478	21.23
755.659	21.14
755.839	22.13
756.02	21.52
756.2	20.85
756.381	21.46
756.561	22.04
756.741	21.77
756.922	22.34
757.102	22.6
757.283	22.69
757.463	22.81
757.643	22.67
757.823	22.09
758.004	22.51
758.184	22.72
758.364	22.51
758.545	22.4
758.725	22.24
758.905	22.74
759.085	22.63
759.265	22.48
759.446	22.83
759.626	23.16
759.806	23.44
759.986	22.77
760.166	22.6
760.346	22.49
760.526	22.78
760.706	23.12
760.886	22.16
761.066	22.01
761.246	22.26
761.426	22.01
761.606	21.37
761.786	21.52
761.966	21.44
762.146	21.13
762.326	21.47
762.506	21.37
762.686	20.84
762.866	21.21
763.046	21.14
763.225	20.83
763.405	20.5
763.585	20.67
763.765	20.18
763.945	20.28
764.124	20.61
764.304	20.64
764.484	20.54
764.664	20.92
764.843	21.02
765.023	21.14
765.203	21.34
765.382	21.96
765.562	23
765.741	22.92
765.921	22.69
766.101	22.83
766.28	22.98
766.46	22.57
766.639	22.7
766.819	22.95
766.998	22.84
767.178	23.02
767.357	22.68
767.537	21.19
767.716	22.22
767.896	23
768.075	23.21
768.254	22.71
768.434	23.51
768.613	23.39
768.792	22.92
768.972	23.43
769.151	23.21
769.33	23.25
769.51	24.45
769.689	23.74
769.868	23.17
770.047	23.2
770.226	22.76
770.406	22.28
770.585	22.7
770.764	22.48
770.943	22.43
771.122	22.59
771.301	23.29
771.48	22.22
771.66	22.3
771.839	22.89
772.018	22.4
772.197	22.8
772.376	22.41
772.555	21.74
772.734	22.7
772.913	22.59
773.092	22.65
773.271	22.46
773.449	22.79
773.628	22.52
773.807	21.93
773.986	21.93
774.165	22.05
774.344	22.42
774.523	22.96
774.701	22.04
774.88	22.14
775.059	22.02
775.238	21.65
775.417	21.61
775.595	22.31
775.774	22.3
775.953	21.97
776.131	22
776.31	22.25
776.489	22.25
776.667	22.53
776.846	22.52
777.025	22.87
777.203	22.47
777.382	23.32
777.56	22.84
777.739	23.09
777.917	23.11
778.096	23.62
778.274	23.48
778.453	22.74
778.631	22.17
778.81	21.94
778.988	22.27
779.166	22.27
779.345	21.94
779.523	21.88
779.702	21.82
779.88	22.48
780.058	21.97
780.237	21.59
780.415	22.4
780.593	23.29
780.771	22.02
780.95	21.58
781.128	21.35
781.306	20.97
781.484	21.86
781.662	21.73
781.841	21.69
782.019	21.57
782.197	22.07
782.375	22.15
782.553	22.39
782.731	23.8
782.909	23.01
783.087	23.79
783.265	23.36
783.443	23.3
783.621	23.43
783.799	23.35
783.977	23.16
784.155	22.98
784.333	23.1
784.511	21.66
784.689	21.39
784.867	22.24
785.045	22.63
785.223	23.02
785.4	22.81
785.578	23.67
785.756	23.93
785.934	24.43
786.112	23.78
786.289	23.4
786.467	24.28
786.645	24.36
786.823	23.66
787	23.08
787.178	22.78
787.356	21.99
787.533	21.33
787.711	20.68
787.889	20.72
788.066	21.63
788.244	21.08
788.421	21.07
788.599	21.49
788.776	22.38
788.954	23.1
789.131	23.63
789.309	24.01
789.486	23.71
789.664	24.25
789.841	24.07
790.019	24.15
790.196	24.67
790.373	24.61
790.551	24.9
790.728	23.88
790.906	22.64
791.083	23.47
791.26	23.66
791.437	23.78
791.615	24.3
791.792	24.82
791.969	24.94
792.146	25.8
792.324	25.95
792.501	24.91
792.678	25.47
792.855	26.28
793.032	24.62
793.209	24.95
793.387	24.69
793.564	23.07
793.741	22.75
793.918	22.28
794.095	21.6
794.272	22.84
794.449	23.12
794.626	23.13
794.803	22.3
794.98	23.24
795.157	23.02
795.334	24.28
795.511	24.86
795.688	25.31
795.864	25.43
796.041	25.62
796.218	23.46
796.395	24.39
796.572	24.53
796.749	24.61
796.925	24.96
797.102	24.83
797.279	24.31
797.456	24.96
797.632	24.87
797.809	25.32
797.986	25.46
798.162	26.34
798.339	24.43
798.516	23.65
798.692	23.29
798.869	22.93
799.046	22.66
799.222	22.07
799.399	20.93
799.575	20.79
799.752	20.28
799.928	19.42
800.105	19.76
800.281	20.5
800.458	21.55
800.634	22.61
800.811	22.35
800.987	22.63
801.163	22.2
801.34	23.09
801.516	22.5
801.692	22.59
801.869	22.66
802.045	22.46
802.221	22.56
802.398	23.71
802.574	24.07
802.75	24.62
802.926	24.73
803.103	25.76
803.279	24.74
803.455	24.86
803.631	25.33
803.807	24.75
803.983	25.37
804.16	25.33
804.336	24.33
804.512	24.71
804.688	23.23
804.864	22.2
805.04	21.87
805.216	23.17
805.392	23.63
805.568	22.52
805.744	23.79
805.92	22.62
806.096	23.37
806.272	22.5
806.448	22.46
806.623	23.6
806.799	24.03
806.975	23.56
807.151	23.69
807.327	23.12
807.503	24.35
807.678	23.63
807.854	23.64
808.03	23.52
808.206	24.16
808.381	23.01
808.557	22.83
808.733	22.95
808.908	22.59
809.084	21.24
809.26	22.31
809.435	21.57
809.611	21.86
809.787	22.67
809.962	22.49
810.138	23.49
810.313	23.54
810.489	23.47
810.664	23.53
810.84	23.73
811.015	24.75
811.191	23.12
811.366	23.95
811.542	24.53
811.717	24.64
811.892	24.84
812.068	23.78
812.243	24.87
812.419	23.69
812.594	22.73
812.769	23.45
812.944	23.66
813.12	24.16
813.295	22.66
813.47	21.9
813.645	21.65
813.821	22.01
813.996	21.27
814.171	19.72
814.346	21.97
814.521	24.71
814.697	25.19
814.872	24.6
815.047	25.32
815.222	25.72
815.397	26.54
815.572	26.45
815.747	24.3
815.922	23.72
816.097	23.53
816.272	23.11
816.447	22.64
816.622	21.47
816.797	22.97
816.972	23.83
817.147	23.21
817.322	22.84
817.496	22.48
817.671	23.13
817.846	23.5
818.021	25.06
818.196	25.05
818.371	25.64
818.545	25.98
818.72	24.98
818.895	24.08
819.069	24.25
819.244	24.26
819.419	23.86
819.594	23.34
819.768	24.09
819.943	24.08
820.117	23.67
820.292	22.91
820.467	22.49
820.641	22.21
820.816	22.31
820.99	22.35
821.165	21.93
821.339	21.99
821.514	22.17
821.688	22.11
821.863	21.99
822.037	22.04
822.212	21.94
822.386	22.11
822.56	22.2
822.735	22.01
822.909	22.04
823.084	22.51
823.258	22.65
823.432	22.82
823.606	22.75
823.781	22.48
823.955	22.41
824.129	22.62
824.303	22.9
824.478	23.12
824.652	23.78
824.826	24.16
825	23.67
825.174	23.58
825.348	23.6
825.523	23.45
825.697	23.56
825.871	23.49
826.045	23.55
826.219	23.54
826.393	23.04
826.567	22.73
826.741	22.65
826.915	23
827.089	23.43
827.263	23.54
827.437	23.97
827.611	24.03
827.784	24.59
827.958	24.65
828.132	24.42
828.306	24.81
828.48	24.84
828.654	24.93
828.827	24.55
829.001	24.81
829.175	25.01
829.349	25.07
829.522	26.22
829.696	25.2
829.87	25.33
830.044	25.74
830.217	26.43
830.391	25.82
830.565	25.45
830.738	26.62
830.912	25.1
831.085	24.78
831.259	23.61
831.432	22.4
831.606	24.02
831.779	23.87
831.953	23.06
832.126	22.56
832.3	23.63
832.473	24.18
832.647	23.41
832.82	24.04
832.994	23.55
833.167	23.42
833.34	23.63
833.514	23.08
833.687	22.75
833.86	22.12
834.034	22.24
834.207	21.96
834.38	20.97
834.553	21.07
834.727	20.33
834.9	20.83
835.073	21.8
835.246	21.9
835.419	21.77
835.593	21.64
835.766	23.69
835.939	23.78
836.112	22.98
836.285	24.19
836.458	24.59
836.631	26.25
836.804	26.12
836.977	27.19
837.15	27.1
837.323	27.54
837.496	28.24
837.669	26.23
837.842	26.01
838.015	25.97
838.188	25.67
838.361	26.45
838.533	25.07
838.706	25.25
838.879	24.02
839.052	23.02
839.225	23.39
839.398	23.41
839.57	23.64
839.743	22.06
839.916	23.48
840.088	23.49
840.261	23.14
840.434	22.35
840.607	21.29
840.779	22.14
840.952	22.77
841.124	22.42
841.297	21.97
841.47	23.45
841.642	25.11
841.815	24.75
841.987	24.54
842.16	23.66
842.332	25.84
842.505	27.14
842.677	25.52
842.85	26.31
843.022	26.16
843.194	26.07
843.367	25.3
843.539	26.51
843.712	26.86
843.884	29.41
844.056	29.81
844.229	28.29
844.401	27.09
844.573	28.1
844.745	27.97
844.918	29.68
845.09	33.54
845.262	34.12
845.434	32.74
845.606	31.16
845.779	27.76
845.951	26.36
846.123	24.89
846.295	27.68
846.467	26.46
846.639	26.76
846.811	26.17
846.983	23.89
847.155	23.89
847.327	22.5
847.499	25.63
847.671	27.8
847.843	28.81
848.015	32.52
848.187	29.22
848.359	30.83
848.531	32.26
848.703	29.42
848.875	30.33
849.047	29.78
849.218	34.05
849.39	32.34
849.562	28.62
849.734	28.35
849.905	28.48
850.077	34.31
850.249	31.43
850.421	25.36
850.592	25.67
850.764	23.66
850.936	24.42
851.107	22.45
851.279	22.05
851.451	25.27
851.622	23.6
851.794	26.46
851.965	19.07
852.137	20.71
852.308	25.58
852.48	25.39
852.651	27.5
852.823	24.99
852.994	27.01
853.166	27.74
853.337	30.21
853.509	29.27
853.68	24.81
853.851	30.81
854.023	30.87
854.194	30.79
854.365	36.49
854.537	31.51
854.708	35.38
854.879	31.46
855.05	30.37
855.222	25.33
855.393	27.64
855.564	28.54
855.735	24.77
855.906	24.08
856.078	25.93
856.249	22.07
856.42	25.36
856.591	20.88
856.762	22.4
856.933	24.76
857.104	26.69
857.275	28.22
857.446	25.99
857.617	27.5
857.788	27.03
857.959	25.23
858.13	25.35
858.301	23.5
858.472	25.24
858.643	26.35
858.814	21.22
858.985	20.94
859.155	22.54
859.326	24
859.497	23.32
859.668	28.69
859.839	25.67
860.009	26.54
860.18	29.81
860.351	30.9
860.522	26.6
860.692	26.75
860.863	27.36
861.034	27.23
861.204	29.09
861.375	29.63
861.546	26.81
861.716	30.13
861.887	27.97
862.057	26.69
862.228	28.76
862.398	32.5
862.569	37.91
862.739	42.52
862.91	40.26
863.08	41.16
863.251	45.3
863.421	41.24
863.592	44.2
863.762	44.42
863.932	46.92
864.103	46.26
864.273	46.45
864.443	46.26
864.614	43.65
864.784	44.7
864.954	43.52
865.125	38.9
865.295	45.35
865.465	41.69
865.635	42.67
865.805	43.02
865.976	39.23
866.146	38.38
866.316	35.9
866.486	34.52
866.656	30.77
866.826	31.38
866.996	31.64
867.166	26.79
867.336	30.2
867.506	29.6
867.676	30.35
867.846	34.71
868.016	33.85
868.186	33.81
868.356	30.47
868.526	30.24
868.696	29.66
868.866	30.78
869.036	30.48
869.206	26.4
869.376	27.04
869.545	23.94
869.715	26.59
869.885	27.53
870.055	23.98
870.224	24.83
870.394	24.14
870.564	25.54
870.734	24.15
870.903	30.33
871.073	33.96
871.243	30.64
871.412	31.12
871.582	28.91
871.751	28.59
871.921	33.47
872.091	29.2
872.26	34.96
872.43	33.6
872.599	33.56
872.769	28.91
872.938	26.06
873.108	28.68
873.277	26.64
873.446	28.52
873.616	27.58
873.785	26.55
873.955	33.31
874.124	29.99
874.293	31.33
874.463	32.17
874.632	31.64
874.801	32.63
874.971	39.7
875.14	39.83
875.309	33.86
875.478	36.04
875.647	36.96
875.817	40.52
875.986	43.82
876.155	41.48
876.324	39.57
876.493	39.42
876.662	38.34
876.831	32.48
877	34.92
877.17	34.63
877.339	33.45
877.508	29.65
877.677	24.96
877.846	24.51
878.015	27.82
878.184	28.53
878.352	29.31
878.521	30.06
878.69	31.12
878.859	29.86
879.028	32.65
879.197	31.31
879.366	34.33
879.534	33.7
879.703	30.58
879.872	28.88
880.041	28.86
880.21	28.35
880.378	27.77
880.547	26.22
880.716	26.13
880.884	24.88
881.053	24.31
881.222	23.89
881.39	23.97
881.559	24.7
881.727	24.29
881.896	23.56
882.065	23.32
882.233	22.69
882.402	23.24
882.57	22.88
882.739	23.22
882.907	24.1
883.076	23.94
883.244	24.39
883.412	24.05
883.581	23.59
883.749	23.51
883.918	23.23
884.086	23.79
884.254	23.19
884.423	23.64
884.591	24.06
884.759	24.32
884.927	24.97
885.096	24.57
885.264	24.43
885.432	25.74
885.6	26.77
885.769	28.1
885.937	27.71
886.105	29.16
886.273	30.84
886.441	30.2
886.609	31.27
886.777	32
886.945	31.02
887.113	33.67
887.281	35.92
887.449	33.51
887.617	32.91
887.785	34.87
887.953	35.51
888.121	34.44
888.289	35.5
888.457	31.27
888.625	29.82
888.793	28.8
888.961	27.41
889.129	25.24
889.296	34.17
889.464	34.84
889.632	35.59
889.8	35.33
889.967	34.95
890.135	34.39
