Data from 2938494_Reflection_3.txt Node
Date: Wed Jun 17 00:36:20 EDT 2015
User: robert
Spectrometer: USB4E03002
Autoset integration time: false
Trigger mode: 4
Integration Time (sec): 1.000000E-1
Scans to average: 10
Electric dark correction enabled: true
Nonlinearity correction enabled: false
Boxcar width: 5
Stray light correction enabled: false
XAxis mode: Wavelengths
Stop averaging: false
Number of Pixels in Spectrum: 3648
>>>>>Begin Spectral Data<<<<<
177.575	-105.23
177.794	85.13
178.014	51.88
178.233	30.21
178.452	110.87
178.672	90.08
178.891	32.26
179.11	-189.56
179.33	-141.36
179.549	-164.18
179.768	-99.81
179.987	67.99
180.207	66.28
180.426	-528.87
180.645	217.59
180.864	-236.12
181.084	-30.44
181.303	11.45
181.522	48.63
181.741	31.95
181.96	29.93
182.179	44.36
182.398	43.47
182.618	22.18
182.837	17.76
183.056	50.89
183.275	100.49
183.494	69.81
183.713	57.65
183.932	73.67
184.151	56.9
184.37	114.66
184.589	127.82
184.808	142.29
185.027	118.12
185.246	241.18
185.465	188.02
185.684	335.37
185.903	-213.55
186.122	131.85
186.341	54.92
186.56	-110.45
186.779	-308.71
186.998	-208.35
187.216	-1036.14
187.435	-217.86
187.654	-64.01
187.873	-82.87
188.092	-244.09
188.311	-331.11
188.53	-2353.22
188.748	-1029.72
188.967	297.16
189.186	556.51
189.405	208.64
189.623	241.85
189.842	141.67
190.061	150.73
190.28	121.13
190.498	144.85
190.717	117.5
190.936	119.92
191.154	95.31
191.373	117.87
191.592	136.23
191.81	187.67
192.029	109.29
192.248	720.61
192.466	5.09
192.685	-146.31
192.904	-20.52
193.122	-20.91
193.341	10.49
193.559	-20
193.778	-59.65
193.996	-19.3
194.215	21.49
194.433	-163.31
194.652	-48.92
194.87	-298.44
195.089	-30.23
195.307	-53.62
195.526	10.8
195.744	900.76
195.963	17.22
196.181	59.45
196.399	67.2
196.618	57.33
196.836	123.67
197.055	51.09
197.273	149.86
197.491	-42.76
197.71	-279.2
197.928	-128.39
198.146	-147.4
198.365	562.9
198.583	204.64
198.801	220.28
199.019	304.14
199.238	625.65
199.456	272.14
199.674	750.34
199.892	-661.39
200.111	83.57
200.329	49.48
200.547	26.86
200.765	12.54
200.983	12.86
201.202	43.31
201.42	51.92
201.638	68.57
201.856	64.49
202.074	53.35
202.292	52.29
202.51	26.5
202.728	7.56
202.946	-55.62
203.165	-22.06
203.383	1487.5
203.601	530.47
203.819	662
204.037	589.16
204.255	444.42
204.473	304.81
204.691	173.47
204.909	186.46
205.127	130.17
205.345	136.89
205.562	133.02
205.78	166.94
205.998	78.72
206.216	77.64
206.434	622.47
206.652	142.51
206.87	100.81
207.088	-118.79
207.306	53.44
207.523	108.76
207.741	164.29
207.959	136.21
208.177	153.25
208.395	104.97
208.612	80.46
208.83	99.67
209.048	113.95
209.266	90.83
209.483	139.98
209.701	86.69
209.919	59.35
210.136	23.25
210.354	-1.55
210.572	-15.06
210.79	-62.38
211.007	17.03
211.225	-7.72
211.442	-25.4
211.66	8.38
211.878	-17.96
212.095	21.4
212.313	29.97
212.53	39.61
212.748	27.21
212.966	44.39
213.183	36.81
213.401	31.15
213.618	43.39
213.836	57.56
214.053	40.41
214.271	75.64
214.488	62.14
214.705	32.12
214.923	3.73
215.14	13.57
215.358	-2.24
215.575	7
215.793	-13.26
216.01	-15.39
216.227	-24.94
216.445	-26.91
216.662	-69.33
216.879	-78.59
217.097	-76.82
217.314	-79.24
217.531	-69.97
217.749	-58.78
217.966	-59.57
218.183	-32.79
218.4	-20.26
218.618	-15.63
218.835	-9.52
219.052	15.08
219.269	24.19
219.487	34.66
219.704	27.2
219.921	17.24
220.138	-0.9
220.355	4.88
220.572	-5.8
220.79	4.03
221.007	-2.37
221.224	5.13
221.441	0.54
221.658	-3.68
221.875	-0.49
222.092	2.78
222.309	13.95
222.526	16.64
222.743	17.73
222.96	22.09
223.177	15.12
223.394	17.87
223.611	16.62
223.828	11.36
224.045	9.65
224.262	8.28
224.479	7.3
224.696	5.98
224.913	4.26
225.13	0.37
225.347	3.52
225.564	4.39
225.781	4.25
225.997	6.4
226.214	8.35
226.431	8.67
226.648	8.11
226.865	7.14
227.082	7
227.298	9.52
227.515	11.72
227.732	11.51
227.949	10.62
228.165	10.97
228.382	9.99
228.599	9.4
228.816	11.06
229.032	12.03
229.249	14.23
229.466	14.89
229.682	13.1
229.899	11.67
230.116	14.36
230.332	16.36
230.549	16.33
230.765	16.3
230.982	16.7
231.199	12.79
231.415	11.12
231.632	9.86
231.848	8.83
232.065	8.34
232.281	8.78
232.498	3.83
232.714	5.59
232.931	4.92
233.147	5.61
233.364	6.97
233.58	7.82
233.797	6.82
234.013	6.43
234.23	6.38
234.446	9.29
234.662	8.99
234.879	11.97
235.095	10.36
235.312	10.3
235.528	10.31
235.744	9.29
235.961	11.48
236.177	12.67
236.393	12.03
236.61	12.11
236.826	11.63
237.042	12.65
237.258	11.34
237.475	11.48
237.691	10.76
237.907	11.03
238.123	13.37
238.339	15.05
238.556	16.13
238.772	16.05
238.988	16.74
239.204	16.36
239.42	15.24
239.636	15.13
239.853	14.67
240.069	15.44
240.285	15.36
240.501	13.94
240.717	12.79
240.933	12.36
241.149	11.91
241.365	11.36
241.581	11.14
241.797	11.55
242.013	11.05
242.229	10.98
242.445	10.75
242.661	10.03
242.877	10.2
243.093	9.72
243.309	9.09
243.525	9.72
243.741	9.78
243.957	9.87
244.173	8.76
244.388	8.71
244.604	8.82
244.82	8.68
245.036	8.45
245.252	8.67
245.468	8.33
245.683	8.46
245.899	8.64
246.115	8.45
246.331	8.75
246.547	8.77
246.762	8.96
246.978	9.03
247.194	8.91
247.409	9.32
247.625	8.95
247.841	9.2
248.057	9.23
248.272	8.52
248.488	8.04
248.703	7.16
248.919	7.85
249.135	6.77
249.35	6.61
249.566	6.65
249.782	6.13
249.997	6.1
250.213	5.22
250.428	5.37
250.644	5.52
250.859	6.29
251.075	6.15
251.29	5.8
251.506	6.64
251.721	6.61
251.937	6.87
252.152	6.55
252.368	6.87
252.583	7.81
252.798	7.65
253.014	7.52
253.229	6.53
253.445	5.77
253.66	5.94
253.875	5.7
254.091	4.44
254.306	3.75
254.521	4.61
254.737	5.04
254.952	5.37
255.167	5.14
255.383	5.6
255.598	5.59
255.813	6.44
256.028	6.06
256.244	6.21
256.459	6.41
256.674	6.4
256.889	6.36
257.104	5.29
257.32	5.81
257.535	5.89
257.75	5.48
257.965	5.65
258.18	5.4
258.395	5.62
258.61	5.6
258.826	5.5
259.041	5.54
259.256	5.68
259.471	6.05
259.686	5.59
259.901	5.76
260.116	6.19
260.331	6.22
260.546	6.15
260.761	5.93
260.976	5.33
261.191	5.64
261.406	4.69
261.621	4.68
261.836	5.21
262.05	5.11
262.265	4.73
262.48	4.36
262.695	4.68
262.91	4.92
263.125	4.3
263.34	5.1
263.555	5.19
263.769	5.87
263.984	5.55
264.199	4.33
264.414	5.38
264.629	5.2
264.843	5.04
265.058	4.8
265.273	4.96
265.488	5.62
265.702	5.85
265.917	6.33
266.132	6.61
266.346	6.96
266.561	7.53
266.776	7.15
266.99	7.24
267.205	7.35
267.42	7.42
267.634	7.18
267.849	7.45
268.063	7.33
268.278	6.66
268.492	6.9
268.707	6.06
268.922	6.25
269.136	5.88
269.351	6.26
269.565	6.73
269.78	7.12
269.994	6.59
270.209	6.51
270.423	6.7
270.637	6.34
270.852	6.11
271.066	6.27
271.281	5.91
271.495	5.91
271.709	5.6
271.924	4.87
272.138	4.59
272.353	4.95
272.567	4.58
272.781	4.33
272.996	4.85
273.21	3.95
273.424	3.67
273.638	3.64
273.853	4.09
274.067	3.57
274.281	3.75
274.495	3.8
274.71	4.16
274.924	4.34
275.138	4.46
275.352	4.33
275.566	5.96
275.781	6.19
275.995	5.79
276.209	5.66
276.423	5.5
276.637	5.91
276.851	5.51
277.065	5.96
277.279	5.04
277.493	4.77
277.707	4.73
277.921	3.96
278.135	4.09
278.349	4.77
278.563	4.93
278.777	5.46
278.991	5.33
279.205	4.98
279.419	4.89
279.633	5.98
279.847	6.62
280.061	7.16
280.275	7.46
280.489	7.37
280.703	7.26
280.917	7.28
281.131	6.88
281.344	6.96
281.558	7.19
281.772	7.43
281.986	7.11
282.2	6.64
282.414	6.64
282.627	6.39
282.841	6.82
283.055	6.92
283.269	6.67
283.482	7.03
283.696	6.87
283.91	6.96
284.123	6.41
284.337	6.38
284.551	6.08
284.764	5.81
284.978	5.96
285.192	5.25
285.405	5.25
285.619	5.58
285.833	5.68
286.046	5.5
286.26	5.58
286.473	5.95
286.687	6.56
286.9	6.88
287.114	6.52
287.327	6.43
287.541	6.62
287.754	6.78
287.968	6.38
288.181	6.29
288.395	6.27
288.608	6.24
288.822	6.21
289.035	5.66
289.248	5.72
289.462	6.29
289.675	6.51
289.889	6.73
290.102	6.68
290.315	6.73
290.529	6.86
290.742	6.51
290.955	6.31
291.169	6.36
291.382	6.14
291.595	5.97
291.808	5.95
292.022	5.85
292.235	5.98
292.448	6.18
292.661	6.16
292.875	6.14
293.088	6.78
293.301	6.92
293.514	6.59
293.727	6.34
293.94	6.5
294.153	6.63
294.367	6.45
294.58	6.35
294.793	5.65
295.006	5.7
295.219	5.45
295.432	5.55
295.645	5.68
295.858	5.77
296.071	6.12
296.284	6.15
296.497	5.97
296.71	6.02
296.923	6.06
297.136	6.29
297.349	6.25
297.562	6.3
297.775	6.2
297.988	5.96
298.201	5.8
298.414	5.62
298.626	5.6
298.839	5.25
299.052	5.37
299.265	5.37
299.478	5.33
299.691	5.25
299.903	5.49
300.116	5.2
300.329	5.3
300.542	5.46
300.755	6.05
300.967	5.85
301.18	6.31
301.393	6.3
301.605	6.43
301.818	6.66
302.031	6.71
302.243	6.45
302.456	6.9
302.669	6.89
302.881	7.09
303.094	6.53
303.307	6.49
303.519	5.94
303.732	6.06
303.944	5.96
304.157	5.59
304.37	5.77
304.582	5.86
304.795	5.81
305.007	5.86
305.22	5.34
305.432	6.02
305.645	5.92
305.857	6.04
306.069	6.23
306.282	6.25
306.494	6.88
306.707	6.46
306.919	6.72
307.132	6.33
307.344	6.72
307.556	6.99
307.769	6.66
307.981	6.66
308.193	6.86
308.406	6.48
308.618	6.51
308.83	6.3
309.043	6.9
309.255	7.06
309.467	7.56
309.679	7.49
309.892	7.56
310.104	7.57
310.316	7.96
310.528	8.09
310.74	7.93
310.953	7.93
311.165	8.09
311.377	7.8
311.589	7.15
311.801	6.69
312.013	6.59
312.225	6.73
312.437	6.58
312.649	6.8
312.862	6.6
313.074	7.27
313.286	7.73
313.498	7.58
313.71	7.68
313.922	8.25
314.134	8.88
314.346	8.89
314.558	8.92
314.77	9.3
314.982	9.03
315.193	9.02
315.405	8.78
315.617	8.22
315.829	8.25
316.041	8.11
316.253	8.14
316.465	7.72
316.677	7.51
316.888	7.2
317.1	6.69
317.312	6.64
317.524	7.22
317.736	7.21
317.947	7.17
318.159	7.47
318.371	7.38
318.583	6.88
318.794	6.96
319.006	7.07
319.218	6.91
319.43	7.5
319.641	7.15
319.853	7.06
320.064	7.03
320.276	7.09
320.488	6.99
320.699	7.47
320.911	8.05
321.123	8.01
321.334	7.84
321.546	8.12
321.757	7.54
321.969	7.39
322.18	7.34
322.392	7.75
322.603	7.87
322.815	7.42
323.026	7.24
323.238	6.59
323.449	6.28
323.661	6.65
323.872	6.67
324.083	7.05
324.295	7.32
324.506	7.29
324.718	7.4
324.929	7.15
325.14	7.41
325.352	7.46
325.563	7.99
325.774	8.43
325.986	7.52
326.197	7.93
326.408	7.66
326.62	7.57
326.831	7.27
327.042	6.8
327.253	6.81
327.464	6.66
327.676	6.67
327.887	6.24
328.098	5.88
328.309	6.68
328.52	6.01
328.732	6.12
328.943	5.97
329.154	5.4
329.365	5.66
329.576	5.73
329.787	6.02
329.998	6.22
330.209	6.54
330.42	6.68
330.631	6.63
330.842	6.8
331.053	7.15
331.264	6.91
331.475	7.57
331.686	7.2
331.897	7.24
332.108	7.04
332.319	6.49
332.53	6.44
332.741	6.42
332.952	6.71
333.163	7.07
333.374	7.15
333.585	7.12
333.795	7.3
334.006	7.23
334.217	7.17
334.428	7.31
334.639	7.7
334.849	7.62
335.06	7.68
335.271	7.47
335.482	7.18
335.692	6.71
335.903	7.12
336.114	6.62
336.325	6.84
336.535	6.63
336.746	6.95
336.957	6.93
337.167	7.05
337.378	6.75
337.589	6.59
337.799	6.54
338.01	6.59
338.22	6.38
338.431	6.6
338.642	6.45
338.852	6.81
339.063	6.53
339.273	6.56
339.484	6.57
339.694	6.79
339.905	6.53
340.115	6.2
340.326	6.31
340.536	6.51
340.746	6.61
340.957	6.57
341.167	6.58
341.378	6.22
341.588	6.28
341.799	6.22
342.009	5.94
342.219	6.21
342.43	6.54
342.64	6.46
342.85	6.55
343.061	6.54
343.271	6.43
343.481	6.45
343.691	6.56
343.902	6.21
344.112	6.03
344.322	6.29
344.532	6.55
344.743	6.31
344.953	6.45
345.163	6.63
345.373	6.56
345.583	6.6
345.793	6.48
346.004	6.55
346.214	6.81
346.424	6.94
346.634	6.98
346.844	6.52
347.054	6.86
347.264	6.69
347.474	6.5
347.684	6.61
347.894	6.64
348.104	6.41
348.314	6.32
348.524	6.3
348.734	6.4
348.944	5.92
349.154	5.63
349.364	5.67
349.574	6.04
349.784	5.87
349.994	5.91
350.204	5.53
350.413	5.73
350.623	5.93
350.833	5.52
351.043	5.71
351.253	5.88
351.463	6.42
351.672	6.21
351.882	5.89
352.092	5.8
352.302	5.58
352.511	6
352.721	6.09
352.931	5.9
353.141	6.17
353.35	6.26
353.56	6.27
353.77	6.19
353.979	6.12
354.189	5.89
354.399	5.87
354.608	6.03
354.818	6.01
355.027	6.05
355.237	5.97
355.447	5.77
355.656	5.54
355.866	5.43
356.075	5.4
356.285	5.64
356.494	5.56
356.704	5.63
356.913	5.3
357.123	5.08
357.332	4.94
357.542	5.11
357.751	5.22
357.96	5.39
358.17	5.64
358.379	5.51
358.589	5.49
358.798	5.47
359.007	5.3
359.217	5.49
359.426	5.65
359.635	5.61
359.845	5.55
360.054	5.61
360.263	5.26
360.472	5.17
360.682	5.29
360.891	5.14
361.1	5.34
361.309	5.35
361.519	5.43
361.728	5.52
361.937	5.51
362.146	5.37
362.355	5.15
362.564	5.24
362.774	5.28
362.983	5.32
363.192	5.32
363.401	5.36
363.61	5.51
363.819	5.26
364.028	5.04
364.237	5.13
364.446	4.85
364.655	4.97
364.864	4.9
365.073	4.75
365.282	4.61
365.491	4.63
365.7	4.59
365.909	4.56
366.118	4.48
366.327	4.52
366.536	4.53
366.745	4.91
366.954	4.76
367.162	4.93
367.371	5.01
367.58	4.94
367.789	4.94
367.998	4.47
368.207	4.26
368.415	4.46
368.624	4.69
368.833	4.76
369.042	4.83
369.25	4.76
369.459	4.83
369.668	4.84
369.877	4.91
370.085	4.92
370.294	5.3
370.503	5.41
370.711	5.32
370.92	5.28
371.129	5.03
371.337	4.94
371.546	4.97
371.754	5.19
371.963	5.13
372.171	4.9
372.38	4.81
372.589	4.64
372.797	4.54
373.006	4.41
373.214	4.41
373.423	4.5
373.631	4.4
373.84	4.58
374.048	4.36
374.256	4.26
374.465	4.48
374.673	4.39
374.882	4.63
375.09	4.63
375.298	4.6
375.507	4.5
375.715	4.6
375.923	4.56
376.132	4.6
376.34	4.45
376.548	4.58
376.757	4.5
376.965	4.6
377.173	4.39
377.381	4.39
377.59	4.46
377.798	4.33
378.006	3.85
378.214	3.88
378.423	3.88
378.631	3.55
378.839	3.27
379.047	3.13
379.255	3.08
379.463	3.09
379.671	3.25
379.879	3.23
380.088	3.39
380.296	3.61
380.504	3.53
380.712	3.56
380.92	3.79
381.128	3.81
381.336	3.9
381.544	3.87
381.752	3.92
381.96	3.7
382.168	3.82
382.376	3.77
382.584	3.94
382.791	4.01
382.999	3.94
383.207	4.1
383.415	4.41
383.623	4.4
383.831	4.28
384.039	4.4
384.247	4.43
384.454	4.24
384.662	4.19
384.87	4.1
385.078	4.05
385.285	3.93
385.493	3.84
385.701	3.76
385.909	3.67
386.116	3.72
386.324	3.76
386.532	3.94
386.739	4.08
386.947	4.19
387.155	4.26
387.362	4.13
387.57	4.2
387.778	4.07
387.985	4.02
388.193	4.17
388.4	4.32
388.608	4.08
388.816	4.02
389.023	3.87
389.231	3.86
389.438	3.77
389.646	3.98
389.853	4.03
390.061	4.14
390.268	4.03
390.475	3.88
390.683	3.87
390.89	3.7
391.098	3.6
391.305	3.79
391.512	3.5
391.72	3.63
391.927	3.67
392.135	3.59
392.342	3.73
392.549	3.79
392.756	3.95
392.964	4.04
393.171	4.36
393.378	4.34
393.586	4.29
393.793	4.53
394	4.42
394.207	4.37
394.414	4.31
394.622	4.28
394.829	4.41
395.036	4.17
395.243	4.09
395.45	3.86
395.657	3.8
395.864	3.65
396.072	3.43
396.279	3.41
396.486	3.42
396.693	3.44
396.9	3.37
397.107	3.32
397.314	3.44
397.521	3.42
397.728	3.41
397.935	3.63
398.142	3.69
398.349	3.93
398.556	4.01
398.763	3.98
398.97	4.05
399.177	3.89
399.383	3.96
399.59	3.92
399.797	3.94
400.004	4.08
400.211	3.89
400.418	4.02
400.625	4.14
400.831	4.16
401.038	4.18
401.245	4.24
401.452	4.28
401.658	4.16
401.865	4.09
402.072	3.92
402.279	3.99
402.485	4.04
402.692	3.6
402.899	3.28
403.105	3.19
403.312	3.11
403.519	3.06
403.725	2.93
403.932	2.84
404.138	2.81
404.345	2.81
404.552	2.73
404.758	2.7
404.965	2.95
405.171	2.96
405.378	3
405.584	3.02
405.791	2.92
405.997	2.97
406.204	2.98
406.41	3.18
406.617	3.16
406.823	3.09
407.029	3.03
407.236	3.09
407.442	3.1
407.649	3.06
407.855	2.99
408.061	2.91
408.268	2.96
408.474	3
408.68	2.97
408.887	2.97
409.093	2.84
409.299	2.66
409.505	2.65
409.712	2.88
409.918	2.81
410.124	2.83
410.33	2.92
410.537	3.05
410.743	3.04
410.949	2.76
411.155	2.79
411.361	2.93
411.567	3.18
411.773	3.08
411.98	2.9
412.186	2.93
412.392	2.89
412.598	3.03
412.804	2.95
413.01	2.98
413.216	3.19
413.422	3.09
413.628	3.02
413.834	3
414.04	3.1
414.246	3.13
414.452	2.99
414.658	3.08
414.864	3.01
415.07	3.04
415.275	2.93
415.481	2.96
415.687	2.98
415.893	3.03
416.099	3.01
416.305	2.95
416.511	2.99
416.716	3.11
416.922	3.19
417.128	3.15
417.334	3.12
417.539	3.24
417.745	3.21
417.951	3.16
418.157	3.11
418.362	3.18
418.568	3.2
418.774	3.11
418.979	3.13
419.185	3.07
419.391	3.07
419.596	3.07
419.802	2.95
420.008	2.99
420.213	2.42
420.419	2.43
420.624	2.36
420.83	2.28
421.035	2.33
421.241	2.33
421.446	2.36
421.652	2.39
421.857	2.35
422.063	2.44
422.268	2.44
422.474	3.12
422.679	3.14
422.885	3.14
423.09	3.24
423.295	3.24
423.501	3.18
423.706	3.14
423.911	3.07
424.117	3.06
424.322	3.04
424.527	2.98
424.733	2.9
424.938	2.89
425.143	2.87
425.349	2.85
425.554	2.79
425.759	2.74
425.964	2.73
426.169	2.75
426.375	2.73
426.58	2.74
426.785	2.69
426.99	2.78
427.195	2.79
427.4	2.79
427.605	2.82
427.811	2.79
428.016	2.88
428.221	2.97
428.426	3.02
428.631	3.11
428.836	3.04
429.041	3.06
429.246	3.07
429.451	3
429.656	3.02
429.861	2.83
430.066	2.81
430.271	2.88
430.476	2.77
430.681	2.78
430.886	2.69
431.09	2.73
431.295	2.75
431.5	2.67
431.705	2.68
431.91	2.65
432.115	2.63
432.32	2.72
432.524	2.62
432.729	2.57
432.934	2.52
433.139	2.57
433.343	2.54
433.548	2.56
433.753	2.64
433.958	2.7
434.162	2.65
434.367	2.75
434.572	2.76
434.776	2.71
434.981	2.82
435.186	2.87
435.39	2.86
435.595	2.86
435.799	2.82
436.004	2.65
436.209	2.57
436.413	2.72
436.618	2.76
436.822	2.72
437.027	2.79
437.231	2.63
437.436	2.62
437.64	2.56
437.845	2.55
438.049	2.59
438.253	2.75
438.458	2.7
438.662	2.67
438.867	2.68
439.071	2.66
439.275	2.65
439.48	2.73
439.684	2.67
439.888	2.71
440.093	2.79
440.297	2.84
440.501	2.69
440.706	2.81
440.91	2.82
441.114	2.82
441.318	2.76
441.523	2.72
441.727	2.78
441.931	2.75
442.135	2.81
442.339	2.77
442.543	2.62
442.748	2.58
442.952	2.55
443.156	2.48
443.36	2.46
443.564	2.48
443.768	2.53
443.972	2.47
444.176	2.43
444.38	2.4
444.584	2.41
444.788	2.44
444.992	2.46
445.196	2.48
445.4	2.5
445.604	2.5
445.808	2.59
446.012	2.59
446.216	2.51
446.42	2.62
446.624	2.62
446.828	2.59
447.032	2.58
447.235	2.64
447.439	2.59
447.643	2.53
447.847	2.49
448.051	2.45
448.254	2.38
448.458	2.43
448.662	2.36
448.866	2.32
449.069	2.34
449.273	2.39
449.477	2.36
449.681	2.35
449.884	2.45
450.088	2.57
450.292	2.4
450.495	2.48
450.699	2.52
450.902	2.51
451.106	2.51
451.31	2.48
451.513	2.52
451.717	2.6
451.92	2.64
452.124	2.52
452.327	2.42
452.531	2.51
452.734	2.43
452.938	2.54
453.141	2.5
453.345	2.51
453.548	2.58
453.752	2.5
453.955	2.32
454.158	2.25
454.362	2.21
454.565	2.22
454.769	2.35
454.972	2.24
455.175	2.08
455.379	2.2
455.582	2.15
455.785	2.05
455.988	2.02
456.192	2.15
456.395	2.15
456.598	2.27
456.801	2.28
457.005	2.1
457.208	2.22
457.411	2.28
457.614	2.32
457.817	2.38
458.021	2.36
458.224	2.46
458.427	2.46
458.63	2.51
458.833	2.44
459.036	2.44
459.239	2.46
459.442	2.41
459.645	2.46
459.848	2.39
460.051	2.44
460.254	2.38
460.457	2.46
460.66	2.44
460.863	2.39
461.066	2.45
461.269	2.45
461.472	2.57
461.675	2.64
461.878	2.57
462.081	2.61
462.284	2.43
462.486	2.57
462.689	2.38
462.892	2.36
463.095	2.37
463.298	2.42
463.5	2.42
463.703	2.3
463.906	2.3
464.109	2.27
464.311	2.28
464.514	2.29
464.717	2.27
464.92	2.22
465.122	2.21
465.325	2.27
465.528	2.16
465.73	2.13
465.933	2.12
466.135	2.07
466.338	2.05
466.541	2.1
466.743	2.25
466.946	2.24
467.148	2.28
467.351	2.29
467.553	2.17
467.756	2.24
467.958	2.27
468.161	2.32
468.363	2.48
468.566	2.52
468.768	2.44
468.971	2.42
469.173	2.31
469.375	2.39
469.578	2.36
469.78	2.44
469.983	2.46
470.185	2.41
470.387	2.41
470.59	2.29
470.792	2.26
470.994	2.2
471.196	2.03
471.399	2.11
471.601	2.1
471.803	2.12
472.005	2.15
472.208	2.16
472.41	2.19
472.612	2.16
472.814	2.2
473.016	2.23
473.218	2.32
473.421	2.34
473.623	2.37
473.825	2.49
474.027	2.47
474.229	2.47
474.431	2.57
474.633	2.64
474.835	2.62
475.037	2.64
475.239	2.68
475.441	2.64
475.643	2.72
475.845	2.72
476.047	2.6
476.249	2.62
476.451	2.59
476.653	2.53
476.855	2.44
477.057	2.52
477.258	2.51
477.46	2.5
477.662	2.55
477.864	2.48
478.066	2.39
478.268	2.37
478.469	2.39
478.671	2.37
478.873	2.29
479.075	2.32
479.276	2.28
479.478	2.24
479.68	2.25
479.882	2.21
480.083	2.27
480.285	2.41
480.487	2.42
480.688	2.36
480.89	2.38
481.091	2.39
481.293	2.43
481.495	2.42
481.696	2.41
481.898	2.42
482.099	2.42
482.301	2.4
482.502	2.39
482.704	2.4
482.905	2.41
483.107	2.4
483.308	2.44
483.51	2.43
483.711	2.45
483.913	2.48
484.114	2.54
484.315	2.57
484.517	2.61
484.718	2.6
484.92	2.61
485.121	2.63
485.322	2.65
485.524	2.67
485.725	2.67
485.926	2.69
486.127	2.66
486.329	2.56
486.53	2.51
486.731	2.48
486.932	2.48
487.134	2.47
487.335	2.48
487.536	2.5
487.737	2.42
487.938	2.39
488.139	2.33
488.341	2.36
488.542	2.39
488.743	2.38
488.944	2.38
489.145	2.36
489.346	2.37
489.547	2.38
489.748	2.36
489.949	2.38
490.15	2.4
490.351	2.44
490.552	2.43
490.753	2.4
490.954	2.44
491.155	2.46
491.356	2.49
491.557	2.5
491.758	2.47
491.959	2.43
492.159	2.44
492.36	2.42
492.561	2.39
492.762	2.37
492.963	2.41
493.164	2.37
493.364	2.3
493.565	2.35
493.766	2.29
493.967	2.31
494.167	2.39
494.368	2.43
494.569	2.45
494.769	2.44
494.97	2.46
495.171	2.43
495.371	2.45
495.572	2.52
495.773	2.51
495.973	2.48
496.174	2.44
496.375	2.41
496.575	2.34
496.776	2.37
496.976	2.42
497.177	2.39
497.377	2.39
497.578	2.44
497.778	2.46
497.979	2.39
498.179	2.48
498.38	2.56
498.58	2.53
498.78	2.55
498.981	2.49
499.181	2.46
499.382	2.55
499.582	2.57
499.782	2.57
499.983	2.44
500.183	2.49
500.383	2.42
500.584	2.33
500.784	2.44
500.984	2.44
501.184	2.53
501.385	2.52
501.585	2.53
501.785	2.48
501.985	2.47
502.185	2.55
502.386	2.52
502.586	2.56
502.786	2.66
502.986	2.6
503.186	2.74
503.386	2.66
503.586	2.69
503.786	2.73
503.987	2.79
504.187	2.79
504.387	2.84
504.587	2.82
504.787	2.85
504.987	2.83
505.187	2.84
505.387	2.7
505.587	2.69
505.786	2.66
505.986	2.58
506.186	2.62
506.386	2.6
506.586	2.63
506.786	2.76
506.986	2.7
507.186	2.66
507.386	2.67
507.585	2.7
507.785	2.81
507.985	2.78
508.185	2.81
508.384	2.76
508.584	2.81
508.784	2.83
508.984	2.7
509.183	2.78
509.383	2.78
509.583	2.82
509.782	2.87
509.982	2.83
510.182	2.81
510.381	2.79
510.581	2.77
510.781	2.76
510.98	2.72
511.18	2.82
511.379	2.77
511.579	2.76
511.778	2.77
511.978	2.75
512.177	2.73
512.377	2.78
512.576	2.83
512.776	2.87
512.975	2.86
513.175	2.87
513.374	2.83
513.573	2.9
513.773	2.95
513.972	2.91
514.172	2.99
514.371	2.97
514.57	2.94
514.77	2.88
514.969	2.91
515.168	2.93
515.367	2.92
515.567	3.02
515.766	2.99
515.965	2.99
516.164	3.11
516.364	3.1
516.563	3.17
516.762	3.18
516.961	3.17
517.16	3.21
517.359	3.18
517.559	3.24
517.758	3.22
517.957	3.17
518.156	3.25
518.355	3.22
518.554	3.16
518.753	3.06
518.952	3.05
519.151	3.11
519.35	3.03
519.549	3.08
519.748	2.96
519.947	3.05
520.146	3.11
520.345	3.08
520.544	3.06
520.743	3.13
520.942	3.24
521.141	3.27
521.339	3.25
521.538	3.33
521.737	3.32
521.936	3.45
522.135	3.35
522.333	3.36
522.532	3.33
522.731	3.32
522.93	3.32
523.129	3.31
523.327	3.33
523.526	3.4
523.725	3.38
523.923	3.41
524.122	3.42
524.321	3.43
524.519	3.44
524.718	3.48
524.917	3.42
525.115	3.41
525.314	3.47
525.512	3.44
525.711	3.4
525.909	3.42
526.108	3.4
526.306	3.4
526.505	3.41
526.703	3.39
526.902	3.36
527.1	3.41
527.299	3.38
527.497	3.37
527.696	3.43
527.894	3.42
528.092	3.42
528.291	3.45
528.489	3.43
528.688	3.41
528.886	3.38
529.084	3.36
529.283	3.39
529.481	3.44
529.679	3.43
529.877	3.45
530.076	3.51
530.274	3.54
530.472	3.56
530.67	3.59
530.869	3.65
531.067	3.72
531.265	3.77
531.463	3.76
531.661	3.82
531.859	3.82
532.057	3.76
532.255	3.78
532.454	3.79
532.652	3.82
532.85	3.84
533.048	3.89
533.246	3.9
533.444	3.89
533.642	3.96
533.84	3.94
534.038	4.01
534.236	4.03
534.434	4.08
534.632	4.12
534.83	4.14
535.027	4.19
535.225	4.2
535.423	4.26
535.621	4.3
535.819	4.25
536.017	4.27
536.215	4.22
536.412	4.25
536.61	4.21
536.808	4.19
537.006	4.15
537.203	4.13
537.401	4
537.599	4
537.797	4.02
537.994	4.05
538.192	4.02
538.39	4.08
538.587	4.12
538.785	4.16
538.983	4.17
539.18	4.23
539.378	4.21
539.575	4.27
539.773	4.32
539.97	4.33
540.168	4.35
540.366	4.39
540.563	4.39
540.761	4.39
540.958	4.37
541.155	4.37
541.353	4.33
541.55	4.43
541.748	4.44
541.945	4.42
542.143	4.46
542.34	4.43
542.537	4.48
542.735	4.53
542.932	4.54
543.129	4.57
543.327	4.64
543.524	4.7
543.721	4.62
543.919	4.65
544.116	4.69
544.313	4.69
544.51	4.72
544.708	4.76
544.905	4.78
545.102	4.93
545.299	4.89
545.496	4.91
545.693	4.95
545.891	5
546.088	5.03
546.285	5.03
546.482	5
546.679	5.16
546.876	5.14
547.073	5.12
547.27	5
547.467	5.15
547.664	5.13
547.861	5.15
548.058	5.2
548.255	5.32
548.452	5.44
548.649	5.6
548.846	5.47
549.043	5.46
549.24	5.49
549.437	5.61
549.633	5.65
549.83	5.67
550.027	5.76
550.224	5.79
550.421	5.82
550.618	5.79
550.814	5.83
551.011	5.84
551.208	5.89
551.405	6.03
551.601	6.02
551.798	6.08
551.995	6.11
552.191	6.12
552.388	6.02
552.585	5.98
552.781	5.96
552.978	5.97
553.175	6.12
553.371	6.2
553.568	6.12
553.764	6.17
553.961	6.11
554.157	6.15
554.354	6.27
554.55	6.5
554.747	6.59
554.943	6.69
555.14	6.7
555.336	6.52
555.533	6.65
555.729	6.72
555.926	6.71
556.122	6.78
556.318	6.81
556.515	6.86
556.711	6.81
556.907	6.71
557.104	6.79
557.3	6.83
557.496	6.93
557.693	6.74
557.889	6.76
558.085	6.8
558.281	6.95
558.478	6.94
558.674	6.94
558.87	7.02
559.066	7.03
559.262	6.98
559.459	6.93
559.655	7.06
559.851	7.18
560.047	7.27
560.243	7.41
560.439	7.27
560.635	7.41
560.831	7.41
561.027	7.47
561.223	7.6
561.419	7.69
561.615	7.86
561.811	7.84
562.007	7.92
562.203	7.94
562.399	7.95
562.595	8.03
562.791	8.03
562.987	8.08
563.183	8.15
563.379	8.12
563.575	8.19
563.771	8.23
563.966	8.43
564.162	8.46
564.358	8.57
564.554	8.6
564.75	8.68
564.945	8.69
565.141	8.64
565.337	8.64
565.533	8.75
565.728	8.78
565.924	8.85
566.12	8.7
566.315	8.73
566.511	8.72
566.707	8.67
566.902	8.57
567.098	8.59
567.293	8.69
567.489	8.63
567.684	8.71
567.88	8.79
568.076	8.72
568.271	8.75
568.467	8.72
568.662	8.78
568.858	8.86
569.053	8.99
569.248	9.09
569.444	9.27
569.639	9.27
569.835	9.27
570.03	9.29
570.225	9.46
570.421	9.57
570.616	9.65
570.812	9.61
571.007	9.68
571.202	9.74
571.397	9.8
571.593	9.73
571.788	9.84
571.983	9.93
572.178	9.95
572.374	9.89
572.569	9.92
572.764	10.01
572.959	10.03
573.154	10.03
573.35	10.15
573.545	10.16
573.74	10.21
573.935	10.27
574.13	10.15
574.325	10.16
574.52	10.27
574.715	10.34
574.91	10.39
575.105	10.47
575.3	10.54
575.495	10.53
575.69	10.5
575.885	10.55
576.08	10.51
576.275	10.59
576.47	10.65
576.665	10.67
576.86	10.66
577.055	10.58
577.25	10.59
577.444	10.69
577.639	10.61
577.834	10.69
578.029	10.7
578.224	10.72
578.418	10.8
578.613	10.83
578.808	10.8
579.003	10.9
579.197	10.99
579.392	11.03
579.587	11.04
579.781	10.97
579.976	11.06
580.171	11.09
580.365	11.26
580.56	11.19
580.755	11.14
580.949	11.16
581.144	11.22
581.338	11.26
581.533	11.23
581.727	11.2
581.922	11.42
582.116	11.46
582.311	11.37
582.505	11.38
582.7	11.42
582.894	11.53
583.089	11.5
583.283	11.27
583.478	11.27
583.672	11.36
583.866	11.29
584.061	11.31
584.255	11.32
584.449	11.42
584.644	11.23
584.838	11.24
585.032	11.22
585.226	11.25
585.421	11.47
585.615	11.48
585.809	11.54
586.003	11.74
586.198	11.65
586.392	11.67
586.586	11.67
586.78	11.9
586.974	12.17
587.168	12.17
587.363	12.25
587.557	12.22
587.751	12.27
587.945	12.25
588.139	12.22
588.333	12.29
588.527	12.22
588.721	12.28
588.915	12.31
589.109	12.16
589.303	12.32
589.497	12.35
589.691	12.37
589.885	12.35
590.079	12.41
590.273	12.52
590.466	12.5
590.66	12.58
590.854	12.63
591.048	12.54
591.242	12.63
591.436	12.58
591.629	12.62
591.823	12.64
592.017	12.56
592.211	12.66
592.404	12.51
592.598	12.49
592.792	12.59
592.986	12.54
593.179	12.57
593.373	12.55
593.567	12.66
593.76	12.62
593.954	12.51
594.147	12.57
594.341	12.46
594.535	12.48
594.728	12.57
594.922	12.45
595.115	12.53
595.309	12.66
595.502	12.71
595.696	12.65
595.889	12.76
596.083	12.84
596.276	12.9
596.47	12.92
596.663	12.9
596.856	12.91
597.05	13.06
597.243	13.12
597.437	13.08
597.63	13.1
597.823	13.16
598.017	13.16
598.21	13.23
598.403	13.37
598.596	13.36
598.79	13.48
598.983	13.46
599.176	13.39
599.369	13.34
599.563	13.33
599.756	13.36
599.949	13.21
600.142	13.14
600.335	13.11
600.528	13.1
600.722	13.19
600.915	13.36
601.108	13.5
601.301	13.56
601.494	13.65
601.687	13.8
601.88	13.86
602.073	13.84
602.266	13.87
602.459	13.96
602.652	14.05
602.845	14.07
603.038	13.95
603.231	13.79
603.424	13.85
603.617	13.75
603.809	13.55
604.002	13.52
604.195	13.59
604.388	13.55
604.581	13.39
604.774	13.19
604.966	13.16
605.159	13.14
605.352	13.3
605.545	13.2
605.737	13.21
605.93	13.38
606.123	13.33
606.316	13.31
606.508	13.32
606.701	13.56
606.894	13.72
607.086	13.7
607.279	13.77
607.471	13.77
607.664	13.79
607.857	13.82
608.049	13.68
608.242	13.67
608.434	13.76
608.627	13.8
608.819	13.69
609.012	13.67
609.204	13.74
609.397	13.8
609.589	13.88
609.782	13.97
609.974	14.11
610.166	14.31
610.359	14.35
610.551	14.44
610.743	14.61
610.936	14.85
611.128	14.78
611.32	14.81
611.513	14.87
611.705	14.72
611.897	14.65
612.09	14.59
612.282	14.62
612.474	14.85
612.666	14.95
612.858	14.71
613.051	14.63
613.243	14.68
613.435	14.61
613.627	14.53
613.819	14.72
614.011	14.91
614.203	14.82
614.395	14.84
614.588	14.6
614.78	14.46
614.972	14.59
615.164	14.46
615.356	14.44
615.548	14.55
615.74	14.49
615.932	14.55
616.124	14.47
616.315	14.58
616.507	14.53
616.699	14.45
616.891	14.39
617.083	14.44
617.275	14.39
617.467	14.52
617.659	14.6
617.85	14.67
618.042	14.65
618.234	14.45
618.426	14.35
618.618	14.38
618.809	14.56
619.001	14.6
619.193	14.62
619.384	14.83
619.576	14.96
619.768	14.91
619.959	14.99
620.151	14.78
620.343	14.99
620.534	14.99
620.726	14.88
620.917	14.87
621.109	14.93
621.301	14.78
621.492	14.55
621.684	14.41
621.875	14.4
622.067	14.26
622.258	14.49
622.45	14.41
622.641	14.38
622.832	14.48
623.024	14.66
623.215	14.7
623.407	14.84
623.598	14.96
623.789	14.84
623.981	15.04
624.172	15.21
624.363	15.08
624.555	15.12
624.746	15.03
624.937	15
625.129	15.01
625.32	15.06
625.511	14.94
625.702	15.1
625.893	15.23
626.085	15.1
626.276	14.96
626.467	15.09
626.658	15.11
626.849	15.36
627.04	15.42
627.231	15.24
627.422	15.18
627.614	15.51
627.805	15.46
627.996	15.54
628.187	15.49
628.378	15.61
628.569	15.55
628.76	15.44
628.951	15.37
629.142	15.39
629.332	15.48
629.523	15.63
629.714	15.36
629.905	15.4
630.096	15.43
630.287	15.54
630.478	15.48
630.669	15.43
630.859	15.62
631.05	15.58
631.241	15.55
631.432	15.55
631.623	15.55
631.813	15.64
632.004	15.53
632.195	15.43
632.385	15.65
632.576	15.78
632.767	15.97
632.957	15.97
633.148	16.09
633.339	15.85
633.529	15.92
633.72	15.83
633.91	15.73
634.101	15.64
634.292	15.75
634.482	15.54
634.673	15.55
634.863	15.37
635.054	15.51
635.244	15.38
635.435	15.72
635.625	15.67
635.815	15.61
636.006	15.63
636.196	15.73
636.387	15.71
636.577	15.69
636.767	15.58
636.958	15.68
637.148	15.59
637.338	15.82
637.529	15.83
637.719	15.91
637.909	16.04
638.099	15.99
638.29	16.07
638.48	15.99
638.67	15.88
638.86	16.11
639.05	16.12
639.241	16.3
639.431	16.18
639.621	16.01
639.811	16.11
640.001	16.02
640.191	15.89
640.381	15.65
640.571	15.72
640.761	15.83
640.951	15.55
641.141	15.58
641.331	15.26
641.521	15.41
641.711	15.73
641.901	15.57
642.091	15.65
642.281	15.97
642.471	16.01
642.661	16.09
642.851	16.02
643.041	16.15
643.231	16.04
643.42	16.05
643.61	15.84
643.8	15.64
643.99	15.68
644.18	15.54
644.369	15.76
644.559	16.08
644.749	16.13
644.939	16.16
645.128	15.98
645.318	15.93
645.508	16.18
645.697	16.33
645.887	16.19
646.076	16.22
646.266	16.08
646.456	15.73
646.645	15.77
646.835	15.64
647.024	15.73
647.214	15.77
647.403	16.11
647.593	15.93
647.782	15.64
647.972	15.98
648.161	16.07
648.351	16.26
648.54	16.48
648.73	16.24
648.919	16.2
649.108	16.14
649.298	16.29
649.487	16.2
649.677	16.14
649.866	16.43
650.055	16.34
650.244	16.58
650.434	16.6
650.623	16.66
650.812	16.86
651.002	16.93
651.191	17.09
651.38	17.1
651.569	17.07
651.758	17.21
651.947	17.44
652.137	17.34
652.326	17.14
652.515	17.21
652.704	17.18
652.893	17.29
653.082	17.25
653.271	17.06
653.46	16.89
653.649	16.87
653.838	16.95
654.027	16.77
654.216	16.89
654.405	16.63
654.594	16.68
654.783	16.73
654.972	16.59
655.161	16.47
655.35	16.62
655.539	16.8
655.728	16.79
655.916	16.7
656.105	16.6
656.294	16.5
656.483	16.65
656.672	16.59
656.86	16.35
657.049	16.51
657.238	16.74
657.427	16.63
657.615	16.76
657.804	16.82
657.993	16.83
658.181	16.95
658.37	17.01
658.559	17.21
658.747	17.31
658.936	17.42
659.125	16.99
659.313	16.93
659.502	17.11
659.69	16.91
659.879	17.07
660.067	17.11
660.256	17.24
660.444	17.24
660.633	16.94
660.821	16.88
661.01	16.97
661.198	17.52
661.387	17.49
661.575	17.49
661.763	17.64
661.952	17.42
662.14	17.4
662.328	17.36
662.517	17.08
662.705	17.17
662.893	17.26
663.082	17.34
663.27	17.01
663.458	17.13
663.646	17.2
663.834	17.36
664.023	17.39
664.211	17.34
664.399	17
664.587	17.43
664.775	17.46
664.963	17.53
665.152	17.3
665.34	17.64
665.528	17.58
665.716	17.49
665.904	17.3
666.092	17.36
666.28	17.41
666.468	17.56
666.656	17.28
666.844	17.26
667.032	17.07
667.22	17.11
667.408	17.21
667.596	17.36
667.784	17.51
667.971	17.58
668.159	17.88
668.347	17.83
668.535	17.77
668.723	18
668.911	18.09
669.098	18.29
669.286	18.24
669.474	18.04
669.662	17.92
669.849	17.61
670.037	17.53
670.225	17.18
670.413	17.38
670.6	17.5
670.788	17.61
670.976	17.64
671.163	17.47
671.351	17.81
671.538	17.79
671.726	17.9
671.913	17.99
672.101	18.13
672.289	18.23
672.476	18.13
672.664	18.11
672.851	18.12
673.039	18.18
673.226	18.32
673.413	18.02
673.601	17.87
673.788	18.05
673.976	18.11
674.163	18.1
674.35	18.18
674.538	18.37
674.725	18.45
674.912	18.46
675.1	18.2
675.287	18.23
675.474	18.38
675.662	18.6
675.849	18.62
676.036	18.68
676.223	18.57
676.411	18.18
676.598	18.11
676.785	18.26
676.972	18.16
677.159	18.3
677.346	18.33
677.533	18.59
677.721	18.42
677.908	18.17
678.095	18.25
678.282	18.5
678.469	18.76
678.656	18.79
678.843	18.67
679.03	18.98
679.217	19.2
679.404	19.15
679.591	19.12
679.778	19.14
679.964	19.24
680.151	19.2
680.338	19.03
680.525	19.02
680.712	19.23
680.899	19.35
681.086	19.08
681.272	18.77
681.459	19.02
681.646	18.99
681.833	19.07
682.02	19.12
682.206	19.16
682.393	19.37
682.58	19.41
682.766	19.14
682.953	19.22
683.14	19.24
683.326	19.38
683.513	19.1
683.7	19.11
683.886	19.25
684.073	18.97
684.259	18.77
684.446	18.48
684.632	18.46
684.819	18.41
685.005	18.31
685.192	18.31
685.378	18.57
685.565	18.5
685.751	18.51
685.938	18.46
686.124	18.59
686.31	18.85
686.497	19.03
686.683	18.92
686.87	18.88
687.056	18.77
687.242	18.76
687.429	18.76
687.615	18.85
687.801	18.67
687.987	18.83
688.174	18.91
688.36	19.04
688.546	19.11
688.732	19.32
688.918	19.44
689.105	19.54
689.291	19.71
689.477	19.31
689.663	19.37
689.849	19.76
690.035	19.57
690.221	19.74
690.407	19.61
690.593	19.7
690.779	19.8
690.965	19.88
691.151	19.85
691.337	19.7
691.523	20.03
691.709	20.17
691.895	19.75
692.081	19.69
692.267	19.71
692.453	19.81
692.639	19.31
692.825	19.1
693.011	19.08
693.196	18.99
693.382	19.03
693.568	18.96
693.754	19.23
693.94	19.18
694.125	19.16
694.311	19.07
694.497	19
694.682	19.45
694.868	19.44
695.054	19.76
695.239	19.91
695.425	19.92
695.611	19.97
695.796	19.48
695.982	19.48
696.168	19.63
696.353	19.7
696.539	19.68
696.724	19.58
696.91	19.79
697.095	19.58
697.281	19.57
697.466	19.64
697.652	19.61
697.837	19.84
698.023	19.9
698.208	19.88
698.393	19.85
698.579	19.85
698.764	20
698.949	19.81
699.135	19.63
699.32	19.45
699.505	19.44
699.691	19.5
699.876	19.48
700.061	19.69
700.246	19.8
700.432	19.83
700.617	19.78
700.802	19.84
700.987	20.13
701.172	20.64
701.358	20.93
701.543	20.91
701.728	20.74
701.913	20.49
702.098	20
702.283	19.98
702.468	19.96
702.653	20.23
702.838	19.84
703.023	19.86
703.208	19.82
703.393	19.82
703.578	19.84
703.763	19.78
703.948	19.86
704.133	20.58
704.318	20.41
704.503	20.83
704.688	20.69
704.873	20.73
705.057	20.43
705.242	20.01
705.427	20.19
705.612	19.94
705.797	20.17
705.981	20.07
706.166	19.77
706.351	19.6
706.536	19.27
706.72	19.23
706.905	19.33
707.09	19.6
707.274	20.1
707.459	19.97
707.644	20.31
707.828	20.17
708.013	20.26
708.197	20.24
708.382	20.4
708.567	20.18
708.751	20.44
708.936	20.52
709.12	20.28
709.305	19.77
709.489	19.55
709.673	19.28
709.858	19.48
710.042	19.31
710.227	19.34
710.411	19.69
710.596	19.88
710.78	19.2
710.964	19.38
711.149	19.55
711.333	19.88
711.517	20.17
711.702	20.31
711.886	20.38
712.07	20.76
712.254	20.73
712.438	20.4
712.623	20.28
712.807	20.55
712.991	20.2
713.175	19.83
713.359	19.7
713.544	19.51
713.728	19.68
713.912	19.32
714.096	19.05
714.28	19.11
714.464	19.2
714.648	19.41
714.832	19.3
715.016	19.45
715.2	20.11
715.384	20.11
715.568	20.32
715.752	20.22
715.936	20.37
716.12	20.41
716.304	20.07
716.488	19.88
716.671	19.82
716.855	20.04
717.039	20.11
717.223	19.93
717.407	19.88
717.59	19.81
717.774	19.66
717.958	19.81
718.142	19.66
718.325	20.2
718.509	20.47
718.693	20.39
718.877	20.47
719.06	20.13
719.244	20.19
719.428	20.44
719.611	20.44
719.795	20.9
719.978	20.64
720.162	21.07
720.345	21.1
720.529	21.06
720.713	21.36
720.896	21.27
721.08	21.52
721.263	21.37
721.446	21.03
721.63	20.49
721.813	20.62
721.997	20.84
722.18	20.18
722.364	19.86
722.547	20.15
722.73	19.73
722.914	19.86
723.097	19.76
723.28	19.73
723.464	19.71
723.647	20.14
723.83	19.67
724.013	19.72
724.197	20.17
724.38	20.17
724.563	20.01
724.746	20.06
724.929	20.14
725.112	20.34
725.296	20.03
725.479	19.93
725.662	19.52
725.845	20.02
726.028	20.09
726.211	20.4
726.394	20.52
726.577	20.53
726.76	20.4
726.943	20.58
727.126	20.74
727.309	20.61
727.492	21.54
727.675	21.87
727.858	21.55
728.041	21.25
728.224	20.98
728.407	21.01
728.589	21.28
728.772	21.62
728.955	21.58
729.138	21.8
729.321	21.87
729.503	21.06
729.686	20.92
729.869	20.95
730.052	21.21
730.234	21.51
730.417	21.61
730.6	20.99
730.782	20.97
730.965	20.81
731.148	20.45
731.33	20.82
731.513	21.03
731.695	21.28
731.878	21.44
732.061	21.28
732.243	21.1
732.426	20.98
732.608	21.4
732.791	21.4
732.973	21.21
733.156	21.34
733.338	21.35
733.52	21.42
733.703	21.25
733.885	21.07
734.068	20.99
734.25	20.84
734.432	20.61
734.615	20.6
734.797	20.72
734.979	20.71
735.162	20.34
735.344	20.29
735.526	19.99
735.708	19.8
735.891	19.3
736.073	19.3
736.255	19.12
736.437	19.59
736.619	19.5
736.802	19.37
736.984	19.57
737.166	20.09
737.348	19.97
737.53	20.63
737.712	20.8
737.894	21.03
738.076	21.47
738.258	21.29
738.44	21.35
738.622	21.47
738.804	21.6
738.986	21.83
739.168	21.72
739.35	21.2
739.532	20.94
739.714	21.06
739.896	21.25
740.078	21.32
740.259	22.02
740.441	21.9
740.623	21.45
740.805	21.41
740.987	21.12
741.168	20.56
741.35	20.8
741.532	21.29
741.714	21.53
741.895	21.51
742.077	21.33
742.259	21.19
742.44	21.11
742.622	21.55
742.804	20.64
742.985	20.66
743.167	21.12
743.348	21.76
743.53	21.17
743.711	20.7
743.893	20.73
744.075	21.03
744.256	21.06
744.438	20.64
744.619	20.22
744.8	21.38
744.982	21.49
745.163	21.83
745.345	21.07
745.526	20.67
745.707	20.51
745.889	20.5
746.07	20.09
746.252	19.83
746.433	20.67
746.614	21.08
746.795	21.07
746.977	21.71
747.158	21.28
747.339	21.61
747.52	21.7
747.702	21.42
747.883	21.34
748.064	21.07
748.245	21.4
748.426	20.97
748.607	21.17
748.788	21.43
748.97	21.49
749.151	21.43
749.332	21.94
749.513	22.09
749.694	22.69
749.875	23.04
750.056	23.39
750.237	23.28
750.418	24.28
750.599	23.74
750.78	23.72
750.96	23.2
751.141	23.7
751.322	23.06
751.503	22.91
751.684	23.47
751.865	23.69
752.046	22.99
752.226	22.42
752.407	21.64
752.588	21.88
752.769	21.28
752.949	21.36
753.13	20.79
753.311	21.89
753.492	22.42
753.672	22.35
753.853	21.91
754.034	22.84
754.214	23.78
754.395	23.51
754.575	23.49
754.756	23.33
754.937	22.97
755.117	23.55
755.298	23.07
755.478	22.67
755.659	22.7
755.839	22.32
756.02	22.32
756.2	22.07
756.381	21.68
756.561	21.76
756.741	22.26
756.922	22.66
757.102	22.07
757.283	22.45
757.463	22.64
757.643	22.71
757.823	23.38
758.004	23.03
758.184	22.53
758.364	22.63
758.545	22.62
758.725	22.45
758.905	22.61
759.085	23.53
759.265	23.57
759.446	23.55
759.626	23.89
759.806	22.5
759.986	22.57
760.166	22.58
760.346	22.88
760.526	22.62
760.706	22.63
760.886	22
761.066	21.18
761.246	20.71
761.426	20.79
761.606	20.43
761.786	21.55
761.966	21.65
762.146	21.99
762.326	21.84
762.506	22.43
762.686	22.52
762.866	23.03
763.046	23.11
763.225	22.94
763.405	23.03
763.585	22.96
763.765	23.05
763.945	22.81
764.124	22.93
764.304	23.34
764.484	22.71
764.664	22.77
764.843	22.58
765.023	22.92
765.203	23.03
765.382	23
765.562	22.79
765.741	22.69
765.921	22.74
766.101	23.02
766.28	22.47
766.46	23.49
766.639	23.03
766.819	22.68
766.998	22.51
767.178	22.13
767.357	22.15
767.537	22.29
767.716	22.24
767.896	22.76
768.075	22.38
768.254	22.43
768.434	21.86
768.613	21.95
768.792	22.5
768.972	23.21
769.151	23.63
769.33	23.46
769.51	23.87
769.689	23.84
769.868	23.9
770.047	24.01
770.226	24.07
770.406	23.71
770.585	24.06
770.764	24.56
770.943	23.74
771.122	23.25
771.301	23.76
771.48	23.75
771.66	24.11
771.839	24.02
772.018	24.17
772.197	25.19
772.376	25.73
772.555	25.4
772.734	24.29
772.913	24.08
773.092	24.69
773.271	23.7
773.449	23.11
773.628	23.32
773.807	22.81
773.986	22.11
774.165	21.64
774.344	21.64
774.523	22.31
774.701	22.45
774.88	22.46
775.059	22.53
775.238	22.79
775.417	23.54
775.595	22.16
775.774	22.53
775.953	22.96
776.131	22.38
776.31	22.27
776.489	22.35
776.667	22.63
776.846	22.91
777.025	23.37
777.203	23.43
777.382	22.83
777.56	23.55
777.739	24.06
777.917	24.29
778.096	24.15
778.274	24.29
778.453	23.65
778.631	24.03
778.81	23.88
778.988	23.07
779.166	22.59
779.345	22.77
779.523	22.94
779.702	22.79
779.88	22.23
780.058	23.4
780.237	23.34
780.415	23.55
780.593	24.11
780.771	24.66
780.95	25.42
781.128	24.96
781.306	25.05
781.484	25.06
781.662	24.23
781.841	24.48
782.019	23.93
782.197	23.25
782.375	23.08
782.553	22.19
782.731	21.6
782.909	21.62
783.087	23.06
783.265	23.13
783.443	22.43
783.621	22.57
783.799	23.3
783.977	22.97
784.155	23.93
784.333	24.09
784.511	23.66
784.689	23.6
784.867	23.81
785.045	23.52
785.223	23.62
785.4	23.81
785.578	24.43
785.756	23.47
785.934	23.64
786.112	23.36
786.289	23.63
786.467	24.05
786.645	24.08
786.823	23.51
787	23.46
787.178	22.68
787.356	23.36
787.533	23.08
787.711	23.45
787.889	23.12
788.066	23.21
788.244	22.96
788.421	22.54
788.599	22.43
788.776	22.02
788.954	22.37
789.131	22.53
789.309	21.75
789.486	21.42
789.664	21.54
789.841	22.33
790.019	23.17
790.196	23.53
790.373	24.07
790.551	24.58
790.728	24.68
790.906	24.66
791.083	24.48
791.26	24.93
791.437	25.41
791.615	25.49
791.792	24.98
791.969	23.68
792.146	23.49
792.324	23.19
792.501	21.88
792.678	22.23
792.855	21.89
793.032	22.14
793.209	21.88
793.387	22.32
793.564	20.7
793.741	21.4
793.918	22.17
794.095	22.03
794.272	22.19
794.449	24.22
794.626	25.3
794.803	25.16
794.98	25.13
795.157	24.92
795.334	24.48
795.511	24.97
795.688	24.16
795.864	23.36
796.041	23.06
796.218	21.47
796.395	20.17
796.572	18.28
796.749	18.77
796.925	19.34
797.102	19.96
797.279	20.58
797.456	21.35
797.632	22
797.809	22.04
797.986	22.57
798.162	24.13
798.339	25.24
798.516	25.49
798.692	25.13
798.869	24.41
799.046	24.79
799.222	23.47
799.399	23.51
799.575	24.11
799.752	24.78
799.928	24.44
800.105	23.79
800.281	23.94
800.458	24.6
800.634	25.13
800.811	26.12
800.987	25.8
801.163	26.08
801.34	26.79
801.516	25.5
801.692	25.35
801.869	24.69
802.045	25.46
802.221	23.87
802.398	24.63
802.574	24.77
802.75	23.97
802.926	23.99
803.103	23.16
803.279	21.92
803.455	22.52
803.631	22.22
803.807	24.02
803.983	23.95
804.16	24.09
804.336	22.43
804.512	22.88
804.688	22.8
804.864	22.6
805.04	24.13
805.216	24.1
805.392	23.57
805.568	23.86
805.744	22.53
805.92	22.49
806.096	23
806.272	22.58
806.448	22.33
806.623	22.46
806.799	22.98
806.975	23.23
807.151	23.63
807.327	23.17
807.503	22.59
807.678	22.92
807.854	23.15
808.03	23.32
808.206	25.7
808.381	25.77
808.557	25.34
808.733	24.97
808.908	23.94
809.084	24.91
809.26	25.72
809.435	26.13
809.611	27.33
809.787	27.62
809.962	27.42
810.138	26.31
810.313	26.02
810.489	26.42
810.664	25.76
810.84	26.37
811.015	25.57
811.191	26.24
811.366	27.2
811.542	25.81
811.717	25.73
811.892	25.33
812.068	24.55
812.243	24.18
812.419	24.01
812.594	24.46
812.769	24.59
812.944	23.71
813.12	21.77
813.295	21.35
813.47	21.85
813.645	22.14
813.821	23.19
813.996	24.62
814.171	24.9
814.346	24.47
814.521	23.83
814.697	24.73
814.872	24.62
815.047	25.28
815.222	24.73
815.397	25.33
815.572	24.19
815.747	24.47
815.922	23.5
816.097	22.92
816.272	24.76
816.447	25.29
816.622	23.03
816.797	24.85
816.972	25.49
817.147	25.11
817.322	24.08
817.496	24.4
817.671	23.57
817.846	23.54
818.021	24.08
818.196	23.41
818.371	23.32
818.545	24.84
818.72	24.91
818.895	24.59
819.069	25.7
819.244	26.41
819.419	26.21
819.594	26.23
819.768	26.15
819.943	25.96
820.117	26.08
820.292	25.74
820.467	26.1
820.641	25.53
820.816	25.69
820.99	25.34
821.165	24.94
821.339	25.02
821.514	25.08
821.688	25.13
821.863	25.14
822.037	25.21
822.212	25.26
822.386	24.97
822.56	24.98
822.735	25.02
822.909	24.96
823.084	25.25
823.258	25.17
823.432	25.12
823.606	25.23
823.781	25.25
823.955	25.29
824.129	25.4
824.303	25.5
824.478	25.25
824.652	25.36
824.826	24.96
825	24.62
825.174	24.48
825.348	24.59
825.523	24.42
825.697	24.59
825.871	24.79
826.045	25.14
826.219	25.2
826.393	25.66
826.567	25.31
826.741	25.78
826.915	25.96
827.089	26.39
827.263	26.04
827.437	26.33
827.611	26.11
827.784	25.85
827.958	25.43
828.132	25.11
828.306	25.12
828.48	25.05
828.654	25
828.827	25.35
829.001	25.18
829.175	25.26
829.349	25.49
829.522	25.5
829.696	24.92
829.87	24.75
830.044	25.38
830.217	25.05
830.391	24.68
830.565	24.78
830.738	23.66
830.912	23.54
831.085	24.04
831.259	23.61
831.432	24.48
831.606	26.12
831.779	26.89
831.953	26.61
832.126	26.47
832.3	27.59
832.473	27.36
832.647	28.25
832.82	27.98
832.994	28.62
833.167	28
833.34	27.66
833.514	26.83
833.687	27.23
833.86	26.79
834.034	26.9
834.207	26.83
834.38	26.68
834.553	26.49
834.727	26.95
834.9	26.37
835.073	26.82
835.246	26.38
835.419	25.89
835.593	25.54
835.766	26.09
835.939	25.94
836.112	25.39
836.285	27.1
836.458	26.98
836.631	26.88
836.804	27.43
836.977	27.97
837.15	28.5
837.323	30.23
837.496	29.62
837.669	29.1
837.842	30.03
838.015	30.32
838.188	28.27
838.361	27.01
838.533	26.78
838.706	26.19
838.879	25.19
839.052	25.44
839.225	25.64
839.398	26.61
839.57	28.23
839.743	28.24
839.916	28.33
840.088	28.18
840.261	30.05
840.434	29.46
840.607	30.94
840.779	31.09
840.952	30.71
841.124	30.09
841.297	29.75
841.47	27.91
841.642	28.4
841.815	29.88
841.987	31.2
842.16	29.74
842.332	29.92
842.505	26.11
842.677	25.8
842.85	25.95
843.022	23.98
843.194	23.36
843.367	23.49
843.539	22.57
843.712	20.78
843.884	19.54
844.056	20.98
844.229	20.91
844.401	22.4
844.573	22.36
844.745	25.02
844.918	25.52
845.09	22.84
845.262	23.7
845.434	23.98
845.606	25.86
845.779	25.08
845.951	23.6
846.123	25.25
846.295	23.79
846.467	22.26
846.639	18.54
846.811	20.43
846.983	21.11
847.155	18.59
847.327	16.91
847.499	17.43
847.671	18.64
847.843	22.13
848.015	21.63
848.187	26.31
848.359	28.79
848.531	28.29
848.703	29.9
848.875	33.09
849.047	34.48
849.218	33
849.39	31.75
849.562	31.47
849.734	26.63
849.905	24.31
850.077	22.33
850.249	23.71
850.421	27.09
850.592	23.4
850.764	23.21
850.936	25.29
851.107	25.84
851.279	22.42
851.451	23.96
851.622	21.52
851.794	21.74
851.965	19.22
852.137	14.7
852.308	12.42
852.48	10.36
852.651	5.8
852.823	1.26
852.994	4.33
853.166	8.37
853.337	10.02
853.509	15.69
853.68	18.87
853.851	20.76
854.023	20.98
854.194	23.62
854.365	27.11
854.537	30.63
854.708	30.75
854.879	28.63
855.05	24.98
855.222	18.56
855.393	13.86
855.564	12.94
855.735	14.04
855.906	18.59
856.078	12.79
856.249	11.4
856.42	6.03
856.591	11.04
856.762	19.04
856.933	22.14
857.104	25.52
857.275	29.99
857.446	30.91
857.617	31.9
857.788	31.04
857.959	29.59
858.13	31.06
858.301	34.74
858.472	33.01
858.643	25.62
858.814	27.14
858.985	24.5
859.155	28.63
859.326	31.69
859.497	28.79
859.668	29.52
859.839	31.99
860.009	28.47
860.18	30.06
860.351	29.49
860.522	30.78
860.692	28.13
860.863	31.36
861.034	20.92
861.204	16.21
861.375	13.7
861.546	8.89
861.716	4.43
861.887	9.22
862.057	8.63
862.228	10.29
862.398	15.42
862.569	16.61
862.739	19.12
862.91	26.39
863.08	23.79
863.251	24.15
863.421	28.55
863.592	28.57
863.762	27.02
863.932	27.24
864.103	25.4
864.273	22.09
864.443	19.6
864.614	14.95
864.784	10.58
864.954	14.39
865.125	13.87
865.295	11.8
865.465	14.92
865.635	14.76
865.805	15.06
865.976	16.37
866.146	15.97
866.316	18.8
866.486	15.93
866.656	19.35
866.826	18.45
866.996	19.02
867.166	20.92
867.336	20.56
867.506	22.95
867.676	24.26
867.846	25.48
868.016	28.97
868.186	30.95
868.356	34.46
868.526	31.85
868.696	33.82
868.866	39.56
869.036	31.24
869.206	30.81
869.376	32.51
869.545	34.92
869.715	33.36
869.885	27.55
870.055	25.57
870.224	26.89
870.394	24.31
870.564	22.14
870.734	19.33
870.903	23.4
871.073	24.68
871.243	24.39
871.412	21.08
871.582	21.4
871.751	25.09
871.921	26.92
872.091	25.46
872.26	30.93
872.43	33.95
872.599	31.94
872.769	33.26
872.938	34.47
873.108	32.82
873.277	32.11
873.446	32.8
873.616	35.46
873.785	32.99
873.955	32.76
874.124	31.24
874.293	26.42
874.463	31.09
874.632	30.73
874.801	31.18
874.971	34.12
875.14	35.99
875.309	35.07
875.478	32.11
875.647	35.57
875.817	34.81
875.986	32.65
876.155	33.99
876.324	29.6
876.493	30.68
876.662	25.65
876.831	21.15
877	21.04
877.17	26.18
877.339	25.6
877.508	25.09
877.677	25.92
877.846	30.91
878.015	34.84
878.184	34.19
878.352	37.34
878.521	40.69
878.69	43.54
878.859	41.57
879.028	38.7
879.197	38.59
879.366	34.19
879.534	35
879.703	34.07
879.872	32.29
880.041	31.49
880.21	29.65
880.378	28.49
880.547	28.42
880.716	28.27
880.884	27.73
881.053	26.82
881.222	27.29
881.39	26.8
881.559	25.85
881.727	26.44
881.896	27.59
882.065	27.89
882.233	28.54
882.402	27.78
882.57	27.99
882.739	28.2
882.907	28.05
883.076	28.1
883.244	28.25
883.412	28.66
883.581	28.57
883.749	28.44
883.918	29.25
884.086	28.1
884.254	28.8
884.423	28.6
884.591	28.68
884.759	29.31
884.927	28.89
885.096	28.7
885.264	28.79
885.432	28.5
885.6	27.56
885.769	24.12
885.937	25.85
886.105	22.86
886.273	22.49
886.441	20.84
886.609	20.24
886.777	20.86
886.945	21.25
887.113	21.83
887.281	20.23
887.449	18.89
887.617	22.68
887.785	21.61
887.953	23.13
888.121	22.68
888.289	25.11
888.457	29.33
888.625	31.71
888.793	34.94
888.961	33.09
889.129	34.12
889.296	34.71
889.464	33.84
889.632	34.12
889.8	37.43
889.967	41.06
890.135	40.35
