Data from 2938511_Reflection_1.txt Node
Date: Tue Jun 16 22:46:51 EDT 2015
User: robert
Spectrometer: USB4E03002
Autoset integration time: false
Trigger mode: 4
Integration Time (sec): 1.000000E-1
Scans to average: 10
Electric dark correction enabled: true
Nonlinearity correction enabled: false
Boxcar width: 5
Stray light correction enabled: false
XAxis mode: Wavelengths
Stop averaging: false
Number of Pixels in Spectrum: 3648
>>>>>Begin Spectral Data<<<<<
177.575	42.7
177.794	50.42
178.014	29.07
178.233	38.53
178.452	78.64
178.672	39.63
178.891	-137.75
179.11	63.18
179.33	-40.32
179.549	21.56
179.768	12.3
179.987	-4.96
180.207	-46.64
180.426	-57.84
180.645	-1293.94
180.864	954.99
181.084	143.9
181.303	133.54
181.522	127.85
181.741	135.98
181.96	96.09
182.179	102.31
182.398	136.08
182.618	126.26
182.837	137.86
183.056	121.66
183.275	170.07
183.494	255.04
183.713	-196.24
183.932	-360.98
184.151	-328.36
184.37	-2711.17
184.589	385.64
184.808	203.58
185.027	209.64
185.246	164.1
185.465	195.22
185.684	143.15
185.903	179.92
186.122	147.88
186.341	155.9
186.56	146.57
186.779	235.91
186.998	371.39
187.216	518.96
187.435	329.41
187.654	333.25
187.873	618.02
188.092	621.99
188.311	472.36
188.53	443.16
188.748	1163.13
188.967	7011.83
189.186	208.17
189.405	126.8
189.623	113.77
189.842	133.52
190.061	104.29
190.28	32.87
190.498	27.93
190.717	33.8
190.936	67.1
191.154	72.61
191.373	85.78
191.592	93.07
191.81	78.61
192.029	80.59
192.248	37.37
192.466	75.09
192.685	111.24
192.904	156.01
193.122	127.19
193.341	69.39
193.559	41.92
193.778	21.46
193.996	-35.08
194.215	-483.13
194.433	-271.56
194.652	-1034.77
194.87	3015.66
195.089	560.65
195.307	492.26
195.526	345.38
195.744	274.91
195.963	211.17
196.181	174.83
196.399	166.23
196.618	179.72
196.836	160.96
197.055	111
197.273	114.49
197.491	122.58
197.71	112.07
197.928	136.69
198.146	181.21
198.365	192.17
198.583	236.67
198.801	191.99
199.019	126.08
199.238	144.04
199.456	241.07
199.674	242.12
199.892	256.17
200.111	172.56
200.329	105.93
200.547	57.05
200.765	52.35
200.983	48.91
201.202	35.91
201.42	52.47
201.638	42.81
201.856	55.82
202.074	42.3
202.292	51.77
202.51	71.06
202.728	76.82
202.946	105.7
203.165	140.09
203.383	139.8
203.601	128.33
203.819	182.98
204.037	189.91
204.255	169.74
204.473	186.37
204.691	152.12
204.909	145.57
205.127	203.21
205.345	193.57
205.562	142.19
205.78	160.48
205.998	168.36
206.216	111.55
206.434	122.1
206.652	171.57
206.87	155.57
207.088	122.17
207.306	143.39
207.523	65.54
207.741	75.12
207.959	111.99
208.177	57.11
208.395	52.02
208.612	57.53
208.83	61.05
209.048	70.97
209.266	68.27
209.483	56.66
209.701	42.98
209.919	64.58
210.136	61.23
210.354	48.51
210.572	60.72
210.79	46.7
211.007	61.42
211.225	73.56
211.442	71.33
211.66	61.7
211.878	70.45
212.095	44.38
212.313	37.7
212.53	36.4
212.748	33.86
212.966	33.95
213.183	46.74
213.401	35.97
213.618	17.29
213.836	16.26
214.053	18.59
214.271	21.29
214.488	36.93
214.705	47.45
214.923	50.95
215.14	61.05
215.358	49.84
215.575	47.69
215.793	49.11
216.01	69.64
216.227	87.73
216.445	81.09
216.662	82.46
216.879	87.58
217.097	75.56
217.314	72.2
217.531	73.61
217.749	67.76
217.966	54.32
218.183	51.77
218.4	34.08
218.618	9.16
218.835	19.72
219.052	1.16
219.269	-15.68
219.487	4.65
219.704	17.98
219.921	6.72
220.138	18.67
220.355	18.85
220.572	20.21
220.79	26.72
221.007	37.08
221.224	35.61
221.441	43.3
221.658	36.93
221.875	29.31
222.092	25.1
222.309	24.98
222.526	16.18
222.743	13.9
222.96	12.58
223.177	17.78
223.394	18.12
223.611	21.99
223.828	18.38
224.045	26.29
224.262	23.92
224.479	25.33
224.696	26.25
224.913	25.74
225.13	27.54
225.347	25.46
225.564	22.53
225.781	22.46
225.997	19.83
226.214	18.63
226.431	15.6
226.648	15.19
226.865	14.17
227.082	13.28
227.298	14.04
227.515	12.51
227.732	12.48
227.949	12.72
228.165	10.78
228.382	10.34
228.599	10.06
228.816	9.61
229.032	10.28
229.249	9.33
229.466	8.97
229.682	5.8
229.899	6.45
230.116	7.32
230.332	7.01
230.549	7.53
230.765	7.26
230.982	8.25
231.199	9.52
231.415	8.87
231.632	9.89
231.848	12.61
232.065	16.46
232.281	17.85
232.498	15.6
232.714	15.84
232.931	18.3
233.147	19.29
233.364	18.26
233.58	18.3
233.797	17.49
234.013	18
234.23	16.48
234.446	15.42
234.662	12.63
234.879	14.5
235.095	16.18
235.312	13.81
235.528	15.61
235.744	17.1
235.961	16.03
236.177	17.64
236.393	18.33
236.61	18.4
236.826	17.49
237.042	18.66
237.258	16.93
237.475	14.39
237.691	15.62
237.907	14.06
238.123	12.31
238.339	12.22
238.556	11.02
238.772	9.04
238.988	9.11
239.204	10.03
239.42	10.06
239.636	10.09
239.853	9.83
240.069	9.79
240.285	9.6
240.501	9.3
240.717	8.84
240.933	9.59
241.149	10.35
241.365	9.65
241.581	9.2
241.797	8.12
242.013	8.22
242.229	8.01
242.445	7.86
242.661	7.03
242.877	7.33
243.093	8.15
243.309	7.3
243.525	6.81
243.741	7.54
243.957	7.88
244.173	8.12
244.388	8.52
244.604	8.59
244.82	7.84
245.036	7.55
245.252	8.2
245.468	7.7
245.683	7.75
245.899	7.66
246.115	7.65
246.331	7.56
246.547	7.65
246.762	7.37
246.978	7.81
247.194	8.33
247.409	9.1
247.625	8.72
247.841	9.15
248.057	9.04
248.272	9.16
248.488	9.36
248.703	9.18
248.919	9.64
249.135	9.64
249.35	9.06
249.566	9.42
249.782	8.41
249.997	8.51
250.213	8.81
250.428	8.9
250.644	8.37
250.859	8.19
251.075	8.95
251.29	8.21
251.506	8.73
251.721	8.57
251.937	8.47
252.152	8.91
252.368	8.83
252.583	8.62
252.798	9.14
253.014	10.26
253.229	10.24
253.445	9.61
253.66	9.7
253.875	8.47
254.091	8.15
254.306	6.89
254.521	6.58
254.737	5.97
254.952	5.24
255.167	4.65
255.383	4.71
255.598	5.6
255.813	5.38
256.028	5.49
256.244	5.93
256.459	5.95
256.674	5.59
256.889	6.43
257.104	6.05
257.32	6.03
257.535	5.99
257.75	5.71
257.965	5.62
258.18	5.59
258.395	5.58
258.61	5.46
258.826	5.41
259.041	5.83
259.256	5.08
259.471	5.4
259.686	5.51
259.901	5.5
260.116	5.6
260.331	5.39
260.546	5.58
260.761	5.46
260.976	5.64
261.191	5.43
261.406	5
261.621	5.76
261.836	5.09
262.05	5.42
262.265	6.08
262.48	6.67
262.695	6.82
262.91	6.63
263.125	6.96
263.34	7.28
263.555	7.8
263.769	8.15
263.984	7.32
264.199	8.34
264.414	8.18
264.629	7.48
264.843	6.87
265.058	7.14
265.273	6.88
265.488	7.74
265.702	7.62
265.917	7.83
266.132	7.37
266.346	8.13
266.561	7.38
266.776	7.54
266.99	7.66
267.205	8.28
267.42	7.93
267.634	7.76
267.849	6.47
268.063	6.54
268.278	6.26
268.492	6.62
268.707	6.4
268.922	6.41
269.136	6.4
269.351	6.62
269.565	6.51
269.78	6.12
269.994	6.46
270.209	6.45
270.423	6.18
270.637	6.09
270.852	5.75
271.066	5.61
271.281	6.02
271.495	6.05
271.709	6.29
271.924	5.49
272.138	5.57
272.353	5.65
272.567	6.24
272.781	6.31
272.996	5.86
273.21	5.99
273.424	6.46
273.638	5.95
273.853	5.02
274.067	4.45
274.281	4.78
274.495	4.95
274.71	4.94
274.924	4.31
275.138	4.42
275.352	4.9
275.566	5.61
275.781	5.17
275.995	5.31
276.209	5.99
276.423	6.07
276.637	5.92
276.851	5.94
277.065	6
277.279	6.48
277.493	6.09
277.707	6.39
277.921	5.64
278.135	6.13
278.349	6.27
278.563	5.95
278.777	5.98
278.991	6.27
279.205	6
279.419	5.56
279.633	5.43
279.847	5.82
280.061	5.76
280.275	6.25
280.489	6.1
280.703	5.75
280.917	5.99
281.131	5.71
281.344	5.71
281.558	6.18
281.772	6.34
281.986	5.91
282.2	6.23
282.414	5.86
282.627	5.69
282.841	5.73
283.055	5.66
283.269	5.41
283.482	5.76
283.696	5.74
283.91	5.05
284.123	5.18
284.337	5.55
284.551	5.14
284.764	4.95
284.978	4.73
285.192	4.31
285.405	4.71
285.619	4.71
285.833	4.45
286.046	4.53
286.26	4.94
286.473	4.74
286.687	5.05
286.9	5.05
287.114	5.86
287.327	5.77
287.541	6.18
287.754	5.79
287.968	6.05
288.181	6.31
288.395	6.28
288.608	6.31
288.822	6.39
289.035	5.85
289.248	6.16
289.462	5.73
289.675	5.77
289.889	5.75
290.102	6.18
290.315	6.2
290.529	5.81
290.742	6.06
290.955	6.11
291.169	6.46
291.382	7.04
291.595	6.98
291.808	7.19
292.022	6.96
292.235	6.72
292.448	6.68
292.661	6.77
292.875	7.12
293.088	6.56
293.301	6.7
293.514	6.33
293.727	6.05
293.94	5.68
294.153	5.75
294.367	6.08
294.58	6.06
294.793	6.29
295.006	5.9
295.219	5.72
295.432	5.78
295.645	5.54
295.858	5.51
296.071	5.66
296.284	5.83
296.497	5.91
296.71	6.07
296.923	6.44
297.136	6.32
297.349	6.83
297.562	7.15
297.775	7.25
297.988	7.35
298.201	7.82
298.414	7.72
298.626	7.64
298.839	7.84
299.052	7.72
299.265	7.52
299.478	7.18
299.691	6.89
299.903	6.49
300.116	6.62
300.329	6.49
300.542	6.27
300.755	6.45
300.967	6.5
301.18	6.27
301.393	6.32
301.605	6.59
301.818	6.99
302.031	7.16
302.243	7.67
302.456	7.41
302.669	7.81
302.881	7.5
303.094	7.59
303.307	7.71
303.519	7.56
303.732	8.32
303.944	8.11
304.157	7.91
304.37	7.57
304.582	7.38
304.795	7.55
305.007	7.63
305.22	7.85
305.432	7.46
305.645	7.55
305.857	7.53
306.069	6.52
306.282	6.59
306.494	6.47
306.707	6.58
306.919	6.61
307.132	6.9
307.344	6.52
307.556	6.91
307.769	7.07
307.981	7.07
308.193	7.07
308.406	7.02
308.618	6.63
308.83	7.07
309.043	7.42
309.255	7.32
309.467	7.19
309.679	7.51
309.892	7.28
310.104	7.56
310.316	7.34
310.528	7.45
310.74	7.63
310.953	7.92
311.165	7.88
311.377	7.66
311.589	7.74
311.801	8.01
312.013	8.03
312.225	7.89
312.437	7.51
312.649	7.5
312.862	7.09
313.074	7.5
313.286	7.55
313.498	7.39
313.71	7.66
313.922	7.63
314.134	7.04
314.346	6.62
314.558	7.11
314.77	7.06
314.982	7.25
315.193	7.54
315.405	7.62
315.617	7.86
315.829	7.37
316.041	6.9
316.253	6.95
316.465	7.17
316.677	7.76
316.888	7.49
317.1	7.79
317.312	8.08
317.524	7.84
317.736	7.74
317.947	8.03
318.159	8.46
318.371	8.85
318.583	8.78
318.794	8.51
319.006	8.28
319.218	8.39
319.43	8.14
319.641	7.6
319.853	7.32
320.064	7.23
320.276	6.92
320.488	6.6
320.699	6.19
320.911	6.28
321.123	6.25
321.334	6.86
321.546	6.84
321.757	6.3
321.969	6.95
322.18	6.99
322.392	6.98
322.603	7.27
322.815	7.32
323.026	7.49
323.238	7.13
323.449	8.03
323.661	7.4
323.872	7.39
324.083	8.35
324.295	8.35
324.506	9.35
324.718	9.38
324.929	8.71
325.14	8.87
325.352	9.01
325.563	9.45
325.774	9.27
325.986	9.32
326.197	9.48
326.408	8.83
326.62	8.57
326.831	7.8
327.042	7.53
327.253	7.77
327.464	7.37
327.676	7.18
327.887	7.14
328.098	6.65
328.309	6.92
328.52	6.81
328.732	6.61
328.943	6.59
329.154	6.87
329.365	7.03
329.576	6.99
329.787	7.76
329.998	7.38
330.209	7.68
330.42	7.78
330.631	7.48
330.842	7.3
331.053	8.01
331.264	7.97
331.475	8.11
331.686	8.03
331.897	7.97
332.108	7.74
332.319	8.28
332.53	7.97
332.741	7.81
332.952	7.78
333.163	8
333.374	7.78
333.585	7.61
333.795	7.41
334.006	7.52
334.217	7.54
334.428	7.71
334.639	7.79
334.849	7.9
335.06	8.11
335.271	8
335.482	7.47
335.692	7.36
335.903	7.06
336.114	7.17
336.325	6.99
336.535	7.08
336.746	6.72
336.957	6.87
337.167	6.69
337.378	6.74
337.589	6.68
337.799	7.04
338.01	7.28
338.22	7.75
338.431	7.51
338.642	7.91
338.852	7.95
339.063	8.34
339.273	8.4
339.484	8.27
339.694	8.18
339.905	8.48
340.115	8.57
340.326	8.7
340.536	8.51
340.746	8.35
340.957	7.88
341.167	7.49
341.378	6.94
341.588	6.44
341.799	6.37
342.009	6.5
342.219	6.35
342.43	6.04
342.64	5.78
342.85	5.94
343.061	6.65
343.271	6.95
343.481	7.04
343.691	7.47
343.902	7.44
344.112	7.61
344.322	7.71
344.532	7.66
344.743	7.54
344.953	7.58
345.163	8.16
345.373	7.57
345.583	7.56
345.793	7.61
346.004	7.42
346.214	7.47
346.424	7.42
346.634	7.38
346.844	6.94
347.054	7.18
347.264	7.63
347.474	6.75
347.684	6.89
347.894	7.17
348.104	7.29
348.314	7.28
348.524	7.38
348.734	7.52
348.944	7.38
349.154	7.79
349.364	7.92
349.574	7.47
349.784	7.63
349.994	8.07
350.204	7.68
350.413	7.87
350.623	7.81
350.833	7.63
351.043	7.4
351.253	7.56
351.463	7.35
351.672	7.23
351.882	7.21
352.092	7.55
352.302	7.32
352.511	7.4
352.721	7.29
352.931	7.29
353.141	7.31
353.35	7.44
353.56	7.45
353.77	7.76
353.979	7.71
354.189	7.81
354.399	7.59
354.608	7.44
354.818	7.3
355.027	7.46
355.237	7.25
355.447	7.2
355.656	7.02
355.866	6.72
356.075	6.65
356.285	6.71
356.494	6.79
356.704	6.45
356.913	6.28
357.123	6.41
357.332	6.08
357.542	6.24
357.751	6.28
357.96	6.67
358.17	6.55
358.379	6.81
358.589	6.67
358.798	6.43
359.007	6.57
359.217	6.58
359.426	6.51
359.635	6.56
359.845	6.49
360.054	6.65
360.263	6.5
360.472	6.49
360.682	6.33
360.891	6.43
361.1	6.58
361.309	6.27
361.519	6.16
361.728	6.11
361.937	6.2
362.146	6.04
362.355	5.79
362.564	5.62
362.774	5.89
362.983	5.91
363.192	5.89
363.401	5.77
363.61	6.28
363.819	6.4
364.028	6.18
364.237	5.94
364.446	6.22
364.655	6.35
364.864	6.3
365.073	6.1
365.282	5.77
365.491	5.78
365.7	5.84
365.909	5.72
366.118	5.85
366.327	6.12
366.536	6.25
366.745	6.17
366.954	6.08
367.162	5.99
367.371	6.08
367.58	6.14
367.789	6.2
367.998	6.09
368.207	6.19
368.415	5.97
368.624	5.94
368.833	5.99
369.042	6.17
369.25	6.01
369.459	6.33
369.668	6.33
369.877	6.36
370.085	6.17
370.294	6.12
370.503	5.96
370.711	5.94
370.92	5.81
371.129	5.69
371.337	5.58
371.546	5.63
371.754	5.34
371.963	5.48
372.171	5.42
372.38	5.42
372.589	5.57
372.797	5.43
373.006	5.5
373.214	5.53
373.423	5.45
373.631	5.47
373.84	5.48
374.048	5.53
374.256	5.22
374.465	5.35
374.673	5.43
374.882	5.36
375.09	5.44
375.298	5.3
375.507	5.38
375.715	5.33
375.923	5.41
376.132	5.52
376.34	5.27
376.548	5.29
376.757	5.28
376.965	5.18
377.173	5.1
377.381	5.21
377.59	5.51
377.798	5.4
378.006	5.47
378.214	5.4
378.423	5.53
378.631	5.88
378.839	5.81
379.047	5.57
379.255	5.34
379.463	5.21
379.671	5.24
379.879	5.15
380.088	5.2
380.296	5.2
380.504	5.23
380.712	5.03
380.92	4.96
381.128	5.16
381.336	5.4
381.544	5.64
381.752	5.71
381.96	5.41
382.168	5.23
382.376	5.16
382.584	5.13
382.791	4.85
382.999	4.77
383.207	4.61
383.415	4.23
383.623	4.07
383.831	4.14
384.039	4.03
384.247	4.26
384.454	4.39
384.662	4.21
384.87	4.24
385.078	4.41
385.285	4.42
385.493	4.5
385.701	4.72
385.909	4.63
386.116	4.47
386.324	4.74
386.532	4.58
386.739	4.38
386.947	4.72
387.155	4.51
387.362	4.55
387.57	4.51
387.778	4.58
387.985	4.56
388.193	4.66
388.4	4.62
388.608	4.62
388.816	4.66
389.023	5.04
389.231	4.77
389.438	5.01
389.646	4.85
389.853	4.79
390.061	4.69
390.268	4.8
390.475	4.72
390.683	4.82
390.89	4.56
391.098	4.65
391.305	4.63
391.512	4.59
391.72	4.4
391.927	4.54
392.135	4.58
392.342	4.56
392.549	4.59
392.756	4.62
392.964	4.74
393.171	4.89
393.378	4.87
393.586	4.48
393.793	4.7
394	4.83
394.207	4.72
394.414	4.69
394.622	4.56
394.829	4.26
395.036	4.02
395.243	3.97
395.45	3.86
395.657	3.67
395.864	3.83
396.072	3.92
396.279	3.92
396.486	3.86
396.693	3.93
396.9	3.94
397.107	4.09
397.314	4.28
397.521	4.16
397.728	4.1
397.935	4.15
398.142	4.15
398.349	4.02
398.556	3.83
398.763	3.96
398.97	3.97
399.177	4.3
399.383	4.23
399.59	4.26
399.797	4.19
400.004	4.18
400.211	4.26
400.418	4.21
400.625	4.03
400.831	4.13
401.038	3.94
401.245	3.79
401.452	3.66
401.658	3.77
401.865	3.71
402.072	3.61
402.279	3.57
402.485	3.59
402.692	3.69
402.899	3.75
403.105	3.71
403.312	3.76
403.519	3.87
403.725	3.75
403.932	3.7
404.138	3.72
404.345	3.79
404.552	3.96
404.758	3.91
404.965	3.9
405.171	3.93
405.378	4.03
405.584	4.02
405.791	3.88
405.997	3.98
406.204	4.03
406.41	4.14
406.617	4.11
406.823	4.17
407.029	4.23
407.236	4.12
407.442	4.16
407.649	4.01
407.855	4.09
408.061	4.13
408.268	4.14
408.474	4.21
408.68	4.13
408.887	4.2
409.093	4.04
409.299	4.15
409.505	4.1
409.712	4.12
409.918	4.17
410.124	4.08
410.33	4.03
410.537	3.99
410.743	3.91
410.949	3.93
411.155	3.94
411.361	3.93
411.567	3.59
411.773	3.78
411.98	3.75
412.186	3.79
412.392	3.85
412.598	3.87
412.804	3.83
413.01	3.88
413.216	3.75
413.422	3.68
413.628	3.69
413.834	3.94
414.04	3.84
414.246	3.69
414.452	3.43
414.658	3.46
414.864	3.45
415.07	3.48
415.275	3.45
415.481	3.44
415.687	3.47
415.893	3.53
416.099	3.46
416.305	3.54
416.511	3.62
416.716	3.73
416.922	3.67
417.128	3.67
417.334	3.63
417.539	3.6
417.745	3.61
417.951	3.58
418.157	3.54
418.362	3.49
418.568	3.38
418.774	3.29
418.979	3.22
419.185	3.33
419.391	3.4
419.596	3.39
419.802	3.35
420.008	3.44
420.213	3.73
420.419	3.75
420.624	3.75
420.83	3.77
421.035	3.85
421.241	3.88
421.446	3.78
421.652	3.67
421.857	3.6
422.063	3.55
422.268	3.5
422.474	3.23
422.679	3.12
422.885	3.11
423.09	3.15
423.295	3.12
423.501	3.16
423.706	3.16
423.911	3.24
424.117	3.37
424.322	3.44
424.527	3.49
424.733	3.45
424.938	3.54
425.143	3.57
425.349	3.52
425.554	3.58
425.759	3.54
425.964	3.51
426.169	3.48
426.375	3.47
426.58	3.48
426.785	3.45
426.99	3.52
427.195	3.55
427.4	3.58
427.605	3.66
427.811	3.65
428.016	3.87
428.221	3.88
428.426	3.8
428.631	3.71
428.836	3.81
429.041	3.82
429.246	3.77
429.451	3.74
429.656	3.69
429.861	3.64
430.066	3.54
430.271	3.44
430.476	3.39
430.681	3.41
430.886	3.51
431.09	3.41
431.295	3.36
431.5	3.42
431.705	3.38
431.91	3.39
432.115	3.42
432.32	3.52
432.524	3.44
432.729	3.67
432.934	3.77
433.139	3.68
433.343	3.75
433.548	3.66
433.753	3.6
433.958	3.62
434.162	3.65
434.367	3.55
434.572	3.39
434.776	3.46
434.981	3.16
435.186	3.07
435.39	3.11
435.595	3.02
435.799	2.94
436.004	2.94
436.209	2.93
436.413	2.95
436.618	2.99
436.822	3.15
437.027	3.11
437.231	3.24
437.436	3.2
437.64	3.16
437.845	3.16
438.049	3.39
438.253	3.36
438.458	3.35
438.662	3.3
438.867	3.34
439.071	3.33
439.275	3.4
439.48	3.38
439.684	3.48
439.888	3.47
440.093	3.46
440.297	3.41
440.501	3.38
440.706	3.44
440.91	3.49
441.114	3.46
441.318	3.44
441.523	3.38
441.727	3.41
441.931	3.42
442.135	3.51
442.339	3.51
442.543	3.47
442.748	3.55
442.952	3.56
443.156	3.55
443.36	3.54
443.564	3.46
443.768	3.38
443.972	3.33
444.176	3.23
444.38	3.25
444.584	3.24
444.788	3.2
444.992	3.08
445.196	3.06
445.4	2.91
445.604	2.99
445.808	3.03
446.012	3.05
446.216	3.04
446.42	3.1
446.624	3.06
446.828	3.11
447.032	3.17
447.235	3.28
447.439	3.26
447.643	3.45
447.847	3.4
448.051	3.51
448.254	3.48
448.458	3.54
448.662	3.5
448.866	3.39
449.069	3.47
449.273	3.47
449.477	3.5
449.681	3.44
449.884	3.33
450.088	3.24
450.292	3.21
450.495	3.24
450.699	3.21
450.902	3.15
451.106	3.16
451.31	3.03
451.513	2.97
451.717	2.94
451.92	3
452.124	2.95
452.327	3
452.531	2.9
452.734	2.92
452.938	2.89
453.141	2.99
453.345	2.99
453.548	3.05
453.752	3.01
453.955	3.06
454.158	3.02
454.362	3.09
454.565	3.12
454.769	3.17
454.972	3.18
455.175	3.21
455.379	3.26
455.582	3.34
455.785	3.22
455.988	3.29
456.192	3.34
456.395	3.27
456.598	3.26
456.801	3.16
457.005	3.1
457.208	3.07
457.411	3
457.614	2.86
457.817	2.86
458.021	2.91
458.224	2.92
458.427	2.83
458.63	2.79
458.833	2.85
459.036	2.87
459.239	2.85
459.442	2.88
459.645	2.92
459.848	3
460.051	3
460.254	3.06
460.457	2.98
460.66	2.98
460.863	3.08
461.066	2.93
461.269	2.96
461.472	3.05
461.675	2.97
461.878	2.97
462.081	2.91
462.284	2.79
462.486	2.72
462.689	2.8
462.892	2.75
463.095	2.76
463.298	2.94
463.5	2.96
463.703	2.91
463.906	2.89
464.109	2.87
464.311	2.91
464.514	2.94
464.717	2.97
464.92	3
465.122	3.12
465.325	3.09
465.528	3.13
465.73	3.15
465.933	3.19
466.135	3.3
466.338	3.32
466.541	3.36
466.743	3.5
466.946	3.56
467.148	3.52
467.351	3.44
467.553	3.5
467.756	3.44
467.958	3.49
468.161	3.47
468.363	3.44
468.566	3.52
468.768	3.58
468.971	3.39
469.173	3.27
469.375	3.35
469.578	3.36
469.78	3.38
469.983	3.31
470.185	3.27
470.387	3.31
470.59	3.32
470.792	3.3
470.994	3.18
471.196	3.33
471.399	3.29
471.601	3.26
471.803	3.24
472.005	3.29
472.208	3.32
472.41	3.34
472.612	3.32
472.814	3.32
473.016	3.35
473.218	3.44
473.421	3.5
473.623	3.63
473.825	3.49
474.027	3.6
474.229	3.52
474.431	3.52
474.633	3.59
474.835	3.59
475.037	3.66
475.239	3.62
475.441	3.47
475.643	3.38
475.845	3.3
476.047	3.39
476.249	3.37
476.451	3.31
476.653	3.35
476.855	3.23
477.057	3.14
477.258	3.11
477.46	3.05
477.662	3.08
477.864	3.07
478.066	3.12
478.268	3.09
478.469	3.01
478.671	3.12
478.873	3.07
479.075	3.09
479.276	3.18
479.478	3.19
479.68	3.24
479.882	3.29
480.083	3.33
480.285	3.28
480.487	3.19
480.688	3.21
480.89	3.12
481.091	3.11
481.293	3.06
481.495	3.04
481.696	3
481.898	2.98
482.099	2.98
482.301	3
482.502	3.01
482.704	3.05
482.905	3.06
483.107	3.08
483.308	3.07
483.51	3.1
483.711	3.11
483.913	3.13
484.114	3.17
484.315	3.13
484.517	3.15
484.718	3.16
484.92	3.18
485.121	3.13
485.322	3.14
485.524	3.16
485.725	3.2
485.926	3.2
486.127	3.14
486.329	3.1
486.53	3.16
486.731	3.14
486.932	3.15
487.134	3.15
487.335	3.19
487.536	3.24
487.737	3.26
487.938	3.25
488.139	3.21
488.341	3.27
488.542	3.32
488.743	3.29
488.944	3.26
489.145	3.27
489.346	3.24
489.547	3.25
489.748	3.22
489.949	3.22
490.15	3.21
490.351	3.21
490.552	3.22
490.753	3.23
490.954	3.21
491.155	3.24
491.356	3.26
491.557	3.36
491.758	3.39
491.959	3.43
492.159	3.47
492.36	3.5
492.561	3.54
492.762	3.61
492.963	3.58
493.164	3.62
493.364	3.57
493.565	3.57
493.766	3.44
493.967	3.34
494.167	3.23
494.368	3.16
494.569	3.14
494.769	3.14
494.97	3.08
495.171	3.17
495.371	3.17
495.572	3.21
495.773	3.18
495.973	3.28
496.174	3.37
496.375	3.45
496.575	3.5
496.776	3.59
496.976	3.66
497.177	3.65
497.377	3.64
497.578	3.74
497.778	3.73
497.979	3.67
498.179	3.64
498.38	3.61
498.58	3.68
498.78	3.66
498.981	3.64
499.181	3.55
499.382	3.64
499.582	3.62
499.782	3.58
499.983	3.66
500.183	3.82
500.383	3.84
500.584	3.85
500.784	3.75
500.984	3.79
501.184	3.72
501.385	3.82
501.585	3.81
501.785	3.8
501.985	3.76
502.185	3.76
502.386	3.72
502.586	3.71
502.786	3.65
502.986	3.71
503.186	3.68
503.386	3.75
503.586	3.76
503.786	3.81
503.987	3.86
504.187	3.96
504.387	3.98
504.587	3.98
504.787	3.98
504.987	4.16
505.187	4.12
505.387	4.19
505.587	4.2
505.786	4.18
505.986	4.21
506.186	4.14
506.386	4.1
506.586	4.01
506.786	3.99
506.986	4
507.186	3.96
507.386	4.06
507.585	4.05
507.785	4.13
507.985	4.13
508.185	4.17
508.384	4.3
508.584	4.38
508.784	4.49
508.984	4.52
509.183	4.52
509.383	4.48
509.583	4.45
509.782	4.46
509.982	4.45
510.182	4.49
510.381	4.42
510.581	4.41
510.781	4.39
510.98	4.35
511.18	4.38
511.379	4.47
511.579	4.53
511.778	4.55
511.978	4.61
512.177	4.62
512.377	4.55
512.576	4.59
512.776	4.66
512.975	4.62
513.175	4.74
513.374	4.8
513.573	4.85
513.773	4.77
513.972	4.73
514.172	4.67
514.371	4.71
514.57	4.8
514.77	4.81
514.969	4.76
515.168	4.82
515.367	4.73
515.567	4.66
515.766	4.64
515.965	4.72
516.164	4.72
516.364	4.81
516.563	4.85
516.762	4.85
516.961	4.86
517.16	4.89
517.359	4.91
517.559	4.99
517.758	5.04
517.957	5.06
518.156	5.07
518.355	5.22
518.554	5.22
518.753	5.15
518.952	5.17
519.151	5.24
519.35	5.28
519.549	5.35
519.748	5.43
519.947	5.53
520.146	5.54
520.345	5.57
520.544	5.56
520.743	5.51
520.942	5.57
521.141	5.67
521.339	5.61
521.538	5.58
521.737	5.59
521.936	5.62
522.135	5.55
522.333	5.59
522.532	5.56
522.731	5.51
522.93	5.55
523.129	5.56
523.327	5.57
523.526	5.61
523.725	5.64
523.923	5.62
524.122	5.63
524.321	5.66
524.519	5.69
524.718	5.73
524.917	5.77
525.115	5.84
525.314	5.83
525.512	5.82
525.711	5.87
525.909	5.88
526.108	5.86
526.306	5.82
526.505	5.83
526.703	5.83
526.902	5.84
527.1	5.88
527.299	5.9
527.497	5.95
527.696	6.02
527.894	6.07
528.092	6.14
528.291	6.21
528.489	6.27
528.688	6.36
528.886	6.41
529.084	6.51
529.283	6.54
529.481	6.59
529.679	6.65
529.877	6.65
530.076	6.62
530.274	6.63
530.472	6.6
530.67	6.6
530.869	6.56
531.067	6.56
531.265	6.56
531.463	6.56
531.661	6.54
531.859	6.55
532.057	6.59
532.255	6.65
532.454	6.65
532.652	6.74
532.85	6.78
533.048	6.87
533.246	6.96
533.444	7.02
533.642	7.13
533.84	7.22
534.038	7.27
534.236	7.26
534.434	7.24
534.632	7.26
534.83	7.27
535.027	7.3
535.225	7.33
535.423	7.34
535.621	7.36
535.819	7.36
536.017	7.37
536.215	7.44
536.412	7.5
536.61	7.59
536.808	7.64
537.006	7.67
537.203	7.74
537.401	7.74
537.599	7.71
537.797	7.76
537.994	7.78
538.192	7.85
538.39	7.79
538.587	7.68
538.785	7.61
538.983	7.62
539.18	7.57
539.378	7.54
539.575	7.54
539.773	7.57
539.97	7.56
540.168	7.57
540.366	7.63
540.563	7.69
540.761	7.78
540.958	7.85
541.155	7.94
541.353	8.01
541.55	8.12
541.748	8.21
541.945	8.29
542.143	8.31
542.34	8.39
542.537	8.37
542.735	8.44
542.932	8.47
543.129	8.56
543.327	8.6
543.524	8.64
543.721	8.62
543.919	8.64
544.116	8.68
544.313	8.75
544.51	8.76
544.708	8.81
544.905	8.79
545.102	8.82
545.299	8.85
545.496	8.83
545.693	8.87
545.891	8.92
546.088	8.95
546.285	9.01
546.482	9.05
546.679	9.11
546.876	9.16
547.073	9.26
547.27	9.35
547.467	9.46
547.664	9.55
547.861	9.57
548.058	9.6
548.255	9.67
548.452	9.74
548.649	9.77
548.846	9.88
549.043	9.96
549.24	9.99
549.437	10.08
549.633	10
549.83	10.07
550.027	10.2
550.224	10.24
550.421	10.32
550.618	10.3
550.814	10.5
551.011	10.49
551.208	10.43
551.405	10.49
551.601	10.46
551.798	10.41
551.995	10.46
552.191	10.55
552.388	10.6
552.585	10.65
552.781	10.69
552.978	10.57
553.175	10.68
553.371	10.78
553.568	10.81
553.764	10.95
553.961	11.16
554.157	11.21
554.354	11.13
554.55	11.3
554.747	11.33
554.943	11.34
555.14	11.53
555.336	11.55
555.533	11.67
555.729	11.78
555.926	11.74
556.122	11.81
556.318	11.88
556.515	12.02
556.711	12.02
556.907	12.04
557.104	12.12
557.3	12.1
557.496	12.15
557.693	12.28
557.889	12.44
558.085	12.55
558.281	12.55
558.478	12.6
558.674	12.6
558.87	12.69
559.066	12.88
559.262	13
559.459	13.17
559.655	13.27
559.851	13.2
560.047	13.17
560.243	13.16
560.439	13.25
560.635	13.29
560.831	13.44
561.027	13.48
561.223	13.44
561.419	13.53
561.615	13.6
561.811	13.65
562.007	13.79
562.203	13.84
562.399	13.98
562.595	14.03
562.791	14.06
562.987	14.05
563.183	14.04
563.379	14.1
563.575	14.05
563.771	13.98
563.966	13.98
564.162	13.99
564.358	13.98
564.554	14.04
564.75	14.07
564.945	14.22
565.141	14.25
565.337	14.27
565.533	14.31
565.728	14.45
565.924	14.54
566.12	14.57
566.315	14.67
566.511	14.66
566.707	14.71
566.902	14.8
567.098	14.86
567.293	15.01
567.489	15.08
567.684	15.17
567.88	15.15
568.076	15.18
568.271	15.36
568.467	15.46
568.662	15.68
568.858	15.8
569.053	15.9
569.248	15.95
569.444	16
569.639	16.08
569.835	16.09
570.03	16.23
570.225	16.29
570.421	16.27
570.616	16.23
570.812	16.34
571.007	16.39
571.202	16.38
571.397	16.46
571.593	16.48
571.788	16.63
571.983	16.84
572.178	16.8
572.374	16.99
572.569	17.02
572.764	17.12
572.959	17.16
573.154	17.12
573.35	17.2
573.545	17.28
573.74	17.3
573.935	17.22
574.13	17.1
574.325	17.22
574.52	17.17
574.715	17.31
574.91	17.34
575.105	17.33
575.3	17.48
575.495	17.49
575.69	17.49
575.885	17.66
576.08	17.82
576.275	17.87
576.47	17.97
576.665	18.07
576.86	18.2
577.055	18.25
577.25	18.22
577.444	18.34
577.639	18.51
577.834	18.45
578.029	18.47
578.224	18.56
578.418	18.67
578.613	18.75
578.808	18.81
579.003	18.75
579.197	18.71
579.392	18.88
579.587	18.82
579.781	18.82
579.976	19.03
580.171	19
580.365	19.03
580.56	19.12
580.755	19.11
580.949	19.24
581.144	19.29
581.338	19.45
581.533	19.48
581.727	19.56
581.922	19.73
582.116	19.75
582.311	19.78
582.505	19.75
582.7	19.75
582.894	19.91
583.089	19.81
583.283	19.79
583.478	19.92
583.672	20.01
583.866	20.02
584.061	19.99
584.255	19.94
584.449	19.96
584.644	20.07
584.838	20.03
585.032	20.01
585.226	20.14
585.421	20.14
585.615	20.12
585.809	20.05
586.003	20.11
586.198	20.13
586.392	20.25
586.586	20.29
586.78	20.28
586.974	20.42
587.168	20.32
587.363	20.32
587.557	20.46
587.751	20.45
587.945	20.47
588.139	20.52
588.333	20.58
588.527	20.62
588.721	20.73
588.915	20.86
589.109	20.84
589.303	20.82
589.497	20.79
589.691	20.78
589.885	20.83
590.079	21.05
590.273	21.07
590.466	21.01
590.66	21.03
590.854	21.07
591.048	21.11
591.242	21.1
591.436	21.26
591.629	21.27
591.823	21.33
592.017	21.32
592.211	21.14
592.404	21.17
592.598	21.12
592.792	21.1
592.986	21.05
593.179	21.05
593.373	21.15
593.567	21.12
593.76	21.2
593.954	21.06
594.147	21.18
594.341	21.37
594.535	21.38
594.728	21.44
594.922	21.67
595.115	21.68
595.309	21.6
595.502	21.52
595.696	21.56
595.889	21.54
596.083	21.71
596.276	21.67
596.47	21.64
596.663	21.79
596.856	21.85
597.05	21.73
597.243	21.77
597.437	21.84
597.63	21.93
597.823	21.94
598.017	22.07
598.21	22.1
598.403	22.05
598.596	22.09
598.79	22.03
598.983	22.09
599.176	22.09
599.369	22.17
599.563	22.18
599.756	22.27
599.949	22.35
600.142	22.25
600.335	22.24
600.528	22.32
600.722	22.4
600.915	22.42
601.108	22.36
601.301	22.3
601.494	22.44
601.687	22.53
601.88	22.56
602.073	22.6
602.266	22.6
602.459	22.62
602.652	22.6
602.845	22.61
603.038	22.58
603.231	22.69
603.424	22.7
603.617	22.71
603.809	22.72
604.002	22.74
604.195	22.72
604.388	22.86
604.581	22.98
604.774	23.19
604.966	23.09
605.159	23.19
605.352	23.24
605.545	23.41
605.737	23.47
605.93	23.58
606.123	23.59
606.316	23.66
606.508	23.62
606.701	23.57
606.894	23.44
607.086	23.63
607.279	23.51
607.471	23.57
607.664	23.45
607.857	23.26
608.049	23.22
608.242	23.27
608.434	23.34
608.627	23.35
608.819	23.46
609.012	23.44
609.204	23.4
609.397	23.54
609.589	23.56
609.782	23.72
609.974	23.95
610.166	23.92
610.359	23.99
610.551	24.03
610.743	24.11
610.936	24.01
611.128	24.16
611.32	24.11
611.513	24.1
611.705	24.1
611.897	24.14
612.09	24.11
612.282	24.17
612.474	24.16
612.666	24.14
612.858	24.13
613.051	24.25
613.243	24.22
613.435	24.29
613.627	24.18
613.819	24.03
614.011	24.05
614.203	24.05
614.395	24.12
614.588	24.26
614.78	24.18
614.972	24.08
615.164	24.18
615.356	24.15
615.548	24.2
615.74	24.29
615.932	24.36
616.124	24.41
616.315	24.29
616.507	24.13
616.699	24.01
616.891	24.18
617.083	24.47
617.275	24.37
617.467	24.34
617.659	24.37
617.85	24.42
618.042	24.46
618.234	24.36
618.426	24.35
618.618	24.44
618.809	24.45
619.001	24.27
619.193	24.09
619.384	24.05
619.576	24.27
619.768	24.21
619.959	24.26
620.151	24.35
620.343	24.45
620.534	24.62
620.726	24.69
620.917	24.68
621.109	24.77
621.301	24.76
621.492	24.78
621.684	24.65
621.875	24.76
622.067	24.71
622.258	24.83
622.45	24.8
622.641	24.68
622.832	24.71
623.024	24.76
623.215	24.76
623.407	24.94
623.598	25
623.789	24.99
623.981	24.82
624.172	24.62
624.363	24.23
624.555	24.21
624.746	24.19
624.937	24.07
625.129	24.11
625.32	24.26
625.511	24.22
625.702	24.22
625.893	24.22
626.085	24.53
626.276	24.64
626.467	24.92
626.658	24.96
626.849	25.14
627.04	25.36
627.231	25.44
627.422	25.18
627.614	25.04
627.805	25.11
627.996	25.1
628.187	25.09
628.378	25.28
628.569	25.23
628.76	25.24
628.951	25.17
629.142	25.1
629.332	25.1
629.523	25.37
629.714	25.6
629.905	25.51
630.096	25.61
630.287	25.52
630.478	25.59
630.669	25.59
630.859	25.68
631.05	25.66
631.241	25.64
631.432	25.5
631.623	25.45
631.813	25.39
632.004	25.39
632.195	25.34
632.385	25.28
632.576	25.14
632.767	25.21
632.957	25.11
633.148	25.22
633.339	25.19
633.529	25.25
633.72	25.21
633.91	25.16
634.101	25.12
634.292	25.25
634.482	25.18
634.673	25.18
634.863	25.18
635.054	25.25
635.244	25.11
635.435	25.09
635.625	24.98
635.815	25.09
636.006	25.16
636.196	25.07
636.387	25.2
636.577	25.36
636.767	25.62
636.958	25.59
637.148	25.68
637.338	25.7
637.529	25.84
637.719	26.07
637.909	26.15
638.099	26.18
638.29	26.43
638.48	26.33
638.67	26.24
638.86	26.04
639.05	26.05
639.241	25.91
639.431	26.14
639.621	26.04
639.811	25.86
640.001	25.87
640.191	25.92
640.381	25.9
640.571	25.9
640.761	25.95
640.951	25.91
641.141	25.84
641.331	25.92
641.521	25.93
641.711	26.05
641.901	26.25
642.091	26.21
642.281	26.16
642.471	26.24
642.661	26.16
642.851	26.26
643.041	26.18
643.231	26.46
643.42	26.49
643.61	26.32
643.8	26.31
643.99	26.36
644.18	26.21
644.369	26.19
644.559	26.23
644.749	26.19
644.939	26.2
645.128	26.35
645.318	26.25
645.508	26.16
645.697	26.2
645.887	26.23
646.076	25.96
646.266	26.11
646.456	26.05
646.645	26.16
646.835	26.24
647.024	26.09
647.214	26.07
647.403	26.03
647.593	25.9
647.782	25.94
647.972	25.94
648.161	26.06
648.351	26
648.54	26.1
648.73	25.98
648.919	25.93
649.108	26.19
649.298	26.14
649.487	26.21
649.677	26.52
649.866	26.65
650.055	26.71
650.244	26.96
650.434	27.17
650.623	27.21
650.812	27.34
651.002	27.3
651.191	27.35
651.38	27.44
651.569	27.14
651.758	27.16
651.947	27.22
652.137	27.12
652.326	26.98
652.515	26.88
652.704	26.86
652.893	26.65
653.082	26.81
653.271	26.71
653.46	26.84
653.649	27.09
653.838	27.11
654.027	26.99
654.216	27
654.405	27.07
654.594	27.14
654.783	27.18
654.972	27.37
655.161	27.4
655.35	27.24
655.539	26.9
655.728	26.95
655.916	26.57
656.105	26.77
656.294	26.8
656.483	26.53
656.672	26.22
656.86	26.26
657.049	26.15
657.238	26.22
657.427	26.3
657.615	26.46
657.804	26.35
657.993	26.56
658.181	26.39
658.37	26.65
658.559	26.7
658.747	26.93
658.936	26.89
659.125	26.89
659.313	26.83
659.502	26.91
659.69	27.01
659.879	27.16
660.067	27.14
660.256	27.28
660.444	27.22
660.633	27.06
660.821	27.11
661.01	27.13
661.198	27.26
661.387	27.25
661.575	27.27
661.763	27.34
661.952	27.33
662.14	27.2
662.328	27.14
662.517	26.93
662.705	27.26
662.893	27.21
663.082	27.08
663.27	26.95
663.458	26.95
663.646	26.93
663.834	26.83
664.023	26.92
664.211	27.12
664.399	26.99
664.587	26.9
664.775	26.86
664.963	26.89
665.152	27.33
665.34	27.48
665.528	27.61
665.716	27.45
665.904	27.44
666.092	27.38
666.28	27.45
666.468	27.47
666.656	27.48
666.844	27.54
667.032	27.56
667.22	27.06
667.408	27.02
667.596	27.04
667.784	27.22
667.971	27.27
668.159	27.35
668.347	27.32
668.535	27.31
668.723	27.4
668.911	27.56
669.098	27.58
669.286	27.89
669.474	27.96
669.662	27.74
669.849	27.73
670.037	27.69
670.225	27.78
670.413	27.96
670.6	28.19
670.788	28.38
670.976	28.32
671.163	28.36
671.351	28.21
671.538	28.23
671.726	28.27
671.913	28.29
672.101	28.17
672.289	28
672.476	28.05
672.664	27.79
672.851	27.43
673.039	27.48
673.226	27.29
673.413	27.42
673.601	27.48
673.788	27.34
673.976	27.34
674.163	27.39
674.35	27.31
674.538	27.06
674.725	27.31
674.912	27.55
675.1	27.4
675.287	27.57
675.474	27.68
675.662	27.47
675.849	27.59
676.036	27.73
676.223	27.91
676.411	28.23
676.598	28.24
676.785	27.96
676.972	28.11
677.159	28.21
677.346	28.16
677.533	28.32
677.721	28.28
677.908	28.37
678.095	28.48
678.282	28.4
678.469	28.35
678.656	28.36
678.843	28.56
679.03	28.5
679.217	28.61
679.404	28.58
679.591	28.32
679.778	28.41
679.964	28.31
680.151	28.18
680.338	28.19
680.525	27.98
680.712	28.01
680.899	28.12
681.086	27.95
681.272	27.85
681.459	27.95
681.646	27.94
681.833	27.93
682.02	27.89
682.206	27.83
682.393	27.84
682.58	28.13
682.766	27.98
682.953	27.73
683.14	27.85
683.326	27.94
683.513	27.94
683.7	28.1
683.886	28.32
684.073	28.44
684.259	28.29
684.446	28.32
684.632	28.01
684.819	28.25
685.005	28.2
685.192	27.97
685.378	27.79
685.565	28.03
685.751	27.68
685.938	27.41
686.124	27.5
686.31	27.61
686.497	27.61
686.683	27.88
686.87	27.82
687.056	27.99
687.242	28.39
687.429	28.49
687.615	28.16
687.801	28.48
687.987	28.61
688.174	28.73
688.36	28.8
688.546	28.76
688.732	28.67
688.918	28.49
689.105	28.62
689.291	28.54
689.477	28.72
689.663	29.05
689.849	29.08
690.035	29.1
690.221	29.08
690.407	29.25
690.593	29.19
690.779	29.17
690.965	29.52
691.151	29.47
691.337	29.61
691.523	29.53
691.709	29.28
691.895	29.27
692.081	29.21
692.267	29.03
692.453	29.09
692.639	29.24
692.825	29.43
693.011	29.36
693.196	29.16
693.382	28.86
693.568	28.87
693.754	29.2
693.94	29.1
694.125	29.37
694.311	29.56
694.497	29.43
694.682	29.3
694.868	28.98
695.054	28.94
695.239	28.87
695.425	29.03
695.611	29.02
695.796	28.65
695.982	28.69
696.168	28.6
696.353	28.43
696.539	28.11
696.724	28.01
696.91	28.01
697.095	28.05
697.281	28.23
697.466	28.24
697.652	28.13
697.837	28.4
698.023	28.55
698.208	28.53
698.393	28.47
698.579	28.65
698.764	28.98
698.949	29.34
699.135	29.4
699.32	29.54
699.505	29.52
699.691	29.72
699.876	29.66
700.061	29.71
700.246	29.55
700.432	29.77
700.617	29.8
700.802	29.72
700.987	29.19
701.172	29.06
701.358	29.1
701.543	29.14
701.728	28.92
701.913	28.51
702.098	28.68
702.283	28.72
702.468	28.95
702.653	29.08
702.838	29.13
703.023	29.34
703.208	29.36
703.393	29.19
703.578	29.03
703.763	29
703.948	29.18
704.133	28.73
704.318	29.19
704.503	28.86
704.688	28.6
704.873	28.59
705.057	28.32
705.242	28.66
705.427	28.62
705.612	28.69
705.797	28.67
705.981	28.73
706.166	28.88
706.351	28.81
706.536	28.86
706.72	28.87
706.905	28.59
707.09	28.8
707.274	28.63
707.459	28.76
707.644	28.56
707.828	28.57
708.013	28.53
708.197	28.53
708.382	28.57
708.567	28.8
708.751	28.88
708.936	29.24
709.12	29.3
709.305	29.13
709.489	29.07
709.673	29.3
709.858	29.25
710.042	29.47
710.227	29.29
710.411	28.99
710.596	28.85
710.78	28.91
710.964	28.81
711.149	28.72
711.333	28.98
711.517	28.89
711.702	28.78
711.886	28.93
712.07	28.72
712.254	28.95
712.438	29.17
712.623	28.89
712.807	28.67
712.991	28.71
713.175	28.8
713.359	28.55
713.544	28.62
713.728	28.53
713.912	28.37
714.096	28.52
714.28	28.27
714.464	28.3
714.648	28.64
714.832	28.8
715.016	28.84
715.2	28.75
715.384	28.64
715.568	28.39
715.752	28.51
715.936	28.5
716.12	28.37
716.304	28.78
716.488	28.45
716.671	28.6
716.855	28.49
717.039	28.67
717.223	29.04
717.407	29.38
717.59	29.49
717.774	29.48
717.958	29.36
718.142	29.28
718.325	29.21
718.509	29.62
718.693	29.32
718.877	29.39
719.06	28.95
719.244	28.84
719.428	28.64
719.611	29.02
719.795	29.39
719.978	29.68
720.162	29.36
720.345	29.3
720.529	29.12
720.713	29.15
720.896	29.3
721.08	29.26
721.263	29.49
721.446	29.72
721.63	29.5
721.813	29.64
721.997	29.41
722.18	29.87
722.364	29.89
722.547	29.68
722.73	29.68
722.914	29.53
723.097	29.93
723.28	29.51
723.464	29.42
723.647	29.34
723.83	28.42
724.013	29.16
724.197	29.22
724.38	29.17
724.563	29.38
724.746	29.31
724.929	29.29
725.112	28.88
725.296	28.73
725.479	28.74
725.662	28.45
725.845	29.18
726.028	28.9
726.211	28.84
726.394	28.78
726.577	28.86
726.76	28.92
726.943	29.05
727.126	29.16
727.309	29.21
727.492	28.89
727.675	29.05
727.858	28.68
728.041	28.63
728.224	28.69
728.407	28.7
728.589	28.14
728.772	28.06
728.955	28.15
729.138	28
729.321	28.21
729.503	28.53
729.686	28.92
729.869	29.04
730.052	29.1
730.234	29.16
730.417	29.09
730.6	29.43
730.782	29.12
730.965	29.17
731.148	29.29
731.33	29.2
731.513	29.26
731.695	29.08
731.878	28.78
732.061	28.7
732.243	28.54
732.426	28.7
732.608	28.85
732.791	28.83
732.973	28.98
733.156	28.73
733.338	28.84
733.52	29.07
733.703	29.2
733.885	29.6
734.068	29.4
734.25	29.39
734.432	29.43
734.615	29.33
734.797	29.78
734.979	29.68
735.162	29.83
735.344	29.54
735.526	29.04
735.708	29.05
735.891	29.21
736.073	29.58
736.255	29.36
736.437	29.06
736.619	29.21
736.802	28.96
736.984	28.24
737.166	28.58
737.348	28.63
737.53	28.71
737.712	28.34
737.894	28.05
738.076	28.12
738.258	28.64
738.44	28.57
738.622	28.6
738.804	29.04
738.986	29.66
739.168	29.41
739.35	29.73
739.532	29.51
739.714	29.47
739.896	29.59
740.078	29.22
740.259	28.87
740.441	28.98
740.623	28.29
740.805	28.29
740.987	27.91
741.168	28.08
741.35	28.57
741.532	28.59
741.714	28.67
741.895	28.49
742.077	28.96
742.259	29.76
742.44	30.33
742.622	30.38
742.804	29.8
742.985	30.55
743.167	30.24
743.348	29.87
743.53	30.13
743.711	30.25
743.893	30.23
744.075	29.52
744.256	28.9
744.438	28.35
744.619	28.82
744.8	29.18
744.982	28.68
745.163	28.58
745.345	27.95
745.526	27.52
745.707	28.15
745.889	28.36
746.07	27.99
746.252	27.92
746.433	27.98
746.614	27.3
746.795	27.12
746.977	27.51
747.158	27.59
747.339	28.41
747.52	28.66
747.702	28.44
747.883	28.41
748.064	28.76
748.245	29.08
748.426	29.31
748.607	29.77
748.788	30.04
748.97	28.69
749.151	28.44
749.332	27.69
749.513	28.02
749.694	27.73
749.875	27.83
750.056	28.32
750.237	28.4
750.418	28.11
750.599	28.7
750.78	28.7
750.96	29.4
751.141	29.79
751.322	29.97
751.503	29.93
751.684	30.15
751.865	29.85
752.046	29.77
752.226	29.8
752.407	29.84
752.588	29.12
752.769	29.48
752.949	30.06
753.13	30.86
753.311	31.33
753.492	31.79
753.672	31.38
753.853	31.64
754.034	31.89
754.214	31.31
754.395	31.29
754.575	31.78
754.756	31.27
754.937	30.98
755.117	30.94
755.298	30.79
755.478	30.45
755.659	30.7
755.839	30.35
756.02	29.71
756.2	30.33
756.381	30.17
756.561	30.07
756.741	30.39
756.922	30.77
757.102	29.68
757.283	29.47
757.463	29.21
757.643	28.8
757.823	29.2
758.004	30.11
758.184	29.8
758.364	29.98
758.545	29.66
758.725	29.12
758.905	28.82
759.085	28.99
759.265	28.64
759.446	28.57
759.626	28.47
759.806	28.11
759.986	27.54
760.166	27.14
760.346	26.66
760.526	26.85
760.706	27.08
760.886	26.92
761.066	27.3
761.246	27.53
761.426	27.93
761.606	27.67
761.786	27.86
761.966	27.63
762.146	28.1
762.326	28.21
762.506	28.13
762.686	28.19
762.866	28.28
763.046	28.51
763.225	28.33
763.405	28.22
763.585	28.58
763.765	28.23
763.945	28.55
764.124	28.52
764.304	28.9
764.484	29.4
764.664	29.39
764.843	29.59
765.023	29.73
765.203	29.83
765.382	30.03
765.562	30.23
765.741	30.48
765.921	30.63
766.101	30.95
766.28	30.52
766.46	29.81
766.639	29.59
766.819	29.09
766.998	28.66
767.178	28.6
767.357	28.27
767.537	28.72
767.716	29.2
767.896	28.7
768.075	28.09
768.254	28.51
768.434	29.33
768.613	29.73
768.792	30.21
768.972	30.26
769.151	31.18
769.33	31.72
769.51	30.7
769.689	30.63
769.868	30.59
770.047	31.22
770.226	31.01
770.406	30.48
770.585	30.86
770.764	30.65
770.943	30.25
771.122	29.68
771.301	28.83
771.48	28.91
771.66	29.54
771.839	29.32
772.018	28.95
772.197	28.71
772.376	28.99
772.555	27.86
772.734	27.55
772.913	27.87
773.092	27.83
773.271	28.56
773.449	29.44
773.628	28.73
773.807	29.38
773.986	28.67
774.165	29.44
774.344	29.93
774.523	30.89
774.701	31.81
774.88	32.16
775.059	31.66
775.238	31.31
775.417	30.35
775.595	29.85
775.774	29.47
775.953	29.96
776.131	29.57
776.31	28.77
776.489	28.36
776.667	27.68
776.846	27.05
777.025	27.1
777.203	27.5
777.382	27.68
777.56	28.14
777.739	28.23
777.917	27.99
778.096	28.52
778.274	28.98
778.453	29.38
778.631	30.01
778.81	30.62
778.988	30.57
779.166	29.96
779.345	30.75
779.523	30.87
779.702	31.76
779.88	31.51
780.058	30.97
780.237	30.64
780.415	30.63
780.593	30.15
780.771	30.29
780.95	31.02
781.128	31.45
781.306	31.17
781.484	31.76
781.662	31.4
781.841	31.42
782.019	31.35
782.197	31.81
782.375	31.38
782.553	31.72
782.731	31.13
782.909	31.77
783.087	32.38
783.265	32.62
783.443	31.58
783.621	31.83
783.799	32.84
783.977	32.95
784.155	32.94
784.333	33.98
784.511	33.6
784.689	33.53
784.867	32.87
785.045	30.96
785.223	30.33
785.4	30.78
785.578	30.22
785.756	30.09
785.934	29.66
786.112	29.03
786.289	29.05
786.467	28.7
786.645	29.58
786.823	29.29
787	30.28
787.178	29.99
787.356	30.55
787.533	30.64
787.711	29.98
787.889	29.87
788.066	29.31
788.244	29.03
788.421	30.2
788.599	29.79
788.776	29.63
788.954	29
789.131	29.22
789.309	28.33
789.486	28.94
789.664	28.95
789.841	30.07
790.019	31.29
790.196	31.46
790.373	30.64
790.551	30.42
790.728	30.34
790.906	31.73
791.083	32.55
791.26	32.84
791.437	31.21
791.615	31.67
791.792	30.65
791.969	29.78
792.146	29.36
792.324	29.42
792.501	29.82
792.678	30.41
792.855	29.18
793.032	28.88
793.209	28.39
793.387	28.76
793.564	28.58
793.741	28.79
793.918	30.37
794.095	30.56
794.272	32.01
794.449	31.7
794.626	31.7
794.803	32.69
794.98	32.88
795.157	33.47
795.334	33.61
795.511	33.91
795.688	33.37
795.864	32.13
796.041	32.18
796.218	30.88
796.395	30.27
796.572	30.47
796.749	30.22
796.925	30.02
797.102	29.64
797.279	29.44
797.456	29.3
797.632	29.26
797.809	29.39
797.986	28.95
798.162	28.72
798.339	29.71
798.516	29.14
798.692	28.74
798.869	28.35
799.046	28.58
799.222	28.74
799.399	29.3
799.575	29.74
799.752	29.45
799.928	29.04
800.105	29.12
800.281	29.37
800.458	29.34
800.634	29.67
800.811	29.79
800.987	30.13
801.163	31.59
801.34	30.4
801.516	31.28
801.692	33
801.869	33.12
802.045	33.28
802.221	32.58
802.398	33.18
802.574	33.28
802.75	32.84
802.926	32.38
803.103	31.56
803.279	32.33
803.455	32.25
803.631	31.14
803.807	30.58
803.983	30.65
804.16	29.88
804.336	29.59
804.512	29.27
804.688	29.94
804.864	29.78
805.04	29.65
805.216	29.17
805.392	28.82
805.568	28.35
805.744	28.61
805.92	28.08
806.096	28.87
806.272	27.91
806.448	27.68
806.623	27.99
806.799	28.48
806.975	29.46
807.151	29.67
807.327	29.99
807.503	30.63
807.678	31
807.854	32.48
808.03	31.82
808.206	33.18
808.381	32.74
808.557	32.54
808.733	31.64
808.908	30.16
809.084	29.63
809.26	29.75
809.435	29.29
809.611	29.42
809.787	27.67
809.962	28.14
810.138	26.81
810.313	28.01
810.489	28.54
810.664	28.73
810.84	27.57
811.015	28.15
811.191	27.8
811.366	28.46
811.542	28.9
811.717	30.28
811.892	30.57
812.068	31.13
812.243	30.86
812.419	30.5
812.594	30.06
812.769	30.91
812.944	30.57
813.12	31.19
813.295	30.13
813.47	30.28
813.645	28.7
813.821	28.21
813.996	28.45
814.171	28.04
814.346	28.17
814.521	29.29
814.697	30.18
814.872	30.49
815.047	30.53
815.222	31.69
815.397	31.57
815.572	32.59
815.747	33.14
815.922	33.37
816.097	33.18
816.272	32
816.447	32.17
816.622	32.84
816.797	31.84
816.972	30.34
817.147	29.66
817.322	30.51
817.496	31.29
817.671	31.91
817.846	32.58
818.021	33.42
818.196	33.23
818.371	32.27
818.545	31.56
818.72	31.66
818.895	31.73
819.069	32.02
819.244	31.47
819.419	30.64
819.594	29.71
819.768	28.87
819.943	29.23
820.117	28.71
820.292	28.52
820.467	28.45
820.641	28.64
820.816	28.96
820.99	28.52
821.165	28.25
821.339	28.12
821.514	28.31
821.688	28.16
821.863	27.91
822.037	28.1
822.212	28.34
822.386	28.21
822.56	27.97
822.735	27.94
822.909	27.99
823.084	27.95
823.258	27.97
823.432	27.9
823.606	28.03
823.781	28.05
823.955	28.12
824.129	28.07
824.303	28.2
824.478	28.63
824.652	28.42
824.826	28.69
825	28.79
825.174	29.13
825.348	28.99
825.523	28.94
825.697	28.79
825.871	29.09
826.045	28.82
826.219	28.93
826.393	28.71
826.567	28.54
826.741	28.47
826.915	28.22
827.089	27.87
827.263	27.99
827.437	27.82
827.611	27.57
827.784	27.42
827.958	27.86
828.132	27.53
828.306	27.84
828.48	28.02
828.654	28.16
828.827	29.1
829.001	29.35
829.175	29.49
829.349	30.25
829.522	30.56
829.696	31.25
829.87	31.56
830.044	31.7
830.217	30.94
830.391	30.51
830.565	29.8
830.738	30.06
830.912	29.72
831.085	29.76
831.259	29.01
831.432	29.4
831.606	29.21
831.779	28.77
831.953	29.02
832.126	29.92
832.3	30.85
832.473	30.61
832.647	29.1
832.82	29.04
832.994	28.55
833.167	28.65
833.34	28.49
833.514	27.98
833.687	27.59
833.86	28
834.034	27.83
834.207	27.36
834.38	28.27
834.553	28.83
834.727	29.25
834.9	29.93
835.073	30.41
835.246	30.59
835.419	30.93
835.593	31.4
835.766	31.72
835.939	31.98
836.112	32.01
836.285	31.51
836.458	32.19
836.631	31.64
836.804	31.78
836.977	31.27
837.15	31.3
837.323	30.44
837.496	31.44
837.669	31.07
837.842	29.47
838.015	30.16
838.188	30.22
838.361	30.01
838.533	30.04
838.706	29.57
838.879	30.84
839.052	30.57
839.225	31.09
839.398	32.03
839.57	31.72
839.743	33.03
839.916	33.77
840.088	32.22
840.261	33.06
840.434	34
840.607	33.94
840.779	32.95
840.952	33.29
841.124	34.94
841.297	33.39
841.47	33.95
841.642	35.87
841.815	35.09
841.987	37.03
842.16	35.01
842.332	35.65
842.505	35.13
842.677	32.82
842.85	33.86
843.022	31.9
843.194	33.39
843.367	30.84
843.539	27.03
843.712	27.38
843.884	26.31
844.056	27.04
844.229	25.31
844.401	26.71
844.573	31.76
844.745	29.5
844.918	30.39
845.09	25.63
845.262	29.06
845.434	30.22
845.606	27.12
845.779	29.02
845.951	29.4
846.123	31.29
846.295	28.14
846.467	24.43
846.639	26.49
846.811	25.7
846.983	26.37
847.155	24.53
847.327	25.2
847.499	30.5
847.671	31.56
847.843	31.7
848.015	32.47
848.187	34.8
848.359	34.93
848.531	32.14
848.703	30.99
848.875	34.03
849.047	35.03
849.218	37.28
849.39	35.29
849.562	34.85
849.734	34.66
849.905	31.91
850.077	33.83
850.249	37.11
850.421	39.25
850.592	41.5
850.764	40.74
850.936	42.28
851.107	38.72
851.279	39.97
851.451	35.66
851.622	36.24
851.794	35.97
851.965	35.4
852.137	34.59
852.308	35.66
852.48	37.77
852.651	37.11
852.823	34.54
852.994	35.88
853.166	36.61
853.337	38.75
853.509	36.27
853.68	40.3
853.851	39.5
854.023	40
854.194	39.86
854.365	37.15
854.537	40.52
854.708	40.38
854.879	42.07
855.05	44.09
855.222	44.42
855.393	48.33
855.564	44.25
855.735	45.83
855.906	45.31
856.078	43.87
856.249	44.89
856.42	40.45
856.591	39.02
856.762	35.69
856.933	34.74
857.104	36.37
857.275	33.62
857.446	33.42
857.617	31.48
857.788	29.51
857.959	32.18
858.13	33.15
858.301	39.47
858.472	39.77
858.643	42.33
858.814	40.91
858.985	42.25
859.155	41.36
859.326	44.81
859.497	48.56
859.668	51.36
859.839	51.25
860.009	48.05
860.18	45.34
860.351	47.63
860.522	45.79
860.692	47.18
860.863	45.82
861.034	48.41
861.204	46.87
861.375	45.17
861.546	43.42
861.716	43.01
861.887	45.25
862.057	41.05
862.228	39.27
862.398	38.46
862.569	36.78
862.739	34.44
862.91	31.94
863.08	32.55
863.251	30.53
863.421	33.35
863.592	30.22
863.762	24.6
863.932	28.55
864.103	31.03
864.273	31.68
864.443	28.47
864.614	31.23
864.784	30.73
864.954	31.51
865.125	34.78
865.295	33.92
865.465	37.75
865.635	40.17
865.805	42.55
865.976	42.13
866.146	41.74
866.316	43.8
866.486	42.57
866.656	41.5
866.826	39.75
866.996	36.69
867.166	37.03
867.336	35.03
867.506	37.08
867.676	33.38
867.846	29.73
868.016	32.66
868.186	32.53
868.356	33.4
868.526	36.54
868.696	39.37
868.866	41.16
869.036	43.05
869.206	46.66
869.376	42.86
869.545	43.03
869.715	43.77
869.885	40.41
870.055	38.89
870.224	37.24
870.394	34.96
870.564	36.22
870.734	35.99
870.903	34.15
871.073	35.68
871.243	39.03
871.412	39.8
871.582	41.96
871.751	42.38
871.921	46.88
872.091	50.02
872.26	49.01
872.43	48.52
872.599	47.5
872.769	45.8
872.938	41.34
873.108	42.44
873.277	44.29
873.446	41.14
873.616	41.16
873.785	39.9
873.955	36.08
874.124	38.69
874.293	38.39
874.463	38.32
874.632	38.81
874.801	42.57
874.971	39.36
875.14	32.57
875.309	35.47
875.478	35.81
875.647	35.84
875.817	33.87
875.986	32.75
876.155	29.06
876.324	30.81
876.493	32.57
876.662	28.64
876.831	32.33
877	33.49
877.17	33.35
877.339	35.46
877.508	34.45
877.677	36.31
877.846	36.61
878.015	38.44
878.184	39.9
878.352	40.45
878.521	41.2
878.69	36.34
878.859	39.16
879.028	38.75
879.197	39.28
879.366	37.11
879.534	37.04
879.703	36.73
879.872	35.91
880.041	33.07
880.21	31.05
880.378	30.05
880.547	31.63
880.716	30.03
880.884	30.31
881.053	29.81
881.222	29.62
881.39	28.76
881.559	28.62
881.727	28.98
881.896	29.56
882.065	29.7
882.233	30.45
882.402	29.88
882.57	30.43
882.739	30.17
882.907	29.52
883.076	30.08
883.244	30.59
883.412	29.86
883.581	30.1
883.749	30.35
883.918	30.83
884.086	30.91
884.254	30.79
884.423	30.82
884.591	31.01
884.759	30.84
884.927	30.71
885.096	30.59
885.264	31.92
885.432	31.3
885.6	31.5
885.769	30.56
885.937	28.61
886.105	28.11
886.273	28.64
886.441	27.2
886.609	26.91
886.777	26.34
886.945	27.81
887.113	27.23
887.281	25.6
887.449	24.68
887.617	27.56
887.785	31.5
887.953	32.86
888.121	34.1
888.289	36.56
888.457	38.3
888.625	37.42
888.793	35.75
888.961	36.63
889.129	41.79
889.296	44.59
889.464	43.12
889.632	41.23
889.8	43.81
889.967	40.11
890.135	41.19
