Data from 2938498_Reflection_2.txt Node
Date: Wed Jun 17 00:24:22 EDT 2015
User: robert
Spectrometer: USB4E03002
Autoset integration time: false
Trigger mode: 4
Integration Time (sec): 1.000000E-1
Scans to average: 10
Electric dark correction enabled: true
Nonlinearity correction enabled: false
Boxcar width: 5
Stray light correction enabled: false
XAxis mode: Wavelengths
Stop averaging: false
Number of Pixels in Spectrum: 3648
>>>>>Begin Spectral Data<<<<<
177.575	128.9
177.794	6103.7
178.014	560.76
178.233	142.3
178.452	199.48
178.672	274.27
178.891	-4.59
179.11	31.44
179.33	54.16
179.549	-263.97
179.768	308.19
179.987	70.75
180.207	63.79
180.426	187.84
180.645	-6.37
180.864	86.71
181.084	242.08
181.303	152.68
181.522	1551.8
181.741	842.65
181.96	29.26
182.179	-59.6
182.398	112.32
182.618	-21.43
182.837	247.11
183.056	551.58
183.275	224.29
183.494	926.88
183.713	1154.38
183.932	37.45
184.151	398.18
184.37	59.46
184.589	168.13
184.808	103.73
185.027	170.71
185.246	131.02
185.465	139.62
185.684	139.73
185.903	165.97
186.122	170.87
186.341	161.2
186.56	636.9
186.779	-119.9
186.998	-132.3
187.216	-5.63
187.435	33.63
187.654	51.29
187.873	59.32
188.092	90.38
188.311	121.65
188.53	131.23
188.748	442.86
188.967	240.63
189.186	613.24
189.405	247.25
189.623	414.46
189.842	-2782.41
190.061	3734.13
190.28	-156.2
190.498	-276.51
190.717	-349.42
190.936	2104.42
191.154	98.1
191.373	-4143.48
191.592	-8855.81
191.81	-95.35
192.029	-92.03
192.248	-333.09
192.466	-136.04
192.685	543.09
192.904	229.78
193.122	164.29
193.341	131.93
193.559	-590.04
193.778	-205.77
193.996	-29.97
194.215	40.07
194.433	-41.39
194.652	-335.33
194.87	11.57
195.089	-27.14
195.307	-120.23
195.526	-172.15
195.744	-113.71
195.963	-271.38
196.181	-825.25
196.399	-300
196.618	513.44
196.836	-1665
197.055	279.94
197.273	142.38
197.491	67.28
197.71	28.08
197.928	-27.01
198.146	4.18
198.365	-34.88
198.583	-44.11
198.801	-5.31
199.019	-57.26
199.238	-14.33
199.456	46.08
199.674	-21.13
199.892	16.66
200.111	-36.28
200.329	-37.09
200.547	-3035.42
200.765	72.66
200.983	58.98
201.202	14.67
201.42	74.02
201.638	88.25
201.856	100.05
202.074	121.17
202.292	134.69
202.51	164.53
202.728	138.61
202.946	97.39
203.165	62.47
203.383	144.03
203.601	120.6
203.819	75.64
204.037	47.16
204.255	-94.48
204.473	-37.04
204.691	-91.94
204.909	-118.94
205.127	-459.28
205.345	80300
205.562	124.97
205.78	414.24
205.998	711.87
206.216	-18145.45
206.434	-91.88
206.652	-14.92
206.87	-29.75
207.088	34.28
207.306	23.4
207.523	31.65
207.741	57.38
207.959	55.66
208.177	68.65
208.395	72.06
208.612	76.92
208.83	75.52
209.048	70.53
209.266	141.42
209.483	120.94
209.701	35.27
209.919	-17.77
210.136	-36.34
210.354	-68.45
210.572	-23
210.79	-42.2
211.007	-50.09
211.225	-3.66
211.442	-18.05
211.66	-41.61
211.878	-25.66
212.095	-95.42
212.313	-96.04
212.53	-142.81
212.748	-121.71
212.966	-138.78
213.183	-103.78
213.401	-99.89
213.618	-181.79
213.836	-142.74
214.053	-103.82
214.271	-129.56
214.488	250.14
214.705	357.18
214.923	93.17
215.14	50.29
215.358	54.99
215.575	90.72
215.793	597.62
216.01	169.07
216.227	164.49
216.445	223.6
216.662	218.79
216.879	369.53
217.097	266.61
217.314	107.5
217.531	115.19
217.749	114.29
217.966	82.12
218.183	-925.32
218.4	874.7
218.618	163.6
218.835	162.07
219.052	144.99
219.269	111.68
219.487	73.47
219.704	66.63
219.921	50.45
220.138	59.18
220.355	45.95
220.572	16.43
220.79	8.5
221.007	2.73
221.224	-0.61
221.441	-13.32
221.658	-52.33
221.875	-40.77
222.092	-35.86
222.309	-2.53
222.526	-13.37
222.743	-11.22
222.96	12.5
223.177	18.44
223.394	17.67
223.611	4.62
223.828	17.07
224.045	21.45
224.262	22.82
224.479	25.83
224.696	17.26
224.913	20.85
225.13	13.9
225.347	13.06
225.564	8.07
225.781	10.31
225.997	16.69
226.214	15.35
226.431	14.64
226.648	12.91
226.865	9.87
227.082	10.07
227.298	4.84
227.515	6.03
227.732	6.09
227.949	6.93
228.165	4.82
228.382	4.18
228.599	3.56
228.816	4.73
229.032	4.02
229.249	6.98
229.466	8.16
229.682	11.45
229.899	13.63
230.116	11.54
230.332	10.13
230.549	11.42
230.765	10.47
230.982	11.56
231.199	9.73
231.415	8.22
231.632	2.97
231.848	2.35
232.065	2.87
232.281	-0.07
232.498	1.13
232.714	1.69
232.931	-0.51
233.147	1.11
233.364	2.86
233.58	1.26
233.797	1.89
234.013	2.62
234.23	2.62
234.446	0.99
234.662	0.24
234.879	-0.69
235.095	2.69
235.312	1.05
235.528	0.88
235.744	-2.41
235.961	1.32
236.177	3.91
236.393	8.31
236.61	9.33
236.826	10.55
237.042	10.4
237.258	12.55
237.475	10.03
237.691	13.42
237.907	13.69
238.123	13.25
238.339	9.41
238.556	9.49
238.772	5.61
238.988	3.75
239.204	5.23
239.42	4.74
239.636	3.84
239.853	6.21
240.069	7.02
240.285	7.61
240.501	8.39
240.717	10.41
240.933	10.28
241.149	10.54
241.365	11.04
241.581	10.49
241.797	12.81
242.013	13
242.229	12.88
242.445	12.46
242.661	12.09
242.877	12.67
243.093	12.07
243.309	11.45
243.525	11.84
243.741	11.41
243.957	11.67
244.173	11.17
244.388	10.69
244.604	10.15
244.82	10.25
245.036	10.32
245.252	10
245.468	9.37
245.683	9.71
245.899	9.98
246.115	10.3
246.331	11.25
246.547	10.99
246.762	11.08
246.978	11.11
247.194	11.21
247.409	11.29
247.625	11.67
247.841	11.54
248.057	12.32
248.272	11.99
248.488	12.13
248.703	10.15
248.919	9.93
249.135	10.87
249.35	9.77
249.566	8.83
249.782	8.1
249.997	7.56
250.213	8.76
250.428	6.94
250.644	6.96
250.859	5.92
251.075	6.81
251.29	6.64
251.506	6.27
251.721	6.55
251.937	6.37
252.152	5.92
252.368	5.43
252.583	4.38
252.798	5.54
253.014	5.4
253.229	6.84
253.445	6.09
253.66	6.45
253.875	4.84
254.091	5.86
254.306	5.01
254.521	5.72
254.737	5.6
254.952	4.3
255.167	4.16
255.383	4.52
255.598	2.58
255.813	2.26
256.028	3.05
256.244	3.9
256.459	4.02
256.674	5.62
256.889	6.01
257.104	6.79
257.32	8.09
257.535	7.37
257.75	7.49
257.965	7.49
258.18	7.15
258.395	6.62
258.61	6.6
258.826	6.55
259.041	6.54
259.256	6.04
259.471	5.1
259.686	4.86
259.901	5.79
260.116	5.4
260.331	5.99
260.546	6.04
260.761	5.63
260.976	5.93
261.191	5.55
261.406	4.97
261.621	5.2
261.836	5.33
262.05	4.81
262.265	3.74
262.48	3.91
262.695	4.24
262.91	5.35
263.125	7.02
263.34	6.73
263.555	7.43
263.769	7.08
263.984	7.75
264.199	8.03
264.414	7.43
264.629	7.62
264.843	8.2
265.058	7.68
265.273	7.11
265.488	6.43
265.702	6.19
265.917	6.24
266.132	6.57
266.346	6.67
266.561	7.01
266.776	7.41
266.99	8.49
267.205	8.48
267.42	8.26
267.634	8.29
267.849	7.82
268.063	7.96
268.278	7.3
268.492	7.81
268.707	7.72
268.922	8.28
269.136	8.65
269.351	6.88
269.565	6.66
269.78	6.74
269.994	6.71
270.209	7.11
270.423	7.2
270.637	7.52
270.852	7.49
271.066	7.22
271.281	6.53
271.495	5.72
271.709	6.53
271.924	6.34
272.138	6.7
272.353	6.71
272.567	6.51
272.781	5.94
272.996	5.28
273.21	3.79
273.424	3.23
273.638	3.93
273.853	4.67
274.067	3.71
274.281	2.46
274.495	2.29
274.71	2.23
274.924	1.7
275.138	2.23
275.352	3.58
275.566	4.85
275.781	6.69
275.995	7.04
276.209	6.72
276.423	6.71
276.637	8.08
276.851	8.18
277.065	8.7
277.279	9.03
277.493	9.13
277.707	9.02
277.921	8.88
278.135	7.55
278.349	6.58
278.563	7.04
278.777	7.03
278.991	6.04
279.205	6.35
279.419	6.95
279.633	7.28
279.847	8.31
280.061	8.13
280.275	8.11
280.489	8.3
280.703	9.1
280.917	8.87
281.131	8.42
281.344	8.73
281.558	8.4
281.772	8.23
281.986	8.08
282.2	7
282.414	6.04
282.627	5.44
282.841	4.7
283.055	3.94
283.269	4.23
283.482	4.8
283.696	4.99
283.91	4.36
284.123	4.52
284.337	4.93
284.551	4.46
284.764	5.05
284.978	5.61
285.192	6.25
285.405	6.37
285.619	6.34
285.833	6.37
286.046	6.69
286.26	7.13
286.473	6.65
286.687	7.11
286.9	7.35
287.114	8.05
287.327	7.85
287.541	7.71
287.754	6.99
287.968	6.97
288.181	6.99
288.395	7
288.608	7.2
288.822	7.02
289.035	6.62
289.248	6.77
289.462	6.14
289.675	5.75
289.889	5.91
290.102	7.21
290.315	7.31
290.529	7.11
290.742	6.19
290.955	6.31
291.169	7.04
291.382	7.24
291.595	6.94
291.808	6.9
292.022	8.18
292.235	7.63
292.448	7.04
292.661	6.92
292.875	7.16
293.088	7.7
293.301	6.99
293.514	6.97
293.727	6.87
293.94	7.18
294.153	7.56
294.367	7.15
294.58	7.44
294.793	7.73
295.006	7.97
295.219	8.33
295.432	8.4
295.645	8.68
295.858	8.53
296.071	8.09
296.284	8.24
296.497	7.64
296.71	7.3
296.923	7.42
297.136	7.09
297.349	6.69
297.562	5.77
297.775	5.33
297.988	5.37
298.201	5.09
298.414	5.28
298.626	5.03
298.839	5.45
299.052	5.29
299.265	4.45
299.478	4.72
299.691	5.04
299.903	5.27
300.116	6.08
300.329	6.67
300.542	6.8
300.755	6.62
300.967	7.03
301.18	7.59
301.393	7.7
301.605	8.32
301.818	7.79
302.031	7.83
302.243	8.03
302.456	7.9
302.669	8
302.881	7.08
303.094	7.81
303.307	7.76
303.519	7.35
303.732	7.84
303.944	8.7
304.157	9.61
304.37	9.46
304.582	10.25
304.795	9.87
305.007	8.91
305.22	9.08
305.432	9.47
305.645	9.4
305.857	9.45
306.069	9.18
306.282	8.41
306.494	7.34
306.707	7
306.919	6.55
307.132	6.38
307.344	7.13
307.556	8.33
307.769	7.99
307.981	8.02
308.193	7.74
308.406	8.01
308.618	8.21
308.83	8.68
309.043	8.62
309.255	8.8
309.467	8.65
309.679	8.32
309.892	7.69
310.104	7.01
310.316	7.21
310.528	7.12
310.74	6.63
310.953	6.78
311.165	6.84
311.377	6.96
311.589	6.25
311.801	6.45
312.013	6.5
312.225	6.32
312.437	6.23
312.649	5.68
312.862	5.71
313.074	6.08
313.286	5.25
313.498	5.19
313.71	5.75
313.922	6.06
314.134	6.28
314.346	6.62
314.558	6.34
314.77	7.18
314.982	7.39
315.193	7.15
315.405	6.82
315.617	7.88
315.829	7.57
316.041	7.38
316.253	7.97
316.465	7.66
316.677	7.69
316.888	8.47
317.1	8.33
317.312	8.75
317.524	9.47
317.736	9.6
317.947	9.07
318.159	9.8
318.371	10.1
318.583	10.01
318.794	10.49
319.006	10.25
319.218	10.39
319.43	10.54
319.641	9.82
319.853	9.17
320.064	8.91
320.276	8.76
320.488	7.84
320.699	6.99
320.911	7.56
321.123	7.48
321.334	7.23
321.546	7.01
321.757	6.6
321.969	7.08
322.18	7.91
322.392	8.54
322.603	8.57
322.815	8.89
323.026	9.17
323.238	8.83
323.449	8.75
323.661	9.15
323.872	9.07
324.083	9.34
324.295	9.03
324.506	9.1
324.718	9.27
324.929	9.35
325.14	9.55
325.352	9.34
325.563	9.37
325.774	9.77
325.986	9.16
326.197	9.64
326.408	9.27
326.62	9.55
326.831	9.01
327.042	9
327.253	9.13
327.464	8.74
327.676	9.13
327.887	9.39
328.098	9.21
328.309	9.8
328.52	9.99
328.732	10.71
328.943	11.26
329.154	12.03
329.365	11.65
329.576	12.1
329.787	12.43
329.998	12.73
330.209	12.42
330.42	12.26
330.631	12.26
330.842	11.63
331.053	11.57
331.264	11.49
331.475	10.93
331.686	11.46
331.897	11.95
332.108	12.22
332.319	11.95
332.53	11.74
332.741	11.95
332.952	11.81
333.163	11.62
333.374	11.15
333.585	11.25
333.795	11.32
334.006	11.21
334.217	10.42
334.428	10.34
334.639	10.46
334.849	10.5
335.06	10.56
335.271	10.59
335.482	10.95
335.692	11.45
335.903	11.14
336.114	11.02
336.325	11.03
336.535	11.12
336.746	10.88
336.957	10.97
337.167	11
337.378	10.91
337.589	10.96
337.799	10.75
338.01	10.9
338.22	10.63
338.431	11.1
338.642	10.72
338.852	10.97
339.063	11.36
339.273	10.85
339.484	11.02
339.694	11.69
339.905	12.11
340.115	12.78
340.326	12.31
340.536	12.38
340.746	12.12
340.957	12.09
341.167	11.7
341.378	11.42
341.588	12.11
341.799	11.82
342.009	11.48
342.219	10.92
342.43	10.5
342.64	10.63
342.85	10.66
343.061	10.59
343.271	10.63
343.481	10.75
343.691	10.93
343.902	10.62
344.112	10.79
344.322	10.58
344.532	11.16
344.743	11
344.953	11.15
345.163	11.21
345.373	10.89
345.583	10.7
345.793	10.88
346.004	10.64
346.214	10.75
346.424	10.68
346.634	10.31
346.844	9.6
347.054	9.78
347.264	9.4
347.474	9.3
347.684	9.68
347.894	10.03
348.104	9.73
348.314	9.97
348.524	9.62
348.734	9.38
348.944	9.29
349.154	9.52
349.364	9.49
349.574	9.6
349.784	9.63
349.994	9.65
350.204	9.92
350.413	9.74
350.623	9.63
350.833	9.76
351.043	9.74
351.253	10.14
351.463	9.93
351.672	9.88
351.882	10.05
352.092	9.86
352.302	9.57
352.511	9.53
352.721	9.45
352.931	9.2
353.141	9.17
353.35	9.32
353.56	9.03
353.77	8.92
353.979	9.25
354.189	9.27
354.399	9.86
354.608	10.17
354.818	10.23
355.027	10.53
355.237	10.65
355.447	10.6
355.656	10.45
355.866	10.67
356.075	10.73
356.285	10.03
356.494	9.63
356.704	8.95
356.913	8.8
357.123	8.46
357.332	8.24
357.542	8.24
357.751	8.48
357.96	8.37
358.17	8.52
358.379	8.57
358.589	9.03
358.798	9.19
359.007	9.22
359.217	9.2
359.426	9.33
359.635	9.17
359.845	9.04
360.054	8.97
360.263	9.32
360.472	9.18
360.682	9.31
360.891	9.18
361.1	9.28
361.309	9.45
361.519	9.35
361.728	9.2
361.937	9.57
362.146	9.35
362.355	9.06
362.564	8.68
362.774	8.52
362.983	8.61
363.192	8.52
363.401	8.3
363.61	8.16
363.819	7.95
364.028	7.74
364.237	7.51
364.446	7.81
364.655	8.01
364.864	8.21
365.073	8.23
365.282	7.74
365.491	7.75
365.7	7.74
365.909	7.63
366.118	7.89
366.327	7.94
366.536	7.98
366.745	7.74
366.954	7.46
367.162	7.53
367.371	7.48
367.58	7.95
367.789	8.15
367.998	8.15
368.207	8.17
368.415	8.08
368.624	8.4
368.833	8.31
369.042	8.43
369.25	8.5
369.459	8.36
369.668	8.35
369.877	7.99
370.085	8.02
370.294	8.18
370.503	8.5
370.711	8.78
370.92	8.79
371.129	8.69
371.337	8.8
371.546	8.93
371.754	9.01
371.963	8.9
372.171	8.87
372.38	8.77
372.589	8.54
372.797	8.34
373.006	8.39
373.214	8.22
373.423	8.32
373.631	8.68
373.84	8.7
374.048	8.42
374.256	8.42
374.465	8.41
374.673	8.22
374.882	8.14
375.09	8.27
375.298	7.93
375.507	7.77
375.715	7.62
375.923	7.38
376.132	7.36
376.34	7.59
376.548	7.55
376.757	7.71
376.965	7.77
377.173	7.96
377.381	7.76
377.59	7.84
377.798	7.92
378.006	7.98
378.214	7.64
378.423	7.45
378.631	7.33
378.839	7.39
379.047	7.31
379.255	7.27
379.463	6.89
379.671	6.61
379.879	6.69
380.088	6.67
380.296	6.68
380.504	6.92
380.712	7.14
380.92	6.94
381.128	7
381.336	7.01
381.544	7.26
381.752	7.55
381.96	7.67
382.168	7.79
382.376	7.89
382.584	8.12
382.791	8.02
382.999	8.13
383.207	8.26
383.415	8.32
383.623	8.29
383.831	8.05
384.039	7.97
384.247	8.27
384.454	8.02
384.662	7.92
384.87	7.64
385.078	7.71
385.285	7.45
385.493	7.34
385.701	7.19
385.909	7.15
386.116	7.3
386.324	7.34
386.532	7.27
386.739	7.3
386.947	7.22
387.155	7.18
387.362	7.11
387.57	7.2
387.778	7.22
387.985	7.32
388.193	7.37
388.4	7.22
388.608	7.12
388.816	7.03
389.023	7.08
389.231	7.21
389.438	7.13
389.646	7.14
389.853	7.03
390.061	7.08
390.268	6.97
390.475	6.89
390.683	6.87
390.89	6.84
391.098	6.65
391.305	6.34
391.512	6.38
391.72	6.45
391.927	6.29
392.135	6.21
392.342	6.13
392.549	6.1
392.756	6.1
392.964	5.94
393.171	5.85
393.378	5.85
393.586	6.03
393.793	5.82
394	5.85
394.207	6.03
394.414	5.97
394.622	6.01
394.829	6.1
395.036	6.16
395.243	6.36
395.45	6.48
395.657	6.69
395.864	6.91
396.072	6.79
396.279	6.86
396.486	6.61
396.693	6.67
396.9	6.48
397.107	6.39
397.314	6.25
397.521	6.24
397.728	6.2
397.935	6.09
398.142	5.66
398.349	5.79
398.556	5.54
398.763	5.7
398.97	5.8
399.177	6.06
399.383	6.01
399.59	6.16
399.797	5.98
400.004	5.87
400.211	5.82
400.418	6.04
400.625	5.95
400.831	5.97
401.038	5.83
401.245	5.53
401.452	5.42
401.658	5.41
401.865	5.2
402.072	5.26
402.279	5.3
402.485	5.23
402.692	5.21
402.899	5.18
403.105	4.98
403.312	5.02
403.519	5.17
403.725	4.95
403.932	4.98
404.138	5.07
404.345	5
404.552	4.88
404.758	5.02
404.965	4.8
405.171	4.81
405.378	5.12
405.584	5.19
405.791	5.06
405.997	5.24
406.204	5.23
406.41	5.28
406.617	5.28
406.823	5.31
407.029	4.94
407.236	5.02
407.442	5.07
407.649	4.96
407.855	4.68
408.061	4.92
408.268	4.85
408.474	4.9
408.68	4.75
408.887	4.67
409.093	4.77
409.299	5.07
409.505	5.07
409.712	5.03
409.918	5.08
410.124	5.28
410.33	5.19
410.537	5.17
410.743	5.04
410.949	5.06
411.155	5.15
411.361	5.19
411.567	5.15
411.773	5.17
411.98	5.07
412.186	4.91
412.392	4.72
412.598	4.59
412.804	4.88
413.01	5
413.216	5.03
413.422	5.01
413.628	4.83
413.834	4.83
414.04	4.94
414.246	5
414.452	5.09
414.658	5.11
414.864	5.21
415.07	5
415.275	4.83
415.481	4.85
415.687	4.81
415.893	4.91
416.099	4.74
416.305	4.68
416.511	4.69
416.716	4.66
416.922	4.72
417.128	4.65
417.334	4.62
417.539	4.68
417.745	4.68
417.951	4.7
418.157	4.66
418.362	4.79
418.568	4.84
418.774	4.74
418.979	4.78
419.185	4.79
419.391	4.77
419.596	4.76
419.802	4.71
420.008	4.65
420.213	5.25
420.419	5.24
420.624	5.16
420.83	5.1
421.035	5.19
421.241	5.22
421.446	5.1
421.652	5.11
421.857	5.09
422.063	5.07
422.268	4.96
422.474	4.34
422.679	4.31
422.885	4.33
423.09	4.29
423.295	4.2
423.501	4.01
423.706	4.05
423.911	3.98
424.117	3.93
424.322	3.9
424.527	3.96
424.733	3.89
424.938	3.9
425.143	3.84
425.349	3.9
425.554	3.9
425.759	3.91
425.964	3.98
426.169	4
426.375	4.07
426.58	4.07
426.785	4.08
426.99	4.02
427.195	4.01
427.4	4.12
427.605	4.14
427.811	4.08
428.016	4.05
428.221	3.94
428.426	3.97
428.631	4.02
428.836	3.97
429.041	4.04
429.246	4.04
429.451	3.96
429.656	3.8
429.861	3.68
430.066	3.83
430.271	3.92
430.476	3.92
430.681	3.94
430.886	3.9
431.09	3.97
431.295	3.89
431.5	3.83
431.705	3.89
431.91	3.91
432.115	3.91
432.32	3.8
432.524	3.84
432.729	3.73
432.934	3.74
433.139	3.75
433.343	3.66
433.548	3.69
433.753	3.77
433.958	3.85
434.162	3.98
434.367	3.95
434.572	3.99
434.776	3.93
434.981	3.95
435.186	3.98
435.39	3.8
435.595	3.89
435.799	3.97
436.004	4.07
436.209	3.94
436.413	3.83
436.618	3.92
436.822	3.94
437.027	3.96
437.231	4.04
437.436	4
437.64	4.15
437.845	4.13
438.049	4.06
438.253	4.03
438.458	4.03
438.662	3.92
438.867	3.85
439.071	3.74
439.275	3.83
439.48	3.84
439.684	3.79
439.888	3.77
440.093	3.79
440.297	3.75
440.501	3.63
440.706	3.63
440.91	3.75
441.114	3.72
441.318	3.77
441.523	3.66
441.727	3.55
441.931	3.51
442.135	3.52
442.339	3.47
442.543	3.47
442.748	3.4
442.952	3.39
443.156	3.31
443.36	3.37
443.564	3.37
443.768	3.33
443.972	3.49
444.176	3.55
444.38	3.49
444.584	3.49
444.788	3.5
444.992	3.58
445.196	3.61
445.4	3.65
445.604	3.6
445.808	3.61
446.012	3.69
446.216	3.61
446.42	3.57
446.624	3.47
446.828	3.46
447.032	3.4
447.235	3.41
447.439	3.37
447.643	3.29
447.847	3.3
448.051	3.28
448.254	3.21
448.458	3.2
448.662	3.18
448.866	3.31
449.069	3.29
449.273	3.38
449.477	3.38
449.681	3.43
449.884	3.5
450.088	3.56
450.292	3.57
450.495	3.48
450.699	3.38
450.902	3.4
451.106	3.4
451.31	3.47
451.513	3.41
451.717	3.28
451.92	3.22
452.124	3.11
452.327	3.04
452.531	2.99
452.734	3.03
452.938	3.11
453.141	3.09
453.345	2.97
453.548	2.82
453.752	2.88
453.955	3.04
454.158	2.96
454.362	3.01
454.565	2.94
454.769	2.91
454.972	2.98
455.175	2.88
455.379	2.85
455.582	2.84
455.785	2.98
455.988	2.94
456.192	2.83
456.395	3.01
456.598	2.96
456.801	3.04
457.005	3.08
457.208	3.07
457.411	3.01
457.614	3.08
457.817	3.14
458.021	3.01
458.224	3.07
458.427	3.08
458.63	3.08
458.833	3.17
459.036	3.12
459.239	3.16
459.442	3.12
459.645	3.12
459.848	3.17
460.051	3.13
460.254	3.24
460.457	3.14
460.66	3.16
460.863	3.01
461.066	2.93
461.269	2.95
461.472	2.91
461.675	2.91
461.878	3.11
462.081	3.09
462.284	3.13
462.486	3.15
462.689	3.13
462.892	3.22
463.095	3.26
463.298	3.25
463.5	3.31
463.703	3.36
463.906	3.37
464.109	3.33
464.311	3.33
464.514	3.35
464.717	3.23
464.92	3.25
465.122	3.14
465.325	3.16
465.528	3.28
465.73	3.3
465.933	3.33
466.135	3.33
466.338	3.28
466.541	3.2
466.743	3.25
466.946	3.25
467.148	3.31
467.351	3.31
467.553	3.36
467.756	3.31
467.958	3.18
468.161	3.09
468.363	3.1
468.566	3.15
468.768	3.22
468.971	3.27
469.173	3.27
469.375	3.17
469.578	3.22
469.78	3.19
469.983	3.17
470.185	3.3
470.387	3.41
470.59	3.5
470.792	3.45
470.994	3.33
471.196	3.22
471.399	3.32
471.601	3.53
471.803	3.53
472.005	3.61
472.208	3.6
472.41	3.45
472.612	3.4
472.814	3.26
473.016	3.26
473.218	3.34
473.421	3.36
473.623	3.41
473.825	3.39
474.027	3.37
474.229	3.34
474.431	3.37
474.633	3.49
474.835	3.49
475.037	3.6
475.239	3.64
475.441	3.68
475.643	3.75
475.845	3.68
476.047	3.56
476.249	3.6
476.451	3.57
476.653	3.54
476.855	3.61
477.057	3.6
477.258	3.63
477.46	3.65
477.662	3.55
477.864	3.49
478.066	3.55
478.268	3.59
478.469	3.51
478.671	3.54
478.873	3.56
479.075	3.46
479.276	3.4
479.478	3.34
479.68	3.25
479.882	3.32
480.083	3.32
480.285	3.31
480.487	3.31
480.688	3.34
480.89	3.36
481.091	3.38
481.293	3.46
481.495	3.5
481.696	3.47
481.898	3.51
482.099	3.46
482.301	3.5
482.502	3.5
482.704	3.47
482.905	3.48
483.107	3.47
483.308	3.45
483.51	3.38
483.711	3.36
483.913	3.34
484.114	3.35
484.315	3.37
484.517	3.31
484.718	3.27
484.92	3.31
485.121	3.28
485.322	3.32
485.524	3.34
485.725	3.37
485.926	3.4
486.127	3.43
486.329	3.37
486.53	3.38
486.731	3.4
486.932	3.39
487.134	3.36
487.335	3.4
487.536	3.37
487.737	3.33
487.938	3.35
488.139	3.36
488.341	3.32
488.542	3.34
488.743	3.37
488.944	3.36
489.145	3.4
489.346	3.44
489.547	3.45
489.748	3.43
489.949	3.43
490.15	3.46
490.351	3.48
490.552	3.53
490.753	3.55
490.954	3.55
491.155	3.57
491.356	3.63
491.557	3.62
491.758	3.62
491.959	3.7
492.159	3.75
492.36	3.75
492.561	3.75
492.762	3.8
492.963	3.85
493.164	3.84
493.364	3.87
493.565	3.92
493.766	4.01
493.967	4.05
494.167	4.06
494.368	4.08
494.569	4.09
494.769	4.11
494.97	4.11
495.171	4.14
495.371	4.18
495.572	4.08
495.773	3.98
495.973	3.9
496.174	3.89
496.375	3.86
496.575	3.87
496.776	3.89
496.976	3.82
497.177	3.78
497.377	3.73
497.578	3.73
497.778	3.78
497.979	3.76
498.179	3.87
498.38	3.79
498.58	3.76
498.78	3.78
498.981	3.82
499.181	3.91
499.382	3.97
499.582	4.04
499.782	4.06
499.983	4.13
500.183	4.22
500.383	4.27
500.584	4.42
500.784	4.49
500.984	4.42
501.184	4.34
501.385	4.4
501.585	4.46
501.785	4.5
501.985	4.47
502.185	4.52
502.386	4.54
502.586	4.51
502.786	4.5
502.986	4.55
503.186	4.69
503.386	4.76
503.586	4.72
503.786	4.76
503.987	4.69
504.187	4.71
504.387	4.73
504.587	4.72
504.787	4.74
504.987	4.73
505.187	4.79
505.387	4.77
505.587	4.78
505.786	4.83
505.986	4.81
506.186	4.86
506.386	4.94
506.586	5.02
506.786	5.16
506.986	5.18
507.186	5.24
507.386	5.17
507.585	5.15
507.785	5.18
507.985	5.23
508.185	5.17
508.384	5.21
508.584	5.21
508.784	5.21
508.984	5.14
509.183	5.17
509.383	5.2
509.583	5.23
509.782	5.34
509.982	5.4
510.182	5.42
510.381	5.53
510.581	5.53
510.781	5.59
510.98	5.62
511.18	5.73
511.379	5.8
511.579	5.82
511.778	5.9
511.978	5.91
512.177	5.95
512.377	6.05
512.576	6.11
512.776	6.23
512.975	6.29
513.175	6.36
513.374	6.29
513.573	6.26
513.773	6.31
513.972	6.32
514.172	6.35
514.371	6.45
514.57	6.45
514.77	6.46
514.969	6.5
515.168	6.57
515.367	6.69
515.567	6.8
515.766	6.94
515.965	7.04
516.164	7.05
516.364	7.12
516.563	7.18
516.762	7.22
516.961	7.26
517.16	7.22
517.359	7.22
517.559	7.17
517.758	7.2
517.957	7.16
518.156	7.11
518.355	7.2
518.554	7.17
518.753	7.11
518.952	7.11
519.151	7.16
519.35	7.21
519.549	7.23
519.748	7.26
519.947	7.26
520.146	7.39
520.345	7.37
520.544	7.38
520.743	7.55
520.942	7.63
521.141	7.65
521.339	7.68
521.538	7.81
521.737	7.88
521.936	7.92
522.135	7.99
522.333	8
522.532	8.18
522.731	8.25
522.93	8.26
523.129	8.34
523.327	8.39
523.526	8.39
523.725	8.37
523.923	8.41
524.122	8.49
524.321	8.52
524.519	8.52
524.718	8.56
524.917	8.6
525.115	8.64
525.314	8.67
525.512	8.82
525.711	8.92
525.909	9.05
526.108	9.08
526.306	9.1
526.505	9.14
526.703	9.16
526.902	9.15
527.1	9.15
527.299	9.13
527.497	9.06
527.696	8.98
527.894	8.9
528.092	8.81
528.291	8.78
528.489	8.74
528.688	8.66
528.886	8.64
529.084	8.56
529.283	8.54
529.481	8.53
529.679	8.6
529.877	8.69
530.076	8.88
530.274	8.98
530.472	9.13
530.67	9.23
530.869	9.39
531.067	9.49
531.265	9.67
531.463	9.71
531.661	9.78
531.859	9.76
532.057	9.73
532.255	9.65
532.454	9.6
532.652	9.52
532.85	9.51
533.048	9.46
533.246	9.46
533.444	9.41
533.642	9.44
533.84	9.41
534.038	9.48
534.236	9.52
534.434	9.61
534.632	9.72
534.83	9.77
535.027	9.84
535.225	9.86
535.423	9.81
535.621	9.85
535.819	9.83
536.017	9.91
536.215	9.91
536.412	9.93
536.61	9.94
536.808	9.92
537.006	9.99
537.203	9.98
537.401	10.07
537.599	10.2
537.797	10.27
537.994	10.38
538.192	10.52
538.39	10.66
538.587	10.7
538.785	10.78
538.983	10.94
539.18	11.05
539.378	11.1
539.575	11.11
539.773	11.18
539.97	11.16
540.168	11.18
540.366	11.11
540.563	11.07
540.761	11.08
540.958	11.08
541.155	11.03
541.353	10.95
541.55	10.99
541.748	11
541.945	10.95
542.143	11
542.34	10.98
542.537	11.04
542.735	11.04
542.932	11.12
543.129	11.19
543.327	11.25
543.524	11.35
543.721	11.33
543.919	11.51
544.116	11.59
544.313	11.65
544.51	11.75
544.708	11.83
544.905	12.05
545.102	12.16
545.299	12.17
545.496	12.22
545.693	12.27
545.891	12.27
546.088	12.14
546.285	12.17
546.482	12.22
546.679	12.21
546.876	12.26
547.073	12.16
547.27	12.03
547.467	12.06
547.664	12.12
547.861	12.16
548.058	12.31
548.255	12.39
548.452	12.51
548.649	12.58
548.846	12.65
549.043	12.57
549.24	12.7
549.437	12.86
549.633	13
549.83	13.06
550.027	13.15
550.224	13.2
550.421	13.4
550.618	13.49
550.814	13.55
551.011	13.67
551.208	13.88
551.405	13.86
551.601	13.97
551.798	14.07
551.995	14.12
552.191	14.18
552.388	14.23
552.585	14.23
552.781	14.25
552.978	14.28
553.175	14.29
553.371	14.2
553.568	14.36
553.764	14.43
553.961	14.38
554.157	14.46
554.354	14.64
554.55	14.8
554.747	14.89
554.943	14.89
555.14	14.92
555.336	15.11
555.533	15.28
555.729	15.31
555.926	15.31
556.122	15.38
556.318	15.48
556.515	15.43
556.711	15.46
556.907	15.62
557.104	15.85
557.3	15.97
557.496	16.01
557.693	16.13
557.889	16.26
558.085	16.41
558.281	16.58
558.478	16.65
558.674	16.72
558.87	16.86
559.066	16.82
559.262	16.75
559.459	16.85
559.655	16.85
559.851	16.87
560.047	16.96
560.243	16.96
560.439	17.03
560.635	17.07
560.831	17.1
561.027	17.2
561.223	17.24
561.419	17.42
561.615	17.43
561.811	17.63
562.007	17.8
562.203	17.75
562.399	17.8
562.595	17.82
562.791	17.82
562.987	18.01
563.183	18.11
563.379	18.35
563.575	18.51
563.771	18.7
563.966	18.7
564.162	18.78
564.358	18.92
564.554	19.08
564.75	19.17
564.945	19.32
565.141	19.43
565.337	19.4
565.533	19.48
565.728	19.43
565.924	19.48
566.12	19.56
566.315	19.58
566.511	19.63
566.707	19.63
566.902	19.79
567.098	19.87
567.293	19.89
567.489	20.03
567.684	20
567.88	20.07
568.076	20.15
568.271	20.18
568.467	20.24
568.662	20.23
568.858	20.4
569.053	20.38
569.248	20.41
569.444	20.47
569.639	20.56
569.835	20.61
570.03	20.73
570.225	20.79
570.421	20.86
570.616	20.96
570.812	21.18
571.007	21.16
571.202	21.23
571.397	21.28
571.593	21.36
571.788	21.42
571.983	21.48
572.178	21.47
572.374	21.55
572.569	21.63
572.764	21.66
572.959	21.71
573.154	21.83
573.35	21.95
573.545	22.13
573.74	22.14
573.935	22.13
574.13	22.24
574.325	22.37
574.52	22.34
574.715	22.48
574.91	22.63
575.105	22.64
575.3	22.71
575.495	22.74
575.69	22.72
575.885	22.88
576.08	23.05
576.275	23.08
576.47	23.21
576.665	23.38
576.86	23.31
577.055	23.28
577.25	23.22
577.444	23.38
577.639	23.43
577.834	23.51
578.029	23.48
578.224	23.52
578.418	23.65
578.613	23.58
578.808	23.51
579.003	23.68
579.197	23.78
579.392	23.91
579.587	23.87
579.781	23.89
579.976	23.88
580.171	23.94
580.365	23.84
580.56	23.86
580.755	23.85
580.949	23.94
581.144	23.96
581.338	23.97
581.533	24.08
581.727	23.97
581.922	23.84
582.116	23.92
582.311	23.97
582.505	24.14
582.7	24.23
582.894	24.35
583.089	24.37
583.283	24.45
583.478	24.49
583.672	24.43
583.866	24.57
584.061	24.76
584.255	24.85
584.449	24.87
584.644	24.96
584.838	24.98
585.032	25.11
585.226	25.23
585.421	25.19
585.615	25.26
585.809	25.4
586.003	25.52
586.198	25.65
586.392	25.78
586.586	25.68
586.78	25.59
586.974	25.59
587.168	25.5
587.363	25.54
587.557	25.57
587.751	25.54
587.945	25.59
588.139	25.61
588.333	25.55
588.527	25.5
588.721	25.58
588.915	25.71
589.109	25.8
589.303	25.86
589.497	25.86
589.691	25.88
589.885	25.99
590.079	26.01
590.273	25.93
590.466	25.91
590.66	25.98
590.854	26.18
591.048	26.18
591.242	26.1
591.436	26.2
591.629	26.23
591.823	26.33
592.017	26.35
592.211	26.42
592.404	26.45
592.598	26.55
592.792	26.37
592.986	26.28
593.179	26.39
593.373	26.52
593.567	26.58
593.76	26.74
593.954	26.85
594.147	26.93
594.341	27.02
594.535	27.21
594.728	27.28
594.922	27.44
595.115	27.57
595.309	27.43
595.502	27.38
595.696	27.38
595.889	27.22
596.083	27.18
596.276	27.13
596.47	27.06
596.663	26.93
596.856	26.93
597.05	26.97
597.243	26.94
597.437	27.07
597.63	27.2
597.823	27.03
598.017	27.08
598.21	27.08
598.403	27.13
598.596	27.28
598.79	27.52
598.983	27.45
599.176	27.46
599.369	27.52
599.563	27.45
599.756	27.47
599.949	27.68
600.142	27.8
600.335	28
600.528	28.08
600.722	28
600.915	28.07
601.108	28.26
601.301	28.37
601.494	28.41
601.687	28.49
601.88	28.48
602.073	28.5
602.266	28.54
602.459	28.46
602.652	28.54
602.845	28.53
603.038	28.38
603.231	28.3
603.424	28.28
603.617	28.13
603.809	28.22
604.002	28.12
604.195	28.11
604.388	28.03
604.581	28.09
604.774	27.93
604.966	27.98
605.159	27.99
605.352	27.99
605.545	27.97
605.737	28.07
605.93	28.04
606.123	28.12
606.316	28.23
606.508	28.46
606.701	28.35
606.894	28.46
607.086	28.57
607.279	28.68
607.471	28.74
607.664	28.77
607.857	28.85
608.049	28.83
608.242	28.9
608.434	28.87
608.627	28.73
608.819	28.72
609.012	28.58
609.204	28.66
609.397	28.77
609.589	28.72
609.782	28.77
609.974	28.67
610.166	28.63
610.359	28.66
610.551	28.61
610.743	28.6
610.936	28.7
611.128	28.88
611.32	28.54
611.513	28.39
611.705	28.51
611.897	28.44
612.09	28.52
612.282	28.44
612.474	28.48
612.666	28.45
612.858	28.44
613.051	28.5
613.243	28.6
613.435	28.85
613.627	28.75
613.819	28.77
614.011	28.82
614.203	28.9
614.395	29.03
614.588	28.92
614.78	29.06
614.972	29.1
615.164	28.87
615.356	28.84
615.548	28.74
615.74	28.84
615.932	28.85
616.124	28.77
616.315	28.7
616.507	28.72
616.699	28.8
616.891	28.78
617.083	28.93
617.275	29.31
617.467	29.31
617.659	29.34
617.85	29.39
618.042	29.3
618.234	29.34
618.426	29.47
618.618	29.36
618.809	29.29
619.001	29.36
619.193	29.28
619.384	29.06
619.576	28.93
619.768	28.81
619.959	28.88
620.151	28.96
620.343	29.05
620.534	28.92
620.726	29.15
620.917	29.2
621.109	29.32
621.301	29.32
621.492	29.32
621.684	29.43
621.875	29.55
622.067	29.31
622.258	29.31
622.45	29.2
622.641	29.32
622.832	29.32
623.024	29.44
623.215	29.31
623.407	29.39
623.598	29.49
623.789	29.51
623.981	29.59
624.172	29.94
624.363	30.08
624.555	30.06
624.746	30.06
624.937	29.94
625.129	30
625.32	29.94
625.511	29.81
625.702	29.82
625.893	29.89
626.085	29.94
626.276	29.78
626.467	29.7
626.658	29.77
626.849	29.91
627.04	29.82
627.231	29.58
627.422	29.58
627.614	29.77
627.805	29.7
627.996	29.65
628.187	29.66
628.378	29.68
628.569	29.61
628.76	29.61
628.951	29.4
629.142	29.52
629.332	29.64
629.523	29.67
629.714	29.7
629.905	29.68
630.096	29.82
630.287	29.85
630.478	29.76
630.669	29.77
630.859	29.96
631.05	29.93
631.241	30.01
631.432	30.14
631.623	30.2
631.813	30.13
632.004	30.14
632.195	29.99
632.385	29.72
632.576	29.86
632.767	30.01
632.957	29.72
633.148	29.6
633.339	29.56
633.529	29.56
633.72	29.5
633.91	29.38
634.101	29.38
634.292	29.35
634.482	29.43
634.673	29.41
634.863	29.24
635.054	29.41
635.244	29.62
635.435	29.63
635.625	29.61
635.815	29.72
636.006	29.87
636.196	29.99
636.387	29.9
636.577	29.97
636.767	29.83
636.958	30.03
637.148	30.1
637.338	30.19
637.529	30.17
637.719	30.03
637.909	30.13
638.099	29.98
638.29	29.86
638.48	30.01
638.67	29.96
638.86	30.17
639.05	30.01
639.241	29.84
639.431	29.7
639.621	29.66
639.811	29.69
640.001	29.48
640.191	29.84
640.381	29.84
640.571	29.85
640.761	30.02
640.951	29.97
641.141	30.03
641.331	30.05
641.521	30.14
641.711	30.33
641.901	30.42
642.091	30.38
642.281	29.96
642.471	30.19
642.661	30.22
642.851	30.22
643.041	30.19
643.231	30.3
643.42	30.14
643.61	30.12
643.8	29.86
643.99	29.77
644.18	29.89
644.369	29.9
644.559	29.86
644.749	29.88
644.939	29.57
645.128	29.49
645.318	29.69
645.508	29.78
645.697	29.58
645.887	29.94
646.076	30.05
646.266	30.09
646.456	30.24
646.645	30.02
646.835	30.12
647.024	30.38
647.214	30.58
647.403	30.15
647.593	30.37
647.782	30.56
647.972	30.57
648.161	30.34
648.351	30.33
648.54	30.46
648.73	30.56
648.919	30.67
649.108	30.65
649.298	30.75
649.487	31.12
649.677	30.98
649.866	31.1
650.055	30.94
650.244	31.07
650.434	31.24
650.623	31.15
650.812	31.2
651.002	30.98
651.191	31.18
651.38	31.33
651.569	31.37
651.758	31.34
651.947	31.28
652.137	31.34
652.326	31.31
652.515	31.21
652.704	31
652.893	31.07
653.082	31.06
653.271	30.77
653.46	30.56
653.649	30.49
653.838	30.55
654.027	30.46
654.216	30.4
654.405	30.59
654.594	30.48
654.783	30.72
654.972	30.76
655.161	30.66
655.35	31
655.539	31.14
655.728	31.06
655.916	31.11
656.105	31.08
656.294	31.18
656.483	31.18
656.672	31.28
656.86	31.37
657.049	31.36
657.238	31.45
657.427	31.27
657.615	31.13
657.804	30.99
657.993	31
658.181	31.01
658.37	31.01
658.559	30.92
658.747	30.99
658.936	30.79
659.125	30.34
659.313	30.27
659.502	30.1
659.69	30.04
659.879	29.99
660.067	30.02
660.256	30.23
660.444	30.16
660.633	30.34
660.821	30.18
661.01	30.28
661.198	30.7
661.387	30.76
661.575	30.91
661.763	30.98
661.952	30.94
662.14	31.04
662.328	30.87
662.517	30.68
662.705	30.33
662.893	30.5
663.082	30.66
663.27	30.64
663.458	30.65
663.646	30.59
663.834	30.45
664.023	30.65
664.211	30.64
664.399	30.63
664.587	30.68
664.775	30.78
664.963	30.57
665.152	30.43
665.34	30.52
665.528	30.7
665.716	30.71
665.904	30.76
666.092	30.63
666.28	30.35
666.468	30.2
666.656	30.27
666.844	30.51
667.032	30.54
667.22	30.75
667.408	30.65
667.596	30.59
667.784	30.62
667.971	30.66
668.159	30.84
668.347	30.98
668.535	31.16
668.723	31.18
668.911	31.1
669.098	31.05
669.286	30.91
669.474	31.01
669.662	30.87
669.849	30.93
670.037	30.7
670.225	30.46
670.413	30.49
670.6	30.46
670.788	30.44
670.976	30.36
671.163	30.56
671.351	30.51
671.538	30.43
671.726	30.4
671.913	30.36
672.101	30.63
672.289	30.68
672.476	30.54
672.664	30.71
672.851	30.51
673.039	30.43
673.226	30.32
673.413	30.36
673.601	30.63
673.788	30.89
673.976	30.88
674.163	30.54
674.35	30.48
674.538	30.35
674.725	30.07
674.912	30.39
675.1	30.55
675.287	30.63
675.474	30.77
675.662	30.47
675.849	30.37
676.036	30.8
676.223	30.77
676.411	30.87
676.598	30.8
676.785	30.73
676.972	30.67
677.159	30.76
677.346	30.49
677.533	30.45
677.721	30.64
677.908	30.64
678.095	30.38
678.282	30.66
678.469	30.95
678.656	31.34
678.843	31.6
679.03	31.78
679.217	31.57
679.404	31.76
679.591	31.85
679.778	31.72
679.964	31.47
680.151	31.38
680.338	31.5
680.525	31.44
680.712	31.22
680.899	31.22
681.086	31.16
681.272	31.47
681.459	31.64
681.646	31.62
681.833	31.79
682.02	32.07
682.206	32.27
682.393	32.09
682.58	31.76
682.766	31.78
682.953	31.73
683.14	31.63
683.326	31.12
683.513	31.11
683.7	30.75
683.886	30.64
684.073	30.64
684.259	30.41
684.446	30.71
684.632	31.11
684.819	31.17
685.005	31.2
685.192	31.02
685.378	31.12
685.565	30.63
685.751	30.67
685.938	30.6
686.124	30.41
686.31	30.34
686.497	30.09
686.683	29.58
686.87	29.54
687.056	29.57
687.242	29.64
687.429	29.77
687.615	29.92
687.801	30.03
687.987	30.02
688.174	29.93
688.36	30.19
688.546	30.31
688.732	30.65
688.918	30.74
689.105	30.53
689.291	30.61
689.477	30.65
689.663	30.74
689.849	30.88
690.035	30.73
690.221	30.91
690.407	30.8
690.593	30.5
690.779	30.06
690.965	30.04
691.151	30.22
691.337	29.86
691.523	30.07
691.709	30.1
691.895	30.33
692.081	30.41
692.267	30.61
692.453	30.58
692.639	30.79
692.825	31.34
693.011	31.22
693.196	31.38
693.382	31.64
693.568	31.49
693.754	31.65
693.94	31.38
694.125	31.45
694.311	31.06
694.497	31.03
694.682	30.75
694.868	30.42
695.054	30.67
695.239	30.36
695.425	30.72
695.611	30.32
695.796	30.51
695.982	30.38
696.168	30.66
696.353	31.14
696.539	31.23
696.724	31.43
696.91	31.61
697.095	31.43
697.281	31.27
697.466	31.1
697.652	31.29
697.837	30.99
698.023	31.17
698.208	31.26
698.393	31.07
698.579	31.17
698.764	31.17
698.949	31.1
699.135	31.06
699.32	30.97
699.505	31.19
699.691	31.22
699.876	31.27
700.061	31.23
700.246	30.78
700.432	30.95
700.617	30.81
700.802	30.67
700.987	30.91
701.172	30.9
701.358	30.9
701.543	30.92
701.728	30.83
701.913	30.98
702.098	30.82
702.283	31.1
702.468	31.16
702.653	30.87
702.838	31.02
703.023	30.77
703.208	31.01
703.393	31.51
703.578	31.02
703.763	31
703.948	30.97
704.133	31.15
704.318	31.18
704.503	30.85
704.688	31.33
704.873	31.68
705.057	31.88
705.242	31.8
705.427	31.91
705.612	32.17
705.797	31.7
705.981	31.41
706.166	31.29
706.351	31.31
706.536	31.34
706.72	31.06
706.905	30.8
707.09	30.99
707.274	31.17
707.459	30.98
707.644	30.85
707.828	31.5
708.013	32.01
708.197	31.95
708.382	31.73
708.567	31.82
708.751	32.12
708.936	32.29
709.12	32.12
709.305	31.95
709.489	31.8
709.673	31.82
709.858	31.52
710.042	31.39
710.227	31.52
710.411	31.59
710.596	31.53
710.78	31.51
710.964	31.36
711.149	31.09
711.333	30.96
711.517	31.14
711.702	31.15
711.886	31.34
712.07	31.08
712.254	31.11
712.438	31
712.623	31.02
712.807	30.62
712.991	30.52
713.175	30.78
713.359	30.84
713.544	30.87
713.728	30.91
713.912	30.96
714.096	31.14
714.28	30.96
714.464	30.98
714.648	30.83
714.832	30.93
715.016	30.54
715.2	30.25
715.384	30.2
715.568	30.3
715.752	30.36
715.936	30.41
716.12	30.13
716.304	30.23
716.488	30.41
716.671	30.32
716.855	30.57
717.039	31.09
717.223	31.17
717.407	31.19
717.59	31.02
717.774	30.72
717.958	31.17
718.142	31.02
718.325	30.69
718.509	30.25
718.693	30.48
718.877	29.87
719.06	29.62
719.244	29.87
719.428	30.21
719.611	30.07
719.795	30.34
719.978	29.89
720.162	30.07
720.345	30.5
720.529	30.9
720.713	30.9
720.896	31.07
721.08	30.91
721.263	31.18
721.446	30.95
721.63	30.91
721.813	30.89
721.997	30.58
722.18	30.53
722.364	30.29
722.547	30.27
722.73	30.2
722.914	30.07
723.097	30.27
723.28	30.12
723.464	30.16
723.647	30.36
723.83	30.54
724.013	30.89
724.197	30.96
724.38	30.92
724.563	30.7
724.746	30.77
724.929	31.52
725.112	31.89
725.296	31.72
725.479	31.18
725.662	30.92
725.845	30.46
726.028	30.33
726.211	30.63
726.394	30.74
726.577	30.69
726.76	30.32
726.943	29.75
727.126	29.69
727.309	29.59
727.492	29.93
727.675	30.18
727.858	30.36
728.041	30.1
728.224	29.84
728.407	29.89
728.589	30.14
728.772	30.55
728.955	30.56
729.138	30.07
729.321	30.17
729.503	30.17
729.686	30.08
729.869	30.51
730.052	30.88
730.234	30.62
730.417	30.33
730.6	30.68
730.782	30.28
730.965	30.35
731.148	30.61
731.33	30.6
731.513	30.74
731.695	30.98
731.878	30.28
732.061	29.98
732.243	30.17
732.426	30.58
732.608	30.13
732.791	30.36
732.973	30.59
733.156	30.55
733.338	30.59
733.52	30.32
733.703	29.96
733.885	30.24
734.068	30.41
734.25	30.63
734.432	30.17
734.615	30.1
734.797	30.15
734.979	30.1
735.162	30.17
735.344	29.86
735.526	30.13
735.708	29.89
735.891	30.03
736.073	29.65
736.255	28.98
736.437	29.16
736.619	29.55
736.802	29.4
736.984	29.15
737.166	29.4
737.348	29.44
737.53	29.13
737.712	29.44
737.894	29.05
738.076	29.07
738.258	29.92
738.44	29.96
738.622	29.52
738.804	29.62
738.986	29.65
739.168	29.47
739.35	29.9
739.532	29.74
739.714	29.6
739.896	29.76
740.078	29.93
740.259	29.85
740.441	29.58
740.623	29.66
740.805	29.99
740.987	29.9
741.168	29.94
741.35	29.03
741.532	29.05
741.714	29.13
741.895	29.62
742.077	29.36
742.259	29.23
742.44	29.23
742.622	30.04
742.804	29.42
742.985	30.03
743.167	30.26
743.348	30.5
743.53	31.24
743.711	30.93
743.893	30.51
744.075	31
744.256	31.43
744.438	31.63
744.619	30.73
744.8	31.2
744.982	30.1
745.163	29.81
745.345	30.22
745.526	29.43
745.707	29.51
745.889	29.21
746.07	29.69
746.252	29.83
746.433	30.1
746.614	30.23
746.795	30.49
746.977	30.75
747.158	30.81
747.339	31.22
747.52	31.63
747.702	32.16
747.883	32.28
748.064	31.64
748.245	30.78
748.426	30.69
748.607	30.52
748.788	30.21
748.97	30.45
749.151	29.79
749.332	28.93
749.513	29.23
749.694	29.02
749.875	29.18
750.056	29.37
750.237	29.67
750.418	29.56
750.599	29.87
750.78	29.41
750.96	29.51
751.141	30.38
751.322	31.61
751.503	31.1
751.684	31.18
751.865	30.99
752.046	31.1
752.226	30.86
752.407	31.09
752.588	30.96
752.769	31.43
752.949	31.61
753.13	30.68
753.311	30.06
753.492	30.88
753.672	30.98
753.853	30.73
754.034	30.61
754.214	30.54
754.395	30.04
754.575	29.37
754.756	28.77
754.937	28.28
755.117	28.83
755.298	28.85
755.478	27.97
755.659	27.48
755.839	27.77
756.02	27.23
756.2	26.97
756.381	27.25
756.561	28.29
756.741	28.61
756.922	28.95
757.102	29.09
757.283	28.53
757.463	28.92
757.643	29.76
757.823	29.74
758.004	30.2
758.184	30.42
758.364	29.81
758.545	29.54
758.725	29.77
758.905	29.93
759.085	29.95
759.265	30.12
759.446	30.36
759.626	29.97
759.806	30.29
759.986	30.12
760.166	30.05
760.346	30.6
760.526	30.15
760.706	30.56
760.886	30.71
761.066	30.3
761.246	30.09
761.426	29.8
761.606	29.63
761.786	29.46
761.966	29.24
762.146	29.76
762.326	29.71
762.506	29.8
762.686	29.38
762.866	29
763.046	28.99
763.225	28.88
763.405	28.98
763.585	29.3
763.765	29
763.945	29.26
764.124	28.95
764.304	29.13
764.484	29.45
764.664	29.67
764.843	29.96
765.023	30.41
765.203	30.67
765.382	29.98
765.562	30.01
765.741	30.44
765.921	30.38
766.101	30.2
766.28	30.07
766.46	30.16
766.639	29.88
766.819	29.55
766.998	29.45
767.178	29.79
767.357	30.63
767.537	30.34
767.716	30.3
767.896	30.11
768.075	30.55
768.254	30.87
768.434	30.4
768.613	29.78
768.792	30.12
768.972	29.96
769.151	30.23
769.33	30.59
769.51	30.83
769.689	30.94
769.868	31.43
770.047	31.12
770.226	30.52
770.406	30.51
770.585	31.77
770.764	32.24
770.943	32.19
771.122	31.25
771.301	30.72
771.48	30.24
771.66	29.61
771.839	29.78
772.018	30
772.197	30.48
772.376	30.07
772.555	29.12
772.734	28.68
772.913	28.84
773.092	28.51
773.271	28.74
773.449	29.19
773.628	29.77
773.807	29.34
773.986	29.69
774.165	30.3
774.344	31.12
774.523	31.73
774.701	31.78
774.88	31.96
775.059	32.26
775.238	31.2
775.417	30.53
775.595	30.1
775.774	29.46
775.953	28.24
776.131	27.14
776.31	26.7
776.489	26.22
776.667	26.1
776.846	25.43
777.025	26.23
777.203	26.45
777.382	27.04
777.56	27.1
777.739	27.34
777.917	28.65
778.096	28.96
778.274	29.38
778.453	29.83
778.631	28.61
778.81	28.82
778.988	28.29
779.166	28.79
779.345	28.9
779.523	29.51
779.702	30.48
779.88	30.47
780.058	30.64
780.237	30.34
780.415	29.78
780.593	30.66
780.771	30.69
780.95	31.43
781.128	31.57
781.306	30.4
781.484	30.98
781.662	30.05
781.841	29.85
782.019	29.45
782.197	29.38
782.375	29.63
782.553	29.95
782.731	29.49
782.909	28.8
783.087	28.98
783.265	30.75
783.443	29.91
783.621	29.89
783.799	29.42
783.977	28.98
784.155	29.36
784.333	30.37
784.511	30.45
784.689	31.4
784.867	31.69
785.045	30.53
785.223	29.76
785.4	30.1
785.578	29.98
785.756	30.27
785.934	31.05
786.112	30.23
786.289	29.09
786.467	28.02
786.645	27.2
786.823	26.85
787	27.25
787.178	26.1
787.356	25.83
787.533	26.5
787.711	26.71
787.889	26.68
788.066	27.49
788.244	27.36
788.421	27.68
788.599	27.59
788.776	27.49
788.954	27.7
789.131	29.11
789.309	29.64
789.486	29.69
789.664	29.54
789.841	29.31
790.019	28.66
790.196	28.82
790.373	30.02
790.551	29.72
790.728	30.47
790.906	30.48
791.083	30.59
791.26	30.28
791.437	29.81
791.615	29.19
791.792	28.59
791.969	29.06
792.146	29.36
792.324	27.49
792.501	28.87
792.678	28.51
792.855	28.7
793.032	27.92
793.209	28.47
793.387	28.59
793.564	29.16
793.741	30.27
793.918	29.95
794.095	30.42
794.272	31.72
794.449	30.54
794.626	31.06
794.803	30.65
794.98	30.81
795.157	30.04
795.334	29.52
795.511	29.92
795.688	28.96
795.864	28.47
796.041	27.83
796.218	28.04
796.395	29.17
796.572	28.29
796.749	29.18
796.925	29.88
797.102	30.03
797.279	30.72
797.456	29.86
797.632	31.2
797.809	32.2
797.986	32.49
798.162	32.5
798.339	31.21
798.516	31.84
798.692	32.1
798.869	30.66
799.046	30.52
799.222	31
799.399	31.43
799.575	30.46
799.752	29.94
799.928	29.24
800.105	29.65
800.281	30.73
800.458	29.8
800.634	30.03
800.811	31.33
800.987	31.55
801.163	31.11
801.34	31.01
801.516	31.85
801.692	31.82
801.869	32.77
802.045	32.04
802.221	31.33
802.398	31.51
802.574	30.52
802.75	30.03
802.926	29.67
803.103	28.29
803.279	28.76
803.455	28.66
803.631	28.75
803.807	28.49
803.983	28.45
804.16	29.76
804.336	30.32
804.512	30.03
804.688	30.66
804.864	30.18
805.04	31.21
805.216	31.13
805.392	30.41
805.568	30.28
805.744	29.83
805.92	29.25
806.096	28.7
806.272	28.99
806.448	27.99
806.623	27.32
806.799	28.3
806.975	27.54
807.151	26.72
807.327	26.01
807.503	26.93
807.678	27.31
807.854	26.52
808.03	26.67
808.206	25.28
808.381	26.51
808.557	26.75
808.733	26.17
808.908	27.32
809.084	26.26
809.26	25.85
809.435	23.69
809.611	24.29
809.787	25.23
809.962	25.12
810.138	26.71
810.313	27.6
810.489	28.06
810.664	27.74
810.84	27.82
811.015	28.57
811.191	29.18
811.366	31.43
811.542	31.72
811.717	31.6
811.892	31.66
812.068	31.62
812.243	30.47
812.419	30.96
812.594	32.08
812.769	32.19
812.944	33.46
813.12	34.39
813.295	33.47
813.47	33
813.645	33.37
813.821	31.74
813.996	30.96
814.171	32.43
814.346	31.12
814.521	30.78
814.697	30.56
814.872	30.77
815.047	30.68
815.222	29.4
815.397	28.42
815.572	28.17
815.747	30.07
815.922	30.28
816.097	28.44
816.272	28.17
816.447	27.24
816.622	27.69
816.797	27.28
816.972	27.06
817.147	28.18
817.322	29.04
817.496	29.58
817.671	29.08
817.846	28.86
818.021	29.29
818.196	28.65
818.371	30.11
818.545	29.03
818.72	28.38
818.895	27.73
819.069	27.6
819.244	27.59
819.419	27.72
819.594	27.81
819.768	28.16
819.943	28.14
820.117	27.94
820.292	27.57
820.467	27.76
820.641	27.68
820.816	28.28
820.99	28.45
821.165	28.34
821.339	28.4
821.514	28.26
821.688	28.08
821.863	28.32
822.037	28.41
822.212	28.25
822.386	28.19
822.56	28.41
822.735	28.07
822.909	27.93
823.084	27.98
823.258	27.85
823.432	27.79
823.606	27.61
823.781	27.39
823.955	27.47
824.129	27.7
824.303	27.9
824.478	27.45
824.652	27.73
824.826	28.13
825	27.86
825.174	27.67
825.348	27.86
825.523	28.17
825.697	28.52
825.871	29.01
826.045	28.81
826.219	28.61
826.393	29.42
826.567	29.44
826.741	29.09
826.915	29.39
827.089	29.48
827.263	29.64
827.437	29.29
827.611	28.71
827.784	28.14
827.958	27.63
828.132	27.51
828.306	26.97
828.48	26.91
828.654	27
828.827	26.35
829.001	25.84
829.175	24.65
829.349	25.69
829.522	25.77
829.696	25.44
829.87	25.45
830.044	25.22
830.217	24.74
830.391	25.12
830.565	24.58
830.738	25.77
830.912	26.08
831.085	26.43
831.259	25.02
831.432	25
831.606	25.01
831.779	25.66
831.953	25.23
832.126	25.36
832.3	24.97
832.473	24.64
832.647	24.81
832.82	26.17
832.994	25.78
833.167	25.95
833.34	26
833.514	26.44
833.687	25.93
833.86	26.6
834.034	27.37
834.207	27.74
834.38	27.78
834.553	27.32
834.727	26.66
834.9	28.06
835.073	27.99
835.246	28.61
835.419	28.66
835.593	29.29
835.766	28.84
835.939	27.65
836.112	27.58
836.285	27.73
836.458	28
836.631	27.17
836.804	25.94
836.977	26.39
837.15	26.03
837.323	27.32
837.496	26.56
837.669	27.93
837.842	28.46
838.015	27.19
838.188	27.33
838.361	26.77
838.533	28.96
838.706	29.81
838.879	30.37
839.052	29.56
839.225	28.05
839.398	30.15
839.57	28.6
839.743	28.27
839.916	28.08
840.088	29.14
840.261	29.15
840.434	28.96
840.607	28.36
840.779	27.83
840.952	27.8
841.124	27.55
841.297	24.64
841.47	25.19
841.642	27.09
841.815	27.35
841.987	25.9
842.16	26.67
842.332	23.72
842.505	23.06
842.677	21.25
842.85	22.92
843.022	25.34
843.194	28.72
843.367	29.79
843.539	27.54
843.712	27.64
843.884	27.48
844.056	28.21
844.229	29.78
844.401	29.89
844.573	35.07
844.745	31.41
844.918	28.15
845.09	25.84
845.262	26.7
845.434	31.3
845.606	30.45
845.779	30.12
845.951	27.91
846.123	27.3
846.295	27.88
846.467	26.78
846.639	27.9
846.811	29.49
846.983	29.25
847.155	25.54
847.327	21.73
847.499	23.31
847.671	24.71
847.843	22.62
848.015	22.93
848.187	21.94
848.359	17.58
848.531	16.81
848.703	13.87
848.875	14.15
849.047	15.22
849.218	15.08
849.39	15.28
849.562	14.67
849.734	14.86
849.905	15.12
850.077	18.13
850.249	14.89
850.421	17.86
850.592	19.85
850.764	21.91
850.936	21.77
851.107	25.11
851.279	24.79
851.451	30.28
851.622	30.75
851.794	30.48
851.965	31.49
852.137	35.5
852.308	34.91
852.48	32.83
852.651	29.3
852.823	32.96
852.994	29.9
853.166	29.52
853.337	29.8
853.509	31.82
853.68	32.31
853.851	35.19
854.023	35.35
854.194	30.23
854.365	32.68
854.537	35.84
854.708	33.04
854.879	33.27
855.05	32.02
855.222	23.14
855.393	25.05
855.564	22.77
855.735	12.88
855.906	13.19
856.078	17.54
856.249	18.19
856.42	17.51
856.591	22.96
856.762	20.92
856.933	20.34
857.104	23.13
857.275	23.59
857.446	24.42
857.617	26.06
857.788	25.03
857.959	24.54
858.13	22.96
858.301	25.57
858.472	23.3
858.643	24.8
858.814	25.73
858.985	27.56
859.155	24.77
859.326	26.32
859.497	26.87
859.668	31.06
859.839	35.04
860.009	34.47
860.18	31.95
860.351	33.04
860.522	32.87
860.692	36.44
860.863	35.25
861.034	36.79
861.204	33.53
861.375	31.83
861.546	29.61
861.716	25.88
861.887	27.64
862.057	25.8
862.228	22.78
862.398	20.35
862.569	16.05
862.739	18.11
862.91	15.45
863.08	18.78
863.251	19.38
863.421	21.03
863.592	25.25
863.762	23.99
863.932	27.63
864.103	25.54
864.273	29.2
864.443	30.14
864.614	26.03
864.784	27.08
864.954	28.24
865.125	30.32
865.295	31.85
865.465	28.28
865.635	28.93
865.805	27.27
865.976	30.43
866.146	32.23
866.316	34.23
866.486	32.64
866.656	28.11
866.826	25.52
866.996	24.44
867.166	21.36
867.336	20.44
867.506	19.84
867.676	13.82
867.846	17.32
868.016	13.79
868.186	9.79
868.356	7.97
868.526	15.23
868.696	15.94
868.866	17.21
869.036	19.04
869.206	22.53
869.376	27.3
869.545	30.62
869.715	28.54
869.885	26.66
870.055	30.49
870.224	31.36
870.394	28
870.564	29.05
870.734	27.75
870.903	26.69
871.073	23.93
871.243	18.75
871.412	18.6
871.582	19.08
871.751	22.23
871.921	19.77
872.091	17.5
872.26	19.45
872.43	22.56
872.599	24.55
872.769	26.05
872.938	28.01
873.108	30.91
873.277	31.52
873.446	30.59
873.616	32.36
873.785	32.28
873.955	38.68
874.124	39.03
874.293	36.08
874.463	34.3
874.632	32.85
874.801	29.99
874.971	27.31
875.14	27.84
875.309	30.65
875.478	28.32
875.647	25.87
875.817	19.95
875.986	16.47
876.155	18.5
876.324	21.63
876.493	21.61
876.662	26.21
876.831	31.09
877	31.15
877.17	28.31
877.339	23.86
877.508	24.98
877.677	28.99
877.846	29.47
878.015	29.65
878.184	28.3
878.352	27.17
878.521	24.89
878.69	21.73
878.859	19.63
879.028	20.49
879.197	25.07
879.366	23.84
879.534	22.67
879.703	24.41
879.872	25.05
880.041	24.65
880.21	26.07
880.378	26.45
880.547	26.61
880.716	27.92
880.884	28.11
881.053	27.02
881.222	28.47
881.39	28.57
881.559	28.75
881.727	28.51
881.896	28.83
882.065	28.7
882.233	28.12
882.402	28.44
882.57	27.92
882.739	27.07
882.907	27.89
883.076	27.61
883.244	27.63
883.412	27.01
883.581	26.9
883.749	26.57
883.918	26.83
884.086	27.09
884.254	26.75
884.423	26.7
884.591	27.72
884.759	26.97
884.927	27.39
885.096	27.08
885.264	27.24
885.432	26.34
885.6	25.55
885.769	23.34
885.937	23.25
886.105	21.52
886.273	22.32
886.441	22.02
886.609	19.92
886.777	19.11
886.945	19.15
887.113	19.39
887.281	21.17
887.449	23.54
887.617	23.45
887.785	23.11
887.953	25.2
888.121	25.41
888.289	24.4
888.457	25.76
888.625	22.85
888.793	25.09
888.961	24.7
889.129	22.37
889.296	23.58
889.464	26.64
889.632	27.62
889.8	27.15
889.967	25.05
890.135	25.78
