Data from 2938551_Reflection_3.txt Node
Date: Sun Jun 14 23:59:04 EDT 2015
User: robert
Spectrometer: USB4E03002
Autoset integration time: false
Trigger mode: 4
Integration Time (sec): 1.000000E-1
Scans to average: 10
Electric dark correction enabled: true
Nonlinearity correction enabled: false
Boxcar width: 5
Stray light correction enabled: false
XAxis mode: Wavelengths
Stop averaging: false
Number of Pixels in Spectrum: 3648
>>>>>Begin Spectral Data<<<<<
177.575	105.17
177.794	69.97
178.014	62.06
178.233	61.77
178.452	100.1
178.672	49.79
178.891	-13.48
179.11	224.92
179.33	241.01
179.549	98.66
179.768	75.33
179.987	50.82
180.207	35.77
180.426	-9.79
180.645	8.7
180.864	79.29
181.084	27.99
181.303	-43.19
181.522	271.74
181.741	-11.83
181.96	408.33
182.179	98.07
182.398	-33.14
182.618	9.49
182.837	219.86
183.056	181.82
183.275	70.09
183.494	-214.82
183.713	219.44
183.932	-170.17
184.151	-98.72
184.37	-92.83
184.589	-356.52
184.808	-221.27
185.027	-117.24
185.246	-112.06
185.465	-96.41
185.684	-192.69
185.903	-189.54
186.122	-110.05
186.341	-353.71
186.56	-491.77
186.779	419.73
186.998	284.76
187.216	247.02
187.435	248.82
187.654	177.54
187.873	201.05
188.092	166.74
188.311	108.32
188.53	110.86
188.748	160.22
188.967	142.32
189.186	111.74
189.405	78.22
189.623	95.96
189.842	91.1
190.061	138.88
190.28	166.76
190.498	176.84
190.717	197.55
190.936	702.41
191.154	521.75
191.373	3279.17
191.592	621.51
191.81	-122.72
192.029	-50.6
192.248	-24.34
192.466	12.64
192.685	27.76
192.904	36.24
193.122	33.91
193.341	65.54
193.559	30.97
193.778	-58.59
193.996	-31.9
194.215	-174.89
194.433	-178.51
194.652	-107.56
194.87	-220
195.089	2613.56
195.307	243.52
195.526	805.89
195.744	5548.87
195.963	-787.72
196.181	-2832.68
196.399	-1799.56
196.618	-2296.64
196.836	-4943.58
197.055	-626.87
197.273	-1329.52
197.491	-291.59
197.71	-70.18
197.928	-111.9
198.146	-138.55
198.365	-388.41
198.583	-814.5
198.801	1138.63
199.019	-782.95
199.238	13793.1
199.456	162.13
199.674	330.06
199.892	683.61
200.111	237.36
200.329	285.9
200.547	510.95
200.765	854.88
200.983	351.84
201.202	532.63
201.42	117.19
201.638	129.51
201.856	-31.85
202.074	247.56
202.292	-64.37
202.51	22.53
202.728	-39.25
202.946	-61.28
203.165	96.62
203.383	153.01
203.601	56.49
203.819	-118.91
204.037	-72.95
204.255	-121.63
204.473	-185.95
204.691	-117.19
204.909	-60.97
205.127	-90.22
205.345	-229.32
205.562	-257.83
205.78	-375.81
205.998	-606.37
206.216	-494.57
206.434	-6374.02
206.652	581.99
206.87	623.28
207.088	742.16
207.306	191.18
207.523	143.35
207.741	174.23
207.959	214.08
208.177	1866.92
208.395	362.81
208.612	277.57
208.83	-468.02
209.048	-124.85
209.266	-108.01
209.483	-120.75
209.701	-26.09
209.919	-45.98
210.136	-45.05
210.354	-106.72
210.572	-92.14
210.79	-58.8
211.007	-26.57
211.225	-14.53
211.442	-79.21
211.66	-109.95
211.878	-92.22
212.095	-65.94
212.313	10.21
212.53	-0.97
212.748	16.94
212.966	2.51
213.183	24.52
213.401	-12.89
213.618	-36.78
213.836	-39.96
214.053	-19.75
214.271	-30.06
214.488	-47.7
214.705	-77.2
214.923	-66.35
215.14	-60.54
215.358	-22.77
215.575	-50.85
215.793	-18.22
216.01	-35.03
216.227	11.26
216.445	0.74
216.662	6.4
216.879	12.58
217.097	18.47
217.314	11.85
217.531	16.19
217.749	6.47
217.966	9.09
218.183	-4.09
218.4	-0.06
218.618	-11.18
218.835	-9.39
219.052	-10.26
219.269	-17.23
219.487	-21.07
219.704	-20.3
219.921	-23.44
220.138	-26.16
220.355	-32.86
220.572	-42.69
220.79	-39.98
221.007	-40.6
221.224	-69.37
221.441	-48.73
221.658	-34.46
221.875	-25.51
222.092	-18.3
222.309	-25.95
222.526	-17.59
222.743	-28.8
222.96	-23.74
223.177	-21.72
223.394	-13.13
223.611	-3.97
223.828	-7.96
224.045	-6.09
224.262	-7.71
224.479	-13.11
224.696	-5.06
224.913	-6.22
225.13	2.12
225.347	1.81
225.564	2.38
225.781	1.72
225.997	1.62
226.214	2.26
226.431	3.65
226.648	2.85
226.865	4.56
227.082	3.34
227.298	4.21
227.515	4.04
227.732	5.14
227.949	5.43
228.165	5.62
228.382	7.37
228.599	7.09
228.816	6.47
229.032	7.13
229.249	7.15
229.466	7.7
229.682	7
229.899	6.4
230.116	5.74
230.332	3.85
230.549	0.86
230.765	-1.52
230.982	-0.64
231.199	-1.82
231.415	-2.49
231.632	-3.17
231.848	-3.43
232.065	-1.29
232.281	0.23
232.498	-0.14
232.714	-0.11
232.931	1.74
233.147	1.98
233.364	1.87
233.58	2.47
233.797	4.16
234.013	5.22
234.23	6.21
234.446	4.24
234.662	5.85
234.879	6.64
235.095	6.86
235.312	7.96
235.528	9.53
235.744	10.31
235.961	11.23
236.177	10.94
236.393	11.99
236.61	13.67
236.826	13.41
237.042	9.74
237.258	9.52
237.475	8.42
237.691	8.75
237.907	6.91
238.123	6.95
238.339	6.93
238.556	5.39
238.772	4.22
238.988	4.97
239.204	4.61
239.42	5.76
239.636	6.28
239.853	8.39
240.069	7.7
240.285	6.89
240.501	6.78
240.717	6.51
240.933	7.54
241.149	7.35
241.365	6.6
241.581	7
241.797	7.02
242.013	6.8
242.229	6.15
242.445	6.24
242.661	7.67
242.877	7.59
243.093	8.51
243.309	8.87
243.525	9.45
243.741	9.81
243.957	9.89
244.173	9.84
244.388	10.33
244.604	10.33
244.82	10.57
245.036	9.77
245.252	9.49
245.468	9.06
245.683	8.72
245.899	8.27
246.115	7.97
246.331	7.79
246.547	7.41
246.762	6.61
246.978	6.39
247.194	6.66
247.409	6.76
247.625	6.33
247.841	6.02
248.057	5.83
248.272	5.79
248.488	5.18
248.703	5.11
248.919	5.79
249.135	6.42
249.35	6.43
249.566	4.93
249.782	4.68
249.997	4.89
250.213	4.66
250.428	4.65
250.644	5.18
250.859	5.41
251.075	5.13
251.29	5.16
251.506	5.39
251.721	5.18
251.937	5.05
252.152	5.02
252.368	5.78
252.583	5.96
252.798	4.71
253.014	4.69
253.229	4.82
253.445	4.98
253.66	4.58
253.875	4.74
254.091	5.09
254.306	6.01
254.521	4.87
254.737	4.9
254.952	4.33
255.167	5.74
255.383	5.96
255.598	5.56
255.813	5.1
256.028	5.34
256.244	4.75
256.459	4.94
256.674	4.18
256.889	5.15
257.104	4.9
257.32	5.67
257.535	5.35
257.75	5.19
257.965	5.43
258.18	5.56
258.395	5.56
258.61	5.76
258.826	5.54
259.041	5.68
259.256	5.59
259.471	5.8
259.686	5.51
259.901	5.77
260.116	5.84
260.331	5.9
260.546	5.87
260.761	6.07
260.976	5.85
261.191	5.86
261.406	6.02
261.621	5.84
261.836	5.99
262.05	6.32
262.265	6.08
262.48	6.36
262.695	5.96
262.91	5.98
263.125	5.06
263.34	4.65
263.555	4.39
263.769	4.51
263.984	4.42
264.199	4.11
264.414	4.06
264.629	4.66
264.843	4.1
265.058	4.34
265.273	3.9
265.488	4.3
265.702	4.21
265.917	4.69
266.132	4.61
266.346	4.81
266.561	4.28
266.776	4.54
266.99	4.21
267.205	4.55
267.42	4.27
267.634	4.76
267.849	5.06
268.063	5.56
268.278	5.65
268.492	5.18
268.707	5.37
268.922	6.34
269.136	6.36
269.351	6.34
269.565	5.73
269.78	6.46
269.994	6.21
270.209	5.72
270.423	5.72
270.637	5.23
270.852	5.62
271.066	5.21
271.281	4.44
271.495	4.37
271.709	4.43
271.924	4.81
272.138	3.98
272.353	4.24
272.567	4.28
272.781	3.94
272.996	3.93
273.21	3.43
273.424	3.55
273.638	4
273.853	3.8
274.067	3.35
274.281	3.31
274.495	3.45
274.71	3.68
274.924	3.48
275.138	3.53
275.352	3.18
275.566	3.56
275.781	3.49
275.995	3.56
276.209	3.14
276.423	3.4
276.637	3.65
276.851	4.14
277.065	3.94
277.279	4.22
277.493	4.63
277.707	4.99
277.921	5.34
278.135	5.73
278.349	5.11
278.563	5.01
278.777	4.58
278.991	3.92
279.205	3.11
279.419	2.92
279.633	3.3
279.847	3.18
280.061	3.81
280.275	3.92
280.489	3.57
280.703	4.17
280.917	4.49
281.131	4.56
281.344	4.94
281.558	5.63
281.772	5.65
281.986	5.39
282.2	5.52
282.414	5.38
282.627	5.26
282.841	5.28
283.055	4.92
283.269	4.54
283.482	4.95
283.696	4.95
283.91	4.86
284.123	5.01
284.337	5.02
284.551	5.09
284.764	4.92
284.978	4.68
285.192	4.6
285.405	4.44
285.619	4.38
285.833	3.61
286.046	3.16
286.26	3.05
286.473	2.68
286.687	2.54
286.9	2.13
287.114	2.48
287.327	2.94
287.541	3.3
287.754	3.65
287.968	3.82
288.181	4.44
288.395	4.4
288.608	4.15
288.822	4.17
289.035	3.93
289.248	4.11
289.462	3.57
289.675	3.36
289.889	3.29
290.102	2.91
290.315	3.18
290.529	3.26
290.742	3.42
290.955	3.65
291.169	3.41
291.382	3.88
291.595	3.74
291.808	3.87
292.022	4.41
292.235	4.2
292.448	4.78
292.661	4.87
292.875	4.85
293.088	4.95
293.301	4.87
293.514	5.62
293.727	5.53
293.94	5.43
294.153	5.55
294.367	4.87
294.58	5.09
294.793	4.62
295.006	4.64
295.219	4.3
295.432	4.48
295.645	4.45
295.858	4.27
296.071	4.31
296.284	4.37
296.497	4.15
296.71	3.99
296.923	4
297.136	4.23
297.349	3.87
297.562	4.22
297.775	4
297.988	4.14
298.201	3.81
298.414	3.69
298.626	3.67
298.839	4.02
299.052	4.23
299.265	4.29
299.478	4.6
299.691	4.67
299.903	4.46
300.116	4.7
300.329	5.05
300.542	5.1
300.755	5.45
300.967	5.87
301.18	5.76
301.393	6.14
301.605	5.93
301.818	5.81
302.031	6.21
302.243	6.36
302.456	6.4
302.669	5.79
302.881	5.97
303.094	5.83
303.307	5.23
303.519	5.24
303.732	5.32
303.944	5.55
304.157	5.35
304.37	4.97
304.582	4.97
304.795	5.16
305.007	5.83
305.22	5.82
305.432	6.16
305.645	6.4
305.857	6.55
306.069	6.2
306.282	6.01
306.494	6.15
306.707	6.27
306.919	6.17
307.132	5.87
307.344	5.62
307.556	6.12
307.769	5.66
307.981	5.69
308.193	5.31
308.406	5.74
308.618	5.55
308.83	5.93
309.043	5.94
309.255	5.88
309.467	5.8
309.679	6.04
309.892	5.41
310.104	5.31
310.316	5.39
310.528	5.67
310.74	5.52
310.953	5.8
311.165	5.39
311.377	5.43
311.589	5.67
311.801	5.86
312.013	5.61
312.225	5.63
312.437	5.84
312.649	5.58
312.862	5.64
313.074	5.62
313.286	5.61
313.498	5.57
313.71	5.23
313.922	5.16
314.134	5.13
314.346	5.01
314.558	5.34
314.77	5.52
314.982	5.83
315.193	5.5
315.405	5.22
315.617	4.92
315.829	5.24
316.041	5.57
316.253	5.55
316.465	5.18
316.677	5.02
316.888	4.94
317.1	4.24
317.312	4.43
317.524	4.36
317.736	4.73
317.947	4.88
318.159	4.78
318.371	4.68
318.583	4.11
318.794	5.08
319.006	5.02
319.218	5.37
319.43	6.15
319.641	5.9
319.853	6.17
320.064	5.79
320.276	5.99
320.488	6.36
320.699	6.66
320.911	6.92
321.123	6.62
321.334	6.66
321.546	7.01
321.757	6.68
321.969	7.09
322.18	6.53
322.392	6.43
322.603	6.44
322.815	6.09
323.026	6.12
323.238	6.19
323.449	6.25
323.661	6.34
323.872	5.92
324.083	6.19
324.295	5.98
324.506	6.71
324.718	7.11
324.929	7.33
325.14	7.5
325.352	7.83
325.563	7.92
325.774	8.02
325.986	8.04
326.197	8.23
326.408	8.41
326.62	8.29
326.831	8.59
327.042	8.4
327.253	8.4
327.464	8.28
327.676	8.09
327.887	8.26
328.098	8.45
328.309	8.25
328.52	7.85
328.732	7.8
328.943	7.69
329.154	7.17
329.365	7.55
329.576	7.44
329.787	7.67
329.998	7.49
330.209	7.65
330.42	7.19
330.631	7.64
330.842	8.08
331.053	8.16
331.264	8.62
331.475	8.75
331.686	8.74
331.897	8.46
332.108	8.13
332.319	8.39
332.53	8.39
332.741	8.84
332.952	8.74
333.163	8.87
333.374	8.58
333.585	8.47
333.795	8.44
334.006	8.39
334.217	8.81
334.428	9.3
334.639	9.44
334.849	9.38
335.06	9.16
335.271	9.48
335.482	9.65
335.692	9.81
335.903	9.69
336.114	10.04
336.325	10.07
336.535	10.37
336.746	10.04
336.957	9.74
337.167	9.98
337.378	9.92
337.589	9.97
337.799	9.72
338.01	9.85
338.22	9.91
338.431	9.61
338.642	9.07
338.852	8.91
339.063	9.07
339.273	9.12
339.484	8.93
339.694	9.25
339.905	9.18
340.115	9.24
340.326	9.39
340.536	9.41
340.746	9.78
340.957	10.32
341.167	10.34
341.378	10.46
341.588	10.46
341.799	10.6
342.009	10.39
342.219	10.57
342.43	10.71
342.64	10.7
342.85	10.73
343.061	10.2
343.271	10.1
343.481	9.77
343.691	9.56
343.902	9.7
344.112	9.78
344.322	9.83
344.532	9.73
344.743	9.71
344.953	9.67
345.163	9.74
345.373	10.12
345.583	9.99
345.793	10.26
346.004	10.31
346.214	10.45
346.424	10.44
346.634	10.2
346.844	10.19
347.054	10.3
347.264	9.96
347.474	9.97
347.684	10.34
347.894	10.62
348.104	10.32
348.314	10.37
348.524	10.23
348.734	10.05
348.944	10.27
349.154	10.5
349.364	10.04
349.574	10.49
349.784	10.54
349.994	10.22
350.204	10.24
350.413	10.25
350.623	10.18
350.833	10.24
351.043	10.31
351.253	10.34
351.463	10.12
351.672	10.33
351.882	10.02
352.092	9.9
352.302	9.59
352.511	9.2
352.721	9.35
352.931	9.51
353.141	9.33
353.35	9.38
353.56	9.67
353.77	9.39
353.979	9.21
354.189	9.32
354.399	9.45
354.608	9.56
354.818	9.83
355.027	10.04
355.237	9.98
355.447	9.87
355.656	9.98
355.866	9.75
356.075	10
356.285	10.22
356.494	10.28
356.704	10.13
356.913	10.2
357.123	10.32
357.332	10.2
357.542	10.24
357.751	10.3
357.96	10.01
358.17	10.02
358.379	9.71
358.589	9.57
358.798	9.38
359.007	9.24
359.217	9.31
359.426	9.09
359.635	9.05
359.845	8.88
360.054	8.99
360.263	9.13
360.472	8.96
360.682	9.13
360.891	9.27
361.1	9.27
361.309	9.41
361.519	9.26
361.728	9.34
361.937	9.13
362.146	9.22
362.355	9.04
362.564	8.76
362.774	8.75
362.983	8.66
363.192	8.48
363.401	8.51
363.61	8.33
363.819	8.49
364.028	8.47
364.237	8.65
364.446	8.53
364.655	8.54
364.864	8.68
365.073	8.89
365.282	8.93
365.491	8.78
365.7	8.71
365.909	8.81
366.118	8.7
366.327	8.6
366.536	8.37
366.745	8.48
366.954	8.38
367.162	8.35
367.371	8.53
367.58	8.42
367.789	8.63
367.998	8.67
368.207	8.58
368.415	8.32
368.624	8.48
368.833	8.4
369.042	8.48
369.25	8.63
369.459	8.54
369.668	8.25
369.877	8.43
370.085	8.35
370.294	8.4
370.503	8.34
370.711	8.35
370.92	8.21
371.129	8.31
371.337	8.2
371.546	8.16
371.754	8.46
371.963	8.33
372.171	8.01
372.38	7.86
372.589	7.59
372.797	7.68
373.006	7.88
373.214	8.16
373.423	8.4
373.631	8.14
373.84	8.03
374.048	7.62
374.256	7.6
374.465	7.59
374.673	7.54
374.882	7.65
375.09	7.69
375.298	7.49
375.507	7.26
375.715	7
375.923	7.09
376.132	7.32
376.34	7.6
376.548	7.67
376.757	7.73
376.965	7.86
377.173	7.74
377.381	7.58
377.59	7.61
377.798	7.39
378.006	7.61
378.214	7.74
378.423	7.64
378.631	7.33
378.839	7.04
379.047	6.99
379.255	6.99
379.463	7.04
379.671	7.18
379.879	7.33
380.088	7.39
380.296	7.11
380.504	7.07
380.712	7
380.92	7.27
381.128	7.36
381.336	7.32
381.544	7.12
381.752	7.07
381.96	6.99
382.168	6.69
382.376	6.85
382.584	7.03
382.791	7
382.999	7.01
383.207	6.84
383.415	7.03
383.623	6.97
383.831	7.17
384.039	7.11
384.247	6.99
384.454	7.14
384.662	6.97
384.87	6.84
385.078	6.84
385.285	6.76
385.493	6.73
385.701	6.67
385.909	6.79
386.116	6.45
386.324	6.69
386.532	6.86
386.739	6.91
386.947	6.84
387.155	6.87
387.362	6.69
387.57	6.37
387.778	6.12
387.985	5.93
388.193	5.83
388.4	6.05
388.608	5.81
388.816	5.73
389.023	5.71
389.231	5.71
389.438	5.49
389.646	5.6
389.853	5.56
390.061	5.77
390.268	5.91
390.475	6
390.683	5.87
390.89	5.87
391.098	5.83
391.305	5.76
391.512	5.91
391.72	6
391.927	5.87
392.135	6.22
392.342	6.21
392.549	6.19
392.756	5.99
392.964	5.98
393.171	5.93
393.378	5.87
393.586	5.69
393.793	5.76
394	5.9
394.207	6.04
394.414	5.7
394.622	5.57
394.829	5.52
395.036	5.54
395.243	5.52
395.45	5.47
395.657	5.53
395.864	5.62
396.072	5.33
396.279	5.31
396.486	5.28
396.693	5.37
396.9	5.4
397.107	5.24
397.314	5.27
397.521	5.38
397.728	5.51
397.935	5.47
398.142	5.47
398.349	5.52
398.556	5.43
398.763	5.38
398.97	5.48
399.177	5.28
399.383	5.4
399.59	5.38
399.797	5.37
400.004	5.22
400.211	5.35
400.418	5.28
400.625	5.15
400.831	5.05
401.038	5.21
401.245	4.96
401.452	5.2
401.658	5.06
401.865	5.12
402.072	5.05
402.279	5.08
402.485	4.88
402.692	4.94
402.899	4.95
403.105	4.92
403.312	4.75
403.519	5.07
403.725	4.97
403.932	5.15
404.138	4.99
404.345	5.02
404.552	5.16
404.758	5.18
404.965	5.13
405.171	5.24
405.378	5.3
405.584	5.35
405.791	5.12
405.997	5.21
406.204	5.08
406.41	5.18
406.617	5.1
406.823	4.97
407.029	4.86
407.236	4.89
407.442	4.84
407.649	4.76
407.855	4.66
408.061	4.62
408.268	4.56
408.474	4.6
408.68	4.83
408.887	4.85
409.093	4.73
409.299	4.86
409.505	4.87
409.712	5.02
409.918	5.18
410.124	5.36
410.33	5.44
410.537	5.44
410.743	5.49
410.949	5.15
411.155	5
411.361	5.08
411.567	4.94
411.773	4.72
411.98	4.53
412.186	4.43
412.392	4.32
412.598	4.27
412.804	4.36
413.01	4.17
413.216	4.33
413.422	4.29
413.628	4.16
413.834	4.32
414.04	4.57
414.246	4.62
414.452	4.67
414.658	4.75
414.864	4.87
415.07	4.93
415.275	5.02
415.481	4.99
415.687	5.11
415.893	5.06
416.099	4.98
416.305	4.97
416.511	4.84
416.716	4.65
416.922	4.64
417.128	4.54
417.334	4.37
417.539	4.27
417.745	4.27
417.951	4.22
418.157	4.4
418.362	4.48
418.568	4.39
418.774	4.4
418.979	4.42
419.185	4.34
419.391	4.46
419.596	4.52
419.802	4.58
420.008	4.53
420.213	3.82
420.419	3.68
420.624	3.68
420.83	3.71
421.035	3.65
421.241	3.75
421.446	3.79
421.652	3.72
421.857	3.66
422.063	3.67
422.268	3.76
422.474	4.42
422.679	4.53
422.885	4.46
423.09	4.43
423.295	4.47
423.501	4.4
423.706	4.3
423.911	4.23
424.117	4.18
424.322	3.99
424.527	3.92
424.733	3.93
424.938	3.86
425.143	3.91
425.349	3.8
425.554	3.79
425.759	3.79
425.964	3.92
426.169	4.01
426.375	4.12
426.58	4.34
426.785	4.36
426.99	4.34
427.195	4.31
427.4	4.11
427.605	4.2
427.811	4.28
428.016	4.27
428.221	4.17
428.426	4.01
428.631	4.03
428.836	4.06
429.041	4.09
429.246	4.09
429.451	3.96
429.656	4.08
429.861	4.19
430.066	4.24
430.271	4.23
430.476	4.13
430.681	4.14
430.886	4.04
431.09	4.06
431.295	3.95
431.5	4.08
431.705	4.23
431.91	4.23
432.115	4.13
432.32	4.1
432.524	4.06
432.729	4.18
432.934	4.12
433.139	4.18
433.343	4.1
433.548	4.14
433.753	3.99
433.958	3.93
434.162	3.97
434.367	3.9
434.572	3.71
434.776	3.7
434.981	3.7
435.186	3.72
435.39	3.68
435.595	3.63
435.799	3.66
436.004	3.72
436.209	3.76
436.413	3.63
436.618	3.81
436.822	3.9
437.027	3.93
437.231	3.93
437.436	4.05
437.64	4.01
437.845	4.07
438.049	4.14
438.253	4.1
438.458	4.06
438.662	4.14
438.867	4.09
439.071	4.09
439.275	4.03
439.48	3.94
439.684	3.95
439.888	3.96
440.093	3.97
440.297	3.9
440.501	3.99
440.706	4.04
440.91	3.97
441.114	3.89
441.318	3.93
441.523	3.95
441.727	4.09
441.931	4.02
442.135	4.06
442.339	4.07
442.543	4.05
442.748	4.01
442.952	3.97
443.156	3.96
443.36	3.96
443.564	3.92
443.768	3.99
443.972	3.94
444.176	3.95
444.38	3.95
444.584	3.9
444.788	3.93
444.992	3.95
445.196	4.04
445.4	4.09
445.604	4.12
445.808	4.15
446.012	4.08
446.216	4.03
446.42	4
446.624	3.99
446.828	4.04
447.032	4.02
447.235	3.97
447.439	3.82
447.643	3.77
447.847	3.75
448.051	3.65
448.254	3.64
448.458	3.61
448.662	3.67
448.866	3.68
449.069	3.68
449.273	3.65
449.477	3.58
449.681	3.61
449.884	3.56
450.088	3.62
450.292	3.59
450.495	3.65
450.699	3.66
450.902	3.55
451.106	3.49
451.31	3.42
451.513	3.47
451.717	3.51
451.92	3.56
452.124	3.61
452.327	3.55
452.531	3.65
452.734	3.62
452.938	3.69
453.141	3.74
453.345	3.87
453.548	3.83
453.752	3.72
453.955	3.74
454.158	3.71
454.362	3.8
454.565	3.81
454.769	3.78
454.972	3.82
455.175	3.85
455.379	3.87
455.582	3.73
455.785	3.78
455.988	3.81
456.192	3.8
456.395	3.81
456.598	3.7
456.801	3.75
457.005	3.79
457.208	3.79
457.411	3.81
457.614	3.82
457.817	3.91
458.021	3.91
458.224	4.04
458.427	4
458.63	3.98
458.833	3.96
459.036	3.97
459.239	3.99
459.442	3.97
459.645	3.94
459.848	3.99
460.051	3.88
460.254	3.93
460.457	3.8
460.66	3.81
460.863	3.85
461.066	3.88
461.269	3.8
461.472	3.74
461.675	3.79
461.878	3.77
462.081	3.56
462.284	3.56
462.486	3.49
462.689	3.51
462.892	3.57
463.095	3.52
463.298	3.56
463.5	3.58
463.703	3.59
463.906	3.59
464.109	3.54
464.311	3.6
464.514	3.65
464.717	3.53
464.92	3.4
465.122	3.29
465.325	3.34
465.528	3.34
465.73	3.43
465.933	3.39
466.135	3.38
466.338	3.42
466.541	3.51
466.743	3.5
466.946	3.64
467.148	3.72
467.351	3.84
467.553	3.75
467.756	3.71
467.958	3.65
468.161	3.73
468.363	3.68
468.566	3.68
468.768	3.68
468.971	3.66
469.173	3.68
469.375	3.71
469.578	3.67
469.78	3.8
469.983	3.8
470.185	3.85
470.387	3.76
470.59	3.85
470.792	3.94
470.994	3.87
471.196	3.91
471.399	3.88
471.601	3.85
471.803	3.94
472.005	3.86
472.208	3.87
472.41	3.79
472.612	3.96
472.814	4
473.016	3.96
473.218	3.98
473.421	4.05
473.623	4.16
473.825	4.2
474.027	4.12
474.229	4.16
474.431	4.25
474.633	4.31
474.835	4.17
475.037	4.09
475.239	4.04
475.441	4.02
475.643	3.97
475.845	3.91
476.047	3.95
476.249	4
476.451	3.99
476.653	4.06
476.855	4.03
477.057	4.03
477.258	4.07
477.46	4.12
477.662	4.2
477.864	4.19
478.066	4.27
478.268	4.21
478.469	4.21
478.671	4.22
478.873	4.12
479.075	4.13
479.276	4.14
479.478	4.15
479.68	4.11
479.882	4.03
480.083	4.03
480.285	3.95
480.487	4.02
480.688	4
480.89	4.03
481.091	3.99
481.293	3.97
481.495	3.96
481.696	3.92
481.898	3.9
482.099	3.94
482.301	3.92
482.502	3.93
482.704	3.92
482.905	3.92
483.107	3.89
483.308	3.94
483.51	3.94
483.711	3.94
483.913	3.97
484.114	4.01
484.315	3.98
484.517	4.03
484.718	4.03
484.92	4.05
485.121	4.02
485.322	4.05
485.524	4.01
485.725	3.99
485.926	3.99
486.127	3.98
486.329	3.96
486.53	3.97
486.731	3.96
486.932	3.98
487.134	4
487.335	3.99
487.536	3.99
487.737	4
487.938	4.02
488.139	4.06
488.341	4.07
488.542	4.1
488.743	4.1
488.944	4.1
489.145	4.08
489.346	4.05
489.547	4.1
489.748	4.12
489.949	4.11
490.15	4.1
490.351	4.09
490.552	4.1
490.753	4.17
490.954	4.18
491.155	4.19
491.356	4.19
491.557	4.14
491.758	4.16
491.959	4.19
492.159	4.16
492.36	4.24
492.561	4.24
492.762	4.29
492.963	4.2
493.164	4.21
493.364	4.21
493.565	4.14
493.766	4.23
493.967	4.24
494.167	4.23
494.368	4.32
494.569	4.32
494.769	4.36
494.97	4.2
495.171	4.28
495.371	4.31
495.572	4.29
495.773	4.43
495.973	4.42
496.174	4.4
496.375	4.39
496.575	4.34
496.776	4.35
496.976	4.4
497.177	4.52
497.377	4.49
497.578	4.47
497.778	4.51
497.979	4.41
498.179	4.39
498.38	4.39
498.58	4.31
498.78	4.32
498.981	4.34
499.181	4.29
499.382	4.28
499.582	4.31
499.782	4.33
499.983	4.37
500.183	4.47
500.383	4.51
500.584	4.55
500.784	4.73
500.984	4.88
501.184	4.78
501.385	4.82
501.585	4.89
501.785	4.97
501.985	5.04
502.185	5.05
502.386	5.07
502.586	5.14
502.786	5.19
502.986	5.12
503.186	5.08
503.386	5.23
503.586	5.38
503.786	5.39
503.987	5.33
504.187	5.32
504.387	5.37
504.587	5.41
504.787	5.46
504.987	5.56
505.187	5.65
505.387	5.74
505.587	5.72
505.786	5.68
505.986	5.71
506.186	5.82
506.386	5.86
506.586	5.92
506.786	5.95
506.986	5.97
507.186	5.94
507.386	5.9
507.585	5.92
507.785	5.98
507.985	6.03
508.185	6.07
508.384	6.07
508.584	6.1
508.784	6.14
508.984	6.1
509.183	6.13
509.383	6.18
509.583	6.29
509.782	6.35
509.982	6.42
510.182	6.36
510.381	6.45
510.581	6.46
510.781	6.57
510.98	6.66
511.18	6.77
511.379	6.79
511.579	6.79
511.778	6.82
511.978	6.93
512.177	6.95
512.377	7.04
512.576	7.03
512.776	7.06
512.975	7.02
513.175	7.01
513.374	7.07
513.573	7.15
513.773	7.33
513.972	7.38
514.172	7.37
514.371	7.36
514.57	7.42
514.77	7.41
514.969	7.55
515.168	7.55
515.367	7.63
515.567	7.67
515.766	7.66
515.965	7.63
516.164	7.67
516.364	7.67
516.563	7.72
516.762	7.8
516.961	7.87
517.16	7.86
517.359	7.96
517.559	7.94
517.758	7.94
517.957	7.99
518.156	8.03
518.355	8.1
518.554	8.17
518.753	8.23
518.952	8.22
519.151	8.27
519.35	8.31
519.549	8.37
519.748	8.5
519.947	8.51
520.146	8.52
520.345	8.58
520.544	8.65
520.743	8.67
520.942	8.75
521.141	8.83
521.339	8.86
521.538	8.88
521.737	8.87
521.936	8.83
522.135	8.87
522.333	8.95
522.532	8.98
522.731	9.09
522.93	9.21
523.129	9.28
523.327	9.3
523.526	9.35
523.725	9.43
523.923	9.47
524.122	9.53
524.321	9.66
524.519	9.73
524.718	9.75
524.917	9.69
525.115	9.66
525.314	9.66
525.512	9.79
525.711	9.86
525.909	9.91
526.108	10
526.306	10.04
526.505	10.05
526.703	10.06
526.902	10.11
527.1	10.15
527.299	10.18
527.497	10.19
527.696	10.19
527.894	10.21
528.092	10.23
528.291	10.24
528.489	10.26
528.688	10.3
528.886	10.36
529.084	10.38
529.283	10.43
529.481	10.5
529.679	10.55
529.877	10.6
530.076	10.68
530.274	10.72
530.472	10.76
530.67	10.81
530.869	10.91
531.067	10.93
531.265	10.95
531.463	10.96
531.661	10.96
531.859	11.02
532.057	11.11
532.255	11.08
532.454	11.17
532.652	11.17
532.85	11.24
533.048	11.25
533.246	11.35
533.444	11.42
533.642	11.53
533.84	11.61
534.038	11.65
534.236	11.61
534.434	11.67
534.632	11.64
534.83	11.68
535.027	11.68
535.225	11.7
535.423	11.69
535.621	11.73
535.819	11.71
536.017	11.7
536.215	11.74
536.412	11.82
536.61	11.81
536.808	11.89
537.006	11.95
537.203	12.02
537.401	12.08
537.599	12.11
537.797	12.15
537.994	12.15
538.192	12.15
538.39	12.14
538.587	12.12
538.785	12.22
538.983	12.24
539.18	12.26
539.378	12.24
539.575	12.21
539.773	12.24
539.97	12.23
540.168	12.3
540.366	12.37
540.563	12.39
540.761	12.36
540.958	12.39
541.155	12.42
541.353	12.49
541.55	12.55
541.748	12.64
541.945	12.69
542.143	12.7
542.34	12.75
542.537	12.73
542.735	12.82
542.932	12.95
543.129	13.04
543.327	13.04
543.524	13.04
543.721	13.09
543.919	13.09
544.116	13.09
544.313	13.14
544.51	13.12
544.708	13.22
544.905	13.26
545.102	13.31
545.299	13.26
545.496	13.34
545.693	13.31
545.891	13.31
546.088	13.32
546.285	13.36
546.482	13.44
546.679	13.51
546.876	13.58
547.073	13.63
547.27	13.63
547.467	13.76
547.664	13.84
547.861	13.99
548.058	14.02
548.255	14.14
548.452	14.2
548.649	14.15
548.846	14.24
549.043	14.25
549.24	14.18
549.437	14.23
549.633	14.13
549.83	14.15
550.027	14.07
550.224	14.21
550.421	14.22
550.618	14.24
550.814	14.31
551.011	14.32
551.208	14.35
551.405	14.53
551.601	14.6
551.798	14.67
551.995	14.7
552.191	14.79
552.388	14.7
552.585	14.77
552.781	14.79
552.978	14.91
553.175	14.9
553.371	14.94
553.568	14.92
553.764	14.93
553.961	15
554.157	14.94
554.354	14.91
554.55	15.01
554.747	14.96
554.943	14.97
555.14	15.04
555.336	15.15
555.533	15.18
555.729	15.23
555.926	15.24
556.122	15.21
556.318	15.36
556.515	15.44
556.711	15.5
556.907	15.5
557.104	15.57
557.3	15.44
557.496	15.43
557.693	15.45
557.889	15.41
558.085	15.52
558.281	15.56
558.478	15.53
558.674	15.63
558.87	15.65
559.066	15.8
559.262	15.83
559.459	16.01
559.655	16.1
559.851	16.24
560.047	16.28
560.243	16.25
560.439	16.26
560.635	16.39
560.831	16.44
561.027	16.42
561.223	16.52
561.419	16.57
561.615	16.6
561.811	16.58
562.007	16.46
562.203	16.46
562.399	16.51
562.595	16.53
562.791	16.41
562.987	16.38
563.183	16.41
563.379	16.41
563.575	16.49
563.771	16.45
563.966	16.41
564.162	16.49
564.358	16.49
564.554	16.56
564.75	16.59
564.945	16.64
565.141	16.63
565.337	16.71
565.533	16.65
565.728	16.53
565.924	16.55
566.12	16.61
566.315	16.76
566.511	16.86
566.707	16.85
566.902	16.96
567.098	17
567.293	17.09
567.489	17.14
567.684	17.22
567.88	17.39
568.076	17.41
568.271	17.5
568.467	17.5
568.662	17.63
568.858	17.7
569.053	17.74
569.248	17.82
569.444	17.74
569.639	17.56
569.835	17.6
570.03	17.66
570.225	17.7
570.421	17.68
570.616	17.6
570.812	17.6
571.007	17.62
571.202	17.63
571.397	17.64
571.593	17.79
571.788	18.02
571.983	18.11
572.178	18.08
572.374	18.05
572.569	18.03
572.764	18.16
572.959	18.1
573.154	18.14
573.35	18.16
573.545	18.23
573.74	18.22
573.935	18.2
574.13	18.15
574.325	18.23
574.52	18.28
574.715	18.39
574.91	18.34
575.105	18.43
575.3	18.47
575.495	18.48
575.69	18.54
575.885	18.6
576.08	18.62
576.275	18.7
576.47	18.77
576.665	18.91
576.86	18.92
577.055	18.92
577.25	18.94
577.444	18.97
577.639	18.97
577.834	19.02
578.029	19.01
578.224	19.16
578.418	19.27
578.613	19.17
578.808	19.16
579.003	19.22
579.197	19.33
579.392	19.29
579.587	19.31
579.781	19.4
579.976	19.34
580.171	19.23
580.365	19.1
580.56	19.23
580.755	19.24
580.949	19.16
581.144	19.14
581.338	19.15
581.533	19.18
581.727	19.3
581.922	19.3
582.116	19.28
582.311	19.48
582.505	19.63
582.7	19.46
582.894	19.35
583.089	19.46
583.283	19.51
583.478	19.52
583.672	19.59
583.866	19.51
584.061	19.5
584.255	19.53
584.449	19.55
584.644	19.44
584.838	19.41
585.032	19.52
585.226	19.49
585.421	19.36
585.615	19.37
585.809	19.45
586.003	19.59
586.198	19.6
586.392	19.6
586.586	19.59
586.78	19.61
586.974	19.56
587.168	19.68
587.363	19.75
587.557	19.88
587.751	19.89
587.945	19.9
588.139	19.81
588.333	19.88
588.527	19.95
588.721	19.95
588.915	20.01
589.109	20.11
589.303	20.17
589.497	20.34
589.691	20.53
589.885	20.47
590.079	20.48
590.273	20.61
590.466	20.6
590.66	20.6
590.854	20.62
591.048	20.63
591.242	20.68
591.436	20.69
591.629	20.55
591.823	20.36
592.017	20.46
592.211	20.57
592.404	20.55
592.598	20.58
592.792	20.61
592.986	20.56
593.179	20.6
593.373	20.54
593.567	20.57
593.76	20.66
593.954	20.73
594.147	20.71
594.341	20.75
594.535	20.87
594.728	20.88
594.922	20.97
595.115	21.05
595.309	21.08
595.502	21.15
595.696	21.1
595.889	21.04
596.083	21.15
596.276	21.19
596.47	21.07
596.663	21
596.856	20.95
597.05	20.95
597.243	21.1
597.437	21.2
597.63	21.3
597.823	21.46
598.017	21.44
598.21	21.42
598.403	21.59
598.596	21.72
598.79	21.68
598.983	21.85
599.176	21.85
599.369	21.71
599.563	21.68
599.756	21.59
599.949	21.54
600.142	21.61
600.335	21.67
600.528	21.57
600.722	21.44
600.915	21.44
601.108	21.39
601.301	21.31
601.494	21.2
601.687	21.16
601.88	21.33
602.073	21.23
602.266	21.18
602.459	21.1
602.652	21.04
602.845	21.18
603.038	21.27
603.231	21.29
603.424	21.32
603.617	21.43
603.809	21.34
604.002	21.26
604.195	21.35
604.388	21.4
604.581	21.29
604.774	21.35
604.966	21.27
605.159	21.37
605.352	21.43
605.545	21.54
605.737	21.67
605.93	21.8
606.123	21.63
606.316	21.64
606.508	21.68
606.701	21.89
606.894	21.94
607.086	21.96
607.279	21.82
607.471	21.68
607.664	21.7
607.857	21.7
608.049	21.81
608.242	21.91
608.434	22.04
608.627	22.19
608.819	22.22
609.012	22.27
609.204	22.23
609.397	22.28
609.589	22.41
609.782	22.34
609.974	22.33
610.166	22.32
610.359	22.39
610.551	22.24
610.743	22.03
610.936	21.94
611.128	21.85
611.32	22.02
611.513	22.06
611.705	21.98
611.897	22.09
612.09	22.17
612.282	22.14
612.474	22.24
612.666	22.37
612.858	22.47
613.051	22.74
613.243	22.91
613.435	22.95
613.627	23.13
613.819	23.4
614.011	23.39
614.203	23.08
614.395	23.06
614.588	23.12
614.78	23.23
614.972	23.24
615.164	23.21
615.356	23.17
615.548	23.18
615.74	23.02
615.932	22.91
616.124	22.81
616.315	22.9
616.507	22.95
616.699	22.87
616.891	22.68
617.083	22.77
617.275	22.65
617.467	22.55
617.659	22.47
617.85	22.33
618.042	22.36
618.234	22.59
618.426	22.74
618.618	22.77
618.809	22.66
619.001	22.77
619.193	22.59
619.384	22.6
619.576	22.62
619.768	22.58
619.959	22.71
620.151	22.69
620.343	22.47
620.534	22.41
620.726	22.39
620.917	22.33
621.109	22.4
621.301	22.45
621.492	22.28
621.684	22.36
621.875	22.53
622.067	22.47
622.258	22.44
622.45	22.56
622.641	22.42
622.832	22.32
623.024	22.54
623.215	22.52
623.407	22.57
623.598	22.74
623.789	22.8
623.981	22.56
624.172	22.63
624.363	22.72
624.555	22.81
624.746	22.78
624.937	22.86
625.129	22.71
625.32	22.84
625.511	22.9
625.702	22.82
625.893	22.82
626.085	23.01
626.276	22.9
626.467	22.95
626.658	22.9
626.849	23.05
627.04	23.15
627.231	23.34
627.422	23.21
627.614	23.23
627.805	23.32
627.996	23.24
628.187	23.18
628.378	23.31
628.569	23.17
628.76	23.05
628.951	23
629.142	22.97
629.332	23.01
629.523	23.07
629.714	23.09
629.905	23.25
630.096	23.38
630.287	23.34
630.478	23.25
630.669	23.37
630.859	23.48
631.05	23.61
631.241	23.58
631.432	23.42
631.623	23.24
631.813	23.39
632.004	23.23
632.195	23.06
632.385	23.09
632.576	23.19
632.767	23.03
632.957	23.05
633.148	23
633.339	22.96
633.529	23.12
633.72	23.25
633.91	23.01
634.101	23.15
634.292	23.2
634.482	23.2
634.673	23.33
634.863	23.57
635.054	23.54
635.244	23.8
635.435	23.88
635.625	23.9
635.815	23.94
636.006	24.19
636.196	24.17
636.387	24.3
636.577	24.3
636.767	24.01
636.958	24.19
637.148	24.33
637.338	24.23
637.529	24.32
637.719	24.35
637.909	24.33
638.099	24.39
638.29	24.36
638.48	24.28
638.67	24.36
638.86	24.42
639.05	24.2
639.241	24.08
639.431	23.75
639.621	23.77
639.811	23.75
640.001	23.88
640.191	23.72
640.381	23.73
640.571	23.84
640.761	23.82
640.951	24.14
641.141	24.09
641.331	24.04
641.521	24.17
641.711	24.07
641.901	23.88
642.091	23.57
642.281	23.67
642.471	23.6
642.661	23.57
642.851	23.69
643.041	23.53
643.231	23.51
643.42	23.56
643.61	23.6
643.8	23.91
643.99	24.04
644.18	24.17
644.369	24.3
644.559	24.49
644.749	24.53
644.939	24.67
645.128	24.7
645.318	24.59
645.508	24.57
645.697	24.86
645.887	24.55
646.076	24.86
646.266	25.06
646.456	24.88
646.645	24.98
646.835	24.97
647.024	24.91
647.214	24.88
647.403	25.02
647.593	25.22
647.782	25.18
647.972	25.25
648.161	25.1
648.351	25.05
648.54	24.91
648.73	24.84
648.919	25.04
649.108	24.92
649.298	24.84
649.487	24.82
649.677	24.81
649.866	24.49
650.055	24.45
650.244	24.39
650.434	24.21
650.623	24.4
650.812	24.26
651.002	24.29
651.191	24.21
651.38	24.35
651.569	24.58
651.758	24.49
651.947	24.72
652.137	24.97
652.326	25.01
652.515	25.12
652.704	25.17
652.893	25.33
653.082	25.25
653.271	25.31
653.46	25.32
653.649	25.21
653.838	25.27
654.027	25.25
654.216	24.95
654.405	24.88
654.594	24.96
654.783	24.98
654.972	24.77
655.161	24.72
655.35	24.7
655.539	24.75
655.728	24.69
655.916	24.7
656.105	24.84
656.294	24.97
656.483	25
656.672	24.99
656.86	24.76
657.049	24.91
657.238	24.96
657.427	24.93
657.615	24.76
657.804	24.77
657.993	24.65
658.181	24.61
658.37	24.74
658.559	24.67
658.747	24.58
658.936	24.72
659.125	24.66
659.313	24.47
659.502	24.49
659.69	24.63
659.879	24.66
660.067	25.01
660.256	24.98
660.444	24.84
660.633	24.78
660.821	24.78
661.01	24.87
661.198	24.82
661.387	24.94
661.575	25.21
661.763	25.3
661.952	25.25
662.14	24.97
662.328	24.92
662.517	24.99
662.705	25.23
662.893	25.35
663.082	25.28
663.27	25.43
663.458	25.47
663.646	25.31
663.834	24.98
664.023	25.26
664.211	25.39
664.399	25.39
664.587	25.19
664.775	25.07
664.963	25
665.152	25.13
665.34	25.1
665.528	25.19
665.716	25.15
665.904	25.42
666.092	25.33
666.28	25.52
666.468	25.55
666.656	25.75
666.844	25.74
667.032	25.83
667.22	25.95
667.408	26.06
667.596	25.99
667.784	26.04
667.971	25.92
668.159	25.72
668.347	25.32
668.535	25.06
668.723	24.98
668.911	25
669.098	24.97
669.286	24.68
669.474	24.8
669.662	24.83
669.849	24.72
670.037	24.77
670.225	25
670.413	25.04
670.6	25.49
670.788	25.51
670.976	25.48
671.163	25.55
671.351	25.68
671.538	25.55
671.726	25.49
671.913	25.64
672.101	25.6
672.289	25.65
672.476	25.89
672.664	26.01
672.851	26.24
673.039	26.36
673.226	26.37
673.413	26.28
673.601	26.27
673.788	26.31
673.976	26.36
674.163	26.48
674.35	26.22
674.538	26.26
674.725	26.27
674.912	26.17
675.1	26.01
675.287	25.92
675.474	25.9
675.662	25.79
675.849	25.8
676.036	25.84
676.223	26.11
676.411	26.33
676.598	26.12
676.785	25.74
676.972	25.71
677.159	25.83
677.346	25.93
677.533	26.19
677.721	26.13
677.908	26.23
678.095	26.2
678.282	26.16
678.469	26.35
678.656	26.44
678.843	26.5
679.03	26.75
679.217	26.59
679.404	26.58
679.591	26.29
679.778	26.43
679.964	26.38
680.151	26.49
680.338	26.17
680.525	25.95
680.712	26.02
680.899	26.05
681.086	25.91
681.272	26.3
681.459	26.37
681.646	26.6
681.833	26.53
682.02	26.85
682.206	26.58
682.393	26.53
682.58	26.66
682.766	26.45
682.953	26.79
683.14	26.59
683.326	26.47
683.513	26.42
683.7	26.5
683.886	26.78
684.073	26.67
684.259	26.8
684.446	27.08
684.632	26.96
684.819	27.23
685.005	27.11
685.192	27.3
685.378	27.09
685.565	27.15
685.751	26.87
685.938	26.89
686.124	26.74
686.31	26.87
686.497	27.22
686.683	27.28
686.87	27.1
687.056	27.26
687.242	27.24
687.429	27.43
687.615	27.28
687.801	27.46
687.987	27.25
688.174	27.2
688.36	27.13
688.546	26.75
688.732	26.68
688.918	26.94
689.105	26.83
689.291	26.9
689.477	26.85
689.663	26.85
689.849	26.81
690.035	26.99
690.221	26.94
690.407	26.92
690.593	26.99
690.779	26.92
690.965	26.68
691.151	26.65
691.337	26.26
691.523	26.58
691.709	26.78
691.895	26.78
692.081	27.1
692.267	27.07
692.453	26.91
692.639	26.94
692.825	27.05
693.011	27.1
693.196	26.91
693.382	27.25
693.568	27.02
693.754	26.81
693.94	26.76
694.125	26.37
694.311	26.66
694.497	26.92
694.682	26.86
694.868	26.79
695.054	26.76
695.239	26.84
695.425	27.03
695.611	27.04
695.796	27.08
695.982	27.18
696.168	26.94
696.353	27.03
696.539	26.98
696.724	27.03
696.91	27.03
697.095	27.03
697.281	26.79
697.466	26.66
697.652	26.54
697.837	26.48
698.023	26.55
698.208	26.68
698.393	26.51
698.579	26.51
698.764	26.61
698.949	26.66
699.135	26.64
699.32	26.99
699.505	26.89
699.691	27.12
699.876	27.25
700.061	27.04
700.246	27
700.432	26.93
700.617	27.17
700.802	26.79
700.987	26.82
701.172	26.46
701.358	26.08
701.543	26.13
701.728	25.72
701.913	25.75
702.098	25.88
702.283	26.03
702.468	26.08
702.653	25.59
702.838	26.05
703.023	25.94
703.208	26.68
703.393	26.52
703.578	26.61
703.763	27
703.948	26.9
704.133	27.07
704.318	26.92
704.503	26.82
704.688	27.16
704.873	27.22
705.057	27.12
705.242	26.98
705.427	27.21
705.612	27.44
705.797	27.33
705.981	27.29
706.166	26.98
706.351	27
706.536	27.29
706.72	27.06
706.905	27.14
707.09	27.63
707.274	27.72
707.459	28.15
707.644	28
707.828	27.91
708.013	27.97
708.197	28.33
708.382	28.37
708.567	28.26
708.751	28.49
708.936	28.24
709.12	28.12
709.305	27.95
709.489	27.59
709.673	27.45
709.858	27.66
710.042	27.59
710.227	27.42
710.411	27.62
710.596	27.53
710.78	27.43
710.964	27.48
711.149	27.19
711.333	27.55
711.517	27.7
711.702	27.75
711.886	27.52
712.07	27.81
712.254	27.53
712.438	27.3
712.623	27.19
712.807	26.93
712.991	27.09
713.175	27.63
713.359	27.18
713.544	27.04
713.728	26.79
713.912	26.9
714.096	26.88
714.28	27.31
714.464	27.52
714.648	27.6
714.832	27.78
715.016	27.88
715.2	27.45
715.384	27.53
715.568	27.7
715.752	28.25
715.936	28.17
716.12	28.1
716.304	27.88
716.488	28.09
716.671	28.46
716.855	28.54
717.039	28.19
717.223	28.32
717.407	28.32
717.59	28.1
717.774	27.51
717.958	27.87
718.142	27.75
718.325	28.08
718.509	27.71
718.693	27.52
718.877	27.66
719.06	27.97
719.244	27.81
719.428	28.1
719.611	28.63
719.795	29.14
719.978	29.11
720.162	29.15
720.345	28.53
720.529	28.28
720.713	28
720.896	27.67
721.08	27.28
721.263	26.99
721.446	26.87
721.63	26.77
721.813	26.81
721.997	26.31
722.18	26.23
722.364	26.57
722.547	26.6
722.73	26.6
722.914	26.7
723.097	26.83
723.28	26.92
723.464	26.55
723.647	26.13
723.83	26.11
724.013	26.11
724.197	26.35
724.38	26.75
724.563	26.7
724.746	26.73
724.929	26.54
725.112	26.25
725.296	26.83
725.479	26.9
725.662	26.84
725.845	26.88
726.028	27
726.211	26.9
726.394	26.8
726.577	27.12
726.76	27.34
726.943	27.11
727.126	27.5
727.309	27.1
727.492	27.47
727.675	27.91
727.858	28.15
728.041	28.33
728.224	28.25
728.407	27.97
728.589	28.05
728.772	27.65
728.955	28.42
729.138	28.32
729.321	28.68
729.503	28.19
729.686	27.99
729.869	27.25
730.052	27.22
730.234	27.02
730.417	27.07
730.6	26.81
730.782	26.8
730.965	27
731.148	27
731.33	27.04
731.513	27.52
731.695	27.76
731.878	28.49
732.061	28.74
732.243	29.03
732.426	28.93
732.608	29.33
732.791	29.51
732.973	29.4
733.156	29.31
733.338	29.32
733.52	29.19
733.703	28.86
733.885	28.22
734.068	27.92
734.25	27.52
734.432	27.85
734.615	27.74
734.797	27.85
734.979	27.59
735.162	27.84
735.344	27.55
735.526	27.59
735.708	27.49
735.891	28.06
736.073	28.17
736.255	28.51
736.437	27.83
736.619	27.71
736.802	28.33
736.984	28.27
737.166	28.38
737.348	28.88
737.53	28.8
737.712	29.17
737.894	28.93
738.076	28.84
738.258	28.86
738.44	29.16
738.622	29.27
738.804	28.68
738.986	28.38
739.168	28.24
739.35	27.85
739.532	27.91
739.714	28.3
739.896	28.48
740.078	28.55
740.259	28.85
740.441	29.15
740.623	29.57
740.805	29.55
740.987	30.04
741.168	30.26
741.35	30.38
741.532	30.44
741.714	30.32
741.895	30
742.077	30.11
742.259	30.09
742.44	30.03
742.622	30.12
742.804	29.63
742.985	29.31
743.167	29
743.348	28.64
743.53	28.51
743.711	28.08
743.893	28.33
744.075	28.99
744.256	28.65
744.438	28.81
744.619	28.86
744.8	29.37
744.982	29.09
745.163	28.8
745.345	28.63
745.526	28.81
745.707	28.63
745.889	29.39
746.07	28.78
746.252	28.64
746.433	28.41
746.614	27.42
746.795	27.24
746.977	28.06
747.158	28.21
747.339	28.92
747.52	28.22
747.702	28.44
747.883	27.64
748.064	27.18
748.245	27.68
748.426	27.31
748.607	27.52
748.788	27.92
748.97	27.77
749.151	27.43
749.332	27.59
749.513	28.25
749.694	28.41
749.875	28.4
750.056	29.07
750.237	29.27
750.418	30.26
750.599	29.96
750.78	29.27
750.96	29.19
751.141	30.25
751.322	29.98
751.503	30.33
751.684	30.46
751.865	31.03
752.046	30.97
752.226	30.43
752.407	29.62
752.588	29.83
752.769	30.34
752.949	30.4
753.13	29.81
753.311	29.72
753.492	29.29
753.672	28.76
753.853	27.34
754.034	26.93
754.214	26.32
754.395	26.78
754.575	26.55
754.756	26.16
754.937	25.91
755.117	25.73
755.298	25.42
755.478	25.38
755.659	25.83
755.839	25.98
756.02	26.69
756.2	27.61
756.381	27.59
756.561	28.79
756.741	29.57
756.922	28.87
757.102	29.12
757.283	29.25
757.463	29.76
757.643	29.49
757.823	30.09
758.004	29.91
758.184	29.97
758.364	30
758.545	29.32
758.725	28.75
758.905	29.71
759.085	29.66
759.265	29.68
759.446	29.53
759.626	29.49
759.806	29.4
759.986	29.42
760.166	29.3
760.346	29.16
760.526	28.99
760.706	29.14
760.886	28.36
761.066	28.57
761.246	29.65
761.426	29.54
761.606	29.64
761.786	29.28
761.966	28.87
762.146	29.3
762.326	29.5
762.506	29.9
762.686	29.81
762.866	29.95
763.046	29.62
763.225	29.11
763.405	29.02
763.585	28.79
763.765	28.63
763.945	28.85
764.124	28.78
764.304	28.25
764.484	27.98
764.664	28.34
764.843	28.65
765.023	29.04
765.203	28.25
765.382	28.27
765.562	28.41
765.741	29.06
765.921	29.16
766.101	28.65
766.28	29.26
766.46	29.09
766.639	28.58
766.819	28.75
766.998	28.53
767.178	29.2
767.357	29.09
767.537	29.4
767.716	29.55
767.896	29.45
768.075	29.4
768.254	29.31
768.434	29.42
768.613	29.62
768.792	29.73
768.972	30.17
769.151	30.76
769.33	30.55
769.51	29.97
769.689	29.48
769.868	29.8
770.047	29.91
770.226	29.92
770.406	30.65
770.585	30.54
770.764	30.01
770.943	29.82
771.122	29.49
771.301	30.01
771.48	29.89
771.66	30.58
771.839	29.64
772.018	29.7
772.197	29.87
772.376	29.85
772.555	29.7
772.734	30.34
772.913	29.79
773.092	29.64
773.271	29.2
773.449	29.59
773.628	29.26
773.807	30.33
773.986	30.77
774.165	30.77
774.344	30.19
774.523	30.76
774.701	29.54
774.88	29.64
775.059	29.38
775.238	29.28
775.417	29.37
775.595	29.34
775.774	28.89
775.953	28.65
776.131	27.95
776.31	27.97
776.489	28.56
776.667	29.8
776.846	30.36
777.025	30.18
777.203	30.59
777.382	31.26
777.56	31.39
777.739	31.93
777.917	31.23
778.096	32.26
778.274	32.11
778.453	31.18
778.631	30.71
778.81	29.73
778.988	30.79
779.166	30.86
779.345	30.88
779.523	30.79
779.702	30.14
779.88	30.46
780.058	30.25
780.237	30.31
780.415	29.9
780.593	29.96
780.771	31.41
780.95	30.4
781.128	31.02
781.306	29.98
781.484	29.53
781.662	30.12
781.841	30.41
782.019	30.6
782.197	30.25
782.375	31.8
782.553	31.5
782.731	31.2
782.909	31.55
783.087	30.89
783.265	32.04
783.443	33.08
783.621	31.96
783.799	30.91
783.977	30.78
784.155	30.66
784.333	30.27
784.511	29.81
784.689	28.4
784.867	28.57
785.045	29.42
785.223	29.21
785.4	28.04
785.578	28.91
785.756	30.7
785.934	30.37
786.112	30.17
786.289	29.56
786.467	30.86
786.645	31.55
786.823	31.53
787	30.84
787.178	29.95
787.356	30.4
787.533	29.96
787.711	29.18
787.889	29.62
788.066	29.84
788.244	30.34
788.421	28.15
788.599	27.88
788.776	27.92
788.954	27.5
789.131	27.44
789.309	27.81
789.486	28.86
789.664	28.24
789.841	27.65
790.019	27.55
790.196	27.19
790.373	29.43
790.551	30
790.728	29.85
790.906	30.03
791.083	31.45
791.26	30.76
791.437	29.88
791.615	30.34
791.792	30.22
791.969	30.67
792.146	31
792.324	31.14
792.501	30.24
792.678	29.49
792.855	29.95
793.032	29.31
793.209	29.61
793.387	29.38
793.564	30.98
793.741	31
793.918	31.21
794.095	31.06
794.272	29.88
794.449	29.65
794.626	30.36
794.803	30.93
794.98	30.69
795.157	30.19
795.334	30.31
795.511	28.11
795.688	27.97
795.864	26.96
796.041	27.5
796.218	29
796.395	29.53
796.572	28.99
796.749	28.22
796.925	28.48
797.102	28.9
797.279	29.69
797.456	30.96
797.632	31.08
797.809	30.9
797.986	28.99
798.162	27.9
798.339	28.41
798.516	28.88
798.692	28.6
798.869	28.62
799.046	28.84
799.222	28.57
799.399	28.25
799.575	28.46
799.752	29.95
799.928	30.16
800.105	30.24
800.281	29.43
800.458	30.31
800.634	30.95
800.811	30.43
800.987	29.55
801.163	28.8
801.34	28.31
801.516	28.51
801.692	28.06
801.869	28.91
802.045	27.87
802.221	28.78
802.398	27.5
802.574	27.18
802.75	27.1
802.926	28.18
803.103	28.01
803.279	28.32
803.455	28.54
803.631	28.37
803.807	28.05
803.983	29.93
804.16	30.01
804.336	30.15
804.512	29.2
804.688	30.45
804.864	30.38
805.04	29.91
805.216	29.78
805.392	29.54
805.568	30.58
805.744	30.97
805.92	29.52
806.096	28.77
806.272	28.55
806.448	29.88
806.623	28.32
806.799	27.77
806.975	28.27
807.151	29.03
807.327	28.66
807.503	27.18
807.678	26.38
807.854	26.96
808.03	28.36
808.206	27.81
808.381	26.4
808.557	25.87
808.733	26.64
808.908	27.81
809.084	27.27
809.26	27.88
809.435	28.62
809.611	29.25
809.787	28.92
809.962	26.59
810.138	28.87
810.313	30.76
810.489	31.74
810.664	32.03
810.84	31.04
811.015	30.41
811.191	29.02
811.366	28.76
811.542	28.13
811.717	29.95
811.892	30.76
812.068	30.27
812.243	29.01
812.419	29.26
812.594	27.82
812.769	29.22
812.944	29.83
813.12	31.83
813.295	32.01
813.47	32.47
813.645	30.35
813.821	30.45
813.996	27.72
814.171	27.33
814.346	26.77
814.521	28.87
814.697	28.01
814.872	27.59
815.047	25.88
815.222	27.44
815.397	27.48
815.572	28.67
815.747	28.95
815.922	30.28
816.097	31.03
816.272	30.65
816.447	29.35
816.622	29.22
816.797	29.63
816.972	30.39
817.147	28.78
817.322	29.21
817.496	27.7
817.671	27.19
817.846	27.93
818.021	29.56
818.196	31.14
818.371	30.25
818.545	30.12
818.72	31.48
818.895	31.46
819.069	31.66
819.244	30.92
819.419	32.55
819.594	32.94
819.768	33.41
819.943	32.14
820.117	31.71
820.292	31.56
820.467	31.42
820.641	30.76
820.816	30.69
820.99	30.87
821.165	31.38
821.339	31.07
821.514	30.92
821.688	30.92
821.863	31.22
822.037	31.19
822.212	31.49
822.386	31.34
822.56	31.67
822.735	31.77
822.909	31.82
823.084	31.71
823.258	31.69
823.432	31.84
823.606	31.67
823.781	31.34
823.955	31.27
824.129	31.24
824.303	31.69
824.478	31.5
824.652	30.9
824.826	30.17
825	30.03
825.174	29.97
825.348	29.74
825.523	29.35
825.697	29.48
825.871	29.56
826.045	29.51
826.219	29.49
826.393	29.18
826.567	29.06
826.741	29.53
826.915	29.78
827.089	29.88
827.263	29.87
827.437	30.1
827.611	29.88
827.784	29.88
827.958	29.84
828.132	29.77
828.306	29.57
828.48	31.03
828.654	30.98
828.827	30.44
829.001	29.36
829.175	30.03
829.349	29.9
829.522	29.33
829.696	28.97
829.87	29.11
830.044	29.08
830.217	29.45
830.391	28.01
830.565	28.5
830.738	29.57
830.912	30.58
831.085	29.21
831.259	28.85
831.432	29.7
831.606	29.9
831.779	29.65
831.953	28.72
832.126	29.37
832.3	29.74
832.473	29.71
832.647	28.19
832.82	28.94
832.994	30.05
833.167	30.58
833.34	30.24
833.514	30.53
833.687	29.87
833.86	30.35
834.034	29.37
834.207	29.51
834.38	29.46
834.553	30.39
834.727	30.46
834.9	30
835.073	30.23
835.246	31.53
835.419	31.03
835.593	31.49
835.766	30.26
835.939	31.06
836.112	31.52
836.285	30.42
836.458	30.61
836.631	29.77
836.804	30.15
836.977	29.64
837.15	28.32
837.323	28.91
837.496	27.03
837.669	27.95
837.842	27.61
838.015	27.44
838.188	28.15
838.361	27.28
838.533	28.31
838.706	26.85
838.879	26.41
839.052	24.58
839.225	22.03
839.398	25.11
839.57	25.81
839.743	25.77
839.916	25.88
840.088	26.49
840.261	26.22
840.434	26.39
840.607	27.6
840.779	27.54
840.952	30.28
841.124	33.24
841.297	33.81
841.47	34.95
841.642	33.54
841.815	32.58
841.987	32.91
842.16	33
842.332	31.8
842.505	31.48
842.677	31.72
842.85	31.35
843.022	29.83
843.194	27.03
843.367	25.06
843.539	25.54
843.712	24.28
843.884	22.73
844.056	23.13
844.229	21.43
844.401	20.24
844.573	19.16
844.745	16.84
844.918	16.51
845.09	18.07
845.262	19.47
845.434	20.91
845.606	23.72
845.779	25.51
845.951	23.06
846.123	25.15
846.295	24.09
846.467	24.77
846.639	25.85
846.811	27.68
846.983	28.18
847.155	27.11
847.327	26.13
847.499	25.42
847.671	23.36
847.843	29.58
848.015	28.95
848.187	29.19
848.359	27.46
848.531	21.43
848.703	20.1
848.875	19.47
849.047	18.43
849.218	18.89
849.39	15.8
849.562	14.64
849.734	9.04
849.905	10.61
850.077	10.5
850.249	15.28
850.421	21.9
850.592	21.02
850.764	20.6
850.936	23.92
851.107	20.97
851.279	16.49
851.451	21.16
851.622	17.81
851.794	19.27
851.965	19.75
852.137	14.85
852.308	12.93
852.48	12.83
852.651	14.62
852.823	11.75
852.994	15.96
853.166	21.71
853.337	19.25
853.509	21.28
853.68	18.88
853.851	20.39
854.023	19.98
854.194	19.42
854.365	21.24
854.537	21.05
854.708	20.65
854.879	16.85
855.05	16.35
855.222	18.31
855.393	22.61
855.564	20.25
855.735	18.34
855.906	20.87
856.078	21.29
856.249	18.59
856.42	13.24
856.591	19.52
856.762	21.98
856.933	20.18
857.104	14.57
857.275	11.98
857.446	17.77
857.617	18.47
857.788	19.4
857.959	20.91
858.13	23.87
858.301	29.05
858.472	23.31
858.643	24.21
858.814	26.73
858.985	32.14
859.155	34.03
859.326	31.72
859.497	31.29
859.668	32.31
859.839	30.99
860.009	28.37
860.18	27.65
860.351	26.21
860.522	28.49
860.692	31.62
860.863	26.19
861.034	20.29
861.204	18.89
861.375	18.44
861.546	15.36
861.716	17.01
861.887	22.21
862.057	21.51
862.228	23.06
862.398	20.57
862.569	16.35
862.739	18.97
862.91	27.55
863.08	27.07
863.251	27.46
863.421	26.41
863.592	26.83
863.762	27.04
863.932	30.87
864.103	33.08
864.273	31.15
864.443	30.78
864.614	28.44
864.784	19.72
864.954	21.94
865.125	21.1
865.295	23.94
865.465	22
865.635	17.87
865.805	12.13
865.976	8.63
866.146	10.29
866.316	9.34
866.486	13.7
866.656	18.45
866.826	18.44
866.996	14.9
867.166	13.58
867.336	15.15
867.506	16.28
867.676	21.6
867.846	21.63
868.016	21.78
868.186	22.04
868.356	17.63
868.526	16.9
868.696	13.95
868.866	18.26
869.036	13.24
869.206	13.85
869.376	11.33
869.545	2.84
869.715	8.05
869.885	8.04
870.055	7.75
870.224	8.55
870.394	8.73
870.564	11.12
870.734	9.58
870.903	13.1
871.073	12.03
871.243	10.64
871.412	16.69
871.582	14.16
871.751	12.76
871.921	14.48
872.091	12.88
872.26	10.26
872.43	15.32
872.599	15.52
872.769	15.85
872.938	17.19
873.108	20.4
873.277	23.14
873.446	21.77
873.616	23.37
873.785	23.56
873.955	26.29
874.124	25.62
874.293	20.16
874.463	22.98
874.632	25.33
874.801	24.96
874.971	20.53
875.14	20.24
875.309	20.97
875.478	19.46
875.647	16.72
875.817	15.97
875.986	19.39
876.155	24.71
876.324	24.74
876.493	24.81
876.662	27.96
876.831	31.17
877	27.27
877.17	25.78
877.339	24.22
877.508	27.82
877.677	26.5
877.846	25.64
878.015	19.78
878.184	17.15
878.352	13.59
878.521	12.44
878.69	8.93
878.859	10.92
879.028	13.04
879.197	18.25
879.366	13.22
879.534	16.55
879.703	19.11
879.872	22.45
880.041	24.51
880.21	27.19
880.378	26.9
880.547	29.27
880.716	29.71
880.884	30.53
881.053	31.14
881.222	33.86
881.39	34.2
881.559	34
881.727	33.7
881.896	33.83
882.065	33.54
882.233	33.96
882.402	33.92
882.57	33.82
882.739	33.44
882.907	32.68
883.076	32.16
883.244	31.77
883.412	31.63
883.581	31.45
883.749	31.54
883.918	31.92
884.086	32.02
884.254	32.15
884.423	32.79
884.591	33.3
884.759	33.17
884.927	32.85
885.096	32.71
885.264	32.42
885.432	32.92
885.6	31.39
885.769	29.86
885.937	30.01
886.105	30.64
886.273	28.82
886.441	29.62
886.609	31.22
886.777	29.55
886.945	30.35
887.113	31.07
887.281	30.74
887.449	30.75
887.617	32.9
887.785	30.39
887.953	28.13
888.121	30.67
888.289	26.67
888.457	26.03
888.625	26.13
888.793	28.01
888.961	26.77
889.129	29.26
889.296	31.7
889.464	30.9
889.632	32.47
889.8	33.18
889.967	31.47
890.135	35.95
