Data from 2938535_Reflection_2.txt Node
Date: Mon Jun 15 23:52:33 EDT 2015
User: robert
Spectrometer: USB4E03002
Autoset integration time: false
Trigger mode: 4
Integration Time (sec): 1.000000E-1
Scans to average: 10
Electric dark correction enabled: true
Nonlinearity correction enabled: false
Boxcar width: 6
Stray light correction enabled: false
XAxis mode: Wavelengths
Stop averaging: false
Number of Pixels in Spectrum: 3648
>>>>>Begin Spectral Data<<<<<
177.575	-78.13
177.794	-127.47
178.014	-134.09
178.233	-136.65
178.452	-762.03
178.672	-306.27
178.891	60
179.11	-229.84
179.33	-206.99
179.549	-258.15
179.768	-241.09
179.987	-436.59
180.207	-157.88
180.426	-189.86
180.645	-176.44
180.864	-128.26
181.084	-162.38
181.303	-178.32
181.522	-169.02
181.741	-167.56
181.96	-149.91
182.179	-136.35
182.398	-147.6
182.618	-217.02
182.837	-150.73
183.056	-185.41
183.275	-103.26
183.494	-164.05
183.713	-227.68
183.932	-194
184.151	-376.74
184.37	-361.18
184.589	-235.95
184.808	-443.85
185.027	-826.92
185.246	-360.61
185.465	-219.96
185.684	-377.3
185.903	-448.89
186.122	-3172.34
186.341	7320
186.56	1902.47
186.779	3730.77
186.998	-787.32
187.216	4830.77
187.435	527.38
187.654	1413.59
187.873	6247.62
188.092	1117.97
188.311	1008.73
188.53	5475
188.748	-6710
188.967	-1045.45
189.186	-3141.46
189.405	-1600
189.623	2698.08
189.842	859.01
190.061	11618.18
190.28	-1145.05
190.498	-2473.68
190.717	-1875.68
190.936	-10550
191.154	-4248.65
191.373	17622.22
191.592	5866.67
191.81	4262.16
192.029	2530.65
192.248	2822.22
192.466	-6708.33
192.685	-1126.03
192.904	-1471.9
193.122	3712.24
193.341	6081.48
193.559	717.93
193.778	1115.58
193.996	506.32
194.215	533.11
194.433	481.02
194.652	538.08
194.87	751.7
195.089	397.97
195.307	402.91
195.526	298.37
195.744	332.17
195.963	801.64
196.181	823.7
196.399	4251.52
196.618	980.15
196.836	-623.53
197.055	-530.09
197.273	-1096.67
197.491	-368.85
197.71	-743.01
197.928	-281.31
198.146	-291.69
198.365	-285.29
198.583	-451.42
198.801	31825
199.019	1428.42
199.238	2310.34
199.456	4412.5
199.674	803.55
199.892	989.74
200.111	5060.71
200.329	491.05
200.547	609.76
200.765	553.13
200.983	635.04
201.202	700.78
201.42	1233.79
201.638	924.18
201.856	2750
202.074	1329.57
202.292	967.6
202.51	780.36
202.728	736.47
202.946	489.8
203.165	443.67
203.383	434.07
203.601	420.22
203.819	302.44
204.037	341.89
204.255	308.45
204.473	486.98
204.691	432.97
204.909	306.72
205.127	367.28
205.345	362.96
205.562	399.09
205.78	816.13
205.998	412.54
206.216	364.08
206.434	305
206.652	367.7
206.87	325.68
207.088	272.45
207.306	303.1
207.523	287.63
207.741	400
207.959	303.14
208.177	372.96
208.395	334.96
208.612	286.29
208.83	433.55
209.048	457.24
209.266	458.91
209.483	407.98
209.701	586.9
209.919	1410.77
210.136	535.68
210.354	513.71
210.572	470.56
210.79	552.8
211.007	417.31
211.225	428.34
211.442	395.83
211.66	275.52
211.878	279.09
212.095	297.03
212.313	258.26
212.53	227.61
212.748	202.83
212.966	230.63
213.183	238.49
213.401	221.12
213.618	231.73
213.836	229.68
214.053	213.83
214.271	263.23
214.488	484.47
214.705	306.14
214.923	259.71
215.14	274.63
215.358	175.9
215.575	185.89
215.793	148.89
216.01	137.26
216.227	146.82
216.445	121.74
216.662	108.23
216.879	104.83
217.097	79.55
217.314	77.19
217.531	83.78
217.749	99.14
217.966	86.73
218.183	88.6
218.4	84.93
218.618	87.86
218.835	81.3
219.052	69.42
219.269	72.35
219.487	81.24
219.704	77.67
219.921	77.14
220.138	69.75
220.355	68.2
220.572	55
220.79	63.5
221.007	64.6
221.224	67.25
221.441	73.12
221.658	78.57
221.875	70.58
222.092	58.23
222.309	56.1
222.526	52.53
222.743	53.5
222.96	50.04
223.177	48.72
223.394	49.94
223.611	44.93
223.828	42.49
224.045	43.04
224.262	38.74
224.479	32.65
224.696	35.44
224.913	36.8
225.13	33.04
225.347	30.88
225.564	28.46
225.781	27.82
225.997	25.8
226.214	24.1
226.431	22.15
226.648	21.87
226.865	20.78
227.082	21.93
227.298	22.14
227.515	20.86
227.732	20.01
227.949	19.37
228.165	20.03
228.382	20.39
228.599	20.36
228.816	19.81
229.032	20.95
229.249	21.7
229.466	21.92
229.682	20.86
229.899	19.18
230.116	18.19
230.332	17.42
230.549	17.56
230.765	18.84
230.982	18.46
231.199	18.2
231.415	17.65
231.632	16.42
231.848	15.93
232.065	15.11
232.281	15.65
232.498	17.91
232.714	18.51
232.931	19.15
233.147	19.89
233.364	19.96
233.58	19.91
233.797	20.16
234.013	19.73
234.23	19.94
234.446	21.96
234.662	22.53
234.879	22.82
235.095	22.33
235.312	23.28
235.528	21.71
235.744	21.3
235.961	20.8
236.177	22.77
236.393	22.29
236.61	20.56
236.826	22.99
237.042	24.27
237.258	23.91
237.475	21.86
237.691	20.25
237.907	19.94
238.123	17.89
238.339	19.48
238.556	19.99
238.772	20.33
238.988	18.84
239.204	18.69
239.42	18.44
239.636	17.08
239.853	15.83
240.069	16
240.285	15.77
240.501	16.02
240.717	16.45
240.933	16.3
241.149	15.96
241.365	15.8
241.581	15.69
241.797	14.63
242.013	14.55
242.229	14.2
242.445	14.32
242.661	14.23
242.877	13.6
243.093	13.59
243.309	13.73
243.525	12.52
243.741	12.5
243.957	12.07
244.173	11.87
244.388	11.71
244.604	12.45
244.82	11.94
245.036	12.13
245.252	11.73
245.468	11.57
245.683	11.34
245.899	11.42
246.115	11.41
246.331	11.28
246.547	11.24
246.762	11.07
246.978	10.58
247.194	10.58
247.409	10.7
247.625	10.9
247.841	11.23
248.057	11.01
248.272	11.1
248.488	11.19
248.703	11.31
248.919	10.9
249.135	11.17
249.35	11.41
249.566	11.43
249.782	12.45
249.997	11.87
250.213	11.23
250.428	10.91
250.644	10.79
250.859	11.41
251.075	12.11
251.29	12.26
251.506	12.06
251.721	12.13
251.937	12.91
252.152	13
252.368	14.03
252.583	13.96
252.798	14.69
253.014	14.78
253.229	15.29
253.445	15.64
253.66	15.44
253.875	14.68
254.091	15.09
254.306	14.81
254.521	15.02
254.737	13.34
254.952	12.38
255.167	11.2
255.383	10.9
255.598	11.21
255.813	10.87
256.028	10.64
256.244	9.44
256.459	9.04
256.674	8.41
256.889	7.51
257.104	7.63
257.32	7.52
257.535	7.53
257.75	7.57
257.965	7.5
258.18	7.6
258.395	7.39
258.61	7.62
258.826	7.69
259.041	7.89
259.256	7.99
259.471	8.12
259.686	8.66
259.901	8.56
260.116	8.51
260.331	8.97
260.546	8.97
260.761	9.14
260.976	9.2
261.191	9.29
261.406	9.02
261.621	8.9
261.836	8.89
262.05	9.28
262.265	10.06
262.48	9.28
262.695	9.61
262.91	9.58
263.125	9.47
263.34	9.72
263.555	9.21
263.769	8.4
263.984	9.19
264.199	9.6
264.414	9.61
264.629	9.4
264.843	9.33
265.058	8.58
265.273	8.47
265.488	8.32
265.702	8.08
265.917	8.2
266.132	8.6
266.346	9.13
266.561	9.87
266.776	9.59
266.99	9.89
267.205	9.53
267.42	9.42
267.634	9.27
267.849	9.93
268.063	10.67
268.278	10.32
268.492	10.54
268.707	10.2
268.922	9.51
269.136	9.5
269.351	9.13
269.565	8.41
269.78	8.46
269.994	8.46
270.209	8.37
270.423	8.26
270.637	7.77
270.852	7.77
271.066	8.44
271.281	8.58
271.495	8.91
271.709	9.26
271.924	9.26
272.138	9.48
272.353	9.94
272.567	9.78
272.781	10.3
272.996	10.79
273.21	11.24
273.424	11.8
273.638	11.63
273.853	11.29
274.067	11.38
274.281	10.95
274.495	10.62
274.71	10.48
274.924	10.13
275.138	9.97
275.352	10.22
275.566	9.99
275.781	9.78
275.995	9.69
276.209	9.42
276.423	8.7
276.637	8.04
276.851	7.81
277.065	8.25
277.279	8.67
277.493	8.92
277.707	8.98
277.921	9.19
278.135	8.22
278.349	8.06
278.563	8.12
278.777	7.94
278.991	8.01
279.205	8.46
279.419	8.88
279.633	8.89
279.847	8.3
280.061	8.57
280.275	8.52
280.489	8.67
280.703	8.6
280.917	8.58
281.131	8.83
281.344	8.81
281.558	8.77
281.772	8.2
281.986	8.3
282.2	8.37
282.414	8.17
282.627	8.17
282.841	7.78
283.055	7.7
283.269	7.56
283.482	7.3
283.696	7.54
283.91	6.92
284.123	6.8
284.337	6.54
284.551	6.68
284.764	6.45
284.978	6.04
285.192	6.06
285.405	6.41
285.619	6.5
285.833	6.34
286.046	6.35
286.26	6.27
286.473	6.51
286.687	6.85
286.9	7.02
287.114	7.15
287.327	7.24
287.541	7.36
287.754	8.12
287.968	8.08
288.181	7.58
288.395	7.6
288.608	7.62
288.822	7.53
289.035	8.15
289.248	8.07
289.462	7.98
289.675	7.96
289.889	7.74
290.102	7.95
290.315	7.85
290.529	7.35
290.742	7.33
290.955	7.91
291.169	7.96
291.382	8.18
291.595	8.31
291.808	7.65
292.022	7.42
292.235	7.81
292.448	7.75
292.661	8.39
292.875	8.44
293.088	8.93
293.301	8.85
293.514	8.8
293.727	8.57
293.94	8.47
294.153	8.16
294.367	8
294.58	8.11
294.793	8.42
295.006	8.37
295.219	8.25
295.432	7.99
295.645	7.73
295.858	7.18
296.071	7.22
296.284	7.37
296.497	7.28
296.71	7.41
296.923	7.67
297.136	7.72
297.349	7.75
297.562	7.46
297.775	7.42
297.988	7.78
298.201	7.84
298.414	7.92
298.626	7.9
298.839	7.81
299.052	7.81
299.265	7.85
299.478	7.65
299.691	7.36
299.903	7.73
300.116	8.11
300.329	7.83
300.542	7.83
300.755	7.73
300.967	7.65
301.18	7.42
301.393	7.9
301.605	8.35
301.818	8.31
302.031	8.46
302.243	8.62
302.456	8.74
302.669	8.88
302.881	8.76
303.094	9.21
303.307	9.06
303.519	9.21
303.732	9.1
303.944	9.54
304.157	9.39
304.37	9.22
304.582	9.59
304.795	9.7
305.007	9.28
305.22	9.07
305.432	8.48
305.645	8.54
305.857	8.74
306.069	8.85
306.282	8.7
306.494	9.17
306.707	9.05
306.919	8.96
307.132	9.04
307.344	8.8
307.556	8.76
307.769	8.79
307.981	9.07
308.193	8.93
308.406	8.7
308.618	8.37
308.83	8.37
309.043	8.11
309.255	7.95
309.467	7.95
309.679	8.21
309.892	7.86
310.104	8.04
310.316	7.94
310.528	8.26
310.74	8.25
310.953	8.36
311.165	8.6
311.377	8.68
311.589	8.65
311.801	8.58
312.013	8.85
312.225	9.1
312.437	9.49
312.649	9.55
312.862	9.28
313.074	9.66
313.286	9.13
313.498	8.94
313.71	9.17
313.922	9.04
314.134	9.37
314.346	9.56
314.558	9.89
314.77	9.75
314.982	9.51
315.193	9.14
315.405	9.17
315.617	9.56
315.829	9.14
316.041	9.39
316.253	9.7
316.465	9.13
316.677	9.43
316.888	9.28
317.1	9.22
317.312	9.24
317.524	9.13
317.736	9.43
317.947	9.62
318.159	10.03
318.371	10.18
318.583	10.53
318.794	11.16
319.006	11.14
319.218	11.85
319.43	11.61
319.641	11.42
319.853	11.58
320.064	11.71
320.276	11.99
320.488	12.15
320.699	11.92
320.911	11.71
321.123	11.35
321.334	11.35
321.546	10.64
321.757	10.62
321.969	10.63
322.18	10.7
322.392	11.01
322.603	10.83
322.815	10.47
323.026	9.98
323.238	9.92
323.449	9.93
323.661	10.26
323.872	10.36
324.083	10.26
324.295	10.05
324.506	9.83
324.718	9.69
324.929	9.14
325.14	9.04
325.352	8.87
325.563	8.88
325.774	9.43
325.986	9.34
326.197	9.37
326.408	9.34
326.62	9.07
326.831	9.25
327.042	9.65
327.253	9.81
327.464	9.72
327.676	10.28
327.887	10.25
328.098	10.63
328.309	10.87
328.52	10.6
328.732	10.34
328.943	10
329.154	9.87
329.365	9.83
329.576	9.64
329.787	9.54
329.998	9.6
330.209	9.92
330.42	9.58
330.631	9.84
330.842	9.72
331.053	9.66
331.264	9.7
331.475	10
331.686	10.32
331.897	10.13
332.108	10.71
332.319	10.66
332.53	10.69
332.741	10.85
332.952	10.43
333.163	10.64
333.374	10.01
333.585	10.14
333.795	9.97
334.006	9.95
334.217	10.17
334.428	10.36
334.639	10.41
334.849	9.81
335.06	9.52
335.271	9.47
335.482	9.03
335.692	9.4
335.903	9.42
336.114	9.99
336.325	9.94
336.535	10.42
336.746	10.53
336.957	10.52
337.167	10.27
337.378	11
337.589	11.07
337.799	11.61
338.01	11.59
338.22	11.75
338.431	11.62
338.642	11.62
338.852	11.4
339.063	11.28
339.273	10.82
339.484	10.59
339.694	10.7
339.905	10.69
340.115	10.1
340.326	10.33
340.536	9.87
340.746	9.92
340.957	9.98
341.167	9.77
341.378	9.83
341.588	9.64
341.799	9.29
342.009	9.2
342.219	9.14
342.43	8.47
342.64	8.41
342.85	8.13
343.061	8.24
343.271	8.36
343.481	8.24
343.691	7.95
343.902	8.28
344.112	8.13
344.322	8.19
344.532	8.43
344.743	8
344.953	7.94
345.163	8.03
345.373	8.01
345.583	8.34
345.793	8.11
346.004	8.07
346.214	8.46
346.424	8.98
346.634	8.82
346.844	8.65
347.054	8.93
347.264	9.41
347.474	9.92
347.684	10.06
347.894	10.28
348.104	10.15
348.314	10.2
348.524	9.92
348.734	10.19
348.944	10.17
349.154	10.01
349.364	9.84
349.574	10.06
349.784	9.89
349.994	9.5
350.204	9.52
350.413	9.45
350.623	9.13
350.833	9.08
351.043	8.83
351.253	8.97
351.463	8.72
351.672	8.46
351.882	8.43
352.092	8.36
352.302	8.3
352.511	7.93
352.721	8
352.931	8.13
353.141	8.15
353.35	8.18
353.56	8.34
353.77	8.4
353.979	8.42
354.189	8.21
354.399	8.17
354.608	8.18
354.818	8.51
355.027	8.41
355.237	8.53
355.447	8.44
355.656	8.02
355.866	7.78
356.075	7.84
356.285	7.74
356.494	7.78
356.704	7.62
356.913	7.62
357.123	7.75
357.332	7.7
357.542	7.54
357.751	7.56
357.96	7.57
358.17	7.41
358.379	7.79
358.589	7.9
358.798	7.72
359.007	7.62
359.217	7.22
359.426	7.4
359.635	7.57
359.845	7.41
360.054	7.11
360.263	7.17
360.472	7.12
360.682	7.2
360.891	7.09
361.1	7.08
361.309	7.1
361.519	7.26
361.728	7.48
361.937	7.72
362.146	7.75
362.355	7.7
362.564	7.59
362.774	7.72
362.983	7.44
363.192	7.27
363.401	7.08
363.61	7.62
363.819	7.46
364.028	7.35
364.237	7.19
364.446	6.94
364.655	6.93
364.864	6.92
365.073	7.04
365.282	6.91
365.491	6.97
365.7	7.02
365.909	7.23
366.118	7.4
366.327	7.12
366.536	7.19
366.745	7.39
366.954	7.59
367.162	7.54
367.371	7.77
367.58	7.52
367.789	7.22
367.998	7.56
368.207	7.58
368.415	7.59
368.624	7.55
368.833	7.57
369.042	7.53
369.25	7.57
369.459	7.55
369.668	7.3
369.877	7.45
370.085	7.11
370.294	7.2
370.503	7.41
370.711	7.27
370.92	7.53
371.129	7.55
371.337	7.32
371.546	7.47
371.754	7.2
371.963	7.01
372.171	6.81
372.38	6.85
372.589	6.85
372.797	6.77
373.006	6.87
373.214	6.82
373.423	7.03
373.631	6.69
373.84	6.94
374.048	6.91
374.256	6.83
374.465	7.1
374.673	7.03
374.882	7.06
375.09	7.17
375.298	7.19
375.507	7.39
375.715	7.08
375.923	6.95
376.132	6.61
376.34	6.67
376.548	6.52
376.757	6.78
376.965	6.64
377.173	6.54
377.381	6.62
377.59	6.7
377.798	6.37
378.006	6.2
378.214	6.02
378.423	6.14
378.631	6
378.839	6.22
379.047	6.25
379.255	6.27
379.463	5.97
379.671	5.89
379.879	5.81
380.088	5.92
380.296	5.97
380.504	6.3
380.712	6.26
380.92	6.39
381.128	6.45
381.336	6.59
381.544	6.46
381.752	6.47
381.96	6.22
382.168	6.44
382.376	6.49
382.584	6.56
382.791	6.56
382.999	6.4
383.207	6.29
383.415	6.38
383.623	6.27
383.831	6.38
384.039	6.21
384.247	6.37
384.454	6.14
384.662	6.27
384.87	6.04
385.078	5.95
385.285	5.74
385.493	5.43
385.701	5.4
385.909	5.47
386.116	5.26
386.324	5.28
386.532	5.18
386.739	5.39
386.947	5.22
387.155	5.3
387.362	5.36
387.57	5.59
387.778	5.63
387.985	5.7
388.193	5.87
388.4	5.95
388.608	5.8
388.816	5.97
389.023	5.96
389.231	5.96
389.438	5.85
389.646	5.79
389.853	5.71
390.061	5.6
390.268	5.5
390.475	5.55
390.683	5.54
390.89	5.42
391.098	5.4
391.305	5.4
391.512	5.4
391.72	5.19
391.927	5.08
392.135	4.97
392.342	5.12
392.549	5.14
392.756	4.95
392.964	4.98
393.171	4.76
393.378	4.91
393.586	4.9
393.793	4.8
394	4.81
394.207	4.72
394.414	4.81
394.622	4.73
394.829	4.76
395.036	4.7
395.243	4.77
395.45	4.89
395.657	4.69
395.864	4.88
396.072	4.78
396.279	4.97
396.486	5.03
396.693	5.04
396.9	5.16
397.107	5.42
397.314	5.53
397.521	5.5
397.728	5.37
397.935	5.2
398.142	5.2
398.349	5.3
398.556	5.24
398.763	5.23
398.97	5.09
399.177	4.99
399.383	4.99
399.59	4.89
399.797	4.85
400.004	5.04
400.211	5.08
400.418	5.13
400.625	5.13
400.831	5.04
401.038	5.13
401.245	5.14
401.452	5.05
401.658	5.1
401.865	5.16
402.072	5.14
402.279	5.04
402.485	4.8
402.692	4.59
402.899	4.54
403.105	4.36
403.312	4.33
403.519	4.39
403.725	4.22
403.932	4.24
404.138	4.26
404.345	4.15
404.552	4.14
404.758	4.14
404.965	4.06
405.171	4.11
405.378	4.08
405.584	4.09
405.791	4.21
405.997	4.4
406.204	4.45
406.41	4.65
406.617	4.55
406.823	4.44
407.029	4.48
407.236	4.37
407.442	4.42
407.649	4.4
407.855	4.43
408.061	4.41
408.268	4.42
408.474	4.3
408.68	4.29
408.887	4.25
409.093	4.07
409.299	4.07
409.505	4
409.712	3.89
409.918	3.89
410.124	3.82
410.33	3.76
410.537	3.76
410.743	3.74
410.949	3.76
411.155	3.94
411.361	3.8
411.567	3.63
411.773	3.58
411.98	3.6
412.186	3.77
412.392	3.83
412.598	3.97
412.804	3.99
413.01	4.11
413.216	4.17
413.422	4.21
413.628	4.15
413.834	4.15
414.04	4.18
414.246	4.4
414.452	4.42
414.658	4.31
414.864	4.26
415.07	4.24
415.275	4.11
415.481	4.1
415.687	4.06
415.893	3.83
416.099	3.79
416.305	3.78
416.511	3.67
416.716	3.63
416.922	3.64
417.128	3.78
417.334	3.87
417.539	3.85
417.745	3.86
417.951	3.92
418.157	3.84
418.362	3.87
418.568	3.88
418.774	3.8
418.979	3.74
419.185	3.76
419.391	3.75
419.596	3.64
419.802	3.6
420.008	3.76
420.213	3.76
420.419	3.75
420.624	3.68
420.83	3.68
421.035	3.69
421.241	3.72
421.446	3.81
421.652	3.83
421.857	3.75
422.063	3.71
422.268	3.7
422.474	3.61
422.679	3.42
422.885	3.37
423.09	3.32
423.295	3.32
423.501	3.34
423.706	3.24
423.911	3.22
424.117	3.18
424.322	3.16
424.527	3.28
424.733	3.23
424.938	3.2
425.143	3.19
425.349	3.17
425.554	3.28
425.759	3.32
425.964	3.35
426.169	3.37
426.375	3.43
426.58	3.45
426.785	3.51
426.99	3.56
427.195	3.44
427.4	3.61
427.605	3.78
427.811	3.88
428.016	3.87
428.221	3.74
428.426	3.67
428.631	3.67
428.836	3.63
429.041	3.53
429.246	3.53
429.451	3.49
429.656	3.42
429.861	3.48
430.066	3.42
430.271	3.28
430.476	3.19
430.681	3.22
430.886	3.27
431.09	3.3
431.295	3.32
431.5	3.29
431.705	3.39
431.91	3.35
432.115	3.39
432.32	3.39
432.524	3.39
432.729	3.34
432.934	3.4
433.139	3.46
433.343	3.34
433.548	3.29
433.753	3.41
433.958	3.34
434.162	3.32
434.367	3.37
434.572	3.45
434.776	3.48
434.981	3.5
435.186	3.51
435.39	3.52
435.595	3.48
435.799	3.43
436.004	3.46
436.209	3.56
436.413	3.39
436.618	3.4
436.822	3.45
437.027	3.38
437.231	3.25
437.436	3.13
437.64	3.23
437.845	3.26
438.049	3.31
438.253	3.35
438.458	3.35
438.662	3.34
438.867	3.35
439.071	3.27
439.275	3.32
439.48	3.3
439.684	3.28
439.888	3.38
440.093	3.38
440.297	3.3
440.501	3.21
440.706	3.22
440.91	3.2
441.114	3.21
441.318	3.26
441.523	3.21
441.727	3.33
441.931	3.34
442.135	3.31
442.339	3.43
442.543	3.45
442.748	3.46
442.952	3.45
443.156	3.52
443.36	3.52
443.564	3.46
443.768	3.35
443.972	3.36
444.176	3.37
444.38	3.38
444.584	3.26
444.788	3.3
444.992	3.22
445.196	3.18
445.4	3.05
445.604	3.09
445.808	2.99
446.012	2.88
446.216	2.82
446.42	2.9
446.624	2.76
446.828	2.69
447.032	2.63
447.235	2.66
447.439	2.61
447.643	2.56
447.847	2.54
448.051	2.69
448.254	2.64
448.458	2.7
448.662	2.72
448.866	2.73
449.069	2.75
449.273	2.81
449.477	2.8
449.681	2.86
449.884	2.9
450.088	2.93
450.292	2.91
450.495	2.95
450.699	2.93
450.902	2.87
451.106	2.87
451.31	2.92
451.513	3.01
451.717	2.97
451.92	3.05
452.124	3.1
452.327	3.06
452.531	3.16
452.734	3.13
452.938	3.2
453.141	3.08
453.345	2.97
453.548	3.01
453.752	3.04
453.955	2.97
454.158	2.93
454.362	2.92
454.565	2.88
454.769	2.92
454.972	2.88
455.175	2.81
455.379	2.81
455.582	2.77
455.785	2.88
455.988	3
456.192	2.95
456.395	2.92
456.598	2.97
456.801	3
457.005	3.07
457.208	3
457.411	2.92
457.614	2.9
457.817	2.81
458.021	2.8
458.224	2.78
458.427	2.78
458.63	2.77
458.833	2.78
459.036	2.8
459.239	2.71
459.442	2.71
459.645	2.64
459.848	2.71
460.051	2.75
460.254	2.8
460.457	2.91
460.66	2.97
460.863	2.96
461.066	2.84
461.269	2.89
461.472	2.9
461.675	2.82
461.878	2.88
462.081	2.86
462.284	2.83
462.486	2.79
462.689	2.75
462.892	2.65
463.095	2.69
463.298	2.59
463.5	2.63
463.703	2.72
463.906	2.76
464.109	2.71
464.311	2.8
464.514	2.94
464.717	3.02
464.92	3.11
465.122	3.14
465.325	3.23
465.528	3.29
465.73	3.19
465.933	3.13
466.135	3.09
466.338	3.03
466.541	2.86
466.743	2.83
466.946	2.69
467.148	2.52
467.351	2.43
467.553	2.47
467.756	2.42
467.958	2.31
468.161	2.32
468.363	2.3
468.566	2.33
468.768	2.33
468.971	2.34
469.173	2.35
469.375	2.4
469.578	2.48
469.78	2.63
469.983	2.63
470.185	2.58
470.387	2.61
470.59	2.72
470.792	2.7
470.994	2.65
471.196	2.76
471.399	2.77
471.601	2.83
471.803	2.89
472.005	2.93
472.208	2.86
472.41	2.85
472.612	2.88
472.814	2.86
473.016	2.93
473.218	2.82
473.421	2.87
473.623	2.97
473.825	2.92
474.027	2.92
474.229	2.95
474.431	3.06
474.633	3.07
474.835	3.16
475.037	3.15
475.239	3.14
475.441	3.15
475.643	3.03
475.845	3.05
476.047	3.08
476.249	3.1
476.451	3.09
476.653	3.09
476.855	3.09
477.057	2.93
477.258	2.9
477.46	2.91
477.662	2.84
477.864	2.81
478.066	2.76
478.268	2.82
478.469	2.81
478.671	2.75
478.873	2.7
479.075	2.64
479.276	2.65
479.478	2.64
479.68	2.75
479.882	2.73
480.083	2.68
480.285	2.66
480.487	2.65
480.688	2.71
480.89	2.64
481.091	2.68
481.293	2.65
481.495	2.6
481.696	2.58
481.898	2.56
482.099	2.53
482.301	2.47
482.502	2.47
482.704	2.48
482.905	2.45
483.107	2.44
483.308	2.38
483.51	2.39
483.711	2.39
483.913	2.38
484.114	2.38
484.315	2.39
484.517	2.4
484.718	2.43
484.92	2.46
485.121	2.5
485.322	2.52
485.524	2.58
485.725	2.59
485.926	2.61
486.127	2.61
486.329	2.56
486.53	2.55
486.731	2.57
486.932	2.6
487.134	2.57
487.335	2.55
487.536	2.56
487.737	2.52
487.938	2.5
488.139	2.46
488.341	2.46
488.542	2.46
488.743	2.49
488.944	2.51
489.145	2.54
489.346	2.57
489.547	2.59
489.748	2.65
489.949	2.66
490.15	2.63
490.351	2.66
490.552	2.65
490.753	2.67
490.954	2.68
491.155	2.69
491.356	2.66
491.557	2.66
491.758	2.68
491.959	2.67
492.159	2.66
492.36	2.64
492.561	2.65
492.762	2.67
492.963	2.69
493.164	2.73
493.364	2.72
493.565	2.81
493.766	2.85
493.967	2.86
494.167	2.92
494.368	2.89
494.569	2.92
494.769	2.96
494.97	2.96
495.171	2.95
495.371	3
495.572	2.93
495.773	2.93
495.973	2.98
496.174	2.87
496.375	2.89
496.575	2.96
496.776	2.99
496.976	3.03
497.177	3.04
497.377	3.09
497.578	3.03
497.778	3.09
497.979	3.09
498.179	3.17
498.38	3.2
498.58	3.23
498.78	3.33
498.981	3.38
499.181	3.31
499.382	3.27
499.582	3.3
499.782	3.27
499.983	3.26
500.183	3.33
500.383	3.21
500.584	3.25
500.784	3.29
500.984	3.26
501.184	3.32
501.385	3.32
501.585	3.24
501.785	3.3
501.985	3.35
502.185	3.33
502.386	3.3
502.586	3.27
502.786	3.29
502.986	3.43
503.186	3.33
503.386	3.28
503.586	3.38
503.786	3.37
503.987	3.42
504.187	3.42
504.387	3.46
504.587	3.46
504.787	3.55
504.987	3.58
505.187	3.56
505.387	3.54
505.587	3.58
505.786	3.63
505.986	3.65
506.186	3.64
506.386	3.6
506.586	3.55
506.786	3.56
506.986	3.5
507.186	3.49
507.386	3.41
507.585	3.42
507.785	3.46
507.985	3.52
508.185	3.51
508.384	3.47
508.584	3.47
508.784	3.42
508.984	3.42
509.183	3.43
509.383	3.4
509.583	3.52
509.782	3.59
509.982	3.67
510.182	3.72
510.381	3.71
510.581	3.75
510.781	3.78
510.98	3.87
511.18	3.99
511.379	4.03
511.579	4.14
511.778	4.2
511.978	4.2
512.177	4.2
512.377	4.18
512.576	4.17
512.776	4.21
512.975	4.26
513.175	4.27
513.374	4.3
513.573	4.3
513.773	4.32
513.972	4.36
514.172	4.39
514.371	4.46
514.57	4.59
514.77	4.56
514.969	4.6
515.168	4.63
515.367	4.58
515.567	4.56
515.766	4.54
515.965	4.57
516.164	4.61
516.364	4.55
516.563	4.54
516.762	4.5
516.961	4.52
517.16	4.49
517.359	4.53
517.559	4.53
517.758	4.55
517.957	4.64
518.156	4.72
518.355	4.75
518.554	4.71
518.753	4.73
518.952	4.76
519.151	4.81
519.35	4.79
519.549	4.79
519.748	4.9
519.947	4.92
520.146	4.95
520.345	5.04
520.544	5.11
520.743	5.11
520.942	5.18
521.141	5.28
521.339	5.27
521.538	5.29
521.737	5.34
521.936	5.43
522.135	5.47
522.333	5.41
522.532	5.43
522.731	5.48
522.93	5.44
523.129	5.42
523.327	5.41
523.526	5.41
523.725	5.4
523.923	5.46
524.122	5.5
524.321	5.54
524.519	5.58
524.718	5.64
524.917	5.66
525.115	5.65
525.314	5.73
525.512	5.75
525.711	5.77
525.909	5.78
526.108	5.82
526.306	5.88
526.505	5.87
526.703	5.9
526.902	5.85
527.1	5.86
527.299	5.81
527.497	5.82
527.696	5.86
527.894	5.81
528.092	5.82
528.291	5.82
528.489	5.83
528.688	5.79
528.886	5.77
529.084	5.8
529.283	5.81
529.481	5.89
529.679	5.93
529.877	6.02
530.076	6.11
530.274	6.11
530.472	6.22
530.67	6.24
530.869	6.3
531.067	6.38
531.265	6.46
531.463	6.54
531.661	6.56
531.859	6.59
532.057	6.62
532.255	6.61
532.454	6.62
532.652	6.62
532.85	6.67
533.048	6.68
533.246	6.72
533.444	6.76
533.642	6.81
533.84	6.87
534.038	6.85
534.236	6.89
534.434	6.9
534.632	6.92
534.83	6.97
535.027	6.98
535.225	7.02
535.423	7.01
535.621	7.1
535.819	7.12
536.017	7.11
536.215	7.1
536.412	7.07
536.61	7.11
536.808	7.12
537.006	7.2
537.203	7.25
537.401	7.3
537.599	7.38
537.797	7.43
537.994	7.53
538.192	7.53
538.39	7.57
538.587	7.66
538.785	7.72
538.983	7.78
539.18	7.78
539.378	7.86
539.575	7.82
539.773	7.85
539.97	7.85
540.168	7.85
540.366	7.85
540.563	7.85
540.761	7.85
540.958	7.91
541.155	7.92
541.353	7.91
541.55	7.93
541.748	8
541.945	7.94
542.143	8
542.34	8.03
542.537	8.13
542.735	8.23
542.932	8.3
543.129	8.38
543.327	8.49
543.524	8.47
543.721	8.53
543.919	8.65
544.116	8.74
544.313	8.78
544.51	8.92
544.708	8.97
544.905	9.04
545.102	9.06
545.299	9.07
545.496	9.07
545.693	9.07
545.891	9.09
546.088	9.2
546.285	9.22
546.482	9.24
546.679	9.22
546.876	9.31
547.073	9.34
547.27	9.52
547.467	9.58
547.664	9.59
547.861	9.68
548.058	9.79
548.255	9.98
548.452	10.06
548.649	10.1
548.846	10.15
549.043	10.21
549.24	10.4
549.437	10.38
549.633	10.48
549.83	10.43
550.027	10.57
550.224	10.62
550.421	10.64
550.618	10.76
550.814	10.7
551.011	10.71
551.208	10.74
551.405	10.88
551.601	11
551.798	11.02
551.995	11.11
552.191	11.09
552.388	11.12
552.585	11.02
552.781	11.17
552.978	11.19
553.175	11.24
553.371	11.23
553.568	11.37
553.764	11.39
553.961	11.44
554.157	11.38
554.354	11.45
554.55	11.45
554.747	11.48
554.943	11.5
555.14	11.56
555.336	11.56
555.533	11.66
555.729	11.78
555.926	11.99
556.122	11.96
556.318	12.21
556.515	12.21
556.711	12.31
556.907	12.39
557.104	12.52
557.3	12.65
557.496	12.74
557.693	12.87
557.889	12.9
558.085	13.03
558.281	12.94
558.478	12.82
558.674	12.88
558.87	12.88
559.066	12.9
559.262	12.96
559.459	12.92
559.655	12.99
559.851	13.11
560.047	13.21
560.243	13.26
560.439	13.33
560.635	13.39
560.831	13.46
561.027	13.52
561.223	13.51
561.419	13.58
561.615	13.68
561.811	13.77
562.007	13.91
562.203	13.99
562.399	13.94
562.595	14.08
562.791	14.2
562.987	14.29
563.183	14.28
563.379	14.4
563.575	14.52
563.771	14.66
563.966	14.68
564.162	14.71
564.358	14.75
564.554	14.76
564.75	14.7
564.945	14.72
565.141	14.74
565.337	14.69
565.533	14.7
565.728	14.76
565.924	14.75
566.12	14.76
566.315	14.85
566.511	14.94
566.707	15.05
566.902	15.19
567.098	15.21
567.293	15.27
567.489	15.3
567.684	15.36
567.88	15.48
568.076	15.49
568.271	15.51
568.467	15.51
568.662	15.67
568.858	15.65
569.053	15.62
569.248	15.6
569.444	15.61
569.639	15.68
569.835	15.82
570.03	15.92
570.225	15.91
570.421	15.86
570.616	16.01
570.812	16.06
571.007	16.13
571.202	16.15
571.397	16.24
571.593	16.3
571.788	16.31
571.983	16.34
572.178	16.44
572.374	16.46
572.569	16.57
572.764	16.6
572.959	16.71
573.154	16.74
573.35	16.82
573.545	16.77
573.74	16.79
573.935	16.69
574.13	16.62
574.325	16.73
574.52	16.73
574.715	16.62
574.91	16.75
575.105	16.75
575.3	16.83
575.495	16.92
575.69	17
575.885	17
576.08	17.21
576.275	17.25
576.47	17.39
576.665	17.61
576.86	17.58
577.055	17.6
577.25	17.77
577.444	17.73
577.639	17.64
577.834	17.77
578.029	17.66
578.224	17.66
578.418	17.71
578.613	17.59
578.808	17.61
579.003	17.7
579.197	17.61
579.392	17.7
579.587	17.79
579.781	17.81
579.976	17.78
580.171	17.91
580.365	17.84
580.56	17.89
580.755	17.83
580.949	17.75
581.144	17.93
581.338	17.97
581.533	17.96
581.727	18.04
581.922	18.26
582.116	18.28
582.311	18.35
582.505	18.46
582.7	18.54
582.894	18.6
583.089	18.62
583.283	18.63
583.478	18.82
583.672	18.78
583.866	18.94
584.061	18.91
584.255	18.99
584.449	18.85
584.644	18.77
584.838	18.73
585.032	18.59
585.226	18.54
585.421	18.49
585.615	18.49
585.809	18.56
586.003	18.59
586.198	18.74
586.392	18.63
586.586	18.67
586.78	18.8
586.974	18.77
587.168	18.91
587.363	18.97
587.557	19.15
587.751	19.2
587.945	19.32
588.139	19.46
588.333	19.55
588.527	19.64
588.721	19.59
588.915	19.55
589.109	19.6
589.303	19.5
589.497	19.67
589.691	19.67
589.885	19.75
590.079	19.79
590.273	19.82
590.466	19.8
590.66	19.86
590.854	19.79
591.048	19.71
591.242	19.64
591.436	19.9
591.629	19.99
591.823	20.05
592.017	19.98
592.211	19.94
592.404	19.96
592.598	19.98
592.792	19.98
592.986	19.89
593.179	19.92
593.373	20
593.567	20.01
593.76	20.09
593.954	20.01
594.147	19.92
594.341	19.94
594.535	20
594.728	20.13
594.922	20.16
595.115	20.21
595.309	20.36
595.502	20.47
595.696	20.45
595.889	20.44
596.083	20.47
596.276	20.52
596.47	20.44
596.663	20.49
596.856	20.55
597.05	20.6
597.243	20.45
597.437	20.49
597.63	20.46
597.823	20.41
598.017	20.4
598.21	20.42
598.403	20.5
598.596	20.46
598.79	20.55
598.983	20.64
599.176	20.82
599.369	20.79
599.563	20.76
599.756	20.97
599.949	20.88
600.142	20.87
600.335	20.79
600.528	20.84
600.722	20.77
600.915	20.81
601.108	21.03
601.301	20.97
601.494	21.17
601.687	21.18
601.88	21.18
602.073	21.14
602.266	21.1
602.459	21.22
602.652	21.22
602.845	21.22
603.038	21.24
603.231	21.3
603.424	21.22
603.617	21.15
603.809	21.13
604.002	21.14
604.195	21.07
604.388	21.03
604.581	21.13
604.774	21.09
604.966	21.01
605.159	20.95
605.352	21.07
605.545	21.12
605.737	21.08
605.93	21.13
606.123	21.04
606.316	21.06
606.508	20.99
606.701	20.97
606.894	21.06
607.086	21.02
607.279	21.07
607.471	21.15
607.664	21.38
607.857	21.32
608.049	21.21
608.242	21.27
608.434	21.22
608.627	21.23
608.819	21.29
609.012	21.22
609.204	21.23
609.397	21.29
609.589	21.3
609.782	21.4
609.974	21.4
610.166	21.28
610.359	21.33
610.551	21.46
610.743	21.51
610.936	21.49
611.128	21.63
611.32	21.51
611.513	21.52
611.705	21.56
611.897	21.6
612.09	21.66
612.282	21.71
612.474	21.95
612.666	22.07
612.858	22.14
613.051	22.14
613.243	22.21
613.435	22.38
613.627	22.33
613.819	22.81
614.011	22.99
614.203	23.07
614.395	22.87
614.588	22.87
614.78	22.88
614.972	22.76
615.164	22.59
615.356	22.43
615.548	22.53
615.74	22.48
615.932	22.5
616.124	22.68
616.315	22.54
616.507	22.52
616.699	22.42
616.891	22.43
617.083	22.55
617.275	22.63
617.467	22.71
617.659	22.98
617.85	23.07
618.042	22.9
618.234	22.86
618.426	22.78
618.618	22.69
618.809	22.51
619.001	22.55
619.193	22.72
619.384	22.88
619.576	22.76
619.768	22.64
619.959	22.41
620.151	22.24
620.343	22.31
620.534	22.36
620.726	22.45
620.917	22.66
621.109	22.67
621.301	22.71
621.492	22.81
621.684	22.71
621.875	22.58
622.067	22.73
622.258	22.78
622.45	22.93
622.641	23.08
622.832	23.15
623.024	23.24
623.215	23.3
623.407	23.34
623.598	23.31
623.789	23.32
623.981	23.3
624.172	23.26
624.363	23.42
624.555	23.26
624.746	23.19
624.937	23.11
625.129	23.03
625.32	22.92
625.511	22.98
625.702	22.91
625.893	22.79
626.085	22.85
626.276	22.83
626.467	22.69
626.658	22.7
626.849	22.79
627.04	22.82
627.231	22.85
627.422	22.92
627.614	22.92
627.805	22.99
627.996	22.95
628.187	23
628.378	23.12
628.569	23.18
628.76	23.14
628.951	23.1
629.142	23.18
629.332	23.04
629.523	23.05
629.714	23.14
629.905	23.06
630.096	23.07
630.287	23.09
630.478	23.13
630.669	23.28
630.859	23.06
631.05	22.95
631.241	23.04
631.432	23.15
631.623	23.35
631.813	23.29
632.004	23.32
632.195	23.37
632.385	23.33
632.576	23.38
632.767	23.4
632.957	23.28
633.148	23.18
633.339	23.26
633.529	23.26
633.72	23.25
633.91	23.22
634.101	23.15
634.292	23.19
634.482	23.23
634.673	23.12
634.863	23.27
635.054	23.13
635.244	23.04
635.435	23.1
635.625	23.02
635.815	23.02
636.006	23.23
636.196	23.38
636.387	23.47
636.577	23.29
636.767	23.46
636.958	23.5
637.148	23.57
637.338	23.46
637.529	23.62
637.719	23.75
637.909	23.8
638.099	23.86
638.29	23.92
638.48	23.91
638.67	23.89
638.86	24
639.05	24.11
639.241	24.06
639.431	24.05
639.621	24.08
639.811	24.21
640.001	24.19
640.191	24.15
640.381	24.23
640.571	24.29
640.761	24.21
640.951	24.14
641.141	24.03
641.331	24.02
641.521	24.14
641.711	24.27
641.901	24.16
642.091	24.02
642.281	23.96
642.471	24.19
642.661	24.33
642.851	24.31
643.041	24.57
643.231	24.81
643.42	24.64
643.61	24.89
643.8	24.75
643.99	24.59
644.18	24.43
644.369	24.61
644.559	24.73
644.749	24.62
644.939	24.49
645.128	24.42
645.318	24.35
645.508	24.21
645.697	24.18
645.887	24.53
646.076	24.52
646.266	24.65
646.456	25.06
646.645	24.97
646.835	24.98
647.024	25.21
647.214	25.35
647.403	25.41
647.593	25.44
647.782	25.58
647.972	25.65
648.161	25.86
648.351	25.68
648.54	25.46
648.73	25.45
648.919	24.9
649.108	25.03
649.298	25.03
649.487	24.92
649.677	24.97
649.866	25.07
650.055	25.09
650.244	24.95
650.434	24.91
650.623	24.68
650.812	24.67
651.002	24.85
651.191	24.99
651.38	25.36
651.569	25.42
651.758	25.43
651.947	25.48
652.137	25.48
652.326	25.42
652.515	25.54
652.704	25.65
652.893	25.67
653.082	25.7
653.271	25.71
653.46	25.68
653.649	25.56
653.838	25.46
654.027	25.48
654.216	25.54
654.405	25.51
654.594	25.54
654.783	25.39
654.972	25.15
655.161	25.08
655.35	25.07
655.539	25.09
655.728	25.23
655.916	25.22
656.105	25.32
656.294	25.18
656.483	25.41
656.672	25.27
656.86	25.25
657.049	25.2
657.238	25.37
657.427	25.52
657.615	25.63
657.804	25.6
657.993	25.6
658.181	25.53
658.37	25.48
658.559	25.39
658.747	25.4
658.936	25.18
659.125	25.17
659.313	25.22
659.502	25.32
659.69	25.41
659.879	25.54
660.067	25.55
660.256	25.48
660.444	25.53
660.633	25.67
660.821	25.79
661.01	25.7
661.198	25.79
661.387	25.77
661.575	26.16
661.763	26.12
661.952	26.31
662.14	26.18
662.328	26.28
662.517	26.3
662.705	26.34
662.893	26.35
663.082	26.16
663.27	26.24
663.458	26.47
663.646	26.54
663.834	26.71
664.023	26.7
664.211	26.79
664.399	26.64
664.587	26.62
664.775	26.38
664.963	26.48
665.152	26.81
665.34	26.71
665.528	26.91
665.716	26.83
665.904	26.77
666.092	26.78
666.28	26.77
666.468	26.68
666.656	26.95
666.844	27.19
667.032	27.17
667.22	27.32
667.408	27.25
667.596	26.99
667.784	27.21
667.971	27.06
668.159	27.03
668.347	26.99
668.535	26.94
668.723	26.97
668.911	26.97
669.098	26.73
669.286	26.43
669.474	26.51
669.662	26.39
669.849	26.5
670.037	26.54
670.225	26.3
670.413	26.43
670.6	26.62
670.788	26.82
670.976	26.91
671.163	26.68
671.351	26.53
671.538	26.52
671.726	26.53
671.913	26.45
672.101	26.38
672.289	26.16
672.476	26.23
672.664	26.55
672.851	26.4
673.039	26.28
673.226	26.25
673.413	26.14
673.601	26.22
673.788	26.39
673.976	26.31
674.163	26.37
674.35	26.38
674.538	26.27
674.725	26.37
674.912	26.32
675.1	26.2
675.287	26.27
675.474	26.25
675.662	26.35
675.849	26.55
676.036	26.67
676.223	26.45
676.411	26.48
676.598	26.45
676.785	26.4
676.972	26.55
677.159	26.45
677.346	26.54
677.533	26.58
677.721	26.59
677.908	26.66
678.095	26.39
678.282	26.19
678.469	26.02
678.656	26.23
678.843	26.44
679.03	26.55
679.217	26.59
679.404	26.58
679.591	26.7
679.778	26.56
679.964	26.43
680.151	26.34
680.338	26.31
680.525	26.44
680.712	26.66
680.899	26.97
681.086	26.73
681.272	26.58
681.459	26.62
681.646	26.7
681.833	26.75
682.02	26.8
682.206	27.01
682.393	27.05
682.58	27.29
682.766	27.29
682.953	27.22
683.14	27.71
683.326	27.76
683.513	28.13
683.7	27.99
683.886	27.73
684.073	27.78
684.259	27.68
684.446	27.65
684.632	27.57
684.819	27.56
685.005	27.6
685.192	27.91
685.378	28.16
685.565	27.54
685.751	27.36
685.938	27.3
686.124	27.2
686.31	27.55
686.497	27.49
686.683	27.37
686.87	27.28
687.056	27.55
687.242	27.8
687.429	27.72
687.615	27.78
687.801	27.61
687.987	27.63
688.174	27.86
688.36	27.92
688.546	28.17
688.732	27.8
688.918	27.75
689.105	28.05
689.291	28.35
689.477	28.32
689.663	28.12
689.849	28.43
690.035	28.22
690.221	28.54
690.407	28.8
690.593	28.69
690.779	28.66
690.965	28.8
691.151	29.08
691.337	29.37
691.523	29.55
691.709	29.69
691.895	29.53
692.081	29.5
692.267	29.58
692.453	29.38
692.639	29.2
692.825	28.96
693.011	28.73
693.196	28.2
693.382	28.4
693.568	28.29
693.754	28.13
693.94	27.92
694.125	27.44
694.311	27.35
694.497	27.56
694.682	27.41
694.868	27.76
695.054	27.87
695.239	27.91
695.425	28.03
695.611	28.61
695.796	28.49
695.982	28.45
696.168	28.29
696.353	28.34
696.539	28.54
696.724	28.33
696.91	28.32
697.095	28.11
697.281	28.01
697.466	27.96
697.652	27.99
697.837	27.83
698.023	27.76
698.208	27.72
698.393	27.88
698.579	27.75
698.764	27.53
698.949	27.45
699.135	27.57
699.32	27.55
699.505	27.34
699.691	27.05
699.876	27.01
700.061	26.92
700.246	27.22
700.432	26.92
700.617	26.65
700.802	26.53
700.987	27.58
701.172	27.85
701.358	28
701.543	28
701.728	27.88
701.913	27.98
702.098	28.58
702.283	28.51
702.468	28.68
702.653	28.55
702.838	29.13
703.023	29.08
703.208	29.1
703.393	28.52
703.578	28.5
703.763	28.07
703.948	28.26
704.133	28.44
704.318	28.61
704.503	28.59
704.688	28.84
704.873	28.93
705.057	29.4
705.242	28.98
705.427	29.31
705.612	29.47
705.797	29.17
705.981	29.58
706.166	29.81
706.351	29.72
706.536	29.57
706.72	29.78
706.905	29.36
707.09	29.31
707.274	29.37
707.459	29.41
707.644	29.4
707.828	29.14
708.013	28.9
708.197	29.13
708.382	28.8
708.567	28.76
708.751	28.4
708.936	28.59
709.12	28.52
709.305	28.59
709.489	28.65
709.673	28.92
709.858	28.62
710.042	28.72
710.227	29
710.411	29.21
710.596	29.21
710.78	29.25
710.964	29.8
711.149	30
711.333	29.76
711.517	29.91
711.702	30.08
711.886	29.96
712.07	29.53
712.254	29.4
712.438	29.39
712.623	29.37
712.807	29.25
712.991	29.1
713.175	29.21
713.359	28.71
713.544	28.85
713.728	28.92
713.912	28.96
714.096	28.68
714.28	28.73
714.464	28.71
714.648	28.84
714.832	29.03
715.016	29.31
715.2	29.33
715.384	29.68
715.568	29.36
715.752	29.6
715.936	29.56
716.12	29.83
716.304	29.76
716.488	30.11
716.671	29.99
716.855	30.01
717.039	29.51
717.223	29.26
717.407	28.87
717.59	28.84
717.774	28.74
717.958	28.97
718.142	28.74
718.325	28.88
718.509	28.54
718.693	28.85
718.877	28.79
719.06	28.93
719.244	29.1
719.428	29.64
719.611	29.9
719.795	30.11
719.978	30.13
720.162	29.85
720.345	30.29
720.529	30.44
720.713	30.29
720.896	30.42
721.08	30.27
721.263	30.47
721.446	30.45
721.63	30.19
721.813	29.75
721.997	29.55
722.18	29.43
722.364	29.15
722.547	29.51
722.73	28.86
722.914	28.75
723.097	29.09
723.28	29.23
723.464	28.87
723.647	28.71
723.83	28.7
724.013	28.64
724.197	29.37
724.38	29.65
724.563	29.99
724.746	30.62
724.929	30.63
725.112	30.61
725.296	30.87
725.479	30.81
725.662	30.6
725.845	30.45
726.028	30.43
726.211	30.48
726.394	30.71
726.577	30.39
726.76	30.29
726.943	30.07
727.126	29.86
727.309	29.94
727.492	30.25
727.675	30.07
727.858	30.19
728.041	30.63
728.224	31.06
728.407	30.8
728.589	30.73
728.772	30.64
728.955	30.56
729.138	30.68
729.321	31.21
729.503	31.19
729.686	30.86
729.869	31.33
730.052	31.18
730.234	31.23
730.417	30.88
730.6	30.18
730.782	30.37
730.965	30.98
731.148	31.04
731.33	31.25
731.513	30.9
731.695	30.4
731.878	30.23
732.061	30.54
732.243	29.99
732.426	30.26
732.608	30.07
732.791	30.28
732.973	31.19
733.156	31.51
733.338	30.92
733.52	30.95
733.703	30.95
733.885	31.32
734.068	31
734.25	31.29
734.432	30.78
734.615	30.71
734.797	30.61
734.979	30.26
735.162	30.19
735.344	30.1
735.526	29.84
735.708	30.03
735.891	29.58
736.073	29.39
736.255	28.82
736.437	28.63
736.619	28.38
736.802	28.48
736.984	28.77
737.166	28.72
737.348	29.24
737.53	29.13
737.712	28.85
737.894	28.81
738.076	28.33
738.258	29.04
738.44	29.51
738.622	29.9
738.804	30.61
738.986	30.36
739.168	30.39
739.35	30.33
739.532	30.8
739.714	30.66
739.896	30.82
740.078	30.57
740.259	30.78
740.441	31.42
740.623	31.21
740.805	31.08
740.987	31.17
741.168	31.5
741.35	32.25
741.532	32.08
741.714	32.03
741.895	31.83
742.077	31.97
742.259	31.97
742.44	32.45
742.622	31.79
742.804	31.37
742.985	31.08
743.167	30.85
743.348	30.7
743.53	29.61
743.711	29.9
743.893	30.52
744.075	30.95
744.256	31.06
744.438	31.09
744.619	30.82
744.8	30.36
744.982	30.75
745.163	31.07
745.345	31.97
745.526	32.35
745.707	32.44
745.889	33.19
746.07	32.72
746.252	32.4
746.433	30.93
746.614	30.55
746.795	30.43
746.977	30.98
747.158	31.19
747.339	31.39
747.52	31.34
747.702	30.78
747.883	30.63
748.064	30.94
748.245	30.79
748.426	30.56
748.607	30.52
748.788	31.41
748.97	30.92
749.151	31.2
749.332	30.99
749.513	31.17
749.694	31.25
749.875	30.93
750.056	30.64
750.237	31.49
750.418	31.14
750.599	31.01
750.78	30.85
750.96	30.64
751.141	30.62
751.322	31.85
751.503	31.52
751.684	31.4
751.865	31.38
752.046	30.7
752.226	30.96
752.407	31.04
752.588	29.37
752.769	29.2
752.949	29.98
753.13	30.51
753.311	30.47
753.492	30.79
753.672	30.59
753.853	31.05
754.034	31.12
754.214	30.77
754.395	31.17
754.575	31.01
754.756	31.83
754.937	32.56
755.117	33.04
755.298	32.68
755.478	31.87
755.659	32.21
755.839	31.96
756.02	31.35
756.2	30.69
756.381	30.77
756.561	31.25
756.741	31.56
756.922	31.68
757.102	31.18
757.283	31.17
757.463	31.51
757.643	31.73
757.823	32.11
758.004	32.77
758.184	33.6
758.364	34.14
758.545	33.89
758.725	33.96
758.905	33.88
759.085	33.13
759.265	32.89
759.446	32.66
759.626	32.81
759.806	32.71
759.986	31.9
760.166	32.04
760.346	31.64
760.526	31.16
760.706	30.29
760.886	31.38
761.066	30.99
761.246	30.61
761.426	30.53
761.606	30.54
761.786	30.28
761.966	29.89
762.146	29.97
762.326	30.49
762.506	30.35
762.686	30.4
762.866	30.22
763.046	30.76
763.225	30.31
763.405	30.39
763.585	30.6
763.765	30.94
763.945	31.29
764.124	31.97
764.304	32.63
764.484	32.49
764.664	32.41
764.843	32.47
765.023	32.25
765.203	31.98
765.382	31.65
765.562	31.94
765.741	32.12
765.921	32.1
766.101	32.35
766.28	32.51
766.46	31.69
766.639	31.37
766.819	31.37
766.998	31.15
767.178	31.69
767.357	32.15
767.537	32.95
767.716	33.09
767.896	33.01
768.075	32.08
768.254	32.39
768.434	32.84
768.613	32.19
768.792	32.51
768.972	32.79
769.151	32.51
769.33	33.12
769.51	32.73
769.689	32.39
769.868	32.72
770.047	32.8
770.226	32.55
770.406	34.06
770.585	33.79
770.764	33.01
770.943	33.06
771.122	33.91
771.301	33.52
771.48	34.04
771.66	34.09
771.839	34.55
772.018	34.66
772.197	34.16
772.376	34.4
772.555	34.06
772.734	33.05
772.913	33.46
773.092	34.09
773.271	34.43
773.449	33.99
773.628	34.29
773.807	34.11
773.986	33.47
774.165	33.51
774.344	33.04
774.523	33.06
774.701	33.33
774.88	33.51
775.059	34.08
775.238	33.71
775.417	33.62
775.595	33.22
775.774	32.45
775.953	32.48
776.131	32.11
776.31	32.56
776.489	32.04
776.667	32.12
776.846	31
777.025	30.24
777.203	30.89
777.382	30.87
777.56	31.23
777.739	31.12
777.917	32.66
778.096	33.55
778.274	33.98
778.453	34.91
778.631	34.28
778.81	34.97
778.988	35.35
779.166	35.92
779.345	35.81
779.523	35.46
779.702	35.67
779.88	35.29
780.058	35.15
780.237	34.39
780.415	35.1
780.593	34.31
780.771	36.03
780.95	37.09
781.128	36.32
781.306	37.05
781.484	37.71
781.662	38.62
781.841	38.05
782.019	37.43
782.197	37.06
782.375	37.17
782.553	37.13
782.731	35.65
782.909	36.46
783.087	34.85
783.265	35.06
783.443	35.51
783.621	35.4
783.799	36.1
783.977	36.27
784.155	36.74
784.333	36.92
784.511	37.22
784.689	38.12
784.867	37.63
785.045	38.82
785.223	38.18
785.4	37.7
785.578	37.52
785.756	36.75
785.934	35.83
786.112	34.09
786.289	33.47
786.467	33.98
786.645	33.47
786.823	33.79
787	32.61
787.178	32.42
787.356	31.3
787.533	31.43
787.711	31.37
787.889	30.61
788.066	31.21
788.244	31.86
788.421	32.47
788.599	32.85
788.776	32.95
788.954	33.52
789.131	33.56
789.309	33.86
789.486	34.54
789.664	36.38
789.841	36.25
790.019	37.01
790.196	36.41
790.373	36.62
790.551	36.29
790.728	37.09
790.906	36.72
791.083	37.1
791.26	37.24
791.437	36.43
791.615	36.43
791.792	36.74
791.969	35.57
792.146	36.22
792.324	36.2
792.501	37.2
792.678	36.44
792.855	36.22
793.032	35.25
793.209	35.59
793.387	34.15
793.564	34.41
793.741	34.89
793.918	35.1
794.095	33.96
794.272	33.31
794.449	33.3
794.626	32.93
794.803	33.64
794.98	33.86
795.157	34.48
795.334	35.38
795.511	34.76
795.688	34.44
795.864	34.93
796.041	35.76
796.218	35.55
796.395	36.5
796.572	36.89
796.749	35.77
796.925	36.85
797.102	35.92
797.279	36.11
797.456	35.53
797.632	34.9
797.809	35.94
797.986	36.26
798.162	35.67
798.339	34.71
798.516	35.34
798.692	34.74
798.869	34.56
799.046	35.35
799.222	34.29
799.399	34.8
799.575	34.94
799.752	35.76
799.928	35.99
800.105	36.05
800.281	37.02
800.458	37.86
800.634	38.11
800.811	37.35
800.987	37.58
801.163	38.36
801.34	38.46
801.516	38.65
801.692	37.63
801.869	38.72
802.045	38.03
802.221	38.66
802.398	38.11
802.574	38.26
802.75	38.38
802.926	38.56
803.103	39.01
803.279	38.61
803.455	38.44
803.631	39.35
803.807	39.11
803.983	39.74
804.16	37.93
804.336	37.75
804.512	38.06
804.688	38.26
804.864	37.86
805.04	36.48
805.216	36.42
805.392	36.57
805.568	37.91
805.744	37.55
805.92	36.26
806.096	36.26
806.272	36.67
806.448	37.21
806.623	37.03
806.799	36.68
806.975	37.6
807.151	37.46
807.327	37.3
807.503	38.05
807.678	39.37
807.854	37.8
808.03	38.5
808.206	37.7
808.381	37.92
808.557	37.1
808.733	36.64
808.908	37.94
809.084	37
809.26	36.06
809.435	36.21
809.611	36.8
809.787	36.55
809.962	34.47
810.138	34.78
810.313	35.44
810.489	35.87
810.664	34.64
810.84	36.52
811.015	38.76
811.191	39.17
811.366	40.81
811.542	40.59
811.717	42.75
811.892	45.02
812.068	44.16
812.243	45.92
812.419	45.91
812.594	45.45
812.769	46.32
812.944	47.23
813.12	46.3
813.295	45.26
813.47	44.96
813.645	43.25
813.821	44.31
813.996	43.61
814.171	42.53
814.346	43.78
814.521	43.63
814.697	44.48
814.872	45.44
815.047	46.02
815.222	45.91
815.397	45.15
815.572	44.43
815.747	42.9
815.922	43.69
816.097	42.35
816.272	42.65
816.447	42.49
816.622	41.12
816.797	40.5
816.972	40.68
817.147	38.97
817.322	38.6
817.496	39.2
817.671	39.34
817.846	38.98
818.021	39.18
818.196	39.24
818.371	40.05
818.545	39.03
818.72	38.54
818.895	37.82
819.069	36.9
819.244	36.84
819.419	36.76
819.594	36.47
819.768	35.47
819.943	35.17
820.117	35.59
820.292	35.49
820.467	35.06
820.641	34.21
820.816	33.81
820.99	33.39
821.165	33.46
821.339	33.61
821.514	33.46
821.688	33.2
821.863	32.93
822.037	32.73
822.212	32.8
822.386	32.28
822.56	32.39
822.735	32.3
822.909	32.24
823.084	32.22
823.258	32.39
823.432	32.28
823.606	32.27
823.781	32.11
823.955	32.32
824.129	32.68
824.303	33.08
824.478	32.83
824.652	33.01
824.826	32.55
825	32.78
825.174	32.73
825.348	32.86
825.523	32.73
825.697	33.1
825.871	32.68
826.045	32.95
826.219	32.89
826.393	32.75
826.567	32.99
826.741	33.06
826.915	33.83
827.089	34.05
827.263	33.94
827.437	34.19
827.611	34.23
827.784	34.56
827.958	34.23
828.132	34.81
828.306	34.41
828.48	34.76
828.654	34.26
828.827	33.94
829.001	33.94
829.175	33.7
829.349	33.39
829.522	33.53
829.696	33.98
829.87	34.31
830.044	34.61
830.217	35.74
830.391	35.2
830.565	34.53
830.738	33.77
830.912	34.79
831.085	35.15
831.259	36.11
831.432	36.55
831.606	36.98
831.779	37.25
831.953	36.96
832.126	35.97
832.3	35.82
832.473	35.03
832.647	35.61
832.82	36.95
832.994	37.1
833.167	37
833.34	36.7
833.514	35.83
833.687	34.86
833.86	34.66
834.034	34.72
834.207	34.89
834.38	35.14
834.553	35.14
834.727	35.19
834.9	35.42
835.073	35.37
835.246	35.45
835.419	36.13
835.593	36.39
835.766	38.06
835.939	37.68
836.112	38.64
836.285	38.8
836.458	39.1
836.631	40.08
836.804	39.62
836.977	40.05
837.15	39.34
837.323	39.91
837.496	38.35
837.669	36.96
837.842	36.99
838.015	37.45
838.188	38.25
838.361	37.43
838.533	37.01
838.706	38.3
838.879	37.39
839.052	39.21
839.225	39.79
839.398	39.66
839.57	40.24
839.743	42.11
839.916	42.68
840.088	41.98
840.261	41.17
840.434	42.84
840.607	44.85
840.779	45.09
840.952	44.46
841.124	46.4
841.297	45.08
841.47	45.09
841.642	47.39
841.815	46.99
841.987	45.91
842.16	47.11
842.332	48.39
842.505	47.68
842.677	46.21
842.85	45.73
843.022	47.07
843.194	47.82
843.367	46.06
843.539	46.58
843.712	48.1
843.884	48.06
844.056	47.86
844.229	49.37
844.401	46.95
844.573	45.86
844.745	46.66
844.918	46.67
845.09	49.01
845.262	48.42
845.434	46.45
845.606	48.53
845.779	48.84
845.951	49.43
846.123	45.7
846.295	44.95
846.467	48.8
846.639	50.41
846.811	52.84
846.983	51.92
847.155	53.67
847.327	51.67
847.499	50.88
847.671	51.96
847.843	53.72
848.015	54.73
848.187	55.13
848.359	56.44
848.531	57.34
848.703	59
848.875	59.77
849.047	60.39
849.218	60.95
849.39	61.09
849.562	60.65
849.734	69.46
849.905	71.91
850.077	67.76
850.249	70.22
850.421	67.76
850.592	70.08
850.764	66.29
850.936	61.74
851.107	60.27
851.279	61.62
851.451	59.27
851.622	57.51
851.794	60.11
851.965	51.7
852.137	50.54
852.308	51.86
852.48	51.77
852.651	53.59
852.823	51.31
852.994	52.69
853.166	54.74
853.337	57.31
853.509	56.91
853.68	62.6
853.851	63.93
854.023	61.9
854.194	64.51
854.365	66.1
854.537	66.82
854.708	67.34
854.879	67.31
855.05	74.07
855.222	74.25
855.393	74.45
855.564	71.22
855.735	71.3
855.906	67.12
856.078	71.92
856.249	74.75
856.42	77.21
856.591	76.36
856.762	73.1
856.933	66.68
857.104	65.41
857.275	59.13
857.446	59.22
857.617	59.03
857.788	58.62
857.959	57.38
858.13	63.59
858.301	60.83
858.472	59.11
858.643	55.76
858.814	54.38
858.985	55.93
859.155	62.79
859.326	59.96
859.497	63
859.668	64.63
859.839	63.05
860.009	67.6
860.18	69.27
860.351	65.15
860.522	66.7
860.692	64.16
860.863	68.06
861.034	67.73
861.204	68.06
861.375	63.33
861.546	64.07
861.716	64.19
861.887	62.02
862.057	62.1
862.228	56.09
862.398	56.26
862.569	56.45
862.739	54.47
862.91	58.27
863.08	53.95
863.251	54.16
863.421	52.92
863.592	55.58
863.762	57.96
863.932	57.13
864.103	64.36
864.273	66.93
864.443	72.44
864.614	68.14
864.784	65.44
864.954	69.9
865.125	69.56
865.295	68.72
865.465	72.15
865.635	73.48
865.805	75.48
865.976	76.12
866.146	74.07
866.316	70.66
866.486	69.48
866.656	65.45
866.826	66.43
866.996	69.71
867.166	65.64
867.336	61.5
867.506	62.21
867.676	58.56
867.846	55.35
868.016	54.29
868.186	51.83
868.356	51.99
868.526	52.81
868.696	53.76
868.866	56.06
869.036	57.18
869.206	56.36
869.376	56.63
869.545	60.75
869.715	56.26
869.885	57.45
870.055	62.36
870.224	63.31
870.394	67.84
870.564	69.52
870.734	63.48
870.903	59.99
871.073	64.12
871.243	66.95
871.412	68.73
871.582	69.02
871.751	65.56
871.921	68.84
872.091	64.94
872.26	60.89
872.43	58.82
872.599	56.08
872.769	59.55
872.938	66.92
873.108	67.88
873.277	64.11
873.446	61.29
873.616	56.81
873.785	56.77
873.955	59.22
874.124	60.19
874.293	64.37
874.463	64.21
874.632	67.91
874.801	69.82
874.971	66.51
875.14	60.6
875.309	62.81
875.478	65.26
875.647	59.82
875.817	61.71
875.986	63.11
876.155	60.57
876.324	58.23
876.493	58.74
876.662	57.22
876.831	53.52
877	51.49
877.17	50.67
877.339	50.78
877.508	52.98
877.677	54.17
877.846	60.24
878.015	58.16
878.184	58.88
878.352	56.32
878.521	59.85
878.69	61.29
878.859	63.35
879.028	62.87
879.197	59.71
879.366	58.03
879.534	55.11
879.703	52.09
879.872	49.38
880.041	46.74
880.21	45.53
880.378	44.78
880.547	45.19
880.716	42.97
880.884	42.36
881.053	41.31
881.222	40.32
881.39	39.77
881.559	38.59
881.727	38.27
881.896	38.3
882.065	37.84
882.233	37.57
882.402	37.33
882.57	37.05
882.739	37.73
882.907	37.98
883.076	36.47
883.244	36.91
883.412	37.69
883.581	37.8
883.749	38.46
883.918	39.2
884.086	39.79
884.254	40.58
884.423	40.69
884.591	41
884.759	41.8
884.927	40.47
885.096	41.32
885.264	44.2
885.432	43.92
885.6	42.29
885.769	43.7
885.937	43.71
886.105	46.26
886.273	44.77
886.441	44.82
886.609	46.18
886.777	48.68
886.945	45.15
887.113	47.38
887.281	48.19
887.449	44.33
887.617	45.51
887.785	50.34
887.953	47.56
888.121	47.47
888.289	46.77
888.457	47.99
888.625	47.36
888.793	47.75
888.961	47.26
889.129	49.46
889.296	48.88
889.464	46.16
889.632	48.25
889.8	47.6
889.967	43.94
890.135	49.09
