Data from 2938442_Reflection_2.txt Node
Date: Fri Jun 19 18:17:48 EDT 2015
User: robert
Spectrometer: USB4E03002
Autoset integration time: false
Trigger mode: 4
Integration Time (sec): 1.000000E-1
Scans to average: 10
Electric dark correction enabled: true
Nonlinearity correction enabled: false
Boxcar width: 5
Stray light correction enabled: false
XAxis mode: Wavelengths
Stop averaging: false
Number of Pixels in Spectrum: 3648
>>>>>Begin Spectral Data<<<<<
177.575	-339.73
177.794	-455.56
178.014	-690.96
178.233	1275.22
178.452	926.61
178.672	380.16
178.891	-11.58
179.11	511.29
179.33	767.24
179.549	-299.59
179.768	573.21
179.987	243.63
180.207	-1289.22
180.426	1244.76
180.645	172.39
180.864	70.47
181.084	59.1
181.303	47.65
181.522	57.98
181.741	42.52
181.96	16.62
182.179	37.61
182.398	7.53
182.618	6.18
182.837	-13.41
183.056	-92.49
183.275	5042
183.494	213.8
183.713	-2045.74
183.932	2264.47
184.151	470.78
184.37	1869.33
184.589	288.45
184.808	258.88
185.027	196.67
185.246	193.59
185.465	229.5
185.684	839.6
185.903	851.98
186.122	212.85
186.341	72.76
186.56	51.67
186.779	9.54
186.998	89.14
187.216	141.04
187.435	82.72
187.654	29.45
187.873	-64.56
188.092	-102.94
188.311	511.59
188.53	-336.79
188.748	-195.09
188.967	-169.41
189.186	-387.63
189.405	-453.58
189.623	-2794.02
189.842	927.8
190.061	2462.85
190.28	-323.01
190.498	-647.1
190.717	-59273.33
190.936	-1391.73
191.154	-972.06
191.373	-1354.62
191.592	-32.74
191.81	-28.69
192.029	-47.89
192.248	-55.2
192.466	-38.85
192.685	-56.08
192.904	-39.71
193.122	1.95
193.341	-35.65
193.559	-122.78
193.778	-48.9
193.996	-101.6
194.215	-49.13
194.433	-31.27
194.652	-66.05
194.87	-35.91
195.089	-28.23
195.307	-5.6
195.526	-10.62
195.744	1.99
195.963	-11.55
196.181	-47.8
196.399	-98.28
196.618	-900.9
196.836	1016.01
197.055	837.94
197.273	1167.49
197.491	287.45
197.71	301.05
197.928	185.5
198.146	372.98
198.365	1263.33
198.583	246.68
198.801	207.07
199.019	869.29
199.238	708.5
199.456	2729.44
199.674	646.77
199.892	-168.62
200.111	277.93
200.329	-1363.66
200.547	489.36
200.765	868.77
200.983	-400.33
201.202	-141.3
201.42	-145.49
201.638	-241.49
201.856	-175.06
202.074	-170.2
202.292	-331.46
202.51	-148.63
202.728	-436.25
202.946	-225.66
203.165	-531
203.383	-363.81
203.601	-457.64
203.819	-618.04
204.037	-192.35
204.255	-437.37
204.473	1328.86
204.691	973.49
204.909	-3736.32
205.127	-422.01
205.345	-314.94
205.562	-162.13
205.78	-443.74
205.998	-279.95
206.216	-175.86
206.434	-507.76
206.652	-186.69
206.87	-81.74
207.088	-26.81
207.306	8.81
207.523	-10.67
207.741	26.86
207.959	-111.07
208.177	18.5
208.395	26.58
208.612	-68.69
208.83	-37.49
209.048	-42.92
209.266	-15.68
209.483	38.81
209.701	-50.5
209.919	-10.19
210.136	-51.19
210.354	-16.64
210.572	16.28
210.79	5.32
211.007	3.07
211.225	1.22
211.442	4.69
211.66	-32.52
211.878	-207.77
212.095	-27.07
212.313	-28.68
212.53	-20.07
212.748	-9.56
212.966	3.75
213.183	12.14
213.401	34.22
213.618	29.79
213.836	30.29
214.053	48.02
214.271	52.55
214.488	50.3
214.705	54.66
214.923	39.53
215.14	36.53
215.358	27.75
215.575	25.56
215.793	13.45
216.01	4.1
216.227	5.5
216.445	-19.04
216.662	-33.6
216.879	-123.21
217.097	-68.2
217.314	-66.88
217.531	-34.05
217.749	-252.13
217.966	-204.84
218.183	-432.49
218.4	-224.83
218.618	-250.56
218.835	-348.16
219.052	-513.63
219.269	-194.19
219.487	-167.8
219.704	-206.33
219.921	-155.82
220.138	-56.17
220.355	-60.7
220.572	-31.6
220.79	-17.34
221.007	-9.93
221.224	-11.18
221.441	5.11
221.658	4.21
221.875	-2.34
222.092	7.2
222.309	0.62
222.526	-19.06
222.743	0.81
222.96	4.33
223.177	-9.12
223.394	-12.35
223.611	-5.01
223.828	3.33
224.045	-1.43
224.262	9.2
224.479	5.74
224.696	5.88
224.913	9.26
225.13	4.14
225.347	4.78
225.564	11.94
225.781	12.71
225.997	13.14
226.214	7.96
226.431	10.92
226.648	11.47
226.865	13.56
227.082	13.86
227.298	12.1
227.515	10.67
227.732	11.22
227.949	11.15
228.165	12.89
228.382	12.59
228.599	12.4
228.816	10.18
229.032	7.69
229.249	5.37
229.466	4.04
229.682	6.26
229.899	6
230.116	1.31
230.332	-1.71
230.549	-4.25
230.765	-3.57
230.982	-2.75
231.199	-1.29
231.415	1.87
231.632	5.74
231.848	5.5
232.065	4.57
232.281	5.51
232.498	10.18
232.714	10.67
232.931	8.48
233.147	7.73
233.364	6.08
233.58	11.21
233.797	8.98
234.013	7.12
234.23	4.86
234.446	6.89
234.662	6.55
234.879	6.84
235.095	8.13
235.312	12.99
235.528	14.36
235.744	19.8
235.961	14.61
236.177	13.71
236.393	15.08
236.61	21.67
236.826	18.45
237.042	19.29
237.258	17.59
237.475	14.02
237.691	10.37
237.907	10.52
238.123	8.01
238.339	8.33
238.556	10.71
238.772	11.81
238.988	8.67
239.204	10.42
239.42	11.76
239.636	12.1
239.853	13.67
240.069	15.36
240.285	15.43
240.501	15.02
240.717	15.34
240.933	13.94
241.149	13.47
241.365	12.72
241.581	12.6
241.797	11.3
242.013	10.68
242.229	11.47
242.445	9.09
242.661	8.72
242.877	8.18
243.093	6.92
243.309	7.85
243.525	7.68
243.741	9
243.957	8.38
244.173	9.75
244.388	9.95
244.604	9.81
244.82	11.61
245.036	11.73
245.252	11.96
245.468	11.99
245.683	11.68
245.899	11.19
246.115	11.89
246.331	12.35
246.547	12.24
246.762	11.7
246.978	11.22
247.194	10.64
247.409	10.2
247.625	9.87
247.841	9.59
248.057	10.48
248.272	11.31
248.488	9.85
248.703	10.73
248.919	10.95
249.135	12
249.35	12.28
249.566	11.99
249.782	11.14
249.997	12
250.213	12.33
250.428	11.42
250.644	10.91
250.859	10.34
251.075	7.36
251.29	6.18
251.506	6.7
251.721	6.44
251.937	5.26
252.152	6.3
252.368	5.82
252.583	7.41
252.798	7.42
253.014	8.43
253.229	7.82
253.445	9.14
253.66	10.31
253.875	7.34
254.091	6.22
254.306	7.24
254.521	6.34
254.737	5.4
254.952	3.4
255.167	4.97
255.383	4.91
255.598	8.18
255.813	9
256.028	8.82
256.244	8.49
256.459	8.62
256.674	8.83
256.889	9.33
257.104	9.62
257.32	10.08
257.535	10
257.75	9.59
257.965	9.17
258.18	9.52
258.395	9.03
258.61	9.66
258.826	9.92
259.041	9.97
259.256	9.62
259.471	9.23
259.686	8.79
259.901	9.07
260.116	9.32
260.331	8.73
260.546	8.39
260.761	8.91
260.976	8.5
261.191	7.7
261.406	7.26
261.621	7.73
261.836	8.26
262.05	8.86
262.265	7.79
262.48	6.68
262.695	6.64
262.91	6
263.125	6.72
263.34	7.8
263.555	8.8
263.769	9.07
263.984	9.27
264.199	9.96
264.414	9.84
264.629	9.14
264.843	10.54
265.058	10.88
265.273	10.78
265.488	9.46
265.702	8.37
265.917	8.81
266.132	8.87
266.346	7.79
266.561	6.92
266.776	7.2
266.99	7.41
267.205	6.62
267.42	6.77
267.634	7.04
267.849	7.72
268.063	8.4
268.278	8.31
268.492	7.63
268.707	8.21
268.922	9.1
269.136	8.47
269.351	8.51
269.565	8.93
269.78	8.15
269.994	8.47
270.209	8.95
270.423	8.94
270.637	8.9
270.852	9.11
271.066	9
271.281	8.3
271.495	8.87
271.709	8.42
271.924	8.16
272.138	8.77
272.353	8.26
272.567	7.67
272.781	7.09
272.996	6.7
273.21	6.72
273.424	7.37
273.638	7.67
273.853	7.14
274.067	7.72
274.281	7
274.495	7.8
274.71	7.74
274.924	7.49
275.138	8.53
275.352	8.33
275.566	8.67
275.781	9.02
275.995	8.61
276.209	9.56
276.423	9.5
276.637	9.39
276.851	8.9
277.065	8.45
277.279	9.07
277.493	9.88
277.707	9.93
277.921	10.83
278.135	10.61
278.349	10.88
278.563	10.17
278.777	10.17
278.991	11.37
279.205	11.24
279.419	10.34
279.633	9.98
279.847	9.24
280.061	9.66
280.275	8.78
280.489	8.02
280.703	8.08
280.917	8.58
281.131	8.49
281.344	8.41
281.558	8.18
281.772	9.51
281.986	9.33
282.2	9.66
282.414	9.63
282.627	10.31
282.841	10.77
283.055	10.93
283.269	10.69
283.482	11.23
283.696	11.36
283.91	11.47
284.123	11.32
284.337	11.27
284.551	10.64
284.764	10.85
284.978	10.14
285.192	9.49
285.405	9.1
285.619	8.38
285.833	8.24
286.046	7.29
286.26	7.41
286.473	7.58
286.687	7.52
286.9	8.03
287.114	7.66
287.327	7.72
287.541	8.45
287.754	9.15
287.968	9.63
288.181	9.53
288.395	10.14
288.608	9.67
288.822	9.16
289.035	9.21
289.248	9.04
289.462	8.93
289.675	9.39
289.889	9.87
290.102	8.93
290.315	9.44
290.529	9.47
290.742	9.43
290.955	9.81
291.169	10.39
291.382	10.08
291.595	10.07
291.808	10.78
292.022	9.72
292.235	8.51
292.448	9.81
292.661	8.43
292.875	8.39
293.088	8.85
293.301	9.11
293.514	8.53
293.727	9.06
293.94	9.11
294.153	8.35
294.367	9.1
294.58	9.35
294.793	8.88
295.006	9.88
295.219	9.88
295.432	9.47
295.645	9.35
295.858	8.94
296.071	8.89
296.284	8.46
296.497	9.63
296.71	9.56
296.923	10.15
297.136	9.95
297.349	9.62
297.562	9.87
297.775	10.36
297.988	10.1
298.201	10.97
298.414	10.72
298.626	11.42
298.839	11.03
299.052	11.35
299.265	11.44
299.478	11.34
299.691	11.91
299.903	11.81
300.116	11.53
300.329	12.65
300.542	12.51
300.755	12.3
300.967	12.81
301.18	12.87
301.393	12.52
301.605	11.82
301.818	12.35
302.031	11.94
302.243	11.83
302.456	11.15
302.669	10.9
302.881	11.64
303.094	12.31
303.307	11.27
303.519	10.42
303.732	10.76
303.944	10.74
304.157	11.57
304.37	11.05
304.582	11.07
304.795	11.86
305.007	11.13
305.22	10.12
305.432	10.26
305.645	10.75
305.857	11.16
306.069	11.33
306.282	11.17
306.494	10.34
306.707	11.3
306.919	11.34
307.132	10.64
307.344	10.95
307.556	11.24
307.769	11.61
307.981	11.55
308.193	11.73
308.406	10.91
308.618	11.4
308.83	10.87
309.043	9.99
309.255	9.88
309.467	10.39
309.679	9.91
309.892	9.84
310.104	9.3
310.316	9.73
310.528	9.46
310.74	9.98
310.953	9.06
311.165	8.97
311.377	9.25
311.589	9.03
311.801	9.03
312.013	9.39
312.225	9.49
312.437	9.9
312.649	9.79
312.862	9
313.074	8.84
313.286	9.15
313.498	9.37
313.71	9.82
313.922	8.92
314.134	8.63
314.346	8.23
314.558	8.04
314.77	7.96
314.982	8.15
315.193	8.4
315.405	8.54
315.617	8.77
315.829	8.93
316.041	8.3
316.253	10.01
316.465	10.6
316.677	11.37
316.888	11.63
317.1	11.38
317.312	11.12
317.524	10.68
317.736	11.33
317.947	11.64
318.159	12.83
318.371	13.06
318.583	11.72
318.794	11.59
319.006	10.9
319.218	10.95
319.43	10.26
319.641	9.46
319.853	10.57
320.064	9.75
320.276	9.59
320.488	8.6
320.699	8.19
320.911	9.15
321.123	8.63
321.334	9.18
321.546	9.87
321.757	11.39
321.969	12.14
322.18	11.07
322.392	10.86
322.603	10.53
322.815	10.68
323.026	10.89
323.238	10.42
323.449	10.9
323.661	9.88
323.872	9.49
324.083	9.38
324.295	9.32
324.506	9.76
324.718	9.54
324.929	10.13
325.14	10.3
325.352	11.23
325.563	11.32
325.774	11.37
325.986	11.97
326.197	11.42
326.408	11.17
326.62	10.23
326.831	10.6
327.042	10.41
327.253	9.72
327.464	9.51
327.676	9.39
327.887	9.83
328.098	9.85
328.309	9.89
328.52	10.37
328.732	10.71
328.943	11.79
329.154	12.14
329.365	13.32
329.576	14.28
329.787	14.69
329.998	13.87
330.209	12.82
330.42	12.51
330.631	13.15
330.842	13.36
331.053	12.78
331.264	12.15
331.475	11.1
331.686	11.36
331.897	10.83
332.108	10.29
332.319	10.22
332.53	11.45
332.741	11.87
332.952	10.98
333.163	11.09
333.374	11.76
333.585	11.45
333.795	12.07
334.006	11.95
334.217	12.32
334.428	12.32
334.639	12.44
334.849	11.88
335.06	11.28
335.271	11.78
335.482	10.75
335.692	10.08
335.903	11.34
336.114	10.71
336.325	10.43
336.535	10.75
336.746	10.87
336.957	10.55
337.167	11.47
337.378	11.95
337.589	12.75
337.799	13.37
338.01	13.14
338.22	13.05
338.431	13.96
338.642	13.64
338.852	12.93
339.063	13.07
339.273	12.53
339.484	12.15
339.694	11.25
339.905	10.49
340.115	10.78
340.326	10.86
340.536	10.4
340.746	10.34
340.957	10.73
341.167	10.74
341.378	10.27
341.588	11.25
341.799	11.11
342.009	12.04
342.219	11.86
342.43	12.59
342.64	12.7
342.85	12.56
343.061	12.08
343.271	11.85
343.481	11.73
343.691	12.44
343.902	12.39
344.112	12.58
344.322	12.58
344.532	13.09
344.743	12.69
344.953	12.06
345.163	11.83
345.373	12.43
345.583	12.68
345.793	13.2
346.004	13.52
346.214	12.87
346.424	12.78
346.634	12.31
346.844	12.51
347.054	11.29
347.264	12.16
347.474	12.59
347.684	12.19
347.894	11.65
348.104	11.29
348.314	10.82
348.524	11.08
348.734	10.41
348.944	10.64
349.154	9.63
349.364	10.48
349.574	9.85
349.784	9.64
349.994	9.61
350.204	9.88
350.413	9.58
350.623	9.53
350.833	9.39
351.043	10
351.253	9.28
351.463	10.22
351.672	9.51
351.882	10.08
352.092	10.17
352.302	10.45
352.511	11.22
352.721	11.05
352.931	10.84
353.141	11.47
353.35	11.27
353.56	11.96
353.77	11.36
353.979	11.74
354.189	11.6
354.399	11.35
354.608	11.15
354.818	10.52
355.027	10.87
355.237	10.57
355.447	10.25
355.656	10.65
355.866	10.2
356.075	10.43
356.285	10.5
356.494	10.34
356.704	10.27
356.913	10.47
357.123	10.6
357.332	10.61
357.542	11.22
357.751	11.5
357.96	11.15
358.17	10.5
358.379	10.2
358.589	9.72
358.798	9.89
359.007	9.9
359.217	9.87
359.426	9.9
359.635	10.19
359.845	10.1
360.054	9.68
360.263	9.89
360.472	10.46
360.682	10.29
360.891	10.53
361.1	10.64
361.309	10.71
361.519	10.36
361.728	10.4
361.937	10.36
362.146	10.27
362.355	10.27
362.564	9.77
362.774	9.81
362.983	9.91
363.192	9.74
363.401	9.47
363.61	9.15
363.819	9.59
364.028	9.3
364.237	9.24
364.446	8.68
364.655	8.67
364.864	9.08
365.073	9.41
365.282	9.47
365.491	9.69
365.7	9.92
365.909	10.22
366.118	10
366.327	9.9
366.536	9.6
366.745	10.25
366.954	10.23
367.162	9.93
367.371	9.86
367.58	9.44
367.789	9.06
367.998	8.84
368.207	8.8
368.415	8.68
368.624	8.48
368.833	8.8
369.042	8.16
369.25	8.42
369.459	8.46
369.668	8.1
369.877	8.31
370.085	9.2
370.294	8.79
370.503	8.49
370.711	8.63
370.92	8.84
371.129	8.69
371.337	8.73
371.546	8.63
371.754	8.58
371.963	8.96
372.171	9.23
372.38	8.74
372.589	8.82
372.797	8.93
373.006	8.75
373.214	8.59
373.423	8.33
373.631	8.17
373.84	7.71
374.048	7.94
374.256	7.58
374.465	7.44
374.673	6.89
374.882	6.78
375.09	6.99
375.298	6.56
375.507	7.1
375.715	7.41
375.923	7.38
376.132	7.58
376.34	7.2
376.548	7.15
376.757	7.1
376.965	7.47
377.173	7.65
377.381	7.17
377.59	7.43
377.798	6.85
378.006	6.09
378.214	6.7
378.423	6.63
378.631	6.67
378.839	6.34
379.047	6.3
379.255	6.4
379.463	6.32
379.671	6.33
379.879	6.33
380.088	6.65
380.296	7.24
380.504	6.86
380.712	6.9
380.92	6.5
381.128	6.6
381.336	6.62
381.544	6.48
381.752	6.5
381.96	6.77
382.168	6.84
382.376	6.54
382.584	6.33
382.791	6.27
382.999	6.2
383.207	6.19
383.415	6.24
383.623	6.2
383.831	6.01
384.039	6.1
384.247	5.86
384.454	5.65
384.662	5.44
384.87	5.43
385.078	5.31
385.285	5.42
385.493	5.8
385.701	5.92
385.909	5.87
386.116	5.65
386.324	5.62
386.532	5.87
386.739	6.07
386.947	6.12
387.155	5.95
387.362	5.78
387.57	5.68
387.778	5.42
387.985	5.23
388.193	5.16
388.4	5.5
388.608	5.49
388.816	5.09
389.023	4.99
389.231	5.12
389.438	5.2
389.646	5.63
389.853	5.57
390.061	5.45
390.268	5.36
390.475	5.27
390.683	5.17
390.89	4.84
391.098	4.98
391.305	4.82
391.512	4.58
391.72	4.29
391.927	3.94
392.135	4.03
392.342	4.13
392.549	4.14
392.756	4.11
392.964	3.97
393.171	4.14
393.378	4.19
393.586	4.32
393.793	4.54
394	4.69
394.207	4.82
394.414	4.79
394.622	4.71
394.829	4.57
395.036	4.55
395.243	4.64
395.45	4.75
395.657	4.78
395.864	4.61
396.072	4.37
396.279	4.27
396.486	4.21
396.693	4.08
396.9	4.22
397.107	4.3
397.314	4.31
397.521	4.19
397.728	4
397.935	4.01
398.142	3.98
398.349	4
398.556	3.98
398.763	3.77
398.97	3.75
399.177	3.59
399.383	3.66
399.59	3.5
399.797	3.54
400.004	3.6
400.211	3.5
400.418	3.67
400.625	3.72
400.831	3.84
401.038	3.99
401.245	4.01
401.452	3.99
401.658	3.92
401.865	3.99
402.072	3.89
402.279	3.82
402.485	3.83
402.692	3.75
402.899	3.59
403.105	3.42
403.312	3.49
403.519	3.51
403.725	3.59
403.932	3.53
404.138	3.53
404.345	3.58
404.552	3.68
404.758	3.63
404.965	3.61
405.171	3.76
405.378	3.82
405.584	3.87
405.791	3.77
405.997	3.82
406.204	3.81
406.41	3.73
406.617	3.54
406.823	3.38
407.029	3.45
407.236	3.36
407.442	3.28
407.649	3.28
407.855	3.09
408.061	3.02
408.268	2.91
408.474	3.06
408.68	3.18
408.887	3.37
409.093	3.38
409.299	3.29
409.505	3.19
409.712	3.15
409.918	3.23
410.124	3.23
410.33	3.24
410.537	3.15
410.743	2.98
410.949	2.89
411.155	3.02
411.361	2.91
411.567	2.9
411.773	3.06
411.98	2.97
412.186	2.88
412.392	2.75
412.598	2.85
412.804	2.77
413.01	2.8
413.216	2.78
413.422	2.65
413.628	2.73
413.834	2.73
414.04	2.88
414.246	2.82
414.452	3.07
414.658	3.2
414.864	3.13
415.07	3.21
415.275	3.3
415.481	3.16
415.687	3.19
415.893	3.25
416.099	3.26
416.305	3.15
416.511	3.36
416.716	3.14
416.922	3.15
417.128	3.16
417.334	3.18
417.539	3.12
417.745	3.24
417.951	3.22
418.157	3.14
418.362	3.14
418.568	3.02
418.774	2.94
418.979	3.05
419.185	3.02
419.391	2.99
419.596	3
419.802	3.01
420.008	3.01
420.213	3.02
420.419	3.07
420.624	3.08
420.83	3.22
421.035	3.23
421.241	3.17
421.446	3.19
421.652	3.24
421.857	3.25
422.063	3.27
422.268	3.31
422.474	3.26
422.679	3.25
422.885	3.25
423.09	3.18
423.295	3.17
423.501	3.13
423.706	3.16
423.911	3.08
424.117	3.04
424.322	2.98
424.527	2.92
424.733	3
424.938	2.98
425.143	2.87
425.349	2.85
425.554	2.82
425.759	2.85
425.964	2.74
426.169	2.68
426.375	2.7
426.58	2.76
426.785	2.74
426.99	2.77
427.195	2.84
427.4	2.89
427.605	2.96
427.811	2.94
428.016	2.92
428.221	2.97
428.426	3.06
428.631	2.99
428.836	2.96
429.041	2.84
429.246	2.73
429.451	2.71
429.656	2.73
429.861	2.67
430.066	2.77
430.271	2.74
430.476	2.7
430.681	2.72
430.886	2.77
431.09	2.72
431.295	2.92
431.5	2.91
431.705	2.83
431.91	2.93
432.115	2.91
432.32	2.83
432.524	2.81
432.729	2.93
432.934	3
433.139	2.97
433.343	3
433.548	2.84
433.753	2.79
433.958	2.94
434.162	2.94
434.367	2.88
434.572	2.91
434.776	2.87
434.981	2.72
435.186	2.63
435.39	2.64
435.595	2.69
435.799	2.73
436.004	2.83
436.209	2.67
436.413	2.57
436.618	2.68
436.822	2.65
437.027	2.73
437.231	2.7
437.436	2.7
437.64	2.59
437.845	2.58
438.049	2.52
438.253	2.49
438.458	2.48
438.662	2.4
438.867	2.37
439.071	2.43
439.275	2.45
439.48	2.5
439.684	2.57
439.888	2.69
440.093	2.75
440.297	2.85
440.501	2.82
440.706	2.89
440.91	3
441.114	2.96
441.318	2.91
441.523	2.89
441.727	2.99
441.931	2.86
442.135	2.89
442.339	2.79
442.543	2.77
442.748	2.81
442.952	2.7
443.156	2.66
443.36	2.7
443.564	2.74
443.768	2.73
443.972	2.61
444.176	2.62
444.38	2.53
444.584	2.5
444.788	2.49
444.992	2.49
445.196	2.53
445.4	2.59
445.604	2.49
445.808	2.48
446.012	2.49
446.216	2.53
446.42	2.6
446.624	2.61
446.828	2.61
447.032	2.6
447.235	2.53
447.439	2.53
447.643	2.49
447.847	2.61
448.051	2.61
448.254	2.6
448.458	2.58
448.662	2.52
448.866	2.57
449.069	2.63
449.273	2.73
449.477	2.74
449.681	2.79
449.884	2.74
450.088	2.69
450.292	2.65
450.495	2.7
450.699	2.82
450.902	2.84
451.106	2.85
451.31	2.82
451.513	2.71
451.717	2.72
451.92	2.66
452.124	2.69
452.327	2.74
452.531	2.71
452.734	2.69
452.938	2.56
453.141	2.55
453.345	2.57
453.548	2.56
453.752	2.57
453.955	2.65
454.158	2.64
454.362	2.7
454.565	2.66
454.769	2.74
454.972	2.84
455.175	2.79
455.379	2.78
455.582	2.74
455.785	2.66
455.988	2.63
456.192	2.6
456.395	2.64
456.598	2.52
456.801	2.53
457.005	2.5
457.208	2.42
457.411	2.52
457.614	2.51
457.817	2.49
458.021	2.51
458.224	2.57
458.427	2.54
458.63	2.56
458.833	2.6
459.036	2.6
459.239	2.59
459.442	2.58
459.645	2.62
459.848	2.69
460.051	2.76
460.254	2.78
460.457	2.78
460.66	2.72
460.863	2.71
461.066	2.66
461.269	2.61
461.472	2.69
461.675	2.69
461.878	2.58
462.081	2.54
462.284	2.44
462.486	2.51
462.689	2.52
462.892	2.71
463.095	2.73
463.298	2.77
463.5	2.76
463.703	2.7
463.906	2.68
464.109	2.56
464.311	2.54
464.514	2.59
464.717	2.51
464.92	2.43
465.122	2.33
465.325	2.3
465.528	2.31
465.73	2.34
465.933	2.3
466.135	2.33
466.338	2.41
466.541	2.38
466.743	2.32
466.946	2.33
467.148	2.4
467.351	2.41
467.553	2.42
467.756	2.36
467.958	2.4
468.161	2.42
468.363	2.39
468.566	2.31
468.768	2.23
468.971	2.29
469.173	2.2
469.375	2.18
469.578	2.09
469.78	2.08
469.983	2.23
470.185	2.29
470.387	2.25
470.59	2.28
470.792	2.48
470.994	2.68
471.196	2.72
471.399	2.85
471.601	2.9
471.803	2.98
472.005	3.06
472.208	2.98
472.41	2.92
472.612	3
472.814	2.83
473.016	2.72
473.218	2.57
473.421	2.53
473.623	2.52
473.825	2.52
474.027	2.5
474.229	2.39
474.431	2.48
474.633	2.45
474.835	2.46
475.037	2.58
475.239	2.55
475.441	2.71
475.643	2.74
475.845	2.62
476.047	2.52
476.249	2.5
476.451	2.52
476.653	2.41
476.855	2.4
477.057	2.44
477.258	2.5
477.46	2.61
477.662	2.53
477.864	2.47
478.066	2.52
478.268	2.56
478.469	2.5
478.671	2.5
478.873	2.53
479.075	2.58
479.276	2.51
479.478	2.47
479.68	2.42
479.882	2.41
480.083	2.49
480.285	2.49
480.487	2.5
480.688	2.58
480.89	2.62
481.091	2.63
481.293	2.64
481.495	2.64
481.696	2.64
481.898	2.63
482.099	2.63
482.301	2.62
482.502	2.65
482.704	2.65
482.905	2.64
483.107	2.61
483.308	2.6
483.51	2.6
483.711	2.59
483.913	2.58
484.114	2.58
484.315	2.57
484.517	2.59
484.718	2.57
484.92	2.56
485.121	2.6
485.322	2.64
485.524	2.64
485.725	2.61
485.926	2.63
486.127	2.66
486.329	2.67
486.53	2.66
486.731	2.62
486.932	2.6
487.134	2.62
487.335	2.61
487.536	2.61
487.737	2.6
487.938	2.61
488.139	2.58
488.341	2.58
488.542	2.59
488.743	2.64
488.944	2.66
489.145	2.67
489.346	2.67
489.547	2.63
489.748	2.63
489.949	2.64
490.15	2.65
490.351	2.67
490.552	2.66
490.753	2.66
490.954	2.63
491.155	2.62
491.356	2.64
491.557	2.64
491.758	2.71
491.959	2.68
492.159	2.69
492.36	2.7
492.561	2.68
492.762	2.71
492.963	2.65
493.164	2.69
493.364	2.68
493.565	2.67
493.766	2.64
493.967	2.57
494.167	2.59
494.368	2.56
494.569	2.59
494.769	2.58
494.97	2.59
495.171	2.65
495.371	2.6
495.572	2.7
495.773	2.68
495.973	2.67
496.174	2.72
496.375	2.77
496.575	2.77
496.776	2.8
496.976	2.86
497.177	2.84
497.377	2.82
497.578	2.82
497.778	2.8
497.979	2.81
498.179	2.78
498.38	2.71
498.58	2.72
498.78	2.85
498.981	2.78
499.181	2.77
499.382	2.83
499.582	2.8
499.782	2.86
499.983	2.86
500.183	2.77
500.383	2.92
500.584	2.95
500.784	2.96
500.984	2.84
501.184	2.84
501.385	2.8
501.585	2.75
501.785	2.77
501.985	2.82
502.185	2.78
502.386	2.82
502.586	2.72
502.786	2.75
502.986	2.79
503.186	2.82
503.386	2.8
503.586	2.8
503.786	2.85
503.987	2.94
504.187	2.85
504.387	2.95
504.587	2.99
504.787	3.08
504.987	3.01
505.187	2.95
505.387	2.97
505.587	2.96
505.786	3.03
505.986	2.98
506.186	2.96
506.386	3.07
506.586	3.01
506.786	3.02
506.986	3.04
507.186	3.07
507.386	3.05
507.585	3.03
507.785	3.03
507.985	2.95
508.185	2.97
508.384	2.92
508.584	2.84
508.784	2.8
508.984	2.86
509.183	2.78
509.383	2.82
509.583	2.86
509.782	2.85
509.982	2.93
510.182	2.95
510.381	2.99
510.581	3.01
510.781	3.12
510.98	3.19
511.18	3.16
511.379	3.21
511.579	3.26
511.778	3.27
511.978	3.29
512.177	3.29
512.377	3.39
512.576	3.29
512.776	3.26
512.975	3.17
513.175	3.14
513.374	3.2
513.573	3.26
513.773	3.22
513.972	3.24
514.172	3.26
514.371	3.24
514.57	3.16
514.77	3.34
514.969	3.39
515.168	3.47
515.367	3.49
515.567	3.55
515.766	3.49
515.965	3.52
516.164	3.51
516.364	3.51
516.563	3.48
516.762	3.5
516.961	3.44
517.16	3.48
517.359	3.4
517.559	3.42
517.758	3.44
517.957	3.49
518.156	3.48
518.355	3.44
518.554	3.48
518.753	3.56
518.952	3.59
519.151	3.64
519.35	3.59
519.549	3.6
519.748	3.6
519.947	3.51
520.146	3.46
520.345	3.43
520.544	3.47
520.743	3.48
520.942	3.44
521.141	3.4
521.339	3.44
521.538	3.45
521.737	3.5
521.936	3.57
522.135	3.65
522.333	3.66
522.532	3.76
522.731	3.79
522.93	3.71
523.129	3.59
523.327	3.68
523.526	3.62
523.725	3.61
523.923	3.61
524.122	3.56
524.321	3.55
524.519	3.55
524.718	3.48
524.917	3.48
525.115	3.58
525.314	3.68
525.512	3.65
525.711	3.69
525.909	3.73
526.108	3.75
526.306	3.77
526.505	3.77
526.703	3.81
526.902	3.84
527.1	3.81
527.299	3.84
527.497	3.87
527.696	3.95
527.894	3.99
528.092	4
528.291	4.02
528.489	4
528.688	4
528.886	4.03
529.084	4.09
529.283	4.14
529.481	4.07
529.679	4.05
529.877	4.04
530.076	4.01
530.274	4
530.472	4.03
530.67	4.08
530.869	4.09
531.067	4.05
531.265	4.03
531.463	4.04
531.661	4.12
531.859	4.1
532.057	4.1
532.255	4.12
532.454	4.15
532.652	4.13
532.85	4.18
533.048	4.26
533.246	4.29
533.444	4.31
533.642	4.36
533.84	4.33
534.038	4.33
534.236	4.33
534.434	4.3
534.632	4.33
534.83	4.38
535.027	4.38
535.225	4.37
535.423	4.35
535.621	4.4
535.819	4.43
536.017	4.49
536.215	4.57
536.412	4.6
536.61	4.64
536.808	4.63
537.006	4.66
537.203	4.66
537.401	4.64
537.599	4.65
537.797	4.63
537.994	4.62
538.192	4.6
538.39	4.64
538.587	4.59
538.785	4.62
538.983	4.67
539.18	4.67
539.378	4.74
539.575	4.75
539.773	4.79
539.97	4.79
540.168	4.82
540.366	4.86
540.563	4.85
540.761	4.93
540.958	4.99
541.155	5
541.353	5.06
541.55	5.04
541.748	5.09
541.945	5.17
542.143	5.23
542.34	5.23
542.537	5.24
542.735	5.24
542.932	5.23
543.129	5.16
543.327	5.16
543.524	5.1
543.721	5.14
543.919	5.12
544.116	5.12
544.313	5.12
544.51	5.21
544.708	5.22
544.905	5.25
545.102	5.26
545.299	5.34
545.496	5.39
545.693	5.45
545.891	5.5
546.088	5.55
546.285	5.55
546.482	5.62
546.679	5.61
546.876	5.68
547.073	5.7
547.27	5.76
547.467	5.77
547.664	5.78
547.861	5.82
548.058	5.74
548.255	5.79
548.452	5.84
548.649	5.94
548.846	6
549.043	6
549.24	6.15
549.437	6.15
549.633	6.11
549.83	6.16
550.027	6.13
550.224	6.13
550.421	6.21
550.618	6.25
550.814	6.19
551.011	6.11
551.208	6.19
551.405	6.24
551.601	6.32
551.798	6.49
551.995	6.52
552.191	6.65
552.388	6.77
552.585	6.81
552.781	6.85
552.978	6.95
553.175	7.06
553.371	6.92
553.568	6.94
553.764	7
553.961	6.96
554.157	7.05
554.354	7.14
554.55	7.2
554.747	7.19
554.943	7.24
555.14	7.3
555.336	7.45
555.533	7.64
555.729	7.6
555.926	7.57
556.122	7.59
556.318	7.65
556.515	7.59
556.711	7.59
556.907	7.64
557.104	7.67
557.3	7.67
557.496	7.68
557.693	7.77
557.889	7.8
558.085	7.78
558.281	7.88
558.478	7.95
558.674	8.04
558.87	8.08
559.066	8.04
559.262	8.14
559.459	8.24
559.655	8.29
559.851	8.24
560.047	8.32
560.243	8.39
560.439	8.49
560.635	8.45
560.831	8.5
561.027	8.62
561.223	8.7
561.419	8.66
561.615	8.59
561.811	8.59
562.007	8.82
562.203	8.69
562.399	8.82
562.595	8.83
562.791	8.92
562.987	9
563.183	9
563.379	9.03
563.575	9.15
563.771	9.18
563.966	9.19
564.162	9.12
564.358	9.29
564.554	9.28
564.75	9.41
564.945	9.48
565.141	9.48
565.337	9.65
565.533	9.7
565.728	9.77
565.924	9.87
566.12	10.03
566.315	10.13
566.511	10.31
566.707	10.43
566.902	10.44
567.098	10.47
567.293	10.51
567.489	10.47
567.684	10.48
567.88	10.54
568.076	10.6
568.271	10.69
568.467	10.66
568.662	10.74
568.858	10.8
569.053	10.88
569.248	10.96
569.444	11.12
569.639	11.12
569.835	11.16
570.03	11.17
570.225	11.27
570.421	11.21
570.616	11.36
570.812	11.35
571.007	11.45
571.202	11.45
571.397	11.48
571.593	11.41
571.788	11.51
571.983	11.59
572.178	11.58
572.374	11.65
572.569	11.76
572.764	11.71
572.959	11.74
573.154	11.76
573.35	11.86
573.545	11.9
573.74	11.95
573.935	12.03
574.13	12.2
574.325	12.34
574.52	12.34
574.715	12.38
574.91	12.39
575.105	12.46
575.3	12.54
575.495	12.54
575.69	12.63
575.885	12.68
576.08	12.75
576.275	12.75
576.47	12.78
576.665	12.89
576.86	12.86
577.055	13.05
577.25	13.1
577.444	13.12
577.639	13.22
577.834	13.08
578.029	13.3
578.224	13.25
578.418	13.35
578.613	13.44
578.808	13.32
579.003	13.24
579.197	13.2
579.392	13.21
579.587	13.22
579.781	13.2
579.976	13.44
580.171	13.42
580.365	13.39
580.56	13.22
580.755	13.21
580.949	13.4
581.144	13.49
581.338	13.55
581.533	13.59
581.727	13.61
581.922	13.58
582.116	13.48
582.311	13.34
582.505	13.38
582.7	13.53
582.894	13.47
583.089	13.34
583.283	13.47
583.478	13.55
583.672	13.51
583.866	13.56
584.061	13.39
584.255	13.55
584.449	13.66
584.644	13.84
584.838	13.84
585.032	14.03
585.226	14.24
585.421	14.34
585.615	14.38
585.809	14.42
586.003	14.44
586.198	14.68
586.392	14.75
586.586	14.87
586.78	14.9
586.974	14.97
587.168	15.02
587.363	15.04
587.557	14.95
587.751	15
587.945	15.16
588.139	15.08
588.333	15.22
588.527	15.18
588.721	15.18
588.915	15.11
589.109	14.96
589.303	14.89
589.497	14.82
589.691	14.88
589.885	14.88
590.079	14.79
590.273	14.94
590.466	14.75
590.66	14.81
590.854	14.9
591.048	15.01
591.242	15.17
591.436	15.26
591.629	15.37
591.823	15.37
592.017	15.48
592.211	15.65
592.404	15.68
592.598	15.75
592.792	15.69
592.986	15.71
593.179	15.73
593.373	15.75
593.567	15.72
593.76	15.77
593.954	15.82
594.147	15.82
594.341	15.72
594.535	15.79
594.728	15.95
594.922	16.07
595.115	16.08
595.309	16.21
595.502	16.33
595.696	16.41
595.889	16.42
596.083	16.48
596.276	16.47
596.47	16.6
596.663	16.6
596.856	16.71
597.05	16.67
597.243	16.66
597.437	16.65
597.63	16.67
597.823	16.64
598.017	16.59
598.21	16.62
598.403	16.61
598.596	16.58
598.79	16.48
598.983	16.38
599.176	16.44
599.369	16.45
599.563	16.4
599.756	16.33
599.949	16.27
600.142	16.46
600.335	16.4
600.528	16.51
600.722	16.55
600.915	16.8
601.108	16.95
601.301	17.08
601.494	17.19
601.687	17.12
601.88	17.18
602.073	17.17
602.266	17.06
602.459	17.12
602.652	17.08
602.845	17.03
603.038	17.01
603.231	16.98
603.424	16.78
603.617	16.84
603.809	16.89
604.002	16.85
604.195	16.95
604.388	16.86
604.581	16.8
604.774	16.79
604.966	16.78
605.159	16.67
605.352	16.55
605.545	16.68
605.737	16.51
605.93	16.56
606.123	16.73
606.316	16.71
606.508	16.88
606.701	17.14
606.894	17.29
607.086	17.32
607.279	17.42
607.471	17.52
607.664	17.55
607.857	17.58
608.049	17.66
608.242	17.61
608.434	17.68
608.627	17.78
608.819	17.6
609.012	17.46
609.204	17.62
609.397	17.64
609.589	17.61
609.782	17.65
609.974	17.59
610.166	17.39
610.359	17.48
610.551	17.39
610.743	17.33
610.936	17.42
611.128	17.39
611.32	17.27
611.513	17.23
611.705	17.22
611.897	17.11
612.09	17.25
612.282	17.23
612.474	16.99
612.666	17.02
612.858	17.23
613.051	17.19
613.243	17.28
613.435	17.12
613.627	17.1
613.819	17
614.011	17.3
614.203	17.25
614.395	17.52
614.588	17.6
614.78	17.57
614.972	17.55
615.164	17.55
615.356	17.61
615.548	17.74
615.74	17.83
615.932	18.1
616.124	17.77
616.315	17.95
616.507	17.78
616.699	17.74
616.891	17.84
617.083	17.59
617.275	17.74
617.467	17.69
617.659	17.67
617.85	17.54
618.042	17.49
618.234	17.74
618.426	17.62
618.618	17.53
618.809	17.64
619.001	17.49
619.193	17.65
619.384	17.52
619.576	17.46
619.768	17.62
619.959	17.7
620.151	17.63
620.343	17.53
620.534	17.75
620.726	17.81
620.917	17.79
621.109	18.01
621.301	18.12
621.492	18.08
621.684	18.2
621.875	18.13
622.067	18.34
622.258	18.31
622.45	18.46
622.641	18.26
622.832	18.26
623.024	18.38
623.215	18.32
623.407	18.19
623.598	18.43
623.789	18.38
623.981	18.48
624.172	18.44
624.363	18.49
624.555	18.55
624.746	18.75
624.937	18.82
625.129	18.94
625.32	19.01
625.511	19.05
625.702	18.92
625.893	19.01
626.085	18.81
626.276	18.84
626.467	18.88
626.658	18.77
626.849	18.64
627.04	18.74
627.231	18.58
627.422	18.58
627.614	18.53
627.805	18.55
627.996	18.6
628.187	18.75
628.378	18.56
628.569	18.55
628.76	18.39
628.951	18.35
629.142	18.15
629.332	18.27
629.523	18.23
629.714	18.29
629.905	18.18
630.096	18.08
630.287	18.1
630.478	18.08
630.669	18.09
630.859	18.48
631.05	18.48
631.241	18.69
631.432	18.56
631.623	18.6
631.813	18.62
632.004	18.75
632.195	18.79
632.385	18.92
632.576	19.13
632.767	19.13
632.957	19.08
633.148	19.25
633.339	19.12
633.529	19.16
633.72	19.16
633.91	19.22
634.101	19.16
634.292	19.33
634.482	19.29
634.673	19.35
634.863	19.53
635.054	19.37
635.244	19.26
635.435	19.37
635.625	19.34
635.815	19.44
636.006	19.46
636.196	19.48
636.387	19.34
636.577	19.3
636.767	19.24
636.958	19.07
637.148	19.14
637.338	19.18
637.529	19.2
637.719	19.21
637.909	19.12
638.099	19.08
638.29	19.21
638.48	19.1
638.67	19.11
638.86	19.12
639.05	19.33
639.241	19.47
639.431	19.4
639.621	19.36
639.811	19.44
640.001	19.34
640.191	19.23
640.381	19.31
640.571	19.25
640.761	19.3
640.951	19.2
641.141	18.95
641.331	18.89
641.521	19.05
641.711	19.03
641.901	19.07
642.091	19.5
642.281	19.47
642.471	19.2
642.661	19.38
642.851	19.44
643.041	19.4
643.231	19.51
643.42	19.41
643.61	19.33
643.8	19.41
643.99	19.4
644.18	18.98
644.369	19.18
644.559	19.51
644.749	19.55
644.939	19.36
645.128	19.73
645.318	19.47
645.508	19.67
645.697	19.54
645.887	19.5
646.076	19.54
646.266	19.57
646.456	19.59
646.645	19.59
646.835	19.69
647.024	19.8
647.214	19.47
647.403	19.58
647.593	19.44
647.782	19.62
647.972	19.7
648.161	19.85
648.351	19.95
648.54	19.85
648.73	19.96
648.919	19.73
649.108	19.78
649.298	19.8
649.487	20.08
649.677	19.89
649.866	19.94
650.055	20.02
650.244	19.96
650.434	20.26
650.623	20.03
650.812	19.99
651.002	20.16
651.191	20.13
651.38	20.29
651.569	20.27
651.758	20.36
651.947	20.45
652.137	20.47
652.326	20.28
652.515	20.05
652.704	20.4
652.893	20.22
653.082	20.08
653.271	20.12
653.46	19.96
653.649	19.92
653.838	20.12
654.027	20.01
654.216	20.01
654.405	19.98
654.594	19.92
654.783	19.97
654.972	20.06
655.161	20.17
655.35	20.19
655.539	20.3
655.728	20.28
655.916	20.17
656.105	20.11
656.294	20.17
656.483	20.25
656.672	20.39
656.86	20.41
657.049	20.25
657.238	20.3
657.427	20.37
657.615	20.55
657.804	20.56
657.993	20.73
658.181	20.96
658.37	20.91
658.559	20.89
658.747	20.83
658.936	20.81
659.125	21.17
659.313	21.17
659.502	21.02
659.69	21.11
659.879	21.11
660.067	21
660.256	20.61
660.444	20.62
660.633	20.59
660.821	20.73
661.01	20.59
661.198	20.25
661.387	20.29
661.575	20.23
661.763	19.94
661.952	19.79
662.14	19.79
662.328	19.99
662.517	19.78
662.705	20.01
662.893	20
663.082	20.2
663.27	20.1
663.458	19.94
663.646	19.96
663.834	20.03
664.023	20.21
664.211	20.31
664.399	20.53
664.587	20.56
664.775	20.38
664.963	20.31
665.152	20.18
665.34	20.35
665.528	20.63
665.716	20.94
665.904	21.1
666.092	21.04
666.28	20.81
666.468	20.53
666.656	20.66
666.844	20.83
667.032	20.93
667.22	21.03
667.408	21.02
667.596	21.13
667.784	20.83
667.971	20.61
668.159	20.56
668.347	21.03
668.535	21.16
668.723	21.1
668.911	21.17
669.098	21.03
669.286	21.1
669.474	21.07
669.662	20.96
669.849	21.24
670.037	21.37
670.225	21.47
670.413	20.97
670.6	21.08
670.788	21.3
670.976	21.19
671.163	21.25
671.351	21.05
671.538	20.95
671.726	20.58
671.913	20.45
672.101	20.31
672.289	20.12
672.476	20.12
672.664	20.1
672.851	19.82
673.039	19.76
673.226	19.59
673.413	19.36
673.601	19.52
673.788	19.85
673.976	19.97
674.163	20.4
674.35	20.63
674.538	20.9
674.725	20.82
674.912	20.83
675.1	20.78
675.287	20.82
675.474	21.19
675.662	21.1
675.849	21.25
676.036	21.37
676.223	21.14
676.411	21.17
676.598	20.94
676.785	21.34
676.972	21.76
677.159	21.89
677.346	21.85
677.533	21.92
677.721	21.95
677.908	21.46
678.095	21.4
678.282	21.26
678.469	21.23
678.656	21.33
678.843	21.02
679.03	20.83
679.217	20.76
679.404	20.97
679.591	20.96
679.778	21.09
679.964	21.31
680.151	21.35
680.338	21.47
680.525	21.42
680.712	21.46
680.899	21.47
681.086	21.6
681.272	21.71
681.459	21.89
681.646	21.72
681.833	21.86
682.02	22.05
682.206	21.75
682.393	21.69
682.58	21.88
682.766	22.07
682.953	22.02
683.14	21.92
683.326	21.98
683.513	21.86
683.7	22.18
683.886	21.89
684.073	22
684.259	22.01
684.446	22.05
684.632	22.09
684.819	22.02
685.005	22.03
685.192	22.17
685.378	22.04
685.565	21.84
685.751	21.58
685.938	21.7
686.124	21.88
686.31	22.08
686.497	22.37
686.683	22.35
686.87	22.18
687.056	22.24
687.242	21.85
687.429	21.84
687.615	21.87
687.801	22.01
687.987	21.88
688.174	21.66
688.36	21.91
688.546	21.84
688.732	21.76
688.918	21.98
689.105	21.9
689.291	22.22
689.477	22.39
689.663	22.48
689.849	22.27
690.035	22.43
690.221	22.25
690.407	22.22
690.593	22.14
690.779	22.52
690.965	22.37
691.151	22.51
691.337	22.57
691.523	22.72
691.709	23
691.895	23.24
692.081	23.35
692.267	23.45
692.453	23.41
692.639	23.27
692.825	22.67
693.011	22.75
693.196	22.74
693.382	22.73
693.568	22.31
693.754	21.85
693.94	21.83
694.125	21.65
694.311	21.62
694.497	21.67
694.682	21.62
694.868	21.68
695.054	21.7
695.239	21.62
695.425	21.48
695.611	21.89
695.796	22.01
695.982	21.99
696.168	21.88
696.353	21.9
696.539	21.86
696.724	22.05
696.91	22.19
697.095	22.13
697.281	22.33
697.466	22.29
697.652	22.22
697.837	22.36
698.023	22.4
698.208	22.52
698.393	22.65
698.579	22.5
698.764	22.34
698.949	22.31
699.135	22.53
699.32	22.5
699.505	22.55
699.691	22.45
699.876	22.35
700.061	22.1
700.246	21.8
700.432	21.64
700.617	21.46
700.802	21.16
700.987	21.34
701.172	21.23
701.358	21.38
701.543	21.24
701.728	21.08
701.913	21.02
702.098	21.31
702.283	21.61
702.468	21.42
702.653	21.85
702.838	22.45
703.023	22.24
703.208	22.13
703.393	22.1
703.578	22.18
703.763	22.63
703.948	22.51
704.133	22.77
704.318	22.86
704.503	23.14
704.688	22.94
704.873	22.96
705.057	23.01
705.242	23.01
705.427	22.75
705.612	23
705.797	22.76
705.981	22.81
706.166	22.51
706.351	22.76
706.536	22.75
706.72	23.07
706.905	23.07
707.09	23.13
707.274	22.93
707.459	22.96
707.644	22.78
707.828	22.79
708.013	22.87
708.197	23.11
708.382	22.68
708.567	22.63
708.751	22.41
708.936	22.71
709.12	22.9
709.305	22.97
709.489	23.08
709.673	23.22
709.858	23.07
710.042	23.22
710.227	22.98
710.411	23.26
710.596	23.3
710.78	23.19
710.964	22.45
711.149	22.58
711.333	22.74
711.517	22.76
711.702	22.61
711.886	23.06
712.07	23.04
712.254	23.11
712.438	23.02
712.623	22.82
712.807	22.9
712.991	23.48
713.175	23.33
713.359	23.52
713.544	23.4
713.728	23.46
713.912	23.08
714.096	22.96
714.28	23.05
714.464	22.89
714.648	23.18
714.832	23.24
715.016	22.7
715.2	22.4
715.384	22.16
715.568	22.29
715.752	22.07
715.936	22.25
716.12	22.08
716.304	21.88
716.488	22.12
716.671	22.13
716.855	22.3
717.039	22.6
717.223	22.97
717.407	23.01
717.59	22.92
717.774	22.85
717.958	22.73
718.142	22.72
718.325	22.87
718.509	22.45
718.693	22.17
718.877	22.15
719.06	22.17
719.244	21.84
719.428	22.05
719.611	21.66
719.795	22.13
719.978	22.2
720.162	22.58
720.345	22.67
720.529	23.18
720.713	23.76
720.896	23.64
721.08	23.35
721.263	23.6
721.446	23.33
721.63	23.45
721.813	23.03
721.997	23.1
722.18	22.49
722.364	22.11
722.547	21.91
722.73	21.74
722.914	21.53
723.097	22
723.28	21.41
723.464	21.62
723.647	21.87
723.83	22.03
724.013	21.93
724.197	22.7
724.38	22.68
724.563	22.5
724.746	22.15
724.929	22.46
725.112	22.4
725.296	22.59
725.479	22.36
725.662	22.65
725.845	23.25
726.028	23.41
726.211	23.06
726.394	23.41
726.577	23.57
726.76	23.5
726.943	23.26
727.126	22.92
727.309	23.4
727.492	23.63
727.675	23.28
727.858	22.83
728.041	22.66
728.224	22.75
728.407	22.73
728.589	22.83
728.772	23.15
728.955	23.5
729.138	23.87
729.321	23.46
729.503	23.52
729.686	23.37
729.869	23.79
730.052	23.68
730.234	23.61
730.417	23.28
730.6	23.44
730.782	23.31
730.965	23.16
731.148	23.22
731.33	23.27
731.513	23.04
731.695	23.16
731.878	22.55
732.061	22.74
732.243	22.82
732.426	23.02
732.608	23.09
732.791	22.98
732.973	22.78
733.156	22.52
733.338	22.63
733.52	22.56
733.703	22.34
733.885	22.89
734.068	22.87
734.25	22.8
734.432	22.54
734.615	22.19
734.797	22.74
734.979	22.48
735.162	22.5
735.344	22.37
735.526	22.25
735.708	22.83
735.891	22.28
736.073	22.82
736.255	23.21
736.437	23.36
736.619	23.34
736.802	22.95
736.984	23.12
737.166	23.12
737.348	23.02
737.53	23.16
737.712	22.64
737.894	22.72
738.076	22.2
738.258	22.3
738.44	22.94
738.622	22.95
738.804	23.44
738.986	23.17
739.168	23.14
739.35	23.15
739.532	22.98
739.714	23.08
739.896	23.28
740.078	22.99
740.259	22.41
740.441	21.89
740.623	21.86
740.805	21.36
740.987	22.18
741.168	22.08
741.35	22.25
741.532	22.68
741.714	22.08
741.895	21.8
742.077	21.96
742.259	21.84
742.44	22.29
742.622	22.15
742.804	21.79
742.985	21.42
743.167	22.01
743.348	22.21
743.53	21.86
743.711	22.76
743.893	22.77
744.075	22.68
744.256	23.42
744.438	23.41
744.619	23.34
744.8	23
744.982	22.98
745.163	22.96
745.345	22.49
745.526	23.06
745.707	22.59
745.889	22.76
746.07	23.33
746.252	23.36
746.433	22.65
746.614	22.66
746.795	23.28
746.977	23.25
747.158	22.66
747.339	23.25
747.52	22.48
747.702	23.48
747.883	23.3
748.064	23.39
748.245	22.64
748.426	23.14
748.607	24.11
748.788	24.24
748.97	24.55
749.151	24.61
749.332	24.49
749.513	25.4
749.694	25.05
749.875	25.05
750.056	24.23
750.237	24.27
750.418	23.71
750.599	22.95
750.78	23.04
750.96	22.85
751.141	23.26
751.322	23.07
751.503	21.84
751.684	21.18
751.865	20.64
752.046	21.17
752.226	20.86
752.407	21.23
752.588	20.93
752.769	20.41
752.949	20.43
753.13	20.25
753.311	19.92
753.492	21.09
753.672	21.62
753.853	23.16
754.034	22.89
754.214	23.68
754.395	23.65
754.575	24.61
754.756	24.35
754.937	24.67
755.117	24.52
755.298	25.05
755.478	23.94
755.659	23.87
755.839	23.43
756.02	23.66
756.2	22.93
756.381	22.39
756.561	21.46
756.741	22.26
756.922	22.3
757.102	22.14
757.283	22.1
757.463	22.89
757.643	23.45
757.823	23.58
758.004	22.48
758.184	22.68
758.364	24
758.545	24.63
758.725	24.31
758.905	24.01
759.085	24.71
759.265	24.67
759.446	24.28
759.626	23.34
759.806	23.21
759.986	24.52
760.166	24.72
760.346	23.43
760.526	23.09
760.706	23.4
760.886	22.97
761.066	22.99
761.246	23.46
761.426	23.85
761.606	24.44
761.786	24.12
761.966	24.18
762.146	24.08
762.326	24.47
762.506	24.4
762.686	24.31
762.866	24.43
763.046	24.05
763.225	23.68
763.405	23.44
763.585	23.55
763.765	23.59
763.945	23.61
764.124	23.94
764.304	23.93
764.484	24.17
764.664	24.48
764.843	24.86
765.023	25.13
765.203	25.43
765.382	25.65
765.562	24.94
765.741	24.63
765.921	24.39
766.101	24.18
766.28	24.38
766.46	24.14
766.639	23.45
766.819	22.91
766.998	22.91
767.178	22.74
767.357	22.64
767.537	23.29
767.716	23.81
767.896	24.38
768.075	24.32
768.254	23.87
768.434	24.22
768.613	24.67
768.792	25.09
768.972	24.78
769.151	24.42
769.33	23.75
769.51	23.68
769.689	24.4
769.868	24.79
770.047	24.24
770.226	24.52
770.406	24.04
770.585	23.15
770.764	23.36
770.943	23.68
771.122	23.72
771.301	24.86
771.48	24.59
771.66	23.74
771.839	22.18
772.018	23.12
772.197	23.2
772.376	24.59
772.555	24.84
772.734	24.26
772.913	24.09
773.092	23.9
773.271	23.37
773.449	23.67
773.628	23.56
773.807	24.31
773.986	23.72
774.165	23.88
774.344	22.22
774.523	22.38
774.701	22.43
774.88	22.86
775.059	23.31
775.238	23.24
775.417	22.96
775.595	23.22
775.774	21.84
775.953	21.4
776.131	21.22
776.31	21.71
776.489	21.77
776.667	21.93
776.846	21.8
777.025	21.66
777.203	21.39
777.382	21.76
777.56	21.49
777.739	22.22
777.917	22.56
778.096	22.19
778.274	22.39
778.453	22.98
778.631	23.25
778.81	22.64
778.988	21.83
779.166	22.74
779.345	22.58
779.523	22.71
779.702	23.27
779.88	24
780.058	24.48
780.237	24.52
780.415	24.24
780.593	24.41
780.771	24.48
780.95	25.37
781.128	24.47
781.306	23.79
781.484	24.02
781.662	23.89
781.841	22.87
782.019	22.82
782.197	22.18
782.375	21.63
782.553	20.76
782.731	20.02
782.909	20.37
783.087	20.23
783.265	20.83
783.443	20.53
783.621	20.42
783.799	21.63
783.977	22.08
784.155	23.07
784.333	24.1
784.511	24.69
784.689	25.96
784.867	25.48
785.045	26.67
785.223	26.37
785.4	26.82
785.578	26.55
785.756	25.29
785.934	24.82
786.112	25.44
786.289	25.61
786.467	25.53
786.645	26.17
786.823	26.29
787	25.36
787.178	25.76
787.356	25.21
787.533	25.31
787.711	25.93
787.889	25.25
788.066	24.55
788.244	24.46
788.421	23.97
788.599	22.7
788.776	22.88
788.954	23.33
789.131	23.8
789.309	24.65
789.486	23.82
789.664	22.93
789.841	24.2
790.019	24.01
790.196	24.25
790.373	24.48
790.551	24.99
790.728	24.08
790.906	24.17
791.083	22.36
791.26	21.9
791.437	22.28
791.615	23.47
791.792	21.71
791.969	21.62
792.146	20.25
792.324	20.55
792.501	21.65
792.678	21.36
792.855	21.53
793.032	22.7
793.209	22.52
793.387	23.13
793.564	22.47
793.741	23.88
793.918	23.14
794.095	23.48
794.272	23.81
794.449	21.96
794.626	23.91
794.803	23.59
794.98	23.59
795.157	22.87
795.334	22.81
795.511	22.64
795.688	22.02
795.864	22.38
796.041	23.03
796.218	22.39
796.395	23.16
796.572	22.36
796.749	22.59
796.925	22.42
797.102	23.38
797.279	24.03
797.456	24.63
797.632	25.17
797.809	25.69
797.986	24.68
798.162	25.46
798.339	25.14
798.516	25.17
798.692	25.5
798.869	25.89
799.046	25.01
799.222	24.66
799.399	24.54
799.575	24.63
799.752	24.7
799.928	25.21
800.105	23.75
800.281	24.34
800.458	24.5
800.634	23.52
800.811	23.02
800.987	24.05
801.163	23.11
801.34	22.77
801.516	22.21
801.692	21.62
801.869	22.54
802.045	23.54
802.221	23.67
802.398	22.76
802.574	22.17
802.75	21.88
802.926	21.55
803.103	22.41
803.279	22.7
803.455	23.4
803.631	23.71
803.807	21.94
803.983	22.3
804.16	22.44
804.336	22.7
804.512	23.9
804.688	24.39
804.864	23.19
805.04	22.81
805.216	22.81
805.392	21.75
805.568	21.99
805.744	22.52
805.92	21.81
806.096	21.29
806.272	21.46
806.448	21.43
806.623	21.77
806.799	24.05
806.975	24.53
807.151	25.01
807.327	26.3
807.503	26.47
807.678	27.13
807.854	27.32
808.03	26.97
808.206	26.94
808.381	26.17
808.557	26.84
808.733	26.12
808.908	25.09
809.084	24.01
809.26	23.33
809.435	23.51
809.611	22.7
809.787	22.88
809.962	24.69
810.138	24.93
810.313	25.27
810.489	24.89
810.664	24.08
810.84	25.5
811.015	26.7
811.191	25.93
811.366	25.37
811.542	25.54
811.717	26.59
811.892	25.92
812.068	26.64
812.243	26.55
812.419	26.5
812.594	27.03
812.769	26.77
812.944	26.18
813.12	26.24
813.295	26.33
813.47	26.62
813.645	26.68
813.821	25.51
813.996	24.97
814.171	25.38
814.346	23.6
814.521	23.3
814.697	22.94
814.872	22.3
815.047	22.88
815.222	25.47
815.397	25.63
815.572	24.84
815.747	25.25
815.922	24.26
816.097	24.89
816.272	25.31
816.447	24.92
816.622	24.41
816.797	26.22
816.972	25.79
817.147	23.26
817.322	23.57
817.496	23.05
817.671	23.45
817.846	23.63
818.021	22.26
818.196	23
818.371	22.9
818.545	23.89
818.72	23.47
818.895	24.23
819.069	24.49
819.244	23.98
819.419	25.33
819.594	24.97
819.768	26.23
819.943	26.91
820.117	27.09
820.292	27.51
820.467	27.19
820.641	27.09
820.816	27.06
820.99	27.55
821.165	27.4
821.339	26.9
821.514	27
821.688	27.14
821.863	27.04
822.037	27.04
822.212	26.79
822.386	26.95
822.56	26.87
822.735	27.01
822.909	26.95
823.084	27.02
823.258	27.19
823.432	27.04
823.606	26.94
823.781	27.12
823.955	27.24
824.129	27.51
824.303	27.28
824.478	27.37
824.652	27.29
824.826	26.88
825	26.97
825.174	26.78
825.348	26.89
825.523	26.37
825.697	26.28
825.871	25.93
826.045	26.25
826.219	26.47
826.393	26.34
826.567	26.07
826.741	26.08
826.915	26.12
827.089	26.81
827.263	26.49
827.437	26.88
827.611	26.61
827.784	27.1
827.958	27.12
828.132	26.81
828.306	26.8
828.48	26.65
828.654	26.69
828.827	26.71
829.001	25.96
829.175	26.89
829.349	26.61
829.522	26.71
829.696	26.1
829.87	26.59
830.044	27.07
830.217	26.78
830.391	26.46
830.565	26.41
830.738	25.91
830.912	25.52
831.085	24.3
831.259	23.77
831.432	23.26
831.606	23.78
831.779	22.48
831.953	21.9
832.126	23.08
832.3	24.02
832.473	24.04
832.647	24.2
832.82	24.88
832.994	25.31
833.167	25.32
833.34	25.78
833.514	25.62
833.687	26.44
833.86	26.92
834.034	27.44
834.207	27.22
834.38	27.78
834.553	28.2
834.727	28.06
834.9	28.43
835.073	28.58
835.246	28.87
835.419	28.39
835.593	27.94
835.766	28.06
835.939	26.62
836.112	26.23
836.285	25.37
836.458	24.84
836.631	24.51
836.804	25.4
836.977	26.04
837.15	26.88
837.323	26.39
837.496	25.63
837.669	24.36
837.842	24.91
838.015	26.05
838.188	25.48
838.361	24.81
838.533	24.27
838.706	23.24
838.879	21.89
839.052	20.25
839.225	20.58
839.398	20.06
839.57	22.32
839.743	21.63
839.916	23.43
840.088	26.15
840.261	26.1
840.434	26.91
840.607	27.87
840.779	28.18
840.952	28.24
841.124	28.26
841.297	30.92
841.47	29.56
841.642	30.31
841.815	26.38
841.987	24.51
842.16	25.84
842.332	24.84
842.505	22.4
842.677	20.56
842.85	20.03
843.022	20.87
843.194	19.12
843.367	21.95
843.539	21.42
843.712	22.35
843.884	22.14
844.056	19.25
844.229	20.5
844.401	19.3
844.573	21.48
844.745	21.72
844.918	21.18
845.09	16.61
845.262	10.6
845.434	9.22
845.606	8.55
845.779	9.86
845.951	13.81
846.123	15.31
846.295	17.67
846.467	16.66
846.639	14.46
846.811	14.25
846.983	17.49
847.155	21.2
847.327	23.41
847.499	27.24
847.671	26.25
847.843	26.35
848.015	21.82
848.187	23.05
848.359	23.46
848.531	28.41
848.703	30.63
848.875	32.31
849.047	31.07
849.218	31.43
849.39	29.27
849.562	27.58
849.734	24.08
849.905	24.58
850.077	20.83
850.249	21.29
850.421	17.2
850.592	15.39
850.764	14.63
850.936	11.59
851.107	12.77
851.279	8.82
851.451	9.12
851.622	10.65
851.794	13.28
851.965	14.34
852.137	13.02
852.308	14.23
852.48	15.51
852.651	16.82
852.823	22.21
852.994	17.88
853.166	14.32
853.337	13.39
853.509	10.71
853.68	11.06
853.851	12.53
854.023	15.05
854.194	16.53
854.365	17.2
854.537	14.14
854.708	10.91
854.879	13.82
855.05	24.73
855.222	19.89
855.393	24.07
855.564	22.2
855.735	20.99
855.906	20.85
856.078	20.54
856.249	21.32
856.42	22.53
856.591	22.79
856.762	24.08
856.933	21.54
857.104	20.11
857.275	21.36
857.446	19.82
857.617	17.41
857.788	17.29
857.959	15.02
858.13	13.87
858.301	12.96
858.472	10.17
858.643	3.75
858.814	1.36
858.985	2.97
859.155	1.78
859.326	1.03
859.497	5.88
859.668	8.94
859.839	11.64
860.009	10.13
860.18	7.21
860.351	10.42
860.522	14.67
860.692	14.8
860.863	17.58
861.034	20.52
861.204	22.39
861.375	20.33
861.546	16.62
861.716	13.33
861.887	10.76
862.057	13.7
862.228	14.66
862.398	14.37
862.569	17.2
862.739	19.62
862.91	17.52
863.08	17.4
863.251	15.22
863.421	10.11
863.592	12.02
863.762	20.22
863.932	22.89
864.103	19.67
864.273	18.2
864.443	11.69
864.614	9.16
864.784	6.68
864.954	2.69
865.125	5.99
865.295	15.19
865.465	17.83
865.635	14.21
865.805	9.41
865.976	15.75
866.146	21.16
866.316	25.5
866.486	25.63
866.656	26.53
866.826	32.37
866.996	30.77
867.166	27.71
867.336	23.04
867.506	21.85
867.676	21.63
867.846	19.68
868.016	17.8
868.186	14.57
868.356	13.23
868.526	12.11
868.696	6.65
868.866	8.42
869.036	9.06
869.206	12.96
869.376	10.19
869.545	11.04
869.715	10.22
869.885	9.35
870.055	9.87
870.224	13.88
870.394	19.01
870.564	23.9
870.734	24.71
870.903	23.24
871.073	19.57
871.243	23.38
871.412	23.3
871.582	22.83
871.751	23.36
871.921	31.05
872.091	24.77
872.26	22.46
872.43	22.35
872.599	22.72
872.769	21.77
872.938	22.43
873.108	17.3
873.277	20.22
873.446	19.86
873.616	20.97
873.785	18.38
873.955	27.19
874.124	25.68
874.293	29.36
874.463	28.67
874.632	30.51
874.801	32.99
874.971	36.51
875.14	34.06
875.309	29.89
875.478	27.72
875.647	25.1
875.817	18.38
875.986	19.14
876.155	15.13
876.324	13.59
876.493	13.44
876.662	11.81
876.831	11.43
877	10.25
877.17	15.51
877.339	18.74
877.508	19.95
877.677	17.53
877.846	16.21
878.015	17.18
878.184	13.46
878.352	12.03
878.521	16.55
878.69	16.63
878.859	16.9
879.028	18.63
879.197	18.12
879.366	19.65
879.534	21.64
879.703	23.42
879.872	25.44
880.041	29.41
880.21	30.47
880.378	30.13
880.547	29.93
880.716	30.28
880.884	30.47
881.053	30.92
881.222	31.2
881.39	31.89
881.559	31.47
881.727	30.56
881.896	30.53
882.065	30.47
882.233	30.16
882.402	30.16
882.57	31.2
882.739	31.45
882.907	30.84
883.076	30.11
883.244	30.24
883.412	30.86
883.581	30.68
883.749	30.08
883.918	29.22
884.086	29.25
884.254	28.8
884.423	27.96
884.591	26.95
884.759	27.18
884.927	26.42
885.096	24.38
885.264	23.22
885.432	23.22
885.6	21.88
885.769	21.84
885.937	19.62
886.105	19.93
886.273	18.13
886.441	15.15
886.609	12.48
886.777	10.75
886.945	11.4
887.113	11.65
887.281	10.71
887.449	12.33
887.617	14.63
887.785	16.03
887.953	14.91
888.121	13.97
888.289	16.18
888.457	20.28
888.625	23.95
888.793	25.1
888.961	19.34
889.129	14.63
889.296	10.32
889.464	6.64
889.632	4.29
889.8	1.93
889.967	3.01
890.135	-1.06
