Data from 2938442_Reflection_1.txt Node
Date: Fri Jun 19 18:17:33 EDT 2015
User: robert
Spectrometer: USB4E03002
Autoset integration time: false
Trigger mode: 4
Integration Time (sec): 1.000000E-1
Scans to average: 10
Electric dark correction enabled: true
Nonlinearity correction enabled: false
Boxcar width: 5
Stray light correction enabled: false
XAxis mode: Wavelengths
Stop averaging: false
Number of Pixels in Spectrum: 3648
>>>>>Begin Spectral Data<<<<<
177.575	-110.73
177.794	-69.05
178.014	70.55
178.233	-675.22
178.452	-153.67
178.672	69.5
178.891	144.04
179.11	57.26
179.33	540.04
179.549	-347.7
179.768	728.35
179.987	382.37
180.207	-2268.53
180.426	2116.19
180.645	457.31
180.864	233.05
181.084	166.27
181.303	146.07
181.522	187
181.741	98.71
181.96	55.76
182.179	65.5
182.398	45.43
182.618	70.51
182.837	44.06
183.056	-1.92
183.275	3358
183.494	214.04
183.713	-857.85
183.932	1635.82
184.151	388.22
184.37	1367.53
184.589	222.64
184.808	156.57
185.027	167.35
185.246	152.9
185.465	177.41
185.684	353.69
185.903	442.8
186.122	132.65
186.341	-98.99
186.56	-429.18
186.779	-100
186.998	-48.67
187.216	228.92
187.435	180.78
187.654	147.45
187.873	248.66
188.092	-788.24
188.311	126.09
188.53	429.63
188.748	43.68
188.967	-16.51
189.186	-54.13
189.405	21.79
189.623	-238.21
189.842	234.11
190.061	310.53
190.28	87.62
190.498	88.41
190.717	-880
190.936	-174.29
191.154	-33.56
191.373	-62.27
191.592	26.7
191.81	2.58
192.029	-7.66
192.248	-22.41
192.466	-22.5
192.685	-65.54
192.904	-65.91
193.122	-11.44
193.341	-14.26
193.559	-54.02
193.778	-15.95
193.996	-71.51
194.215	-11.3
194.433	11.1
194.652	-23.69
194.87	1.06
195.089	5.84
195.307	23.96
195.526	27.08
195.744	25.24
195.963	8.65
196.181	-11.29
196.399	-56.92
196.618	-723.4
196.836	940.76
197.055	299.2
197.273	644.99
197.491	193.04
197.71	175.52
197.928	134.33
198.146	199.04
198.365	705.09
198.583	156.84
198.801	137.44
199.019	363.99
199.238	231.37
199.456	2947.78
199.674	432.28
199.892	-124.34
200.111	241.1
200.329	-1328.96
200.547	450.36
200.765	442.81
200.983	-47.91
201.202	26.32
201.42	-28.86
201.638	-4.52
201.856	50.67
202.074	28.23
202.292	44.77
202.51	60.23
202.728	172.58
202.946	107.83
203.165	158.77
203.383	52.66
203.601	45.32
203.819	-19.43
204.037	-59.38
204.255	-100
204.473	557.93
204.691	270.13
204.909	-1440.81
205.127	-210.4
205.345	-136.13
205.562	-100.68
205.78	-200.6
205.998	-72.83
206.216	9.98
206.434	127.88
206.652	82.57
206.87	70.38
207.088	77.43
207.306	133.02
207.523	241.63
207.741	305.59
207.959	1190.19
208.177	478.55
208.395	1484.01
208.612	513.4
208.83	323.85
209.048	329.97
209.266	501.42
209.483	268.59
209.701	330.56
209.919	153.87
210.136	175.66
210.354	142.27
210.572	245.49
210.79	189.29
211.007	305.38
211.225	219.85
211.442	113.32
211.66	102.78
211.878	132.37
212.095	132.29
212.313	159.27
212.53	116.74
212.748	77.9
212.966	55.95
213.183	41.29
213.401	48.94
213.618	28.09
213.836	24.37
214.053	39.86
214.271	46.88
214.488	32.32
214.705	31.15
214.923	41.09
215.14	52.92
215.358	35.97
215.575	38.14
215.793	17.27
216.01	24.18
216.227	39.06
216.445	26.46
216.662	-18.06
216.879	-63.99
217.097	-31.99
217.314	-58.87
217.531	-80.63
217.749	-231.2
217.966	-236.4
218.183	-242.35
218.4	-107.54
218.618	-76.1
218.835	-182.9
219.052	-170.56
219.269	18.97
219.487	43.57
219.704	40.98
219.921	50.69
220.138	54.92
220.355	52.81
220.572	56.59
220.79	53.62
221.007	42.55
221.224	55.86
221.441	49
221.658	31.79
221.875	18.83
222.092	24.15
222.309	26.82
222.526	26.47
222.743	40.9
222.96	46.46
223.177	50.94
223.394	58.96
223.611	49.22
223.828	53.83
224.045	48.05
224.262	44
224.479	34.57
224.696	25.66
224.913	21.48
225.13	21.6
225.347	19.28
225.564	23.14
225.781	21.11
225.997	20
226.214	18.67
226.431	19.34
226.648	18.26
226.865	18.02
227.082	20.79
227.298	21.44
227.515	19.97
227.732	21.18
227.949	18.41
228.165	18.15
228.382	17.29
228.599	17.31
228.816	17.68
229.032	17.9
229.249	19.48
229.466	20.5
229.682	20.77
229.899	22.71
230.116	19.4
230.332	19.21
230.549	20.09
230.765	21.81
230.982	23.16
231.199	22.09
231.415	23.86
231.632	25.34
231.848	26.28
232.065	28.56
232.281	26.05
232.498	25.46
232.714	29.5
232.931	27.14
233.147	28.95
233.364	27.75
233.58	29.64
233.797	32.73
234.013	28.78
234.23	23.2
234.446	24.23
234.662	23.04
234.879	25.78
235.095	22.49
235.312	23.66
235.528	20.2
235.744	19.9
235.961	17.77
236.177	13.05
236.393	16.54
236.61	19.47
236.826	15.3
237.042	14.05
237.258	12.18
237.475	11.7
237.691	11.53
237.907	12.74
238.123	15.4
238.339	14.62
238.556	15.62
238.772	14.7
238.988	14.9
239.204	14.87
239.42	16.93
239.636	17.49
239.853	19.54
240.069	18.84
240.285	19.47
240.501	18.43
240.717	18.78
240.933	17.55
241.149	18.26
241.365	17.15
241.581	18.09
241.797	17.54
242.013	17.27
242.229	16.95
242.445	16.43
242.661	15.43
242.877	15.53
243.093	14.44
243.309	14.47
243.525	12.63
243.741	12.92
243.957	12.55
244.173	12.99
244.388	13.22
244.604	11.92
244.82	12.92
245.036	12.8
245.252	12.73
245.468	12.89
245.683	13.5
245.899	13.59
246.115	14.26
246.331	13.78
246.547	13.7
246.762	12.7
246.978	13.12
247.194	13.47
247.409	13.27
247.625	12.92
247.841	12.88
248.057	12.42
248.272	12.84
248.488	12.28
248.703	12.75
248.919	12.66
249.135	13.74
249.35	13.42
249.566	13.15
249.782	13.22
249.997	14.14
250.213	14.58
250.428	14.28
250.644	14.17
250.859	13.33
251.075	12.84
251.29	12.24
251.506	13.01
251.721	12.65
251.937	11.61
252.152	12.73
252.368	12.05
252.583	11.86
252.798	12.17
253.014	11.64
253.229	12.73
253.445	11.96
253.66	13.1
253.875	11.67
254.091	11.95
254.306	11.91
254.521	10.62
254.737	9.7
254.952	9.95
255.167	11
255.383	11.47
255.598	12
255.813	12.47
256.028	11.78
256.244	10.2
256.459	9.88
256.674	10.12
256.889	10
257.104	10.45
257.32	10.28
257.535	9.36
257.75	9.1
257.965	8.75
258.18	9.05
258.395	8.99
258.61	9.7
258.826	9.75
259.041	9.54
259.256	9.13
259.471	8.27
259.686	8
259.901	8.74
260.116	9.35
260.331	9.5
260.546	9.85
260.761	9.57
260.976	8.97
261.191	9.43
261.406	9.22
261.621	10.56
261.836	11.63
262.05	11.78
262.265	10.54
262.48	9.48
262.695	8.7
262.91	8.04
263.125	9.08
263.34	10.84
263.555	10.65
263.769	10.82
263.984	10.46
264.199	10.98
264.414	9.71
264.629	9.68
264.843	9.4
265.058	9.97
265.273	9.08
265.488	8.44
265.702	6.88
265.917	7.85
266.132	8.42
266.346	7.82
266.561	8.27
266.776	10.6
266.99	10.23
267.205	10.55
267.42	10.45
267.634	11.3
267.849	11.82
268.063	12.47
268.278	12.03
268.492	11.71
268.707	12.08
268.922	12.28
269.136	10.74
269.351	10.99
269.565	10.89
269.78	10.42
269.994	10.75
270.209	10.55
270.423	10.64
270.637	10.23
270.852	10.09
271.066	10.42
271.281	9.45
271.495	9.72
271.709	9.84
271.924	9.67
272.138	10.16
272.353	9.63
272.567	9.72
272.781	9.4
272.996	9.78
273.21	9.76
273.424	10.18
273.638	10.71
273.853	10.01
274.067	10.26
274.281	9.31
274.495	9.41
274.71	9.47
274.924	8.95
275.138	9.5
275.352	8.92
275.566	9.09
275.781	8.82
275.995	8.39
276.209	9.82
276.423	9.95
276.637	11.19
276.851	11.97
277.065	11.82
277.279	12.17
277.493	11.98
277.707	11.77
277.921	12.2
278.135	11.83
278.349	12.56
278.563	12.15
278.777	11.71
278.991	11.98
279.205	11.06
279.419	10.03
279.633	10.08
279.847	10.19
280.061	10.69
280.275	10.22
280.489	10.02
280.703	9.62
280.917	10.13
281.131	10.57
281.344	10.31
281.558	9.99
281.772	10.82
281.986	11.32
282.2	11.25
282.414	10.64
282.627	11.09
282.841	11.57
283.055	11.54
283.269	11
283.482	11.17
283.696	11.39
283.91	11.8
284.123	11.97
284.337	11.15
284.551	10.7
284.764	10.79
284.978	10.16
285.192	9.74
285.405	9.85
285.619	9.67
285.833	9.35
286.046	9.22
286.26	9.24
286.473	9.38
286.687	10.22
286.9	11.19
287.114	12.04
287.327	12.31
287.541	12.36
287.754	13.07
287.968	13.29
288.181	13.7
288.395	13.62
288.608	13.04
288.822	13.22
289.035	12.66
289.248	11.98
289.462	11.41
289.675	11.98
289.889	12.33
290.102	11.1
290.315	11.98
290.529	11.43
290.742	11.34
290.955	11.78
291.169	12.07
291.382	12.55
291.595	12.61
291.808	13.36
292.022	12.66
292.235	11.89
292.448	12.96
292.661	11.41
292.875	11.39
293.088	12.21
293.301	11.64
293.514	10.73
293.727	11.26
293.94	10.9
294.153	10.42
294.367	11.01
294.58	11.3
294.793	11.11
295.006	11.76
295.219	11.71
295.432	10.93
295.645	11.54
295.858	11.31
296.071	10.34
296.284	11.12
296.497	11.84
296.71	11.81
296.923	12.16
297.136	12.36
297.349	12.34
297.562	12.19
297.775	13.35
297.988	13.58
298.201	14.27
298.414	14.43
298.626	14.81
298.839	13.82
299.052	14.06
299.265	14.44
299.478	14
299.691	14.17
299.903	14.86
300.116	13.88
300.329	13.59
300.542	13.61
300.755	14.25
300.967	13.53
301.18	14.65
301.393	13.57
301.605	12.73
301.818	13.27
302.031	13.21
302.243	12.93
302.456	13
302.669	13.38
302.881	13.21
303.094	14.11
303.307	14.04
303.519	13.16
303.732	13.73
303.944	13.98
304.157	13.77
304.37	13.66
304.582	13.12
304.795	13
305.007	12.67
305.22	12.81
305.432	12.53
305.645	12.85
305.857	13.22
306.069	13.18
306.282	13.12
306.494	13.11
306.707	13.11
306.919	13.69
307.132	13.35
307.344	13.52
307.556	13.15
307.769	12.88
307.981	13.18
308.193	12.97
308.406	12.83
308.618	12.99
308.83	12.55
309.043	11.98
309.255	12.04
309.467	12.21
309.679	11.5
309.892	12.06
310.104	12.05
310.316	11.67
310.528	11.44
310.74	11.69
310.953	11.35
311.165	12.23
311.377	12.58
311.589	12.81
311.801	13.25
312.013	13.57
312.225	13.5
312.437	14.04
312.649	13.93
312.862	13.7
313.074	13.39
313.286	13.48
313.498	12.59
313.71	13.44
313.922	13.11
314.134	13.64
314.346	13.76
314.558	13.81
314.77	13.4
314.982	13.6
315.193	14.06
315.405	14.78
315.617	15
315.829	14.75
316.041	13.5
316.253	13.88
316.465	13.72
316.677	13.72
316.888	13.03
317.1	13.37
317.312	14.05
317.524	13.65
317.736	12.85
317.947	12.93
318.159	14.01
318.371	14.93
318.583	14.34
318.794	13.84
319.006	14.09
319.218	14.53
319.43	13.13
319.641	12.39
319.853	12.83
320.064	14.6
320.276	14.33
320.488	13.96
320.699	13.38
320.911	13.57
321.123	13.79
321.334	13.68
321.546	12.4
321.757	12.83
321.969	12.95
322.18	12.42
322.392	11.63
322.603	11.48
322.815	11.39
323.026	11.03
323.238	10.97
323.449	10.97
323.661	10.63
323.872	12.29
324.083	12.92
324.295	12.84
324.506	12.49
324.718	12.84
324.929	13.54
325.14	13.45
325.352	14.19
325.563	14.31
325.774	14.63
325.986	15.06
326.197	14.2
326.408	13.52
326.62	13.55
326.831	14.56
327.042	13.32
327.253	13.58
327.464	13.96
327.676	13.82
327.887	14.18
328.098	13.61
328.309	14.1
328.52	14.8
328.732	15.54
328.943	15.97
329.154	16.32
329.365	17.6
329.576	17.89
329.787	17.5
329.998	17.88
330.209	17.24
330.42	17.84
330.631	17.6
330.842	17.82
331.053	17.52
331.264	17.39
331.475	17.25
331.686	17.16
331.897	16.32
332.108	16.42
332.319	15.75
332.53	15.76
332.741	15.71
332.952	15.17
333.163	14.63
333.374	15.09
333.585	14.87
333.795	14.89
334.006	14.48
334.217	14.82
334.428	15.07
334.639	15.62
334.849	15.66
335.06	15.03
335.271	16.22
335.482	16.1
335.692	16.14
335.903	16.53
336.114	16.54
336.325	16.69
336.535	16.99
336.746	16.83
336.957	16.35
337.167	16.72
337.378	17.43
337.589	16.95
337.799	17.42
338.01	16.86
338.22	16.75
338.431	16.09
338.642	15.46
338.852	14.63
339.063	15.19
339.273	15.15
339.484	14.87
339.694	14.41
339.905	14.14
340.115	14.55
340.326	14.42
340.536	15.04
340.746	16.42
340.957	17.55
341.167	18.08
341.378	17.25
341.588	17.66
341.799	18.31
342.009	18.39
342.219	18.49
342.43	18.49
342.64	18.35
342.85	17.44
343.061	16.69
343.271	16.22
343.481	15.97
343.691	15.95
343.902	15.56
344.112	15.19
344.322	14.89
344.532	15.05
344.743	14.98
344.953	14.95
345.163	14.82
345.373	14.43
345.583	14.42
345.793	14.21
346.004	14.86
346.214	15.28
346.424	14.81
346.634	15.38
346.844	15.4
347.054	14.03
347.264	14.63
347.474	15.1
347.684	14.82
347.894	14.36
348.104	14.83
348.314	14.27
348.524	13.78
348.734	13.48
348.944	13.34
349.154	12.62
349.364	13.34
349.574	13.23
349.784	13.55
349.994	14.69
350.204	14.58
350.413	14.07
350.623	13.84
350.833	13.74
351.043	14.36
351.253	13.75
351.463	14.09
351.672	14.19
351.882	14.53
352.092	13.75
352.302	12.76
352.511	13.71
352.721	14.11
352.931	14.55
353.141	15.06
353.35	14.89
353.56	15.48
353.77	15.61
353.979	15.19
354.189	14.41
354.399	15.31
354.608	15.83
354.818	15.58
355.027	15.15
355.237	15.03
355.447	15.04
355.656	15.07
355.866	14.53
356.075	14.18
356.285	14.78
356.494	15.01
356.704	14.23
356.913	14.45
357.123	14.42
357.332	14.89
357.542	14.96
357.751	14.89
357.96	14.89
358.17	14.69
358.379	15.04
358.589	14.81
358.798	14.94
359.007	14.84
359.217	14.89
359.426	14.87
359.635	15.15
359.845	15.12
360.054	14.88
360.263	14.91
360.472	15.43
360.682	14.95
360.891	14.82
361.1	15.1
361.309	14.95
361.519	14.34
361.728	14.16
361.937	13.84
362.146	13.82
362.355	13.97
362.564	13.58
362.774	13.11
362.983	13.3
363.192	13.48
363.401	12.87
363.61	12.83
363.819	13.35
364.028	13.12
364.237	12.86
364.446	12.32
364.655	12.34
364.864	12.5
365.073	12.67
365.282	12.64
365.491	11.92
365.7	12.39
365.909	12.22
366.118	11.78
366.327	12.52
366.536	12.71
366.745	13.02
366.954	13.15
367.162	13.65
367.371	13.35
367.58	13.22
367.789	13.47
367.998	12.81
368.207	13.26
368.415	12.89
368.624	12.16
368.833	12.04
369.042	11.77
369.25	11.56
369.459	11.31
369.668	11.13
369.877	11.08
370.085	11.89
370.294	11.77
370.503	11.67
370.711	12.15
370.92	12.52
371.129	12.23
371.337	12.43
371.546	12.48
371.754	12.21
371.963	12.45
372.171	12.79
372.38	12.15
372.589	12.29
372.797	12.33
373.006	12.1
373.214	11.61
373.423	11.42
373.631	10.89
373.84	10.36
374.048	10.56
374.256	10.53
374.465	10.67
374.673	10.61
374.882	10.46
375.09	10.23
375.298	9.94
375.507	10.14
375.715	10.63
375.923	10.64
376.132	10.69
376.34	10.36
376.548	10.45
376.757	10.09
376.965	9.9
377.173	10.21
377.381	10.08
377.59	10.19
377.798	10.12
378.006	9.45
378.214	9.73
378.423	9.74
378.631	9.97
378.839	9.77
379.047	9.79
379.255	10.06
379.463	9.95
379.671	10.16
379.879	10.4
380.088	10.01
380.296	10.15
380.504	10.26
380.712	10.12
380.92	9.76
381.128	9.62
381.336	9.54
381.544	9.52
381.752	9.02
381.96	8.99
382.168	8.77
382.376	9.09
382.584	9.07
382.791	9.12
382.999	9.36
383.207	9.3
383.415	9.14
383.623	8.91
383.831	8.78
384.039	8.93
384.247	8.83
384.454	8.46
384.662	8.16
384.87	7.99
385.078	7.58
385.285	7.36
385.493	7.51
385.701	7.6
385.909	7.45
386.116	7.06
386.324	6.81
386.532	6.69
386.739	6.94
386.947	6.82
387.155	6.82
387.362	6.64
387.57	6.23
387.778	6.22
387.985	6.33
388.193	6.53
388.4	6.62
388.608	7.07
388.816	6.84
389.023	6.79
389.231	6.65
389.438	6.77
389.646	7.06
389.853	7.15
390.061	7.01
390.268	6.74
390.475	6.51
390.683	6.46
390.89	5.93
391.098	6.02
391.305	5.97
391.512	5.98
391.72	5.82
391.927	5.55
392.135	5.71
392.342	5.72
392.549	5.62
392.756	5.67
392.964	5.51
393.171	5.79
393.378	5.87
393.586	5.74
393.793	5.97
394	5.79
394.207	5.68
394.414	5.41
394.622	5.25
394.829	5.29
395.036	5.36
395.243	5.28
395.45	5.1
395.657	5.05
395.864	5.05
396.072	4.89
396.279	4.95
396.486	5.18
396.693	5.17
396.9	5.36
397.107	5.35
397.314	5.41
397.521	5.57
397.728	5.54
397.935	5.62
398.142	5.72
398.349	5.58
398.556	5.55
398.763	5.25
398.97	5.17
399.177	5.01
399.383	5.05
399.59	4.79
399.797	4.78
400.004	4.84
400.211	4.74
400.418	4.73
400.625	4.92
400.831	5
401.038	5.21
401.245	5.44
401.452	5.43
401.658	5.42
401.865	5.32
402.072	5.28
402.279	5.27
402.485	5.21
402.692	5.12
402.899	4.77
403.105	4.79
403.312	4.74
403.519	4.55
403.725	4.54
403.932	4.48
404.138	4.57
404.345	4.49
404.552	4.52
404.758	4.52
404.965	4.53
405.171	4.79
405.378	4.65
405.584	4.78
405.791	4.84
405.997	4.86
406.204	4.86
406.41	4.83
406.617	4.96
406.823	4.83
407.029	4.89
407.236	4.7
407.442	4.52
407.649	4.53
407.855	4.35
408.061	4.28
408.268	4.28
408.474	4.15
408.68	4.21
408.887	4.15
409.093	4.08
409.299	3.93
409.505	3.89
409.712	3.82
409.918	3.84
410.124	3.88
410.33	3.77
410.537	3.78
410.743	3.94
410.949	3.97
411.155	4.05
411.361	4.09
411.567	4.21
411.773	4.41
411.98	4.58
412.186	4.5
412.392	4.42
412.598	4.52
412.804	4.26
413.01	4.14
413.216	4.04
413.422	3.97
413.628	4
413.834	3.98
414.04	3.95
414.246	3.96
414.452	4.17
414.658	4.16
414.864	4.21
415.07	4.39
415.275	4.53
415.481	4.46
415.687	4.47
415.893	4.42
416.099	4.37
416.305	4.34
416.511	4.34
416.716	4.13
416.922	4.14
417.128	4.19
417.334	4.15
417.539	4.09
417.745	4.13
417.951	4.11
418.157	4.12
418.362	4.1
418.568	4.09
418.774	3.98
418.979	4.2
419.185	4.16
419.391	4.11
419.596	4.1
419.802	4.11
420.008	4.14
420.213	4.8
420.419	4.85
420.624	4.91
420.83	4.9
421.035	4.91
421.241	4.73
421.446	4.82
421.652	4.78
421.857	4.79
422.063	4.74
422.268	4.71
422.474	3.99
422.679	3.91
422.885	3.8
423.09	3.85
423.295	3.83
423.501	3.87
423.706	3.78
423.911	3.74
424.117	3.74
424.322	3.67
424.527	3.67
424.733	3.74
424.938	3.78
425.143	3.76
425.349	3.67
425.554	3.75
425.759	3.69
425.964	3.71
426.169	3.69
426.375	3.64
426.58	3.79
426.785	3.7
426.99	3.65
427.195	3.64
427.4	3.6
427.605	3.65
427.811	3.69
428.016	3.61
428.221	3.64
428.426	3.71
428.631	3.71
428.836	3.69
429.041	3.73
429.246	3.74
429.451	3.74
429.656	3.88
429.861	3.84
430.066	3.79
430.271	3.9
430.476	3.72
430.681	3.66
430.886	3.63
431.09	3.66
431.295	3.7
431.5	3.71
431.705	3.62
431.91	3.67
432.115	3.73
432.32	3.73
432.524	3.65
432.729	3.77
432.934	3.93
433.139	3.87
433.343	3.76
433.548	3.75
433.753	3.69
433.958	3.81
434.162	3.69
434.367	3.65
434.572	3.67
434.776	3.7
434.981	3.65
435.186	3.57
435.39	3.68
435.595	3.7
435.799	3.7
436.004	3.75
436.209	3.67
436.413	3.74
436.618	3.71
436.822	3.7
437.027	3.64
437.231	3.65
437.436	3.67
437.64	3.58
437.845	3.64
438.049	3.62
438.253	3.63
438.458	3.68
438.662	3.59
438.867	3.55
439.071	3.5
439.275	3.6
439.48	3.7
439.684	3.64
439.888	3.61
440.093	3.59
440.297	3.57
440.501	3.55
440.706	3.47
440.91	3.55
441.114	3.57
441.318	3.58
441.523	3.64
441.727	3.59
441.931	3.62
442.135	3.76
442.339	3.75
442.543	3.73
442.748	3.73
442.952	3.73
443.156	3.69
443.36	3.7
443.564	3.72
443.768	3.56
443.972	3.45
444.176	3.4
444.38	3.34
444.584	3.38
444.788	3.44
444.992	3.4
445.196	3.43
445.4	3.39
445.604	3.34
445.808	3.31
446.012	3.37
446.216	3.4
446.42	3.38
446.624	3.32
446.828	3.27
447.032	3.23
447.235	3.23
447.439	3.17
447.643	3.18
447.847	3.26
448.051	3.29
448.254	3.25
448.458	3.37
448.662	3.42
448.866	3.52
449.069	3.5
449.273	3.46
449.477	3.37
449.681	3.43
449.884	3.44
450.088	3.42
450.292	3.43
450.495	3.39
450.699	3.36
450.902	3.29
451.106	3.26
451.31	3.28
451.513	3.28
451.717	3.29
451.92	3.33
452.124	3.27
452.327	3.33
452.531	3.25
452.734	3.27
452.938	3.19
453.141	3.25
453.345	3.4
453.548	3.38
453.752	3.37
453.955	3.52
454.158	3.42
454.362	3.48
454.565	3.45
454.769	3.59
454.972	3.69
455.175	3.69
455.379	3.71
455.582	3.55
455.785	3.56
455.988	3.65
456.192	3.58
456.395	3.65
456.598	3.56
456.801	3.53
457.005	3.45
457.208	3.37
457.411	3.42
457.614	3.39
457.817	3.39
458.021	3.35
458.224	3.35
458.427	3.33
458.63	3.33
458.833	3.45
459.036	3.42
459.239	3.43
459.442	3.42
459.645	3.47
459.848	3.52
460.051	3.56
460.254	3.62
460.457	3.66
460.66	3.7
460.863	3.72
461.066	3.57
461.269	3.51
461.472	3.55
461.675	3.54
461.878	3.45
462.081	3.4
462.284	3.31
462.486	3.24
462.689	3.21
462.892	3.25
463.095	3.19
463.298	3.29
463.5	3.29
463.703	3.23
463.906	3.26
464.109	3.14
464.311	3.16
464.514	3.21
464.717	3.19
464.92	3.17
465.122	3.14
465.325	3.18
465.528	3.18
465.73	3.21
465.933	3.2
466.135	3.23
466.338	3.27
466.541	3.31
466.743	3.23
466.946	3.33
467.148	3.4
467.351	3.45
467.553	3.51
467.756	3.43
467.958	3.52
468.161	3.54
468.363	3.59
468.566	3.63
468.768	3.56
468.971	3.57
469.173	3.5
469.375	3.4
469.578	3.28
469.78	3.22
469.983	3.38
470.185	3.37
470.387	3.39
470.59	3.4
470.792	3.52
470.994	3.55
471.196	3.58
471.399	3.64
471.601	3.76
471.803	3.76
472.005	3.79
472.208	3.63
472.41	3.56
472.612	3.57
472.814	3.39
473.016	3.34
473.218	3.27
473.421	3.42
473.623	3.43
473.825	3.37
474.027	3.37
474.229	3.36
474.431	3.5
474.633	3.47
474.835	3.46
475.037	3.6
475.239	3.56
475.441	3.69
475.643	3.56
475.845	3.51
476.047	3.46
476.249	3.47
476.451	3.39
476.653	3.4
476.855	3.38
477.057	3.43
477.258	3.39
477.46	3.41
477.662	3.33
477.864	3.34
478.066	3.36
478.268	3.39
478.469	3.32
478.671	3.34
478.873	3.3
479.075	3.41
479.276	3.33
479.478	3.29
479.68	3.26
479.882	3.32
480.083	3.29
480.285	3.28
480.487	3.3
480.688	3.35
480.89	3.42
481.091	3.43
481.293	3.42
481.495	3.46
481.696	3.49
481.898	3.46
482.099	3.43
482.301	3.44
482.502	3.44
482.704	3.41
482.905	3.4
483.107	3.37
483.308	3.37
483.51	3.36
483.711	3.36
483.913	3.34
484.114	3.37
484.315	3.38
484.517	3.37
484.718	3.36
484.92	3.4
485.121	3.42
485.322	3.43
485.524	3.4
485.725	3.41
485.926	3.41
486.127	3.44
486.329	3.43
486.53	3.42
486.731	3.47
486.932	3.46
487.134	3.44
487.335	3.46
487.536	3.47
487.737	3.48
487.938	3.47
488.139	3.42
488.341	3.39
488.542	3.42
488.743	3.43
488.944	3.38
489.145	3.38
489.346	3.4
489.547	3.37
489.748	3.36
489.949	3.37
490.15	3.38
490.351	3.43
490.552	3.46
490.753	3.44
490.954	3.46
491.155	3.5
491.356	3.5
491.557	3.52
491.758	3.54
491.959	3.51
492.159	3.53
492.36	3.5
492.561	3.54
492.762	3.51
492.963	3.51
493.164	3.48
493.364	3.45
493.565	3.5
493.766	3.44
493.967	3.46
494.167	3.5
494.368	3.42
494.569	3.52
494.769	3.47
494.97	3.55
495.171	3.55
495.371	3.53
495.572	3.57
495.773	3.56
495.973	3.54
496.174	3.53
496.375	3.57
496.575	3.61
496.776	3.57
496.976	3.61
497.177	3.59
497.377	3.6
497.578	3.63
497.778	3.63
497.979	3.71
498.179	3.7
498.38	3.7
498.58	3.67
498.78	3.84
498.981	3.8
499.181	3.77
499.382	3.78
499.582	3.75
499.782	3.79
499.983	3.84
500.183	3.73
500.383	3.87
500.584	3.8
500.784	3.84
500.984	3.68
501.184	3.68
501.385	3.72
501.585	3.74
501.785	3.79
501.985	3.81
502.185	3.8
502.386	3.8
502.586	3.72
502.786	3.88
502.986	3.89
503.186	3.91
503.386	3.88
503.586	3.89
503.786	3.93
503.987	3.92
504.187	3.92
504.387	3.96
504.587	4.07
504.787	4.15
504.987	4.06
505.187	4.08
505.387	4.19
505.587	4.28
505.786	4.28
505.986	4.24
506.186	4.28
506.386	4.36
506.586	4.32
506.786	4.28
506.986	4.29
507.186	4.28
507.386	4.28
507.585	4.25
507.785	4.23
507.985	4.2
508.185	4.16
508.384	4.14
508.584	4.13
508.784	4.1
508.984	4.15
509.183	4.16
509.383	4.23
509.583	4.24
509.782	4.3
509.982	4.42
510.182	4.44
510.381	4.5
510.581	4.53
510.781	4.51
510.98	4.53
511.18	4.54
511.379	4.52
511.579	4.55
511.778	4.54
511.978	4.47
512.177	4.43
512.377	4.45
512.576	4.41
512.776	4.41
512.975	4.34
513.175	4.37
513.374	4.31
513.573	4.32
513.773	4.34
513.972	4.38
514.172	4.38
514.371	4.37
514.57	4.37
514.77	4.42
514.969	4.47
515.168	4.62
515.367	4.7
515.567	4.78
515.766	4.87
515.965	4.86
516.164	4.84
516.364	4.86
516.563	4.85
516.762	4.85
516.961	4.91
517.16	4.92
517.359	4.83
517.559	4.77
517.758	4.78
517.957	4.77
518.156	4.81
518.355	4.82
518.554	4.87
518.753	4.95
518.952	4.95
519.151	4.91
519.35	4.92
519.549	4.97
519.748	4.99
519.947	4.95
520.146	4.94
520.345	4.89
520.544	5
520.743	5
520.942	4.93
521.141	5.02
521.339	5.1
521.538	5.07
521.737	5.09
521.936	5.1
522.135	5.13
522.333	5.12
522.532	5.15
522.731	5.07
522.93	5.01
523.129	5.03
523.327	5.09
523.526	5.08
523.725	5.05
523.923	5.13
524.122	5.16
524.321	5.2
524.519	5.23
524.718	5.23
524.917	5.25
525.115	5.3
525.314	5.31
525.512	5.26
525.711	5.26
525.909	5.3
526.108	5.3
526.306	5.29
526.505	5.27
526.703	5.3
526.902	5.32
527.1	5.36
527.299	5.41
527.497	5.47
527.696	5.55
527.894	5.61
528.092	5.64
528.291	5.65
528.489	5.69
528.688	5.74
528.886	5.76
529.084	5.79
529.283	5.79
529.481	5.8
529.679	5.76
529.877	5.76
530.076	5.67
530.274	5.65
530.472	5.71
530.67	5.76
530.869	5.74
531.067	5.78
531.265	5.78
531.463	5.8
531.661	5.81
531.859	5.84
532.057	5.82
532.255	5.88
532.454	5.93
532.652	5.87
532.85	5.85
533.048	5.92
533.246	5.97
533.444	5.97
533.642	6.02
533.84	6.04
534.038	6.07
534.236	6.09
534.434	6.11
534.632	6.11
534.83	6.16
535.027	6.19
535.225	6.2
535.423	6.18
535.621	6.23
535.819	6.18
536.017	6.2
536.215	6.22
536.412	6.2
536.61	6.2
536.808	6.23
537.006	6.25
537.203	6.23
537.401	6.21
537.599	6.2
537.797	6.24
537.994	6.3
538.192	6.26
538.39	6.26
538.587	6.34
538.785	6.42
538.983	6.44
539.18	6.44
539.378	6.5
539.575	6.5
539.773	6.55
539.97	6.54
540.168	6.56
540.366	6.64
540.563	6.64
540.761	6.67
540.958	6.66
541.155	6.72
541.353	6.83
541.55	6.84
541.748	6.94
541.945	7.04
542.143	7.11
542.34	7.15
542.537	7.15
542.735	7.23
542.932	7.24
543.129	7.25
543.327	7.29
543.524	7.22
543.721	7.29
543.919	7.25
544.116	7.21
544.313	7.25
544.51	7.33
544.708	7.4
544.905	7.45
545.102	7.47
545.299	7.5
545.496	7.53
545.693	7.61
545.891	7.63
546.088	7.62
546.285	7.66
546.482	7.68
546.679	7.7
546.876	7.75
547.073	7.79
547.27	7.92
547.467	8.01
547.664	8.06
547.861	8.21
548.058	8.22
548.255	8.35
548.452	8.35
548.649	8.47
548.846	8.57
549.043	8.63
549.24	8.7
549.437	8.62
549.633	8.68
549.83	8.63
550.027	8.57
550.224	8.63
550.421	8.73
550.618	8.76
550.814	8.71
551.011	8.62
551.208	8.59
551.405	8.72
551.601	8.85
551.798	8.93
551.995	9.14
552.191	9.18
552.388	9.2
552.585	9.26
552.781	9.29
552.978	9.31
553.175	9.39
553.371	9.38
553.568	9.33
553.764	9.33
553.961	9.27
554.157	9.18
554.354	9.27
554.55	9.41
554.747	9.34
554.943	9.41
555.14	9.53
555.336	9.58
555.533	9.83
555.729	9.87
555.926	9.84
556.122	9.96
556.318	10.03
556.515	10.11
556.711	10.08
556.907	10.21
557.104	10.19
557.3	10.18
557.496	10.39
557.693	10.3
557.889	10.33
558.085	10.31
558.281	10.35
558.478	10.51
558.674	10.48
558.87	10.49
559.066	10.52
559.262	10.71
559.459	10.8
559.655	10.71
559.851	10.68
560.047	10.85
560.243	10.98
560.439	11.02
560.635	10.96
560.831	11.06
561.027	11.09
561.223	11.11
561.419	11.08
561.615	11
561.811	11.08
562.007	11.32
562.203	11.29
562.399	11.46
562.595	11.56
562.791	11.64
562.987	11.71
563.183	11.8
563.379	11.9
563.575	11.99
563.771	12.13
563.966	12.16
564.162	12.09
564.358	12.13
564.554	12.19
564.75	12.25
564.945	12.32
565.141	12.33
565.337	12.43
565.533	12.49
565.728	12.61
565.924	12.66
566.12	12.79
566.315	12.88
566.511	12.94
566.707	12.95
566.902	13.04
567.098	13.05
567.293	13.12
567.489	13.25
567.684	13.21
567.88	13.23
568.076	13.24
568.271	13.22
568.467	13.27
568.662	13.36
568.858	13.36
569.053	13.48
569.248	13.52
569.444	13.55
569.639	13.62
569.835	13.76
570.03	13.77
570.225	13.87
570.421	14
570.616	14.1
570.812	14.2
571.007	14.3
571.202	14.26
571.397	14.37
571.593	14.4
571.788	14.45
571.983	14.44
572.178	14.5
572.374	14.62
572.569	14.61
572.764	14.7
572.959	14.7
573.154	14.69
573.35	14.78
573.545	14.86
573.74	14.83
573.935	14.79
574.13	14.85
574.325	14.92
574.52	14.93
574.715	15.11
574.91	15.07
575.105	15.11
575.3	15.29
575.495	15.33
575.69	15.35
575.885	15.52
576.08	15.57
576.275	15.7
576.47	15.82
576.665	15.75
576.86	15.63
577.055	15.69
577.25	15.73
577.444	15.68
577.639	15.77
577.834	15.64
578.029	15.66
578.224	15.76
578.418	15.96
578.613	15.92
578.808	16.09
579.003	16.19
579.197	16.13
579.392	16.18
579.587	16.26
579.781	16.11
579.976	16.39
580.171	16.51
580.365	16.53
580.56	16.18
580.755	16.22
580.949	16.29
581.144	16.35
581.338	16.44
581.533	16.51
581.727	16.42
581.922	16.51
582.116	16.4
582.311	16.25
582.505	16.27
582.7	16.5
582.894	16.67
583.089	16.54
583.283	16.58
583.478	16.7
583.672	16.6
583.866	16.72
584.061	16.77
584.255	16.77
584.449	17
584.644	17.23
584.838	17.25
585.032	17.25
585.226	17.49
585.421	17.47
585.615	17.47
585.809	17.63
586.003	17.72
586.198	17.82
586.392	18.01
586.586	17.95
586.78	17.86
586.974	17.97
587.168	17.89
587.363	17.85
587.557	17.87
587.751	17.86
587.945	17.9
588.139	17.72
588.333	17.66
588.527	17.64
588.721	17.57
588.915	17.6
589.109	17.52
589.303	17.59
589.497	17.56
589.691	17.52
589.885	17.57
590.079	17.56
590.273	17.76
590.466	17.83
590.66	17.87
590.854	18.04
591.048	18.02
591.242	18.02
591.436	17.93
591.629	18.02
591.823	18.2
592.017	18.19
592.211	18.39
592.404	18.41
592.598	18.36
592.792	18.31
592.986	18.33
593.179	18.35
593.373	18.39
593.567	18.38
593.76	18.33
593.954	18.33
594.147	18.44
594.341	18.34
594.535	18.43
594.728	18.57
594.922	18.72
595.115	18.76
595.309	18.89
595.502	18.86
595.696	19.03
595.889	19.06
596.083	19.1
596.276	19.19
596.47	19.19
596.663	19.13
596.856	19.17
597.05	19.13
597.243	19.13
597.437	19.05
597.63	19.24
597.823	19.2
598.017	19.4
598.21	19.39
598.403	19.27
598.596	19.32
598.79	19.24
598.983	19.29
599.176	19.22
599.369	19.19
599.563	19.16
599.756	19.06
599.949	19.05
600.142	18.9
600.335	18.88
600.528	19.15
600.722	19.21
600.915	19.36
601.108	19.46
601.301	19.51
601.494	19.58
601.687	19.62
601.88	19.71
602.073	19.64
602.266	19.71
602.459	19.81
602.652	19.52
602.845	19.54
603.038	19.62
603.231	19.54
603.424	19.55
603.617	19.65
603.809	19.63
604.002	19.58
604.195	19.71
604.388	19.63
604.581	19.53
604.774	19.53
604.966	19.39
605.159	19.29
605.352	19.26
605.545	19.36
605.737	19.32
605.93	19.32
606.123	19.43
606.316	19.52
606.508	19.6
606.701	19.81
606.894	20.15
607.086	20.32
607.279	20.31
607.471	20.27
607.664	20.25
607.857	20.24
608.049	20.37
608.242	20.4
608.434	20.39
608.627	20.46
608.819	20.37
609.012	20.15
609.204	20.22
609.397	20.32
609.589	20.36
609.782	20.32
609.974	20.43
610.166	20.32
610.359	20.23
610.551	20.23
610.743	20.2
610.936	20.37
611.128	20.34
611.32	20.24
611.513	20.21
611.705	20.2
611.897	20.32
612.09	20.09
612.282	20.22
612.474	20.22
612.666	20.13
612.858	20.09
613.051	19.94
613.243	20.07
613.435	20.22
613.627	20.17
613.819	20.16
614.011	20.38
614.203	20.52
614.395	20.58
614.588	20.64
614.78	20.63
614.972	20.79
615.164	20.68
615.356	20.82
615.548	20.65
615.74	20.78
615.932	20.86
616.124	20.45
616.315	20.55
616.507	20.42
616.699	20.41
616.891	20.38
617.083	20.2
617.275	20.44
617.467	20.41
617.659	20.43
617.85	20.39
618.042	20.29
618.234	20.55
618.426	20.39
618.618	20.39
618.809	20.42
619.001	20.55
619.193	20.65
619.384	20.63
619.576	20.47
619.768	20.51
619.959	20.61
620.151	20.83
620.343	20.74
620.534	20.91
620.726	20.87
620.917	20.75
621.109	20.75
621.301	20.78
621.492	20.66
621.684	20.75
621.875	20.84
622.067	20.94
622.258	20.8
622.45	21.03
622.641	21.09
622.832	21.09
623.024	21.25
623.215	21.32
623.407	21.3
623.598	21.29
623.789	21.29
623.981	21.21
624.172	21.05
624.363	21.1
624.555	21
624.746	20.94
624.937	21.09
625.129	21.23
625.32	21.21
625.511	21.26
625.702	21.38
625.893	21.43
626.085	21.44
626.276	21.46
626.467	21.51
626.658	21.49
626.849	21.41
627.04	21.36
627.231	21.26
627.422	21.21
627.614	21.32
627.805	21.29
627.996	21.38
628.187	21.46
628.378	21.44
628.569	21.38
628.76	21.31
628.951	21.2
629.142	21.05
629.332	21
629.523	20.93
629.714	20.75
629.905	20.79
630.096	20.78
630.287	20.72
630.478	20.82
630.669	20.73
630.859	20.85
631.05	21.04
631.241	21.35
631.432	21.39
631.623	21.63
631.813	21.74
632.004	21.58
632.195	21.5
632.385	21.52
632.576	21.67
632.767	21.69
632.957	21.75
633.148	21.81
633.339	21.81
633.529	21.94
633.72	21.75
633.91	21.82
634.101	21.85
634.292	22.02
634.482	22.12
634.673	22.02
634.863	22.32
635.054	22.09
635.244	22.09
635.435	21.73
635.625	21.62
635.815	21.77
636.006	21.87
636.196	21.9
636.387	21.9
636.577	21.85
636.767	21.73
636.958	21.52
637.148	21.78
637.338	21.68
637.529	21.94
637.719	22.09
637.909	21.94
638.099	21.78
638.29	21.85
638.48	21.66
638.67	21.61
638.86	21.76
639.05	22.12
639.241	22.24
639.431	22.26
639.621	22.23
639.811	22.33
640.001	22.38
640.191	22.32
640.381	22.29
640.571	22.34
640.761	22.41
640.951	22.22
641.141	21.78
641.331	21.51
641.521	21.71
641.711	21.67
641.901	21.39
642.091	21.5
642.281	21.6
642.471	21.42
642.661	21.59
642.851	21.63
643.041	21.78
643.231	21.91
643.42	22.03
643.61	21.88
643.8	22.17
643.99	22.37
644.18	22.34
644.369	22.57
644.559	23.11
644.749	23.04
644.939	22.91
645.128	22.98
645.318	22.93
645.508	22.74
645.697	22.64
645.887	22.55
646.076	22.46
646.266	22.4
646.456	22.27
646.645	22
646.835	21.86
647.024	21.85
647.214	21.69
647.403	21.66
647.593	21.91
647.782	21.99
647.972	21.9
648.161	21.91
648.351	22.1
648.54	22
648.73	22.15
648.919	22.15
649.108	22.16
649.298	22.3
649.487	22.51
649.677	22.34
649.866	22.46
650.055	22.71
650.244	22.84
650.434	22.8
650.623	22.67
650.812	22.75
651.002	22.88
651.191	23.08
651.38	23.22
651.569	23.18
651.758	23.24
651.947	23.37
652.137	23.34
652.326	23.16
652.515	23.02
652.704	23.2
652.893	23.06
653.082	23.04
653.271	22.98
653.46	22.65
653.649	22.85
653.838	22.98
654.027	22.74
654.216	22.7
654.405	22.67
654.594	22.73
654.783	22.74
654.972	22.75
655.161	23.05
655.35	23.11
655.539	23.35
655.728	23.05
655.916	22.91
656.105	22.99
656.294	23.16
656.483	23.2
656.672	23.44
656.86	23.45
657.049	23.38
657.238	23.2
657.427	23.19
657.615	23.21
657.804	23.44
657.993	23.69
658.181	23.86
658.37	23.64
658.559	23.61
658.747	23.52
658.936	23.51
659.125	23.88
659.313	23.91
659.502	23.8
659.69	23.88
659.879	23.79
660.067	23.54
660.256	23.33
660.444	23.36
660.633	23.34
660.821	23.52
661.01	23.4
661.198	22.97
661.387	23
661.575	22.95
661.763	22.59
661.952	22.49
662.14	22.63
662.328	22.57
662.517	22.59
662.705	22.74
662.893	22.84
663.082	22.92
663.27	22.82
663.458	22.72
663.646	23.03
663.834	23.33
664.023	23.41
664.211	23.73
664.399	23.94
664.587	23.86
664.775	23.98
664.963	23.56
665.152	23.54
665.34	23.9
665.528	23.82
665.716	23.9
665.904	23.84
666.092	23.71
666.28	23.28
666.468	23.17
666.656	23.26
666.844	23.28
667.032	23.64
667.22	23.85
667.408	23.69
667.596	23.87
667.784	23.73
667.971	23.82
668.159	23.89
668.347	23.93
668.535	24.04
668.723	24.13
668.911	24.04
669.098	23.82
669.286	23.8
669.474	23.89
669.662	23.93
669.849	23.89
670.037	23.92
670.225	24.03
670.413	24.09
670.6	24.16
670.788	24.25
670.976	24.25
671.163	24.45
671.351	24.2
671.538	23.95
671.726	23.8
671.913	23.91
672.101	23.79
672.289	23.55
672.476	23.39
672.664	23.4
672.851	23.27
673.039	23.21
673.226	23.06
673.413	23.16
673.601	23.16
673.788	23.2
673.976	23.08
674.163	23.29
674.35	23.54
674.538	23.98
674.725	23.91
674.912	23.72
675.1	23.86
675.287	23.83
675.474	24
675.662	24.23
675.849	24.27
676.036	24.26
676.223	24.44
676.411	24.37
676.598	24.14
676.785	24.27
676.972	24.51
677.159	24.72
677.346	24.84
677.533	24.82
677.721	24.88
677.908	24.64
678.095	24.84
678.282	24.61
678.469	24.7
678.656	24.88
678.843	24.91
679.03	24.79
679.217	24.81
679.404	24.94
679.591	24.93
679.778	24.94
679.964	24.89
680.151	25.03
680.338	25.1
680.525	24.99
680.712	24.66
680.899	24.57
681.086	24.85
681.272	24.72
681.459	24.57
681.646	24.6
681.833	24.56
682.02	25.03
682.206	24.73
682.393	24.78
682.58	24.94
682.766	25.16
682.953	25.19
683.14	24.94
683.326	25.17
683.513	25.29
683.7	25.48
683.886	25.38
684.073	25.3
684.259	25.16
684.446	24.95
684.632	24.8
684.819	24.93
685.005	24.82
685.192	24.89
685.378	24.58
685.565	24.45
685.751	24.08
685.938	24.13
686.124	24.21
686.31	24.48
686.497	24.61
686.683	24.82
686.87	24.53
687.056	24.52
687.242	24.4
687.429	24.63
687.615	24.69
687.801	24.98
687.987	25.13
688.174	25.12
688.36	24.99
688.546	25.05
688.732	24.95
688.918	25.29
689.105	25.39
689.291	25.38
689.477	25.25
689.663	25.13
689.849	24.93
690.035	24.69
690.221	24.69
690.407	25.07
690.593	25.08
690.779	25.43
690.965	25.18
691.151	25.17
691.337	25.29
691.523	25.5
691.709	25.9
691.895	26.15
692.081	26.31
692.267	26.08
692.453	25.95
692.639	26.04
692.825	25.48
693.011	25.74
693.196	25.78
693.382	25.81
693.568	25.49
693.754	24.95
693.94	25.08
694.125	25.15
694.311	24.88
694.497	24.79
694.682	24.63
694.868	24.6
695.054	24.48
695.239	24.44
695.425	24.54
695.611	24.81
695.796	25.27
695.982	24.86
696.168	24.83
696.353	24.99
696.539	25.03
696.724	25.18
696.91	25.61
697.095	25.66
697.281	25.54
697.466	25.5
697.652	25.5
697.837	25.28
698.023	25.38
698.208	25.5
698.393	25.68
698.579	25.75
698.764	25.48
698.949	25.41
699.135	25.42
699.32	25.68
699.505	25.52
699.691	25.24
699.876	25.48
700.061	25.64
700.246	25.29
700.432	25.4
700.617	25.1
700.802	25.47
700.987	25.32
701.172	25.44
701.358	25.47
701.543	25.59
701.728	25.33
701.913	24.96
702.098	24.73
702.283	24.94
702.468	24.68
702.653	24.85
702.838	24.75
703.023	24.85
703.208	24.31
703.393	24.09
703.578	24.37
703.763	24.76
703.948	25.05
704.133	25.14
704.318	25.47
704.503	25.38
704.688	25.25
704.873	25.23
705.057	25.09
705.242	25.56
705.427	25.53
705.612	25.64
705.797	25.46
705.981	25.58
706.166	25.66
706.351	25.09
706.536	25.53
706.72	25.61
706.905	25.45
707.09	25.46
707.274	25.36
707.459	25.37
707.644	24.89
707.828	25.17
708.013	24.93
708.197	25.16
708.382	25.3
708.567	24.82
708.751	24.93
708.936	25.19
709.12	25.41
709.305	25.21
709.489	24.97
709.673	25.55
709.858	25.41
710.042	25.61
710.227	25.48
710.411	25.97
710.596	26.2
710.78	26
710.964	25.76
711.149	25.84
711.333	25.63
711.517	26.02
711.702	25.72
711.886	25.86
712.07	25.72
712.254	25.81
712.438	25.47
712.623	25.32
712.807	25.55
712.991	25.98
713.175	25.6
713.359	26.32
713.544	26.2
713.728	26.22
713.912	26.08
714.096	25.81
714.28	25.7
714.464	25.78
714.648	26.12
714.832	26.12
715.016	25.79
715.2	25.88
715.384	25.27
715.568	25.5
715.752	25.47
715.936	25.42
716.12	25.74
716.304	25.92
716.488	25.78
716.671	25.53
716.855	25.67
717.039	25.55
717.223	25.69
717.407	26.24
717.59	26.06
717.774	26.07
717.958	26.26
718.142	26.2
718.325	26.16
718.509	26.55
718.693	26.69
718.877	26.64
719.06	27.36
719.244	27.45
719.428	27.13
719.611	27.01
719.795	26.88
719.978	26.89
720.162	26.94
720.345	26.8
720.529	27.1
720.713	27.39
720.896	27.6
721.08	26.71
721.263	26.59
721.446	26.84
721.63	26.94
721.813	27.46
721.997	27.55
722.18	27.39
722.364	26.8
722.547	26.17
722.73	25.89
722.914	25.39
723.097	25.68
723.28	25.26
723.464	24.84
723.647	24.98
723.83	24.3
724.013	24.44
724.197	24.6
724.38	24.77
724.563	24.63
724.746	24.3
724.929	24.69
725.112	24.49
725.296	25.17
725.479	25.53
725.662	25.1
725.845	25.62
726.028	26.02
726.211	25.88
726.394	26.31
726.577	26.65
726.76	26.91
726.943	26.79
727.126	27.03
727.309	26.79
727.492	26.85
727.675	27.24
727.858	27.06
728.041	26.88
728.224	26.68
728.407	26.23
728.589	26.44
728.772	26.73
728.955	26.81
729.138	27.01
729.321	27.25
729.503	27.47
729.686	27.22
729.869	27.17
730.052	27.08
730.234	27.55
730.417	27.86
730.6	27.76
730.782	27.06
730.965	27.22
731.148	26.96
731.33	27.04
731.513	26.55
731.695	26.82
731.878	26.9
732.061	26.86
732.243	26.9
732.426	26.91
732.608	26.83
732.791	26.68
732.973	26.27
733.156	26.08
733.338	25.43
733.52	25.64
733.703	24.87
733.885	25.21
734.068	24.7
734.25	24.26
734.432	23.91
734.615	23.54
734.797	24.26
734.979	24.49
735.162	24.78
735.344	25.04
735.526	24.9
735.708	25.63
735.891	24.97
736.073	25.44
736.255	25.5
736.437	25.81
736.619	26.39
736.802	26.33
736.984	26.04
737.166	26.93
737.348	26.55
737.53	26.65
737.712	26.68
737.894	26.74
738.076	26.76
738.258	27.15
738.44	27.44
738.622	27.32
738.804	27.18
738.986	27.21
739.168	26.49
739.35	26.87
739.532	26.78
739.714	26.49
739.896	26.83
740.078	26.79
740.259	26.81
740.441	26.69
740.623	26.7
740.805	27.09
740.987	27.83
741.168	27.55
741.35	28.09
741.532	28.45
741.714	28.24
741.895	28.06
742.077	28.04
742.259	27.92
742.44	27.85
742.622	27.5
742.804	27.07
742.985	26.52
743.167	26.87
743.348	26.49
743.53	26.04
743.711	27.03
743.893	27.29
744.075	27.3
744.256	27.49
744.438	27.83
744.619	27.75
744.8	27.66
744.982	27.4
745.163	27.21
745.345	26.68
745.526	27.01
745.707	27
745.889	26.78
746.07	27.14
746.252	26.43
746.433	26.21
746.614	26.5
746.795	27.09
746.977	27.49
747.158	27.19
747.339	28.27
747.52	28.34
747.702	28.47
747.883	28.54
748.064	28.53
748.245	28.28
748.426	28.55
748.607	28.42
748.788	28.13
748.97	28.02
749.151	28.08
749.332	27.61
749.513	27.95
749.694	27.48
749.875	27.41
750.056	27.31
750.237	27.92
750.418	27.21
750.599	27.47
750.78	27.54
750.96	27.77
751.141	28.47
751.322	28.48
751.503	27.79
751.684	27.91
751.865	27.8
752.046	27.9
752.226	27.61
752.407	28.13
752.588	27.89
752.769	27.7
752.949	27.49
753.13	27.39
753.311	27.6
753.492	27.95
753.672	28.12
753.853	28.87
754.034	28.46
754.214	28.98
754.395	29.17
754.575	29.73
754.756	29.52
754.937	29.65
755.117	29.03
755.298	28.71
755.478	28.67
755.659	28.4
755.839	28.55
756.02	28.56
756.2	28.32
756.381	27.74
756.561	26.75
756.741	27.06
756.922	27.36
757.102	27.34
757.283	27.61
757.463	27.62
757.643	28.16
757.823	27.37
758.004	26.68
758.184	26.83
758.364	27.56
758.545	28.47
758.725	28.7
758.905	28.16
759.085	28.91
759.265	28.62
759.446	28.35
759.626	27.89
759.806	28.02
759.986	28.73
760.166	28.81
760.346	28.21
760.526	27.71
760.706	27.99
760.886	28.05
761.066	28.09
761.246	28.15
761.426	28.55
761.606	28.44
761.786	28.53
761.966	28.88
762.146	28.79
762.326	28.77
762.506	28.5
762.686	28.51
762.866	28.38
763.046	28.13
763.225	27.88
763.405	27.32
763.585	26.99
763.765	26.89
763.945	26.84
764.124	26.95
764.304	26.99
764.484	27.22
764.664	27.39
764.843	27.5
765.023	27.45
765.203	27.59
765.382	28.44
765.562	28.78
765.741	29.18
765.921	28.79
766.101	28.34
766.28	28.58
766.46	28.56
766.639	27.91
766.819	28.16
766.998	28.66
767.178	29.37
767.357	28.86
767.537	29.39
767.716	28.91
767.896	29.39
768.075	29.67
768.254	29.26
768.434	30.05
768.613	30.45
768.792	29.66
768.972	29.38
769.151	28.79
769.33	28.62
769.51	27.81
769.689	28.21
769.868	28.35
770.047	28.32
770.226	28.27
770.406	27.65
770.585	26.44
770.764	27.21
770.943	26.87
771.122	27.18
771.301	27.39
771.48	27.22
771.66	27.07
771.839	26.52
772.018	26.4
772.197	26.94
772.376	27.4
772.555	28.26
772.734	27.71
772.913	27.57
773.092	27.63
773.271	27.41
773.449	28.04
773.628	28.33
773.807	29.18
773.986	29.61
774.165	28.77
774.344	28.41
774.523	28.3
774.701	29.09
774.88	29.08
775.059	28.96
775.238	29
775.417	28.43
775.595	27.79
775.774	26.31
775.953	26.57
776.131	26.76
776.31	26.57
776.489	26.17
776.667	25.38
776.846	26.23
777.025	25.71
777.203	26.22
777.382	26.88
777.56	27.22
777.739	27.4
777.917	27.74
778.096	28.25
778.274	28.27
778.453	29.3
778.631	29.18
778.81	28.01
778.988	28.14
779.166	26.72
779.345	26.48
779.523	26.52
779.702	27
779.88	26.21
780.058	26.24
780.237	25.77
780.415	25.83
780.593	26.79
780.771	27.91
780.95	28.22
781.128	29.59
781.306	30.04
781.484	30.47
781.662	30.34
781.841	30.09
782.019	30.22
782.197	30.27
782.375	29.85
782.553	28.98
782.731	27.88
782.909	27.48
783.087	27.21
783.265	27.14
783.443	26.01
783.621	26.08
783.799	25.87
783.977	25.71
784.155	26.23
784.333	26.7
784.511	26.98
784.689	27.3
784.867	28.1
785.045	28.49
785.223	28.12
785.4	28.68
785.578	28.06
785.756	27.84
785.934	28.68
786.112	29.32
786.289	29.05
786.467	28.34
786.645	29.01
786.823	29.15
787	29.47
787.178	28.8
787.356	28.37
787.533	29.13
787.711	29.41
787.889	28.78
788.066	28.18
788.244	28.53
788.421	29.45
788.599	29.27
788.776	29.12
788.954	28.85
789.131	30.53
789.309	31.05
789.486	30.35
789.664	29.58
789.841	29.92
790.019	30.39
790.196	30.35
790.373	29.75
790.551	30.06
790.728	29.32
790.906	28.04
791.083	25.63
791.26	25.32
791.437	25.43
791.615	26.44
791.792	25.99
791.969	25.46
792.146	24.52
792.324	25.35
792.501	25.83
792.678	25.18
792.855	25.76
793.032	27.16
793.209	27.25
793.387	27.58
793.564	28.3
793.741	28.57
793.918	28.61
794.095	28.45
794.272	28.78
794.449	27.19
794.626	28.06
794.803	28.72
794.98	28.72
795.157	28.51
795.334	28.47
795.511	27.47
795.688	26.52
795.864	26.74
796.041	27.43
796.218	26.63
796.395	27.21
796.572	26.93
796.749	27.64
796.925	27.48
797.102	28.22
797.279	28.89
797.456	29.46
797.632	29.09
797.809	28.58
797.986	28.08
798.162	28.63
798.339	28.68
798.516	29.17
798.692	28.15
798.869	28.58
799.046	28.18
799.222	27.86
799.399	27.84
799.575	29.02
799.752	29.76
799.928	30.14
800.105	29.96
800.281	30.42
800.458	29.74
800.634	29.92
800.811	29.32
800.987	30.42
801.163	29.67
801.34	29.85
801.516	29.8
801.692	29.78
801.869	29.82
802.045	29.88
802.221	29.11
802.398	28.61
802.574	27.75
802.75	27.11
802.926	26.24
803.103	26.43
803.279	25.9
803.455	26.49
803.631	26.23
803.807	25.07
803.983	25.59
804.16	25.79
804.336	27.42
804.512	28.65
804.688	30.11
804.864	30.02
805.04	29.37
805.216	29.5
805.392	28.34
805.568	28.43
805.744	30.23
805.92	29.06
806.096	29.1
806.272	28.04
806.448	27.24
806.623	26.36
806.799	26.09
806.975	27.62
807.151	27.93
807.327	27.95
807.503	26.76
807.678	26.63
807.854	28.41
808.03	28.58
808.206	29.02
808.381	30.03
808.557	31.31
808.733	31.4
808.908	30.99
809.084	31.65
809.26	32.35
809.435	32.72
809.611	31.5
809.787	29.77
809.962	30.65
810.138	30.72
810.313	30.14
810.489	30.32
810.664	30.1
810.84	31.07
811.015	29.83
811.191	28.92
811.366	30.11
811.542	31.36
811.717	32.6
811.892	32.21
812.068	33.4
812.243	32.35
812.419	31.48
812.594	32.36
812.769	31.5
812.944	32.69
813.12	33.07
813.295	33.52
813.47	32.57
813.645	32.33
813.821	31.29
813.996	31.69
814.171	33.5
814.346	33.61
814.521	32.95
814.697	32.24
814.872	31.96
815.047	32.28
815.222	32.47
815.397	32.18
815.572	31.17
815.747	32.36
815.922	30.85
816.097	29.64
816.272	29.69
816.447	29.57
816.622	30
816.797	30.03
816.972	30.05
817.147	29.85
817.322	29.98
817.496	29.97
817.671	29.31
817.846	29.31
818.021	29.59
818.196	29.35
818.371	29.56
818.545	29.51
818.72	29.41
818.895	30.01
819.069	29.56
819.244	29.08
819.419	30.45
819.594	29.87
819.768	30.07
819.943	30.02
820.117	29.82
820.292	29.7
820.467	29.9
820.641	29.82
820.816	29.23
820.99	29.44
821.165	29.66
821.339	29.03
821.514	29.49
821.688	29.54
821.863	29.26
822.037	29.2
822.212	29.16
822.386	28.89
822.56	28.83
822.735	28.95
822.909	29.06
823.084	29.04
823.258	29.22
823.432	29.11
823.606	29.03
823.781	29.22
823.955	29.18
824.129	29.01
824.303	29.43
824.478	29.36
824.652	29.47
824.826	29.04
825	29.08
825.174	29.17
825.348	28.79
825.523	28.59
825.697	28.49
825.871	28.82
826.045	28.92
826.219	28.68
826.393	28.98
826.567	28.89
826.741	28.92
826.915	29.15
827.089	29.21
827.263	29.79
827.437	30.12
827.611	30.49
827.784	30.63
827.958	31.03
828.132	31.32
828.306	31.56
828.48	31.81
828.654	32.17
828.827	31.96
829.001	31.76
829.175	31.56
829.349	30.64
829.522	29.82
829.696	29.59
829.87	30.1
830.044	29.55
830.217	29.29
830.391	28.41
830.565	28.2
830.738	27.81
830.912	28.58
831.085	28.28
831.259	29.64
831.432	30.45
831.606	30.47
831.779	29.1
831.953	29.37
832.126	29.32
832.3	30.75
832.473	30.39
832.647	30.56
832.82	29.71
832.994	29.59
833.167	29.9
833.34	30.48
833.514	30.42
833.687	31.32
833.86	31.14
834.034	31.49
834.207	30.87
834.38	31.31
834.553	31.2
834.727	31.97
834.9	32
835.073	31.81
835.246	31.63
835.419	31.52
835.593	31.29
835.766	31.71
835.939	30.2
836.112	29.95
836.285	29.57
836.458	29.95
836.631	28.87
836.804	30.36
836.977	30.83
837.15	31.31
837.323	32.11
837.496	32.24
837.669	31.72
837.842	33.22
838.015	33.62
838.188	33.25
838.361	33.27
838.533	33.75
838.706	31.05
838.879	30.44
839.052	29.82
839.225	27.08
839.398	24.74
839.57	26.63
839.743	26.31
839.916	28.08
840.088	30.21
840.261	31.09
840.434	29.36
840.607	32.02
840.779	32.67
840.952	32.48
841.124	35.74
841.297	37.98
841.47	36.65
841.642	37.9
841.815	34.75
841.987	32.03
842.16	29.88
842.332	30.65
842.505	29.47
842.677	25.66
842.85	26.03
843.022	25.68
843.194	27.37
843.367	29.65
843.539	27.26
843.712	29.22
843.884	29.54
844.056	30.58
844.229	32.77
844.401	32.41
844.573	33.23
844.745	31.86
844.918	30.11
845.09	24.64
845.262	22.73
845.434	24.26
845.606	24.04
845.779	24.79
845.951	24.05
846.123	22.34
846.295	22.97
846.467	26.76
846.639	28.85
846.811	28.03
846.983	29.19
847.155	30.19
847.327	30.18
847.499	31.9
847.671	31.97
847.843	32.44
848.015	31.51
848.187	33.93
848.359	29.5
848.531	30.69
848.703	34.45
848.875	35.64
849.047	32.93
849.218	32.62
849.39	31.7
849.562	30.29
849.734	30.65
849.905	34.96
850.077	33.17
850.249	37.29
850.421	35.49
850.592	33.46
850.764	36.75
850.936	38
851.107	39.07
851.279	35.26
851.451	38.02
851.622	39.01
851.794	35.97
851.965	34.65
852.137	28
852.308	24.1
852.48	27.51
852.651	25.49
852.823	25.61
852.994	25.25
853.166	25.96
853.337	24.55
853.509	21.54
853.68	23.11
853.851	22.23
854.023	24.51
854.194	27.69
854.365	26.94
854.537	25.58
854.708	26.08
854.879	23.52
855.05	29.61
855.222	26.17
855.393	29.64
855.564	29.44
855.735	32.1
855.906	35.72
856.078	31.57
856.249	26.01
856.42	33.05
856.591	37.38
856.762	38.91
856.933	41.14
857.104	41.38
857.275	39.18
857.446	36.83
857.617	34.56
857.788	34.79
857.959	38.97
858.13	41.05
858.301	37.15
858.472	32.37
858.643	29.87
858.814	21.03
858.985	21.16
859.155	20.67
859.326	18.02
859.497	20.94
859.668	20.98
859.839	20.06
860.009	18.01
860.18	16.44
860.351	14.03
860.522	16.58
860.692	23.22
860.863	27
861.034	25.62
861.204	30.08
861.375	27.05
861.546	25.71
861.716	27.41
861.887	26.05
862.057	24.86
862.228	29.69
862.398	33.23
862.569	35.65
862.739	34.07
862.91	38.52
863.08	38.82
863.251	36.58
863.421	33.91
863.592	28.47
863.762	32.73
863.932	32.64
864.103	29.21
864.273	26.51
864.443	20.36
864.614	15.52
864.784	13.77
864.954	9.11
865.125	15.47
865.295	19.7
865.465	24.9
865.635	22.67
865.805	24.02
865.976	28
866.146	30.84
866.316	30.84
866.486	36.85
866.656	34.42
866.826	36.42
866.996	32.68
867.166	32.08
867.336	27.04
867.506	29.18
867.676	24.57
867.846	22.32
868.016	17.43
868.186	20.51
868.356	17.29
868.526	18.37
868.696	22.77
868.866	22.54
869.036	24.83
869.206	27.41
869.376	23
869.545	29
869.715	27.81
869.885	31.46
870.055	30.8
870.224	32.39
870.394	35.63
870.564	34.81
870.734	37.35
870.903	34.92
871.073	37.31
871.243	40.1
871.412	36.77
871.582	38.83
871.751	37.61
871.921	41.68
872.091	41.35
872.26	41.61
872.43	42.05
872.599	35.74
872.769	39.69
872.938	35.54
873.108	36.97
873.277	43.5
873.446	41.04
873.616	41.94
873.785	37.21
873.955	41.04
874.124	37.44
874.293	37.35
874.463	42.89
874.632	42.64
874.801	45.51
874.971	43.5
875.14	41.49
875.309	41.62
875.478	41.41
875.647	42.5
875.817	36.49
875.986	38.94
876.155	37.61
876.324	35.51
876.493	32.58
876.662	32.57
876.831	34.55
877	33.37
877.17	36.97
877.339	38.07
877.508	36.48
877.677	38.32
877.846	35.05
878.015	35.14
878.184	31.87
878.352	33.67
878.521	35.18
878.69	31.3
878.859	30.12
879.028	27.96
879.197	27.69
879.366	31.06
879.534	30.7
879.703	33.02
879.872	33.89
880.041	37.23
880.21	38.09
880.378	37.52
880.547	37.28
880.716	36.8
880.884	37.41
881.053	36.74
881.222	35.95
881.39	36.03
881.559	35.41
881.727	34.64
881.896	34.58
882.065	33.09
882.233	32.9
882.402	32.18
882.57	32.24
882.739	32.01
882.907	31.59
883.076	31.12
883.244	31.51
883.412	32.04
883.581	32.04
883.749	31.16
883.918	31.08
884.086	30.93
884.254	31.65
884.423	32.35
884.591	32.15
884.759	32.3
884.927	32.73
885.096	31.92
885.264	31.18
885.432	30.77
885.6	30.99
885.769	31.24
885.937	30.69
886.105	30.35
886.273	29.28
886.441	28.16
886.609	28.48
886.777	26.78
886.945	28.55
887.113	29.04
887.281	29.76
887.449	30.06
887.617	32.06
887.785	30.12
887.953	30.1
888.121	28.34
888.289	28.91
888.457	31.54
888.625	32.52
888.793	27.84
888.961	24.13
889.129	20.44
889.296	19.27
889.464	16.12
889.632	18.54
889.8	19.03
889.967	20.7
890.135	16.88
