Data from 2938503_Reflection_1.txt Node
Date: Tue Jun 16 23:11:06 EDT 2015
User: robert
Spectrometer: USB4E03002
Autoset integration time: false
Trigger mode: 4
Integration Time (sec): 1.000000E-1
Scans to average: 10
Electric dark correction enabled: true
Nonlinearity correction enabled: false
Boxcar width: 5
Stray light correction enabled: false
XAxis mode: Wavelengths
Stop averaging: false
Number of Pixels in Spectrum: 3648
>>>>>Begin Spectral Data<<<<<
177.575	-1062
177.794	124.94
178.014	96.41
178.233	92.61
178.452	79.4
178.672	142.61
178.891	46.66
179.11	-11800
179.33	1030.73
179.549	920.98
179.768	211.15
179.987	-216.89
180.207	41.03
180.426	36.32
180.645	21.36
180.864	21.97
181.084	39.29
181.303	1.82
181.522	-3.56
181.741	-2.63
181.96	-8.34
182.179	-38.87
182.398	-13.64
182.618	2.2
182.837	4.87
183.056	12.11
183.275	0.99
183.494	-6.65
183.713	-16.32
183.932	-9.09
184.151	14.46
184.37	12.37
184.589	19.99
184.808	19.33
185.027	1.32
185.246	8.62
185.465	1.76
185.684	-0.65
185.903	10.17
186.122	28.84
186.341	-4.3
186.56	-78.68
186.779	-98.24
186.998	-38.1
187.216	-20.3
187.435	18.09
187.654	17.28
187.873	92.98
188.092	83.01
188.311	97.72
188.53	34.32
188.748	19.76
188.967	30
189.186	-8.41
189.405	7.2
189.623	14.75
189.842	14.04
190.061	-8.26
190.28	-21.94
190.498	-11.74
190.717	-21.51
190.936	25.21
191.154	27.04
191.373	37.43
191.592	33.12
191.81	19.96
192.029	1.88
192.248	-26.64
192.466	-21.89
192.685	-62.43
192.904	-56.13
193.122	-34.25
193.341	-57.49
193.559	-69.17
193.778	-50.76
193.996	-39.56
194.215	-18.74
194.433	-12.34
194.652	-10.37
194.87	16.64
195.089	31.38
195.307	8.62
195.526	-2.98
195.744	0.93
195.963	-10.88
196.181	-82.2
196.399	-33.92
196.618	-25.45
196.836	-14.61
197.055	-20.69
197.273	-51.57
197.491	-43.75
197.71	-23.3
197.928	-19.16
198.146	-34.18
198.365	-5.01
198.583	3.79
198.801	-11.2
199.019	-17.71
199.238	-10.42
199.456	10.98
199.674	25.47
199.892	31.08
200.111	39.18
200.329	29.43
200.547	52.54
200.765	47.29
200.983	40.13
201.202	29.58
201.42	28.57
201.638	28.02
201.856	22.13
202.074	2.86
202.292	-7.18
202.51	-26.06
202.728	-1.95
202.946	-19.11
203.165	-2.1
203.383	1.89
203.601	12.45
203.819	-26.99
204.037	-50.06
204.255	-24.2
204.473	-14.39
204.691	-21.95
204.909	-42.45
205.127	-37.39
205.345	-62.1
205.562	-66.71
205.78	-32.83
205.998	-26.71
206.216	-7.45
206.434	-24.42
206.652	-25.09
206.87	-3.96
207.088	15.99
207.306	22.42
207.523	22.42
207.741	34.2
207.959	32.18
208.177	31.27
208.395	17.43
208.612	14.61
208.83	18.79
209.048	7.72
209.266	-26.61
209.483	-30.93
209.701	-28.85
209.919	-35.53
210.136	-33.07
210.354	-36.15
210.572	-36.14
210.79	-36.76
211.007	-9.53
211.225	-5.06
211.442	2.3
211.66	5.49
211.878	-6.43
212.095	-81.74
212.313	-66.11
212.53	-60.41
212.748	-96.7
212.966	-95.25
213.183	-80.68
213.401	-124.47
213.618	-127.56
213.836	-144.21
214.053	-106.21
214.271	-117.81
214.488	-21.03
214.705	-49.98
214.923	-68.23
215.14	-81.71
215.358	-78.3
215.575	-57.51
215.793	-39.15
216.01	-21.12
216.227	-15.95
216.445	-21.32
216.662	-3.39
216.879	1.06
217.097	5.64
217.314	11.72
217.531	17.77
217.749	12.48
217.966	9.43
218.183	10.22
218.4	2.98
218.618	-0.63
218.835	8.56
219.052	-6.02
219.269	-22.95
219.487	-23.05
219.704	-25.93
219.921	-25.75
220.138	-18.47
220.355	-30.81
220.572	-22.66
220.79	-8
221.007	-10.16
221.224	-16.63
221.441	-6.92
221.658	1.72
221.875	0.26
222.092	5.32
222.309	9.07
222.526	11.93
222.743	13.63
222.96	14.54
223.177	13.31
223.394	11.98
223.611	16.29
223.828	14.85
224.045	8.08
224.262	11.06
224.479	8.24
224.696	4.07
224.913	4.99
225.13	7.76
225.347	4.87
225.564	3.22
225.781	4.86
225.997	7.04
226.214	7.04
226.431	7.06
226.648	10.05
226.865	10.75
227.082	11.85
227.298	10.96
227.515	10.67
227.732	10.52
227.949	11.3
228.165	10.51
228.382	9.31
228.599	9.17
228.816	11.44
229.032	10.18
229.249	9.98
229.466	9.84
229.682	9.02
229.899	8.23
230.116	8.49
230.332	7.84
230.549	11.89
230.765	12.58
230.982	13.83
231.199	11.4
231.415	10.01
231.632	9.09
231.848	8.55
232.065	11.33
232.281	13.16
232.498	15.47
232.714	15.95
232.931	13.27
233.147	14.08
233.364	11.09
233.58	11.68
233.797	10.72
234.013	11.01
234.23	12.89
234.446	12.41
234.662	9.72
234.879	6.95
235.095	5.34
235.312	3
235.528	2.02
235.744	4.24
235.961	5.62
236.177	8.07
236.393	9.2
236.61	9.28
236.826	7.1
237.042	6.91
237.258	7.04
237.475	7.31
237.691	9.12
237.907	7.54
238.123	6.64
238.339	5.7
238.556	6.32
238.772	7.81
238.988	7.04
239.204	8.33
239.42	9.58
239.636	9.76
239.853	10.3
240.069	11.56
240.285	11.98
240.501	12.49
240.717	12.51
240.933	11.94
241.149	11.62
241.365	12
241.581	12.11
241.797	12.84
242.013	12.93
242.229	13.16
242.445	11.84
242.661	11.98
242.877	12.31
243.093	12.14
243.309	12.03
243.525	12.11
243.741	12.04
243.957	11.62
244.173	10.65
244.388	10.47
244.604	9.85
244.82	10.48
245.036	10.23
245.252	9.61
245.468	9.74
245.683	9.76
245.899	9.5
246.115	9.54
246.331	9.47
246.547	9.68
246.762	9.85
246.978	9.79
247.194	9.24
247.409	9.84
247.625	10.03
247.841	9.93
248.057	10
248.272	9.45
248.488	9.27
248.703	9.22
248.919	8.48
249.135	8.21
249.35	8.42
249.566	9.49
249.782	8.5
249.997	9.21
250.213	8.6
250.428	8.63
250.644	9.35
250.859	9.39
251.075	9.7
251.29	9.84
251.506	9.6
251.721	9.31
251.937	8.39
252.152	8.38
252.368	7.56
252.583	7.82
252.798	7.05
253.014	6.22
253.229	5.84
253.445	5.83
253.66	6.08
253.875	6.48
254.091	7.23
254.306	7.91
254.521	8.58
254.737	9.04
254.952	9.44
255.167	9.08
255.383	9.02
255.598	8.98
255.813	8.22
256.028	7.64
256.244	7.66
256.459	7.32
256.674	6.53
256.889	6.06
257.104	6.75
257.32	7.12
257.535	7.35
257.75	7.62
257.965	7.38
258.18	7.82
258.395	7.73
258.61	8.18
258.826	8.23
259.041	8.85
259.256	9.05
259.471	8.83
259.686	8.55
259.901	8.67
260.116	8.75
260.331	9.3
260.546	9.5
260.761	10.11
260.976	9.52
261.191	9.56
261.406	8.7
261.621	8.42
261.836	8.37
262.05	9.03
262.265	8.62
262.48	8.79
262.695	8.74
262.91	8.38
263.125	7.65
263.34	7.82
263.555	7.88
263.769	8.41
263.984	8.8
264.199	8.43
264.414	7.71
264.629	7.64
264.843	7.28
265.058	6.66
265.273	6.08
265.488	6.84
265.702	6.65
265.917	6.73
266.132	6.34
266.346	6.36
266.561	6.71
266.776	6.74
266.99	7.53
267.205	7.37
267.42	7.63
267.634	7.86
267.849	7.63
268.063	7.85
268.278	7.58
268.492	8.01
268.707	8.24
268.922	8.14
269.136	7.99
269.351	8.2
269.565	8.22
269.78	7.94
269.994	7.62
270.209	7.71
270.423	7.81
270.637	7.89
270.852	7.73
271.066	7.48
271.281	7.32
271.495	7.46
271.709	7
271.924	7.47
272.138	7.85
272.353	8.01
272.567	8.07
272.781	7.83
272.996	7.9
273.21	8.09
273.424	7.69
273.638	7.61
273.853	7.79
274.067	7.93
274.281	7.83
274.495	8.01
274.71	7.7
274.924	7.41
275.138	7.37
275.352	7.37
275.566	7.27
275.781	7.26
275.995	7.83
276.209	7.75
276.423	8.17
276.637	8.33
276.851	7.51
277.065	8.14
277.279	8.5
277.493	8.71
277.707	8.92
277.921	8.47
278.135	8.66
278.349	8.17
278.563	8.32
278.777	8.15
278.991	7.51
279.205	8.11
279.419	7.75
279.633	7.5
279.847	7.34
280.061	7.41
280.275	7.53
280.489	8.04
280.703	7.89
280.917	8.1
281.131	7.92
281.344	7.82
281.558	7.74
281.772	7.79
281.986	7.86
282.2	7.68
282.414	7.32
282.627	7.59
282.841	7.22
283.055	7.33
283.269	7.11
283.482	6.99
283.696	6.96
283.91	6.78
284.123	7.04
284.337	6.83
284.551	7.23
284.764	7.57
284.978	7.61
285.192	7.54
285.405	7.79
285.619	7.78
285.833	7.81
286.046	8.04
286.26	8.1
286.473	7.95
286.687	8.09
286.9	8.07
287.114	7.89
287.327	8.08
287.541	8.08
287.754	7.98
287.968	7.93
288.181	7.54
288.395	7.8
288.608	8.21
288.822	8.37
289.035	8.09
289.248	7.79
289.462	7.89
289.675	7.52
289.889	7.92
290.102	7.64
290.315	7.45
290.529	7.77
290.742	7.17
290.955	7.01
291.169	6.64
291.382	6.95
291.595	6.88
291.808	6.84
292.022	7.28
292.235	7.39
292.448	7.53
292.661	8.12
292.875	8.48
293.088	8.93
293.301	8.77
293.514	8.74
293.727	8.97
293.94	9.21
294.153	9.3
294.367	9.32
294.58	8.93
294.793	9.04
295.006	8.93
295.219	8.85
295.432	8.71
295.645	8.73
295.858	8.97
296.071	9.08
296.284	9.17
296.497	9.16
296.71	9.11
296.923	9.36
297.136	9.14
297.349	9.03
297.562	9.01
297.775	9.16
297.988	9.33
298.201	9.3
298.414	9.08
298.626	8.84
298.839	8.9
299.052	9.13
299.265	8.9
299.478	9.4
299.691	9.8
299.903	9.59
300.116	9.67
300.329	9.51
300.542	9.6
300.755	9.95
300.967	10.28
301.18	10.17
301.393	10.08
301.605	9.91
301.818	10.18
302.031	9.71
302.243	9.93
302.456	10.13
302.669	10.28
302.881	10.12
303.094	9.78
303.307	9.81
303.519	10.2
303.732	10.09
303.944	10.46
304.157	10.57
304.37	10.42
304.582	10.65
304.795	10.59
305.007	10.57
305.22	10.47
305.432	10.61
305.645	10.3
305.857	9.87
306.069	9.75
306.282	9.57
306.494	9.14
306.707	9.94
306.919	9.96
307.132	9.9
307.344	10.13
307.556	10.46
307.769	10.38
307.981	10.63
308.193	10.94
308.406	11.1
308.618	11.12
308.83	11.37
309.043	11.02
309.255	11.01
309.467	11.36
309.679	10.64
309.892	10.67
310.104	10.6
310.316	10.77
310.528	10.55
310.74	10.51
310.953	10.63
311.165	10.49
311.377	10.93
311.589	11.04
311.801	10.58
312.013	10.97
312.225	10.73
312.437	10.74
312.649	10.72
312.862	10.91
313.074	11.01
313.286	11.01
313.498	11.07
313.71	10.78
313.922	10.76
314.134	11.05
314.346	11
314.558	11.3
314.77	11.42
314.982	11.37
315.193	11.36
315.405	11.27
315.617	11.48
315.829	11.26
316.041	11.14
316.253	10.59
316.465	10.47
316.677	10.69
316.888	10.46
317.1	10.47
317.312	10.38
317.524	9.95
317.736	10.16
317.947	9.9
318.159	9.65
318.371	9.64
318.583	10.31
318.794	10.38
319.006	10.73
319.218	10.66
319.43	10.83
319.641	11
319.853	11.37
320.064	11.02
320.276	11.13
320.488	11.53
320.699	11.34
320.911	11.12
321.123	11.24
321.334	11.27
321.546	12.01
321.757	11.29
321.969	10.93
322.18	10.88
322.392	10.87
322.603	10.9
322.815	10.91
323.026	10.76
323.238	10.75
323.449	10.64
323.661	10.15
323.872	9.73
324.083	9.84
324.295	9.96
324.506	10.28
324.718	10.47
324.929	10.79
325.14	10.53
325.352	10.6
325.563	10.77
325.774	11.02
325.986	11.53
326.197	11.39
326.408	11.9
326.62	11.92
326.831	11.59
327.042	11.34
327.253	10.81
327.464	10.86
327.676	10.78
327.887	10.68
328.098	10.2
328.309	9.91
328.52	10.19
328.732	10.2
328.943	9.9
329.154	10.17
329.365	10.37
329.576	10.63
329.787	10.43
329.998	11.01
330.209	10.75
330.42	10.6
330.631	10.95
330.842	10.92
331.053	10.22
331.264	10.6
331.475	10.54
331.686	10.43
331.897	10.17
332.108	10.55
332.319	10.44
332.53	10.77
332.741	11.36
332.952	10.58
333.163	10.42
333.374	11.03
333.585	10.63
333.795	10.2
334.006	10.3
334.217	10.34
334.428	10.3
334.639	10.22
334.849	9.57
335.06	9.27
335.271	9.99
335.482	9.67
335.692	9.53
335.903	9.73
336.114	10.02
336.325	10.27
336.535	10.42
336.746	10.43
336.957	10.67
337.167	11.06
337.378	11.12
337.589	10.37
337.799	11.05
338.01	10.91
338.22	11.17
338.431	11.07
338.642	10.54
338.852	10.51
339.063	10.64
339.273	10.74
339.484	11.01
339.694	10.46
339.905	11.22
340.115	10.59
340.326	10.62
340.536	10.38
340.746	10.33
340.957	10.46
341.167	10.24
341.378	10.04
341.588	9.85
341.799	9.69
342.009	9.62
342.219	9.19
342.43	9.4
342.64	9.15
342.85	9.03
343.061	9.09
343.271	8.85
343.481	8.77
343.691	9.03
343.902	8.61
344.112	8.53
344.322	8.71
344.532	8.51
344.743	8.23
344.953	8.56
345.163	8.72
345.373	8.66
345.583	8.81
345.793	9.17
346.004	8.98
346.214	9.27
346.424	9.44
346.634	9.44
346.844	10.01
347.054	10.4
347.264	10.32
347.474	10.35
347.684	10.11
347.894	9.87
348.104	9.84
348.314	10.03
348.524	9.73
348.734	9.86
348.944	9.86
349.154	9.6
349.364	9.39
349.574	9.36
349.784	9.25
349.994	9.31
350.204	9.9
350.413	9.83
350.623	9.6
350.833	9.63
351.043	8.82
351.253	8.93
351.463	8.69
351.672	8.7
351.882	8.69
352.092	8.97
352.302	8.89
352.511	8.83
352.721	8.93
352.931	8.74
353.141	8.91
353.35	9.06
353.56	8.93
353.77	9.29
353.979	9.26
354.189	9.64
354.399	9.61
354.608	9.81
354.818	9.21
355.027	8.79
355.237	9
355.447	8.95
355.656	9.26
355.866	9.35
356.075	8.98
356.285	8.94
356.494	8.52
356.704	8.32
356.913	8.29
357.123	8.19
357.332	8.13
357.542	7.9
357.751	7.95
357.96	8.06
358.17	7.95
358.379	7.86
358.589	7.92
358.798	7.95
359.007	7.8
359.217	7.79
359.426	8.12
359.635	8.35
359.845	8.37
360.054	8.17
360.263	7.83
360.472	7.57
360.682	7.6
360.891	7.63
361.1	7.58
361.309	7.63
361.519	7.65
361.728	7.68
361.937	7.62
362.146	7.5
362.355	7.62
362.564	7.78
362.774	8.03
362.983	8.22
363.192	8.13
363.401	8.08
363.61	7.99
363.819	7.96
364.028	7.84
364.237	7.65
364.446	7.66
364.655	7.59
364.864	7.65
365.073	7.79
365.282	7.73
365.491	7.99
365.7	8.17
365.909	8.27
366.118	8.04
366.327	8.04
366.536	8.18
366.745	8.35
366.954	8.28
367.162	8.15
367.371	8.41
367.58	8.33
367.789	8.23
367.998	7.89
368.207	7.62
368.415	7.62
368.624	7.64
368.833	7.54
369.042	7.51
369.25	7.47
369.459	7.44
369.668	7.14
369.877	7.24
370.085	6.99
370.294	7.17
370.503	7.6
370.711	7.66
370.92	7.76
371.129	7.76
371.337	7.6
371.546	7.48
371.754	7.13
371.963	7.19
372.171	7.23
372.38	7.26
372.589	7
372.797	6.73
373.006	6.69
373.214	6.63
373.423	6.41
373.631	6.6
373.84	6.77
374.048	6.96
374.256	6.88
374.465	6.62
374.673	6.88
374.882	7.09
375.09	7.05
375.298	6.97
375.507	6.59
375.715	6.88
375.923	6.85
376.132	6.87
376.34	6.87
376.548	6.75
376.757	7.06
376.965	6.85
377.173	6.83
377.381	6.72
377.59	6.71
377.798	7.03
378.006	6.96
378.214	7.11
378.423	6.89
378.631	6.85
378.839	6.99
379.047	6.91
379.255	7.05
379.463	7.02
379.671	7.04
379.879	7.27
380.088	7.03
380.296	6.88
380.504	6.58
380.712	6.87
380.92	6.85
381.128	6.78
381.336	6.89
381.544	6.96
381.752	6.93
381.96	6.96
382.168	6.56
382.376	6.67
382.584	6.88
382.791	6.72
382.999	6.71
383.207	6.8
383.415	6.76
383.623	6.5
383.831	6.33
384.039	6.33
384.247	6.3
384.454	6.4
384.662	6.28
384.87	6.33
385.078	6.34
385.285	6.23
385.493	6.3
385.701	6.23
385.909	6.25
386.116	6.01
386.324	5.91
386.532	5.93
386.739	6.09
386.947	6.36
387.155	6.08
387.362	6.22
387.57	6.39
387.778	6.07
387.985	6.04
388.193	5.99
388.4	6.21
388.608	6.23
388.816	6.25
389.023	6.35
389.231	6.38
389.438	6.48
389.646	6.55
389.853	6.25
390.061	6.58
390.268	6.59
390.475	6.69
390.683	6.7
390.89	6.73
391.098	6.93
391.305	6.57
391.512	6.51
391.72	6.36
391.927	6.42
392.135	6.42
392.342	6.32
392.549	6.42
392.756	6.29
392.964	6
393.171	6.11
393.378	5.83
393.586	6
393.793	6.04
394	6.16
394.207	6.12
394.414	6.25
394.622	6.18
394.829	6.19
395.036	6.01
395.243	6.04
395.45	5.92
395.657	6.04
395.864	6.12
396.072	6.1
396.279	6.13
396.486	5.94
396.693	6
396.9	5.97
397.107	6.02
397.314	6.15
397.521	6.46
397.728	6.33
397.935	6.29
398.142	6.16
398.349	6.03
398.556	6.16
398.763	6.16
398.97	6.06
399.177	6.12
399.383	5.89
399.59	5.94
399.797	5.87
400.004	5.93
400.211	6.17
400.418	6.13
400.625	6.01
400.831	5.8
401.038	5.79
401.245	5.72
401.452	5.79
401.658	5.68
401.865	5.66
402.072	5.49
402.279	5.32
402.485	5.2
402.692	5.2
402.899	5.29
403.105	5.38
403.312	5.4
403.519	5.39
403.725	5.3
403.932	5.46
404.138	5.39
404.345	5.38
404.552	5.47
404.758	5.4
404.965	5.53
405.171	5.33
405.378	5.32
405.584	5.46
405.791	5.43
405.997	5.53
406.204	5.43
406.41	5.61
406.617	5.67
406.823	5.73
407.029	5.71
407.236	5.65
407.442	5.73
407.649	5.57
407.855	5.55
408.061	5.61
408.268	5.66
408.474	5.7
408.68	5.44
408.887	5.48
409.093	5.54
409.299	5.4
409.505	5.49
409.712	5.67
409.918	5.85
410.124	5.6
410.33	5.63
410.537	5.37
410.743	5.36
410.949	5.48
411.155	5.64
411.361	5.58
411.567	5.91
411.773	5.82
411.98	5.76
412.186	5.68
412.392	5.75
412.598	5.63
412.804	5.69
413.01	5.79
413.216	5.83
413.422	5.62
413.628	5.62
413.834	5.35
414.04	5.33
414.246	5.36
414.452	5.31
414.658	5.42
414.864	5.45
415.07	5.43
415.275	5.33
415.481	5.26
415.687	5.25
415.893	5.29
416.099	5.33
416.305	5.21
416.511	5.07
416.716	5.06
416.922	5
417.128	5.07
417.334	5.13
417.539	5.28
417.745	5.38
417.951	5.42
418.157	5.35
418.362	5.34
418.568	5.43
418.774	5.46
418.979	5.49
419.185	5.56
419.391	5.54
419.596	5.52
419.802	5.38
420.008	5.29
420.213	5.97
420.419	6.02
420.624	6.06
420.83	6.04
421.035	6.08
421.241	6.04
421.446	5.94
421.652	5.92
421.857	5.92
422.063	5.95
422.268	5.99
422.474	5.31
422.679	5.3
422.885	5.34
423.09	5.41
423.295	5.4
423.501	5.45
423.706	5.58
423.911	5.65
424.117	5.56
424.322	5.55
424.527	5.59
424.733	5.57
424.938	5.57
425.143	5.45
425.349	5.38
425.554	5.52
425.759	5.45
425.964	5.34
426.169	5.17
426.375	5.3
426.58	5.29
426.785	5.25
426.99	5.24
427.195	5.31
427.4	5.27
427.605	5.23
427.811	4.81
428.016	4.84
428.221	4.8
428.426	4.8
428.631	4.71
428.836	4.82
429.041	4.76
429.246	4.8
429.451	4.81
429.656	4.9
429.861	4.89
430.066	5.22
430.271	5.23
430.476	5.26
430.681	5.27
430.886	5.34
431.09	5.31
431.295	5.36
431.5	5.23
431.705	5.17
431.91	5.13
432.115	5.19
432.32	5.12
432.524	5.02
432.729	4.97
432.934	5.03
433.139	4.96
433.343	4.87
433.548	4.89
433.753	4.97
433.958	4.91
434.162	4.96
434.367	4.92
434.572	5.03
434.776	5.27
434.981	5.26
435.186	5.24
435.39	5.34
435.595	5.38
435.799	5.34
436.004	5.32
436.209	5.35
436.413	5.34
436.618	5.32
436.822	5.2
437.027	5.13
437.231	5.12
437.436	5.21
437.64	5.19
437.845	5.04
438.049	5.04
438.253	5.02
438.458	5.03
438.662	5.04
438.867	5.02
439.071	5.02
439.275	5.04
439.48	5.08
439.684	5.07
439.888	5
440.093	5.09
440.297	4.99
440.501	5.02
440.706	5.03
440.91	5.01
441.114	5.03
441.318	5.03
441.523	4.96
441.727	5.02
441.931	5.02
442.135	5.05
442.339	5.04
442.543	5.26
442.748	5.35
442.952	5.36
443.156	5.28
443.36	5.34
443.564	5.29
443.768	5.26
443.972	5.19
444.176	5.07
444.38	5.06
444.584	5.08
444.788	5.02
444.992	4.93
445.196	4.86
445.4	4.91
445.604	4.82
445.808	4.88
446.012	4.95
446.216	5.02
446.42	5.08
446.624	5.07
446.828	5.06
447.032	5.05
447.235	5.05
447.439	5.23
447.643	5.28
447.847	5.39
448.051	5.35
448.254	5.35
448.458	5.28
448.662	5.24
448.866	5.28
449.069	5.35
449.273	5.18
449.477	5.16
449.681	5.06
449.884	5.01
450.088	4.91
450.292	4.85
450.495	4.81
450.699	4.73
450.902	4.7
451.106	4.7
451.31	4.56
451.513	4.63
451.717	4.59
451.92	4.54
452.124	4.55
452.327	4.56
452.531	4.62
452.734	4.62
452.938	4.78
453.141	4.85
453.345	4.9
453.548	5.01
453.752	5.04
453.955	5.15
454.158	5.12
454.362	4.99
454.565	4.99
454.769	4.91
454.972	4.85
455.175	4.78
455.379	4.79
455.582	4.77
455.785	4.79
455.988	4.76
456.192	4.78
456.395	4.75
456.598	4.97
456.801	4.97
457.005	5.05
457.208	5.02
457.411	5.09
457.614	5.1
457.817	5.12
458.021	5.13
458.224	5.16
458.427	5.1
458.63	5.12
458.833	5.04
459.036	5.06
459.239	5.04
459.442	5.04
459.645	5.01
459.848	4.98
460.051	4.87
460.254	4.87
460.457	4.89
460.66	4.96
460.863	4.99
461.066	4.96
461.269	5
461.472	4.92
461.675	4.95
461.878	4.96
462.081	4.94
462.284	5.1
462.486	5.06
462.689	5.05
462.892	5.02
463.095	5.02
463.298	5.17
463.5	5.15
463.703	5.22
463.906	5.3
464.109	5.26
464.311	5.24
464.514	5.13
464.717	5.09
464.92	5.13
465.122	5.21
465.325	5.14
465.528	4.97
465.73	4.9
465.933	4.94
466.135	4.94
466.338	4.93
466.541	4.97
466.743	5.06
466.946	5.12
467.148	5.01
467.351	4.91
467.553	4.94
467.756	5.06
467.958	5.14
468.161	5.2
468.363	5.17
468.566	5.14
468.768	5.13
468.971	4.95
469.173	5
469.375	5.2
469.578	5.22
469.78	5.36
469.983	5.27
470.185	5.24
470.387	5.13
470.59	5.15
470.792	5.22
470.994	5.18
471.196	5.35
471.399	5.24
471.601	5.18
471.803	5.19
472.005	4.99
472.208	4.93
472.41	4.95
472.612	4.94
472.814	4.91
473.016	4.85
473.218	4.84
473.421	4.84
473.623	4.9
473.825	4.77
474.027	4.78
474.229	4.92
474.431	4.95
474.633	4.91
474.835	5.05
475.037	4.98
475.239	5.01
475.441	5.02
475.643	4.9
475.845	4.93
476.047	4.93
476.249	4.97
476.451	4.87
476.653	4.89
476.855	4.93
477.057	4.85
477.258	4.88
477.46	4.93
477.662	4.99
477.864	5.04
478.066	5.04
478.268	5.08
478.469	4.99
478.671	5.05
478.873	5.06
479.075	5.01
479.276	4.94
479.478	4.96
479.68	4.86
479.882	4.85
480.083	4.92
480.285	4.91
480.487	4.96
480.688	4.99
480.89	4.96
481.091	4.99
481.293	5.03
481.495	5.09
481.696	5.09
481.898	5.09
482.099	5.06
482.301	5.05
482.502	5.05
482.704	5.03
482.905	5.04
483.107	5.07
483.308	5.04
483.51	5.02
483.711	5.01
483.913	5
484.114	5.04
484.315	5.06
484.517	5.03
484.718	5.04
484.92	5.04
485.121	5.02
485.322	4.99
485.524	5.03
485.725	5.05
485.926	5.04
486.127	5.05
486.329	5.01
486.53	5.01
486.731	5
486.932	4.94
487.134	4.91
487.335	4.95
487.536	4.92
487.737	4.85
487.938	4.86
488.139	4.85
488.341	4.86
488.542	4.9
488.743	4.94
488.944	4.98
489.145	5.08
489.346	5.1
489.547	5.04
489.748	5.06
489.949	5.06
490.15	5.05
490.351	5.01
490.552	4.98
490.753	4.95
490.954	4.93
491.155	4.92
491.356	4.88
491.557	4.91
491.758	4.96
491.959	5
492.159	5.07
492.36	5.05
492.561	5.06
492.762	5.11
492.963	5.06
493.164	4.98
493.364	4.99
493.565	4.95
493.766	4.9
493.967	4.86
494.167	4.88
494.368	4.83
494.569	4.86
494.769	4.9
494.97	4.89
495.171	4.95
495.371	5.06
495.572	5.1
495.773	5.07
495.973	5.09
496.174	5.13
496.375	5.12
496.575	5.2
496.776	5.23
496.976	5.21
497.177	5.2
497.377	5.17
497.578	5.13
497.778	5.05
497.979	5.1
498.179	5.06
498.38	5.05
498.58	5.02
498.78	4.92
498.981	4.89
499.181	4.91
499.382	4.79
499.582	4.84
499.782	4.83
499.983	4.88
500.183	4.79
500.383	4.85
500.584	4.82
500.784	4.81
500.984	4.81
501.184	4.85
501.385	4.98
501.585	5.06
501.785	5.06
501.985	5.07
502.185	5.21
502.386	5.26
502.586	5.33
502.786	5.38
502.986	5.44
503.186	5.44
503.386	5.44
503.586	5.41
503.786	5.45
503.987	5.44
504.187	5.4
504.387	5.28
504.587	5.25
504.787	5.26
504.987	5.32
505.187	5.34
505.387	5.32
505.587	5.31
505.786	5.29
505.986	5.35
506.186	5.39
506.386	5.46
506.586	5.49
506.786	5.57
506.986	5.47
507.186	5.34
507.386	5.27
507.585	5.31
507.785	5.31
507.985	5.32
508.185	5.24
508.384	5.25
508.584	5.23
508.784	5.25
508.984	5.27
509.183	5.28
509.383	5.26
509.583	5.29
509.782	5.34
509.982	5.38
510.182	5.37
510.381	5.44
510.581	5.49
510.781	5.45
510.98	5.41
511.18	5.42
511.379	5.42
511.579	5.52
511.778	5.55
511.978	5.58
512.177	5.55
512.377	5.5
512.576	5.42
512.776	5.34
512.975	5.38
513.175	5.37
513.374	5.33
513.573	5.28
513.773	5.35
513.972	5.38
514.172	5.34
514.371	5.37
514.57	5.38
514.77	5.43
514.969	5.54
515.168	5.6
515.367	5.67
515.567	5.73
515.766	5.86
515.965	5.77
516.164	5.79
516.364	5.82
516.563	5.83
516.762	5.81
516.961	5.86
517.16	5.77
517.359	5.72
517.559	5.69
517.758	5.66
517.957	5.64
518.156	5.69
518.355	5.64
518.554	5.63
518.753	5.65
518.952	5.69
519.151	5.66
519.35	5.69
519.549	5.74
519.748	5.77
519.947	5.75
520.146	5.72
520.345	5.75
520.544	5.73
520.743	5.78
520.942	5.73
521.141	5.71
521.339	5.75
521.538	5.79
521.737	5.86
521.936	5.92
522.135	5.93
522.333	6.04
522.532	5.98
522.731	6.01
522.93	6.01
523.129	5.99
523.327	5.95
523.526	5.92
523.725	5.95
523.923	5.86
524.122	5.79
524.321	5.83
524.519	5.8
524.718	5.78
524.917	5.78
525.115	5.82
525.314	5.83
525.512	5.88
525.711	5.9
525.909	5.88
526.108	5.94
526.306	5.99
526.505	5.98
526.703	5.98
526.902	6
527.1	6.05
527.299	6.01
527.497	6.05
527.696	6.05
527.894	6.09
528.092	6.13
528.291	6.15
528.489	6.18
528.688	6.19
528.886	6.23
529.084	6.25
529.283	6.2
529.481	6.24
529.679	6.25
529.877	6.32
530.076	6.32
530.274	6.29
530.472	6.29
530.67	6.27
530.869	6.29
531.067	6.26
531.265	6.28
531.463	6.34
531.661	6.32
531.859	6.34
532.057	6.31
532.255	6.32
532.454	6.36
532.652	6.36
532.85	6.4
533.048	6.42
533.246	6.45
533.444	6.48
533.642	6.52
533.84	6.56
534.038	6.58
534.236	6.61
534.434	6.61
534.632	6.64
534.83	6.58
535.027	6.57
535.225	6.58
535.423	6.64
535.621	6.58
535.819	6.54
536.017	6.53
536.215	6.49
536.412	6.53
536.61	6.5
536.808	6.51
537.006	6.6
537.203	6.61
537.401	6.64
537.599	6.7
537.797	6.78
537.994	6.84
538.192	6.95
538.39	6.99
538.587	6.98
538.785	6.97
538.983	6.97
539.18	6.98
539.378	6.93
539.575	6.93
539.773	6.88
539.97	6.85
540.168	6.87
540.366	6.88
540.563	6.92
540.761	6.98
540.958	7.02
541.155	7.06
541.353	7.07
541.55	7.13
541.748	7.17
541.945	7.24
542.143	7.36
542.34	7.38
542.537	7.43
542.735	7.45
542.932	7.44
543.129	7.5
543.327	7.45
543.524	7.52
543.721	7.48
543.919	7.5
544.116	7.46
544.313	7.41
544.51	7.45
544.708	7.39
544.905	7.41
545.102	7.4
545.299	7.41
545.496	7.5
545.693	7.57
545.891	7.6
546.088	7.62
546.285	7.72
546.482	7.75
546.679	7.85
546.876	7.89
547.073	7.92
547.27	7.99
547.467	8.04
547.664	8.07
547.861	8.03
548.058	8.05
548.255	8.08
548.452	8.02
548.649	8.21
548.846	8.21
549.043	8.34
549.24	8.38
549.437	8.38
549.633	8.46
549.83	8.47
550.027	8.5
550.224	8.59
550.421	8.57
550.618	8.65
550.814	8.61
551.011	8.6
551.208	8.54
551.405	8.53
551.601	8.61
551.798	8.64
551.995	8.76
552.191	8.78
552.388	8.87
552.585	8.97
552.781	8.99
552.978	9.05
553.175	9.07
553.371	9.2
553.568	9.23
553.764	9.12
553.961	9.18
554.157	9.22
554.354	9.24
554.55	9.26
554.747	9.24
554.943	9.31
555.14	9.24
555.336	9.36
555.533	9.44
555.729	9.42
555.926	9.58
556.122	9.47
556.318	9.44
556.515	9.47
556.711	9.56
556.907	9.61
557.104	9.58
557.3	9.75
557.496	9.72
557.693	9.66
557.889	9.84
558.085	9.86
558.281	9.94
558.478	9.99
558.674	10.07
558.87	10.01
559.066	10.12
559.262	10.14
559.459	10.1
559.655	10.12
559.851	10.18
560.047	10.2
560.243	10.2
560.439	10.22
560.635	10.2
560.831	10.22
561.027	10.32
561.223	10.37
561.419	10.36
561.615	10.38
561.811	10.47
562.007	10.5
562.203	10.5
562.399	10.6
562.595	10.75
562.791	10.87
562.987	10.93
563.183	10.87
563.379	10.78
563.575	10.9
563.771	10.96
563.966	10.95
564.162	10.99
564.358	11.03
564.554	11.03
564.75	10.96
564.945	10.87
565.141	10.86
565.337	10.99
565.533	11.05
565.728	11.05
565.924	10.99
566.12	11.11
566.315	11.13
566.511	11.21
566.707	11.24
566.902	11.4
567.098	11.47
567.293	11.53
567.489	11.49
567.684	11.46
567.88	11.53
568.076	11.79
568.271	11.75
568.467	11.9
568.662	11.96
568.858	11.95
569.053	11.91
569.248	11.95
569.444	12
569.639	12.08
569.835	12.23
570.03	12.33
570.225	12.31
570.421	12.41
570.616	12.42
570.812	12.44
571.007	12.51
571.202	12.56
571.397	12.67
571.593	12.68
571.788	12.72
571.983	12.79
572.178	12.8
572.374	12.79
572.569	12.74
572.764	12.74
572.959	12.81
573.154	12.86
573.35	12.93
573.545	12.91
573.74	12.92
573.935	12.86
574.13	12.84
574.325	12.79
574.52	12.81
574.715	12.78
574.91	12.76
575.105	12.7
575.3	12.79
575.495	12.7
575.69	12.8
575.885	12.8
576.08	12.89
576.275	12.82
576.47	12.83
576.665	12.76
576.86	12.84
577.055	12.88
577.25	12.87
577.444	12.95
577.639	13
577.834	12.79
578.029	12.75
578.224	12.89
578.418	12.99
578.613	13.09
578.808	13.25
579.003	13.35
579.197	13.35
579.392	13.36
579.587	13.14
579.781	13.22
579.976	13.42
580.171	13.38
580.365	13.38
580.56	13.46
580.755	13.45
580.949	13.45
581.144	13.33
581.338	13.4
581.533	13.41
581.727	13.55
581.922	13.47
582.116	13.45
582.311	13.55
582.505	13.54
582.7	13.55
582.894	13.63
583.089	13.52
583.283	13.55
583.478	13.41
583.672	13.4
583.866	13.3
584.061	13.37
584.255	13.44
584.449	13.57
584.644	13.57
584.838	13.46
585.032	13.34
585.226	13.41
585.421	13.44
585.615	13.56
585.809	13.71
586.003	13.76
586.198	13.83
586.392	13.77
586.586	13.73
586.78	13.67
586.974	13.7
587.168	13.68
587.363	13.63
587.557	13.64
587.751	13.62
587.945	13.69
588.139	13.67
588.333	13.67
588.527	13.71
588.721	13.66
588.915	13.79
589.109	13.72
589.303	13.89
589.497	13.88
589.691	13.94
589.885	14.08
590.079	13.93
590.273	13.86
590.466	13.77
590.66	13.69
590.854	13.72
591.048	13.59
591.242	13.67
591.436	13.57
591.629	13.67
591.823	13.6
592.017	13.51
592.211	13.54
592.404	13.75
592.598	13.88
592.792	14.13
592.986	14.18
593.179	14.3
593.373	14.22
593.567	14.27
593.76	14.25
593.954	14.29
594.147	14.34
594.341	14.46
594.535	14.42
594.728	14.35
594.922	14.25
595.115	14.18
595.309	14.19
595.502	14.19
595.696	14.2
595.889	14.18
596.083	14.3
596.276	14.22
596.47	13.98
596.663	13.89
596.856	13.84
597.05	13.89
597.243	13.99
597.437	13.97
597.63	14.1
597.823	14.12
598.017	14.18
598.21	14.11
598.403	14.28
598.596	14.29
598.79	14.31
598.983	14.4
599.176	14.36
599.369	14.21
599.563	14.2
599.756	14.2
599.949	14.03
600.142	14.12
600.335	14.06
600.528	13.93
600.722	14.11
600.915	14.05
601.108	14.13
601.301	14.09
601.494	14.14
601.687	14.15
601.88	14.21
602.073	14.34
602.266	14.19
602.459	14.25
602.652	14.25
602.845	14.42
603.038	14.55
603.231	14.46
603.424	14.51
603.617	14.59
603.809	14.62
604.002	14.55
604.195	14.5
604.388	14.58
604.581	14.52
604.774	14.62
604.966	14.44
605.159	14.39
605.352	14.39
605.545	14.4
605.737	14.33
605.93	14.23
606.123	14.22
606.316	14.33
606.508	14.37
606.701	14.5
606.894	14.38
607.086	14.41
607.279	14.41
607.471	14.46
607.664	14.47
607.857	14.53
608.049	14.53
608.242	14.52
608.434	14.48
608.627	14.49
608.819	14.48
609.012	14.6
609.204	14.65
609.397	14.69
609.589	14.65
609.782	14.58
609.974	14.54
610.166	14.62
610.359	14.65
610.551	14.63
610.743	14.53
610.936	14.43
611.128	14.34
611.32	14.37
611.513	14.32
611.705	14.36
611.897	14.38
612.09	14.38
612.282	14.26
612.474	14.35
612.666	14.25
612.858	14.26
613.051	14.22
613.243	14.12
613.435	14.16
613.627	14.19
613.819	14.19
614.011	14.12
614.203	14.2
614.395	14.18
614.588	14.06
614.78	14.11
614.972	14.12
615.164	14.18
615.356	14.2
615.548	13.93
615.74	14.03
615.932	13.94
616.124	14.05
616.315	14.12
616.507	14.15
616.699	14.36
616.891	14.45
617.083	14.43
617.275	14.47
617.467	14.59
617.659	14.83
617.85	14.9
618.042	15.12
618.234	15.09
618.426	15
618.618	14.99
618.809	14.82
619.001	14.71
619.193	14.74
619.384	14.76
619.576	14.69
619.768	14.56
619.959	14.39
620.151	14.49
620.343	14.46
620.534	14.43
620.726	14.5
620.917	14.57
621.109	14.69
621.301	14.76
621.492	14.67
621.684	14.77
621.875	14.76
622.067	14.83
622.258	14.66
622.45	14.78
622.641	14.82
622.832	14.78
623.024	14.76
623.215	14.62
623.407	14.8
623.598	14.77
623.789	14.78
623.981	14.87
624.172	14.98
624.363	15
624.555	14.8
624.746	14.84
624.937	14.96
625.129	15
625.32	15.09
625.511	14.91
625.702	15.02
625.893	14.91
626.085	14.78
626.276	14.71
626.467	14.76
626.658	14.84
626.849	14.76
627.04	14.78
627.231	14.73
627.422	14.76
627.614	14.89
627.805	14.8
627.996	14.87
628.187	15.07
628.378	15.08
628.569	15.15
628.76	15.19
628.951	15.23
629.142	15.2
629.332	15.28
629.523	15.12
629.714	15.09
629.905	15.08
630.096	15.05
630.287	15
630.478	15.08
630.669	14.92
630.859	14.84
631.05	14.83
631.241	14.8
631.432	14.59
631.623	14.79
631.813	14.74
632.004	14.83
632.195	14.97
632.385	14.98
632.576	14.85
632.767	14.87
632.957	14.94
633.148	14.98
633.339	14.95
633.529	15.17
633.72	15.04
633.91	15
634.101	15.02
634.292	14.99
634.482	14.96
634.673	15.04
634.863	15.05
635.054	15.2
635.244	15.37
635.435	15.3
635.625	15.25
635.815	15.26
636.006	15.27
636.196	15.29
636.387	15.23
636.577	15.29
636.767	15.25
636.958	15.26
637.148	15.28
637.338	15.28
637.529	15.32
637.719	15.2
637.909	15.25
638.099	15.2
638.29	15.1
638.48	15.06
638.67	15
638.86	14.91
639.05	14.89
639.241	14.72
639.431	14.53
639.621	14.57
639.811	14.7
640.001	14.75
640.191	15
640.381	14.92
640.571	14.73
640.761	14.67
640.951	14.76
641.141	14.68
641.331	14.88
641.521	14.83
641.711	14.87
641.901	14.9
642.091	14.91
642.281	14.77
642.471	15.01
642.661	15.26
642.851	15.4
643.041	15.42
643.231	15.39
643.42	15.12
643.61	15.17
643.8	15.32
643.99	15.29
644.18	15.28
644.369	15.39
644.559	15.16
644.749	15.01
644.939	15.01
645.128	15.1
645.318	15.06
645.508	15.2
645.697	15.26
645.887	15.32
646.076	15.23
646.266	15.14
646.456	14.9
646.645	14.99
646.835	14.95
647.024	14.89
647.214	14.74
647.403	14.92
647.593	14.79
647.782	14.62
647.972	14.4
648.161	14.46
648.351	14.59
648.54	14.81
648.73	14.8
648.919	15.02
649.108	15.03
649.298	14.93
649.487	14.95
649.677	14.96
649.866	15.16
650.055	15
650.244	14.76
650.434	14.67
650.623	14.75
650.812	14.68
651.002	14.7
651.191	14.67
651.38	14.86
651.569	14.92
651.758	15.02
651.947	14.95
652.137	15.02
652.326	15.36
652.515	15.25
652.704	15.23
652.893	15.43
653.082	15.35
653.271	15.29
653.46	15.07
653.649	15.03
653.838	14.83
654.027	14.73
654.216	14.67
654.405	14.52
654.594	14.7
654.783	14.64
654.972	14.45
655.161	14.62
655.35	14.81
655.539	15.11
655.728	15.14
655.916	15.23
656.105	15.39
656.294	15.49
656.483	15.5
656.672	15.38
656.86	15.42
657.049	15.54
657.238	15.24
657.427	15.19
657.615	15.12
657.804	15.03
657.993	15.07
658.181	14.94
658.37	15.12
658.559	15.12
658.747	15.26
658.936	15.15
659.125	15.19
659.313	15.21
659.502	15.4
659.69	15.42
659.879	15.38
660.067	15.32
660.256	15.38
660.444	15.19
660.633	15.27
660.821	15.13
661.01	15.14
661.198	15.03
661.387	15.14
661.575	14.79
661.763	14.56
661.952	14.34
662.14	14.31
662.328	14.1
662.517	14.05
662.705	13.87
662.893	13.88
663.082	13.81
663.27	13.86
663.458	13.88
663.646	13.92
663.834	14.03
664.023	14.2
664.211	14.5
664.399	14.46
664.587	14.37
664.775	14.45
664.963	14.3
665.152	14.16
665.34	14.12
665.528	14.01
665.716	13.96
665.904	14.19
666.092	14.3
666.28	14.04
666.468	14.37
666.656	14.51
666.844	14.55
667.032	14.56
667.22	14.81
667.408	14.89
667.596	14.98
667.784	15.1
667.971	15.15
668.159	14.89
668.347	15.06
668.535	14.95
668.723	15.09
668.911	15.04
669.098	15.11
669.286	15.2
669.474	15.25
669.662	15.25
669.849	15.18
670.037	15.03
670.225	15.46
670.413	15.22
670.6	15.18
670.788	15.18
670.976	15.36
671.163	15.54
671.351	15.42
671.538	15.05
671.726	15.25
671.913	15.2
672.101	14.95
672.289	14.76
672.476	14.94
672.664	15.18
672.851	15.07
673.039	15.01
673.226	15.04
673.413	14.95
673.601	14.97
673.788	14.87
673.976	14.94
674.163	15.29
674.35	15.43
674.538	15.23
674.725	15.09
674.912	15
675.1	15.04
675.287	14.95
675.474	14.99
675.662	15.16
675.849	15.16
676.036	15.13
676.223	14.97
676.411	14.66
676.598	14.52
676.785	14.59
676.972	14.87
677.159	14.68
677.346	14.79
677.533	14.9
677.721	14.72
677.908	14.4
678.095	14.59
678.282	14.52
678.469	14.79
678.656	15.1
678.843	15
679.03	14.8
679.217	15.05
679.404	14.9
679.591	14.89
679.778	15.14
679.964	15.18
680.151	15.12
680.338	15.16
680.525	15.18
680.712	14.94
680.899	14.93
681.086	15
681.272	14.88
681.459	15.05
681.646	15.01
681.833	15.17
682.02	15.5
682.206	15.5
682.393	15.6
682.58	15.42
682.766	15.79
682.953	15.78
683.14	15.72
683.326	15.85
683.513	15.96
683.7	15.86
683.886	15.86
684.073	15.75
684.259	15.93
684.446	16.12
684.632	16.22
684.819	15.95
685.005	15.93
685.192	15.99
685.378	15.79
685.565	15.49
685.751	15.43
685.938	15.11
686.124	14.94
686.31	14.87
686.497	14.62
686.683	14.74
686.87	14.82
687.056	14.85
687.242	14.93
687.429	14.87
687.615	14.78
687.801	14.83
687.987	14.84
688.174	14.89
688.36	14.71
688.546	14.55
688.732	14.21
688.918	14.14
689.105	13.84
689.291	13.74
689.477	13.88
689.663	13.93
689.849	14.03
690.035	14.21
690.221	14.27
690.407	14.07
690.593	14.06
690.779	14.53
690.965	14.61
691.151	14.98
691.337	15.06
691.523	15.27
691.709	15.21
691.895	15.27
692.081	15.21
692.267	14.94
692.453	15.17
692.639	15.34
692.825	15.12
693.011	15.27
693.196	15.25
693.382	15.19
693.568	15.04
693.754	15.09
693.94	14.87
694.125	14.98
694.311	15.42
694.497	15.48
694.682	15.38
694.868	15.18
695.054	15.27
695.239	15.64
695.425	15.43
695.611	15.51
695.796	15.87
695.982	15.99
696.168	16.01
696.353	15.84
696.539	16
696.724	16.04
696.91	16.42
697.095	16.26
697.281	15.96
697.466	16.08
697.652	16.07
697.837	15.94
698.023	15.87
698.208	15.72
698.393	15.86
698.579	15.63
698.764	15.76
698.949	15.59
699.135	15.52
699.32	15.5
699.505	15.49
699.691	15.32
699.876	15.36
700.061	15.4
700.246	15.5
700.432	15.42
700.617	15.7
700.802	15.63
700.987	15.65
701.172	15.79
701.358	16
701.543	15.95
701.728	15.93
701.913	15.57
702.098	15.42
702.283	15.33
702.468	15.38
702.653	14.83
702.838	14.98
703.023	14.55
703.208	14.79
703.393	14.9
703.578	15.06
703.763	15.05
703.948	15.16
704.133	15.3
704.318	15.69
704.503	15.61
704.688	16.03
704.873	15.61
705.057	15.83
705.242	15.71
705.427	15.66
705.612	15.59
705.797	16.06
705.981	16.07
706.166	16.09
706.351	15.79
706.536	15.47
706.72	15.4
706.905	15.59
707.09	15.47
707.274	15.06
707.459	14.75
707.644	14.73
707.828	14.38
708.013	14.27
708.197	14.48
708.382	13.86
708.567	14.04
708.751	14
708.936	13.96
709.12	14.34
709.305	14.64
709.489	14.64
709.673	14.52
709.858	14.68
710.042	15.13
710.227	14.78
710.411	15.07
710.596	15.13
710.78	15.22
710.964	15.17
711.149	14.86
711.333	14.85
711.517	14.87
711.702	15.13
711.886	14.77
712.07	14.41
712.254	14.4
712.438	14.67
712.623	14.97
712.807	14.84
712.991	14.83
713.175	15.15
713.359	14.79
713.544	15.11
713.728	14.94
713.912	15.2
714.096	15.32
714.28	15.45
714.464	15.51
714.648	15.34
714.832	15.17
715.016	15.55
715.2	15.49
715.384	16.02
715.568	15.89
715.752	16.01
715.936	15.83
716.12	16.03
716.304	15.74
716.488	15.81
716.671	15.58
716.855	15.99
717.039	15.56
717.223	15.46
717.407	15.2
717.59	15.11
717.774	15.02
717.958	14.99
718.142	14.53
718.325	14.95
718.509	14.47
718.693	14.28
718.877	13.97
719.06	13.99
719.244	14.02
719.428	13.9
719.611	14.13
719.795	13.66
719.978	13.2
720.162	13.23
720.345	12.9
720.529	13.02
720.713	13.47
720.896	13.48
721.08	13.4
721.263	13.52
721.446	13.79
721.63	13.31
721.813	13.35
721.997	13.64
722.18	14.12
722.364	14.53
722.547	14.95
722.73	14.91
722.914	14.95
723.097	15.3
723.28	15.12
723.464	14.81
723.647	14.45
723.83	15
724.013	15.4
724.197	15.13
724.38	14.99
724.563	14.99
724.746	15.01
724.929	15.51
725.112	15.25
725.296	15.11
725.479	15.43
725.662	16.16
725.845	15.99
726.028	16.32
726.211	16.14
726.394	16.07
726.577	15.84
726.76	15.78
726.943	15.16
727.126	15.06
727.309	14.94
727.492	15.21
727.675	15.68
727.858	15.76
728.041	15.42
728.224	15.59
728.407	15.6
728.589	15.52
728.772	15.89
728.955	16.21
729.138	16.42
729.321	16.81
729.503	16.32
729.686	15.54
729.869	15.76
730.052	15.52
730.234	15.39
730.417	15.59
730.6	15.59
730.782	15.52
730.965	15.49
731.148	15.46
731.33	15.19
731.513	15.2
731.695	15.4
731.878	15.11
732.061	15.38
732.243	15.34
732.426	15.14
732.608	15.34
732.791	15.18
732.973	14.88
733.156	14.53
733.338	14.71
733.52	15.07
733.703	15.13
733.885	15.34
734.068	14.99
734.25	14.95
734.432	14.88
734.615	14.6
734.797	14.46
734.979	15.05
735.162	15.56
735.344	15.57
735.526	15.32
735.708	15.13
735.891	14.9
736.073	14.69
736.255	15.16
736.437	15.2
736.619	15.65
736.802	15.93
736.984	15.91
737.166	15.51
737.348	15.14
737.53	15.47
737.712	15.66
737.894	15.43
738.076	16.19
738.258	16.1
738.44	16.3
738.622	15.87
738.804	15.73
738.986	15.57
739.168	15.43
739.35	15.73
739.532	15.35
739.714	15.01
739.896	15.08
740.078	14.69
740.259	14.18
740.441	14.49
740.623	14.99
740.805	15.13
740.987	14.71
741.168	14.62
741.35	14.73
741.532	14.74
741.714	14.98
741.895	15.16
742.077	15.18
742.259	15.69
742.44	15.19
742.622	15.18
742.804	15.44
742.985	15.72
743.167	16.47
743.348	16.38
743.53	15.73
743.711	15.8
743.893	15.69
744.075	16.13
744.256	15.09
744.438	15.19
744.619	14.57
744.8	14.21
744.982	14.06
745.163	13.25
745.345	12.79
745.526	13.88
745.707	13.7
745.889	13.98
746.07	13.6
746.252	14.43
746.433	13.82
746.614	14.2
746.795	13.15
746.977	13.28
747.158	14.18
747.339	14.58
747.52	13.12
747.702	12.91
747.883	12.97
748.064	12.66
748.245	12.36
748.426	12.75
748.607	12.75
748.788	13.78
748.97	13.72
749.151	12.43
749.332	12.07
749.513	12.76
749.694	12.82
749.875	11.9
750.056	12.65
750.237	12.52
750.418	12.03
750.599	11.93
750.78	11.48
750.96	11.62
751.141	12.91
751.322	13.45
751.503	13.74
751.684	14.73
751.865	15.54
752.046	15.07
752.226	16.47
752.407	17.06
752.588	16.99
752.769	17.52
752.949	17.72
753.13	17.01
753.311	17.21
753.492	16.74
753.672	16.71
753.853	17.02
754.034	17.63
754.214	16.88
754.395	16.81
754.575	16.28
754.756	16.21
754.937	16.44
755.117	16.76
755.298	16.76
755.478	17.38
755.659	16.19
755.839	15.5
756.02	14.98
756.2	14.97
756.381	15.02
756.561	16.18
756.741	15.6
756.922	15.25
757.102	15.24
757.283	15.06
757.463	15.44
757.643	16.19
757.823	16.32
758.004	15.87
758.184	15.41
758.364	14.86
758.545	13.68
758.725	14.18
758.905	13.99
759.085	14.11
759.265	14.29
759.446	13.56
759.626	13.67
759.806	13.52
759.986	13.58
760.166	13.64
760.346	13.97
760.526	14.47
760.706	13.95
760.886	14.53
761.066	14.61
761.246	14.33
761.426	14.7
761.606	14.5
761.786	15.31
761.966	15.81
762.146	15.83
762.326	16.53
762.506	16.6
762.686	16.89
762.866	16.73
763.046	16.93
763.225	17.08
763.405	17.22
763.585	17.47
763.765	17.04
763.945	16.54
764.124	16.61
764.304	16.24
764.484	16.39
764.664	16.46
764.843	16.08
765.023	15.97
765.203	15.93
765.382	15.26
765.562	14.63
765.741	14.47
765.921	15.14
766.101	14.81
766.28	14.85
766.46	14.51
766.639	14.33
766.819	14.02
766.998	13.56
767.178	13.19
767.357	12.79
767.537	13.43
767.716	14.2
767.896	14.27
768.075	15.31
768.254	15.08
768.434	14.71
768.613	14.56
768.792	15.1
768.972	14.46
769.151	13.86
769.33	14.84
769.51	14.55
769.689	13.51
769.868	13.05
770.047	13.11
770.226	12.91
770.406	13.49
770.585	13.72
770.764	13.89
770.943	15.14
771.122	15.32
771.301	15.39
771.48	15.73
771.66	16.06
771.839	15.39
772.018	14.16
772.197	14.74
772.376	15.07
772.555	14.97
772.734	14.56
772.913	14.04
773.092	15.02
773.271	14.54
773.449	14.19
773.628	13.72
773.807	14.24
773.986	14.54
774.165	15.08
774.344	15.26
774.523	14.83
774.701	14.93
774.88	15.19
775.059	14.7
775.238	14.95
775.417	13.84
775.595	14.41
775.774	13.65
775.953	13.83
776.131	12.94
776.31	11.75
776.489	11.93
776.667	12.14
776.846	11.6
777.025	11.28
777.203	10.69
777.382	11.94
777.56	11.93
777.739	12.95
777.917	13.69
778.096	13.11
778.274	13.75
778.453	14.05
778.631	13.96
778.81	13.7
778.988	13.95
779.166	15.22
779.345	14.11
779.523	14.34
779.702	14.64
779.88	12.94
780.058	13.31
780.237	13.61
780.415	13.76
780.593	13.77
780.771	14.42
780.95	15.73
781.128	15.04
781.306	15.9
781.484	15.09
781.662	14.58
781.841	14.9
782.019	14.88
782.197	14.12
782.375	13.78
782.553	14.46
782.731	14.72
782.909	13.79
783.087	14.03
783.265	14
783.443	14.01
783.621	13.81
783.799	14.03
783.977	14.05
784.155	14.56
784.333	15.34
784.511	15.14
784.689	15.03
784.867	14.93
785.045	16.27
785.223	15.54
785.4	15.74
785.578	15.67
785.756	15.48
785.934	16
786.112	15.68
786.289	15.29
786.467	14.61
786.645	14.71
786.823	14.45
787	13.65
787.178	14.54
787.356	14.8
787.533	15.06
787.711	16.19
787.889	15.48
788.066	15.22
788.244	15.3
788.421	15.45
788.599	15.06
788.776	14.67
788.954	14.22
789.131	14.63
789.309	14.97
789.486	15.27
789.664	14.78
789.841	15.85
790.019	15.81
790.196	15.82
790.373	16.33
790.551	16.05
790.728	16.43
790.906	16.72
791.083	16.34
791.26	16.49
791.437	15.75
791.615	15.48
791.792	15.28
791.969	15.61
792.146	14.26
792.324	14.16
792.501	15.07
792.678	14.33
792.855	13.76
793.032	13.75
793.209	14.78
793.387	14.82
793.564	14.09
793.741	13.24
793.918	13.25
794.095	14.15
794.272	13.63
794.449	14.47
794.626	15.25
794.803	15.77
794.98	15.37
795.157	14.16
795.334	14.79
795.511	16.68
795.688	17.38
795.864	18.05
796.041	18.17
796.218	18.1
796.395	17.97
796.572	17.81
796.749	17.83
796.925	17.12
797.102	16.32
797.279	15.87
797.456	14.71
797.632	14.28
797.809	13.75
797.986	14.22
798.162	14.36
798.339	14.2
798.516	14.78
798.692	15.24
798.869	15.81
799.046	16.66
799.222	16.36
799.399	16.92
799.575	16.06
799.752	16.29
799.928	15.74
800.105	15.13
800.281	14.17
800.458	12.61
800.634	11.55
800.811	10.32
800.987	10.02
801.163	10.87
801.34	11.18
801.516	13.12
801.692	12.41
801.869	12
802.045	13.54
802.221	12.94
802.398	15.26
802.574	15.92
802.75	17.51
802.926	17.33
803.103	18.11
803.279	17.34
803.455	16.68
803.631	16.85
803.807	17.18
803.983	16.63
804.16	17.24
804.336	15.94
804.512	15.67
804.688	16.76
804.864	16.81
805.04	16.44
805.216	15.57
805.392	16.88
805.568	17.84
805.744	17.21
805.92	16.18
806.096	15.29
806.272	16.11
806.448	15.55
806.623	14.62
806.799	14.27
806.975	11.97
807.151	12.53
807.327	10.71
807.503	10.06
807.678	10.73
807.854	11.65
808.03	12.41
808.206	12.35
808.381	12.56
808.557	11.85
808.733	12.22
808.908	13.1
809.084	13.06
809.26	12.96
809.435	11.79
809.611	11.98
809.787	11.18
809.962	10.69
810.138	10.08
810.313	10.8
810.489	11.94
810.664	13.1
810.84	15.02
811.015	14.38
811.191	14.95
811.366	15.49
811.542	14.16
811.717	14.77
811.892	15.32
812.068	15.37
812.243	14.5
812.419	13.38
812.594	11.65
812.769	10.35
812.944	11.12
813.12	10.23
813.295	11.86
813.47	12.36
813.645	12.95
813.821	14.43
813.996	14.36
814.171	14.71
814.346	14.71
814.521	15.47
814.697	16.25
814.872	16.41
815.047	16.53
815.222	16.49
815.397	17.06
815.572	16.66
815.747	15.22
815.922	16.45
816.097	15.62
816.272	16.05
816.447	15.23
816.622	15.02
816.797	15.52
816.972	15.63
817.147	14.35
817.322	14.65
817.496	13.67
817.671	13.82
817.846	13.08
818.021	14.19
818.196	14.05
818.371	15.52
818.545	16.01
818.72	16
818.895	15.75
819.069	16.59
819.244	16.47
819.419	17.64
819.594	17.67
819.768	17.22
819.943	17.63
820.117	17.48
820.292	16.66
820.467	16.27
820.641	16.26
820.816	15.9
820.99	15.41
821.165	15.52
821.339	15.47
821.514	15.61
821.688	15.88
821.863	15.84
822.037	16.23
822.212	16.56
822.386	16.67
822.56	16.65
822.735	16.91
822.909	16.99
823.084	17.14
823.258	17.09
823.432	17.01
823.606	16.96
823.781	16.95
823.955	16.57
824.129	16.3
824.303	16.61
824.478	16.54
824.652	16.58
824.826	16.96
825	16.36
825.174	16.81
825.348	16.86
825.523	17.01
825.697	16.47
825.871	16.52
826.045	16.31
826.219	15.56
826.393	15.65
826.567	15.92
826.741	15.68
826.915	16.45
827.089	16.03
827.263	15.77
827.437	15.46
827.611	16.18
827.784	16.49
827.958	16.79
828.132	17.07
828.306	17.48
828.48	16.83
828.654	16.87
828.827	16.04
829.001	16.28
829.175	16.43
829.349	16.66
829.522	15.89
829.696	14.84
829.87	15.26
830.044	14.01
830.217	12.83
830.391	13.35
830.565	12.96
830.738	13.43
830.912	12.52
831.085	13.44
831.259	12.5
831.432	12.34
831.606	13.18
831.779	11.59
831.953	12.38
832.126	13.86
832.3	14.51
832.473	14.61
832.647	15.07
832.82	15.16
832.994	15.06
833.167	15.74
833.34	16.18
833.514	15.61
833.687	16.36
833.86	16.15
834.034	15.35
834.207	14.91
834.38	14.86
834.553	14.21
834.727	14.11
834.9	12.99
835.073	12.4
835.246	11.87
835.419	12.25
835.593	11.62
835.766	11.65
835.939	11.4
836.112	11.22
836.285	10.82
836.458	11.54
836.631	11.64
836.804	12.22
836.977	12.7
837.15	12.95
837.323	12.9
837.496	13.46
837.669	13.49
837.842	12.88
838.015	12.74
838.188	13.85
838.361	14.09
838.533	13.74
838.706	13.7
838.879	12.47
839.052	12.08
839.225	12.33
839.398	13.59
839.57	14.33
839.743	15.79
839.916	15.79
840.088	14.73
840.261	13.55
840.434	13.08
840.607	13.25
840.779	14.15
840.952	13.69
841.124	14.3
841.297	12.59
841.47	13.68
841.642	12.58
841.815	12.43
841.987	11.08
842.16	12.27
842.332	14.61
842.505	13.99
842.677	13.73
842.85	13.49
843.022	11.06
843.194	11.9
843.367	8.57
843.539	10.24
843.712	7.77
843.884	9.07
844.056	9.96
844.229	6.94
844.401	7.79
844.573	7.34
844.745	8.39
844.918	8.8
845.09	7.8
845.262	6.9
845.434	6.88
845.606	9.94
845.779	13.28
845.951	7.73
846.123	6.59
846.295	5.81
846.467	5.09
846.639	5.05
846.811	4.9
846.983	4.05
847.155	3.72
847.327	0.48
847.499	2.46
847.671	-0.08
847.843	-1.4
848.015	2.85
848.187	6.42
848.359	6.28
848.531	9.33
848.703	10.22
848.875	14.1
849.047	14.56
849.218	12.79
849.39	8.47
849.562	9.22
849.734	12.77
849.905	11.64
850.077	8.81
850.249	9.18
850.421	5.71
850.592	6.2
850.764	1.95
850.936	2.42
851.107	5.98
851.279	7.09
851.451	8.66
851.622	8.51
851.794	11.58
851.965	12.17
852.137	14.2
852.308	13.57
852.48	11.6
852.651	12.5
852.823	12.6
852.994	11.54
853.166	13.31
853.337	11.51
853.509	8.66
853.68	3.87
853.851	7.1
854.023	5.63
854.194	10.09
854.365	13.31
854.537	16.45
854.708	14.75
854.879	15.29
855.05	14
855.222	12.81
855.393	15.77
855.564	16.93
855.735	13.45
855.906	13.85
856.078	11.04
856.249	5.2
856.42	3.2
856.591	6.54
856.762	9.8
856.933	7.69
857.104	6.15
857.275	4.16
857.446	2.7
857.617	0.96
857.788	1.56
857.959	2.2
858.13	5.49
858.301	2.28
858.472	0.23
858.643	-1.76
858.814	1.33
858.985	6.03
859.155	9.49
859.326	9.61
859.497	12.25
859.668	9.32
859.839	6.63
860.009	3.38
860.18	7.14
860.351	9.18
860.522	7.86
860.692	8.34
860.863	6.72
861.034	3.49
861.204	5.28
861.375	6.49
861.546	4.29
861.716	9.31
861.887	12.45
862.057	10.34
862.228	12.55
862.398	11.01
862.569	10.51
862.739	8.23
862.91	9.15
863.08	7.31
863.251	6.97
863.421	14.06
863.592	8.77
863.762	5.94
863.932	8.2
864.103	8.06
864.273	11.15
864.443	11.22
864.614	13.23
864.784	13.66
864.954	12.68
865.125	13.12
865.295	10.96
865.465	11.67
865.635	16.56
865.805	10.2
865.976	10.86
866.146	10.59
866.316	9.74
866.486	10.98
866.656	7.68
866.826	9.33
866.996	4.14
867.166	1.61
867.336	2.99
867.506	-0.17
867.676	5.64
867.846	3.03
868.016	0.52
868.186	0.57
868.356	-0.45
868.526	3.19
868.696	4.83
868.866	10.62
869.036	16.09
869.206	17.22
869.376	16.47
869.545	12.53
869.715	12.65
869.885	12.17
870.055	11.23
870.224	9.07
870.394	8.24
870.564	7.1
870.734	4.6
870.903	-0.37
871.073	1.67
871.243	5.29
871.412	10.33
871.582	14.52
871.751	14.33
871.921	14.3
872.091	16.61
872.26	16.02
872.43	15.58
872.599	16.7
872.769	15.5
872.938	11.81
873.108	10.82
873.277	9.03
873.446	4.1
873.616	3.34
873.785	5.02
873.955	7.45
874.124	8.91
874.293	10.11
874.463	9.95
874.632	8.16
874.801	7.35
874.971	4.4
875.14	2.26
875.309	2.66
875.478	7.27
875.647	8.75
875.817	5.2
875.986	4.37
876.155	5.19
876.324	5.02
876.493	10.51
876.662	14.41
876.831	14.39
877	12.59
877.17	12.1
877.339	10.89
877.508	12.69
877.677	11.85
877.846	9.85
878.015	12.13
878.184	11.21
878.352	8.43
878.521	8.56
878.69	11.97
878.859	13.63
879.028	13.64
879.197	15.08
879.366	14.56
879.534	16.92
879.703	18.85
879.872	17.06
880.041	16.37
880.21	17.06
880.378	17.21
880.547	15.66
880.716	15.88
880.884	16.33
881.053	16.08
881.222	15.01
881.39	15.09
881.559	15.4
881.727	14.96
881.896	15.67
882.065	16.65
882.233	16.01
882.402	16.91
882.57	17.22
882.739	16.65
882.907	16.13
883.076	16.2
883.244	15.52
883.412	15.49
883.581	15.38
883.749	14.88
883.918	13.72
884.086	14.26
884.254	13.47
884.423	12.99
884.591	12.84
884.759	12.23
884.927	12.35
885.096	12.15
885.264	10.86
885.432	11.04
885.6	11.95
885.769	12.42
885.937	11
886.105	11.42
886.273	11.97
886.441	11.16
886.609	11.99
886.777	10.47
886.945	10.14
887.113	10.63
887.281	12.21
887.449	10.82
887.617	9.42
887.785	10.01
887.953	6.86
888.121	3.54
888.289	6.63
888.457	6.96
888.625	9.72
888.793	10.28
888.961	11.63
889.129	8.08
889.296	7.73
889.464	7.83
889.632	7.66
889.8	10.28
889.967	14.74
890.135	13.06
