Data from 2938478_Reflection_2.txt Node
Date: Wed Jun 17 01:23:01 EDT 2015
User: robert
Spectrometer: USB4E03002
Autoset integration time: false
Trigger mode: 4
Integration Time (sec): 1.000000E-1
Scans to average: 10
Electric dark correction enabled: true
Nonlinearity correction enabled: false
Boxcar width: 5
Stray light correction enabled: false
XAxis mode: Wavelengths
Stop averaging: false
Number of Pixels in Spectrum: 3648
>>>>>Begin Spectral Data<<<<<
177.575	24.13
177.794	6.49
178.014	-6.92
178.233	29.52
178.452	-3.35
178.672	34.04
178.891	52.57
179.11	-46.33
179.33	-172.49
179.549	-89.33
179.768	-3.02
179.987	-87.88
180.207	-131.46
180.426	-51.34
180.645	0.39
180.864	6.71
181.084	19.5
181.303	35.79
181.522	42.73
181.741	57.28
181.96	59.44
182.179	58.44
182.398	128.25
182.618	162.9
182.837	1722.49
183.056	-22308.33
183.275	-37.12
183.494	14.62
183.713	11.91
183.932	17.03
184.151	22.67
184.37	19.42
184.589	20.91
184.808	15.27
185.027	42.88
185.246	-2.2
185.465	-16.7
185.684	-38.22
185.903	612.9
186.122	68.11
186.341	171.09
186.56	-97.68
186.779	1593.94
186.998	72.95
187.216	-74.75
187.435	129.24
187.654	6.19
187.873	-105.45
188.092	-84.97
188.311	359.15
188.53	61.52
188.748	65.75
188.967	201.79
189.186	35.09
189.405	46.54
189.623	21.15
189.842	-3.18
190.061	-27.25
190.28	-25.39
190.498	-101.36
190.717	218.24
190.936	-53.03
191.154	-116.59
191.373	-208.91
191.592	1920.38
191.81	2570.65
192.029	235.93
192.248	-943.24
192.466	-494.26
192.685	-70.96
192.904	13
193.122	5.86
193.341	26.56
193.559	47.2
193.778	18.2
193.996	19.12
194.215	15.21
194.433	16.66
194.652	40.48
194.87	41.6
195.089	46.22
195.307	43.81
195.526	50.76
195.744	50.9
195.963	43.93
196.181	49.06
196.399	39.03
196.618	29.1
196.836	23.91
197.055	-16.49
197.273	-160.97
197.491	-203.74
197.71	-106.06
197.928	-367.26
198.146	-353.68
198.365	-17992.11
198.583	-2318.1
198.801	4361.2
199.019	-1437.02
199.238	-754.4
199.456	-235.9
199.674	-181.04
199.892	-152.81
200.111	-153.32
200.329	-184.83
200.547	-207.28
200.765	-97.6
200.983	8.27
201.202	-13.29
201.42	-94.87
201.638	89.77
201.856	0.53
202.074	-48.03
202.292	-59.26
202.51	-19.54
202.728	-19.71
202.946	-29.5
203.165	-32.58
203.383	-60.46
203.601	-78.78
203.819	-19.55
204.037	-124.3
204.255	-124.8
204.473	-1460.31
204.691	182.93
204.909	62.38
205.127	55.95
205.345	43.13
205.562	19.56
205.78	48.47
205.998	34.36
206.216	122.9
206.434	87.71
206.652	68.02
206.87	89.82
207.088	99.2
207.306	133.28
207.523	135.79
207.741	142.89
207.959	262.23
208.177	284.19
208.395	385.62
208.612	264.96
208.83	7601.89
209.048	-297.88
209.266	-93.7
209.483	-2.65
209.701	-58.1
209.919	-14.33
210.136	-35.76
210.354	1576.5
210.572	-407.57
210.79	334.15
211.007	252.66
211.225	266.72
211.442	185.77
211.66	281.27
211.878	375.17
212.095	426.34
212.313	-81.17
212.53	-170.54
212.748	-60.99
212.966	-112.34
213.183	-206.44
213.401	-792.29
213.618	-334.23
213.836	-194
214.053	-196.02
214.271	-593.49
214.488	-269.42
214.705	-225.6
214.923	-186.06
215.14	-192.26
215.358	-226.16
215.575	-173.22
215.793	-46.4
216.01	-74.41
216.227	-244.44
216.445	-208.37
216.662	-60.73
216.879	-92.04
217.097	-106.12
217.314	-32.33
217.531	-23.92
217.749	20.49
217.966	8.55
218.183	-42.56
218.4	41.3
218.618	55.93
218.835	58.41
219.052	35
219.269	49.51
219.487	47.92
219.704	54.07
219.921	55.7
220.138	40.17
220.355	57.54
220.572	35.19
220.79	16.3
221.007	25.24
221.224	26.27
221.441	20.79
221.658	11.97
221.875	5.93
222.092	-3.14
222.309	-7.94
222.526	7.4
222.743	18.56
222.96	23.15
223.177	28
223.394	22.89
223.611	20.5
223.828	25.96
224.045	25.23
224.262	24.25
224.479	21.25
224.696	19.34
224.913	15.31
225.13	9.03
225.347	11.94
225.564	8.19
225.781	7.36
225.997	6.13
226.214	5.95
226.431	8.02
226.648	8.61
226.865	8.97
227.082	8.91
227.298	8.52
227.515	7.43
227.732	6.24
227.949	6.97
228.165	5.7
228.382	5.2
228.599	4.57
228.816	3.63
229.032	3.02
229.249	2.68
229.466	3.08
229.682	3.13
229.899	4.03
230.116	6.1
230.332	7.19
230.549	10.21
230.765	13.58
230.982	14.96
231.199	15.49
231.415	17.4
231.632	16.99
231.848	17.17
232.065	16.3
232.281	16.15
232.498	13.38
232.714	11.63
232.931	9.85
233.147	7.69
233.364	6
233.58	4.25
233.797	3.53
234.013	4.58
234.23	2.66
234.446	3.08
234.662	1.04
234.879	2.48
235.095	0.86
235.312	0.91
235.528	2.24
235.744	4.9
235.961	6.76
236.177	6.26
236.393	5.56
236.61	8.81
236.826	9.11
237.042	11.94
237.258	12.56
237.475	14.77
237.691	15.93
237.907	13.22
238.123	13.07
238.339	12.44
238.556	13.2
238.772	13.2
238.988	10.39
239.204	11.78
239.42	11.31
239.636	10.21
239.853	8.88
240.069	9.21
240.285	9
240.501	8.59
240.717	9.04
240.933	7.85
241.149	7.91
241.365	8.79
241.581	8.98
241.797	8.95
242.013	9.48
242.229	10.8
242.445	9.61
242.661	10.17
242.877	9.9
243.093	9.93
243.309	9.52
243.525	9.34
243.741	9.15
243.957	7.7
244.173	7.3
244.388	6.88
244.604	6.5
244.82	7.13
245.036	7.23
245.252	7.3
245.468	7.02
245.683	6.8
245.899	6.65
246.115	6.57
246.331	6.73
246.547	6.96
246.762	7.07
246.978	7.44
247.194	7.19
247.409	7.09
247.625	6.97
247.841	7.25
248.057	7.63
248.272	6.78
248.488	5.82
248.703	5.68
248.919	6.08
249.135	6.44
249.35	5.41
249.566	4.8
249.782	5.11
249.997	4.88
250.213	4.54
250.428	5.57
250.644	6.01
250.859	6.64
251.075	6.91
251.29	6.79
251.506	5.65
251.721	6.03
251.937	6.67
252.152	5.9
252.368	5.38
252.583	5.47
252.798	5.22
253.014	6.93
253.229	7.7
253.445	7.2
253.66	6.38
253.875	7.44
254.091	7.37
254.306	7.84
254.521	7.62
254.737	7.92
254.952	8.16
255.167	7.64
255.383	7.43
255.598	7.4
255.813	7.03
256.028	7.17
256.244	6.27
256.459	6.21
256.674	5.7
256.889	6.34
257.104	6.53
257.32	6.3
257.535	6.01
257.75	5.5
257.965	5.29
258.18	5.42
258.395	5.1
258.61	5.4
258.826	5.05
259.041	5.25
259.256	4.98
259.471	4.8
259.686	4.6
259.901	4.92
260.116	4.88
260.331	4.65
260.546	4.61
260.761	4.64
260.976	4.31
261.191	4.47
261.406	4.36
261.621	4.43
261.836	4.64
262.05	4.55
262.265	4.53
262.48	4.96
262.695	5.07
262.91	4.65
263.125	4.47
263.34	4.05
263.555	3.81
263.769	3.61
263.984	3.58
264.199	3.25
264.414	3.45
264.629	3.13
264.843	3.06
265.058	3.35
265.273	3.44
265.488	3.59
265.702	4.26
265.917	4.2
266.132	4.04
266.346	4.72
266.561	5.03
266.776	4.99
266.99	5.39
267.205	5.76
267.42	5.71
267.634	5.88
267.849	6.02
268.063	5.44
268.278	5.32
268.492	5.43
268.707	4.52
268.922	3.92
269.136	3.66
269.351	3.55
269.565	3.52
269.78	3.53
269.994	3.44
270.209	3.74
270.423	4.17
270.637	4.4
270.852	4.44
271.066	4.73
271.281	4.93
271.495	5.45
271.709	4.91
271.924	4.74
272.138	4.61
272.353	4.65
272.567	4.55
272.781	4.4
272.996	4.26
273.21	4.06
273.424	3.33
273.638	3.8
273.853	3.33
274.067	4.4
274.281	4.44
274.495	4.61
274.71	4.65
274.924	4.38
275.138	4.74
275.352	5.34
275.566	5.58
275.781	6
275.995	5.67
276.209	5.79
276.423	4.87
276.637	4.7
276.851	4.46
277.065	4.38
277.279	4.41
277.493	4.05
277.707	3.58
277.921	3.37
278.135	3.56
278.349	3.53
278.563	3.85
278.777	3.3
278.991	3.11
279.205	2.81
279.419	3.27
279.633	3.41
279.847	3.51
280.061	3.63
280.275	3.7
280.489	3.31
280.703	3.32
280.917	3.19
281.131	3.83
281.344	3.88
281.558	4.58
281.772	4.36
281.986	4.92
282.2	4.66
282.414	4.26
282.627	4.06
282.841	4.67
283.055	4.5
283.269	4.67
283.482	4.93
283.696	4.84
283.91	4.45
284.123	4.36
284.337	3.76
284.551	3.6
284.764	3.8
284.978	3.92
285.192	3.61
285.405	3.31
285.619	2.86
285.833	2.13
286.046	2.42
286.26	2.1
286.473	2.06
286.687	2.36
286.9	2.49
287.114	2.71
287.327	2.85
287.541	3.04
287.754	3.61
287.968	3.49
288.181	4.25
288.395	4.19
288.608	4.45
288.822	4.59
289.035	4.63
289.248	4.84
289.462	4.46
289.675	4.45
289.889	4.81
290.102	4.64
290.315	5.4
290.529	4.97
290.742	4.92
290.955	5.2
291.169	5.44
291.382	5.18
291.595	5.41
291.808	5.55
292.022	5.58
292.235	5.08
292.448	5.64
292.661	4.94
292.875	5.24
293.088	5.7
293.301	5.64
293.514	5.37
293.727	5.58
293.94	5.44
294.153	5.91
294.367	5.69
294.58	5.82
294.793	5.72
295.006	5.82
295.219	5.68
295.432	5.26
295.645	5.48
295.858	5.32
296.071	4.98
296.284	4.65
296.497	4.52
296.71	4.79
296.923	4.88
297.136	4.51
297.349	4.48
297.562	4.43
297.775	4.05
297.988	3.98
298.201	3.77
298.414	3.87
298.626	4.52
298.839	4.16
299.052	3.7
299.265	3.63
299.478	4.17
299.691	4.58
299.903	4.5
300.116	5.04
300.329	4.7
300.542	5.49
300.755	5.69
300.967	5.49
301.18	6.1
301.393	6.59
301.605	6.23
301.818	5.79
302.031	6.01
302.243	5.9
302.456	6
302.669	6.13
302.881	5.59
303.094	6.21
303.307	6.35
303.519	6.03
303.732	5.93
303.944	6.53
304.157	6.67
304.37	6.37
304.582	6.96
304.795	7.01
305.007	6.93
305.22	7.13
305.432	6.27
305.645	6.37
305.857	6.29
306.069	6.21
306.282	6.18
306.494	6.15
306.707	5.59
306.919	5.56
307.132	5.47
307.344	5.25
307.556	5.24
307.769	5.08
307.981	4.77
308.193	4.92
308.406	5.07
308.618	4.76
308.83	4.68
309.043	5.36
309.255	5.22
309.467	5.19
309.679	5.42
309.892	5.62
310.104	5.93
310.316	5.92
310.528	5.73
310.74	5.86
310.953	5.85
311.165	5.72
311.377	5.36
311.589	5.24
311.801	5.4
312.013	5.49
312.225	5.42
312.437	5.33
312.649	5.34
312.862	5.51
313.074	4.76
313.286	4.97
313.498	5
313.71	5.12
313.922	5.84
314.134	5.3
314.346	5.54
314.558	5.68
314.77	5.94
314.982	6.2
315.193	6.26
315.405	6.68
315.617	6.89
315.829	6.78
316.041	6.22
316.253	5.48
316.465	5.7
316.677	5.38
316.888	5.33
317.1	4.82
317.312	4.64
317.524	4.29
317.736	4.35
317.947	4.57
318.159	5.31
318.371	5.85
318.583	6.24
318.794	6.41
319.006	6.56
319.218	6.28
319.43	6.87
319.641	6.99
319.853	7.32
320.064	7.48
320.276	6.84
320.488	6.24
320.699	6.3
320.911	6.26
321.123	6.33
321.334	5.9
321.546	5.84
321.757	5.18
321.969	5.12
322.18	5.03
322.392	4.96
322.603	5.08
322.815	5.31
323.026	5.45
323.238	5.59
323.449	5.45
323.661	5.76
323.872	5.72
324.083	6.04
324.295	6.13
324.506	5.87
324.718	5.59
324.929	5.73
325.14	5.54
325.352	5.49
325.563	5.67
325.774	5.86
325.986	6.08
326.197	6.47
326.408	6.53
326.62	6.55
326.831	7.15
327.042	7.7
327.253	7.72
327.464	7.95
327.676	8.25
327.887	7.78
328.098	7.77
328.309	7.59
328.52	7.79
328.732	8.04
328.943	7.94
329.154	7.42
329.365	7.28
329.576	7.19
329.787	7.69
329.998	7.68
330.209	8.06
330.42	8.15
330.631	8.08
330.842	7.86
331.053	7.99
331.264	7.77
331.475	7.78
331.686	7.77
331.897	7.53
332.108	7.44
332.319	7.36
332.53	7.3
332.741	7.07
332.952	7.01
333.163	6.85
333.374	6.52
333.585	6.61
333.795	6.68
334.006	6.5
334.217	6.8
334.428	6.61
334.639	6.36
334.849	6.04
335.06	6.38
335.271	6.63
335.482	6.79
335.692	6.72
335.903	6.65
336.114	6.72
336.325	6.84
336.535	6.9
336.746	6.98
336.957	6.69
337.167	6.73
337.378	6.78
337.589	7.11
337.799	7.15
338.01	7.3
338.22	7.5
338.431	7.88
338.642	7.66
338.852	7.41
339.063	7.54
339.273	8.31
339.484	8.38
339.694	7.77
339.905	7.01
340.115	7.08
340.326	6.93
340.536	6.98
340.746	6.66
340.957	6.47
341.167	6.54
341.378	6.35
341.588	5.72
341.799	5.49
342.009	5.53
342.219	5.63
342.43	5.56
342.64	5.59
342.85	5.55
343.061	5.45
343.271	5.69
343.481	5.89
343.691	5.69
343.902	5.9
344.112	6.06
344.322	6.01
344.532	5.88
344.743	5.88
344.953	5.94
345.163	5.8
345.373	5.75
345.583	5.41
345.793	4.99
346.004	5.32
346.214	5.2
346.424	5.08
346.634	5.25
346.844	5.55
347.054	5.64
347.264	5.32
347.474	5.2
347.684	5.44
347.894	5.95
348.104	6.14
348.314	5.89
348.524	5.58
348.734	5.29
348.944	5.18
349.154	5.14
349.364	5.06
349.574	5.32
349.784	5.39
349.994	5.35
350.204	5.49
350.413	5.65
350.623	5.71
350.833	5.92
351.043	6.29
351.253	6.35
351.463	6.57
351.672	6.26
351.882	6.19
352.092	6.48
352.302	6.29
352.511	5.62
352.721	5.38
352.931	5.51
353.141	5.54
353.35	5.57
353.56	5.09
353.77	5.2
353.979	5.48
354.189	5.87
354.399	5.64
354.608	5.46
354.818	5.71
355.027	5.77
355.237	5.6
355.447	5.39
355.656	5.38
355.866	5.87
356.075	5.57
356.285	5.29
356.494	4.95
356.704	4.96
356.913	5.39
357.123	5.6
357.332	5.9
357.542	5.9
357.751	6.12
357.96	5.99
358.17	5.97
358.379	5.97
358.589	6.11
358.798	6.05
359.007	5.94
359.217	5.6
359.426	5.34
359.635	5.32
359.845	5.2
360.054	5.27
360.263	5.26
360.472	5.22
360.682	5.31
360.891	5.07
361.1	5.14
361.309	5.22
361.519	5.76
361.728	5.98
361.937	5.65
362.146	5.7
362.355	5.79
362.564	5.94
362.774	6.09
362.983	6.1
363.192	6.45
363.401	6.37
363.61	6.52
363.819	6.12
364.028	5.69
364.237	5.77
364.446	5.73
364.655	5.53
364.864	5.6
365.073	5.41
365.282	5.16
365.491	5.3
365.7	5.25
365.909	5.23
366.118	5.5
366.327	5.83
366.536	5.68
366.745	5.81
366.954	5.91
367.162	5.47
367.371	5.85
367.58	6
367.789	5.95
367.998	6.1
368.207	6.09
368.415	5.65
368.624	5.69
368.833	6.11
369.042	6.02
369.25	5.85
369.459	6.58
369.668	6.28
369.877	6.21
370.085	5.87
370.294	5.71
370.503	5.6
370.711	5.6
370.92	5.46
371.129	5.45
371.337	5.48
371.546	5.69
371.754	5.3
371.963	5.35
372.171	5.53
372.38	5.51
372.589	5.55
372.797	5.65
373.006	5.77
373.214	5.86
373.423	5.56
373.631	5.64
373.84	5.41
374.048	5.39
374.256	5.34
374.465	5.3
374.673	5.35
374.882	5.41
375.09	5.29
375.298	5.18
375.507	5.11
375.715	5
375.923	5.07
376.132	5.15
376.34	5.07
376.548	5.09
376.757	5.05
376.965	5.18
377.173	5.04
377.381	5.16
377.59	5.12
377.798	4.94
378.006	5.06
378.214	5.04
378.423	4.87
378.631	4.98
378.839	4.78
379.047	4.63
379.255	4.37
379.463	4.27
379.671	4.33
379.879	4.36
380.088	4.54
380.296	4.61
380.504	4.54
380.712	4.53
380.92	4.21
381.128	4.11
381.336	4.09
381.544	3.96
381.752	4.2
381.96	3.68
382.168	3.65
382.376	3.76
382.584	3.83
382.791	3.65
382.999	3.88
383.207	4.13
383.415	4.31
383.623	4.34
383.831	4.48
384.039	4.43
384.247	4.76
384.454	4.8
384.662	4.85
384.87	4.81
385.078	5.03
385.285	4.79
385.493	4.5
385.701	4.42
385.909	4.44
386.116	4.47
386.324	4.74
386.532	4.56
386.739	4.57
386.947	4.47
387.155	4.31
387.362	4.29
387.57	4.38
387.778	4.42
387.985	4.57
388.193	4.58
388.4	4.49
388.608	4.11
388.816	4.06
389.023	4.06
389.231	4.03
389.438	4.14
389.646	4.04
389.853	4.19
390.061	4.09
390.268	4.22
390.475	4.21
390.683	4.28
390.89	4.15
391.098	4.28
391.305	4.34
391.512	4.4
391.72	4.48
391.927	4.42
392.135	4.21
392.342	4.28
392.549	4.01
392.756	3.99
392.964	4.05
393.171	4.18
393.378	4.09
393.586	4
393.793	3.88
394	3.53
394.207	3.6
394.414	3.8
394.622	3.94
394.829	3.94
395.036	3.93
395.243	3.76
395.45	3.99
395.657	4.15
395.864	4.06
396.072	3.95
396.279	4.26
396.486	4
396.693	4.02
396.9	3.92
397.107	4.07
397.314	3.89
397.521	3.98
397.728	3.92
397.935	3.86
398.142	3.83
398.349	3.91
398.556	3.71
398.763	3.9
398.97	3.76
399.177	3.75
399.383	3.82
399.59	3.85
399.797	3.89
400.004	3.62
400.211	3.55
400.418	3.66
400.625	3.59
400.831	3.59
401.038	3.58
401.245	3.54
401.452	3.47
401.658	3.31
401.865	3.48
402.072	3.36
402.279	3.47
402.485	3.6
402.692	3.6
402.899	3.56
403.105	3.63
403.312	3.61
403.519	3.65
403.725	3.75
403.932	3.82
404.138	3.69
404.345	3.85
404.552	3.7
404.758	3.61
404.965	3.64
405.171	3.73
405.378	3.49
405.584	3.26
405.791	3.27
405.997	3.21
406.204	3.12
406.41	3.05
406.617	2.86
406.823	3.11
407.029	3.13
407.236	3.07
407.442	2.86
407.649	3.12
407.855	3.23
408.061	3.22
408.268	3.17
408.474	3.22
408.68	3.2
408.887	3.25
409.093	3.16
409.299	3.12
409.505	3.17
409.712	3.26
409.918	3.31
410.124	3.23
410.33	3.14
410.537	3.17
410.743	3.09
410.949	3.08
411.155	3.01
411.361	3.06
411.567	2.79
411.773	2.71
411.98	2.7
412.186	2.51
412.392	2.62
412.598	2.57
412.804	2.64
413.01	2.7
413.216	2.92
413.422	3.03
413.628	3.02
413.834	3.2
414.04	3.11
414.246	3.21
414.452	3.23
414.658	3.2
414.864	3.3
415.07	3.26
415.275	3.17
415.481	2.95
415.687	2.94
415.893	2.91
416.099	2.94
416.305	3
416.511	3.1
416.716	3.1
416.922	3.19
417.128	3.16
417.334	3.19
417.539	3.22
417.745	3.25
417.951	3.27
418.157	3.26
418.362	3.29
418.568	3.22
418.774	3.17
418.979	3.11
419.185	3.09
419.391	3.02
419.596	2.95
419.802	2.95
420.008	3.07
420.213	3.76
420.419	3.73
420.624	3.67
420.83	3.65
421.035	3.56
421.241	3.57
421.446	3.54
421.652	3.6
421.857	3.64
422.063	3.69
422.268	3.6
422.474	2.87
422.679	2.82
422.885	2.86
423.09	2.91
423.295	2.96
423.501	3.01
423.706	3.05
423.911	2.99
424.117	3.03
424.322	3.05
424.527	3.09
424.733	3.05
424.938	3.02
425.143	2.98
425.349	2.98
425.554	2.91
425.759	2.95
425.964	2.93
426.169	2.88
426.375	2.8
426.58	2.6
426.785	2.46
426.99	2.56
427.195	2.63
427.4	2.64
427.605	2.59
427.811	2.74
428.016	2.61
428.221	2.53
428.426	2.55
428.631	2.6
428.836	2.73
429.041	2.8
429.246	2.72
429.451	2.68
429.656	2.5
429.861	2.65
430.066	2.58
430.271	2.69
430.476	2.76
430.681	2.82
430.886	2.78
431.09	2.7
431.295	2.69
431.5	2.72
431.705	2.78
431.91	2.93
432.115	2.81
432.32	2.69
432.524	2.68
432.729	2.59
432.934	2.53
433.139	2.54
433.343	2.58
433.548	2.68
433.753	2.67
433.958	2.68
434.162	2.77
434.367	2.78
434.572	2.91
434.776	2.79
434.981	2.81
435.186	2.78
435.39	2.8
435.595	2.78
435.799	2.73
436.004	2.75
436.209	2.73
436.413	2.63
436.618	2.69
436.822	2.8
437.027	2.83
437.231	2.82
437.436	2.87
437.64	2.83
437.845	2.68
438.049	2.77
438.253	2.69
438.458	2.74
438.662	2.69
438.867	2.7
439.071	2.62
439.275	2.62
439.48	2.67
439.684	2.63
439.888	2.6
440.093	2.75
440.297	2.7
440.501	2.77
440.706	2.78
440.91	2.77
441.114	2.7
441.318	2.79
441.523	2.82
441.727	2.75
441.931	2.81
442.135	2.84
442.339	2.76
442.543	2.74
442.748	2.72
442.952	2.69
443.156	2.76
443.36	2.76
443.564	2.73
443.768	2.75
443.972	2.85
444.176	2.83
444.38	2.9
444.584	2.92
444.788	2.85
444.992	2.8
445.196	2.83
445.4	2.8
445.604	2.79
445.808	2.75
446.012	2.78
446.216	2.77
446.42	2.79
446.624	2.73
446.828	2.69
447.032	2.65
447.235	2.66
447.439	2.57
447.643	2.6
447.847	2.64
448.051	2.56
448.254	2.44
448.458	2.39
448.662	2.37
448.866	2.32
449.069	2.43
449.273	2.51
449.477	2.59
449.681	2.7
449.884	2.57
450.088	2.59
450.292	2.62
450.495	2.68
450.699	2.7
450.902	2.63
451.106	2.71
451.31	2.59
451.513	2.59
451.717	2.59
451.92	2.55
452.124	2.59
452.327	2.68
452.531	2.67
452.734	2.7
452.938	2.75
453.141	2.8
453.345	2.74
453.548	2.81
453.752	2.75
453.955	2.68
454.158	2.62
454.362	2.62
454.565	2.49
454.769	2.44
454.972	2.37
455.175	2.38
455.379	2.4
455.582	2.48
455.785	2.54
455.988	2.61
456.192	2.59
456.395	2.59
456.598	2.64
456.801	2.7
457.005	2.82
457.208	2.82
457.411	2.72
457.614	2.69
457.817	2.64
458.021	2.55
458.224	2.59
458.427	2.57
458.63	2.58
458.833	2.58
459.036	2.51
459.239	2.5
459.442	2.52
459.645	2.61
459.848	2.71
460.051	2.7
460.254	2.77
460.457	2.75
460.66	2.87
460.863	2.9
461.066	2.9
461.269	2.88
461.472	2.84
461.675	2.88
461.878	2.85
462.081	2.78
462.284	2.77
462.486	2.71
462.689	2.78
462.892	2.61
463.095	2.61
463.298	2.67
463.5	2.8
463.703	2.77
463.906	2.76
464.109	2.67
464.311	2.58
464.514	2.67
464.717	2.64
464.92	2.53
465.122	2.61
465.325	2.59
465.528	2.54
465.73	2.52
465.933	2.56
466.135	2.57
466.338	2.63
466.541	2.71
466.743	2.65
466.946	2.72
467.148	2.73
467.351	2.71
467.553	2.68
467.756	2.69
467.958	2.64
468.161	2.62
468.363	2.51
468.566	2.44
468.768	2.4
468.971	2.43
469.173	2.4
469.375	2.44
469.578	2.45
469.78	2.51
469.983	2.51
470.185	2.56
470.387	2.55
470.59	2.59
470.792	2.66
470.994	2.62
471.196	2.57
471.399	2.58
471.601	2.6
471.803	2.55
472.005	2.5
472.208	2.63
472.41	2.54
472.612	2.67
472.814	2.6
473.016	2.54
473.218	2.67
473.421	2.64
473.623	2.66
473.825	2.62
474.027	2.57
474.229	2.63
474.431	2.53
474.633	2.5
474.835	2.34
475.037	2.42
475.239	2.35
475.441	2.22
475.643	2.31
475.845	2.35
476.047	2.39
476.249	2.49
476.451	2.51
476.653	2.48
476.855	2.62
477.057	2.7
477.258	2.77
477.46	2.85
477.662	2.85
477.864	2.78
478.066	2.73
478.268	2.67
478.469	2.66
478.671	2.66
478.873	2.69
479.075	2.65
479.276	2.6
479.478	2.51
479.68	2.45
479.882	2.5
480.083	2.55
480.285	2.57
480.487	2.57
480.688	2.6
480.89	2.56
481.091	2.55
481.293	2.56
481.495	2.56
481.696	2.59
481.898	2.59
482.099	2.61
482.301	2.6
482.502	2.62
482.704	2.63
482.905	2.63
483.107	2.65
483.308	2.64
483.51	2.65
483.711	2.66
483.913	2.68
484.114	2.68
484.315	2.66
484.517	2.64
484.718	2.63
484.92	2.63
485.121	2.63
485.322	2.65
485.524	2.68
485.725	2.7
485.926	2.69
486.127	2.68
486.329	2.72
486.53	2.76
486.731	2.77
486.932	2.78
487.134	2.78
487.335	2.75
487.536	2.74
487.737	2.71
487.938	2.7
488.139	2.76
488.341	2.74
488.542	2.7
488.743	2.68
488.944	2.73
489.145	2.69
489.346	2.71
489.547	2.76
489.748	2.76
489.949	2.74
490.15	2.76
490.351	2.7
490.552	2.7
490.753	2.71
490.954	2.67
491.155	2.65
491.356	2.7
491.557	2.67
491.758	2.66
491.959	2.67
492.159	2.69
492.36	2.6
492.561	2.66
492.762	2.63
492.963	2.67
493.164	2.79
493.364	2.76
493.565	2.73
493.766	2.7
493.967	2.64
494.167	2.63
494.368	2.74
494.569	2.83
494.769	2.82
494.97	2.82
495.171	2.83
495.371	2.73
495.572	2.76
495.773	2.8
495.973	2.83
496.174	2.84
496.375	2.84
496.575	2.78
496.776	2.72
496.976	2.68
497.177	2.71
497.377	2.69
497.578	2.77
497.778	2.86
497.979	2.89
498.179	2.96
498.38	3.06
498.58	3.06
498.78	3.03
498.981	3.11
499.181	3.18
499.382	3.16
499.582	3.16
499.782	3.09
499.983	3.01
500.183	2.91
500.383	2.93
500.584	2.85
500.784	2.88
500.984	2.9
501.184	2.92
501.385	2.96
501.585	3.05
501.785	3.06
501.985	3.13
502.185	3.14
502.386	3.24
502.586	3.22
502.786	3.18
502.986	3.16
503.186	3.14
503.386	3.09
503.586	3.1
503.786	3.03
503.987	3.02
504.187	3.02
504.387	3
504.587	2.97
504.787	3.01
504.987	3.02
505.187	3.02
505.387	3.05
505.587	3.04
505.786	2.95
505.986	3.08
506.186	3.14
506.386	3.18
506.586	3.18
506.786	3.24
506.986	3.26
507.186	3.31
507.386	3.37
507.585	3.4
507.785	3.52
507.985	3.58
508.185	3.49
508.384	3.56
508.584	3.56
508.784	3.58
508.984	3.53
509.183	3.49
509.383	3.51
509.583	3.56
509.782	3.64
509.982	3.66
510.182	3.72
510.381	3.84
510.581	3.83
510.781	3.87
510.98	3.98
511.18	3.98
511.379	4.04
511.579	4.08
511.778	3.99
511.978	3.93
512.177	3.9
512.377	3.93
512.576	3.9
512.776	3.89
512.975	3.91
513.175	3.88
513.374	4.01
513.573	4.11
513.773	4.09
513.972	4.2
514.172	4.31
514.371	4.33
514.57	4.33
514.77	4.38
514.969	4.47
515.168	4.48
515.367	4.53
515.567	4.53
515.766	4.51
515.965	4.59
516.164	4.67
516.364	4.66
516.563	4.71
516.762	4.74
516.961	4.76
517.16	4.73
517.359	4.75
517.559	4.7
517.758	4.62
517.957	4.64
518.156	4.66
518.355	4.6
518.554	4.63
518.753	4.6
518.952	4.61
519.151	4.58
519.35	4.58
519.549	4.56
519.748	4.73
519.947	4.83
520.146	4.76
520.345	4.76
520.544	4.85
520.743	4.85
520.942	4.87
521.141	4.89
521.339	5.03
521.538	5.11
521.737	5.16
521.936	5.08
522.135	5.13
522.333	5.23
522.532	5.31
522.731	5.34
522.93	5.36
523.129	5.4
523.327	5.4
523.526	5.42
523.725	5.5
523.923	5.48
524.122	5.55
524.321	5.5
524.519	5.51
524.718	5.51
524.917	5.52
525.115	5.53
525.314	5.59
525.512	5.62
525.711	5.6
525.909	5.58
526.108	5.63
526.306	5.66
526.505	5.73
526.703	5.74
526.902	5.75
527.1	5.72
527.299	5.75
527.497	5.76
527.696	5.78
527.894	5.75
528.092	5.75
528.291	5.79
528.489	5.76
528.688	5.77
528.886	5.79
529.084	5.81
529.283	5.85
529.481	5.87
529.679	5.87
529.877	5.87
530.076	5.97
530.274	6.03
530.472	6.02
530.67	6.04
530.869	6.04
531.067	6.03
531.265	6.08
531.463	6.13
531.661	6.13
531.859	6.18
532.057	6.21
532.255	6.21
532.454	6.19
532.652	6.2
532.85	6.25
533.048	6.26
533.246	6.31
533.444	6.33
533.642	6.29
533.84	6.37
534.038	6.38
534.236	6.45
534.434	6.53
534.632	6.62
534.83	6.63
535.027	6.66
535.225	6.72
535.423	6.79
535.621	6.79
535.819	6.84
536.017	6.85
536.215	6.85
536.412	6.86
536.61	6.8
536.808	6.82
537.006	6.9
537.203	6.94
537.401	7
537.599	7.01
537.797	7.03
537.994	7.1
538.192	7.2
538.39	7.22
538.587	7.23
538.785	7.32
538.983	7.34
539.18	7.36
539.378	7.4
539.575	7.44
539.773	7.46
539.97	7.47
540.168	7.51
540.366	7.49
540.563	7.48
540.761	7.49
540.958	7.52
541.155	7.52
541.353	7.51
541.55	7.53
541.748	7.5
541.945	7.51
542.143	7.52
542.34	7.53
542.537	7.55
542.735	7.62
542.932	7.63
543.129	7.62
543.327	7.72
543.524	7.86
543.721	7.78
543.919	7.87
544.116	7.92
544.313	8.05
544.51	8.08
544.708	8.07
544.905	8.13
545.102	8.21
545.299	8.22
545.496	8.12
545.693	8.05
545.891	8.17
546.088	8.14
546.285	8.12
546.482	8.03
546.679	8.04
546.876	8.08
547.073	8.07
547.27	8.1
547.467	8.17
547.664	8.25
547.861	8.39
548.058	8.36
548.255	8.43
548.452	8.57
548.649	8.6
548.846	8.72
549.043	8.87
549.24	9.01
549.437	9.13
549.633	9.22
549.83	9.23
550.027	9.22
550.224	9.44
550.421	9.45
550.618	9.45
550.814	9.7
551.011	9.73
551.208	9.75
551.405	9.75
551.601	9.7
551.798	9.7
551.995	9.75
552.191	9.84
552.388	9.78
552.585	9.79
552.781	9.78
552.978	9.68
553.175	9.69
553.371	9.65
553.568	9.72
553.764	9.8
553.961	9.87
554.157	9.97
554.354	10.1
554.55	10.15
554.747	10.31
554.943	10.44
555.14	10.46
555.336	10.35
555.533	10.32
555.729	10.36
555.926	10.32
556.122	10.31
556.318	10.34
556.515	10.29
556.711	10.41
556.907	10.33
557.104	10.32
557.3	10.45
557.496	10.57
557.693	10.8
557.889	10.82
558.085	11.03
558.281	11.14
558.478	11.2
558.674	11.31
558.87	11.34
559.066	11.52
559.262	11.75
559.459	11.76
559.655	11.89
559.851	11.82
560.047	11.93
560.243	11.91
560.439	11.96
560.635	12.05
560.831	11.91
561.027	11.79
561.223	11.84
561.419	11.83
561.615	11.84
561.811	11.91
562.007	12.02
562.203	12.11
562.399	12.2
562.595	12.28
562.791	12.34
562.987	12.49
563.183	12.71
563.379	12.7
563.575	12.7
563.771	12.76
563.966	12.9
564.162	13.1
564.358	13.02
564.554	13.16
564.75	13.21
564.945	13.31
565.141	13.39
565.337	13.45
565.533	13.49
565.728	13.53
565.924	13.6
566.12	13.58
566.315	13.54
566.511	13.62
566.707	13.61
566.902	13.61
567.098	13.6
567.293	13.66
567.489	13.76
567.684	13.88
567.88	13.94
568.076	14.05
568.271	14.22
568.467	14.27
568.662	14.46
568.858	14.48
569.053	14.49
569.248	14.51
569.444	14.52
569.639	14.52
569.835	14.48
570.03	14.59
570.225	14.62
570.421	14.66
570.616	14.74
570.812	14.7
571.007	14.83
571.202	14.9
571.397	14.99
571.593	15.06
571.788	15.14
571.983	15.31
572.178	15.39
572.374	15.49
572.569	15.59
572.764	15.71
572.959	15.84
573.154	15.86
573.35	16.07
573.545	16.14
573.74	16.26
573.935	16.43
574.13	16.49
574.325	16.53
574.52	16.55
574.715	16.49
574.91	16.45
575.105	16.43
575.3	16.41
575.495	16.26
575.69	16.31
575.885	16.37
576.08	16.39
576.275	16.47
576.47	16.51
576.665	16.52
576.86	16.65
577.055	16.71
577.25	16.84
577.444	16.97
577.639	17.08
577.834	17.07
578.029	17.05
578.224	16.95
578.418	16.91
578.613	16.93
578.808	16.99
579.003	16.99
579.197	17.11
579.392	17.27
579.587	17.31
579.781	17.43
579.976	17.46
580.171	17.59
580.365	17.77
580.56	17.8
580.755	17.83
580.949	18.03
581.144	17.9
581.338	17.83
581.533	17.78
581.727	17.91
581.922	17.89
582.116	17.92
582.311	17.79
582.505	17.8
582.7	17.88
582.894	18.08
583.089	17.9
583.283	18.08
583.478	18.24
583.672	18.18
583.866	18.11
584.061	18.18
584.255	18.37
584.449	18.45
584.644	18.3
584.838	18.37
585.032	18.4
585.226	18.63
585.421	18.76
585.615	18.85
585.809	19
586.003	19.18
586.198	19.22
586.392	19.11
586.586	19.29
586.78	19.63
586.974	19.65
587.168	19.44
587.363	19.55
587.557	19.5
587.751	19.44
587.945	19.56
588.139	19.53
588.333	19.74
588.527	19.89
588.721	19.96
588.915	20.06
589.109	20.1
589.303	20.29
589.497	20.2
589.691	20.08
589.885	20.27
590.079	20.13
590.273	20.24
590.466	20.18
590.66	20.25
590.854	20.2
591.048	20.05
591.242	20.16
591.436	20.37
591.629	20.49
591.823	20.85
592.017	20.63
592.211	20.76
592.404	20.87
592.598	20.98
592.792	21.02
592.986	21.12
593.179	21.17
593.373	21.27
593.567	21.1
593.76	21.2
593.954	21.2
594.147	21.49
594.341	21.57
594.535	21.59
594.728	21.55
594.922	21.62
595.115	21.62
595.309	21.62
595.502	21.63
595.696	21.63
595.889	21.61
596.083	21.65
596.276	21.57
596.47	21.62
596.663	21.65
596.856	21.66
597.05	21.64
597.243	21.66
597.437	21.77
597.63	21.81
597.823	21.9
598.017	21.87
598.21	21.74
598.403	21.66
598.596	21.61
598.79	21.5
598.983	21.49
599.176	21.43
599.369	21.39
599.563	21.46
599.756	21.44
599.949	21.48
600.142	21.44
600.335	21.61
600.528	21.65
600.722	21.75
600.915	21.85
601.108	21.97
601.301	22.11
601.494	22.24
601.687	22.23
601.88	22.28
602.073	22.4
602.266	22.47
602.459	22.46
602.652	22.55
602.845	22.56
603.038	22.43
603.231	22.5
603.424	22.56
603.617	22.52
603.809	22.49
604.002	22.48
604.195	22.48
604.388	22.55
604.581	22.62
604.774	22.62
604.966	22.64
605.159	22.81
605.352	22.8
605.545	22.82
605.737	22.92
605.93	22.97
606.123	23.12
606.316	23.08
606.508	22.95
606.701	23.01
606.894	23.05
607.086	22.95
607.279	22.87
607.471	22.9
607.664	22.96
607.857	22.86
608.049	22.88
608.242	22.73
608.434	22.83
608.627	23.03
608.819	23.03
609.012	23.12
609.204	23.31
609.397	23.4
609.589	23.31
609.782	23.3
609.974	23.48
610.166	23.56
610.359	23.6
610.551	23.5
610.743	23.46
610.936	23.42
611.128	23.44
611.32	23.48
611.513	23.68
611.705	23.81
611.897	23.79
612.09	23.84
612.282	23.85
612.474	24.1
612.666	24.15
612.858	24.2
613.051	24.34
613.243	24.36
613.435	24.24
613.627	24.2
613.819	24.09
614.011	24.23
614.203	24.09
614.395	24.1
614.588	24
614.78	24.08
614.972	24.05
615.164	23.98
615.356	23.87
615.548	23.96
615.74	23.98
615.932	24.1
616.124	24.2
616.315	24.13
616.507	23.98
616.699	24.05
616.891	24.02
617.083	24.01
617.275	24.12
617.467	24.1
617.659	24.23
617.85	24.37
618.042	24.32
618.234	24.27
618.426	24.43
618.618	24.53
618.809	24.41
619.001	24.5
619.193	24.58
619.384	24.47
619.576	24.51
619.768	24.36
619.959	24.08
620.151	24.17
620.343	23.94
620.534	23.9
620.726	23.85
620.917	23.82
621.109	23.85
621.301	23.93
621.492	24.02
621.684	24.15
621.875	24.23
622.067	24.27
622.258	24.33
622.45	24.53
622.641	24.68
622.832	24.95
623.024	25.18
623.215	25.19
623.407	25.25
623.598	25.34
623.789	25.48
623.981	25.47
624.172	25.74
624.363	25.76
624.555	25.89
624.746	25.93
624.937	25.76
625.129	25.73
625.32	25.87
625.511	25.79
625.702	25.85
625.893	25.84
626.085	26
626.276	25.95
626.467	25.91
626.658	25.86
626.849	25.75
627.04	25.87
627.231	25.87
627.422	25.74
627.614	25.83
627.805	25.56
627.996	25.52
628.187	25.25
628.378	25.08
628.569	25.14
628.76	25.06
628.951	24.97
629.142	24.99
629.332	25.03
629.523	25.3
629.714	25.51
629.905	25.72
630.096	25.75
630.287	25.92
630.478	25.93
630.669	25.93
630.859	25.97
631.05	26.38
631.241	26.34
631.432	26.44
631.623	26.09
631.813	25.83
632.004	25.83
632.195	25.98
632.385	26.09
632.576	25.99
632.767	26.06
632.957	26.08
633.148	26.13
633.339	26.24
633.529	26.07
633.72	26.25
633.91	26.31
634.101	26.32
634.292	26.19
634.482	26.05
634.673	26.23
634.863	26.16
635.054	26.15
635.244	26.06
635.435	25.89
635.625	25.89
635.815	26.01
636.006	25.96
636.196	25.91
636.387	25.9
636.577	25.99
636.767	26.02
636.958	26.18
637.148	26.28
637.338	26.21
637.529	26.26
637.719	26.41
637.909	26.36
638.099	26.52
638.29	26.74
638.48	26.87
638.67	26.9
638.86	26.93
639.05	26.76
639.241	26.7
639.431	26.67
639.621	26.74
639.811	26.67
640.001	26.72
640.191	26.6
640.381	26.48
640.571	26.54
640.761	26.63
640.951	26.54
641.141	26.69
641.331	26.57
641.521	26.41
641.711	26.34
641.901	26.39
642.091	26.09
642.281	25.98
642.471	25.92
642.661	25.86
642.851	25.78
643.041	25.99
643.231	25.79
643.42	25.92
643.61	26
643.8	26.16
643.99	26.21
644.18	26.4
644.369	26.65
644.559	26.72
644.749	26.55
644.939	26.65
645.128	26.47
645.318	26.64
645.508	26.64
645.697	26.7
645.887	26.67
646.076	26.57
646.266	26.56
646.456	26.53
646.645	26.54
646.835	26.67
647.024	26.63
647.214	26.83
647.403	26.7
647.593	26.58
647.782	26.74
647.972	26.71
648.161	26.83
648.351	26.9
648.54	26.85
648.73	26.93
648.919	26.97
649.108	27.06
649.298	26.96
649.487	27.28
649.677	27.68
649.866	27.7
650.055	27.83
650.244	27.7
650.434	27.8
650.623	27.76
650.812	27.71
651.002	27.8
651.191	27.89
651.38	28
651.569	27.91
651.758	27.6
651.947	27.55
652.137	27.51
652.326	27.65
652.515	27.56
652.704	27.69
652.893	27.73
653.082	27.48
653.271	27.19
653.46	27.24
653.649	27.27
653.838	27.6
654.027	27.57
654.216	27.56
654.405	27.56
654.594	27.73
654.783	27.77
654.972	27.78
655.161	28.12
655.35	28.31
655.539	28.38
655.728	28.38
655.916	28.19
656.105	28.22
656.294	28.25
656.483	28.15
656.672	28.01
656.86	28.01
657.049	28.1
657.238	27.97
657.427	28.02
657.615	27.87
657.804	27.94
657.993	27.82
658.181	27.77
658.37	27.83
658.559	27.9
658.747	27.76
658.936	27.61
659.125	27.2
659.313	27.14
659.502	27.05
659.69	27.25
659.879	27.19
660.067	27.32
660.256	27.45
660.444	27.38
660.633	27.31
660.821	27.54
661.01	27.55
661.198	27.92
661.387	27.79
661.575	27.88
661.763	27.64
661.952	27.61
662.14	27.68
662.328	27.61
662.517	27.57
662.705	27.59
662.893	27.46
663.082	27.89
663.27	28.01
663.458	28.09
663.646	27.75
663.834	27.9
664.023	28.06
664.211	28.2
664.399	28.25
664.587	28.32
664.775	28.71
664.963	29.02
665.152	28.81
665.34	28.95
665.528	29.16
665.716	29.56
665.904	29.67
666.092	29.6
666.28	29.29
666.468	29.14
666.656	29.14
666.844	28.85
667.032	28.91
667.22	28.93
667.408	28.65
667.596	28.56
667.784	28.26
667.971	28.47
668.159	28.53
668.347	28.59
668.535	28.37
668.723	28.28
668.911	28.36
669.098	28.27
669.286	28.24
669.474	28.26
669.662	28.41
669.849	28.63
670.037	28.19
670.225	27.92
670.413	28.21
670.6	28.64
670.788	28.71
670.976	28.54
671.163	28.39
671.351	28.2
671.538	28.42
671.726	28.45
671.913	28.64
672.101	28.7
672.289	28.81
672.476	28.64
672.664	28.41
672.851	28.35
673.039	28.38
673.226	28.49
673.413	28.82
673.601	28.63
673.788	28.55
673.976	28.53
674.163	28.52
674.35	28.68
674.538	28.75
674.725	28.81
674.912	29.09
675.1	29.57
675.287	29.55
675.474	29.5
675.662	29.53
675.849	29.38
676.036	29.11
676.223	29.29
676.411	29.2
676.598	29.37
676.785	29.56
676.972	29.51
677.159	29.17
677.346	29.02
677.533	29.19
677.721	29.17
677.908	29.3
678.095	29.35
678.282	29.42
678.469	29.59
678.656	29.24
678.843	29.27
679.03	29.27
679.217	29.33
679.404	29.41
679.591	29.23
679.778	29.51
679.964	29.59
680.151	29.52
680.338	29.42
680.525	29.1
680.712	29.26
680.899	29.04
681.086	28.91
681.272	28.95
681.459	29.19
681.646	29.21
681.833	29.2
682.02	29.24
682.206	29.33
682.393	29.34
682.58	29.8
682.766	29.88
682.953	29.98
683.14	30.15
683.326	30.25
683.513	30.03
683.7	30.18
683.886	29.99
684.073	29.98
684.259	29.94
684.446	29.96
684.632	29.76
684.819	29.57
685.005	29.87
685.192	30.11
685.378	30
685.565	30.08
685.751	29.93
685.938	29.95
686.124	29.8
686.31	29.84
686.497	30.01
686.683	30.07
686.87	30.42
687.056	30.07
687.242	29.94
687.429	29.84
687.615	29.91
687.801	29.95
687.987	29.92
688.174	29.8
688.36	29.84
688.546	29.78
688.732	29.9
688.918	29.67
689.105	29.51
689.291	29.44
689.477	29.53
689.663	29.84
689.849	30.06
690.035	30.51
690.221	30.92
690.407	31.07
690.593	31.03
690.779	30.67
690.965	30.8
691.151	31.26
691.337	31.21
691.523	31.03
691.709	30.54
691.895	30.5
692.081	29.86
692.267	29.7
692.453	29.76
692.639	29.6
692.825	29.85
693.011	29.68
693.196	29.5
693.382	29.58
693.568	30.08
693.754	30.19
693.94	30.2
694.125	30.31
694.311	30.56
694.497	30.46
694.682	30.55
694.868	30.78
695.054	30.89
695.239	30.8
695.425	30.6
695.611	30.5
695.796	30.44
695.982	30.16
696.168	30.26
696.353	30.15
696.539	30.31
696.724	30.47
696.91	30.11
697.095	30.3
697.281	30.35
697.466	30.56
697.652	30.4
697.837	30.47
698.023	30.53
698.208	30.67
698.393	30.71
698.579	30.72
698.764	30.56
698.949	30.49
699.135	30.31
699.32	30.37
699.505	30.33
699.691	30.4
699.876	30.34
700.061	30.4
700.246	30.14
700.432	30.02
700.617	29.65
700.802	29.5
700.987	29.62
701.172	29.91
701.358	29.9
701.543	29.97
701.728	30.1
701.913	30.27
702.098	30.29
702.283	30.54
702.468	30.46
702.653	30.38
702.838	30.56
703.023	30.44
703.208	29.88
703.393	29.93
703.578	29.84
703.763	29.62
703.948	29.9
704.133	29.43
704.318	29.45
704.503	29.25
704.688	29.58
704.873	29.83
705.057	30.19
705.242	30.54
705.427	30.66
705.612	30.61
705.797	30.89
705.981	30.58
706.166	31.02
706.351	30.96
706.536	31.11
706.72	31.04
706.905	30.93
707.09	30.91
707.274	30.84
707.459	30.78
707.644	30.89
707.828	31.04
708.013	31.01
708.197	30.92
708.382	30.76
708.567	30.91
708.751	30.82
708.936	30.73
709.12	30.62
709.305	30.55
709.489	30.68
709.673	30.79
709.858	30.14
710.042	29.96
710.227	30.3
710.411	30.81
710.596	30.73
710.78	30.63
710.964	30.81
711.149	30.79
711.333	30.96
711.517	30.48
711.702	30.15
711.886	30.32
712.07	30.32
712.254	30.26
712.438	30.2
712.623	30.23
712.807	30.61
712.991	30.46
713.175	30.56
713.359	30.48
713.544	30.92
713.728	31.02
713.912	31.27
714.096	31.22
714.28	30.82
714.464	30.56
714.648	30.36
714.832	30.42
715.016	30.81
715.2	30.8
715.384	30.94
715.568	30.97
715.752	30.95
715.936	31.05
716.12	31
716.304	31.42
716.488	31.48
716.671	31.66
716.855	31.31
717.039	31.14
717.223	31.42
717.407	31.46
717.59	31.24
717.774	31.35
717.958	31.12
718.142	31.3
718.325	31.34
718.509	31.3
718.693	31.21
718.877	31.36
719.06	31.03
719.244	30.81
719.428	30.5
719.611	30.53
719.795	30.56
719.978	30.53
720.162	30.61
720.345	30.62
720.529	30.73
720.713	30.67
720.896	30.66
721.08	30.44
721.263	30.27
721.446	30.24
721.63	30.3
721.813	30.21
721.997	30.34
722.18	30.45
722.364	30.39
722.547	29.82
722.73	30.46
722.914	30.04
723.097	29.94
723.28	30.24
723.464	30.5
723.647	31.1
723.83	30.86
724.013	30.67
724.197	30.85
724.38	30.55
724.563	30.89
724.746	30.39
724.929	30.88
725.112	31.02
725.296	31.07
725.479	30.72
725.662	30.12
725.845	30.09
726.028	30.13
726.211	30.24
726.394	30.38
726.577	30.49
726.76	30.68
726.943	30.47
727.126	30.38
727.309	30.06
727.492	29.88
727.675	30
727.858	30.28
728.041	30.24
728.224	30.08
728.407	30.47
728.589	30.66
728.772	30.62
728.955	30.82
729.138	31.51
729.321	31.81
729.503	31.95
729.686	31.8
729.869	31.9
730.052	31.87
730.234	32.01
730.417	32
730.6	32.1
730.782	32.36
730.965	32.25
731.148	31.85
731.33	31.55
731.513	32.17
731.695	32.3
731.878	32.13
732.061	32.55
732.243	32.23
732.426	31.62
732.608	31.68
732.791	31.75
732.973	31.71
733.156	31.6
733.338	31.57
733.52	30.92
733.703	30.68
733.885	30.48
734.068	30.39
734.25	30.7
734.432	30.94
734.615	30.59
734.797	30.32
734.979	30.51
735.162	30.66
735.344	30.92
735.526	31.41
735.708	31.45
735.891	31.56
736.073	31.32
736.255	30.78
736.437	30.45
736.619	30.14
736.802	29.95
736.984	30.12
737.166	29.8
737.348	29.78
737.53	29.3
737.712	29.32
737.894	29.89
738.076	29.72
738.258	29.92
738.44	29.85
738.622	30
738.804	30.05
738.986	29.63
739.168	29.98
739.35	29.75
739.532	29.9
739.714	29.98
739.896	29.57
740.078	30
740.259	29.79
740.441	30.49
740.623	30.62
740.805	30.68
740.987	31.15
741.168	31.25
741.35	31.54
741.532	31.72
741.714	32.13
741.895	32.03
742.077	31.82
742.259	31.92
742.44	31.54
742.622	31.97
742.804	32.17
742.985	31.72
743.167	31.66
743.348	31.84
743.53	31.28
743.711	30.22
743.893	30.46
744.075	29.71
744.256	29.98
744.438	30.71
744.619	30.23
744.8	29.9
744.982	30.44
745.163	30.5
745.345	29.92
745.526	30.82
745.707	31.49
745.889	31.22
746.07	30.87
746.252	31.05
746.433	30.53
746.614	30.7
746.795	30.57
746.977	29.65
747.158	29.92
747.339	30.25
747.52	29.88
747.702	30.21
747.883	30.35
748.064	31.52
748.245	31.18
748.426	31.61
748.607	31.13
748.788	30.99
748.97	31.57
749.151	31.1
749.332	31.12
749.513	31.13
749.694	31.33
749.875	31.69
750.056	31.91
750.237	31.11
750.418	30.69
750.599	30.55
750.78	30.81
750.96	30.99
751.141	30.96
751.322	30.96
751.503	31.15
751.684	30.41
751.865	29.55
752.046	28.79
752.226	30.07
752.407	29.55
752.588	30.32
752.769	30.17
752.949	29.98
753.13	29.97
753.311	30.58
753.492	30.67
753.672	30.59
753.853	31.31
754.034	31.96
754.214	31.96
754.395	32.92
754.575	32.8
754.756	32.59
754.937	32.5
755.117	32.94
755.298	32.01
755.478	31.91
755.659	32.42
755.839	32.21
756.02	31.74
756.2	31.57
756.381	31.17
756.561	31.12
756.741	31.15
756.922	31.92
757.102	31.58
757.283	31.66
757.463	31.1
757.643	31.35
757.823	31.75
758.004	31.86
758.184	31.44
758.364	31.95
758.545	31.77
758.725	31.99
758.905	31.52
759.085	32.25
759.265	32.05
759.446	32.69
759.626	32.62
759.806	32.15
759.986	32.26
760.166	32.08
760.346	31.54
760.526	31.48
760.706	31.92
760.886	31.81
761.066	31.26
761.246	31.39
761.426	31.05
761.606	31.1
761.786	31.22
761.966	31.13
762.146	31.49
762.326	31.67
762.506	32.07
762.686	31.88
762.866	32.27
763.046	32.24
763.225	32.62
763.405	32.88
763.585	32.83
763.765	32.83
763.945	32.73
764.124	32.96
764.304	32.98
764.484	32.64
764.664	32.19
764.843	32
765.023	31.9
765.203	31.59
765.382	30.98
765.562	30.86
765.741	30.63
765.921	30.89
766.101	30.85
766.28	30.91
766.46	30.72
766.639	31.26
766.819	30.8
766.998	31.13
767.178	31.05
767.357	31.74
767.537	31.72
767.716	31.81
767.896	32.11
768.075	31.75
768.254	30.95
768.434	31.74
768.613	31.66
768.792	31.78
768.972	31.58
769.151	31.54
769.33	31.2
769.51	30.89
769.689	30.75
769.868	30.68
770.047	30.56
770.226	30.63
770.406	29.49
770.585	29.12
770.764	29.3
770.943	29.09
771.122	29.17
771.301	29.7
771.48	29.67
771.66	29.97
771.839	30.64
772.018	30.71
772.197	30.44
772.376	31.45
772.555	32.79
772.734	32.3
772.913	31.49
773.092	31.71
773.271	30.74
773.449	30.75
773.628	30.95
773.807	29.66
773.986	29.73
774.165	30.89
774.344	30.77
774.523	29.18
774.701	30.14
774.88	31.25
775.059	31.7
775.238	32.32
775.417	32.97
775.595	32.71
775.774	33.4
775.953	32.49
776.131	31.54
776.31	31.54
776.489	32.56
776.667	31.77
776.846	31.79
777.025	30.27
777.203	30.23
777.382	30.21
777.56	30.22
777.739	30.11
777.917	31.6
778.096	31.98
778.274	31.23
778.453	30.52
778.631	30.46
778.81	29.5
778.988	30.14
779.166	30.78
779.345	31.28
779.523	31.53
779.702	30.83
779.88	30.15
780.058	29.7
780.237	30.1
780.415	31.09
780.593	31.29
780.771	33.09
780.95	33.24
781.128	32.34
781.306	31.54
781.484	31.26
781.662	31.82
781.841	32.71
782.019	33.07
782.197	33.15
782.375	32.77
782.553	32.39
782.731	31.56
782.909	31.26
783.087	31.97
783.265	32
783.443	33.08
783.621	33.01
783.799	32.23
783.977	31.48
784.155	31.8
784.333	31.96
784.511	33.05
784.689	32.73
784.867	33.4
785.045	32.04
785.223	31.87
785.4	31.13
785.578	31.27
785.756	31.1
785.934	31.5
786.112	31.01
786.289	30.25
786.467	29.54
786.645	29.91
786.823	29.72
787	29.96
787.178	29.34
787.356	28.76
787.533	28.77
787.711	29.13
787.889	29.17
788.066	29.45
788.244	28.98
788.421	29.23
788.599	29.1
788.776	29.7
788.954	29.45
789.131	30.87
789.309	31.71
789.486	31.55
789.664	31.1
789.841	31.19
790.019	31.72
790.196	32.62
790.373	32.62
790.551	32.71
790.728	32.55
790.906	34.11
791.083	35.1
791.26	34.37
791.437	33.63
791.615	33.62
791.792	34.04
791.969	32.95
792.146	32.87
792.324	33.37
792.501	33.6
792.678	32.3
792.855	31.67
793.032	30.24
793.209	29.39
793.387	29.75
793.564	29.64
793.741	29.22
793.918	30.33
794.095	30.33
794.272	29.12
794.449	29.8
794.626	30.2
794.803	30.67
794.98	29.46
795.157	29.88
795.334	30.42
795.511	31.1
795.688	32.35
795.864	31.22
796.041	31.54
796.218	31.76
796.395	30.39
796.572	30.16
796.749	28.53
796.925	29.58
797.102	30.32
797.279	29.81
797.456	29.87
797.632	29.61
797.809	29.53
797.986	29.22
798.162	28.58
798.339	28.42
798.516	29.41
798.692	30.27
798.869	29.65
799.046	29.48
799.222	30.29
799.399	29.21
799.575	29.54
799.752	30.87
799.928	31.26
800.105	31.85
800.281	31.53
800.458	30.59
800.634	30.96
800.811	31
800.987	30.84
801.163	29.89
801.34	30.68
801.516	30.46
801.692	30.14
801.869	29.01
802.045	30.3
802.221	32.26
802.398	32.43
802.574	32.3
802.75	31.77
802.926	31.64
803.103	31.66
803.279	31.47
803.455	31.17
803.631	31.17
803.807	32.34
803.983	32.07
804.16	30.98
804.336	31.33
804.512	31.07
804.688	32
804.864	32.11
805.04	32.89
805.216	33.27
805.392	33.24
805.568	32.73
805.744	32.93
805.92	32.73
806.096	32.6
806.272	32.22
806.448	32.38
806.623	32.89
806.799	33.66
806.975	33.35
807.151	32.46
807.327	30.83
807.503	31.08
807.678	31.33
807.854	30.19
808.03	29.7
808.206	29.82
808.381	29.67
808.557	28.54
808.733	28.48
808.908	28.26
809.084	28.77
809.26	30.61
809.435	30.41
809.611	28.64
809.787	28.7
809.962	29.84
810.138	30.2
810.313	30.34
810.489	30.1
810.664	29.89
810.84	29.61
811.015	29.5
811.191	29.49
811.366	29.58
811.542	30.63
811.717	30.24
811.892	30.08
812.068	29.97
812.243	29.36
812.419	30.52
812.594	31.08
812.769	31.18
812.944	30.75
813.12	30.27
813.295	30.89
813.47	30.29
813.645	32.08
813.821	32.15
813.996	32.06
814.171	32.68
814.346	32.18
814.521	32.04
814.697	32.49
814.872	32.69
815.047	31.05
815.222	30.95
815.397	31.51
815.572	30.25
815.747	29.75
815.922	30.46
816.097	30.56
816.272	30.63
816.447	30.18
816.622	29.88
816.797	31.43
816.972	31.46
817.147	30.43
817.322	30.24
817.496	31.07
817.671	31.48
817.846	31.36
818.021	31.27
818.196	30.33
818.371	29.8
818.545	30.69
818.72	29.48
818.895	30.26
819.069	29.66
819.244	30
819.419	29.96
819.594	29.4
819.768	29.21
819.943	29.69
820.117	30.65
820.292	30.9
820.467	30.78
820.641	31.11
820.816	31.21
820.99	31.73
821.165	31.44
821.339	31.32
821.514	31.47
821.688	31.58
821.863	31.3
822.037	31.2
822.212	30.99
822.386	30.92
822.56	30.93
822.735	31.02
822.909	30.9
823.084	31.24
823.258	31.26
823.432	31.52
823.606	31.22
823.781	31.5
823.955	31.54
824.129	31.72
824.303	31.88
824.478	31.87
824.652	31.71
824.826	31.91
825	31.7
825.174	31.48
825.348	31.24
825.523	31.6
825.697	31.59
825.871	31.14
826.045	31.11
826.219	30.69
826.393	30.49
826.567	30.85
826.741	30.79
826.915	30.53
827.089	30.43
827.263	30.08
827.437	30.36
827.611	30.16
827.784	30.54
827.958	31.28
828.132	31.81
828.306	32.07
828.48	31.51
828.654	31.64
828.827	32.01
829.001	32.62
829.175	32.77
829.349	32.36
829.522	32.96
829.696	32.7
829.87	31.46
830.044	31.05
830.217	30.59
830.391	32.33
830.565	32.43
830.738	33.48
830.912	33.36
831.085	33.22
831.259	33.16
831.432	32.54
831.606	33.55
831.779	32.91
831.953	33.35
832.126	32.43
832.3	31.33
832.473	30.59
832.647	29.08
832.82	28.71
832.994	29.14
833.167	29.06
833.34	29.58
833.514	29.01
833.687	30.08
833.86	29.87
834.034	30.8
834.207	30.51
834.38	30.66
834.553	30.66
834.727	31.34
834.9	31.7
835.073	31.63
835.246	30.89
835.419	30.91
835.593	30.39
835.766	30.34
835.939	29.85
836.112	29.85
836.285	30.96
836.458	31.77
836.631	30.76
836.804	30.27
836.977	30.68
837.15	30.8
837.323	31.54
837.496	30.82
837.669	29.7
837.842	30.81
838.015	31.41
838.188	29.58
838.361	29.02
838.533	30.04
838.706	29.78
838.879	29.6
839.052	29.06
839.225	27.83
839.398	28.73
839.57	31.48
839.743	31.34
839.916	30.36
840.088	30.1
840.261	30.87
840.434	29.5
840.607	30.07
840.779	29.95
840.952	31.44
841.124	32.92
841.297	34.06
841.47	31.49
841.642	30.86
841.815	30.29
841.987	30.74
842.16	29.58
842.332	31.81
842.505	32.2
842.677	32.88
842.85	33.12
843.022	33.57
843.194	32.9
843.367	33.24
843.539	33.61
843.712	35.28
843.884	36.27
844.056	36.05
844.229	35.69
844.401	36.59
844.573	34.81
844.745	35.42
844.918	35.27
845.09	36.35
845.262	36.06
845.434	34.12
845.606	35.45
845.779	36.61
845.951	41.01
846.123	42.83
846.295	39.54
846.467	40.81
846.639	38.21
846.811	36.59
846.983	31.88
847.155	36.2
847.327	35.45
847.499	35.83
847.671	34.93
847.843	31.12
848.015	30.5
848.187	31.17
848.359	28.96
848.531	29.36
848.703	30.38
848.875	31.22
849.047	27.4
849.218	30.95
849.39	27.16
849.562	24.83
849.734	25.06
849.905	22.27
850.077	22.33
850.249	22.46
850.421	22.47
850.592	21.4
850.764	25.58
850.936	24.49
851.107	20.2
851.279	22.31
851.451	22.91
851.622	22.5
851.794	23.07
851.965	24.55
852.137	26.98
852.308	29.41
852.48	29.62
852.651	30.62
852.823	28.65
852.994	32.54
853.166	31.97
853.337	32.64
853.509	31.9
853.68	34.32
853.851	35.29
854.023	31.66
854.194	28.25
854.365	28.94
854.537	25.23
854.708	29.64
854.879	26.56
855.05	29.82
855.222	29.68
855.393	28.02
855.564	27.63
855.735	22.92
855.906	24.56
856.078	27.01
856.249	26.28
856.42	26.14
856.591	25.29
856.762	25.24
856.933	21.42
857.104	23.03
857.275	27.01
857.446	26.41
857.617	31.61
857.788	35.09
857.959	31.99
858.13	29.06
858.301	31.99
858.472	31.01
858.643	36.08
858.814	35.09
858.985	33.98
859.155	33.53
859.326	29.12
859.497	26.53
859.668	20.08
859.839	23.9
860.009	26.69
860.18	26.72
860.351	27.88
860.522	23.76
860.692	24.55
860.863	26.16
861.034	27.39
861.204	28.84
861.375	29.28
861.546	34.06
861.716	33.68
861.887	36.54
862.057	34.59
862.228	33.41
862.398	34.72
862.569	33.62
862.739	30.02
862.91	31.12
863.08	31.38
863.251	32.4
863.421	31.3
863.592	31.63
863.762	29.04
863.932	29.87
864.103	29.93
864.273	28.94
864.443	33.68
864.614	33.9
864.784	30.7
864.954	33.78
865.125	32.33
865.295	33.01
865.465	30.97
865.635	31.85
865.805	33.64
865.976	36.29
866.146	39.15
866.316	32.48
866.486	35.99
866.656	36.69
866.826	37.98
866.996	37.69
867.166	38.23
867.336	40.63
867.506	41.77
867.676	35.61
867.846	33.43
868.016	30.65
868.186	33.68
868.356	33.81
868.526	28.57
868.696	23.53
868.866	21.03
869.036	21.18
869.206	18.02
869.376	14.14
869.545	19.57
869.715	19.91
869.885	21.5
870.055	20.45
870.224	16.26
870.394	18.4
870.564	16.52
870.734	22.66
870.903	21.8
871.073	23.06
871.243	25.35
871.412	24.43
871.582	28.48
871.751	27.78
871.921	27.52
872.091	26.27
872.26	26.1
872.43	29.61
872.599	28.09
872.769	27.28
872.938	25.68
873.108	21.71
873.277	19.36
873.446	15.5
873.616	11.72
873.785	10.67
873.955	13.5
874.124	16.19
874.293	14.61
874.463	14.13
874.632	12.48
874.801	13.29
874.971	21.32
875.14	21.16
875.309	20.45
875.478	24.97
875.647	26.45
875.817	27.34
875.986	27.39
876.155	29.54
876.324	30.03
876.493	31.21
876.662	27.71
876.831	25.03
877	28.54
877.17	28.91
877.339	27.03
877.508	28.44
877.677	28.29
877.846	28.85
878.015	29.96
878.184	31.37
878.352	29.9
878.521	33.69
878.69	32.38
878.859	32.12
879.028	34.22
879.197	32.89
879.366	32.91
879.534	32.02
879.703	33.53
879.872	33.48
880.041	33.16
880.21	34.14
880.378	32.59
880.547	32.71
880.716	31.28
880.884	31.22
881.053	31.45
881.222	31.02
881.39	31.63
881.559	30.95
881.727	31.19
881.896	30.55
882.065	31.18
882.233	32.27
882.402	33.2
882.57	34.08
882.739	33.51
882.907	34.03
883.076	34.76
883.244	34.87
883.412	35.25
883.581	34.4
883.749	35.05
883.918	34.96
884.086	34.19
884.254	33.99
884.423	33.14
884.591	33.41
884.759	32.94
884.927	32.61
885.096	32.2
885.264	31.83
885.432	31.39
885.6	31.52
885.769	31.77
885.937	33.96
886.105	33.62
886.273	33.25
886.441	32.66
886.609	34.07
886.777	34.82
886.945	35.56
887.113	36.37
887.281	38.33
887.449	37.11
887.617	37.24
887.785	35.26
887.953	34.93
888.121	39.31
888.289	41.85
888.457	42.9
888.625	41.06
888.793	39.74
888.961	36.77
889.129	35.09
889.296	35.96
889.464	33.94
889.632	33.65
889.8	32.43
889.967	28.67
890.135	25.9
