Data from 2938500_Reflection_1.txt Node
Date: Wed Jun 17 00:19:58 EDT 2015
User: robert
Spectrometer: USB4E03002
Autoset integration time: false
Trigger mode: 4
Integration Time (sec): 1.000000E-1
Scans to average: 10
Electric dark correction enabled: true
Nonlinearity correction enabled: false
Boxcar width: 5
Stray light correction enabled: false
XAxis mode: Wavelengths
Stop averaging: false
Number of Pixels in Spectrum: 3648
>>>>>Begin Spectral Data<<<<<
177.575	55.27
177.794	-144.44
178.014	-347.14
178.233	-2.62
178.452	39.23
178.672	50.49
178.891	5.59
179.11	-169.41
179.33	-69.69
179.549	-234.18
179.768	212.87
179.987	54.66
180.207	-63.72
180.426	836.69
180.645	-389.35
180.864	-1127.22
181.084	477.82
181.303	219.78
181.522	2431.65
181.741	1936.89
181.96	-315.47
182.179	-753.36
182.398	1003.54
182.618	1491.02
182.837	-1338.73
183.056	-2131.01
183.275	-397.34
183.494	-6004.38
183.713	-6662.5
183.932	604.21
184.151	-1164.16
184.37	-713.62
184.589	-1236.39
184.808	-268.58
185.027	-295.12
185.246	-85.72
185.465	-124.65
185.684	-180.02
185.903	-113.36
186.122	-69.73
186.341	-20.44
186.56	-398.97
186.779	161.76
186.998	118.62
187.216	80.46
187.435	89.93
187.654	102.09
187.873	141.28
188.092	159.38
188.311	213.33
188.53	238.02
188.748	669.03
188.967	314.91
189.186	865.53
189.405	261.65
189.623	307.09
189.842	-2730.65
190.061	3023.02
190.28	-26.6
190.498	101.81
190.717	554.97
190.936	-1725.66
191.154	-123.55
191.373	6933.33
191.592	8918.6
191.81	460.2
192.029	191.88
192.248	1134.55
192.466	312.36
192.685	-475.3
192.904	-42.92
193.122	-80.86
193.341	-92.93
193.559	212.35
193.778	109.23
193.996	43.76
194.215	33.87
194.433	-147.78
194.652	-650
194.87	-966.94
195.089	-139.32
195.307	-27.76
195.526	-63.92
195.744	-36.27
195.963	13.9
196.181	-333.91
196.399	-86.4
196.618	193.11
196.836	-731.25
197.055	424.25
197.273	234.38
197.491	79.09
197.71	85.84
197.928	53.04
198.146	30.84
198.365	66.84
198.583	34.37
198.801	49.7
199.019	27.72
199.238	0
199.456	-17.23
199.674	-52.72
199.892	51.41
200.111	37.75
200.329	126.37
200.547	3412.5
200.765	116.93
200.983	97.83
201.202	86.46
201.42	118.28
201.638	111.87
201.856	135.49
202.074	147.43
202.292	150.19
202.51	138.83
202.728	110.54
202.946	82.2
203.165	84.95
203.383	127.71
203.601	140.11
203.819	127.78
204.037	201.37
204.255	140.62
204.473	145.27
204.691	115.42
204.909	48.89
205.127	0
205.345	38025
205.562	83.13
205.78	86.25
205.998	264.12
206.216	-4490.91
206.434	34.43
206.652	80.02
206.87	94.25
207.088	118.92
207.306	176.14
207.523	151.48
207.741	154.53
207.959	135.88
208.177	157.45
208.395	154.93
208.612	146.1
208.83	229.4
209.048	287.36
209.266	372.26
209.483	290.54
209.701	373.07
209.919	261.15
210.136	157.79
210.354	119.74
210.572	64.85
210.79	-11.42
211.007	-7.21
211.225	-14.18
211.442	-16
211.66	-56.08
211.878	1.66
212.095	20.27
212.313	17.37
212.53	23.04
212.748	42.82
212.966	42.03
213.183	69.34
213.401	95.74
213.618	122.53
213.836	123.58
214.053	150.49
214.271	195.58
214.488	298.46
214.705	651.8
214.923	250.88
215.14	269.46
215.358	787.78
215.575	-169.8
215.793	-588.1
216.01	-50.48
216.227	-45.01
216.445	-90.02
216.662	33.97
216.879	79.97
217.097	131.23
217.314	127.43
217.531	220.5
217.749	268.69
217.966	-220.04
218.183	913.29
218.4	-185.71
218.618	50.22
218.835	75.89
219.052	117.6
219.269	126.53
219.487	113.62
219.704	100.05
219.921	67.46
220.138	51.31
220.355	72.33
220.572	64.72
220.79	47.89
221.007	30.33
221.224	17.04
221.441	5.09
221.658	-49.8
221.875	-28.1
222.092	-6.94
222.309	28.69
222.526	37.87
222.743	29.24
222.96	33.34
223.177	21.77
223.394	23.36
223.611	15.78
223.828	28.03
224.045	31.85
224.262	29.11
224.479	27.97
224.696	22.54
224.913	22.31
225.13	19.34
225.347	16.29
225.564	18.44
225.781	21.57
225.997	22.43
226.214	21.2
226.431	23.08
226.648	22.16
226.865	20.79
227.082	19.01
227.298	18.25
227.515	20.66
227.732	22.05
227.949	21.09
228.165	17.74
228.382	20.67
228.599	20.11
228.816	17.53
229.032	16.71
229.249	16.37
229.466	18.09
229.682	19.61
229.899	17.12
230.116	14.56
230.332	14.4
230.549	16.75
230.765	13.93
230.982	14.77
231.199	15.75
231.415	14.99
231.632	15.5
231.848	14.22
232.065	11.32
232.281	12.55
232.498	13.91
232.714	16.48
232.931	13.29
233.147	12.13
233.364	12.91
233.58	12.61
233.797	13.21
234.013	12.86
234.23	13.44
234.446	14.96
234.662	13.4
234.879	12.37
235.095	11.9
235.312	16.82
235.528	18.76
235.744	16.33
235.961	20.01
236.177	20.75
236.393	20.62
236.61	22.53
236.826	20.77
237.042	18.05
237.258	18.27
237.475	16.92
237.691	16.1
237.907	14.3
238.123	13.38
238.339	10.35
238.556	12.4
238.772	10.47
238.988	8.41
239.204	9.39
239.42	10.11
239.636	10.12
239.853	10.32
240.069	10.81
240.285	12.02
240.501	12.94
240.717	13.03
240.933	12.24
241.149	12.66
241.365	13.72
241.581	13.4
241.797	14.92
242.013	14.57
242.229	15.48
242.445	14.86
242.661	14.03
242.877	14.7
243.093	15.14
243.309	15.19
243.525	15.78
243.741	15.76
243.957	15.11
244.173	14.43
244.388	13.81
244.604	13.59
244.82	13.51
245.036	13.21
245.252	12.37
245.468	11.94
245.683	11.94
245.899	12.25
246.115	11.99
246.331	12.98
246.547	12.76
246.762	13.03
246.978	12.54
247.194	12.45
247.409	12.78
247.625	13.24
247.841	13.06
248.057	13.27
248.272	12.84
248.488	12.82
248.703	11.8
248.919	12.34
249.135	11.93
249.35	11.62
249.566	12.05
249.782	10.76
249.997	9.63
250.213	10.01
250.428	8.27
250.644	8.94
250.859	9.48
251.075	9.53
251.29	9.72
251.506	10.68
251.721	10.8
251.937	10.97
252.152	11.58
252.368	11.57
252.583	10.17
252.798	12.42
253.014	13.47
253.229	12.59
253.445	11.71
253.66	12.53
253.875	11.54
254.091	11.94
254.306	10.14
254.521	9.47
254.737	10.28
254.952	11.09
255.167	10.24
255.383	8.99
255.598	8.03
255.813	7.58
256.028	6.75
256.244	7.79
256.459	8.5
256.674	9.15
256.889	9.2
257.104	9.28
257.32	9.56
257.535	9.12
257.75	9.15
257.965	9.52
258.18	9.6
258.395	9.19
258.61	9.05
258.826	8.5
259.041	8.6
259.256	8.55
259.471	8.02
259.686	7.94
259.901	8.14
260.116	7.24
260.331	7.46
260.546	7.17
260.761	6.65
260.976	5.73
261.191	5.97
261.406	5.42
261.621	5.45
261.836	6.36
262.05	6.4
262.265	6.54
262.48	7.53
262.695	7.53
262.91	7.97
263.125	10.01
263.34	10.73
263.555	11.18
263.769	10.57
263.984	10.8
264.199	9.6
264.414	9.57
264.629	9.66
264.843	9.63
265.058	9.49
265.273	9.83
265.488	8.39
265.702	8.18
265.917	8.51
266.132	9.33
266.346	9.68
266.561	10.19
266.776	10.17
266.99	10.68
267.205	10.98
267.42	10.61
267.634	9.91
267.849	9.99
268.063	10.42
268.278	9.78
268.492	9.3
268.707	9.28
268.922	9.34
269.136	8.93
269.351	7.58
269.565	6.93
269.78	6.7
269.994	7.29
270.209	7.18
270.423	7
270.637	7.31
270.852	7.03
271.066	6.98
271.281	6.38
271.495	6.35
271.709	7.19
271.924	7.82
272.138	8.53
272.353	8.78
272.567	9.39
272.781	9.18
272.996	8.01
273.21	7.8
273.424	7.61
273.638	8.16
273.853	8.66
274.067	8.02
274.281	7.2
274.495	6.22
274.71	5.8
274.924	6.07
275.138	6.22
275.352	7.74
275.566	8.43
275.781	9.05
275.995	8.89
276.209	8.9
276.423	8.1
276.637	9.3
276.851	9.5
277.065	9.08
277.279	7.95
277.493	7.24
277.707	6.1
277.921	5.9
278.135	5.07
278.349	5.71
278.563	5.15
278.777	5.43
278.991	4.57
279.205	4.56
279.419	5.25
279.633	6.95
279.847	7.37
280.061	7.7
280.275	7.77
280.489	8.17
280.703	9.16
280.917	9.41
281.131	10.29
281.344	10.38
281.558	10.21
281.772	9.78
281.986	8.85
282.2	9.38
282.414	9.34
282.627	8.83
282.841	7.75
283.055	6.66
283.269	6.85
283.482	6.1
283.696	6.13
283.91	6.38
284.123	6.25
284.337	6.06
284.551	5.51
284.764	5.53
284.978	5.97
285.192	6.99
285.405	6.68
285.619	6.27
285.833	6.4
286.046	7.29
286.26	6.58
286.473	6.85
286.687	7.31
286.9	6.7
287.114	6.95
287.327	6.67
287.541	5.71
287.754	5.53
287.968	6.2
288.181	6.4
288.395	5.9
288.608	6.76
288.822	6.7
289.035	6.74
289.248	7.02
289.462	6.73
289.675	6.7
289.889	7.38
290.102	8.81
290.315	8.83
290.529	8.65
290.742	7.38
290.955	7.48
291.169	7.7
291.382	7.5
291.595	8.12
291.808	7.95
292.022	8.63
292.235	7.74
292.448	6.13
292.661	5.74
292.875	5.64
293.088	6.4
293.301	5.44
293.514	5.77
293.727	5.29
293.94	5.3
294.153	5.82
294.367	5.88
294.58	6.15
294.793	6.93
295.006	6.95
295.219	7.39
295.432	7.56
295.645	8.16
295.858	8.16
296.071	8.57
296.284	8.15
296.497	7.83
296.71	7.54
296.923	8.27
297.136	7.52
297.349	7.23
297.562	6.71
297.775	6.44
297.988	6.27
298.201	6.16
298.414	6.19
298.626	6.55
298.839	7.14
299.052	7.31
299.265	6.22
299.478	7.2
299.691	7.77
299.903	7.93
300.116	8.48
300.329	8.91
300.542	8.48
300.755	8.07
300.967	8.53
301.18	8.47
301.393	9.12
301.605	9.31
301.818	8.65
302.031	8.97
302.243	9.1
302.456	8.69
302.669	8.9
302.881	8.71
303.094	10.12
303.307	10.1
303.519	9.64
303.732	8.72
303.944	9.21
304.157	10.09
304.37	9.44
304.582	9.64
304.795	9.47
305.007	8.31
305.22	8.58
305.432	8.01
305.645	7.72
305.857	7.52
306.069	8.51
306.282	8.31
306.494	7.57
306.707	7.62
306.919	7.38
307.132	8.09
307.344	8.94
307.556	9.45
307.769	9.25
307.981	9.23
308.193	9.45
308.406	8.92
308.618	9.21
308.83	9.12
309.043	9.48
309.255	9.83
309.467	9.31
309.679	8.9
309.892	8.47
310.104	8.28
310.316	8.72
310.528	8.81
310.74	8.69
310.953	8.54
311.165	8.86
311.377	8.49
311.589	8.3
311.801	8.4
312.013	9.37
312.225	9.13
312.437	9.06
312.649	8.19
312.862	8.28
313.074	8.84
313.286	8.8
313.498	8.58
313.71	9.35
313.922	9.79
314.134	9.35
314.346	9.18
314.558	9.39
314.77	9.84
314.982	10.55
315.193	10.39
315.405	9.7
315.617	9.99
315.829	10.36
316.041	9.73
316.253	10.04
316.465	10.72
316.677	10.21
316.888	10.9
317.1	10.41
317.312	10.11
317.524	10.61
317.736	11.06
317.947	10.67
318.159	11.03
318.371	11.73
318.583	10.73
318.794	11.09
319.006	11.29
319.218	10.99
319.43	11.66
319.641	11.58
319.853	11.07
320.064	10.92
320.276	11.27
320.488	10.85
320.699	10.1
320.911	11.21
321.123	10.73
321.334	10.56
321.546	10.66
321.757	9.98
321.969	10.12
322.18	10.44
322.392	10.71
322.603	10.09
322.815	9.64
323.026	9.84
323.238	9.57
323.449	10.06
323.661	10.5
323.872	10.34
324.083	10.58
324.295	10.8
324.506	10.92
324.718	10.86
324.929	11.39
325.14	12.09
325.352	12.18
325.563	12.06
325.774	12.03
325.986	11.54
326.197	11.54
326.408	11.47
326.62	11.45
326.831	11.03
327.042	11.16
327.253	11.26
327.464	11.11
327.676	11.18
327.887	11.61
328.098	11.85
328.309	12.45
328.52	13
328.732	13.74
328.943	14.15
329.154	14.9
329.365	15
329.576	15.34
329.787	15.72
329.998	16.24
330.209	15.88
330.42	15.62
330.631	15.78
330.842	15.07
331.053	14.74
331.264	14.67
331.475	14.67
331.686	14.77
331.897	14.7
332.108	14.73
332.319	14.29
332.53	14.53
332.741	14.06
332.952	13.66
333.163	13.86
333.374	13.64
333.585	13.15
333.795	13.18
334.006	12.81
334.217	12.66
334.428	12.78
334.639	13.28
334.849	13.43
335.06	13.75
335.271	13.98
335.482	14.49
335.692	14.73
335.903	15.09
336.114	15
336.325	15.11
336.535	15.21
336.746	14.91
336.957	14.61
337.167	14.29
337.378	14.51
337.589	14.59
337.799	14.57
338.01	14.64
338.22	14.47
338.431	14.5
338.642	14.79
338.852	14.82
339.063	15.3
339.273	15.18
339.484	15.04
339.694	15.16
339.905	15.07
340.115	15.4
340.326	15.34
340.536	15.18
340.746	14.72
340.957	14.22
341.167	14
341.378	13.75
341.588	13.99
341.799	14.41
342.009	14.02
342.219	14.1
342.43	13.86
342.64	14
342.85	14.02
343.061	14.36
343.271	14.79
343.481	15.13
343.691	15.02
343.902	15.15
344.112	15.02
344.322	15.05
344.532	15.12
344.743	14.76
344.953	14.43
345.163	14.73
345.373	14.57
345.583	14.09
345.793	14.25
346.004	14.34
346.214	14.13
346.424	13.68
346.634	13.79
346.844	13.7
347.054	14.21
347.264	14.68
347.474	14.68
347.684	14.76
347.894	15.1
348.104	14.68
348.314	14.44
348.524	14.18
348.734	14.53
348.944	14.51
349.154	14.21
349.364	13.86
349.574	13.66
349.784	14.03
349.994	14.02
350.204	14.17
350.413	14.21
350.623	14.52
350.833	14.52
351.043	14.32
351.253	14.58
351.463	14.57
351.672	14.59
351.882	14.61
352.092	14.04
352.302	13.84
352.511	13.87
352.721	13.64
352.931	13.24
353.141	13.79
353.35	13.75
353.56	13.57
353.77	13.29
353.979	13.6
354.189	13.37
354.399	13.56
354.608	13.87
354.818	13.84
355.027	13.85
355.237	13.76
355.447	13.13
355.656	12.9
355.866	12.74
356.075	12.85
356.285	12.49
356.494	12.41
356.704	12.27
356.913	12.11
357.123	11.77
357.332	11.76
357.542	11.8
357.751	12.01
357.96	12.29
358.17	12.52
358.379	12.56
358.589	12.54
358.798	12.36
359.007	12.22
359.217	12.33
359.426	12.59
359.635	12.78
359.845	12.73
360.054	12.76
360.263	12.75
360.472	12.52
360.682	12.67
360.891	12.6
361.1	12.87
361.309	13.06
361.519	12.95
361.728	12.76
361.937	12.46
362.146	12.44
362.355	12.41
362.564	12.45
362.774	12.45
362.983	12.35
363.192	12.44
363.401	12.37
363.61	12.33
363.819	12.15
364.028	12.09
364.237	12.14
364.446	12.24
364.655	12.2
364.864	12.19
365.073	12.2
365.282	12
365.491	11.96
365.7	11.78
365.909	11.56
366.118	11.64
366.327	11.77
366.536	12
366.745	11.78
366.954	11.73
367.162	11.58
367.371	11.46
367.58	11.66
367.789	11.75
367.998	11.93
368.207	11.83
368.415	11.96
368.624	12.18
368.833	12.06
369.042	12.37
369.25	12.37
369.459	12.25
369.668	12.36
369.877	11.99
370.085	11.91
370.294	12
370.503	12.24
370.711	12.12
370.92	12.04
371.129	12.07
371.337	11.9
371.546	11.8
371.754	11.9
371.963	11.65
372.171	12.06
372.38	12.12
372.589	11.87
372.797	11.93
373.006	11.92
373.214	11.82
373.423	11.76
373.631	11.87
373.84	11.93
374.048	11.78
374.256	11.9
374.465	11.7
374.673	11.62
374.882	11.8
375.09	11.73
375.298	11.58
375.507	11.43
375.715	11.32
375.923	11.41
376.132	11.32
376.34	11.58
376.548	11.69
376.757	11.77
376.965	11.71
377.173	11.67
377.381	11.46
377.59	11.49
377.798	11.59
378.006	11.57
378.214	11.14
378.423	10.97
378.631	10.9
378.839	10.71
379.047	10.6
379.255	10.47
379.463	10.11
379.671	10.1
379.879	10.3
380.088	10.16
380.296	10.03
380.504	10.15
380.712	10.47
380.92	10.49
381.128	10.36
381.336	10.38
381.544	10.51
381.752	10.74
381.96	10.7
382.168	10.93
382.376	11.11
382.584	11.38
382.791	11.26
382.999	11.31
383.207	11.08
383.415	11.52
383.623	11.54
383.831	11.41
384.039	11.42
384.247	11.56
384.454	11.16
384.662	10.91
384.87	10.66
385.078	10.85
385.285	10.77
385.493	10.85
385.701	10.47
385.909	10.39
386.116	10.35
386.324	10.33
386.532	10.32
386.739	10.16
386.947	10.19
387.155	10.16
387.362	10.07
387.57	10.09
387.778	10.03
387.985	10.23
388.193	10.26
388.4	10.32
388.608	10.06
388.816	10.16
389.023	10.37
389.231	10.45
389.438	10.53
389.646	10.59
389.853	10.41
390.061	10.4
390.268	10.29
390.475	10.28
390.683	10.22
390.89	10.33
391.098	10
391.305	9.89
391.512	9.92
391.72	9.86
391.927	9.66
392.135	9.69
392.342	9.7
392.549	9.81
392.756	9.76
392.964	9.61
393.171	9.59
393.378	9.68
393.586	9.67
393.793	9.51
394	9.56
394.207	9.65
394.414	9.4
394.622	9.52
394.829	9.27
395.036	9.23
395.243	9.71
395.45	9.57
395.657	9.74
395.864	9.96
396.072	10
396.279	10.1
396.486	9.96
396.693	10
396.9	9.78
397.107	9.98
397.314	9.94
397.521	9.58
397.728	9.64
397.935	9.71
398.142	9.41
398.349	9.36
398.556	9.18
398.763	9.07
398.97	9.35
399.177	9.32
399.383	9.43
399.59	9.49
399.797	9.31
400.004	9.33
400.211	9.16
400.418	9.16
400.625	8.94
400.831	8.86
401.038	9.23
401.245	8.72
401.452	8.77
401.658	8.58
401.865	8.59
402.072	8.65
402.279	8.58
402.485	8.62
402.692	8.52
402.899	8.64
403.105	8.69
403.312	8.52
403.519	8.7
403.725	8.66
403.932	8.7
404.138	8.72
404.345	8.84
404.552	8.88
404.758	8.65
404.965	8.68
405.171	8.59
405.378	8.5
405.584	8.49
405.791	8.54
405.997	8.59
406.204	8.56
406.41	8.52
406.617	8.47
406.823	8.31
407.029	8.21
407.236	8.36
407.442	8.48
407.649	8.62
407.855	8.56
408.061	8.66
408.268	8.46
408.474	8.52
408.68	8.3
408.887	8.36
409.093	8.43
409.299	8.67
409.505	8.71
409.712	8.63
409.918	8.5
410.124	8.49
410.33	8.37
410.537	8.39
410.743	8.31
410.949	8.48
411.155	8.34
411.361	8.42
411.567	8.34
411.773	8.14
411.98	8.03
412.186	7.96
412.392	7.94
412.598	7.93
412.804	8.07
413.01	7.98
413.216	7.92
413.422	7.85
413.628	7.65
413.834	7.61
414.04	7.66
414.246	7.76
414.452	7.85
414.658	7.88
414.864	7.83
415.07	7.72
415.275	7.75
415.481	7.84
415.687	7.83
415.893	7.88
416.099	7.83
416.305	7.83
416.511	7.85
416.716	7.86
416.922	7.81
417.128	7.76
417.334	7.76
417.539	7.66
417.745	7.54
417.951	7.54
418.157	7.59
418.362	7.64
418.568	7.65
418.774	7.57
418.979	7.54
419.185	7.62
419.391	7.67
419.596	7.7
419.802	7.71
420.008	7.7
420.213	8.3
420.419	8.21
420.624	8.2
420.83	8.1
421.035	8.09
421.241	8.09
421.446	8
421.652	7.94
421.857	7.85
422.063	7.83
422.268	7.8
422.474	7.25
422.679	7.28
422.885	7.28
423.09	7.32
423.295	7.38
423.501	7.29
423.706	7.25
423.911	7.26
424.117	7.29
424.322	7.32
424.527	7.26
424.733	7.26
424.938	7.27
425.143	7.22
425.349	7.23
425.554	7.2
425.759	7.2
425.964	7.29
426.169	7.3
426.375	7.23
426.58	7.27
426.785	7.38
426.99	7.27
427.195	7.24
427.4	7.25
427.605	7.16
427.811	7.09
428.016	7.07
428.221	7.08
428.426	7.14
428.631	7.27
428.836	7.17
429.041	7.15
429.246	7.03
429.451	7.05
429.656	7.18
429.861	7.24
430.066	7.24
430.271	7.4
430.476	7.28
430.681	7.17
430.886	7.13
431.09	7.19
431.295	7.17
431.5	7.23
431.705	7.19
431.91	7.05
432.115	7.02
432.32	7.05
432.524	7.05
432.729	6.96
432.934	7.08
433.139	7.08
433.343	7.02
433.548	7.09
433.753	7.15
433.958	7.29
434.162	7.38
434.367	7.36
434.572	7.47
434.776	7.45
434.981	7.54
435.186	7.47
435.39	7.34
435.595	7.39
435.799	7.34
436.004	7.49
436.209	7.33
436.413	7.21
436.618	7.44
436.822	7.29
437.027	7.21
437.231	7.22
437.436	7.23
437.64	7.31
437.845	7.31
438.049	7.31
438.253	7.16
438.458	7.2
438.662	7.13
438.867	6.97
439.071	6.92
439.275	7
439.48	7.03
439.684	6.97
439.888	6.96
440.093	6.98
440.297	6.95
440.501	6.97
440.706	6.97
440.91	7.11
441.114	7.19
441.318	7.22
441.523	7.18
441.727	7.16
441.931	7.17
442.135	7.13
442.339	7.05
442.543	7.08
442.748	7.02
442.952	6.99
443.156	6.95
443.36	6.9
443.564	6.88
443.768	6.83
443.972	6.88
444.176	6.85
444.38	6.9
444.584	6.93
444.788	6.91
444.992	6.98
445.196	6.98
445.4	6.96
445.604	6.92
445.808	6.98
446.012	7.03
446.216	6.96
446.42	6.96
446.624	6.84
446.828	6.84
447.032	6.78
447.235	6.67
447.439	6.68
447.643	6.68
447.847	6.73
448.051	6.68
448.254	6.59
448.458	6.69
448.662	6.67
448.866	6.86
449.069	6.88
449.273	6.99
449.477	7.06
449.681	7.06
449.884	6.96
450.088	6.96
450.292	7.1
450.495	7.16
450.699	7.02
450.902	7.11
451.106	7.12
451.31	7.04
451.513	7.06
451.717	7.02
451.92	7.07
452.124	7.07
452.327	7.07
452.531	6.96
452.734	6.94
452.938	7.04
453.141	7.02
453.345	6.87
453.548	6.84
453.752	6.79
453.955	6.81
454.158	6.73
454.362	6.78
454.565	6.75
454.769	6.58
454.972	6.6
455.175	6.52
455.379	6.5
455.582	6.64
455.785	6.69
455.988	6.64
456.192	6.64
456.395	6.74
456.598	6.71
456.801	6.69
457.005	6.8
457.208	6.88
457.411	6.84
457.614	6.8
457.817	6.69
458.021	6.64
458.224	6.76
458.427	6.78
458.63	6.8
458.833	6.84
459.036	6.87
459.239	6.88
459.442	6.86
459.645	6.85
459.848	6.93
460.051	6.99
460.254	7.06
460.457	7.04
460.66	7.04
460.863	7
461.066	6.93
461.269	6.85
461.472	6.89
461.675	6.82
461.878	7
462.081	6.98
462.284	6.95
462.486	7.05
462.689	7.05
462.892	7.05
463.095	7.09
463.298	7.12
463.5	7.26
463.703	7.33
463.906	7.22
464.109	7.12
464.311	7.1
464.514	7.06
464.717	6.98
464.92	6.86
465.122	6.82
465.325	6.7
465.528	6.89
465.73	6.9
465.933	6.93
466.135	7.12
466.338	7.22
466.541	7.22
466.743	7.36
466.946	7.45
467.148	7.6
467.351	7.57
467.553	7.64
467.756	7.48
467.958	7.37
468.161	7.23
468.363	7.1
468.566	7.04
468.768	7.13
468.971	7.07
469.173	6.91
469.375	6.7
469.578	6.74
469.78	6.81
469.983	6.83
470.185	6.95
470.387	7.03
470.59	7.17
470.792	7.19
470.994	7.08
471.196	6.99
471.399	7.15
471.601	7.26
471.803	7.27
472.005	7.3
472.208	7.3
472.41	7.22
472.612	7.25
472.814	7.16
473.016	7.04
473.218	7.07
473.421	7.15
473.623	7.12
473.825	7.12
474.027	7.13
474.229	7.01
474.431	7.06
474.633	7.17
474.835	7.18
475.037	7.24
475.239	7.37
475.441	7.34
475.643	7.42
475.845	7.38
476.047	7.35
476.249	7.33
476.451	7.36
476.653	7.3
476.855	7.31
477.057	7.23
477.258	7.23
477.46	7.21
477.662	7.24
477.864	7.16
478.066	7.19
478.268	7.14
478.469	7.2
478.671	7.16
478.873	7.15
479.075	7.1
479.276	7.06
479.478	7.03
479.68	6.94
479.882	6.91
480.083	6.86
480.285	6.8
480.487	6.85
480.688	6.84
480.89	6.87
481.091	6.87
481.293	6.82
481.495	6.84
481.696	6.79
481.898	6.79
482.099	6.78
482.301	6.78
482.502	6.79
482.704	6.77
482.905	6.76
483.107	6.78
483.308	6.8
483.51	6.81
483.711	6.84
483.913	6.84
484.114	6.9
484.315	6.94
484.517	6.97
484.718	6.97
484.92	6.99
485.121	6.99
485.322	6.98
485.524	6.95
485.725	6.99
485.926	6.94
486.127	6.97
486.329	6.93
486.53	6.87
486.731	6.88
486.932	6.89
487.134	6.89
487.335	6.95
487.536	6.95
487.737	6.92
487.938	6.9
488.139	6.94
488.341	6.95
488.542	6.92
488.743	6.99
488.944	6.98
489.145	7
489.346	7.06
489.547	7.03
489.748	6.97
489.949	6.98
490.15	6.98
490.351	6.99
490.552	7
490.753	7.08
490.954	7.11
491.155	7.17
491.356	7.23
491.557	7.2
491.758	7.23
491.959	7.36
492.159	7.46
492.36	7.52
492.561	7.53
492.762	7.59
492.963	7.62
493.164	7.57
493.364	7.66
493.565	7.68
493.766	7.74
493.967	7.76
494.167	7.74
494.368	7.72
494.569	7.7
494.769	7.69
494.97	7.71
495.171	7.68
495.371	7.67
495.572	7.52
495.773	7.52
495.973	7.5
496.174	7.44
496.375	7.46
496.575	7.44
496.776	7.47
496.976	7.48
497.177	7.45
497.377	7.45
497.578	7.49
497.778	7.56
497.979	7.5
498.179	7.57
498.38	7.63
498.58	7.6
498.78	7.75
498.981	7.77
499.181	7.86
499.382	7.91
499.582	7.98
499.782	8.09
499.983	8.08
500.183	8.16
500.383	8.17
500.584	8.22
500.784	8.3
500.984	8.17
501.184	8.09
501.385	8.16
501.585	8.21
501.785	8.2
501.985	8.14
502.185	8.15
502.386	8.16
502.586	8.19
502.786	8.18
502.986	8.11
503.186	8.2
503.386	8.27
503.586	8.19
503.786	8.17
503.987	8.19
504.187	8.23
504.387	8.3
504.587	8.36
504.787	8.45
504.987	8.49
505.187	8.54
505.387	8.51
505.587	8.46
505.786	8.48
505.986	8.5
506.186	8.46
506.386	8.51
506.586	8.58
506.786	8.61
506.986	8.56
507.186	8.57
507.386	8.48
507.585	8.5
507.785	8.57
507.985	8.62
508.185	8.56
508.384	8.67
508.584	8.65
508.784	8.6
508.984	8.55
509.183	8.57
509.383	8.6
509.583	8.72
509.782	8.81
509.982	8.88
510.182	8.88
510.381	9
510.581	8.97
510.781	9.02
510.98	9.09
511.18	9.15
511.379	9.21
511.579	9.15
511.778	9.15
511.978	9.17
512.177	9.16
512.377	9.28
512.576	9.27
512.776	9.34
512.975	9.47
513.175	9.54
513.374	9.57
513.573	9.52
513.773	9.64
513.972	9.69
514.172	9.73
514.371	9.76
514.57	9.73
514.77	9.77
514.969	9.83
515.168	9.79
515.367	9.78
515.567	9.81
515.766	9.84
515.965	9.8
516.164	9.86
516.364	9.86
516.563	9.95
516.762	9.96
516.961	9.97
517.16	9.92
517.359	9.93
517.559	9.94
517.758	9.95
517.957	9.97
518.156	10.04
518.355	10.1
518.554	10.13
518.753	10.15
518.952	10.14
519.151	10.19
519.35	10.29
519.549	10.25
519.748	10.25
519.947	10.32
520.146	10.39
520.345	10.4
520.544	10.4
520.743	10.54
520.942	10.57
521.141	10.73
521.339	10.71
521.538	10.74
521.737	10.91
521.936	11
522.135	11
522.333	11.04
522.532	11.09
522.731	11.05
522.93	10.96
523.129	10.96
523.327	10.87
523.526	10.88
523.725	10.86
523.923	10.75
524.122	10.8
524.321	10.75
524.519	10.74
524.718	10.76
524.917	10.78
525.115	10.82
525.314	10.86
525.512	10.95
525.711	11.02
525.909	11.05
526.108	11.07
526.306	11.09
526.505	11.17
526.703	11.18
526.902	11.19
527.1	11.25
527.299	11.25
527.497	11.24
527.696	11.23
527.894	11.25
528.092	11.27
528.291	11.34
528.489	11.37
528.688	11.4
528.886	11.46
529.084	11.48
529.283	11.47
529.481	11.51
529.679	11.62
529.877	11.7
530.076	11.77
530.274	11.79
530.472	11.81
530.67	11.8
530.869	11.78
531.067	11.76
531.265	11.79
531.463	11.87
531.661	11.9
531.859	11.88
532.057	11.88
532.255	11.89
532.454	11.91
532.652	11.93
532.85	11.99
533.048	12.06
533.246	12.12
533.444	12.16
533.642	12.12
533.84	12.2
534.038	12.26
534.236	12.26
534.434	12.24
534.632	12.31
534.83	12.36
535.027	12.43
535.225	12.38
535.423	12.33
535.621	12.38
535.819	12.48
536.017	12.48
536.215	12.54
536.412	12.64
536.61	12.67
536.808	12.67
537.006	12.69
537.203	12.63
537.401	12.77
537.599	12.87
537.797	12.94
537.994	12.92
538.192	12.98
538.39	12.94
538.587	12.9
538.785	12.97
538.983	13.05
539.18	13.04
539.378	13.07
539.575	13.02
539.773	13.07
539.97	13.09
540.168	13.13
540.366	13.13
540.563	13.15
540.761	13.22
540.958	13.24
541.155	13.26
541.353	13.3
541.55	13.39
541.748	13.46
541.945	13.46
542.143	13.49
542.34	13.49
542.537	13.56
542.735	13.63
542.932	13.68
543.129	13.79
543.327	13.88
543.524	13.97
543.721	13.9
543.919	13.98
544.116	14.04
544.313	14.06
544.51	14.12
544.708	14.16
544.905	14.21
545.102	14.21
545.299	14.21
545.496	14.23
545.693	14.24
545.891	14.25
546.088	14.24
546.285	14.27
546.482	14.33
546.679	14.45
546.876	14.44
547.073	14.46
547.27	14.47
547.467	14.51
547.664	14.48
547.861	14.53
548.058	14.7
548.255	14.81
548.452	14.9
548.649	14.99
548.846	14.89
549.043	15.02
549.24	14.98
549.437	14.97
549.633	15.1
549.83	15.13
550.027	15.14
550.224	15.2
550.421	15.32
550.618	15.43
550.814	15.44
551.011	15.47
551.208	15.48
551.405	15.53
551.601	15.59
551.798	15.61
551.995	15.67
552.191	15.72
552.388	15.73
552.585	15.74
552.781	15.71
552.978	15.8
553.175	15.92
553.371	15.97
553.568	16.05
553.764	16.2
553.961	16.11
554.157	16.14
554.354	16.3
554.55	16.3
554.747	16.3
554.943	16.29
555.14	16.22
555.336	16.32
555.533	16.35
555.729	16.33
555.926	16.29
556.122	16.42
556.318	16.52
556.515	16.4
556.711	16.55
556.907	16.62
557.104	16.82
557.3	16.83
557.496	16.82
557.693	16.94
557.889	17.15
558.085	17.24
558.281	17.32
558.478	17.32
558.674	17.47
558.87	17.48
559.066	17.47
559.262	17.43
559.459	17.54
559.655	17.62
559.851	17.54
560.047	17.57
560.243	17.62
560.439	17.63
560.635	17.71
560.831	17.68
561.027	17.71
561.223	17.76
561.419	17.81
561.615	17.8
561.811	17.81
562.007	17.77
562.203	17.67
562.399	17.64
562.595	17.64
562.791	17.69
562.987	17.84
563.183	17.86
563.379	17.87
563.575	17.96
563.771	18.07
563.966	18.1
564.162	18.23
564.358	18.36
564.554	18.41
564.75	18.55
564.945	18.55
565.141	18.49
565.337	18.5
565.533	18.55
565.728	18.56
565.924	18.63
566.12	18.77
566.315	18.84
566.511	18.82
566.707	18.8
566.902	18.74
567.098	18.67
567.293	18.67
567.489	18.85
567.684	18.84
567.88	18.93
568.076	18.91
568.271	18.78
568.467	18.78
568.662	18.86
568.858	18.99
569.053	19.04
569.248	19.23
569.444	19.21
569.639	19.25
569.835	19.37
570.03	19.29
570.225	19.28
570.421	19.37
570.616	19.36
570.812	19.33
571.007	19.26
571.202	19.27
571.397	19.2
571.593	19.38
571.788	19.44
571.983	19.53
572.178	19.55
572.374	19.7
572.569	19.69
572.764	19.81
572.959	19.95
573.154	20.19
573.35	20.32
573.545	20.36
573.74	20.39
573.935	20.27
574.13	20.32
574.325	20.41
574.52	20.35
574.715	20.54
574.91	20.53
575.105	20.52
575.3	20.42
575.495	20.4
575.69	20.61
575.885	20.66
576.08	20.74
576.275	20.64
576.47	20.85
576.665	20.99
576.86	20.94
577.055	20.98
577.25	21.11
577.444	21.2
577.639	21.19
577.834	21.14
578.029	21.19
578.224	21.3
578.418	21.4
578.613	21.32
578.808	21.3
579.003	21.33
579.197	21.33
579.392	21.29
579.587	21.28
579.781	21.43
579.976	21.43
580.171	21.36
580.365	21.3
580.56	21.37
580.755	21.33
580.949	21.43
581.144	21.4
581.338	21.53
581.533	21.63
581.727	21.56
581.922	21.43
582.116	21.51
582.311	21.6
582.505	21.7
582.7	21.74
582.894	21.86
583.089	21.84
583.283	21.96
583.478	21.9
583.672	21.87
583.866	22.01
584.061	22.04
584.255	21.93
584.449	21.94
584.644	21.97
584.838	22.13
585.032	22.19
585.226	22.17
585.421	22.1
585.615	22.1
585.809	22.2
586.003	22.22
586.198	22.34
586.392	22.52
586.586	22.5
586.78	22.46
586.974	22.29
587.168	22.22
587.363	22.27
587.557	22.26
587.751	22.34
587.945	22.45
588.139	22.5
588.333	22.62
588.527	22.61
588.721	22.62
588.915	22.69
589.109	22.81
589.303	22.9
589.497	23.02
589.691	23.06
589.885	23.11
590.079	22.92
590.273	22.84
590.466	22.68
590.66	22.69
590.854	22.79
591.048	22.88
591.242	22.89
591.436	22.97
591.629	22.88
591.823	22.9
592.017	22.99
592.211	23.11
592.404	23.2
592.598	23.13
592.792	23.06
592.986	23.05
593.179	23.02
593.373	22.98
593.567	22.92
593.76	22.99
593.954	23.02
594.147	22.99
594.341	23.04
594.535	23.12
594.728	23.19
594.922	23.24
595.115	23.33
595.309	23.19
595.502	23.19
595.696	23.09
595.889	22.98
596.083	23.1
596.276	23.06
596.47	23.05
596.663	23.06
596.856	23.11
597.05	23.13
597.243	23.21
597.437	23.39
597.63	23.46
597.823	23.64
598.017	23.71
598.21	23.55
598.403	23.68
598.596	23.63
598.79	23.62
598.983	23.69
599.176	23.77
599.369	23.81
599.563	23.81
599.756	23.9
599.949	23.74
600.142	23.8
600.335	23.95
600.528	23.81
600.722	23.78
600.915	23.83
601.108	23.73
601.301	23.88
601.494	23.72
601.687	23.66
601.88	23.51
602.073	23.64
602.266	23.72
602.459	23.63
602.652	23.76
602.845	23.74
603.038	23.73
603.231	23.81
603.424	23.8
603.617	23.77
603.809	23.89
604.002	23.86
604.195	23.88
604.388	23.89
604.581	24.02
604.774	23.97
604.966	24.02
605.159	23.98
605.352	24.03
605.545	23.89
605.737	24.02
605.93	24.03
606.123	24.2
606.316	24.23
606.508	24.21
606.701	24.12
606.894	24.28
607.086	24.42
607.279	24.55
607.471	24.59
607.664	24.68
607.857	24.63
608.049	24.65
608.242	24.65
608.434	24.64
608.627	24.7
608.819	24.72
609.012	24.57
609.204	24.7
609.397	24.67
609.589	24.62
609.782	24.56
609.974	24.56
610.166	24.52
610.359	24.45
610.551	24.34
610.743	24.33
610.936	24.39
611.128	24.52
611.32	24.26
611.513	24.24
611.705	24.23
611.897	24.29
612.09	24.36
612.282	24.22
612.474	24.37
612.666	24.41
612.858	24.4
613.051	24.47
613.243	24.36
613.435	24.59
613.627	24.6
613.819	24.67
614.011	24.71
614.203	24.61
614.395	24.83
614.588	24.79
614.78	24.95
614.972	24.92
615.164	24.89
615.356	24.98
615.548	24.98
615.74	24.9
615.932	24.89
616.124	24.85
616.315	24.99
616.507	25.02
616.699	25.1
616.891	24.94
617.083	25.14
617.275	25.19
617.467	25.14
617.659	25.03
617.85	25.23
618.042	25.48
618.234	25.48
618.426	25.39
618.618	25.3
618.809	25.31
619.001	25.52
619.193	25.27
619.384	25.31
619.576	25.42
619.768	25.41
619.959	25.34
620.151	25.1
620.343	25.08
620.534	25.05
620.726	25.11
620.917	25.01
621.109	25.02
621.301	24.88
621.492	24.62
621.684	24.56
621.875	24.58
622.067	24.48
622.258	24.56
622.45	24.68
622.641	24.77
622.832	24.87
623.024	24.96
623.215	24.75
623.407	24.92
623.598	25.07
623.789	25.06
623.981	25.17
624.172	25.23
624.363	25.16
624.555	25.02
624.746	24.98
624.937	25
625.129	24.89
625.32	25.01
625.511	24.92
625.702	24.97
625.893	25.12
626.085	25.18
626.276	25.17
626.467	25.16
626.658	25.16
626.849	25.39
627.04	25.28
627.231	25.41
627.422	25.3
627.614	25.36
627.805	25.39
627.996	25.41
628.187	25.29
628.378	25.42
628.569	25.5
628.76	25.68
628.951	25.49
629.142	25.49
629.332	25.44
629.523	25.55
629.714	25.57
629.905	25.5
630.096	25.33
630.287	25.32
630.478	25.28
630.669	25.19
630.859	25.36
631.05	25.4
631.241	25.4
631.432	25.36
631.623	25.39
631.813	25.5
632.004	25.42
632.195	25.45
632.385	25.4
632.576	25.51
632.767	25.68
632.957	25.25
633.148	25.15
633.339	25.16
633.529	25.32
633.72	25.36
633.91	25.29
634.101	25.38
634.292	25.34
634.482	25.41
634.673	25.37
634.863	25.38
635.054	25.53
635.244	25.6
635.435	25.62
635.625	25.44
635.815	25.43
636.006	25.47
636.196	25.46
636.387	25.5
636.577	25.48
636.767	25.32
636.958	25.29
637.148	25.23
637.338	25.5
637.529	25.49
637.719	25.62
637.909	25.61
638.099	25.68
638.29	25.57
638.48	25.66
638.67	25.73
638.86	25.78
639.05	25.77
639.241	26.01
639.431	25.73
639.621	25.62
639.811	25.56
640.001	25.63
640.191	25.63
640.381	25.92
640.571	25.78
640.761	25.91
640.951	25.99
641.141	25.9
641.331	25.75
641.521	25.92
641.711	26.12
641.901	26.16
642.091	26.23
642.281	26.05
642.471	26.19
642.661	26.38
642.851	26.19
643.041	26.28
643.231	26.54
643.42	26.63
643.61	26.55
643.8	26.32
643.99	26.23
644.18	25.98
644.369	26.13
644.559	25.94
644.749	25.9
644.939	25.75
645.128	25.69
645.318	25.54
645.508	25.48
645.697	25.23
645.887	25.59
646.076	25.44
646.266	25.44
646.456	25.52
646.645	25.3
646.835	25.27
647.024	25.49
647.214	25.47
647.403	25.35
647.593	25.46
647.782	25.69
647.972	25.48
648.161	25.63
648.351	25.85
648.54	25.81
648.73	26
648.919	26.09
649.108	25.97
649.298	26.04
649.487	26.33
649.677	26.23
649.866	26.43
650.055	26.62
650.244	26.54
650.434	26.44
650.623	26.42
650.812	26.4
651.002	26.37
651.191	26.69
651.38	26.77
651.569	26.87
651.758	26.87
651.947	26.76
652.137	26.86
652.326	26.97
652.515	26.97
652.704	26.91
652.893	27.14
653.082	27.06
653.271	26.76
653.46	26.75
653.649	26.4
653.838	26.47
654.027	26.34
654.216	26.06
654.405	26.13
654.594	26.45
654.783	26.56
654.972	26.4
655.161	26.31
655.35	26.24
655.539	26.31
655.728	26.33
655.916	26.15
656.105	26.21
656.294	26.15
656.483	26.27
656.672	26.15
656.86	26.29
657.049	26.4
657.238	26.5
657.427	26.39
657.615	26.45
657.804	26.46
657.993	26.53
658.181	26.46
658.37	26.56
658.559	26.47
658.747	26.48
658.936	26.21
659.125	25.93
659.313	25.95
659.502	26.15
659.69	25.85
659.879	25.88
660.067	26.07
660.256	26.12
660.444	26.3
660.633	26.42
660.821	26.24
661.01	26.28
661.198	26.46
661.387	26.64
661.575	26.64
661.763	26.77
661.952	26.75
662.14	26.78
662.328	26.9
662.517	26.62
662.705	26.32
662.893	26.6
663.082	26.59
663.27	26.47
663.458	26.29
663.646	26.25
663.834	26.25
664.023	26.18
664.211	26.02
664.399	25.9
664.587	25.97
664.775	25.95
664.963	25.87
665.152	25.94
665.34	26.32
665.528	26.36
665.716	26.41
665.904	26.28
666.092	26.39
666.28	26.29
666.468	26.1
666.656	26.31
666.844	26.62
667.032	26.56
667.22	26.76
667.408	26.6
667.596	26.64
667.784	26.6
667.971	26.56
668.159	26.64
668.347	26.54
668.535	26.89
668.723	26.76
668.911	26.7
669.098	26.7
669.286	26.59
669.474	26.46
669.662	26.28
669.849	26.4
670.037	26.37
670.225	26.29
670.413	26.38
670.6	26.39
670.788	26.3
670.976	26.18
671.163	26.16
671.351	26.16
671.538	26.02
671.726	25.94
671.913	25.89
672.101	26.27
672.289	26.29
672.476	26.32
672.664	26.19
672.851	26.35
673.039	26.45
673.226	26.39
673.413	26.51
673.601	26.93
673.788	27.13
673.976	27.03
674.163	26.96
674.35	26.9
674.538	27.01
674.725	27.09
674.912	27.29
675.1	27.19
675.287	27.3
675.474	27.35
675.662	27.1
675.849	27.02
676.036	27.08
676.223	26.89
676.411	27
676.598	26.76
676.785	26.67
676.972	26.37
677.159	26.53
677.346	26.59
677.533	26.38
677.721	26.42
677.908	26.68
678.095	26.74
678.282	26.77
678.469	26.92
678.656	27.27
678.843	27.23
679.03	27.37
679.217	27.37
679.404	27.3
679.591	27.18
679.778	27.17
679.964	26.9
680.151	26.84
680.338	26.9
680.525	26.73
680.712	26.49
680.899	26.67
681.086	26.53
681.272	26.42
681.459	26.62
681.646	27.04
681.833	27.14
682.02	27.08
682.206	27.19
682.393	27.55
682.58	27.38
682.766	27.42
682.953	27.28
683.14	27.23
683.326	27.25
683.513	27.01
683.7	26.7
683.886	26.72
684.073	26.89
684.259	26.79
684.446	26.47
684.632	26.62
684.819	26.58
685.005	26.55
685.192	26.7
685.378	26.69
685.565	26.54
685.751	26.69
685.938	26.71
686.124	26.55
686.31	26.48
686.497	26.44
686.683	26.46
686.87	26.56
687.056	26.63
687.242	26.36
687.429	26.24
687.615	26.49
687.801	26.46
687.987	26.49
688.174	26.78
688.36	26.9
688.546	26.9
688.732	26.95
688.918	26.8
689.105	26.76
689.291	27.34
689.477	27.3
689.663	27.17
689.849	27.06
690.035	26.94
690.221	26.76
690.407	26.65
690.593	26.44
690.779	26.38
690.965	26.68
691.151	26.75
691.337	26.5
691.523	26.76
691.709	26.69
691.895	26.96
692.081	26.99
692.267	27.11
692.453	27.2
692.639	27.49
692.825	27.6
693.011	27.5
693.196	27.89
693.382	27.67
693.568	27.43
693.754	27.77
693.94	27.43
694.125	27.36
694.311	27.31
694.497	27.26
694.682	26.88
694.868	26.49
695.054	26.41
695.239	25.99
695.425	26.21
695.611	26.1
695.796	26.13
695.982	26.35
696.168	26.62
696.353	26.69
696.539	26.85
696.724	26.99
696.91	27.38
697.095	27.3
697.281	27.23
697.466	27.13
697.652	27.25
697.837	27.18
698.023	27.24
698.208	27.3
698.393	27.15
698.579	27.3
698.764	27.39
698.949	27.34
699.135	27.47
699.32	27.39
699.505	27.81
699.691	28.02
699.876	27.94
700.061	28.05
700.246	27.85
700.432	28.04
700.617	28.16
700.802	27.75
700.987	27.41
701.172	27.42
701.358	27.48
701.543	26.88
701.728	26.55
701.913	26.35
702.098	26.05
702.283	25.94
702.468	26.12
702.653	25.38
702.838	26.07
703.023	26.19
703.208	26.24
703.393	26.65
703.578	26.55
703.763	26.74
703.948	27.12
704.133	27.08
704.318	27.01
704.503	27.02
704.688	27.19
704.873	27.05
705.057	26.96
705.242	26.92
705.427	26.98
705.612	27.17
705.797	26.72
705.981	26.45
706.166	26.47
706.351	26.36
706.536	26.03
706.72	26.29
706.905	26.2
707.09	26.82
707.274	26.97
707.459	26.61
707.644	26.66
707.828	27.18
708.013	27.73
708.197	28.08
708.382	28.3
708.567	28.43
708.751	28.64
708.936	28.75
709.12	28.4
709.305	28.19
709.489	28.01
709.673	27.65
709.858	27.46
710.042	27.2
710.227	27.34
710.411	27.25
710.596	27.36
710.78	27.14
710.964	27.17
711.149	27.13
711.333	27.16
711.517	27.03
711.702	27.59
711.886	27.66
712.07	27.47
712.254	27.14
712.438	27.15
712.623	27.12
712.807	27.29
712.991	27.56
713.175	27.8
713.359	27.61
713.544	27.84
713.728	27.56
713.912	27.46
714.096	27.49
714.28	27.52
714.464	27.58
714.648	27.36
714.832	27.07
715.016	26.61
715.2	26.29
715.384	26.72
715.568	26.99
715.752	27.01
715.936	27.17
716.12	27.24
716.304	27.31
716.488	27.31
716.671	27.56
716.855	27.83
717.039	28.02
717.223	28.35
717.407	28.05
717.59	27.94
717.774	27.77
717.958	27.95
718.142	28.01
718.325	27.7
718.509	27.44
718.693	27.09
718.877	26.79
719.06	26.66
719.244	26.44
719.428	26.85
719.611	26.4
719.795	26.93
719.978	26.66
720.162	26.58
720.345	26.83
720.529	27.17
720.713	27.78
720.896	27.95
721.08	28.19
721.263	28.52
721.446	28.13
721.63	28.52
721.813	28.18
721.997	28.16
722.18	28.3
722.364	28.38
722.547	28.6
722.73	28.15
722.914	28.1
723.097	28.2
723.28	28.15
723.464	28.32
723.647	28.57
723.83	28.87
724.013	29.1
724.197	29.38
724.38	29.07
724.563	28.95
724.746	29.08
724.929	29.06
725.112	29.13
725.296	28.95
725.479	28.43
725.662	27.78
725.845	27.18
726.028	27.12
726.211	27.08
726.394	27.1
726.577	26.78
726.76	26.77
726.943	26.68
727.126	26.52
727.309	26.45
727.492	26.9
727.675	27.61
727.858	27.79
728.041	27.85
728.224	27.71
728.407	27.86
728.589	28.36
728.772	28.43
728.955	28.37
729.138	28.03
729.321	27.91
729.503	27.49
729.686	27.3
729.869	27.45
730.052	27.36
730.234	27.03
730.417	26.52
730.6	26.34
730.782	26.17
730.965	26.43
731.148	26.66
731.33	26.6
731.513	26.78
731.695	26.39
731.878	26.11
732.061	26.12
732.243	26.24
732.426	26.66
732.608	26.49
732.791	26.44
732.973	26.19
733.156	26.14
733.338	26.28
733.52	26.48
733.703	26.7
733.885	26.85
734.068	26.81
734.25	26.83
734.432	26.33
734.615	26.56
734.797	27.18
734.979	27.53
735.162	28.05
735.344	27.99
735.526	28.02
735.708	28.34
735.891	28.55
736.073	28.16
736.255	27.7
736.437	28.21
736.619	27.95
736.802	27.71
736.984	27.12
737.166	26.09
737.348	26.5
737.53	26.47
737.712	26.49
737.894	26.11
738.076	26.86
738.258	27.26
738.44	27.02
738.622	27
738.804	26.71
738.986	26.94
739.168	27.45
739.35	27.67
739.532	27.32
739.714	26.7
739.896	26.95
740.078	26.61
740.259	27.07
740.441	26.98
740.623	27.24
740.805	27.35
740.987	27.21
741.168	27.36
741.35	26.84
741.532	27.19
741.714	27.71
741.895	28.11
742.077	27.99
742.259	27.35
742.44	27.53
742.622	27.63
742.804	27.47
742.985	28.38
743.167	28.27
743.348	27.86
743.53	28.61
743.711	28.49
743.893	27.72
744.075	28.38
744.256	28.96
744.438	28.98
744.619	28.89
744.8	28.81
744.982	28.1
745.163	27.94
745.345	28.61
745.526	27.7
745.707	27.97
745.889	28.38
746.07	27.95
746.252	27.81
746.433	28.14
746.614	27.91
746.795	28.2
746.977	28.54
747.158	29.04
747.339	28.83
747.52	28.77
747.702	28.26
747.883	28.78
748.064	28.49
748.245	27.86
748.426	27.6
748.607	27.55
748.788	27.7
748.97	27.52
749.151	26.93
749.332	27.47
749.513	27.56
749.694	28.34
749.875	27.58
750.056	27.73
750.237	28.12
750.418	27.98
750.599	28.1
750.78	27.39
750.96	27.47
751.141	27.78
751.322	27.71
751.503	27.57
751.684	27.16
751.865	27.38
752.046	27.67
752.226	27.97
752.407	28
752.588	27.94
752.769	28.39
752.949	28.6
753.13	28.48
753.311	27.95
753.492	29.07
753.672	29.11
753.853	29.4
754.034	29.1
754.214	28.66
754.395	28.24
754.575	28.35
754.756	28.57
754.937	28.34
755.117	28.63
755.298	28.78
755.478	27.43
755.659	26.48
755.839	26.22
756.02	26.08
756.2	26.37
756.381	26.76
756.561	27.48
756.741	27.07
756.922	27.21
757.102	26.58
757.283	26.42
757.463	26.59
757.643	27.66
757.823	27.36
758.004	26.93
758.184	26.46
758.364	26.32
758.545	25.4
758.725	25.58
758.905	24.89
759.085	25.23
759.265	25.26
759.446	25.99
759.626	25.45
759.806	26.12
759.986	26.99
760.166	27.35
760.346	27.45
760.526	27.55
760.706	27.44
760.886	28.24
761.066	28.18
761.246	27.43
761.426	26.98
761.606	27.36
761.786	26.94
761.966	26.4
762.146	26.7
762.326	26.51
762.506	26.75
762.686	26.94
762.866	26.83
763.046	26.65
763.225	26.89
763.405	27.11
763.585	27.04
763.765	26.88
763.945	27.4
764.124	27.68
764.304	28.02
764.484	27.92
764.664	28.14
764.843	28.12
765.023	28.65
765.203	28.68
765.382	28.14
765.562	28.5
765.741	28.82
765.921	28.64
766.101	28.12
766.28	28.22
766.46	28.03
766.639	27.68
766.819	28
766.998	27.37
767.178	27.83
767.357	28.09
767.537	27.22
767.716	27.01
767.896	27.17
768.075	27.4
768.254	27.62
768.434	27.84
768.613	27.49
768.792	26.49
768.972	26.86
769.151	27.23
769.33	27.26
769.51	27.98
769.689	27.98
769.868	28.05
770.047	27.69
770.226	27.35
770.406	27.05
770.585	27.97
770.764	28.18
770.943	27.98
771.122	27.72
771.301	27.9
771.48	27.13
771.66	26.28
771.839	25.1
772.018	25.42
772.197	26.29
772.376	26.88
772.555	26.41
772.734	26.93
772.913	27.43
773.092	26.85
773.271	26.22
773.449	26.35
773.628	27.6
773.807	28.29
773.986	28.27
774.165	28.62
774.344	28.5
774.523	28.96
774.701	28.96
774.88	28.36
775.059	28.48
775.238	29.16
775.417	29.56
775.595	28.63
775.774	28.13
775.953	27.89
776.131	26.5
776.31	26.2
776.489	25.28
776.667	25.78
776.846	26.12
777.025	26.03
777.203	25.63
777.382	25.75
777.56	26.38
777.739	27.01
777.917	27.4
778.096	27.05
778.274	27.64
778.453	28.07
778.631	27.14
778.81	26.76
778.988	27.41
779.166	27.96
779.345	28.23
779.523	28.57
779.702	28.11
779.88	28.1
780.058	29.13
780.237	29.05
780.415	29.86
780.593	30.09
780.771	30.98
780.95	31.35
781.128	31.75
781.306	30.53
781.484	30.74
781.662	31.72
781.841	31.73
782.019	30.23
782.197	29.43
782.375	28.47
782.553	28.8
782.731	28.28
782.909	27.65
783.087	26.55
783.265	27.72
783.443	27.92
783.621	27.18
783.799	26.5
783.977	27.09
784.155	26.9
784.333	27.19
784.511	26.95
784.689	27
784.867	26.05
785.045	26.16
785.223	25.93
785.4	25.26
785.578	25.53
785.756	26.05
785.934	26.56
786.112	27.47
786.289	26.39
786.467	25.68
786.645	25.12
786.823	25.38
787	25.04
787.178	24.54
787.356	24.93
787.533	24.81
787.711	24.17
787.889	23.42
788.066	23.1
788.244	23.6
788.421	24.05
788.599	24.07
788.776	24.21
788.954	24.2
789.131	23.91
789.309	23.91
789.486	24.54
789.664	24.92
789.841	25.63
790.019	24.47
790.196	25.07
790.373	24.87
790.551	24.51
790.728	24.05
790.906	24.63
791.083	25.68
791.26	24.6
791.437	23.72
791.615	24.08
791.792	24.67
791.969	25.98
792.146	25.32
792.324	24.78
792.501	26.24
792.678	27.81
792.855	27.2
793.032	26.96
793.209	28.99
793.387	29.1
793.564	28.54
793.741	28.45
793.918	29.03
794.095	29.17
794.272	29.94
794.449	28.87
794.626	28.3
794.803	28.66
794.98	28.85
795.157	27.11
795.334	26.96
795.511	27.55
795.688	26.29
795.864	25.2
796.041	25.72
796.218	25.38
796.395	26.19
796.572	26.75
796.749	27.35
796.925	27.36
797.102	27.76
797.279	28.17
797.456	27.66
797.632	29.4
797.809	29.89
797.986	29.64
798.162	30.37
798.339	29.42
798.516	28.75
798.692	27.34
798.869	26.17
799.046	26.8
799.222	26.83
799.399	26.91
799.575	26.1
799.752	26.11
799.928	25.19
800.105	25.42
800.281	26.12
800.458	26.11
800.634	27.41
800.811	27.91
800.987	27.94
801.163	28.49
801.34	28.79
801.516	28.47
801.692	28.07
801.869	29.4
802.045	28.07
802.221	28.23
802.398	28.34
802.574	28.17
802.75	28.61
802.926	28.68
803.103	27.14
803.279	26.14
803.455	25.96
803.631	27.17
803.807	26.45
803.983	26.72
804.16	26.04
804.336	26.62
804.512	26.97
804.688	28.34
804.864	27.69
805.04	28.69
805.216	29.88
805.392	29.82
805.568	28.23
805.744	29.29
805.92	29.96
806.096	30.42
806.272	29.2
806.448	28.01
806.623	27.16
806.799	27.44
806.975	25.93
807.151	25.4
807.327	25.71
807.503	26.13
807.678	23.9
807.854	24.4
808.03	24.22
808.206	24.52
808.381	24.51
808.557	23.94
808.733	22.8
808.908	23.25
809.084	23.85
809.26	23.47
809.435	23.09
809.611	24.17
809.787	24.06
809.962	24.25
810.138	23.26
810.313	24.63
810.489	25.99
810.664	26.62
810.84	27.88
811.015	27.26
811.191	27.76
811.366	28.81
811.542	30.14
811.717	29.68
811.892	29.97
812.068	31.96
812.243	32.06
812.419	32.4
812.594	32.37
812.769	32.27
812.944	32.98
813.12	33.36
813.295	33.3
813.47	32.25
813.645	32.5
813.821	31.13
813.996	30.69
814.171	29.77
814.346	27.92
814.521	28.59
814.697	29.44
814.872	29.16
815.047	28.77
815.222	27.69
815.397	27.5
815.572	26.87
815.747	28.44
815.922	28.63
816.097	29.39
816.272	28.51
816.447	28.15
816.622	27.35
816.797	28.21
816.972	27.83
817.147	29.18
817.322	29.64
817.496	29.4
817.671	29.67
817.846	29.11
818.021	27.26
818.196	28.15
818.371	27.82
818.545	27.62
818.72	25.84
818.895	25.84
819.069	25.45
819.244	25.59
819.419	25.6
819.594	24.55
819.768	24.41
819.943	25.46
820.117	24.63
820.292	25
820.467	24.7
820.641	25.33
820.816	25.43
820.99	25.22
821.165	24.94
821.339	25.27
821.514	25.69
821.688	25.56
821.863	25.46
822.037	25.54
822.212	25.38
822.386	25.47
822.56	25.38
822.735	25.51
822.909	25.58
823.084	25.68
823.258	25.88
823.432	25.59
823.606	25.75
823.781	25.82
823.955	25.74
824.129	26.2
824.303	26.66
824.478	26.58
824.652	26.51
824.826	26.42
825	26.43
825.174	25.84
825.348	26.36
825.523	26.39
825.697	26.45
825.871	26.97
826.045	26.38
826.219	25.88
826.393	26.29
826.567	26.16
826.741	26.01
826.915	26.41
827.089	26.33
827.263	25.78
827.437	25.45
827.611	25.19
827.784	25.36
827.958	25.22
828.132	25.48
828.306	25.29
828.48	25.12
828.654	26
828.827	25.18
829.001	25.14
829.175	25.51
829.349	26.32
829.522	27.06
829.696	27.2
829.87	27.45
830.044	26.66
830.217	26.9
830.391	27.58
830.565	27.11
830.738	27.78
830.912	28.24
831.085	28.35
831.259	28.88
831.432	27.86
831.606	27.73
831.779	27.6
831.953	27.64
832.126	27.14
832.3	25.95
832.473	24.78
832.647	25.66
832.82	26.89
832.994	26.51
833.167	25.32
833.34	25.71
833.514	25.64
833.687	25.52
833.86	26.1
834.034	26.59
834.207	26.66
834.38	27.41
834.553	26.83
834.727	25.75
834.9	26.22
835.073	26.59
835.246	26.35
835.419	25.78
835.593	26.49
835.766	25.84
835.939	25.45
836.112	26.23
836.285	26.7
836.458	25.94
836.631	25.53
836.804	24.49
836.977	24.09
837.15	24.37
837.323	25.64
837.496	24.78
837.669	24.16
837.842	23.76
838.015	23.49
838.188	22.71
838.361	24.2
838.533	25.02
838.706	26.79
838.879	28.65
839.052	28.62
839.225	29.67
839.398	30.45
839.57	29.95
839.743	29.14
839.916	30.1
840.088	30.65
840.261	31.14
840.434	32.25
840.607	32.16
840.779	30.8
840.952	31.74
841.124	28.8
841.297	29.05
841.47	28.83
841.642	31.79
841.815	32.83
841.987	33.46
842.16	32.62
842.332	30.93
842.505	29.64
842.677	28.56
842.85	29.25
843.022	31.56
843.194	30
843.367	32.33
843.539	29.83
843.712	28.58
843.884	28.66
844.056	27.59
844.229	28.91
844.401	28.07
844.573	28.06
844.745	27.04
844.918	23.02
845.09	25.52
845.262	27.34
845.434	28.15
845.606	27.22
845.779	25.06
845.951	27.27
846.123	27.99
846.295	29.15
846.467	31.85
846.639	31.01
846.811	33.28
846.983	33.11
847.155	27.74
847.327	26.55
847.499	24.87
847.671	28.89
847.843	25.61
848.015	23.37
848.187	20.38
848.359	18.39
848.531	16.91
848.703	13.56
848.875	12.45
849.047	19.76
849.218	22.54
849.39	24.45
849.562	19.27
849.734	21.61
849.905	21.6
850.077	26.16
850.249	25.27
850.421	27.44
850.592	33.75
850.764	31.27
850.936	29.29
851.107	30.1
851.279	32.69
851.451	37.04
851.622	36.81
851.794	34.92
851.965	35.52
852.137	37.46
852.308	34.41
852.48	32.24
852.651	35.32
852.823	37.52
852.994	35.95
853.166	29.77
853.337	27.03
853.509	27.63
853.68	27.32
853.851	24.09
854.023	26.27
854.194	30.95
854.365	28.43
854.537	28.15
854.708	24.46
854.879	24.39
855.05	26.57
855.222	20.99
855.393	20.99
855.564	24.5
855.735	20.12
855.906	20.04
856.078	16.93
856.249	17.92
856.42	18.55
856.591	22.43
856.762	21.83
856.933	24.75
857.104	31.34
857.275	32.07
857.446	34.28
857.617	38.97
857.788	35.07
857.959	36.47
858.13	35.45
858.301	34.17
858.472	32.87
858.643	32.14
858.814	30.39
858.985	27.93
859.155	22.55
859.326	18.57
859.497	16.75
859.668	21.95
859.839	18.11
860.009	15.5
860.18	16.96
860.351	16.32
860.522	17.31
860.692	19.23
860.863	18.07
861.034	20.43
861.204	19.76
861.375	22.17
861.546	19.47
861.716	22.73
861.887	26.18
862.057	23.58
862.228	25.29
862.398	28.04
862.569	26.91
862.739	34.35
862.91	40.13
863.08	41.26
863.251	36.4
863.421	36.71
863.592	35.96
863.762	36.29
863.932	37.32
864.103	34.99
864.273	33.16
864.443	32.44
864.614	27.5
864.784	21.9
864.954	20.74
865.125	23.55
865.295	27.18
865.465	27.64
865.635	29.02
865.805	30.06
865.976	31.91
866.146	32.72
866.316	31.78
866.486	29.93
866.656	33.14
866.826	34.38
866.996	36.22
867.166	30.75
867.336	29.21
867.506	27.32
867.676	22.87
867.846	20.65
868.016	22.3
868.186	21.21
868.356	23.65
868.526	26.35
868.696	23.78
868.866	25.93
869.036	28.05
869.206	28.53
869.376	30.04
869.545	36.89
869.715	40.25
869.885	36.46
870.055	41.02
870.224	39.5
870.394	38.4
870.564	39.76
870.734	35.23
870.903	35.44
871.073	34.4
871.243	36.69
871.412	31.5
871.582	28.52
871.751	27.03
871.921	27
872.091	25.39
872.26	19.96
872.43	20.93
872.599	26.51
872.769	26.3
872.938	24.91
873.108	24.71
873.277	26.37
873.446	28.16
873.616	33.12
873.785	29.45
873.955	35.21
874.124	38.61
874.293	37.46
874.463	35.82
874.632	35.55
874.801	39.33
874.971	37.44
875.14	35.27
875.309	36.1
875.478	32.28
875.647	34.6
875.817	29.6
875.986	27.93
876.155	30.9
876.324	29.78
876.493	31.75
876.662	32.54
876.831	33.54
877	34.99
877.17	32.05
877.339	31.4
877.508	30.72
877.677	30.81
877.846	31.42
878.015	31.58
878.184	31.02
878.352	29.04
878.521	25.32
878.69	26.31
878.859	28.22
879.028	31.68
879.197	30.03
879.366	27.02
879.534	26.72
879.703	27.42
879.872	24.74
880.041	25.58
880.21	25.12
880.378	25.83
880.547	25.21
880.716	24.6
880.884	24.76
881.053	25.37
881.222	26.23
881.39	26.5
881.559	25.83
881.727	26.39
881.896	26.5
882.065	26.38
882.233	25.93
882.402	25.72
882.57	25.73
882.739	25.23
882.907	25.28
883.076	25.19
883.244	24.93
883.412	25.04
883.581	24.68
883.749	24.35
883.918	25.18
884.086	25.53
884.254	25.66
884.423	25.57
884.591	26.09
884.759	26.6
884.927	27.31
885.096	27.77
885.264	28.15
885.432	28.39
885.6	27.23
885.769	26.46
885.937	26.18
886.105	25.27
886.273	27.12
886.441	27.29
886.609	25.12
886.777	24.01
886.945	23.45
887.113	24.16
887.281	24.94
887.449	27.03
887.617	23.38
887.785	25.17
887.953	24.63
888.121	22.24
888.289	20.78
888.457	21.32
888.625	19.08
888.793	18.86
888.961	20.17
889.129	22.07
889.296	27.05
889.464	32.86
889.632	32.64
889.8	36.1
889.967	36.64
890.135	38.83
