Data from 2938526_Reflection_1.txt Node
Date: Tue Jun 16 22:03:33 EDT 2015
User: robert
Spectrometer: USB4E03002
Autoset integration time: false
Trigger mode: 4
Integration Time (sec): 1.000000E-1
Scans to average: 10
Electric dark correction enabled: true
Nonlinearity correction enabled: false
Boxcar width: 5
Stray light correction enabled: false
XAxis mode: Wavelengths
Stop averaging: false
Number of Pixels in Spectrum: 3648
>>>>>Begin Spectral Data<<<<<
177.575	-94.36
177.794	-110.32
178.014	-40.99
178.233	-38.34
178.452	-38.29
178.672	-0.35
178.891	49.16
179.11	742.15
179.33	1976.84
179.549	516.09
179.768	231.52
179.987	231.01
180.207	379.85
180.426	166.6
180.645	131.78
180.864	151.12
181.084	134.83
181.303	116.52
181.522	95.54
181.741	90.04
181.96	89.77
182.179	110.03
182.398	99.29
182.618	74.74
182.837	60.67
183.056	51.83
183.275	46.34
183.494	52.65
183.713	48.73
183.932	34.02
184.151	30.27
184.37	39.24
184.589	28.19
184.808	25.62
185.027	45.44
185.246	54.26
185.465	56.12
185.684	65.88
185.903	42.24
186.122	34.76
186.341	44.19
186.56	58.89
186.779	33.62
186.998	36.05
187.216	71.43
187.435	17.58
187.654	82.51
187.873	126.82
188.092	44.7
188.311	83.69
188.53	27.96
188.748	1.39
188.967	241.67
189.186	3.44
189.405	15.3
189.623	42.6
189.842	72.83
190.061	40.51
190.28	31.7
190.498	37.97
190.717	48.15
190.936	38.33
191.154	36.38
191.373	37.42
191.592	48.73
191.81	56.23
192.029	43.36
192.248	28.27
192.466	46.12
192.685	55.65
192.904	73.36
193.122	51.04
193.341	74.64
193.559	64.54
193.778	63.63
193.996	71.57
194.215	87.83
194.433	86.46
194.652	86.44
194.87	80.47
195.089	94.15
195.307	101.69
195.526	117.61
195.744	104.44
195.963	127.36
196.181	125.02
196.399	121.52
196.618	111.93
196.836	99.38
197.055	90.28
197.273	98.76
197.491	73.56
197.71	64.54
197.928	66.65
198.146	82.46
198.365	70.77
198.583	73.7
198.801	74.53
199.019	76.87
199.238	97.85
199.456	103.58
199.674	75.02
199.892	86.85
200.111	78.15
200.329	62.68
200.547	31.89
200.765	22.57
200.983	25.8
201.202	26
201.42	30.46
201.638	20.13
201.856	21.89
202.074	31.53
202.292	8.73
202.51	20.03
202.728	31.4
202.946	47.77
203.165	54.78
203.383	66.68
203.601	50.23
203.819	22.95
204.037	7.11
204.255	2.85
204.473	10.24
204.691	41.87
204.909	41.63
205.127	27.59
205.345	34.74
205.562	39.1
205.78	28.12
205.998	39.99
206.216	53.07
206.434	73.43
206.652	79.42
206.87	78.9
207.088	78.81
207.306	80.43
207.523	92.03
207.741	95.82
207.959	102.91
208.177	96.19
208.395	97.68
208.612	89.91
208.83	81.6
209.048	77.91
209.266	75.42
209.483	57.62
209.701	43.16
209.919	40.15
210.136	31.86
210.354	20.54
210.572	34.7
210.79	36.04
211.007	42.23
211.225	40.85
211.442	31.5
211.66	30.48
211.878	35.59
212.095	52.72
212.313	44.57
212.53	55.64
212.748	60.44
212.966	42.47
213.183	42.15
213.401	38.03
213.618	45.94
213.836	54.47
214.053	58.54
214.271	70.55
214.488	62.39
214.705	63.16
214.923	52.99
215.14	34.71
215.358	39.02
215.575	28.4
215.793	26.19
216.01	20.4
216.227	35.91
216.445	38.51
216.662	40.05
216.879	41
217.097	42.01
217.314	43.67
217.531	52.63
217.749	48.46
217.966	53.04
218.183	56.21
218.4	49.25
218.618	41.72
218.835	42.14
219.052	30.97
219.269	35.47
219.487	21.35
219.704	22.98
219.921	21.86
220.138	20.13
220.355	18.84
220.572	27.68
220.79	33.94
221.007	32.59
221.224	27.92
221.441	34.77
221.658	28.91
221.875	35.13
222.092	33.01
222.309	33.06
222.526	33.98
222.743	35.44
222.96	29.04
223.177	28.44
223.394	25.81
223.611	27.15
223.828	20.99
224.045	23.61
224.262	24.15
224.479	20.44
224.696	19.74
224.913	19.66
225.13	16.78
225.347	17.19
225.564	14.86
225.781	15.58
225.997	13.93
226.214	15.35
226.431	13.18
226.648	11.79
226.865	13.4
227.082	12.38
227.298	11.63
227.515	12.32
227.732	11.89
227.949	11.45
228.165	11.03
228.382	11.23
228.599	11.14
228.816	11.79
229.032	12.16
229.249	10.67
229.466	11.07
229.682	12.26
229.899	13.26
230.116	13.42
230.332	15.19
230.549	14.89
230.765	15.03
230.982	15.76
231.199	14.69
231.415	15.98
231.632	17.61
231.848	16.84
232.065	15.08
232.281	14.89
232.498	13.86
232.714	13.89
232.931	16.35
233.147	17.33
233.364	16.04
233.58	17.39
233.797	16.01
234.013	15.06
234.23	16.9
234.446	17.15
234.662	16.94
234.879	17.91
235.095	16.81
235.312	15.28
235.528	16.69
235.744	15.56
235.961	13.66
236.177	13.15
236.393	14.38
236.61	14.1
236.826	15.99
237.042	15.57
237.258	16.43
237.475	17.77
237.691	17.58
237.907	16.05
238.123	16.78
238.339	17.26
238.556	16.75
238.772	17.85
238.988	18.16
239.204	16.36
239.42	15.44
239.636	14.41
239.853	13.29
240.069	12.53
240.285	11.81
240.501	11.81
240.717	11.81
240.933	11.59
241.149	10.67
241.365	9.51
241.581	9.61
241.797	9.51
242.013	9.39
242.229	9.35
242.445	9.53
242.661	9.71
242.877	9.8
243.093	9.61
243.309	10.05
243.525	9.41
243.741	9.54
243.957	8.94
244.173	9.03
244.388	9.8
244.604	9.67
244.82	9.25
245.036	8.76
245.252	8.81
245.468	8.65
245.683	8.57
245.899	8.4
246.115	8.45
246.331	8.36
246.547	8.54
246.762	8.38
246.978	8.51
247.194	8.89
247.409	9.44
247.625	9.41
247.841	9.61
248.057	9.88
248.272	10.82
248.488	11.07
248.703	11.89
248.919	10.88
249.135	10.19
249.35	9.59
249.566	8.38
249.782	8.24
249.997	8.04
250.213	7.42
250.428	7.26
250.644	6.61
250.859	6.25
251.075	6.16
251.29	6.94
251.506	6.95
251.721	6.99
251.937	7.99
252.152	7.83
252.368	7.23
252.583	8.14
252.798	7.21
253.014	7.75
253.229	7.79
253.445	7.36
253.66	6.49
253.875	6.34
254.091	7.23
254.306	6.28
254.521	6.09
254.737	5.76
254.952	5.31
255.167	6.18
255.383	5.18
255.598	4.4
255.813	4.61
256.028	5.5
256.244	5.12
256.459	5.33
256.674	5.59
256.889	5.52
257.104	6.09
257.32	6.23
257.535	5.76
257.75	5.95
257.965	6.27
258.18	6.35
258.395	6.15
258.61	6.1
258.826	5.99
259.041	6
259.256	6.19
259.471	6.21
259.686	6.37
259.901	6.6
260.116	6.76
260.331	6.71
260.546	6.69
260.761	7.03
260.976	7.63
261.191	7.55
261.406	8.06
261.621	7.55
261.836	7.13
262.05	6.7
262.265	7.07
262.48	7.26
262.695	7.19
262.91	7.51
263.125	7.44
263.34	7.44
263.555	7.46
263.769	7.28
263.984	7.71
264.199	7.8
264.414	7.16
264.629	7.13
264.843	7.06
265.058	7.03
265.273	6.7
265.488	6.81
265.702	6.78
265.917	7.28
266.132	6.93
266.346	6.74
266.561	7.07
266.776	7.3
266.99	6.93
267.205	6.86
267.42	7.33
267.634	7.24
267.849	7.35
268.063	7.21
268.278	6.68
268.492	6.78
268.707	7.24
268.922	7.25
269.136	7.73
269.351	7.77
269.565	7.3
269.78	6.97
269.994	6.92
270.209	6.22
270.423	6.57
270.637	6.43
270.852	6.05
271.066	5.82
271.281	5.6
271.495	5.38
271.709	5.83
271.924	5.57
272.138	5.92
272.353	5.83
272.567	6.11
272.781	5.61
272.996	6.12
273.21	6.76
273.424	6.87
273.638	6.98
273.853	7.14
274.067	6.65
274.281	7.51
274.495	7.51
274.71	7.7
274.924	7.96
275.138	8.06
275.352	7.16
275.566	6.82
275.781	6.82
275.995	6.16
276.209	5.82
276.423	5.9
276.637	5.84
276.851	5.47
277.065	5.4
277.279	4.98
277.493	5.32
277.707	5.78
277.921	6
278.135	6.04
278.349	6.76
278.563	7.02
278.777	7.5
278.991	7.12
279.205	6.78
279.419	6.55
279.633	7.04
279.847	6.78
280.061	7.06
280.275	7.18
280.489	7
280.703	6.85
280.917	6.73
281.131	6.19
281.344	6.59
281.558	6.42
281.772	6.92
281.986	6.59
282.2	6.89
282.414	6.66
282.627	6.34
282.841	6.26
283.055	6.35
283.269	6.38
283.482	6.08
283.696	5.4
283.91	5.66
284.123	5.24
284.337	5.22
284.551	4.75
284.764	4.79
284.978	4.98
285.192	4.89
285.405	4.71
285.619	4.8
285.833	5.38
286.046	5.67
286.26	5.76
286.473	6.03
286.687	6.33
286.9	6.67
287.114	6.56
287.327	6.72
287.541	6.76
287.754	6.63
287.968	6.74
288.181	6.48
288.395	6.55
288.608	7.05
288.822	7.28
289.035	6.9
289.248	6.58
289.462	6.83
289.675	6.53
289.889	6.72
290.102	6.65
290.315	6.3
290.529	6.34
290.742	6.28
290.955	5.61
291.169	5.54
291.382	5.98
291.595	6.15
291.808	6.21
292.022	6.57
292.235	6.79
292.448	7.47
292.661	7.55
292.875	7.79
293.088	8.14
293.301	8.22
293.514	8.02
293.727	7.78
293.94	7.46
294.153	6.87
294.367	6.57
294.58	6.18
294.793	5.93
295.006	5.9
295.219	5.85
295.432	5.96
295.645	5.87
295.858	5.84
296.071	5.73
296.284	6.28
296.497	6.89
296.71	6.96
296.923	6.99
297.136	6.86
297.349	6.96
297.562	7.04
297.775	6.87
297.988	7.14
298.201	7.36
298.414	7.61
298.626	7.39
298.839	7.03
299.052	6.94
299.265	7.2
299.478	7.69
299.691	8.28
299.903	7.9
300.116	7.76
300.329	7.87
300.542	8.01
300.755	8.01
300.967	8.06
301.18	8.31
301.393	8.51
301.605	8.11
301.818	8.09
302.031	7.76
302.243	7.96
302.456	8.14
302.669	8.09
302.881	7.95
303.094	7.87
303.307	8.03
303.519	8.04
303.732	8.43
303.944	9.02
304.157	9.06
304.37	8.6
304.582	8.7
304.795	8.48
305.007	8.5
305.22	8.4
305.432	8.72
305.645	8.41
305.857	8.54
306.069	8.6
306.282	8.31
306.494	7.66
306.707	8.17
306.919	7.97
307.132	8.14
307.344	8.25
307.556	8.2
307.769	8.51
307.981	8.54
308.193	8.49
308.406	7.88
308.618	7.98
308.83	8.36
309.043	8.02
309.255	8.02
309.467	8.11
309.679	7.87
309.892	7.82
310.104	7.66
310.316	8.1
310.528	8.04
310.74	8.48
310.953	8.64
311.165	8.55
311.377	8.87
311.589	8.87
311.801	8.83
312.013	9.43
312.225	9.94
312.437	9.62
312.649	9.21
312.862	9.21
313.074	8.88
313.286	8.59
313.498	8.58
313.71	8.79
313.922	9.28
314.134	9.15
314.346	8.56
314.558	8.15
314.77	8.51
314.982	8.73
315.193	8.84
315.405	8.65
315.617	8.7
315.829	8.69
316.041	8.2
316.253	7.97
316.465	8.7
316.677	8.8
316.888	8.91
317.1	9.06
317.312	8.91
317.524	8.99
317.736	9.44
317.947	10.33
318.159	10.23
318.371	10.06
318.583	10.08
318.794	9.37
319.006	9.54
319.218	9.48
319.43	9.07
319.641	8.89
319.853	8.46
320.064	8.8
320.276	8.43
320.488	8.62
320.699	9.03
320.911	9.2
321.123	9.2
321.334	9.44
321.546	10.06
321.757	9.97
321.969	10.36
322.18	10.24
322.392	9.88
322.603	9.63
322.815	9.62
323.026	9.67
323.238	9.49
323.449	9.73
323.661	9.5
323.872	9.17
324.083	9.34
324.295	9.15
324.506	9.41
324.718	9.67
324.929	10.04
325.14	10.28
325.352	10.37
325.563	10.42
325.774	10.58
325.986	10.6
326.197	10.51
326.408	10.39
326.62	10.28
326.831	9.9
327.042	9.72
327.253	9.57
327.464	9.4
327.676	8.7
327.887	8.6
328.098	8.49
328.309	8.77
328.52	9.03
328.732	9.08
328.943	9.3
329.154	9.75
329.365	9.7
329.576	9.24
329.787	9.05
329.998	9.47
330.209	9.61
330.42	9.65
330.631	9.11
330.842	8.58
331.053	8.47
331.264	8.45
331.475	8.44
331.686	8.62
331.897	8.41
332.108	8.26
332.319	8.57
332.53	8.33
332.741	7.91
332.952	8.09
333.163	8.27
333.374	8.22
333.585	8.28
333.795	8.26
334.006	8.33
334.217	8.33
334.428	8.61
334.639	8.34
334.849	8.6
335.06	8.67
335.271	8.75
335.482	8.54
335.692	8.82
335.903	8.8
336.114	8.89
336.325	8.7
336.535	9.06
336.746	9.33
336.957	9.58
337.167	9.73
337.378	9.76
337.589	9.64
337.799	9.51
338.01	9.61
338.22	9.4
338.431	9.68
338.642	9.46
338.852	9.55
339.063	9.23
339.273	9.08
339.484	8.82
339.694	8.59
339.905	8.1
340.115	8.39
340.326	8.14
340.536	8.14
340.746	7.66
340.957	8.08
341.167	8.19
341.378	8.03
341.588	7.71
341.799	7.52
342.009	7.75
342.219	8.13
342.43	8.13
342.64	8.08
342.85	7.97
343.061	7.81
343.271	7.55
343.481	6.95
343.691	6.93
343.902	7.39
344.112	7.48
344.322	7.29
344.532	7.17
344.743	7.1
344.953	6.88
345.163	6.94
345.373	7.12
345.583	7.07
345.793	7.2
346.004	7.47
346.214	6.8
346.424	6.88
346.634	7.11
346.844	7.64
347.054	7.63
347.264	7.85
347.474	7.9
347.684	7.88
347.894	7.75
348.104	7.96
348.314	7.66
348.524	8.04
348.734	7.48
348.944	7.41
349.154	6.9
349.364	6.69
349.574	6.52
349.784	6.15
349.994	6.32
350.204	6.13
350.413	6.01
350.623	5.98
350.833	5.88
351.043	6.03
351.253	5.76
351.463	5.49
351.672	5.75
351.882	6.02
352.092	6.03
352.302	5.69
352.511	6
352.721	6.06
352.931	6.37
353.141	6.27
353.35	6.83
353.56	7.17
353.77	7.31
353.979	7.63
354.189	7.42
354.399	7.87
354.608	7.89
354.818	7.85
355.027	7.85
355.237	7.59
355.447	7.81
355.656	7.25
355.866	6.99
356.075	7.16
356.285	6.92
356.494	6.97
356.704	6.56
356.913	6.58
357.123	6.33
357.332	6.23
357.542	6.17
357.751	6.11
357.96	6.26
358.17	6.32
358.379	6.29
358.589	6.22
358.798	5.88
359.007	5.95
359.217	5.96
359.426	6.19
359.635	6.36
359.845	6.27
360.054	6.12
360.263	6.05
360.472	5.92
360.682	5.79
360.891	5.63
361.1	5.81
361.309	5.91
361.519	5.89
361.728	5.69
361.937	5.57
362.146	5.76
362.355	5.65
362.564	5.63
362.774	5.71
362.983	5.7
363.192	5.89
363.401	5.96
363.61	5.67
363.819	5.64
364.028	5.9
364.237	5.51
364.446	5.25
364.655	5.2
364.864	5.41
365.073	5.31
365.282	5.23
365.491	5.06
365.7	4.97
365.909	5.19
366.118	5.01
366.327	4.83
366.536	5.12
366.745	5.25
366.954	5.27
367.162	5.37
367.371	5.56
367.58	5.81
367.789	5.87
367.998	6.03
368.207	5.85
368.415	6.08
368.624	5.87
368.833	5.93
369.042	5.84
369.25	6.02
369.459	5.89
369.668	5.91
369.877	5.72
370.085	5.73
370.294	5.64
370.503	5.67
370.711	5.68
370.92	5.68
371.129	5.68
371.337	5.51
371.546	5.37
371.754	5.23
371.963	5.31
372.171	5.36
372.38	5.31
372.589	5.27
372.797	5.23
373.006	5.19
373.214	5.39
373.423	5.21
373.631	5.42
373.84	5.66
374.048	5.54
374.256	5.39
374.465	5.63
374.673	5.73
374.882	5.76
375.09	5.79
375.298	5.93
375.507	5.79
375.715	5.96
375.923	6.09
376.132	5.99
376.34	6.2
376.548	6.06
376.757	5.75
376.965	5.53
377.173	5.57
377.381	5.62
377.59	5.52
377.798	5.56
378.006	5.65
378.214	5.47
378.423	5.34
378.631	5.14
378.839	5.25
379.047	5.16
379.255	5.15
379.463	5.1
379.671	5.2
379.879	5.14
380.088	5.13
380.296	4.78
380.504	4.85
380.712	5.07
380.92	5.17
381.128	5.15
381.336	5.38
381.544	5.27
381.752	5.16
381.96	5.15
382.168	5.05
382.376	5.24
382.584	5.64
382.791	5.46
382.999	5.37
383.207	5.38
383.415	5.27
383.623	5.19
383.831	5.29
384.039	5.21
384.247	5
384.454	5.12
384.662	4.93
384.87	4.62
385.078	4.94
385.285	4.81
385.493	4.68
385.701	4.66
385.909	4.34
386.116	4.27
386.324	4.31
386.532	4.48
386.739	4.51
386.947	4.51
387.155	4.37
387.362	4.11
387.57	4.18
387.778	4.1
387.985	4.02
388.193	4.11
388.4	3.96
388.608	4.05
388.816	3.9
389.023	3.84
389.231	3.66
389.438	3.91
389.646	4.1
389.853	4.38
390.061	4.45
390.268	4.68
390.475	4.78
390.683	4.91
390.89	4.76
391.098	4.77
391.305	4.92
391.512	5.12
391.72	4.95
391.927	4.58
392.135	4.14
392.342	4.09
392.549	3.91
392.756	3.9
392.964	3.92
393.171	4.01
393.378	4.08
393.586	3.91
393.793	3.76
394	3.82
394.207	4.03
394.414	4.17
394.622	4.2
394.829	4.47
395.036	4.54
395.243	4.45
395.45	4.39
395.657	4.16
395.864	4.09
396.072	4.44
396.279	4.41
396.486	4.39
396.693	4.3
396.9	4.23
397.107	3.83
397.314	3.72
397.521	3.8
397.728	3.9
397.935	4.18
398.142	4.24
398.349	3.91
398.556	3.84
398.763	4.04
398.97	4.19
399.177	4.07
399.383	4.17
399.59	4.18
399.797	4.35
400.004	4.22
400.211	3.95
400.418	3.79
400.625	3.89
400.831	4.07
401.038	3.83
401.245	3.79
401.452	4.11
401.658	4.27
401.865	4.37
402.072	4.19
402.279	4.24
402.485	4.39
402.692	4.52
402.899	4.37
403.105	4.34
403.312	4.23
403.519	4.2
403.725	3.99
403.932	3.87
404.138	3.98
404.345	4
404.552	4.03
404.758	4.05
404.965	3.9
405.171	3.9
405.378	3.94
405.584	4.12
405.791	4.09
405.997	4.43
406.204	4.58
406.41	4.56
406.617	4.59
406.823	4.52
407.029	4.42
407.236	4.64
407.442	4.78
407.649	4.6
407.855	4.55
408.061	4.73
408.268	4.4
408.474	4.21
408.68	4.12
408.887	4.1
409.093	4.12
409.299	4.26
409.505	4.24
409.712	4.09
409.918	4.22
410.124	4.17
410.33	4.13
410.537	4.1
410.743	4.02
410.949	3.95
411.155	3.95
411.361	3.88
411.567	3.69
411.773	3.54
411.98	3.69
412.186	3.56
412.392	3.49
412.598	3.35
412.804	3.34
413.01	3.4
413.216	3.42
413.422	3.36
413.628	3.34
413.834	3.22
414.04	3.22
414.246	3.09
414.452	3.07
414.658	3.09
414.864	3.07
415.07	3.22
415.275	3.27
415.481	3.19
415.687	3.25
415.893	3.3
416.099	3.44
416.305	3.4
416.511	3.39
416.716	3.4
416.922	3.35
417.128	3.42
417.334	3.39
417.539	3.28
417.745	3.32
417.951	3.36
418.157	3.41
418.362	3.42
418.568	3.42
418.774	3.48
418.979	3.46
419.185	3.49
419.391	3.42
419.596	3.42
419.802	3.46
420.008	3.4
420.213	4
420.419	3.98
420.624	3.91
420.83	3.82
421.035	3.82
421.241	3.84
421.446	3.79
421.652	3.84
421.857	3.76
422.063	3.76
422.268	3.84
422.474	3.11
422.679	3.16
422.885	3.16
423.09	3.14
423.295	3.12
423.501	3.09
423.706	3.15
423.911	3.11
424.117	3.18
424.322	3.11
424.527	3.08
424.733	3.14
424.938	3.03
425.143	3.12
425.349	3.3
425.554	3.31
425.759	3.36
425.964	3.38
426.169	3.45
426.375	3.43
426.58	3.52
426.785	3.54
426.99	3.54
427.195	3.57
427.4	3.59
427.605	3.59
427.811	3.55
428.016	3.47
428.221	3.41
428.426	3.3
428.631	3.22
428.836	3.27
429.041	3.3
429.246	3.3
429.451	3.19
429.656	2.92
429.861	2.92
430.066	2.99
430.271	2.97
430.476	3.03
430.681	3.03
430.886	3.14
431.09	3.15
431.295	3.01
431.5	2.94
431.705	3.01
431.91	3.07
432.115	3.03
432.32	3.02
432.524	3.03
432.729	3.04
432.934	3.04
433.139	3.02
433.343	2.97
433.548	3.05
433.753	3.04
433.958	3.05
434.162	3.06
434.367	3.07
434.572	2.98
434.776	2.94
434.981	3.03
435.186	3.02
435.39	3
435.595	3.12
435.799	3.11
436.004	3.19
436.209	3.1
436.413	3.11
436.618	3.14
436.822	3.18
437.027	3.26
437.231	3.08
437.436	3.07
437.64	3.01
437.845	2.95
438.049	2.89
438.253	2.9
438.458	2.94
438.662	2.91
438.867	2.87
439.071	2.83
439.275	2.82
439.48	2.93
439.684	2.91
439.888	3.01
440.093	2.98
440.297	2.94
440.501	2.9
440.706	2.99
440.91	3.15
441.114	3.14
441.318	3.19
441.523	3.19
441.727	3.15
441.931	3.13
442.135	3.05
442.339	3.03
442.543	3.12
442.748	3.11
442.952	3
443.156	2.77
443.36	2.79
443.564	2.78
443.768	2.7
443.972	2.71
444.176	2.78
444.38	2.86
444.584	2.84
444.788	2.89
444.992	2.86
445.196	2.84
445.4	2.91
445.604	2.9
445.808	2.92
446.012	2.97
446.216	2.92
446.42	2.97
446.624	2.86
446.828	2.93
447.032	2.87
447.235	2.9
447.439	2.92
447.643	2.91
447.847	2.85
448.051	2.85
448.254	2.82
448.458	2.83
448.662	2.78
448.866	2.81
449.069	2.79
449.273	2.79
449.477	2.78
449.681	2.74
449.884	2.88
450.088	2.89
450.292	2.86
450.495	2.87
450.699	2.99
450.902	2.95
451.106	2.86
451.31	2.88
451.513	2.97
451.717	3
451.92	3.04
452.124	3
452.327	3.1
452.531	3.11
452.734	3.12
452.938	3.09
453.141	3.07
453.345	3.07
453.548	2.99
453.752	2.92
453.955	2.94
454.158	2.93
454.362	2.84
454.565	2.86
454.769	2.81
454.972	2.81
455.175	2.74
455.379	2.79
455.582	2.85
455.785	2.95
455.988	2.96
456.192	2.94
456.395	2.94
456.598	3
456.801	2.88
457.005	2.9
457.208	2.9
457.411	2.84
457.614	2.74
457.817	2.73
458.021	2.73
458.224	2.61
458.427	2.56
458.63	2.58
458.833	2.56
459.036	2.55
459.239	2.57
459.442	2.62
459.645	2.63
459.848	2.63
460.051	2.68
460.254	2.62
460.457	2.71
460.66	2.83
460.863	2.86
461.066	2.95
461.269	2.91
461.472	2.88
461.675	2.89
461.878	2.99
462.081	3.04
462.284	2.98
462.486	2.96
462.689	3
462.892	2.89
463.095	2.81
463.298	2.66
463.5	2.88
463.703	2.89
463.906	2.85
464.109	2.81
464.311	2.82
464.514	2.93
464.717	3.01
464.92	3
465.122	3.06
465.325	3.07
465.528	3.13
465.73	2.97
465.933	2.95
466.135	2.95
466.338	2.89
466.541	2.92
466.743	2.79
466.946	2.77
467.148	2.57
467.351	2.51
467.553	2.53
467.756	2.59
467.958	2.65
468.161	2.6
468.363	2.53
468.566	2.53
468.768	2.56
468.971	2.47
469.173	2.45
469.375	2.61
469.578	2.6
469.78	2.6
469.983	2.44
470.185	2.38
470.387	2.37
470.59	2.38
470.792	2.41
470.994	2.32
471.196	2.37
471.399	2.32
471.601	2.37
471.803	2.41
472.005	2.49
472.208	2.53
472.41	2.57
472.612	2.55
472.814	2.57
473.016	2.62
473.218	2.71
473.421	2.73
473.623	2.72
473.825	2.62
474.027	2.63
474.229	2.51
474.431	2.58
474.633	2.52
474.835	2.62
475.037	2.63
475.239	2.51
475.441	2.42
475.643	2.52
475.845	2.58
476.047	2.63
476.249	2.61
476.451	2.71
476.653	2.71
476.855	2.78
477.057	2.71
477.258	2.68
477.46	2.7
477.662	2.73
477.864	2.72
478.066	2.67
478.268	2.6
478.469	2.63
478.671	2.59
478.873	2.56
479.075	2.54
479.276	2.52
479.478	2.49
479.68	2.55
479.882	2.56
480.083	2.53
480.285	2.54
480.487	2.58
480.688	2.57
480.89	2.57
481.091	2.51
481.293	2.48
481.495	2.48
481.696	2.5
481.898	2.48
482.099	2.47
482.301	2.45
482.502	2.46
482.704	2.44
482.905	2.44
483.107	2.46
483.308	2.47
483.51	2.47
483.711	2.45
483.913	2.45
484.114	2.44
484.315	2.44
484.517	2.45
484.718	2.42
484.92	2.44
485.121	2.43
485.322	2.37
485.524	2.38
485.725	2.41
485.926	2.44
486.127	2.44
486.329	2.47
486.53	2.48
486.731	2.47
486.932	2.5
487.134	2.49
487.335	2.48
487.536	2.47
487.737	2.47
487.938	2.48
488.139	2.51
488.341	2.48
488.542	2.45
488.743	2.45
488.944	2.45
489.145	2.45
489.346	2.46
489.547	2.46
489.748	2.47
489.949	2.52
490.15	2.5
490.351	2.44
490.552	2.46
490.753	2.48
490.954	2.49
491.155	2.51
491.356	2.44
491.557	2.45
491.758	2.48
491.959	2.46
492.159	2.42
492.36	2.43
492.561	2.51
492.762	2.5
492.963	2.51
493.164	2.46
493.364	2.42
493.565	2.51
493.766	2.56
493.967	2.5
494.167	2.55
494.368	2.52
494.569	2.55
494.769	2.47
494.97	2.47
495.171	2.49
495.371	2.47
495.572	2.51
495.773	2.49
495.973	2.51
496.174	2.54
496.375	2.54
496.575	2.58
496.776	2.56
496.976	2.59
497.177	2.63
497.377	2.6
497.578	2.71
497.778	2.66
497.979	2.67
498.179	2.53
498.38	2.57
498.58	2.66
498.78	2.69
498.981	2.74
499.181	2.74
499.382	2.72
499.582	2.72
499.782	2.67
499.983	2.73
500.183	2.73
500.383	2.82
500.584	2.75
500.784	2.67
500.984	2.65
501.184	2.62
501.385	2.59
501.585	2.63
501.785	2.52
501.985	2.53
502.185	2.54
502.386	2.54
502.586	2.53
502.786	2.61
502.986	2.63
503.186	2.56
503.386	2.53
503.586	2.58
503.786	2.52
503.987	2.6
504.187	2.57
504.387	2.5
504.587	2.53
504.787	2.57
504.987	2.54
505.187	2.55
505.387	2.6
505.587	2.68
505.786	2.69
505.986	2.64
506.186	2.66
506.386	2.71
506.586	2.82
506.786	2.82
506.986	2.73
507.186	2.72
507.386	2.66
507.585	2.63
507.785	2.55
507.985	2.58
508.185	2.68
508.384	2.74
508.584	2.69
508.784	2.69
508.984	2.72
509.183	2.71
509.383	2.72
509.583	2.72
509.782	2.71
509.982	2.72
510.182	2.67
510.381	2.6
510.581	2.58
510.781	2.63
510.98	2.57
511.18	2.59
511.379	2.67
511.579	2.72
511.778	2.75
511.978	2.71
512.177	2.68
512.377	2.67
512.576	2.76
512.776	2.73
512.975	2.79
513.175	2.79
513.374	2.69
513.573	2.65
513.773	2.63
513.972	2.59
514.172	2.68
514.371	2.79
514.57	2.84
514.77	2.78
514.969	2.84
515.168	2.76
515.367	2.79
515.567	2.85
515.766	2.84
515.965	2.8
516.164	2.79
516.364	2.83
516.563	2.76
516.762	2.7
516.961	2.65
517.16	2.56
517.359	2.6
517.559	2.67
517.758	2.63
517.957	2.6
518.156	2.63
518.355	2.7
518.554	2.61
518.753	2.65
518.952	2.7
519.151	2.73
519.35	2.8
519.549	2.76
519.748	2.67
519.947	2.75
520.146	2.8
520.345	2.81
520.544	2.68
520.743	2.72
520.942	2.73
521.141	2.73
521.339	2.83
521.538	2.73
521.737	2.73
521.936	2.73
522.135	2.73
522.333	2.75
522.532	2.75
522.731	2.79
522.93	2.86
523.129	2.86
523.327	2.86
523.526	2.81
523.725	2.89
523.923	2.94
524.122	2.95
524.321	2.88
524.519	2.83
524.718	2.85
524.917	2.85
525.115	2.8
525.314	2.79
525.512	2.8
525.711	2.81
525.909	2.8
526.108	2.79
526.306	2.84
526.505	2.86
526.703	2.88
526.902	2.87
527.1	2.9
527.299	2.9
527.497	2.92
527.696	2.91
527.894	2.92
528.092	2.95
528.291	2.93
528.489	2.92
528.688	2.94
528.886	2.98
529.084	3.02
529.283	3.02
529.481	3.02
529.679	3.01
529.877	3.02
530.076	3.01
530.274	2.97
530.472	3
530.67	3.03
530.869	3.03
531.067	3
531.265	2.95
531.463	2.99
531.661	3.01
531.859	3.02
532.057	3.05
532.255	3.08
532.454	3.08
532.652	3.1
532.85	3.09
533.048	3.11
533.246	3.12
533.444	3.15
533.642	3.19
533.84	3.18
534.038	3.21
534.236	3.21
534.434	3.14
534.632	3.15
534.83	3.18
535.027	3.2
535.225	3.22
535.423	3.21
535.621	3.28
535.819	3.25
536.017	3.24
536.215	3.28
536.412	3.26
536.61	3.3
536.808	3.3
537.006	3.29
537.203	3.28
537.401	3.32
537.599	3.39
537.797	3.27
537.994	3.3
538.192	3.41
538.39	3.45
538.587	3.51
538.785	3.58
538.983	3.63
539.18	3.65
539.378	3.65
539.575	3.62
539.773	3.56
539.97	3.62
540.168	3.63
540.366	3.64
540.563	3.62
540.761	3.58
540.958	3.55
541.155	3.6
541.353	3.61
541.55	3.58
541.748	3.56
541.945	3.6
542.143	3.59
542.34	3.61
542.537	3.61
542.735	3.61
542.932	3.64
543.129	3.67
543.327	3.68
543.524	3.71
543.721	3.74
543.919	3.8
544.116	3.86
544.313	3.99
544.51	3.97
544.708	3.96
544.905	4
545.102	4.13
545.299	4.15
545.496	4.15
545.693	4.12
545.891	4.16
546.088	4.13
546.285	4.22
546.482	4.15
546.679	4.21
546.876	4.29
547.073	4.28
547.27	4.25
547.467	4.24
547.664	4.21
547.861	4.26
548.058	4.28
548.255	4.39
548.452	4.32
548.649	4.46
548.846	4.5
549.043	4.37
549.24	4.49
549.437	4.47
549.633	4.62
549.83	4.67
550.027	4.79
550.224	4.84
550.421	4.8
550.618	4.87
550.814	4.85
551.011	4.78
551.208	4.86
551.405	4.84
551.601	4.9
551.798	4.82
551.995	4.74
552.191	4.76
552.388	4.76
552.585	4.85
552.781	4.87
552.978	4.77
553.175	4.83
553.371	4.83
553.568	4.86
553.764	4.82
553.961	4.87
554.157	4.94
554.354	4.88
554.55	4.9
554.747	4.83
554.943	4.82
555.14	4.94
555.336	4.96
555.533	4.96
555.729	5.08
555.926	5.19
556.122	5.29
556.318	5.47
556.515	5.49
556.711	5.46
556.907	5.57
557.104	5.63
557.3	5.69
557.496	5.69
557.693	5.79
557.889	5.77
558.085	5.86
558.281	5.89
558.478	5.86
558.674	5.95
558.87	5.98
559.066	6.06
559.262	6.12
559.459	6.19
559.655	6.18
559.851	6.19
560.047	6.17
560.243	6.14
560.439	6.11
560.635	6.17
560.831	6.17
561.027	6.24
561.223	6.12
561.419	6.09
561.615	6.02
561.811	6.19
562.007	6.21
562.203	6.23
562.399	6.18
562.595	6.23
562.791	6.26
562.987	6.42
563.183	6.49
563.379	6.64
563.575	6.66
563.771	6.7
563.966	6.69
564.162	6.81
564.358	6.91
564.554	7.03
564.75	7.04
564.945	6.96
565.141	6.95
565.337	7.04
565.533	7.04
565.728	7.06
565.924	7.16
566.12	7.15
566.315	7.05
566.511	6.95
566.707	6.94
566.902	7.05
567.098	7.2
567.293	7.18
567.489	7.17
567.684	7.11
567.88	7.12
568.076	7.09
568.271	7.2
568.467	7.3
568.662	7.4
568.858	7.48
569.053	7.38
569.248	7.3
569.444	7.26
569.639	7.3
569.835	7.44
570.03	7.58
570.225	7.7
570.421	7.79
570.616	7.9
570.812	7.97
571.007	7.96
571.202	8.15
571.397	8.27
571.593	8.41
571.788	8.39
571.983	8.44
572.178	8.38
572.374	8.27
572.569	8.17
572.764	8.11
572.959	8.11
573.154	8.14
573.35	8.01
573.545	8.11
573.74	8.03
573.935	8.16
574.13	8.18
574.325	8.24
574.52	8.36
574.715	8.46
574.91	8.47
575.105	8.43
575.3	8.46
575.495	8.53
575.69	8.43
575.885	8.55
576.08	8.58
576.275	8.53
576.47	8.53
576.665	8.43
576.86	8.34
577.055	8.37
577.25	8.48
577.444	8.45
577.639	8.57
577.834	8.57
578.029	8.52
578.224	8.6
578.418	8.76
578.613	8.89
578.808	8.88
579.003	9.01
579.197	9.03
579.392	9.03
579.587	9.1
579.781	8.98
579.976	9
580.171	9.03
580.365	8.88
580.56	8.83
580.755	8.81
580.949	8.97
581.144	9
581.338	9.04
581.533	9.03
581.727	9.09
581.922	9.14
582.116	9.32
582.311	9.24
582.505	9.36
582.7	9.39
582.894	9.49
583.089	9.42
583.283	9.4
583.478	9.45
583.672	9.47
583.866	9.57
584.061	9.59
584.255	9.41
584.449	9.67
584.644	9.56
584.838	9.54
585.032	9.51
585.226	9.51
585.421	9.51
585.615	9.65
585.809	9.66
586.003	9.6
586.198	9.67
586.392	9.79
586.586	9.66
586.78	9.73
586.974	9.67
587.168	9.61
587.363	9.66
587.557	9.68
587.751	9.51
587.945	9.42
588.139	9.34
588.333	9.27
588.527	9.2
588.721	9.11
588.915	9.09
589.109	9.18
589.303	9.15
589.497	9.06
589.691	9
589.885	8.93
590.079	9.12
590.273	9.22
590.466	9.16
590.66	9.13
590.854	9.17
591.048	9.1
591.242	9.15
591.436	9.18
591.629	9.35
591.823	9.39
592.017	9.55
592.211	9.5
592.404	9.53
592.598	9.68
592.792	9.83
592.986	9.96
593.179	9.98
593.373	9.92
593.567	9.96
593.76	9.94
593.954	10.09
594.147	10.19
594.341	10.18
594.535	10.22
594.728	10.14
594.922	10.12
595.115	10
595.309	10
595.502	10.07
595.696	10.08
595.889	10.03
596.083	9.95
596.276	9.93
596.47	10.02
596.663	9.93
596.856	10.04
597.05	10.08
597.243	10.13
597.437	10.13
597.63	10.05
597.823	10.02
598.017	10.04
598.21	10.12
598.403	10.07
598.596	10.06
598.79	10.01
598.983	9.82
599.176	9.8
599.369	9.95
599.563	9.89
599.756	9.79
599.949	9.85
600.142	9.93
600.335	9.83
600.528	9.86
600.722	9.86
600.915	9.98
601.108	10.07
601.301	10.11
601.494	9.98
601.687	10.06
601.88	10.06
602.073	10.04
602.266	9.93
602.459	9.9
602.652	9.92
602.845	9.86
603.038	9.81
603.231	9.95
603.424	9.91
603.617	10
603.809	10.02
604.002	10.07
604.195	10.15
604.388	10.22
604.581	10.31
604.774	10.29
604.966	10.26
605.159	10.14
605.352	10
605.545	9.92
605.737	9.9
605.93	9.94
606.123	9.99
606.316	9.99
606.508	10.07
606.701	10.11
606.894	10.09
607.086	10.08
607.279	10.17
607.471	10.14
607.664	10.33
607.857	10.37
608.049	10.5
608.242	10.49
608.434	10.51
608.627	10.44
608.819	10.36
609.012	10.36
609.204	10.46
609.397	10.58
609.589	10.69
609.782	10.6
609.974	10.63
610.166	10.6
610.359	10.64
610.551	10.53
610.743	10.54
610.936	10.52
611.128	10.51
611.32	10.33
611.513	10.36
611.705	10.39
611.897	10.26
612.09	10.31
612.282	10.28
612.474	10.23
612.666	10.38
612.858	10.36
613.051	10.57
613.243	10.44
613.435	10.55
613.627	10.7
613.819	10.52
614.011	10.76
614.203	10.66
614.395	10.65
614.588	10.6
614.78	10.36
614.972	10.3
615.164	10.25
615.356	10.3
615.548	10.35
615.74	10.09
615.932	10.08
616.124	9.88
616.315	9.84
616.507	9.77
616.699	9.97
616.891	10.22
617.083	10.21
617.275	10.2
617.467	10.22
617.659	10.24
617.85	10.32
618.042	10.48
618.234	10.72
618.426	10.85
618.618	10.82
618.809	10.73
619.001	10.61
619.193	10.78
619.384	10.77
619.576	10.83
619.768	10.92
619.959	10.89
620.151	11.06
620.343	10.97
620.534	11.17
620.726	11.15
620.917	11.25
621.109	11.1
621.301	11.11
621.492	10.99
621.684	10.99
621.875	11.06
622.067	10.92
622.258	10.8
622.45	10.88
622.641	10.49
622.832	10.67
623.024	10.6
623.215	10.62
623.407	10.56
623.598	10.54
623.789	10.64
623.981	10.55
624.172	10.67
624.363	10.55
624.555	10.5
624.746	10.47
624.937	10.19
625.129	10.2
625.32	10.2
625.511	10.19
625.702	10.32
625.893	10.4
626.085	10.32
626.276	10.36
626.467	10.46
626.658	10.39
626.849	10.44
627.04	10.4
627.231	10.52
627.422	10.55
627.614	10.62
627.805	10.49
627.996	10.29
628.187	10.45
628.378	10.42
628.569	10.39
628.76	10.66
628.951	10.76
629.142	10.77
629.332	10.55
629.523	10.57
629.714	10.59
629.905	10.88
630.096	10.94
630.287	10.9
630.478	10.87
630.669	10.74
630.859	10.49
631.05	10.47
631.241	10.57
631.432	10.5
631.623	10.55
631.813	10.55
632.004	10.33
632.195	10.25
632.385	10.11
632.576	10.18
632.767	10.35
632.957	10.5
633.148	10.54
633.339	10.56
633.529	10.7
633.72	10.74
633.91	10.82
634.101	10.71
634.292	10.72
634.482	10.69
634.673	10.65
634.863	10.65
635.054	10.58
635.244	10.54
635.435	10.66
635.625	10.53
635.815	10.46
636.006	10.33
636.196	10.6
636.387	10.82
636.577	10.77
636.767	10.84
636.958	10.68
637.148	10.5
637.338	10.5
637.529	10.51
637.719	10.72
637.909	10.8
638.099	10.81
638.29	10.86
638.48	10.83
638.67	10.93
638.86	10.96
639.05	11.05
639.241	11.14
639.431	11.11
639.621	11.27
639.811	11.19
640.001	11.3
640.191	11.1
640.381	10.89
640.571	10.83
640.761	10.77
640.951	10.57
641.141	10.21
641.331	10.06
641.521	10.07
641.711	9.85
641.901	9.98
642.091	9.84
642.281	10.02
642.471	9.94
642.661	9.86
642.851	10.02
643.041	10.07
643.231	10.31
643.42	10.54
643.61	10.62
643.8	10.81
643.99	10.82
644.18	10.8
644.369	10.99
644.559	11.17
644.749	11.24
644.939	11.24
645.128	11.39
645.318	11.34
645.508	11.21
645.697	11.33
645.887	11.17
646.076	10.86
646.266	10.9
646.456	10.78
646.645	10.72
646.835	10.55
647.024	10.54
647.214	10.36
647.403	10.6
647.593	10.62
647.782	10.6
647.972	10.81
648.161	10.97
648.351	10.98
648.54	10.71
648.73	10.73
648.919	10.81
649.108	10.93
649.298	11.01
649.487	10.69
649.677	10.95
649.866	10.9
650.055	10.73
650.244	10.62
650.434	10.62
650.623	10.9
650.812	10.83
651.002	10.77
651.191	10.53
651.38	10.64
651.569	10.79
651.758	10.42
651.947	10.41
652.137	10.35
652.326	10.66
652.515	10.52
652.704	10.37
652.893	10.34
653.082	10.34
653.271	10.79
653.46	10.79
653.649	10.88
653.838	11.13
654.027	11.16
654.216	10.95
654.405	10.8
654.594	10.77
654.783	10.82
654.972	10.79
655.161	11
655.35	10.58
655.539	10.71
655.728	10.75
655.916	10.61
656.105	10.4
656.294	10.83
656.483	10.93
656.672	11
656.86	10.95
657.049	10.92
657.238	10.82
657.427	10.81
657.615	10.67
657.804	10.78
657.993	10.89
658.181	11
658.37	10.83
658.559	10.59
658.747	10.54
658.936	10.75
659.125	10.94
659.313	11.11
659.502	11.2
659.69	11.02
659.879	10.73
660.067	10.66
660.256	10.47
660.444	10.47
660.633	10.54
660.821	10.73
661.01	10.4
661.198	10.17
661.387	10.12
661.575	10.26
661.763	10.63
661.952	11
662.14	11.03
662.328	11.09
662.517	11.24
662.705	11.42
662.893	11.18
663.082	11.29
663.27	11.49
663.458	11.41
663.646	11.2
663.834	11.08
664.023	10.83
664.211	10.79
664.399	11.06
664.587	11.16
664.775	10.9
664.963	11.2
665.152	11.3
665.34	11.38
665.528	11.38
665.716	11.39
665.904	11.16
666.092	11.24
666.28	10.99
666.468	10.9
666.656	10.77
666.844	11.25
667.032	10.96
667.22	11.23
667.408	11.23
667.596	11.31
667.784	11.31
667.971	11.37
668.159	11.15
668.347	11.53
668.535	11.29
668.723	11.08
668.911	10.62
669.098	10.84
669.286	10.4
669.474	10.11
669.662	10.17
669.849	10.24
670.037	10.27
670.225	10.49
670.413	10.42
670.6	10.71
670.788	10.75
670.976	11.15
671.163	11.1
671.351	11.16
671.538	11.4
671.726	11.25
671.913	11.3
672.101	11.36
672.289	11.35
672.476	11.28
672.664	11.33
672.851	11.43
673.039	11.17
673.226	11.07
673.413	11.26
673.601	11.13
673.788	10.94
673.976	10.77
674.163	10.8
674.35	11.02
674.538	11.35
674.725	11.17
674.912	10.84
675.1	10.87
675.287	10.94
675.474	10.86
675.662	11.19
675.849	11.66
676.036	11.72
676.223	11.6
676.411	11.23
676.598	10.92
676.785	10.82
676.972	10.93
677.159	11.01
677.346	10.91
677.533	10.89
677.721	10.6
677.908	10.15
678.095	10.26
678.282	10.52
678.469	10.63
678.656	10.66
678.843	10.74
679.03	10.9
679.217	10.96
679.404	11.12
679.591	10.9
679.778	10.9
679.964	11.23
680.151	11.03
680.338	10.83
680.525	10.77
680.712	10.83
680.899	10.93
681.086	10.8
681.272	10.62
681.459	10.16
681.646	10.46
681.833	10.47
682.02	10.16
682.206	10.33
682.393	10.37
682.58	10.27
682.766	10.06
682.953	10.32
683.14	10.56
683.326	10.81
683.513	11.38
683.7	11.55
683.886	11.33
684.073	11.5
684.259	11.4
684.446	11.59
684.632	11.84
684.819	12.04
685.005	11.71
685.192	11.79
685.378	11.6
685.565	11.2
685.751	10.79
685.938	11.13
686.124	10.99
686.31	11.1
686.497	10.93
686.683	10.92
686.87	10.87
687.056	10.67
687.242	10.69
687.429	10.89
687.615	11.45
687.801	11.66
687.987	11.73
688.174	11.91
688.36	12.14
688.546	12.14
688.732	12.05
688.918	12.04
689.105	12.08
689.291	12.04
689.477	11.98
689.663	11.94
689.849	11.67
690.035	11.56
690.221	11.42
690.407	11.43
690.593	11.51
690.779	11.32
690.965	11.35
691.151	11.44
691.337	11.38
691.523	11.24
691.709	10.96
691.895	11.56
692.081	11.44
692.267	11.41
692.453	11.08
692.639	11.15
692.825	11.49
693.011	11.34
693.196	11.76
693.382	11.55
693.568	11.51
693.754	11.91
693.94	11.61
694.125	11.82
694.311	11.56
694.497	11.23
694.682	11.14
694.868	11.48
695.054	11.81
695.239	11.65
695.425	11.8
695.611	12.15
695.796	11.67
695.982	11.47
696.168	11.28
696.353	11.57
696.539	11.92
696.724	11.92
696.91	11.58
697.095	11.49
697.281	11.24
697.466	11.16
697.652	10.87
697.837	10.99
698.023	11.05
698.208	11.22
698.393	11.11
698.579	10.98
698.764	11.05
698.949	11.03
699.135	10.99
699.32	11.1
699.505	11.06
699.691	11.12
699.876	11.04
700.061	11.28
700.246	11.3
700.432	11.46
700.617	11.54
700.802	11.12
700.987	11.32
701.172	11.42
701.358	11.59
701.543	11.64
701.728	11.9
701.913	12.37
702.098	12.26
702.283	11.94
702.468	11.98
702.653	12.34
702.838	12.56
703.023	12.43
703.208	12.36
703.393	12.34
703.578	12.3
703.763	12.18
703.948	11.66
704.133	11.7
704.318	11.83
704.503	12.08
704.688	11.87
704.873	12.02
705.057	12.28
705.242	12.18
705.427	12.28
705.612	12.38
705.797	12.39
705.981	12.4
706.166	12.19
706.351	11.98
706.536	11.79
706.72	11.49
706.905	11.24
707.09	10.93
707.274	10.77
707.459	10.52
707.644	10.42
707.828	10.47
708.013	10.57
708.197	10.72
708.382	10.89
708.567	10.6
708.751	10.49
708.936	10.46
709.12	10.52
709.305	10.6
709.489	10.54
709.673	10.39
709.858	10.54
710.042	10.54
710.227	10.77
710.411	11.01
710.596	11.49
710.78	11.39
710.964	11.83
711.149	11.93
711.333	12.13
711.517	12.23
711.702	12.5
711.886	12.3
712.07	12.19
712.254	11.84
712.438	11.78
712.623	11.48
712.807	11.87
712.991	11.68
713.175	11.63
713.359	11.53
713.544	11.47
713.728	11.51
713.912	11.39
714.096	11.57
714.28	11.42
714.464	11.49
714.648	11.59
714.832	11.5
715.016	11.38
715.2	11.26
715.384	11.39
715.568	11.8
715.752	11.6
715.936	11.88
716.12	11.87
716.304	12.46
716.488	12.4
716.671	12.31
716.855	12.55
717.039	12.63
717.223	12.63
717.407	12.46
717.59	11.93
717.774	11.86
717.958	11.6
718.142	11.53
718.325	11.38
718.509	11.04
718.693	10.86
718.877	10.58
719.06	10.82
719.244	11.23
719.428	10.99
719.611	10.91
719.795	11.37
719.978	12.1
720.162	12.06
720.345	11.83
720.529	11.92
720.713	11.97
720.896	11.95
721.08	11.91
721.263	11.61
721.446	12.1
721.63	12.34
721.813	11.67
721.997	10.82
722.18	10.66
722.364	10.77
722.547	10.84
722.73	10.75
722.914	10.82
723.097	10.73
723.28	10.85
723.464	10.14
723.647	10.48
723.83	10.87
724.013	10.96
724.197	11.24
724.38	11.13
724.563	10.98
724.746	11.51
724.929	11.63
725.112	11.7
725.296	11.44
725.479	12.07
725.662	11.52
725.845	11.59
726.028	11.45
726.211	11.31
726.394	11.25
726.577	11.65
726.76	11.73
726.943	11.63
727.126	11.66
727.309	11.4
727.492	11.31
727.675	11.6
727.858	11.64
728.041	11.93
728.224	12.09
728.407	12.06
728.589	12.02
728.772	11.4
728.955	11.27
729.138	11.16
729.321	11.61
729.503	11.65
729.686	11.61
729.869	11.77
730.052	11.68
730.234	11.63
730.417	11.58
730.6	11.66
730.782	11.97
730.965	11.92
731.148	11.62
731.33	11.34
731.513	11.27
731.695	11.3
731.878	10.93
732.061	10.76
732.243	10.97
732.426	11.18
732.608	10.87
732.791	11.25
732.973	11.51
733.156	11.66
733.338	11.73
733.52	11.99
733.703	11.85
733.885	12.36
734.068	12.53
734.25	13.08
734.432	12.99
734.615	13.05
734.797	12.76
734.979	12.5
735.162	12.67
735.344	13.05
735.526	13
735.708	13.24
735.891	13.27
736.073	13.07
736.255	12.59
736.437	12.98
736.619	13.01
736.802	13.08
736.984	13.64
737.166	13.61
737.348	13.72
737.53	13.23
737.712	13.39
737.894	13.43
738.076	13.77
738.258	13.75
738.44	13.17
738.622	13.35
738.804	13.07
738.986	12.72
739.168	12.08
739.35	11.89
739.532	12.42
739.714	12.52
739.896	11.81
740.078	11.37
740.259	10.96
740.441	11.63
740.623	11.56
740.805	11.37
740.987	11.1
741.168	11.52
741.35	11.48
741.532	11.39
741.714	10.83
741.895	11.24
742.077	11.45
742.259	11.33
742.44	10.9
742.622	10.9
742.804	11.47
742.985	12.06
743.167	12.04
743.348	12.18
743.53	12.72
743.711	13.38
743.893	13.73
744.075	13.79
744.256	13.66
744.438	13.88
744.619	14.04
744.8	13.8
744.982	13.86
745.163	14.26
745.345	13.95
745.526	13.62
745.707	12.98
745.889	12.48
746.07	11.98
746.252	12.52
746.433	12.59
746.614	12.7
746.795	13.09
746.977	12.62
747.158	12.97
747.339	13.29
747.52	12.68
747.702	12.89
747.883	12.85
748.064	13.47
748.245	12.59
748.426	12.39
748.607	12.22
748.788	11.9
748.97	12.17
749.151	11.34
749.332	11.59
749.513	12.18
749.694	11.96
749.875	12.54
750.056	12.8
750.237	13.07
750.418	13.09
750.599	12.77
750.78	12.19
750.96	11.56
751.141	12.14
751.322	11.62
751.503	11.25
751.684	11.57
751.865	11.16
752.046	10.86
752.226	11.64
752.407	11.18
752.588	11.13
752.769	12.25
752.949	12.73
753.13	13.32
753.311	12.7
753.492	12.42
753.672	12.24
753.853	12.81
754.034	12.97
754.214	12.01
754.395	12.17
754.575	12.32
754.756	12.13
754.937	12.49
755.117	11.78
755.298	12.83
755.478	13.33
755.659	12.96
755.839	11.81
756.02	11.66
756.2	12.01
756.381	11.78
756.561	12.2
756.741	12.34
756.922	11.9
757.102	12.4
757.283	12.5
757.463	12.64
757.643	13.37
757.823	14.33
758.004	14.14
758.184	13.43
758.364	13.49
758.545	13.43
758.725	12.65
758.905	13.47
759.085	13.21
759.265	12.63
759.446	11.11
759.626	11.02
759.806	9.83
759.986	10.23
760.166	11.3
760.346	11.42
760.526	11.5
760.706	11.57
760.886	11
761.066	11.69
761.246	11.79
761.426	13.31
761.606	12.73
761.786	13.68
761.966	13.74
762.146	13.42
762.326	13.67
762.506	13.09
762.686	13.04
762.866	12.63
763.046	11.8
763.225	11.64
763.405	11.18
763.585	11.05
763.765	10.98
763.945	10.59
764.124	10.89
764.304	10.66
764.484	11.26
764.664	11.42
764.843	11.76
765.023	12.04
765.203	11.92
765.382	12.12
765.562	12.75
765.741	12.45
765.921	12.71
766.101	13.16
766.28	13.58
766.46	12.79
766.639	12.66
766.819	12.87
766.998	13.04
767.178	13.13
767.357	13.04
767.537	13.07
767.716	13.59
767.896	13.1
768.075	12.13
768.254	11.98
768.434	12.88
768.613	13.13
768.792	13.05
768.972	12.47
769.151	12.69
769.33	12.61
769.51	12.94
769.689	12.8
769.868	13.27
770.047	13.46
770.226	13.05
770.406	13.36
770.585	13.62
770.764	13.78
770.943	14.61
771.122	15.18
771.301	15.16
771.48	14.79
771.66	14.12
771.839	14.3
772.018	14.53
772.197	15.04
772.376	14.98
772.555	14.66
772.734	14.68
772.913	14.18
773.092	13.96
773.271	14.31
773.449	14.39
773.628	14.95
773.807	14.8
773.986	14.73
774.165	14.58
774.344	13.83
774.523	14.31
774.701	13.74
774.88	13.93
775.059	13.88
775.238	13.55
775.417	13.48
775.595	13.94
775.774	12.83
775.953	12.11
776.131	11.46
776.31	12.12
776.489	11.27
776.667	11.42
776.846	11.31
777.025	11.89
777.203	11.46
777.382	11.39
777.56	10.53
777.739	11.82
777.917	12.85
778.096	12.91
778.274	11.73
778.453	12.22
778.631	12.3
778.81	12.92
778.988	12.17
779.166	12.91
779.345	13.52
779.523	14.48
779.702	14.21
779.88	14.36
780.058	15.18
780.237	15.63
780.415	15.51
780.593	15.52
780.771	14.85
780.95	15.74
781.128	15.94
781.306	15.45
781.484	14.81
781.662	14.72
781.841	14.42
782.019	14.79
782.197	14.32
782.375	14.26
782.553	14.38
782.731	14.84
782.909	13.66
783.087	14.31
783.265	14.91
783.443	14.84
783.621	15.01
783.799	14.26
783.977	13.46
784.155	14.29
784.333	14.44
784.511	14.41
784.689	14.21
784.867	14.01
785.045	13.23
785.223	13.04
785.4	14.29
785.578	14.62
785.756	15.36
785.934	15.36
786.112	15.29
786.289	14.71
786.467	14.91
786.645	13.87
786.823	15.1
787	14.77
787.178	13.67
787.356	12.58
787.533	12.16
787.711	12.22
787.889	11.74
788.066	11.43
788.244	12.67
788.421	13.09
788.599	14.31
788.776	13.75
788.954	13.75
789.131	14.4
789.309	14.66
789.486	14.38
789.664	14.22
789.841	15.02
790.019	15.16
790.196	14.27
790.373	14.22
790.551	13.97
790.728	13.52
790.906	13.92
791.083	13.53
791.26	14.07
791.437	15.56
791.615	16.33
791.792	16.89
791.969	17.91
792.146	17.82
792.324	18.33
792.501	19.6
792.678	20.39
792.855	20.34
793.032	20.26
793.209	19.62
793.387	18.9
793.564	18.03
793.741	17.59
793.918	16.94
794.095	17.54
794.272	15.48
794.449	14.46
794.626	14.42
794.803	14.22
794.98	15.1
795.157	14.94
795.334	15.64
795.511	14.84
795.688	14.13
795.864	14.4
796.041	13.77
796.218	15.43
796.395	15.71
796.572	15.03
796.749	15.35
796.925	14
797.102	13.24
797.279	12.44
797.456	12.99
797.632	13.07
797.809	12.84
797.986	13.18
798.162	12.44
798.339	12.74
798.516	12.74
798.692	11.25
798.869	12.57
799.046	12.81
799.222	12.5
799.399	12.19
799.575	13.09
799.752	12.55
799.928	12.09
800.105	12.51
800.281	11.79
800.458	12.57
800.634	14.69
800.811	15.12
800.987	14.85
801.163	15.79
801.34	18.21
801.516	17.86
801.692	19
801.869	19.52
802.045	19.54
802.221	18.33
802.398	18.39
802.574	16.91
802.75	15.94
802.926	15.72
803.103	15.61
803.279	13.85
803.455	12.3
803.631	12.14
803.807	13.56
803.983	13.43
804.16	13.95
804.336	12.9
804.512	13.3
804.688	13.82
804.864	14.84
805.04	14.23
805.216	15.13
805.392	16.69
805.568	17.28
805.744	16.56
805.92	16.21
806.096	17.49
806.272	18.09
806.448	19.27
806.623	18.49
806.799	19.14
806.975	20.84
807.151	19.53
807.327	19.55
807.503	17.93
807.678	17.06
807.854	16.38
808.03	14.89
808.206	15.9
808.381	15.15
808.557	14.57
808.733	13.72
808.908	12.27
809.084	12.79
809.26	10.76
809.435	12.2
809.611	11.65
809.787	13.41
809.962	14.42
810.138	13.81
810.313	12.64
810.489	14.17
810.664	14.15
810.84	13.2
811.015	12.7
811.191	16.56
811.366	15.69
811.542	16.45
811.717	15.67
811.892	15.06
812.068	15.2
812.243	15.68
812.419	14.58
812.594	15.53
812.769	16.82
812.944	17.15
813.12	15.21
813.295	14.53
813.47	15.2
813.645	14.98
813.821	15.75
813.996	15.82
814.171	16.59
814.346	16.93
814.521	15.11
814.697	15.45
814.872	15.29
815.047	16.13
815.222	17.05
815.397	16.41
815.572	14.97
815.747	13.85
815.922	12.94
816.097	11.63
816.272	12.71
816.447	13.72
816.622	13.22
816.797	12.98
816.972	12.68
817.147	12.23
817.322	12.27
817.496	13.18
817.671	13.8
817.846	14.29
818.021	13.69
818.196	12.22
818.371	12.76
818.545	12.65
818.72	12.72
818.895	11.95
819.069	12.26
819.244	12.94
819.419	13.42
819.594	12.99
819.768	12.78
819.943	14.08
820.117	15.05
820.292	14.89
820.467	14.71
820.641	14.25
820.816	14.04
820.99	13.66
821.165	13.55
821.339	13.55
821.514	13.91
821.688	13.9
821.863	13.59
822.037	13.32
822.212	13.23
822.386	13.19
822.56	13.63
822.735	13.48
822.909	13.66
823.084	13.56
823.258	13.4
823.432	13.07
823.606	12.93
823.781	13.11
823.955	13.07
824.129	13.19
824.303	13.22
824.478	12.9
824.652	13.26
824.826	12.93
825	13.2
825.174	13.17
825.348	13.2
825.523	13.46
825.697	12.97
825.871	13
826.045	12.54
826.219	12.29
826.393	12.75
826.567	12.82
826.741	13.12
826.915	12.54
827.089	12.63
827.263	13.04
827.437	12.73
827.611	13.38
827.784	13.63
827.958	14.13
828.132	14.1
828.306	13.87
828.48	14.26
828.654	14.66
828.827	14.88
829.001	15.54
829.175	15.6
829.349	16.47
829.522	16.23
829.696	17.09
829.87	17.14
830.044	18.63
830.217	19.12
830.391	18.66
830.565	18.58
830.738	19.27
830.912	19.01
831.085	18.07
831.259	17.06
831.432	15.41
831.606	14.42
831.779	14.46
831.953	13.2
832.126	11.89
832.3	11.89
832.473	12.16
832.647	11.46
832.82	11.59
832.994	11.9
833.167	12.42
833.34	13.26
833.514	13.38
833.687	12.81
833.86	12.91
834.034	12.79
834.207	12.82
834.38	12.41
834.553	13.07
834.727	13.26
834.9	14.11
835.073	13.43
835.246	14.56
835.419	14.47
835.593	15.63
835.766	15.12
835.939	15.94
836.112	16
836.285	16.55
836.458	17.65
836.631	17.81
836.804	17.74
836.977	19.49
837.15	19.56
837.323	19.22
837.496	17.85
837.669	18.64
837.842	19.13
838.015	18.88
838.188	19.01
838.361	16.44
838.533	14.73
838.706	12.65
838.879	11.62
839.052	10.01
839.225	10.36
839.398	11.13
839.57	11.86
839.743	13.32
839.916	13.75
840.088	13.44
840.261	15.22
840.434	16.57
840.607	17.92
840.779	17.8
840.952	17.57
841.124	17.62
841.297	18.58
841.47	19.18
841.642	17.79
841.815	18.81
841.987	19.39
842.16	17.42
842.332	19.05
842.505	19.94
842.677	21.2
842.85	21.59
843.022	24.82
843.194	24.51
843.367	24.74
843.539	25.09
843.712	23.25
843.884	24.34
844.056	28.03
844.229	28.28
844.401	26.85
844.573	26.26
844.745	25.32
844.918	23.01
845.09	23.64
845.262	24.45
845.434	23.75
845.606	23.9
845.779	21.62
845.951	18.53
846.123	13.83
846.295	15.39
846.467	17.61
846.639	21.24
846.811	19.5
846.983	19.32
847.155	16.08
847.327	18.3
847.499	20.75
847.671	21.19
847.843	20.13
848.015	23.7
848.187	21.98
848.359	20.73
848.531	18.25
848.703	20.61
848.875	21.13
849.047	23.37
849.218	19.18
849.39	19.57
849.562	19.08
849.734	18.93
849.905	16.14
850.077	17.56
850.249	15.93
850.421	17.67
850.592	14.26
850.764	14.06
850.936	14.58
851.107	17.14
851.279	16.42
851.451	18.93
851.622	22.63
851.794	20.46
851.965	19.91
852.137	25.31
852.308	26.04
852.48	29.04
852.651	29.51
852.823	28.64
852.994	26.58
853.166	22.82
853.337	22.03
853.509	20.49
853.68	25.24
853.851	23.48
854.023	19.1
854.194	14.73
854.365	12.71
854.537	11.8
854.708	16.36
854.879	18.98
855.05	24.56
855.222	23.7
855.393	20.94
855.564	19.92
855.735	22.59
855.906	22.09
856.078	23.09
856.249	25.62
856.42	23.46
856.591	18.84
856.762	21.43
856.933	16.72
857.104	14.86
857.275	19.38
857.446	16.98
857.617	16.68
857.788	16.48
857.959	19.27
858.13	20.78
858.301	24.05
858.472	22.13
858.643	19.68
858.814	23.28
858.985	26.55
859.155	27.2
859.326	32.18
859.497	29.83
859.668	32.49
859.839	31.16
860.009	27.14
860.18	24.7
860.351	28
860.522	27.64
860.692	25.12
860.863	25.01
861.034	27.57
861.204	22.65
861.375	25.33
861.546	25.12
861.716	25.21
861.887	29.17
862.057	30.3
862.228	28.9
862.398	27.32
862.569	31.06
862.739	32.45
862.91	27.61
863.08	32.11
863.251	31.96
863.421	29.55
863.592	30.76
863.762	28.9
863.932	22.48
864.103	20.79
864.273	25.99
864.443	22.93
864.614	21.93
864.784	22.73
864.954	20.86
865.125	21.53
865.295	25.95
865.465	24
865.635	22.92
865.805	33.74
865.976	34.32
866.146	32.92
866.316	33.03
866.486	33.38
866.656	34.01
866.826	33.85
866.996	32.27
867.166	26.89
867.336	26.31
867.506	26.57
867.676	19.76
867.846	25.27
868.016	25.51
868.186	27.38
868.356	28.75
868.526	27.17
868.696	25.55
868.866	27.59
869.036	26.04
869.206	29.34
869.376	25.82
869.545	26.53
869.715	23.41
869.885	17.71
870.055	20.89
870.224	15.72
870.394	16.82
870.564	23.46
870.734	21.63
870.903	25.55
871.073	25.32
871.243	26.66
871.412	29.31
871.582	28.73
871.751	27.67
871.921	22.04
872.091	21.98
872.26	20.38
872.43	15.53
872.599	14.25
872.769	11.92
872.938	10.66
873.108	12.41
873.277	10.62
873.446	7.69
873.616	9.14
873.785	15.72
873.955	15.23
874.124	17.79
874.293	17.39
874.463	19.68
874.632	22.24
874.801	23.35
874.971	22.36
875.14	23.89
875.309	21.83
875.478	23.16
875.647	19.44
875.817	16.09
875.986	14.59
876.155	15.82
876.324	14.26
876.493	13.59
876.662	12.69
876.831	12.67
877	13.75
877.17	17.03
877.339	19.48
877.508	20.07
877.677	23.08
877.846	20.55
878.015	21.64
878.184	20.48
878.352	20.96
878.521	21.05
878.69	20.4
878.859	18.85
879.028	18.36
879.197	16.03
879.366	14.75
879.534	15.37
879.703	16.48
879.872	14.84
880.041	14.77
880.21	13.82
880.378	13.3
880.547	12.37
880.716	12.76
880.884	13.45
881.053	14.08
881.222	13.5
881.39	14
881.559	13.96
881.727	13.8
881.896	13.82
882.065	13.92
882.233	13.21
882.402	14.3
882.57	14.41
882.739	14.21
882.907	14.12
883.076	13.88
883.244	13.42
883.412	13.07
883.581	14
883.749	14.33
883.918	14.6
884.086	16.78
884.254	17.33
884.423	16.94
884.591	17.4
884.759	16.83
884.927	18.39
885.096	17.97
885.264	18.84
885.432	19.58
885.6	19.01
885.769	18.36
885.937	17.59
886.105	17.47
886.273	19.02
886.441	19.94
886.609	22.98
886.777	23.57
886.945	28.22
887.113	29.35
887.281	27.91
887.449	30.45
887.617	31.85
887.785	30.81
887.953	27.31
888.121	25.43
888.289	23.02
888.457	23.13
888.625	22.58
888.793	22.14
888.961	21.18
889.129	19.27
889.296	19.34
889.464	19.48
889.632	19.04
889.8	22.53
889.967	24.81
890.135	26.69
