Data from 2938477_Reflection_2.txt Node
Date: Wed Jun 17 01:25:17 EDT 2015
User: robert
Spectrometer: USB4E03002
Autoset integration time: false
Trigger mode: 4
Integration Time (sec): 1.000000E-1
Scans to average: 10
Electric dark correction enabled: true
Nonlinearity correction enabled: false
Boxcar width: 5
Stray light correction enabled: false
XAxis mode: Wavelengths
Stop averaging: false
Number of Pixels in Spectrum: 3648
>>>>>Begin Spectral Data<<<<<
177.575	-224.32
177.794	-180.28
178.014	-105.7
178.233	-153.12
178.452	-47.09
178.672	40.98
178.891	276.77
179.11	-226.83
179.33	-295.03
179.549	-304.45
179.768	-192.51
179.987	-221.21
180.207	-217.13
180.426	-123.01
180.645	-127.32
180.864	-75.69
181.084	-43.24
181.303	-47.57
181.522	-60.53
181.741	-84
181.96	-76.71
182.179	-122.29
182.398	-117.6
182.618	-135.82
182.837	-3540.19
183.056	45191.67
183.275	238.51
183.494	185.96
183.713	186.97
183.932	160.09
184.151	157.51
184.37	241.08
184.589	214.52
184.808	208.14
185.027	195.79
185.246	218.83
185.465	265.19
185.684	606.63
185.903	-3261.29
186.122	750.94
186.341	852.01
186.56	-1128.57
186.779	-8965.15
186.998	-311.46
187.216	-420.69
187.435	-350.87
187.654	-98.08
187.873	-353.53
188.092	-308.78
188.311	-2440.43
188.53	-278.79
188.748	-1300.31
188.967	-1667.14
189.186	1031.66
189.405	1108.71
189.623	618.8
189.842	1104.35
190.061	552.91
190.28	611.65
190.498	654.87
190.717	-1491.68
190.936	398.45
191.154	192.56
191.373	337.66
191.592	-2965.61
191.81	-4721.74
192.029	-417.29
192.248	1355.98
192.466	513.93
192.685	279.77
192.904	267.54
193.122	163.12
193.341	186.6
193.559	395.55
193.778	252.48
193.996	212.98
194.215	201.61
194.433	170.51
194.652	171.2
194.87	148.83
195.089	153.59
195.307	155.94
195.526	153.76
195.744	162.4
195.963	145.49
196.181	143.09
196.399	126.43
196.618	137.52
196.836	130.58
197.055	177.46
197.273	547.79
197.491	383.9
197.71	292.37
197.928	701.86
198.146	499.59
198.365	13894.74
198.583	2029.67
198.801	-5357.38
199.019	1653.1
199.238	801.95
199.456	343.19
199.674	336.41
199.892	358.89
200.111	394.82
200.329	625.1
200.547	828.64
200.765	794.21
200.983	412.54
201.202	601.74
201.42	1079.47
201.638	1303.22
201.856	425.36
202.074	533.48
202.292	390.7
202.51	229.85
202.728	202.34
202.946	179.47
203.165	148.59
203.383	174.42
203.601	128.03
203.819	149.46
204.037	254.54
204.255	189.65
204.473	885.57
204.691	47.17
204.909	79.31
205.127	63.89
205.345	53.62
205.562	22.45
205.78	6
205.998	-45.01
206.216	-6.5
206.434	-12.99
206.652	-29.38
206.87	-53.18
207.088	-64.56
207.306	-102.54
207.523	-64.92
207.741	-87.92
207.959	-189.18
208.177	-322.63
208.395	-497.6
208.612	-823.36
208.83	-15996.23
209.048	684.69
209.266	377.93
209.483	261.77
209.701	398.41
209.919	333.38
210.136	216.82
210.354	-2522.95
210.572	618.98
210.79	-297.48
211.007	-264.96
211.225	-316.39
211.442	-212.27
211.66	-368.82
211.878	-212.81
212.095	965.24
212.313	-323
212.53	-411.63
212.748	-250.98
212.966	-441.68
213.183	-773.13
213.401	-2348.12
213.618	-943.16
213.836	-417.12
214.053	-552.53
214.271	-1289.91
214.488	-47.26
214.705	43.04
214.923	85.25
215.14	147.81
215.358	91.11
215.575	134.72
215.793	116.75
216.01	99.85
216.227	198.34
216.445	159.24
216.662	148.21
216.879	168.45
217.097	176.47
217.314	211.44
217.531	192.67
217.749	177.57
217.966	151.85
218.183	254.9
218.4	211.72
218.618	135.66
218.835	146.4
219.052	102.22
219.269	91.76
219.487	87.47
219.704	62.29
219.921	47.31
220.138	54.84
220.355	62.01
220.572	47.5
220.79	50.96
221.007	49.47
221.224	48.13
221.441	54.55
221.658	47.68
221.875	47.19
222.092	49.36
222.309	49.28
222.526	48.15
222.743	54.45
222.96	52.28
223.177	51.75
223.394	49.79
223.611	42.08
223.828	38.97
224.045	36.18
224.262	36.52
224.479	33.01
224.696	29.3
224.913	25.93
225.13	22.41
225.347	20.47
225.564	16.65
225.781	14.74
225.997	14.9
226.214	15.86
226.431	15.54
226.648	11.87
226.865	11.82
227.082	11.3
227.298	10.89
227.515	9.91
227.732	10.52
227.949	10.76
228.165	10.1
228.382	8.96
228.599	6.94
228.816	6.8
229.032	7.04
229.249	6.61
229.466	8.98
229.682	10.9
229.899	12.63
230.116	13.04
230.332	15.93
230.549	17.95
230.765	20.88
230.982	24.89
231.199	26.07
231.415	28.52
231.632	30.52
231.848	28.31
232.065	26.37
232.281	24.71
232.498	25.58
232.714	25.27
232.931	22.8
233.147	22.11
233.364	20.34
233.58	19.8
233.797	18.87
234.013	16.57
234.23	16.55
234.446	16.52
234.662	17.38
234.879	15.78
235.095	12.64
235.312	14.8
235.528	14.54
235.744	15.33
235.961	16.54
236.177	17.72
236.393	18.82
236.61	19.55
236.826	19.87
237.042	19.15
237.258	18.9
237.475	20.86
237.691	20.43
237.907	18.07
238.123	17.76
238.339	15.27
238.556	13.09
238.772	14.51
238.988	12.57
239.204	13.11
239.42	13.41
239.636	12.94
239.853	11.43
240.069	11.37
240.285	11.85
240.501	12.51
240.717	13.08
240.933	12.84
241.149	11.92
241.365	12.46
241.581	12.15
241.797	11.94
242.013	12.14
242.229	13.1
242.445	12.74
242.661	12.36
242.877	11.35
243.093	11.76
243.309	12.57
243.525	13.24
243.741	12.33
243.957	11.66
244.173	11.34
244.388	11.14
244.604	10.43
244.82	10.59
245.036	10.35
245.252	10.43
245.468	10.02
245.683	9.46
245.899	9.08
246.115	9.15
246.331	9.31
246.547	9.26
246.762	9.5
246.978	9.63
247.194	9.69
247.409	10.28
247.625	9.89
247.841	9.94
248.057	10.38
248.272	10.09
248.488	9.52
248.703	9.06
248.919	9.88
249.135	9.88
249.35	8.99
249.566	8.8
249.782	9.16
249.997	8.98
250.213	8.76
250.428	9.54
250.644	9.47
250.859	10.29
251.075	10.29
251.29	9.12
251.506	8.4
251.721	9.34
251.937	9.21
252.152	7.97
252.368	8.67
252.583	9.41
252.798	9.28
253.014	10.49
253.229	11.04
253.445	11.23
253.66	11.06
253.875	12.06
254.091	11.19
254.306	11.23
254.521	12.56
254.737	11.62
254.952	10.56
255.167	9.4
255.383	9.5
255.598	9.72
255.813	9.36
256.028	9.79
256.244	8.54
256.459	8.55
256.674	8.09
256.889	7.39
257.104	7.56
257.32	7.3
257.535	7.38
257.75	6.76
257.965	6.28
258.18	6.59
258.395	6.55
258.61	6.63
258.826	6.26
259.041	6.3
259.256	6.17
259.471	6.17
259.686	6.19
259.901	6.34
260.116	6.17
260.331	6.29
260.546	5.79
260.761	5.7
260.976	5.44
261.191	5.59
261.406	5.91
261.621	6.57
261.836	6.36
262.05	6.09
262.265	6.06
262.48	6.72
262.695	6.8
262.91	6.96
263.125	6.5
263.34	7.41
263.555	8.09
263.769	7.9
263.984	7.26
264.199	7.68
264.414	8.18
264.629	7.99
264.843	8.28
265.058	8.38
265.273	7.59
265.488	8.07
265.702	7.77
265.917	7.6
266.132	7.32
266.346	8.44
266.561	8.34
266.776	8.66
266.99	9.2
267.205	8.78
267.42	8.61
267.634	9.26
267.849	8.74
268.063	8.76
268.278	8.3
268.492	8.42
268.707	7.13
268.922	6.96
269.136	6.39
269.351	6.01
269.565	6.83
269.78	7.05
269.994	6.88
270.209	7.11
270.423	6.91
270.637	7.38
270.852	7.05
271.066	7.18
271.281	6.93
271.495	7.36
271.709	7.05
271.924	6.11
272.138	5.94
272.353	6.55
272.567	6.72
272.781	6.81
272.996	6.67
273.21	7.27
273.424	7.27
273.638	8.18
273.853	7.48
274.067	7.32
274.281	7.83
274.495	7.72
274.71	7.35
274.924	6.64
275.138	6.73
275.352	7.09
275.566	6.78
275.781	6.85
275.995	6.67
276.209	6.85
276.423	7.25
276.637	7.05
276.851	7.32
277.065	7.88
277.279	8.14
277.493	8.33
277.707	8.31
277.921	7.81
278.135	8
278.349	7.81
278.563	8.27
278.777	7.79
278.991	7.96
279.205	6.98
279.419	6.69
279.633	7.22
279.847	6.98
280.061	6.49
280.275	6.75
280.489	6.61
280.703	6.08
280.917	6.27
281.131	6.3
281.344	5.95
281.558	6.83
281.772	6.8
281.986	6.84
282.2	7.09
282.414	6.86
282.627	6.81
282.841	6.98
283.055	7.25
283.269	7.02
283.482	7.52
283.696	7.48
283.91	7.07
284.123	6.98
284.337	6.54
284.551	5.79
284.764	6.02
284.978	5.94
285.192	5.58
285.405	4.91
285.619	4.45
285.833	3.73
286.046	4.45
286.26	4.72
286.473	4.8
286.687	4.79
286.9	5.37
287.114	5.61
287.327	5.71
287.541	6.39
287.754	6.95
287.968	7.51
288.181	7.79
288.395	7.23
288.608	7.09
288.822	7.07
289.035	7.6
289.248	7.49
289.462	7.28
289.675	7.18
289.889	6.75
290.102	6.72
290.315	6.59
290.529	6.3
290.742	6.18
290.955	5.87
291.169	5.83
291.382	5.7
291.595	6.36
291.808	6.68
292.022	6.66
292.235	6.55
292.448	6.86
292.661	6.86
292.875	7.12
293.088	7.28
293.301	7.16
293.514	7.01
293.727	7.08
293.94	6.67
294.153	6.6
294.367	6.93
294.58	7.23
294.793	7.28
295.006	7.25
295.219	7.39
295.432	7.24
295.645	7.66
295.858	7.76
296.071	7.5
296.284	7.21
296.497	7.19
296.71	6.8
296.923	6.46
297.136	6.17
297.349	5.96
297.562	5.87
297.775	5.85
297.988	5.87
298.201	5.45
298.414	5.7
298.626	6.54
298.839	6.39
299.052	6.74
299.265	7.14
299.478	7.78
299.691	7.91
299.903	7.98
300.116	7.63
300.329	7.31
300.542	7.94
300.755	7.74
300.967	7.42
301.18	7.9
301.393	8.33
301.605	8.12
301.818	7.5
302.031	7.7
302.243	7.25
302.456	7.66
302.669	8
302.881	7.69
303.094	8.26
303.307	8.19
303.519	7.81
303.732	7.22
303.944	7.1
304.157	7.75
304.37	7.59
304.582	8.25
304.795	8.86
305.007	8.8
305.22	9.07
305.432	8.32
305.645	7.89
305.857	8.23
306.069	8.12
306.282	8.57
306.494	8.17
306.707	8.57
306.919	8.22
307.132	7.7
307.344	7.4
307.556	7.14
307.769	6.62
307.981	6.66
308.193	6.51
308.406	6.94
308.618	6.53
308.83	6.39
309.043	6.22
309.255	6.45
309.467	6.42
309.679	6.56
309.892	6.68
310.104	7.28
310.316	7.42
310.528	7.15
310.74	6.94
310.953	6.84
311.165	7.04
311.377	6.82
311.589	6.7
311.801	6.89
312.013	6.89
312.225	7.33
312.437	7.26
312.649	7.08
312.862	7.48
313.074	7.63
313.286	8.2
313.498	8.11
313.71	8.07
313.922	8.67
314.134	8.58
314.346	8.76
314.558	8.41
314.77	8.49
314.982	8.77
315.193	8.73
315.405	8.54
315.617	8.38
315.829	8.33
316.041	8.58
316.253	7.74
316.465	7.5
316.677	7.52
316.888	7.52
317.1	7.09
317.312	7.29
317.524	7.46
317.736	7.67
317.947	7.8
318.159	7.97
318.371	7.84
318.583	8.46
318.794	8.7
319.006	8.86
319.218	8.63
319.43	9.45
319.641	9.19
319.853	8.99
320.064	8.98
320.276	8.89
320.488	8.44
320.699	8.74
320.911	8.8
321.123	8.8
321.334	8.51
321.546	8.6
321.757	8.06
321.969	8.01
322.18	8.31
322.392	8.25
322.603	7.71
322.815	7.81
323.026	8.18
323.238	7.83
323.449	7.95
323.661	7.87
323.872	7.73
324.083	7.77
324.295	8.14
324.506	7.71
324.718	7.59
324.929	8.03
325.14	7.88
325.352	6.94
325.563	6.98
325.774	7
325.986	7.39
326.197	7.33
326.408	7.18
326.62	6.94
326.831	6.99
327.042	7.32
327.253	7.41
327.464	8.03
327.676	8.6
327.887	8.56
328.098	8.46
328.309	8.19
328.52	8.65
328.732	8.92
328.943	8.92
329.154	8.87
329.365	8.66
329.576	8.85
329.787	8.56
329.998	8.63
330.209	8.8
330.42	8.64
330.631	8.74
330.842	8.28
331.053	8.74
331.264	8.96
331.475	8.84
331.686	9.11
331.897	8.45
332.108	9.02
332.319	8.98
332.53	8.95
332.741	9.04
332.952	9.43
333.163	9.48
333.374	9.1
333.585	8.95
333.795	9.04
334.006	8.79
334.217	9.44
334.428	9.49
334.639	9.21
334.849	9.1
335.06	9.09
335.271	8.56
335.482	8.66
335.692	8.26
335.903	8.37
336.114	8.57
336.325	8.47
336.535	8.45
336.746	8.12
336.957	8.23
337.167	7.99
337.378	7.99
337.589	8.12
337.799	7.84
338.01	8.03
338.22	7.94
338.431	8.17
338.642	8.14
338.852	7.79
339.063	8.05
339.273	8.16
339.484	8.56
339.694	8.57
339.905	8.15
340.115	8.58
340.326	8.76
340.536	8.54
340.746	8.28
340.957	8.08
341.167	8.13
341.378	7.74
341.588	7.15
341.799	6.92
342.009	6.93
342.219	7.2
342.43	7.08
342.64	6.8
342.85	7
343.061	6.84
343.271	7.16
343.481	7.29
343.691	7.3
343.902	7.77
344.112	7.83
344.322	7.98
344.532	7.78
344.743	7.82
344.953	7.94
345.163	7.67
345.373	7.9
345.583	7.66
345.793	7.42
346.004	7.3
346.214	7.28
346.424	7.17
346.634	6.83
346.844	7.01
347.054	7.34
347.264	7.39
347.474	7.55
347.684	7.62
347.894	8.13
348.104	8.62
348.314	8.66
348.524	8.04
348.734	8.24
348.944	8.42
349.154	8.58
349.364	8.05
349.574	8.05
349.784	8.16
349.994	7.77
350.204	7.5
350.413	7.34
350.623	7.36
350.833	8
351.043	7.49
351.253	7.45
351.463	7.18
351.672	7.02
351.882	6.94
352.092	6.91
352.302	7.21
352.511	7.31
352.721	7.28
352.931	7.35
353.141	7.16
353.35	7.48
353.56	7.34
353.77	7.25
353.979	7.4
354.189	7.76
354.399	7.68
354.608	7.36
354.818	7.24
355.027	7
355.237	6.88
355.447	6.94
355.656	7.11
355.866	7.25
356.075	7.26
356.285	7.17
356.494	7.08
356.704	6.86
356.913	6.84
357.123	6.75
357.332	6.87
357.542	6.91
357.751	6.74
357.96	6.62
358.17	6.6
358.379	6.83
358.589	7.03
358.798	6.92
359.007	7.06
359.217	6.81
359.426	6.48
359.635	6.59
359.845	6.38
360.054	6.62
360.263	6.49
360.472	6.53
360.682	6.44
360.891	6.41
361.1	6.44
361.309	6.48
361.519	7.04
361.728	7.37
361.937	7.16
362.146	7.33
362.355	7.45
362.564	7.47
362.774	7.53
362.983	7.59
363.192	7.54
363.401	7.44
363.61	7.48
363.819	7.17
364.028	7.12
364.237	7.19
364.446	7.08
364.655	6.86
364.864	7.13
365.073	7.11
365.282	7.08
365.491	7.1
365.7	7.01
365.909	7.01
366.118	7.12
366.327	7.15
366.536	7.02
366.745	6.96
366.954	6.85
367.162	6.35
367.371	6.18
367.58	6.26
367.789	6.44
367.998	6.55
368.207	6.22
368.415	5.95
368.624	5.83
368.833	6.23
369.042	6.19
369.25	6.22
369.459	6.84
369.668	6.68
369.877	6.62
370.085	6.36
370.294	6.46
370.503	6.46
370.711	6.62
370.92	6.7
371.129	6.61
371.337	6.75
371.546	6.76
371.754	6.5
371.963	6.49
372.171	6.51
372.38	6.33
372.589	6.05
372.797	6.22
373.006	6.09
373.214	6.04
373.423	5.94
373.631	6.03
373.84	6.06
374.048	6.07
374.256	6.4
374.465	6.46
374.673	6.59
374.882	6.68
375.09	6.61
375.298	6.67
375.507	6.65
375.715	6.47
375.923	6.47
376.132	6.42
376.34	6.31
376.548	6.18
376.757	6.09
376.965	6.24
377.173	6.25
377.381	6.28
377.59	6.23
377.798	6.28
378.006	6.37
378.214	6.37
378.423	6.49
378.631	6.72
378.839	6.56
379.047	6.59
379.255	6.25
379.463	6.26
379.671	6.48
379.879	6.47
380.088	6.55
380.296	6.41
380.504	6.45
380.712	6.27
380.92	5.97
381.128	5.95
381.336	5.83
381.544	5.81
381.752	5.71
381.96	5.49
382.168	5.69
382.376	5.71
382.584	5.9
382.791	5.87
382.999	5.97
383.207	6.21
383.415	6.26
383.623	6.14
383.831	6.41
384.039	6.59
384.247	6.41
384.454	6.25
384.662	6.24
384.87	6.16
385.078	6.14
385.285	6.15
385.493	5.93
385.701	5.94
385.909	6.25
386.116	6.13
386.324	6.22
386.532	6.35
386.739	6.34
386.947	6.25
387.155	6.17
387.362	6.22
387.57	5.98
387.778	6.02
387.985	5.91
388.193	5.63
388.4	5.4
388.608	5.17
388.816	5.18
389.023	5.23
389.231	5.23
389.438	5.31
389.646	5.11
389.853	5.22
390.061	5
390.268	5.15
390.475	5.3
390.683	5.42
390.89	5.42
391.098	5.43
391.305	5.56
391.512	5.57
391.72	5.61
391.927	5.63
392.135	5.79
392.342	5.91
392.549	5.82
392.756	5.68
392.964	5.77
393.171	5.72
393.378	5.68
393.586	5.59
393.793	5.59
394	5.59
394.207	5.64
394.414	5.55
394.622	5.72
394.829	5.82
395.036	5.91
395.243	5.88
395.45	6.08
395.657	6.12
395.864	6.05
396.072	6.12
396.279	6.17
396.486	6
396.693	5.99
396.9	5.9
397.107	5.79
397.314	5.74
397.521	5.73
397.728	5.72
397.935	5.89
398.142	5.83
398.349	5.63
398.556	5.45
398.763	5.57
398.97	5.61
399.177	5.52
399.383	5.59
399.59	5.57
399.797	5.6
400.004	5.39
400.211	5.34
400.418	5.56
400.625	5.58
400.831	5.52
401.038	5.63
401.245	5.68
401.452	5.61
401.658	5.48
401.865	5.59
402.072	5.52
402.279	5.52
402.485	5.41
402.692	5.25
402.899	5.37
403.105	5.43
403.312	5.22
403.519	5.01
403.725	5.16
403.932	5.28
404.138	5.26
404.345	5.27
404.552	5.14
404.758	5.25
404.965	5.32
405.171	5.29
405.378	5.21
405.584	5.27
405.791	5.41
405.997	5.35
406.204	5.22
406.41	5.07
406.617	5.02
406.823	5.21
407.029	5.15
407.236	5.1
407.442	4.9
407.649	5.1
407.855	5.05
408.061	4.96
408.268	4.9
408.474	5.06
408.68	4.93
408.887	4.96
409.093	4.92
409.299	4.75
409.505	4.73
409.712	4.92
409.918	4.86
410.124	4.88
410.33	4.93
410.537	4.97
410.743	4.81
410.949	4.99
411.155	4.9
411.361	4.94
411.567	4.8
411.773	4.89
411.98	4.77
412.186	4.48
412.392	4.53
412.598	4.38
412.804	4.32
413.01	4.46
413.216	4.41
413.422	4.6
413.628	4.58
413.834	4.72
414.04	4.53
414.246	4.52
414.452	4.71
414.658	4.59
414.864	4.74
415.07	4.78
415.275	4.59
415.481	4.56
415.687	4.41
415.893	4.35
416.099	4.31
416.305	4.39
416.511	4.49
416.716	4.43
416.922	4.48
417.128	4.32
417.334	4.27
417.539	4.31
417.745	4.25
417.951	4.27
418.157	4.32
418.362	4.39
418.568	4.28
418.774	4.23
418.979	4.21
419.185	4.21
419.391	4.2
419.596	4.17
419.802	4.12
420.008	4.25
420.213	5
420.419	4.91
420.624	4.77
420.83	4.71
421.035	4.62
421.241	4.65
421.446	4.59
421.652	4.64
421.857	4.62
422.063	4.7
422.268	4.59
422.474	3.86
422.679	3.87
422.885	3.91
423.09	3.93
423.295	4.02
423.501	4
423.706	4.01
423.911	3.93
424.117	4.02
424.322	3.96
424.527	4
424.733	3.95
424.938	3.93
425.143	4.1
425.349	4.09
425.554	4.02
425.759	4.04
425.964	4.09
426.169	4.22
426.375	4.21
426.58	4.19
426.785	4.16
426.99	4.17
427.195	4.16
427.4	3.97
427.605	4.1
427.811	4.18
428.016	4.11
428.221	4.02
428.426	4.03
428.631	4.02
428.836	4.16
429.041	4.13
429.246	4.07
429.451	4.1
429.656	4.1
429.861	4.16
430.066	4.04
430.271	4.11
430.476	4.15
430.681	4.02
430.886	3.94
431.09	3.88
431.295	3.91
431.5	3.99
431.705	3.98
431.91	4.04
432.115	3.98
432.32	4.04
432.524	4.04
432.729	3.98
432.934	4
433.139	4.03
433.343	3.96
433.548	3.97
433.753	3.98
433.958	3.94
434.162	3.96
434.367	3.99
434.572	3.98
434.776	3.95
434.981	3.98
435.186	3.9
435.39	3.85
435.595	3.84
435.799	3.8
436.004	3.68
436.209	3.69
436.413	3.7
436.618	3.76
436.822	3.8
437.027	3.81
437.231	3.74
437.436	3.81
437.64	3.86
437.845	3.79
438.049	3.84
438.253	3.86
438.458	3.85
438.662	3.76
438.867	3.74
439.071	3.76
439.275	3.76
439.48	3.77
439.684	3.8
439.888	3.74
440.093	3.78
440.297	3.73
440.501	3.8
440.706	3.85
440.91	3.84
441.114	3.76
441.318	3.77
441.523	3.7
441.727	3.83
441.931	3.81
442.135	3.85
442.339	3.89
442.543	3.89
442.748	3.85
442.952	3.78
443.156	3.88
443.36	3.79
443.564	3.7
443.768	3.71
443.972	3.65
444.176	3.7
444.38	3.76
444.584	3.76
444.788	3.69
444.992	3.69
445.196	3.72
445.4	3.66
445.604	3.65
445.808	3.67
446.012	3.71
446.216	3.67
446.42	3.72
446.624	3.67
446.828	3.67
447.032	3.68
447.235	3.7
447.439	3.63
447.643	3.67
447.847	3.84
448.051	3.77
448.254	3.7
448.458	3.67
448.662	3.54
448.866	3.56
449.069	3.59
449.273	3.69
449.477	3.65
449.681	3.75
449.884	3.63
450.088	3.59
450.292	3.65
450.495	3.67
450.699	3.82
450.902	3.74
451.106	3.71
451.31	3.6
451.513	3.53
451.717	3.53
451.92	3.51
452.124	3.58
452.327	3.53
452.531	3.59
452.734	3.72
452.938	3.7
453.141	3.78
453.345	3.79
453.548	3.84
453.752	3.9
453.955	3.88
454.158	3.82
454.362	3.8
454.565	3.75
454.769	3.67
454.972	3.46
455.175	3.45
455.379	3.5
455.582	3.54
455.785	3.56
455.988	3.55
456.192	3.57
456.395	3.57
456.598	3.57
456.801	3.63
457.005	3.56
457.208	3.56
457.411	3.51
457.614	3.49
457.817	3.51
458.021	3.48
458.224	3.53
458.427	3.49
458.63	3.52
458.833	3.54
459.036	3.52
459.239	3.59
459.442	3.62
459.645	3.67
459.848	3.7
460.051	3.61
460.254	3.71
460.457	3.75
460.66	3.83
460.863	3.86
461.066	3.87
461.269	3.93
461.472	3.88
461.675	3.96
461.878	3.9
462.081	3.87
462.284	3.89
462.486	3.76
462.689	3.61
462.892	3.51
463.095	3.41
463.298	3.51
463.5	3.47
463.703	3.49
463.906	3.49
464.109	3.45
464.311	3.42
464.514	3.54
464.717	3.58
464.92	3.61
465.122	3.61
465.325	3.73
465.528	3.65
465.73	3.67
465.933	3.69
466.135	3.81
466.338	3.94
466.541	3.94
466.743	3.88
466.946	3.92
467.148	3.8
467.351	3.88
467.553	3.76
467.756	3.85
467.958	3.91
468.161	4
468.363	3.77
468.566	3.77
468.768	3.72
468.971	3.75
469.173	3.78
469.375	3.94
469.578	3.93
469.78	4.01
469.983	3.95
470.185	3.91
470.387	3.74
470.59	3.78
470.792	3.76
470.994	3.83
471.196	3.76
471.399	3.7
471.601	3.64
471.803	3.64
472.005	3.56
472.208	3.68
472.41	3.62
472.612	3.82
472.814	3.82
473.016	3.88
473.218	3.87
473.421	3.97
473.623	3.91
473.825	3.93
474.027	3.9
474.229	3.96
474.431	3.83
474.633	3.86
474.835	3.69
475.037	3.69
475.239	3.59
475.441	3.57
475.643	3.52
475.845	3.61
476.047	3.7
476.249	3.75
476.451	3.8
476.653	3.77
476.855	3.81
477.057	3.87
477.258	3.91
477.46	3.86
477.662	3.86
477.864	3.83
478.066	3.86
478.268	3.78
478.469	3.73
478.671	3.71
478.873	3.74
479.075	3.68
479.276	3.7
479.478	3.63
479.68	3.65
479.882	3.65
480.083	3.62
480.285	3.57
480.487	3.58
480.688	3.58
480.89	3.52
481.091	3.49
481.293	3.45
481.495	3.39
481.696	3.39
481.898	3.38
482.099	3.36
482.301	3.38
482.502	3.36
482.704	3.32
482.905	3.31
483.107	3.33
483.308	3.31
483.51	3.34
483.711	3.37
483.913	3.41
484.114	3.42
484.315	3.44
484.517	3.42
484.718	3.39
484.92	3.41
485.121	3.4
485.322	3.4
485.524	3.43
485.725	3.42
485.926	3.41
486.127	3.39
486.329	3.42
486.53	3.42
486.731	3.44
486.932	3.5
487.134	3.55
487.335	3.55
487.536	3.54
487.737	3.52
487.938	3.52
488.139	3.55
488.341	3.55
488.542	3.58
488.743	3.59
488.944	3.6
489.145	3.59
489.346	3.6
489.547	3.63
489.748	3.67
489.949	3.7
490.15	3.73
490.351	3.72
490.552	3.7
490.753	3.64
490.954	3.63
491.155	3.62
491.356	3.66
491.557	3.66
491.758	3.69
491.959	3.67
492.159	3.68
492.36	3.64
492.561	3.66
492.762	3.71
492.963	3.79
493.164	3.84
493.364	3.79
493.565	3.75
493.766	3.7
493.967	3.63
494.167	3.65
494.368	3.64
494.569	3.66
494.769	3.64
494.97	3.6
495.171	3.61
495.371	3.59
495.572	3.62
495.773	3.66
495.973	3.7
496.174	3.76
496.375	3.74
496.575	3.79
496.776	3.78
496.976	3.8
497.177	3.87
497.377	3.95
497.578	4.03
497.778	4.09
497.979	4.11
498.179	4.12
498.38	4.14
498.58	4.14
498.78	4.2
498.981	4.28
499.181	4.29
499.382	4.33
499.582	4.25
499.782	4.19
499.983	4.19
500.183	4.21
500.383	4.35
500.584	4.35
500.784	4.38
500.984	4.35
501.184	4.35
501.385	4.38
501.585	4.33
501.785	4.29
501.985	4.3
502.185	4.35
502.386	4.37
502.586	4.31
502.786	4.29
502.986	4.35
503.186	4.31
503.386	4.29
503.586	4.31
503.786	4.31
503.987	4.34
504.187	4.35
504.387	4.34
504.587	4.29
504.787	4.27
504.987	4.26
505.187	4.25
505.387	4.24
505.587	4.19
505.786	4.2
505.986	4.24
506.186	4.31
506.386	4.32
506.586	4.27
506.786	4.3
506.986	4.2
507.186	4.27
507.386	4.32
507.585	4.32
507.785	4.37
507.985	4.38
508.185	4.4
508.384	4.4
508.584	4.45
508.784	4.49
508.984	4.45
509.183	4.53
509.383	4.54
509.583	4.58
509.782	4.63
509.982	4.68
510.182	4.74
510.381	4.71
510.581	4.7
510.781	4.73
510.98	4.8
511.18	4.78
511.379	4.78
511.579	4.79
511.778	4.71
511.978	4.67
512.177	4.62
512.377	4.58
512.576	4.62
512.776	4.67
512.975	4.62
513.175	4.61
513.374	4.74
513.573	4.83
513.773	4.8
513.972	4.89
514.172	4.97
514.371	4.97
514.57	4.94
514.77	4.94
514.969	4.93
515.168	4.99
515.367	4.97
515.567	5.01
515.766	5.01
515.965	5.06
516.164	5.1
516.364	5.1
516.563	5.19
516.762	5.25
516.961	5.28
517.16	5.3
517.359	5.28
517.559	5.22
517.758	5.18
517.957	5.18
518.156	5.19
518.355	5.13
518.554	5.15
518.753	5.07
518.952	5.08
519.151	5.04
519.35	5.06
519.549	5.1
519.748	5.21
519.947	5.25
520.146	5.24
520.345	5.28
520.544	5.34
520.743	5.35
520.942	5.42
521.141	5.34
521.339	5.4
521.538	5.42
521.737	5.39
521.936	5.37
522.135	5.36
522.333	5.37
522.532	5.33
522.731	5.36
522.93	5.35
523.129	5.36
523.327	5.39
523.526	5.44
523.725	5.45
523.923	5.39
524.122	5.44
524.321	5.41
524.519	5.41
524.718	5.42
524.917	5.4
525.115	5.42
525.314	5.45
525.512	5.45
525.711	5.41
525.909	5.41
526.108	5.46
526.306	5.46
526.505	5.5
526.703	5.54
526.902	5.57
527.1	5.61
527.299	5.62
527.497	5.64
527.696	5.7
527.894	5.74
528.092	5.81
528.291	5.86
528.489	5.87
528.688	5.93
528.886	6
529.084	6.03
529.283	6.08
529.481	6.14
529.679	6.15
529.877	6.14
530.076	6.18
530.274	6.15
530.472	6.16
530.67	6.25
530.869	6.21
531.067	6.13
531.265	6.13
531.463	6.11
531.661	6.1
531.859	6.15
532.057	6.18
532.255	6.18
532.454	6.17
532.652	6.18
532.85	6.17
533.048	6.21
533.246	6.28
533.444	6.36
533.642	6.42
533.84	6.48
534.038	6.48
534.236	6.58
534.434	6.65
534.632	6.77
534.83	6.81
535.027	6.85
535.225	6.93
535.423	7.01
535.621	7.04
535.819	7.04
536.017	7.1
536.215	7.11
536.412	7.09
536.61	7.09
536.808	7.09
537.006	7.15
537.203	7.12
537.401	7.1
537.599	7.04
537.797	7.08
537.994	7.08
538.192	7.06
538.39	7.09
538.587	7.07
538.785	7.1
538.983	7.15
539.18	7.18
539.378	7.21
539.575	7.25
539.773	7.28
539.97	7.24
540.168	7.33
540.366	7.39
540.563	7.45
540.761	7.53
540.958	7.58
541.155	7.59
541.353	7.64
541.55	7.71
541.748	7.8
541.945	7.87
542.143	7.93
542.34	7.98
542.537	8.04
542.735	8.08
542.932	8.13
543.129	8.22
543.327	8.25
543.524	8.37
543.721	8.38
543.919	8.41
544.116	8.47
544.313	8.58
544.51	8.63
544.708	8.63
544.905	8.71
545.102	8.71
545.299	8.75
545.496	8.84
545.693	8.81
545.891	8.9
546.088	9
546.285	8.98
546.482	9.05
546.679	9.06
546.876	9.06
547.073	9.17
547.27	9.28
547.467	9.34
547.664	9.38
547.861	9.44
548.058	9.48
548.255	9.55
548.452	9.79
548.649	9.74
548.846	9.92
549.043	10.19
549.24	10.26
549.437	10.38
549.633	10.52
549.83	10.55
550.027	10.66
550.224	10.79
550.421	10.72
550.618	10.63
550.814	10.89
551.011	10.96
551.208	10.94
551.405	10.95
551.601	10.96
551.798	10.96
551.995	11.15
552.191	11.27
552.388	11.35
552.585	11.46
552.781	11.58
552.978	11.57
553.175	11.6
553.371	11.67
553.568	11.75
553.764	11.82
553.961	11.89
554.157	11.88
554.354	11.94
554.55	12.03
554.747	12.16
554.943	12.24
555.14	12.27
555.336	12.28
555.533	12.42
555.729	12.47
555.926	12.53
556.122	12.41
556.318	12.55
556.515	12.52
556.711	12.6
556.907	12.55
557.104	12.6
557.3	12.69
557.496	12.75
557.693	12.8
557.889	12.87
558.085	12.9
558.281	13.24
558.478	13.23
558.674	13.32
558.87	13.37
559.066	13.55
559.262	13.65
559.459	13.83
559.655	13.96
559.851	13.98
560.047	14.02
560.243	14.12
560.439	14.13
560.635	14.22
560.831	14.25
561.027	14.27
561.223	14.35
561.419	14.39
561.615	14.44
561.811	14.48
562.007	14.54
562.203	14.75
562.399	14.89
562.595	14.91
562.791	15.06
562.987	15.14
563.183	15.21
563.379	15.25
563.575	15.31
563.771	15.31
563.966	15.43
564.162	15.62
564.358	15.54
564.554	15.74
564.75	15.92
564.945	16.03
565.141	16.11
565.337	16.18
565.533	16.35
565.728	16.43
565.924	16.56
566.12	16.66
566.315	16.64
566.511	16.84
566.707	16.89
566.902	16.87
567.098	16.87
567.293	16.94
567.489	17.09
567.684	17.13
567.88	17.24
568.076	17.2
568.271	17.36
568.467	17.53
568.662	17.64
568.858	17.69
569.053	17.75
569.248	17.76
569.444	17.89
569.639	18.05
569.835	18.01
570.03	18.12
570.225	18.33
570.421	18.38
570.616	18.36
570.812	18.36
571.007	18.3
571.202	18.39
571.397	18.59
571.593	18.69
571.788	18.72
571.983	18.89
572.178	19.01
572.374	19.05
572.569	19.19
572.764	19.28
572.959	19.29
573.154	19.48
573.35	19.65
573.545	19.66
573.74	19.73
573.935	19.89
574.13	19.94
574.325	19.96
574.52	20.07
574.715	20.03
574.91	20.17
575.105	20.31
575.3	20.42
575.495	20.38
575.69	20.43
575.885	20.65
576.08	20.6
576.275	20.63
576.47	20.77
576.665	20.85
576.86	20.97
577.055	20.97
577.25	21.07
577.444	21.1
577.639	21.21
577.834	21.34
578.029	21.27
578.224	21.41
578.418	21.55
578.613	21.5
578.808	21.51
579.003	21.44
579.197	21.65
579.392	21.74
579.587	21.88
579.781	21.99
579.976	22.05
580.171	22.11
580.365	22.12
580.56	22.22
580.755	22.35
580.949	22.58
581.144	22.69
581.338	22.59
581.533	22.65
581.727	22.71
581.922	22.72
582.116	22.72
582.311	22.77
582.505	22.74
582.7	22.68
582.894	22.69
583.089	22.54
583.283	22.58
583.478	22.71
583.672	22.77
583.866	22.78
584.061	22.85
584.255	22.95
584.449	23.09
584.644	23.06
584.838	23.16
585.032	23.28
585.226	23.41
585.421	23.48
585.615	23.64
585.809	23.74
586.003	23.93
586.198	24.02
586.392	23.98
586.586	24.04
586.78	24.36
586.974	24.37
587.168	24.34
587.363	24.32
587.557	24.47
587.751	24.5
587.945	24.44
588.139	24.33
588.333	24.45
588.527	24.66
588.721	24.69
588.915	24.75
589.109	24.85
589.303	24.93
589.497	25.13
589.691	25.06
589.885	25.15
590.079	25.15
590.273	25.25
590.466	25.34
590.66	25.32
590.854	25.33
591.048	25.3
591.242	25.31
591.436	25.45
591.629	25.4
591.823	25.55
592.017	25.42
592.211	25.54
592.404	25.6
592.598	25.47
592.792	25.42
592.986	25.45
593.179	25.46
593.373	25.55
593.567	25.58
593.76	25.64
593.954	25.64
594.147	25.86
594.341	25.97
594.535	26.06
594.728	26.09
594.922	26.22
595.115	26.2
595.309	26.21
595.502	26.2
595.696	26.13
595.889	26.17
596.083	26.12
596.276	26.03
596.47	26.07
596.663	26.04
596.856	26.08
597.05	26.09
597.243	26.16
597.437	26.24
597.63	26.29
597.823	26.27
598.017	26.32
598.21	26.34
598.403	26.38
598.596	26.46
598.79	26.46
598.983	26.61
599.176	26.62
599.369	26.53
599.563	26.55
599.756	26.69
599.949	26.86
600.142	26.78
600.335	27
600.528	27
600.722	26.99
600.915	26.99
601.108	27
601.301	27.08
601.494	27.25
601.687	27.28
601.88	27.28
602.073	27.45
602.266	27.51
602.459	27.38
602.652	27.55
602.845	27.43
603.038	27.32
603.231	27.4
603.424	27.49
603.617	27.4
603.809	27.42
604.002	27.41
604.195	27.29
604.388	27.28
604.581	27.42
604.774	27.37
604.966	27.41
605.159	27.58
605.352	27.55
605.545	27.46
605.737	27.69
605.93	27.64
606.123	27.67
606.316	27.8
606.508	27.89
606.701	27.99
606.894	27.95
607.086	27.95
607.279	27.96
607.471	28.05
607.664	28.13
607.857	28.12
608.049	28.24
608.242	28.37
608.434	28.29
608.627	28.32
608.819	28.2
609.012	28.25
609.204	28.35
609.397	28.44
609.589	28.42
609.782	28.46
609.974	28.49
610.166	28.4
610.359	28.43
610.551	28.56
610.743	28.67
610.936	28.74
611.128	28.9
611.32	29.01
611.513	29.11
611.705	29.16
611.897	29.21
612.09	29.34
612.282	29.56
612.474	29.53
612.666	29.45
612.858	29.5
613.051	29.7
613.243	29.69
613.435	29.59
613.627	29.53
613.819	29.53
614.011	29.73
614.203	29.58
614.395	29.46
614.588	29.38
614.78	29.46
614.972	29.48
615.164	29.4
615.356	29.28
615.548	29.28
615.74	29.43
615.932	29.58
616.124	29.44
616.315	29.5
616.507	29.58
616.699	29.91
616.891	29.98
617.083	29.94
617.275	29.88
617.467	29.85
617.659	30.15
617.85	30.1
618.042	29.94
618.234	30.11
618.426	30.24
618.618	30.25
618.809	30.01
619.001	30.07
619.193	30.27
619.384	30.32
619.576	30.39
619.768	30.21
619.959	30.25
620.151	30.44
620.343	30.31
620.534	30.22
620.726	30.34
620.917	30.32
621.109	30.29
621.301	30.08
621.492	30.08
621.684	30.36
621.875	30.39
622.067	30.3
622.258	30.21
622.45	30.24
622.641	30.33
622.832	30.42
623.024	30.54
623.215	30.45
623.407	30.48
623.598	30.64
623.789	30.6
623.981	30.73
624.172	30.85
624.363	30.82
624.555	30.93
624.746	30.95
624.937	30.94
625.129	30.94
625.32	31.08
625.511	31.07
625.702	31.11
625.893	31.05
626.085	30.98
626.276	30.95
626.467	30.99
626.658	30.86
626.849	30.77
627.04	30.61
627.231	30.62
627.422	30.45
627.614	30.54
627.805	30.34
627.996	30.33
628.187	30.3
628.378	30.35
628.569	30.41
628.76	30.53
628.951	30.54
629.142	30.54
629.332	30.57
629.523	30.85
629.714	30.91
629.905	31.2
630.096	31.14
630.287	31.2
630.478	31.17
630.669	31.24
630.859	31.24
631.05	31.46
631.241	31.68
631.432	31.74
631.623	31.66
631.813	31.62
632.004	31.6
632.195	31.82
632.385	31.96
632.576	31.95
632.767	31.89
632.957	31.86
633.148	31.9
633.339	31.9
633.529	31.92
633.72	31.87
633.91	32.04
634.101	32.02
634.292	31.84
634.482	31.82
634.673	31.91
634.863	31.83
635.054	31.83
635.244	31.71
635.435	31.68
635.625	31.72
635.815	31.79
636.006	31.48
636.196	31.49
636.387	31.59
636.577	31.76
636.767	31.73
636.958	31.9
637.148	31.91
637.338	32.05
637.529	32.02
637.719	31.87
637.909	32.03
638.099	32.25
638.29	32.23
638.48	32.29
638.67	32.08
638.86	32.18
639.05	32.18
639.241	32.28
639.431	32.08
639.621	32.13
639.811	32.27
640.001	32.13
640.191	32.18
640.381	32.15
640.571	32.23
640.761	32.27
640.951	32.19
641.141	32.24
641.331	31.93
641.521	32
641.711	31.81
641.901	31.96
642.091	31.96
642.281	31.9
642.471	31.88
642.661	31.92
642.851	32.05
643.041	32.2
643.231	32.24
643.42	32.49
643.61	32.61
643.8	32.84
643.99	32.84
644.18	32.93
644.369	32.96
644.559	33.1
644.749	32.97
644.939	33.1
645.128	33.03
645.318	33.04
645.508	33.29
645.697	33.24
645.887	33.33
646.076	33.38
646.266	33.46
646.456	33.63
646.645	33.61
646.835	33.78
647.024	33.57
647.214	33.66
647.403	33.67
647.593	33.39
647.782	33.47
647.972	33.33
648.161	33.43
648.351	33.23
648.54	33.01
648.73	33.17
648.919	33.04
649.108	33.05
649.298	33
649.487	32.94
649.677	33.2
649.866	33.29
650.055	33.71
650.244	33.7
650.434	33.85
650.623	34.01
650.812	33.79
651.002	33.79
651.191	33.91
651.38	33.91
651.569	33.97
651.758	33.9
651.947	34.02
652.137	33.73
652.326	33.47
652.515	33.54
652.704	33.51
652.893	33.7
653.082	33.8
653.271	33.69
653.46	33.79
653.649	33.9
653.838	34.02
654.027	33.87
654.216	33.78
654.405	33.87
654.594	33.95
654.783	33.92
654.972	34.12
655.161	34.46
655.35	34.5
655.539	34.56
655.728	34.51
655.916	34.51
656.105	34.48
656.294	34.58
656.483	34.36
656.672	34.29
656.86	34.1
657.049	33.89
657.238	33.65
657.427	33.55
657.615	33.59
657.804	33.41
657.993	33.37
658.181	33.52
658.37	33.67
658.559	33.7
658.747	33.64
658.936	33.75
659.125	33.54
659.313	33.5
659.502	33.53
659.69	33.45
659.879	33.69
660.067	33.72
660.256	33.77
660.444	33.7
660.633	33.78
660.821	33.91
661.01	34.04
661.198	34.35
661.387	34.39
661.575	34.57
661.763	34.33
661.952	34.26
662.14	34.28
662.328	34.18
662.517	34.26
662.705	34.22
662.893	34.23
663.082	34.41
663.27	34.61
663.458	34.7
663.646	34.65
663.834	35.07
664.023	35.16
664.211	35.13
664.399	35.03
664.587	34.79
664.775	35.11
664.963	35.16
665.152	34.97
665.34	35.01
665.528	34.98
665.716	34.99
665.904	34.83
666.092	34.8
666.28	34.79
666.468	34.78
666.656	34.82
666.844	34.69
667.032	34.41
667.22	34.43
667.408	34.16
667.596	34.16
667.784	34
667.971	34.13
668.159	34.24
668.347	34.33
668.535	34.23
668.723	34.15
668.911	34.27
669.098	34.47
669.286	34.73
669.474	34.73
669.662	34.81
669.849	35.06
670.037	35.03
670.225	34.85
670.413	34.69
670.6	35.08
670.788	35.44
670.976	35.25
671.163	35.26
671.351	34.95
671.538	35.35
671.726	35.41
671.913	35.44
672.101	35.42
672.289	35.49
672.476	35.71
672.664	35.71
672.851	35.57
673.039	35.41
673.226	35.28
673.413	35.28
673.601	34.97
673.788	34.93
673.976	34.94
674.163	34.94
674.35	35.19
674.538	35.24
674.725	35.06
674.912	35.33
675.1	35.62
675.287	35.89
675.474	36.12
675.662	36.19
675.849	36.18
676.036	36.03
676.223	36.24
676.411	36.22
676.598	36.19
676.785	36.22
676.972	36.13
677.159	36.03
677.346	35.93
677.533	35.85
677.721	35.81
677.908	35.98
678.095	36.25
678.282	36.13
678.469	36.08
678.656	36.09
678.843	36.02
679.03	36.08
679.217	36.36
679.404	36.27
679.591	36.07
679.778	36.31
679.964	36.36
680.151	36.25
680.338	36.21
680.525	35.99
680.712	35.98
680.899	36
681.086	35.84
681.272	35.73
681.459	35.94
681.646	36.29
681.833	36.05
682.02	35.82
682.206	35.83
682.393	35.78
682.58	36.03
682.766	35.73
682.953	35.94
683.14	35.71
683.326	35.62
683.513	35.53
683.7	35.38
683.886	35.55
684.073	35.7
684.259	35.67
684.446	35.78
684.632	35.85
684.819	36.06
685.005	35.89
685.192	36.04
685.378	36.17
685.565	36.24
685.751	36.31
685.938	36.16
686.124	36.06
686.31	36.08
686.497	36.04
686.683	35.98
686.87	35.83
687.056	35.95
687.242	35.77
687.429	35.73
687.615	35.86
687.801	35.78
687.987	35.98
688.174	36.12
688.36	36.23
688.546	36.38
688.732	36.49
688.918	36.56
689.105	36.29
689.291	36.73
689.477	36.57
689.663	36.49
689.849	36.65
690.035	36.57
690.221	36.58
690.407	36.63
690.593	36.34
690.779	36.05
690.965	36.31
691.151	36.58
691.337	36.61
691.523	36.82
691.709	36.56
691.895	36.45
692.081	36.58
692.267	36.59
692.453	36.48
692.639	36.53
692.825	36.76
693.011	36.55
693.196	36.69
693.382	36.76
693.568	37.17
693.754	37.4
693.94	37.26
694.125	37.2
694.311	37.34
694.497	37.5
694.682	37.6
694.868	37.82
695.054	37.91
695.239	37.74
695.425	37.35
695.611	37.06
695.796	37.12
695.982	37.48
696.168	37.42
696.353	36.97
696.539	37.12
696.724	37.16
696.91	36.78
697.095	36.95
697.281	36.95
697.466	37.22
697.652	36.98
697.837	37.01
698.023	37.03
698.208	37.06
698.393	37.09
698.579	37.01
698.764	36.9
698.949	37
699.135	37.1
699.32	37.26
699.505	37.01
699.691	37.39
699.876	37.48
700.061	37.27
700.246	37.09
700.432	37.22
700.617	37.11
700.802	37.44
700.987	37.51
701.172	37.63
701.358	37.34
701.543	37.39
701.728	37.3
701.913	37.31
702.098	37.31
702.283	37.74
702.468	37.57
702.653	37.74
702.838	37.48
703.023	37.7
703.208	37.36
703.393	37.55
703.578	37.78
703.763	37.77
703.948	37.79
704.133	37.87
704.318	37.36
704.503	37.63
704.688	37.38
704.873	37.37
705.057	37.13
705.242	36.99
705.427	37.06
705.612	36.77
705.797	36.86
705.981	36.7
706.166	36.79
706.351	36.85
706.536	37.19
706.72	37.26
706.905	37.24
707.09	37.63
707.274	38.18
707.459	38.13
707.644	38.33
707.828	38.48
708.013	38.66
708.197	38.63
708.382	38.71
708.567	38.35
708.751	38.14
708.936	38.26
709.12	37.93
709.305	37.91
709.489	37.6
709.673	37.6
709.858	37.12
710.042	37.13
710.227	37.06
710.411	37.32
710.596	37.29
710.78	37.48
710.964	37.7
711.149	37.53
711.333	37.12
711.517	37.15
711.702	37.5
711.886	37.37
712.07	36.98
712.254	37.29
712.438	37.37
712.623	37.5
712.807	37.63
712.991	37.38
713.175	37.62
713.359	37.81
713.544	37.87
713.728	37.42
713.912	37.62
714.096	37.72
714.28	37.46
714.464	37.36
714.648	37.57
714.832	37.77
715.016	38.2
715.2	38.22
715.384	37.8
715.568	37.77
715.752	38.02
715.936	38.37
716.12	38.51
716.304	38.66
716.488	38.47
716.671	38.43
716.855	38.05
717.039	37.85
717.223	38.12
717.407	38.6
717.59	39.04
717.774	38.89
717.958	39.06
718.142	39.02
718.325	39.26
718.509	39.49
718.693	39.23
718.877	39.26
719.06	39.19
719.244	39.11
719.428	39.09
719.611	38.54
719.795	38.62
719.978	37.97
720.162	37.69
720.345	37.42
720.529	37.39
720.713	37.17
720.896	37.44
721.08	37.21
721.263	36.69
721.446	36.36
721.63	36.99
721.813	37.31
721.997	37.72
722.18	37.75
722.364	37.78
722.547	37.91
722.73	38.29
722.914	38.02
723.097	37.91
723.28	38.47
723.464	38.75
723.647	38.63
723.83	38.33
724.013	38.17
724.197	38.72
724.38	38.33
724.563	38.39
724.746	37.83
724.929	37.76
725.112	37.7
725.296	37.38
725.479	37.09
725.662	37.12
725.845	36.7
726.028	36.72
726.211	36.39
726.394	36.99
726.577	36.79
726.76	37.32
726.943	37.66
727.126	37.75
727.309	37.76
727.492	37.78
727.675	37.73
727.858	38.1
728.041	38.21
728.224	38.37
728.407	37.84
728.589	38.01
728.772	38.05
728.955	37.7
729.138	37.95
729.321	37.84
729.503	37.97
729.686	37.96
729.869	38.17
730.052	38.01
730.234	38.14
730.417	38.35
730.6	38.22
730.782	37.8
730.965	38.16
731.148	38.32
731.33	38.65
731.513	38.75
731.695	38.37
731.878	38.09
732.061	38.45
732.243	38.32
732.426	38.25
732.608	38.46
732.791	39.1
732.973	38.8
733.156	38.54
733.338	38.35
733.52	38.29
733.703	38.66
733.885	38.44
734.068	38.09
734.25	38.38
734.432	38.37
734.615	38.11
734.797	37.99
734.979	38.25
735.162	37.92
735.344	38.13
735.526	38.49
735.708	38.58
735.891	39.09
736.073	39.18
736.255	39
736.437	39.14
736.619	39.31
736.802	39.45
736.984	39.66
737.166	40.23
737.348	40.38
737.53	39.97
737.712	39.52
737.894	39.53
738.076	39.43
738.258	39.09
738.44	38.53
738.622	38.55
738.804	38.27
738.986	37.66
739.168	37.18
739.35	37.2
739.532	36.67
739.714	36.64
739.896	36.58
740.078	36.97
740.259	36.85
740.441	37.49
740.623	37.31
740.805	37.04
740.987	38.02
741.168	38.31
741.35	38.42
741.532	39.09
741.714	39.05
741.895	38.83
742.077	38.63
742.259	38.95
742.44	39.04
742.622	39.38
742.804	39.96
742.985	39.3
743.167	39.49
743.348	38.97
743.53	38.4
743.711	38.11
743.893	37.84
744.075	37.04
744.256	37.26
744.438	37.21
744.619	36.73
744.8	36.33
744.982	36.74
745.163	36.95
745.345	37.2
745.526	37.9
745.707	38.57
745.889	38.95
746.07	39.29
746.252	39.41
746.433	39.56
746.614	40.06
746.795	40.24
746.977	39.58
747.158	39.45
747.339	39.49
747.52	39.15
747.702	39.14
747.883	38.64
748.064	39.23
748.245	38.98
748.426	38.78
748.607	37.99
748.788	37.57
748.97	38.01
749.151	38.05
749.332	37.57
749.513	38.13
749.694	38.65
749.875	39.2
750.056	38.94
750.237	38.67
750.418	38.69
750.599	38.85
750.78	39.43
750.96	39.34
751.141	38.92
751.322	38.89
751.503	38.52
751.684	37.63
751.865	37.17
752.046	37.28
752.226	37.84
752.407	37.27
752.588	37.58
752.769	37.72
752.949	37.28
753.13	37.81
753.311	38.95
753.492	39.09
753.672	39.17
753.853	40.05
754.034	40.23
754.214	39.77
754.395	40.37
754.575	40.98
754.756	40.14
754.937	40.92
755.117	40.89
755.298	39.68
755.478	39.26
755.659	39.35
755.839	38.63
756.02	37.7
756.2	37.89
756.381	37.6
756.561	37.21
756.741	37.31
756.922	37.03
757.102	36.99
757.283	37.05
757.463	36.8
757.643	36.85
757.823	37.84
758.004	39.4
758.184	39.54
758.364	39.82
758.545	39.35
758.725	39.36
758.905	40.06
759.085	39.45
759.265	39.81
759.446	40.31
759.626	40.65
759.806	40.07
759.986	39.05
760.166	38.14
760.346	38.53
760.526	38.72
760.706	39.06
760.886	38.29
761.066	38.59
761.246	38.44
761.426	38.56
761.606	38.53
761.786	38.41
761.966	38.35
762.146	38.97
762.326	38.76
762.506	38.73
762.686	38.64
762.866	38.8
763.046	39.02
763.225	39.27
763.405	39.29
763.585	39.29
763.765	39.34
763.945	39.27
764.124	38.98
764.304	38.76
764.484	39.27
764.664	39.21
764.843	39.13
765.023	38.89
765.203	38.65
765.382	38.24
765.562	38.71
765.741	38.76
765.921	39.11
766.101	39.63
766.28	40.38
766.46	40.11
766.639	40.08
766.819	39.97
766.998	40.4
767.178	40.41
767.357	41.03
767.537	40.53
767.716	40.02
767.896	40.01
768.075	40.08
768.254	39.08
768.434	38.95
768.613	39.06
768.792	39.21
768.972	38.75
769.151	38.27
769.33	37.79
769.51	37.9
769.689	38.25
769.868	38.43
770.047	37.79
770.226	38.29
770.406	38.17
770.585	38.4
770.764	38.18
770.943	38.91
771.122	39.31
771.301	39.49
771.48	39.05
771.66	39.4
771.839	39.93
772.018	40.3
772.197	41
772.376	41.46
772.555	41.51
772.734	41.61
772.913	40.33
773.092	40.57
773.271	40.92
773.449	41.45
773.628	41.6
773.807	40.66
773.986	41.24
774.165	40.57
774.344	40.37
774.523	40.5
774.701	40.22
774.88	41.37
775.059	41.82
775.238	41.55
775.417	41.99
775.595	42.3
775.774	42.17
775.953	41.88
776.131	41.61
776.31	40.82
776.489	40.45
776.667	42.28
776.846	42.02
777.025	40.92
777.203	40.5
777.382	40.38
777.56	39.81
777.739	40.4
777.917	40.2
778.096	40.86
778.274	41.59
778.453	41.95
778.631	40.75
778.81	40.27
778.988	41.24
779.166	41.81
779.345	41.89
779.523	41.98
779.702	41
779.88	40.32
780.058	39.86
780.237	39.64
780.415	39.08
780.593	38.69
780.771	39.54
780.95	39.46
781.128	39.5
781.306	39.28
781.484	39.25
781.662	39.86
781.841	40.08
782.019	39.84
782.197	39.93
782.375	39.98
782.553	40.78
782.731	40.66
782.909	40.5
783.087	41.19
783.265	40.74
783.443	41.13
783.621	41.58
783.799	42.34
783.977	42.92
784.155	43.08
784.333	43.45
784.511	42.71
784.689	42.16
784.867	42.18
785.045	41.59
785.223	41.65
785.4	41.49
785.578	40.74
785.756	40.11
785.934	39.1
786.112	39.04
786.289	38.09
786.467	38.11
786.645	37.56
786.823	37.89
787	37.19
787.178	37.19
787.356	37.17
787.533	36.63
787.711	37.75
787.889	37.89
788.066	37.87
788.244	38.58
788.421	39.08
788.599	39.55
788.776	39.19
788.954	39.16
789.131	39.85
789.309	39.81
789.486	41.01
789.664	40.39
789.841	40.57
790.019	40.01
790.196	39.34
790.373	38.36
790.551	38.3
790.728	38.35
790.906	39.43
791.083	38.4
791.26	38.83
791.437	38.37
791.615	37.35
791.792	38.59
791.969	39.95
792.146	40.69
792.324	41.93
792.501	42.43
792.678	42.39
792.855	42.41
793.032	43.16
793.209	42.96
793.387	42.61
793.564	44.16
793.741	43.18
793.918	43.16
794.095	43.17
794.272	41.42
794.449	41.38
794.626	41.12
794.803	40.95
794.98	40.29
795.157	40.13
795.334	40.01
795.511	39.04
795.688	39.05
795.864	37.84
796.041	38
796.218	38.93
796.395	38.36
796.572	37.6
796.749	36.21
796.925	37.2
797.102	37.06
797.279	37.69
797.456	37.95
797.632	37.65
797.809	37.82
797.986	36.6
798.162	36.85
798.339	37.43
798.516	39.29
798.692	40.61
798.869	39.96
799.046	40.24
799.222	40.56
799.399	40.61
799.575	40.87
799.752	41.82
799.928	42.82
800.105	42.85
800.281	41.68
800.458	40.63
800.634	39.04
800.811	38.67
800.987	38.35
801.163	38.25
801.34	38.27
801.516	38.66
801.692	38.15
801.869	38.43
802.045	38.5
802.221	40.05
802.398	40.28
802.574	42.22
802.75	41.21
802.926	41.48
803.103	41.34
803.279	42.25
803.455	42.61
803.631	43.31
803.807	42.74
803.983	43.42
804.16	43.04
804.336	42.65
804.512	42.42
804.688	44.07
804.864	44.06
805.04	43.77
805.216	42.74
805.392	42.3
805.568	40.35
805.744	41.1
805.92	40.76
806.096	41.58
806.272	41.49
806.448	41.16
806.623	40.54
806.799	39.96
806.975	40.32
807.151	41.09
807.327	39.07
807.503	40.17
807.678	40.25
807.854	38.9
808.03	37.65
808.206	37.5
808.381	37.72
808.557	37.7
808.733	39.1
808.908	39.71
809.084	38.73
809.26	40.68
809.435	40.21
809.611	40.15
809.787	41.73
809.962	41.69
810.138	42.96
810.313	42.49
810.489	42.81
810.664	42.22
810.84	41.4
811.015	42.04
811.191	42.95
811.366	43.65
811.542	43.85
811.717	43.31
811.892	44.06
812.068	43.63
812.243	43.91
812.419	44.08
812.594	43.73
812.769	44.31
812.944	44.03
813.12	44.24
813.295	46.24
813.47	45.7
813.645	45.23
813.821	44.91
813.996	46.08
814.171	46.41
814.346	46.89
814.521	47.02
814.697	46.29
814.872	46.73
815.047	44.22
815.222	41.26
815.397	41.26
815.572	41.42
815.747	42.38
815.922	41.25
816.097	40.39
816.272	40.82
816.447	40.4
816.622	40.81
816.797	41.13
816.972	41.75
817.147	43.12
817.322	42.54
817.496	42.53
817.671	42
817.846	42.37
818.021	41.92
818.196	41.2
818.371	41.15
818.545	40.18
818.72	39.92
818.895	39.37
819.069	39
819.244	40.27
819.419	40.77
819.594	40.31
819.768	39.74
819.943	39.6
820.117	39.63
820.292	39.43
820.467	39.08
820.641	39.1
820.816	39.34
820.99	38.97
821.165	38.35
821.339	38.1
821.514	37.91
821.688	37.85
821.863	38.02
822.037	37.88
822.212	37.7
822.386	37.79
822.56	37.5
822.735	37.62
822.909	37.73
823.084	37.86
823.258	37.93
823.432	38.21
823.606	38.07
823.781	38.12
823.955	38.12
824.129	38.39
824.303	38.43
824.478	38.59
824.652	38.31
824.826	38.04
825	37.86
825.174	37.62
825.348	37.24
825.523	37.46
825.697	36.96
825.871	36.9
826.045	36.37
826.219	36.29
826.393	36.46
826.567	36.62
826.741	36.99
826.915	37.19
827.089	36.97
827.263	37.13
827.437	37.81
827.611	38.46
827.784	38.27
827.958	39.11
828.132	39.77
828.306	40.07
828.48	40.14
828.654	40.47
828.827	41.19
829.001	41.34
829.175	41.38
829.349	40.29
829.522	40.33
829.696	41.32
829.87	40.79
830.044	39.99
830.217	39.33
830.391	39.63
830.565	39.53
830.738	38.66
830.912	39.39
831.085	40.27
831.259	40.77
831.432	40.64
831.606	39.71
831.779	39.64
831.953	39.69
832.126	39.16
832.3	38.47
832.473	38.15
832.647	38.35
832.82	37.71
832.994	37.48
833.167	37.89
833.34	37.84
833.514	38.24
833.687	38.65
833.86	38.7
834.034	38.98
834.207	39.31
834.38	38.59
834.553	38.68
834.727	39.13
834.9	39.51
835.073	38.85
835.246	38.32
835.419	37.96
835.593	37.84
835.766	37.36
835.939	36.64
836.112	36.34
836.285	37.7
836.458	38.12
836.631	38.59
836.804	37.86
836.977	38.82
837.15	38.24
837.323	37.87
837.496	37.28
837.669	36.9
837.842	39.87
838.015	41.64
838.188	39.84
838.361	38.49
838.533	39.04
838.706	39.21
838.879	38.53
839.052	42.4
839.225	41.73
839.398	43.94
839.57	46.6
839.743	46.76
839.916	45.88
840.088	45.65
840.261	45.97
840.434	45.31
840.607	43.94
840.779	44.74
840.952	42.51
841.124	43.97
841.297	43.61
841.47	43.41
841.642	41.65
841.815	40.2
841.987	42.36
842.16	42.39
842.332	41.54
842.505	43.96
842.677	44.12
842.85	45.03
843.022	46.94
843.194	47.02
843.367	44.85
843.539	44.22
843.712	47.47
843.884	46.7
844.056	45.2
844.229	47.84
844.401	47.84
844.573	46.21
844.745	47.81
844.918	44.89
845.09	44.68
845.262	44.82
845.434	44.66
845.606	43.54
845.779	46.65
845.951	48.19
846.123	46.52
846.295	46.75
846.467	48.92
846.639	43.85
846.811	46.56
846.983	44.87
847.155	46.34
847.327	46.35
847.499	45.96
847.671	43.96
847.843	46.05
848.015	46.05
848.187	45.54
848.359	43.31
848.531	46.76
848.703	44.04
848.875	44.88
849.047	44.74
849.218	47.82
849.39	47.91
849.562	48.05
849.734	47.39
849.905	50.7
850.077	49.15
850.249	50.02
850.421	48.42
850.592	51.35
850.764	52.74
850.936	54.02
851.107	51.53
851.279	51.76
851.451	50.91
851.622	47.36
851.794	43.81
851.965	46.86
852.137	48.83
852.308	50.95
852.48	47.61
852.651	53.56
852.823	51.77
852.994	57.75
853.166	57.61
853.337	58.37
853.509	60.4
853.68	63.58
853.851	63.83
854.023	59.85
854.194	54.47
854.365	55.47
854.537	48.05
854.708	50.84
854.879	46.91
855.05	47.18
855.222	48.66
855.393	47.92
855.564	45.44
855.735	46.45
855.906	52.3
856.078	53.82
856.249	54.14
856.42	55.11
856.591	53.38
856.762	52.18
856.933	50.15
857.104	49.46
857.275	52.2
857.446	55.54
857.617	51.03
857.788	50.57
857.959	53.11
858.13	52.66
858.301	55.76
858.472	54.68
858.643	58.18
858.814	56.97
858.985	52.65
859.155	53.74
859.326	51.96
859.497	54.58
859.668	52.62
859.839	54.37
860.009	53.92
860.18	50.88
860.351	50.94
860.522	46.72
860.692	45.48
860.863	51.4
861.034	51.66
861.204	51.69
861.375	45.93
861.546	46.39
861.716	45.59
861.887	52.51
862.057	53.67
862.228	56.02
862.398	55.75
862.569	54.99
862.739	55.1
862.91	55.12
863.08	55.11
863.251	57.52
863.421	56.32
863.592	58.91
863.762	55.46
863.932	53.58
864.103	50.02
864.273	50.48
864.443	57.15
864.614	53.24
864.784	47.97
864.954	47.3
865.125	50.32
865.295	51.11
865.465	49.5
865.635	48.58
865.805	51.19
865.976	58.53
866.146	60.94
866.316	57.79
866.486	58.93
866.656	60.22
866.826	59.77
866.996	57.15
867.166	58.95
867.336	58.27
867.506	55.89
867.676	55.97
867.846	49.36
868.016	47.37
868.186	48.98
868.356	48.56
868.526	51.25
868.696	49.65
868.866	52.25
869.036	47.45
869.206	45.9
869.376	48.3
869.545	46.58
869.715	47.08
869.885	47.24
870.055	45.98
870.224	49.66
870.394	44.4
870.564	42.99
870.734	43.88
870.903	48.45
871.073	49.73
871.243	48.16
871.412	49.95
871.582	52.51
871.751	53.84
871.921	50.72
872.091	45.81
872.26	43.32
872.43	43.59
872.599	42.67
872.769	37.32
872.938	40.1
873.108	40.52
873.277	34.57
873.446	35.83
873.616	37.24
873.785	41.43
873.955	42.82
874.124	48.23
874.293	49.76
874.463	49.34
874.632	55.1
874.801	51.76
874.971	55.99
875.14	59.39
875.309	54.57
875.478	53.73
875.647	54.92
875.817	57.93
875.986	55.35
876.155	58.02
876.324	57.78
876.493	58.91
876.662	58.01
876.831	54.91
877	54.98
877.17	55.84
877.339	55.14
877.508	51.18
877.677	47.19
877.846	50.63
878.015	50.73
878.184	53.32
878.352	48.74
878.521	48.97
878.69	49.67
878.859	51.46
879.028	52.65
879.197	51.75
879.366	51.36
879.534	48.72
879.703	48.59
879.872	45.83
880.041	42.79
880.21	43.23
880.378	42.5
880.547	42.57
880.716	40.05
880.884	40.26
881.053	39.23
881.222	39.14
881.39	40.52
881.559	39.79
881.727	40.11
881.896	39.99
882.065	40.97
882.233	41.39
882.402	41.26
882.57	41.87
882.739	41.04
882.907	41.37
883.076	41.26
883.244	40.73
883.412	40.04
883.581	39.95
883.749	40.7
883.918	39.41
884.086	39.13
884.254	38.61
884.423	38.54
884.591	38.57
884.759	38.89
884.927	40.75
885.096	41.21
885.264	43.08
885.432	43.12
885.6	43
885.769	44.31
885.937	45.28
886.105	47.05
886.273	48.96
886.441	52.19
886.609	51.49
886.777	49.91
886.945	52.32
887.113	51.62
887.281	53.1
887.449	53.04
887.617	54.89
887.785	56.93
887.953	53.48
888.121	53.04
888.289	53.27
888.457	55.74
888.625	57.32
888.793	55.52
888.961	56.65
889.129	58.2
889.296	56.92
889.464	54.82
889.632	52
889.8	57
889.967	56.34
890.135	52.03
