Data from 2938516_Reflection_1.txt Node
Date: Tue Jun 16 22:32:58 EDT 2015
User: robert
Spectrometer: USB4E03002
Autoset integration time: false
Trigger mode: 4
Integration Time (sec): 1.000000E-1
Scans to average: 10
Electric dark correction enabled: true
Nonlinearity correction enabled: false
Boxcar width: 5
Stray light correction enabled: false
XAxis mode: Wavelengths
Stop averaging: false
Number of Pixels in Spectrum: 3648
>>>>>Begin Spectral Data<<<<<
177.575	73.28
177.794	42.22
178.014	41.72
178.233	51.96
178.452	88.44
178.672	31.73
178.891	-483.94
179.11	205.91
179.33	464.19
179.549	26.31
179.768	11.13
179.987	57.37
180.207	-8.86
180.426	2.16
180.645	-649.16
180.864	133.64
181.084	87.92
181.303	104.5
181.522	94.81
181.741	87.37
181.96	67.35
182.179	73.66
182.398	73.3
182.618	49.88
182.837	53.69
183.056	21.2
183.275	45.39
183.494	-53.53
183.713	228.18
183.932	395.32
184.151	342.59
184.37	1014.08
184.589	-42.29
184.808	42.06
185.027	98.4
185.246	77.48
185.465	116.39
185.684	77.62
185.903	112.11
186.122	93.04
186.341	103.24
186.56	111.26
186.779	177.29
186.998	242.71
187.216	416.23
187.435	227.76
187.654	203.65
187.873	254
188.092	262.43
188.311	183.26
188.53	120.19
188.748	-181.56
188.967	-2455.91
189.186	-163.68
189.405	0.31
189.623	-50.48
189.842	-27.93
190.061	-36.69
190.28	-52.4
190.498	-15.85
190.717	22.03
190.936	53.6
191.154	68.83
191.373	78.05
191.592	81.22
191.81	84.13
192.029	113.84
192.248	107.97
192.466	111.66
192.685	141.62
192.904	238.07
193.122	309.54
193.341	-172.05
193.559	-57.19
193.778	-62.03
193.996	-61.62
194.215	-334.53
194.433	-231.14
194.652	-426.17
194.87	1646.18
195.089	193.05
195.307	137.57
195.526	103.93
195.744	116.24
195.963	140.17
196.181	114.62
196.399	95.76
196.618	106.62
196.836	74.5
197.055	68.73
197.273	88.4
197.491	113.28
197.71	79.93
197.928	94.91
198.146	111.17
198.365	73.26
198.583	85.08
198.801	105.67
199.019	66.96
199.238	71.51
199.456	117.61
199.674	56.96
199.892	40.16
200.111	61.92
200.329	34.12
200.547	15.67
200.765	18.76
200.983	18.83
201.202	1.99
201.42	-5.62
201.638	7.92
201.856	37.61
202.074	39.57
202.292	54.05
202.51	56.51
202.728	56.11
202.946	100.23
203.165	96.7
203.383	114.35
203.601	113.21
203.819	171.46
204.037	157.58
204.255	117.61
204.473	142.09
204.691	128.48
204.909	144.46
205.127	204.82
205.345	187.63
205.562	183.12
205.78	153.86
205.998	151.97
206.216	127.89
206.434	133.8
206.652	213.05
206.87	207.36
207.088	220.51
207.306	194.07
207.523	123.86
207.741	150.26
207.959	145.83
208.177	131.06
208.395	111.12
208.612	93.76
208.83	82.47
209.048	81.98
209.266	74.04
209.483	59.9
209.701	60.12
209.919	63.13
210.136	42.5
210.354	31.78
210.572	26.74
210.79	26.82
211.007	29.4
211.225	29.65
211.442	29.39
211.66	21.52
211.878	24.5
212.095	12.82
212.313	13.3
212.53	13.15
212.748	11.05
212.966	12.44
213.183	29.35
213.401	24.39
213.618	28.93
213.836	24.24
214.053	32.93
214.271	39.06
214.488	66.5
214.705	66.75
214.923	85.97
215.14	64.51
215.358	47.02
215.575	32.37
215.793	30.46
216.01	30.64
216.227	29.13
216.445	24.28
216.662	14.11
216.879	32.86
217.097	21.23
217.314	-2.99
217.531	5.49
217.749	5.95
217.966	23.86
218.183	24.58
218.4	12.94
218.618	5.4
218.835	6.14
219.052	-10.97
219.269	-28.46
219.487	-24.8
219.704	-9.84
219.921	-3.42
220.138	6.67
220.355	-0.3
220.572	-0.6
220.79	10.83
221.007	24.47
221.224	24.83
221.441	31.54
221.658	36.91
221.875	43.63
222.092	46.3
222.309	49.19
222.526	41.67
222.743	37.15
222.96	36.79
223.177	30.83
223.394	31.29
223.611	28.63
223.828	30.59
224.045	30.02
224.262	25.11
224.479	21.96
224.696	19.99
224.913	18.83
225.13	21.4
225.347	21.87
225.564	19.92
225.781	16.76
225.997	15.86
226.214	15.46
226.431	14.5
226.648	13.52
226.865	13.23
227.082	12.8
227.298	12.18
227.515	11.19
227.732	10.39
227.949	10.97
228.165	9.52
228.382	9.59
228.599	9.17
228.816	9.02
229.032	10.07
229.249	9.87
229.466	10.47
229.682	9.95
229.899	10
230.116	9.3
230.332	8.07
230.549	10.47
230.765	10.08
230.982	9.62
231.199	11.25
231.415	9.83
231.632	10.89
231.848	9.34
232.065	11.34
232.281	9.75
232.498	9.96
232.714	9.66
232.931	8.43
233.147	7.06
233.364	7.46
233.58	5.08
233.797	4.85
234.013	4.08
234.23	4.98
234.446	5.71
234.662	7.27
234.879	8.84
235.095	10.76
235.312	12.25
235.528	15
235.744	15.74
235.961	17.21
236.177	19.17
236.393	21.3
236.61	21.37
236.826	19.73
237.042	18.4
237.258	16.58
237.475	15.88
237.691	15.39
237.907	13.37
238.123	12.11
238.339	11.73
238.556	12.13
238.772	10.41
238.988	10.63
239.204	11.27
239.42	11.64
239.636	11.55
239.853	10.88
240.069	11.32
240.285	11.41
240.501	11.68
240.717	11.34
240.933	11.36
241.149	11.1
241.365	10.4
241.581	9.85
241.797	9.27
242.013	9.44
242.229	9.54
242.445	8.81
242.661	8.65
242.877	8.3
243.093	8.46
243.309	8.07
243.525	7.96
243.741	8.32
243.957	8.93
244.173	9.07
244.388	9.33
244.604	9.36
244.82	9.13
245.036	9.41
245.252	9.48
245.468	9.14
245.683	8.92
245.899	8.76
246.115	8.81
246.331	8.59
246.547	8.51
246.762	8.41
246.978	8.7
247.194	8.75
247.409	8.56
247.625	8.38
247.841	8.22
248.057	8.28
248.272	8.83
248.488	8.67
248.703	8.82
248.919	9.41
249.135	9.72
249.35	9.11
249.566	9.28
249.782	8.37
249.997	8.76
250.213	9.86
250.428	9.65
250.644	9.17
250.859	8.98
251.075	9.39
251.29	8.5
251.506	8.03
251.721	8.08
251.937	8.45
252.152	9.24
252.368	8.87
252.583	8.89
252.798	9.69
253.014	10.06
253.229	10.39
253.445	9.52
253.66	9.99
253.875	9.38
254.091	9.4
254.306	9.55
254.521	9.15
254.737	9.22
254.952	8.69
255.167	7.66
255.383	7.47
255.598	7.54
255.813	7.57
256.028	7.28
256.244	7.54
256.459	7.12
256.674	6.42
256.889	7.2
257.104	6.65
257.32	6.45
257.535	6.32
257.75	6.33
257.965	6.13
258.18	6.27
258.395	6.35
258.61	6.29
258.826	6.55
259.041	6.75
259.256	6.33
259.471	6.57
259.686	6.96
259.901	7.15
260.116	7.02
260.331	7.19
260.546	7.11
260.761	6.8
260.976	7.05
261.191	6.83
261.406	6.29
261.621	6.54
261.836	6.68
262.05	6.59
262.265	6.86
262.48	7.29
262.695	7.24
262.91	7.16
263.125	7.17
263.34	7.3
263.555	7.11
263.769	7.87
263.984	7.17
264.199	7.1
264.414	6.41
264.629	6.12
264.843	5.86
265.058	6.35
265.273	6.72
265.488	7.75
265.702	7.59
265.917	7.55
266.132	7.66
266.346	8.22
266.561	7.72
266.776	7.67
266.99	7.37
267.205	7.73
267.42	6.94
267.634	6.41
267.849	5.87
268.063	5.61
268.278	5.49
268.492	4.87
268.707	4.71
268.922	4.91
269.136	5.65
269.351	5.8
269.565	5.67
269.78	6.26
269.994	6.19
270.209	6.38
270.423	6.02
270.637	6.31
270.852	6.81
271.066	6.39
271.281	6.7
271.495	6.21
271.709	6.3
271.924	6.06
272.138	5.93
272.353	6.7
272.567	6.3
272.781	6.75
272.996	6.44
273.21	6.03
273.424	6.41
273.638	5.98
273.853	5.76
274.067	5.9
274.281	6.21
274.495	6.45
274.71	5.74
274.924	5.76
275.138	6.01
275.352	6.01
275.566	6.31
275.781	6.32
275.995	6.35
276.209	6.71
276.423	6.63
276.637	6.31
276.851	6.24
277.065	6.11
277.279	6.27
277.493	6.22
277.707	5.86
277.921	5.7
278.135	6.25
278.349	6.43
278.563	6.21
278.777	6.02
278.991	6.77
279.205	6.26
279.419	6.26
279.633	6.2
279.847	6.39
280.061	6.87
280.275	6.97
280.489	6.73
280.703	6.53
280.917	6.6
281.131	6.59
281.344	5.85
281.558	6.16
281.772	6.2
281.986	5.91
282.2	6.04
282.414	5.56
282.627	5.36
282.841	5.45
283.055	5.47
283.269	5.37
283.482	5.53
283.696	5.75
283.91	5.22
284.123	5.31
284.337	5.7
284.551	5.71
284.764	6.11
284.978	5.96
285.192	5.76
285.405	5.99
285.619	6.11
285.833	6.26
286.046	6.72
286.26	6.94
286.473	7.39
286.687	7.42
286.9	6.89
287.114	7.05
287.327	7.34
287.541	7.3
287.754	7.2
287.968	7.45
288.181	7.4
288.395	6.7
288.608	7.05
288.822	6.83
289.035	6.43
289.248	7.06
289.462	6.93
289.675	6.89
289.889	6.79
290.102	6.88
290.315	6.48
290.529	6.54
290.742	7.25
290.955	7.11
291.169	7.07
291.382	7.27
291.595	6.89
291.808	7.05
292.022	7
292.235	7.25
292.448	7.45
292.661	7.79
292.875	7.47
293.088	6.95
293.301	7
293.514	6.56
293.727	6.92
293.94	6.81
294.153	6.83
294.367	6.97
294.58	7
294.793	7.04
295.006	6.64
295.219	6.67
295.432	6.7
295.645	6.6
295.858	7.08
296.071	6.9
296.284	6.82
296.497	6.66
296.71	6.8
296.923	6.83
297.136	6.73
297.349	7.19
297.562	7.28
297.775	7.19
297.988	7.5
298.201	7.43
298.414	7.26
298.626	7.63
298.839	7.76
299.052	7.32
299.265	7.61
299.478	7.39
299.691	7.18
299.903	7.33
300.116	7.48
300.329	6.95
300.542	6.95
300.755	7.4
300.967	7.04
301.18	7.41
301.393	7.37
301.605	7.26
301.818	7.5
302.031	7.53
302.243	7.72
302.456	7.48
302.669	8.06
302.881	7.89
303.094	7.59
303.307	7.74
303.519	7.48
303.732	8.11
303.944	7.94
304.157	7.75
304.37	7.15
304.582	7.06
304.795	7.24
305.007	7.2
305.22	7.29
305.432	7.62
305.645	7.82
305.857	7.49
306.069	7.29
306.282	7.36
306.494	7.32
306.707	7.88
306.919	7.65
307.132	7.83
307.344	7.8
307.556	7.66
307.769	7.35
307.981	7.15
308.193	7.55
308.406	7.23
308.618	7.11
308.83	7.41
309.043	7.65
309.255	7.64
309.467	7.48
309.679	7.49
309.892	7.65
310.104	7.69
310.316	7.53
310.528	7.39
310.74	7.5
310.953	7.59
311.165	7.64
311.377	7.65
311.589	8.12
311.801	8.51
312.013	8.71
312.225	8.6
312.437	8.63
312.649	9.12
312.862	8.9
313.074	9.12
313.286	9.05
313.498	9.08
313.71	8.35
313.922	8.12
314.134	7.38
314.346	7
314.558	7.17
314.77	7.35
314.982	7.1
315.193	7.65
315.405	8.05
315.617	8.34
315.829	7.95
316.041	8.39
316.253	8.08
316.465	8.41
316.677	8.34
316.888	8.5
317.1	8.38
317.312	8.24
317.524	7.98
317.736	7.64
317.947	8.07
318.159	8.55
318.371	8.69
318.583	8.16
318.794	7.82
319.006	7.66
319.218	6.95
319.43	7.22
319.641	7.49
319.853	6.9
320.064	6.8
320.276	6.4
320.488	5.95
320.699	5.85
320.911	6.22
321.123	7.22
321.334	7.75
321.546	8.64
321.757	8.05
321.969	7.99
322.18	8.15
322.392	8.22
322.603	8.32
322.815	8.21
323.026	8.36
323.238	8.42
323.449	8.42
323.661	7.82
323.872	7.69
324.083	8.51
324.295	8.77
324.506	9.63
324.718	9.38
324.929	9.15
325.14	9.65
325.352	9.41
325.563	9.65
325.774	9.53
325.986	10.03
326.197	9.91
326.408	9.68
326.62	9.83
326.831	9.04
327.042	9.15
327.253	8.72
327.464	8.2
327.676	8.23
327.887	8.48
328.098	7.95
328.309	7.96
328.52	7.82
328.732	7.38
328.943	6.96
329.154	7.22
329.365	7.08
329.576	7.76
329.787	8.26
329.998	7.79
330.209	7.75
330.42	8.22
330.631	7.96
330.842	7.91
331.053	8.65
331.264	8.43
331.475	8.56
331.686	8.75
331.897	8.27
332.108	7.95
332.319	8.7
332.53	8.75
332.741	8.6
332.952	8.58
333.163	8.6
333.374	8.23
333.585	8.1
333.795	7.78
334.006	8.16
334.217	8.16
334.428	8.33
334.639	8
334.849	8.04
335.06	8.35
335.271	7.77
335.482	7.68
335.692	7.43
335.903	7.81
336.114	8.11
336.325	7.64
336.535	8.1
336.746	7.66
336.957	8.21
337.167	7.72
337.378	7.79
337.589	8.37
337.799	8.83
338.01	9.3
338.22	9.09
338.431	8.69
338.642	8.77
338.852	8.48
339.063	8.87
339.273	8.5
339.484	8.53
339.694	8.16
339.905	8.44
340.115	8.2
340.326	7.9
340.536	8.09
340.746	8.34
340.957	8.11
341.167	8.02
341.378	7.69
341.588	7.46
341.799	7.35
342.009	7.29
342.219	6.93
342.43	6.69
342.64	6.68
342.85	6.78
343.061	7.07
343.271	7.35
343.481	7.52
343.691	7.71
343.902	7.71
344.112	8.04
344.322	8.01
344.532	7.99
344.743	8.25
344.953	8.08
345.163	8.46
345.373	7.98
345.583	7.69
345.793	7.39
346.004	7.52
346.214	7.6
346.424	7.44
346.634	7.49
346.844	7.44
347.054	7.3
347.264	7.54
347.474	6.58
347.684	6.72
347.894	6.98
348.104	7.13
348.314	6.62
348.524	6.62
348.734	6.84
348.944	7.04
349.154	7.28
349.364	6.99
349.574	7.2
349.784	7.49
349.994	7.64
350.204	7.57
350.413	7.73
350.623	7.81
350.833	7.98
351.043	7.6
351.253	7.46
351.463	7.45
351.672	7.43
351.882	7.09
352.092	7.33
352.302	7.49
352.511	7.46
352.721	7.3
352.931	7.42
353.141	7.35
353.35	7.51
353.56	7.48
353.77	7.55
353.979	7.88
354.189	8.09
354.399	7.66
354.608	7.44
354.818	7.42
355.027	7.67
355.237	7.59
355.447	7.7
355.656	7.61
355.866	7.63
356.075	7.6
356.285	7.51
356.494	7.28
356.704	7.35
356.913	7.19
357.123	7.09
357.332	6.85
357.542	6.84
357.751	6.59
357.96	6.92
358.17	6.66
358.379	6.81
358.589	6.8
358.798	6.63
359.007	6.68
359.217	6.84
359.426	6.87
359.635	6.83
359.845	6.85
360.054	7
360.263	6.72
360.472	6.74
360.682	6.56
360.891	6.63
361.1	6.73
361.309	6.55
361.519	6.39
361.728	6.44
361.937	6.64
362.146	6.51
362.355	6.27
362.564	6.32
362.774	6.46
362.983	6.57
363.192	6.38
363.401	6.44
363.61	6.7
363.819	6.63
364.028	6.44
364.237	6.17
364.446	6.33
364.655	6.52
364.864	6.33
365.073	6.1
365.282	5.85
365.491	6.01
365.7	6.01
365.909	5.95
366.118	5.94
366.327	5.94
366.536	5.92
366.745	5.97
366.954	5.73
367.162	5.62
367.371	5.65
367.58	5.7
367.789	5.38
367.998	5.52
368.207	5.37
368.415	5.43
368.624	5.56
368.833	5.57
369.042	5.75
369.25	5.9
369.459	5.89
369.668	5.94
369.877	6.08
370.085	6.41
370.294	6.26
370.503	6.37
370.711	6.47
370.92	6.41
371.129	6.26
371.337	6.1
371.546	6.1
371.754	6.24
371.963	6.39
372.171	6.06
372.38	5.9
372.589	5.86
372.797	5.57
373.006	5.55
373.214	5.37
373.423	5.56
373.631	5.64
373.84	5.69
374.048	5.72
374.256	5.63
374.465	5.81
374.673	5.76
374.882	5.74
375.09	5.93
375.298	5.85
375.507	6.11
375.715	6.1
375.923	6.1
376.132	6.16
376.34	5.96
376.548	5.82
376.757	5.85
376.965	5.77
377.173	5.76
377.381	5.87
377.59	5.88
377.798	5.71
378.006	5.72
378.214	5.51
378.423	5.49
378.631	5.58
378.839	5.71
379.047	5.48
379.255	5.52
379.463	5.46
379.671	5.62
379.879	5.62
380.088	5.76
380.296	5.63
380.504	5.76
380.712	5.58
380.92	5.81
381.128	5.73
381.336	5.87
381.544	5.98
381.752	6.19
381.96	5.77
382.168	5.64
382.376	5.36
382.584	5.33
382.791	5.31
382.999	5.19
383.207	5.13
383.415	4.77
383.623	4.72
383.831	4.7
384.039	4.49
384.247	4.53
384.454	4.6
384.662	4.77
384.87	4.81
385.078	4.73
385.285	4.72
385.493	4.4
385.701	4.77
385.909	4.72
386.116	4.52
386.324	4.62
386.532	4.62
386.739	4.67
386.947	4.76
387.155	4.53
387.362	4.56
387.57	4.6
387.778	4.77
387.985	4.77
388.193	4.83
388.4	4.83
388.608	4.76
388.816	4.8
389.023	4.82
389.231	4.72
389.438	4.96
389.646	4.92
389.853	4.86
390.061	4.97
390.268	4.93
390.475	4.79
390.683	4.75
390.89	4.69
391.098	4.87
391.305	5.03
391.512	5.08
391.72	4.87
391.927	4.81
392.135	4.87
392.342	4.81
392.549	4.89
392.756	5.11
392.964	5.28
393.171	5.04
393.378	5
393.586	4.62
393.793	4.59
394	4.83
394.207	4.8
394.414	4.73
394.622	4.65
394.829	4.59
395.036	4.21
395.243	4.14
395.45	4.28
395.657	4.07
395.864	4.29
396.072	4.31
396.279	4.3
396.486	4.21
396.693	4.44
396.9	4.4
397.107	4.39
397.314	4.45
397.521	4.35
397.728	4.49
397.935	4.59
398.142	4.54
398.349	4.56
398.556	4.35
398.763	4.53
398.97	4.36
399.177	4.57
399.383	4.33
399.59	4.34
399.797	4.4
400.004	4.21
400.211	4.15
400.418	4.11
400.625	4.08
400.831	4.2
401.038	4.15
401.245	3.97
401.452	3.79
401.658	3.9
401.865	3.93
402.072	3.94
402.279	4.01
402.485	4.02
402.692	4.01
402.899	3.95
403.105	3.81
403.312	3.61
403.519	3.87
403.725	3.87
403.932	3.91
404.138	3.88
404.345	3.86
404.552	4
404.758	3.94
404.965	3.93
405.171	3.91
405.378	4.03
405.584	4
405.791	3.83
405.997	3.74
406.204	3.73
406.41	3.94
406.617	3.85
406.823	3.82
407.029	3.76
407.236	3.69
407.442	3.68
407.649	3.72
407.855	3.88
408.061	3.85
408.268	3.94
408.474	3.84
408.68	3.67
408.887	3.68
409.093	3.57
409.299	3.63
409.505	3.65
409.712	3.62
409.918	3.47
410.124	3.59
410.33	3.46
410.537	3.31
410.743	3.28
410.949	3.34
411.155	3.45
411.361	3.43
411.567	3.44
411.773	3.64
411.98	3.5
412.186	3.46
412.392	3.36
412.598	3.56
412.804	3.63
413.01	3.86
413.216	3.74
413.422	3.47
413.628	3.54
413.834	3.6
414.04	3.22
414.246	3.36
414.452	3.36
414.658	3.32
414.864	3.24
415.07	3.34
415.275	3.23
415.481	3.21
415.687	3.3
415.893	3.21
416.099	3.2
416.305	3.26
416.511	3.17
416.716	3.32
416.922	3.4
417.128	3.39
417.334	3.33
417.539	3.27
417.745	3.31
417.951	3.28
418.157	3.28
418.362	3.24
418.568	3.32
418.774	3.31
418.979	3.13
419.185	3.14
419.391	3.22
419.596	3.15
419.802	3.14
420.008	3.1
420.213	3.48
420.419	3.47
420.624	3.42
420.83	3.39
421.035	3.43
421.241	3.47
421.446	3.35
421.652	3.25
421.857	3.21
422.063	3.18
422.268	3.15
422.474	2.8
422.679	2.87
422.885	2.81
423.09	2.86
423.295	2.85
423.501	2.86
423.706	2.95
423.911	2.97
424.117	3.08
424.322	3.14
424.527	3.19
424.733	3.13
424.938	3.1
425.143	3.24
425.349	3.14
425.554	3.17
425.759	3.25
425.964	3.2
426.169	3.29
426.375	3.21
426.58	3.15
426.785	3.18
426.99	3.27
427.195	3.26
427.4	3.25
427.605	3.28
427.811	3.3
428.016	3.32
428.221	3.24
428.426	3.17
428.631	3.2
428.836	3.26
429.041	3.25
429.246	3.25
429.451	3.19
429.656	3.25
429.861	3.19
430.066	3.06
430.271	2.94
430.476	2.95
430.681	2.8
430.886	2.88
431.09	2.93
431.295	2.85
431.5	2.87
431.705	2.88
431.91	2.82
432.115	2.82
432.32	2.87
432.524	2.88
432.729	3.04
432.934	3.2
433.139	3.13
433.343	3.06
433.548	2.98
433.753	2.88
433.958	2.87
434.162	2.79
434.367	2.8
434.572	2.8
434.776	2.8
434.981	2.54
435.186	2.41
435.39	2.4
435.595	2.26
435.799	2.29
436.004	2.47
436.209	2.39
436.413	2.51
436.618	2.44
436.822	2.49
437.027	2.46
437.231	2.55
437.436	2.55
437.64	2.54
437.845	2.69
438.049	2.87
438.253	2.74
438.458	2.79
438.662	2.74
438.867	2.82
439.071	2.81
439.275	2.88
439.48	2.96
439.684	3.09
439.888	3.09
440.093	3.01
440.297	2.93
440.501	2.94
440.706	2.94
440.91	2.91
441.114	2.86
441.318	2.78
441.523	2.71
441.727	2.64
441.931	2.56
442.135	2.59
442.339	2.65
442.543	2.6
442.748	2.61
442.952	2.64
443.156	2.68
443.36	2.71
443.564	2.66
443.768	2.7
443.972	2.72
444.176	2.68
444.38	2.67
444.584	2.59
444.788	2.58
444.992	2.54
445.196	2.56
445.4	2.49
445.604	2.52
445.808	2.64
446.012	2.57
446.216	2.56
446.42	2.59
446.624	2.57
446.828	2.64
447.032	2.68
447.235	2.72
447.439	2.69
447.643	2.76
447.847	2.73
448.051	2.71
448.254	2.7
448.458	2.64
448.662	2.51
448.866	2.51
449.069	2.57
449.273	2.59
449.477	2.53
449.681	2.4
449.884	2.37
450.088	2.29
450.292	2.26
450.495	2.43
450.699	2.47
450.902	2.5
451.106	2.55
451.31	2.42
451.513	2.39
451.717	2.35
451.92	2.4
452.124	2.4
452.327	2.45
452.531	2.36
452.734	2.24
452.938	2.19
453.141	2.32
453.345	2.28
453.548	2.35
453.752	2.3
453.955	2.37
454.158	2.37
454.362	2.36
454.565	2.46
454.769	2.53
454.972	2.46
455.175	2.48
455.379	2.46
455.582	2.52
455.785	2.48
455.988	2.48
456.192	2.55
456.395	2.51
456.598	2.52
456.801	2.46
457.005	2.38
457.208	2.42
457.411	2.43
457.614	2.38
457.817	2.35
458.021	2.38
458.224	2.37
458.427	2.31
458.63	2.34
458.833	2.42
459.036	2.37
459.239	2.46
459.442	2.48
459.645	2.51
459.848	2.5
460.051	2.52
460.254	2.51
460.457	2.51
460.66	2.56
460.863	2.63
461.066	2.48
461.269	2.53
461.472	2.47
461.675	2.43
461.878	2.4
462.081	2.34
462.284	2.31
462.486	2.18
462.689	2.26
462.892	2.12
463.095	2.08
463.298	2.18
463.5	2.15
463.703	2.3
463.906	2.35
464.109	2.4
464.311	2.44
464.514	2.4
464.717	2.58
464.92	2.59
465.122	2.66
465.325	2.58
465.528	2.57
465.73	2.59
465.933	2.48
466.135	2.43
466.338	2.36
466.541	2.33
466.743	2.34
466.946	2.32
467.148	2.27
467.351	2.32
467.553	2.42
467.756	2.39
467.958	2.48
468.161	2.51
468.363	2.59
468.566	2.67
468.768	2.76
468.971	2.7
469.173	2.69
469.375	2.72
469.578	2.68
469.78	2.69
469.983	2.73
470.185	2.53
470.387	2.51
470.59	2.47
470.792	2.43
470.994	2.39
471.196	2.5
471.399	2.51
471.601	2.49
471.803	2.47
472.005	2.58
472.208	2.56
472.41	2.67
472.612	2.71
472.814	2.69
473.016	2.7
473.218	2.76
473.421	2.81
473.623	2.78
473.825	2.73
474.027	2.81
474.229	2.65
474.431	2.64
474.633	2.68
474.835	2.64
475.037	2.62
475.239	2.67
475.441	2.59
475.643	2.49
475.845	2.41
476.047	2.45
476.249	2.4
476.451	2.35
476.653	2.4
476.855	2.36
477.057	2.34
477.258	2.36
477.46	2.28
477.662	2.23
477.864	2.24
478.066	2.28
478.268	2.32
478.469	2.31
478.671	2.4
478.873	2.3
479.075	2.34
479.276	2.37
479.478	2.39
479.68	2.43
479.882	2.47
480.083	2.46
480.285	2.48
480.487	2.43
480.688	2.46
480.89	2.44
481.091	2.5
481.293	2.45
481.495	2.45
481.696	2.43
481.898	2.42
482.099	2.41
482.301	2.43
482.502	2.45
482.704	2.46
482.905	2.44
483.107	2.41
483.308	2.39
483.51	2.39
483.711	2.38
483.913	2.39
484.114	2.39
484.315	2.37
484.517	2.36
484.718	2.38
484.92	2.38
485.121	2.4
485.322	2.44
485.524	2.46
485.725	2.54
485.926	2.56
486.127	2.55
486.329	2.53
486.53	2.58
486.731	2.53
486.932	2.49
487.134	2.49
487.335	2.5
487.536	2.53
487.737	2.53
487.938	2.45
488.139	2.41
488.341	2.43
488.542	2.43
488.743	2.42
488.944	2.46
489.145	2.46
489.346	2.45
489.547	2.43
489.748	2.41
489.949	2.43
490.15	2.46
490.351	2.47
490.552	2.5
490.753	2.52
490.954	2.5
491.155	2.49
491.356	2.5
491.557	2.58
491.758	2.58
491.959	2.63
492.159	2.67
492.36	2.67
492.561	2.69
492.762	2.65
492.963	2.59
493.164	2.63
493.364	2.6
493.565	2.63
493.766	2.51
493.967	2.46
494.167	2.39
494.368	2.32
494.569	2.29
494.769	2.27
494.97	2.32
495.171	2.38
495.371	2.41
495.572	2.46
495.773	2.48
495.973	2.55
496.174	2.63
496.375	2.66
496.575	2.61
496.776	2.7
496.976	2.76
497.177	2.69
497.377	2.7
497.578	2.77
497.778	2.78
497.979	2.74
498.179	2.69
498.38	2.71
498.58	2.77
498.78	2.85
498.981	2.83
499.181	2.73
499.382	2.82
499.582	2.84
499.782	2.78
499.983	2.82
500.183	2.88
500.383	2.92
500.584	2.95
500.784	2.87
500.984	2.78
501.184	2.74
501.385	2.78
501.585	2.74
501.785	2.82
501.985	2.79
502.185	2.82
502.386	2.85
502.586	2.89
502.786	2.8
502.986	2.91
503.186	3.04
503.386	3.12
503.586	3.22
503.786	3.25
503.987	3.19
504.187	3.29
504.387	3.35
504.587	3.31
504.787	3.27
504.987	3.34
505.187	3.24
505.387	3.2
505.587	3.13
505.786	3.17
505.986	3.16
506.186	3.2
506.386	3.15
506.586	3.07
506.786	3.07
506.986	3.11
507.186	3.18
507.386	3.32
507.585	3.36
507.785	3.47
507.985	3.48
508.185	3.54
508.384	3.58
508.584	3.62
508.784	3.69
508.984	3.76
509.183	3.69
509.383	3.59
509.583	3.59
509.782	3.6
509.982	3.52
510.182	3.5
510.381	3.48
510.581	3.49
510.781	3.47
510.98	3.46
511.18	3.47
511.379	3.6
511.579	3.67
511.778	3.61
511.978	3.62
512.177	3.69
512.377	3.69
512.576	3.68
512.776	3.67
512.975	3.72
513.175	3.79
513.374	3.83
513.573	3.93
513.773	3.87
513.972	3.87
514.172	3.9
514.371	3.99
514.57	4.08
514.77	4.19
514.969	4.2
515.168	4.25
515.367	4.22
515.567	4.18
515.766	4.14
515.965	4.25
516.164	4.25
516.364	4.32
516.563	4.33
516.762	4.32
516.961	4.31
517.16	4.33
517.359	4.39
517.559	4.44
517.758	4.48
517.957	4.48
518.156	4.5
518.355	4.57
518.554	4.57
518.753	4.52
518.952	4.53
519.151	4.57
519.35	4.6
519.549	4.57
519.748	4.56
519.947	4.6
520.146	4.65
520.345	4.62
520.544	4.71
520.743	4.65
520.942	4.71
521.141	4.72
521.339	4.72
521.538	4.75
521.737	4.73
521.936	4.8
522.135	4.78
522.333	4.82
522.532	4.87
522.731	4.77
522.93	4.86
523.129	4.84
523.327	4.94
523.526	4.96
523.725	4.96
523.923	4.98
524.122	4.98
524.321	4.99
524.519	5.03
524.718	5.09
524.917	5.17
525.115	5.19
525.314	5.19
525.512	5.2
525.711	5.28
525.909	5.29
526.108	5.34
526.306	5.34
526.505	5.36
526.703	5.35
526.902	5.35
527.1	5.38
527.299	5.38
527.497	5.41
527.696	5.44
527.894	5.45
528.092	5.47
528.291	5.45
528.489	5.48
528.688	5.5
528.886	5.51
529.084	5.53
529.283	5.51
529.481	5.55
529.679	5.63
529.877	5.66
530.076	5.67
530.274	5.76
530.472	5.87
530.67	5.93
530.869	6.02
531.067	6.04
531.265	6.1
531.463	6.13
531.661	6.13
531.859	6.12
532.057	6.11
532.255	6.14
532.454	6.13
532.652	6.18
532.85	6.2
533.048	6.23
533.246	6.28
533.444	6.33
533.642	6.41
533.84	6.49
534.038	6.56
534.236	6.59
534.434	6.64
534.632	6.68
534.83	6.68
535.027	6.71
535.225	6.73
535.423	6.78
535.621	6.76
535.819	6.72
536.017	6.73
536.215	6.76
536.412	6.77
536.61	6.82
536.808	6.81
537.006	6.83
537.203	6.82
537.401	6.82
537.599	6.9
537.797	7.01
537.994	7.09
538.192	7.15
538.39	7.16
538.587	7.24
538.785	7.28
538.983	7.36
539.18	7.36
539.378	7.4
539.575	7.43
539.773	7.44
539.97	7.46
540.168	7.43
540.366	7.47
540.563	7.51
540.761	7.51
540.958	7.52
541.155	7.56
541.353	7.6
541.55	7.62
541.748	7.69
541.945	7.7
542.143	7.68
542.34	7.79
542.537	7.8
542.735	7.84
542.932	7.94
543.129	7.97
543.327	8
543.524	8.04
543.721	8.13
543.919	8.09
544.116	8.19
544.313	8.3
544.51	8.32
544.708	8.45
544.905	8.5
545.102	8.51
545.299	8.56
545.496	8.61
545.693	8.72
545.891	8.74
546.088	8.83
546.285	8.8
546.482	8.88
546.679	8.96
546.876	8.97
547.073	9.04
547.27	9.09
547.467	9.16
547.664	9.19
547.861	9.17
548.058	9.25
548.255	9.31
548.452	9.38
548.649	9.45
548.846	9.65
549.043	9.64
549.24	9.69
549.437	9.86
549.633	9.97
549.83	10.09
550.027	10.21
550.224	10.2
550.421	10.32
550.618	10.49
550.814	10.59
551.011	10.54
551.208	10.62
551.405	10.67
551.601	10.68
551.798	10.68
551.995	10.77
552.191	10.91
552.388	11.02
552.585	11.04
552.781	11.01
552.978	10.91
553.175	10.99
553.371	10.99
553.568	11.17
553.764	11.25
553.961	11.35
554.157	11.45
554.354	11.42
554.55	11.57
554.747	11.7
554.943	11.78
555.14	11.96
555.336	12
555.533	12.25
555.729	12.24
555.926	12.18
556.122	12.28
556.318	12.27
556.515	12.47
556.711	12.5
556.907	12.58
557.104	12.67
557.3	12.74
557.496	12.75
557.693	12.77
557.889	12.95
558.085	13.16
558.281	13.18
558.478	13.34
558.674	13.26
558.87	13.41
559.066	13.38
559.262	13.42
559.459	13.51
559.655	13.66
559.851	13.68
560.047	13.77
560.243	13.77
560.439	13.89
560.635	13.9
560.831	14.1
561.027	14.12
561.223	14.35
561.419	14.57
561.615	14.63
561.811	14.8
562.007	14.98
562.203	14.93
562.399	15
562.595	15.06
562.791	15.05
562.987	15.12
563.183	15.17
563.379	15.23
563.575	15.2
563.771	15.3
563.966	15.29
564.162	15.33
564.358	15.47
564.554	15.64
564.75	15.67
564.945	15.81
565.141	15.81
565.337	15.84
565.533	15.82
565.728	15.91
565.924	15.98
566.12	16.08
566.315	16.2
566.511	16.21
566.707	16.28
566.902	16.41
567.098	16.46
567.293	16.52
567.489	16.57
567.684	16.66
567.88	16.72
568.076	16.73
568.271	16.8
568.467	16.83
568.662	16.95
568.858	17.05
569.053	17.16
569.248	17.29
569.444	17.41
569.639	17.56
569.835	17.68
570.03	17.81
570.225	17.93
570.421	18.03
570.616	18.01
570.812	18.11
571.007	18.17
571.202	18.13
571.397	18.19
571.593	18.26
571.788	18.33
571.983	18.42
572.178	18.35
572.374	18.35
572.569	18.38
572.764	18.4
572.959	18.38
573.154	18.35
573.35	18.42
573.545	18.42
573.74	18.39
573.935	18.37
574.13	18.36
574.325	18.46
574.52	18.5
574.715	18.58
574.91	18.67
575.105	18.67
575.3	18.7
575.495	18.73
575.69	18.76
575.885	18.79
576.08	18.84
576.275	18.79
576.47	18.87
576.665	18.87
576.86	18.91
577.055	18.9
577.25	18.94
577.444	19
577.639	19.22
577.834	19.22
578.029	19.24
578.224	19.37
578.418	19.55
578.613	19.68
578.808	19.85
579.003	19.89
579.197	19.99
579.392	20.19
579.587	20.29
579.781	20.27
579.976	20.48
580.171	20.65
580.365	20.6
580.56	20.61
580.755	20.57
580.949	20.56
581.144	20.52
581.338	20.62
581.533	20.64
581.727	20.58
581.922	20.58
582.116	20.53
582.311	20.52
582.505	20.54
582.7	20.64
582.894	20.66
583.089	20.5
583.283	20.57
583.478	20.61
583.672	20.68
583.866	20.74
584.061	20.82
584.255	20.85
584.449	20.92
584.644	21.07
584.838	21.01
585.032	21.05
585.226	21.33
585.421	21.32
585.615	21.21
585.809	21.14
586.003	21.16
586.198	21.18
586.392	21.09
586.586	21.06
586.78	20.93
586.974	20.87
587.168	20.91
587.363	20.81
587.557	20.9
587.751	21.07
587.945	21.15
588.139	21.22
588.333	21.18
588.527	21.33
588.721	21.46
588.915	21.68
589.109	21.83
589.303	21.8
589.497	21.85
589.691	21.88
589.885	21.83
590.079	21.82
590.273	21.83
590.466	21.84
590.66	21.79
590.854	21.83
591.048	21.73
591.242	21.63
591.436	21.89
591.629	21.96
591.823	22.05
592.017	22.17
592.211	22.06
592.404	22.08
592.598	22.12
592.792	22.2
592.986	22.18
593.179	22.26
593.373	22.48
593.567	22.31
593.76	22.41
593.954	22.32
594.147	22.32
594.341	22.54
594.535	22.63
594.728	22.62
594.922	22.76
595.115	22.8
595.309	22.77
595.502	22.81
595.696	22.83
595.889	22.67
596.083	22.73
596.276	22.63
596.47	22.58
596.663	22.63
596.856	22.66
597.05	22.59
597.243	22.55
597.437	22.58
597.63	22.54
597.823	22.54
598.017	22.74
598.21	22.74
598.403	22.77
598.596	22.75
598.79	22.81
598.983	22.81
599.176	22.82
599.369	22.91
599.563	22.88
599.756	22.84
599.949	22.94
600.142	22.96
600.335	22.93
600.528	23.06
600.722	23.3
600.915	23.32
601.108	23.54
601.301	23.44
601.494	23.36
601.687	23.44
601.88	23.56
602.073	23.63
602.266	23.63
602.459	23.66
602.652	23.68
602.845	23.57
603.038	23.49
603.231	23.47
603.424	23.57
603.617	23.67
603.809	23.66
604.002	23.65
604.195	23.61
604.388	23.7
604.581	23.79
604.774	23.89
604.966	23.95
605.159	24.1
605.352	24.14
605.545	24.19
605.737	24.29
605.93	24.43
606.123	24.39
606.316	24.29
606.508	24.32
606.701	24.28
606.894	24.25
607.086	24.29
607.279	24.12
607.471	24.07
607.664	24.1
607.857	23.94
608.049	23.94
608.242	24.12
608.434	24.33
608.627	24.21
608.819	24.3
609.012	24.31
609.204	24.19
609.397	24.2
609.589	24.2
609.782	24.14
609.974	24.36
610.166	24.34
610.359	24.26
610.551	24.21
610.743	24.26
610.936	24.18
611.128	24.1
611.32	24.2
611.513	24.32
611.705	24.22
611.897	24.39
612.09	24.27
612.282	24.46
612.474	24.27
612.666	24.28
612.858	24.31
613.051	24.37
613.243	24.38
613.435	24.47
613.627	24.33
613.819	24.5
614.011	24.42
614.203	24.4
614.395	24.24
614.588	24.46
614.78	24.45
614.972	24.46
615.164	24.5
615.356	24.59
615.548	24.63
615.74	24.79
615.932	24.8
616.124	24.85
616.315	24.78
616.507	24.85
616.699	24.81
616.891	24.89
617.083	24.99
617.275	24.97
617.467	24.9
617.659	24.69
617.85	24.8
618.042	24.84
618.234	24.72
618.426	24.8
618.618	24.77
618.809	24.59
619.001	24.5
619.193	24.31
619.384	24.31
619.576	24.44
619.768	24.55
619.959	24.52
620.151	24.44
620.343	24.7
620.534	24.69
620.726	24.7
620.917	24.85
621.109	24.94
621.301	24.9
621.492	24.84
621.684	24.74
621.875	24.72
622.067	24.58
622.258	24.76
622.45	24.62
622.641	24.48
622.832	24.4
623.024	24.42
623.215	24.35
623.407	24.54
623.598	24.63
623.789	24.69
623.981	24.71
624.172	24.67
624.363	24.5
624.555	24.33
624.746	24.58
624.937	24.67
625.129	24.56
625.32	24.54
625.511	24.49
625.702	24.42
625.893	24.33
626.085	24.4
626.276	24.44
626.467	24.54
626.658	24.78
626.849	24.71
627.04	24.84
627.231	24.98
627.422	25.03
627.614	25
627.805	25.15
627.996	25.32
628.187	25.37
628.378	25.46
628.569	25.42
628.76	25.35
628.951	25.37
629.142	25.09
629.332	25.1
629.523	25.22
629.714	25.42
629.905	25.39
630.096	25.34
630.287	25.37
630.478	25.53
630.669	25.61
630.859	25.56
631.05	25.51
631.241	25.57
631.432	25.49
631.623	25.47
631.813	25.33
632.004	25.31
632.195	25.36
632.385	25.39
632.576	25.21
632.767	25.13
632.957	25.13
633.148	25.28
633.339	25.38
633.529	25.57
633.72	25.55
633.91	25.62
634.101	25.58
634.292	25.84
634.482	25.71
634.673	25.77
634.863	25.92
635.054	25.99
635.244	25.97
635.435	26.05
635.625	25.82
635.815	25.67
636.006	25.54
636.196	25.49
636.387	25.32
636.577	25.37
636.767	25.4
636.958	25.3
637.148	25.22
637.338	25.05
637.529	24.99
637.719	25.18
637.909	25.29
638.099	25.49
638.29	25.83
638.48	25.66
638.67	25.61
638.86	25.59
639.05	25.63
639.241	25.69
639.431	25.88
639.621	25.75
639.811	25.63
640.001	25.52
640.191	25.61
640.381	25.5
640.571	25.56
640.761	25.67
640.951	25.77
641.141	25.63
641.331	25.64
641.521	25.68
641.711	25.85
641.901	25.9
642.091	25.93
642.281	25.85
642.471	25.78
642.661	25.59
642.851	25.54
643.041	25.35
643.231	25.53
643.42	25.48
643.61	25.26
643.8	25.27
643.99	25.47
644.18	25.6
644.369	25.52
644.559	25.49
644.749	25.81
644.939	25.86
645.128	25.85
645.318	25.92
645.508	25.9
645.697	26.29
645.887	26.3
646.076	25.96
646.266	25.77
646.456	25.7
646.645	25.79
646.835	25.64
647.024	25.74
647.214	25.9
647.403	25.73
647.593	25.87
647.782	25.66
647.972	25.59
648.161	25.89
648.351	25.92
648.54	25.95
648.73	25.79
648.919	26.01
649.108	25.85
649.298	25.84
649.487	25.85
649.677	25.9
649.866	25.7
650.055	25.79
650.244	25.73
650.434	26.06
650.623	26.14
650.812	26.26
651.002	26.06
651.191	26.14
651.38	26.03
651.569	25.88
651.758	25.79
651.947	26.04
652.137	26.02
652.326	26.07
652.515	25.8
652.704	25.91
652.893	25.97
653.082	25.81
653.271	25.69
653.46	25.85
653.649	26.13
653.838	26.14
654.027	26.03
654.216	26.19
654.405	26.16
654.594	26.11
654.783	26.15
654.972	26.2
655.161	26.46
655.35	26.41
655.539	26.14
655.728	25.99
655.916	25.85
656.105	25.82
656.294	25.58
656.483	25.36
656.672	25.45
656.86	25.39
657.049	25.32
657.238	25.3
657.427	25.26
657.615	25.41
657.804	25.52
657.993	25.77
658.181	25.78
658.37	25.84
658.559	26.03
658.747	26.14
658.936	25.93
659.125	25.76
659.313	25.73
659.502	26
659.69	26.17
659.879	26.18
660.067	25.97
660.256	26.01
660.444	26.06
660.633	26
660.821	26.03
661.01	26.29
661.198	26.45
661.387	26.59
661.575	26.66
661.763	26.56
661.952	26.51
662.14	26.39
662.328	26.46
662.517	26.33
662.705	26.39
662.893	26.36
663.082	26.45
663.27	26.47
663.458	26.13
663.646	25.82
663.834	25.64
664.023	25.5
664.211	25.51
664.399	25.58
664.587	25.82
664.775	25.84
664.963	25.69
665.152	25.64
665.34	25.4
665.528	25.57
665.716	25.87
665.904	26.05
666.092	26.35
666.28	26.61
666.468	26.42
666.656	26.22
666.844	26.27
667.032	26.26
667.22	25.92
667.408	26.2
667.596	26.49
667.784	26.13
667.971	26.3
668.159	26.09
668.347	26.17
668.535	26.07
668.723	26.02
668.911	25.82
669.098	25.87
669.286	26.06
669.474	26.06
669.662	25.66
669.849	26.09
670.037	25.92
670.225	25.95
670.413	25.82
670.6	25.95
670.788	26.2
670.976	26.4
671.163	26.48
671.351	26.51
671.538	26.58
671.726	26.51
671.913	26.23
672.101	26.14
672.289	26.07
672.476	26.15
672.664	25.96
672.851	25.75
673.039	25.64
673.226	25.61
673.413	25.67
673.601	25.6
673.788	25.79
673.976	26.03
674.163	25.95
674.35	26.06
674.538	26.09
674.725	26.36
674.912	26.38
675.1	26.45
675.287	26.66
675.474	26.46
675.662	26.53
675.849	26.55
676.036	26.43
676.223	26.52
676.411	26.88
676.598	26.99
676.785	26.94
676.972	27.08
677.159	27.05
677.346	26.76
677.533	27.11
677.721	26.86
677.908	27.09
678.095	27.12
678.282	27.08
678.469	26.82
678.656	26.43
678.843	26.51
679.03	26.41
679.217	26.22
679.404	26.32
679.591	26.23
679.778	26.38
679.964	26.23
680.151	26.23
680.338	26.33
680.525	26.25
680.712	26.49
680.899	26.52
681.086	26.54
681.272	26.58
681.459	26.69
681.646	26.66
681.833	26.78
682.02	26.83
682.206	26.85
682.393	26.93
682.58	27.22
682.766	27.17
682.953	26.96
683.14	27.01
683.326	27.39
683.513	27.37
683.7	27.16
683.886	27.14
684.073	27.14
684.259	27.11
684.446	26.95
684.632	26.9
684.819	27.05
685.005	27.19
685.192	27.16
685.378	27.17
685.565	27.21
685.751	27.32
685.938	27.12
686.124	27.04
686.31	26.86
686.497	27.05
686.683	26.95
686.87	26.97
687.056	26.89
687.242	27.08
687.429	26.92
687.615	26.79
687.801	27.06
687.987	27.17
688.174	27.39
688.36	27.77
688.546	27.87
688.732	28.07
688.918	27.79
689.105	27.86
689.291	27.81
689.477	28.13
689.663	28.43
689.849	28.08
690.035	28.3
690.221	28.35
690.407	28.28
690.593	28.11
690.779	27.65
690.965	27.76
691.151	27.7
691.337	27.79
691.523	27.56
691.709	27.7
691.895	27.97
692.081	27.32
692.267	27.13
692.453	27.18
692.639	27.04
692.825	27.44
693.011	27.45
693.196	27.62
693.382	27.64
693.568	27.41
693.754	26.9
693.94	26.87
694.125	27.4
694.311	27.62
694.497	27.02
694.682	27.01
694.868	27
695.054	27.14
695.239	27.26
695.425	27.21
695.611	27.44
695.796	27.22
695.982	27.21
696.168	27.15
696.353	26.81
696.539	27.02
696.724	26.96
696.91	26.7
697.095	26.77
697.281	26.54
697.466	26.41
697.652	26.49
697.837	26.77
698.023	26.82
698.208	26.79
698.393	26.87
698.579	27.06
698.764	27.12
698.949	27.38
699.135	27.32
699.32	27.48
699.505	27.53
699.691	27.39
699.876	27.48
700.061	27.39
700.246	27.5
700.432	27.69
700.617	27.38
700.802	27.64
700.987	27.41
701.172	27.13
701.358	27.22
701.543	27.47
701.728	27.16
701.913	26.52
702.098	26.61
702.283	26.61
702.468	26.62
702.653	26.92
702.838	26.79
703.023	26.94
703.208	27.15
703.393	27.16
703.578	26.73
703.763	27.22
703.948	27.73
704.133	27.33
704.318	27.43
704.503	27.14
704.688	26.93
704.873	27.09
705.057	26.95
705.242	27
705.427	26.86
705.612	26.91
705.797	26.58
705.981	26.68
706.166	26.92
706.351	26.88
706.536	27.04
706.72	27.29
706.905	27.39
707.09	27.59
707.274	27.56
707.459	27.51
707.644	27.75
707.828	27.65
708.013	27.59
708.197	27.87
708.382	27.62
708.567	27.41
708.751	27.46
708.936	27.11
709.12	26.77
709.305	26.64
709.489	26.62
709.673	26.7
709.858	26.65
710.042	26.74
710.227	26.69
710.411	26.4
710.596	26.48
710.78	26.29
710.964	26.1
711.149	26.51
711.333	26.54
711.517	26.97
711.702	26.61
711.886	26.66
712.07	26.57
712.254	26.34
712.438	26.99
712.623	26.79
712.807	26.91
712.991	27.11
713.175	26.78
713.359	26.89
713.544	26.31
713.728	26.22
713.912	26.39
714.096	26.2
714.28	26.37
714.464	26.27
714.648	26.55
714.832	26.36
715.016	26.3
715.2	26.57
715.384	26.5
715.568	26.63
715.752	26.53
715.936	26.53
716.12	26.63
716.304	26.77
716.488	26.75
716.671	27.03
716.855	26.71
717.039	27.04
717.223	27.19
717.407	27.49
717.59	27.74
717.774	28.22
717.958	28.23
718.142	28.08
718.325	27.74
718.509	27.69
718.693	27.08
718.877	27.76
719.06	27.51
719.244	27.4
719.428	27.39
719.611	27.35
719.795	27.5
719.978	27.46
720.162	27.45
720.345	27.9
720.529	27.94
720.713	27.86
720.896	27.91
721.08	27.84
721.263	27.71
721.446	27.64
721.63	27.64
721.813	27.36
721.997	27.21
722.18	27.56
722.364	27.54
722.547	27.22
722.73	27.67
722.914	27.29
723.097	27.14
723.28	26.91
723.464	26.68
723.647	26.27
723.83	26.52
724.013	26.88
724.197	26.85
724.38	26.35
724.563	26.71
724.746	26.79
724.929	26.66
725.112	26.78
725.296	26.75
725.479	26.95
725.662	27.16
725.845	27.2
726.028	27.61
726.211	27.69
726.394	27.8
726.577	27.5
726.76	27.55
726.943	28.02
727.126	27.76
727.309	28.27
727.492	28.14
727.675	28.07
727.858	28.08
728.041	27.86
728.224	27.52
728.407	27.57
728.589	27.49
728.772	27.47
728.955	27.4
729.138	27.84
729.321	27.63
729.503	27.58
729.686	27.66
729.869	27.41
730.052	27.41
730.234	27.47
730.417	27.3
730.6	27.68
730.782	27.46
730.965	27.28
731.148	27.04
731.33	26.91
731.513	27.42
731.695	27.28
731.878	27.45
732.061	27.15
732.243	26.96
732.426	27.15
732.608	27.21
732.791	27.14
732.973	27.23
733.156	27.44
733.338	27.3
733.52	26.99
733.703	27.44
733.885	27.27
734.068	27.28
734.25	27.61
734.432	27.78
734.615	27.48
734.797	27.95
734.979	28.1
735.162	28.19
735.344	28.43
735.526	28.25
735.708	27.7
735.891	27.91
736.073	28.34
736.255	28.45
736.437	28.13
736.619	28.49
736.802	28.13
736.984	27.99
737.166	27.86
737.348	27.66
737.53	27.46
737.712	27.86
737.894	27.82
738.076	27.74
738.258	27.49
738.44	28.08
738.622	28.12
738.804	28.14
738.986	28.44
739.168	28.48
739.35	28.66
739.532	28.6
739.714	28.62
739.896	28.28
740.078	27.95
740.259	28.68
740.441	28.46
740.623	27.9
740.805	27.69
740.987	27.59
741.168	27.72
741.35	27.76
741.532	28.01
741.714	27.58
741.895	28.08
742.077	28.26
742.259	28.03
742.44	28.22
742.622	28.4
742.804	28.35
742.985	27.97
743.167	27.62
743.348	27.59
743.53	27.4
743.711	28.02
743.893	27.85
744.075	27.37
744.256	27.26
744.438	27.6
744.619	27.84
744.8	28.09
744.982	28.03
745.163	27.98
745.345	28.05
745.526	28.29
745.707	28.26
745.889	28.25
746.07	28.09
746.252	27.91
746.433	27.03
746.614	26.34
746.795	26.11
746.977	26.57
747.158	26.42
747.339	26.87
747.52	26.73
747.702	26.18
747.883	26.33
748.064	26.74
748.245	26.5
748.426	26.85
748.607	27.59
748.788	27.9
748.97	27.14
749.151	27.38
749.332	26.7
749.513	27.1
749.694	27.12
749.875	26.72
750.056	27.07
750.237	27.47
750.418	27.19
750.599	26.82
750.78	27.01
750.96	27.46
751.141	27.54
751.322	27.1
751.503	26.91
751.684	27.13
751.865	27.03
752.046	26.79
752.226	26.91
752.407	26.83
752.588	26.34
752.769	26.53
752.949	26.95
753.13	27.34
753.311	27.74
753.492	28.1
753.672	28.22
753.853	28.27
754.034	28.64
754.214	28.09
754.395	28.38
754.575	29.18
754.756	28.64
754.937	28.54
755.117	28.37
755.298	28.59
755.478	27.99
755.659	27.73
755.839	27.24
756.02	26.81
756.2	27.29
756.381	26.44
756.561	26.5
756.741	26.8
756.922	26.43
757.102	26.01
757.283	26.09
757.463	26.18
757.643	26.47
757.823	27.44
758.004	28.14
758.184	28.08
758.364	28.83
758.545	28.79
758.725	28.54
758.905	28.79
759.085	28.35
759.265	27.92
759.446	28.33
759.626	28.05
759.806	27.52
759.986	27.16
760.166	26.63
760.346	25.94
760.526	25.36
760.706	24.96
760.886	24.51
761.066	25.41
761.246	25.88
761.426	25.94
761.606	26
761.786	25.79
761.966	25.58
762.146	26.32
762.326	26.52
762.506	26.85
762.686	27.05
762.866	27.45
763.046	27.86
763.225	27.39
763.405	27.22
763.585	27.38
763.765	27.66
763.945	27.83
764.124	27.3
764.304	27.32
764.484	27.51
764.664	27.44
764.843	27.46
765.023	26.75
765.203	27.1
765.382	26.68
765.562	26.57
765.741	26.95
765.921	26.89
766.101	27.15
766.28	27.02
766.46	26.29
766.639	26.07
766.819	25.98
766.998	26.27
767.178	26.37
767.357	27.13
767.537	27.17
767.716	26.89
767.896	26.8
768.075	26.81
768.254	27.74
768.434	28.4
768.613	29.29
768.792	28.66
768.972	28.97
769.151	28.51
769.33	28.3
769.51	28.24
769.689	27.86
769.868	27.91
770.047	27.97
770.226	27.5
770.406	28.09
770.585	28.29
770.764	28.42
770.943	27.58
771.122	27.5
771.301	27.32
771.48	27.55
771.66	28.27
771.839	28.07
772.018	27.6
772.197	27.24
772.376	26.67
772.555	25.83
772.734	26.33
772.913	26.74
773.092	27.5
773.271	27.91
773.449	27.68
773.628	27.81
773.807	28.31
773.986	27.86
774.165	28.68
774.344	28.44
774.523	28.41
774.701	28
774.88	27.48
775.059	27.08
775.238	26.82
775.417	26.56
775.595	26.23
775.774	25.57
775.953	26.78
776.131	26.13
776.31	26.51
776.489	26.84
776.667	26.85
776.846	27.61
777.025	27.59
777.203	28.08
777.382	27.86
777.56	27.95
777.739	27.73
777.917	26.9
778.096	27.69
778.274	27.34
778.453	28.53
778.631	28.95
778.81	28.31
778.988	27.97
779.166	28.03
779.345	28.04
779.523	27.68
779.702	28.85
779.88	29.43
780.058	28.78
780.237	28.78
780.415	26.7
780.593	26.23
780.771	26.6
780.95	27.36
781.128	26.54
781.306	26.8
781.484	26.8
781.662	26.8
781.841	26.2
782.019	26.11
782.197	26.02
782.375	27.09
782.553	27.6
782.731	27.82
782.909	28.03
783.087	28.7
783.265	29.25
783.443	28.43
783.621	28.51
783.799	28.33
783.977	28.69
784.155	29.39
784.333	29.33
784.511	29.53
784.689	29.3
784.867	29.34
785.045	28.64
785.223	27.58
785.4	27.63
785.578	26.32
785.756	27.66
785.934	27.06
786.112	26.2
786.289	26.07
786.467	25.11
786.645	25.18
786.823	24.64
787	24.78
787.178	25.53
787.356	27
787.533	27.89
787.711	27.1
787.889	27.4
788.066	27.19
788.244	28.08
788.421	28.76
788.599	29.21
788.776	29.03
788.954	28.56
789.131	28.42
789.309	27.15
789.486	26.1
789.664	26.29
789.841	26.78
790.019	27.56
790.196	27.79
790.373	27.79
790.551	26.93
790.728	27.17
790.906	27.86
791.083	28.93
791.26	29.08
791.437	29.86
791.615	29.82
791.792	29.19
791.969	28.53
792.146	27.2
792.324	27.41
792.501	27.57
792.678	27.61
792.855	27.87
793.032	26.37
793.209	26.9
793.387	26.35
793.564	26.17
793.741	26.53
793.918	27.43
794.095	28.1
794.272	27.86
794.449	28.37
794.626	28.56
794.803	29.29
794.98	29.85
795.157	29.71
795.334	29.7
795.511	30.4
795.688	29.78
795.864	29.92
796.041	29.82
796.218	30.69
796.395	29.63
796.572	30.19
796.749	29.65
796.925	29.63
797.102	29.35
797.279	30.16
797.456	30.35
797.632	31.29
797.809	30.57
797.986	29.44
798.162	28.65
798.339	29.57
798.516	29.11
798.692	28.89
798.869	28.04
799.046	28.98
799.222	28.16
799.399	27.94
799.575	26.54
799.752	26.89
799.928	28.48
800.105	28.28
800.281	27.57
800.458	27.82
800.634	28.51
800.811	28.55
800.987	27.62
801.163	28.36
801.34	27.59
801.516	27.85
801.692	27.93
801.869	26.94
802.045	27.57
802.221	27.84
802.398	27.92
802.574	26.77
802.75	27.16
802.926	27.48
803.103	27.27
803.279	27.81
803.455	29.38
803.631	28.93
803.807	28
803.983	27.54
804.16	27.6
804.336	27.04
804.512	27.3
804.688	27.12
804.864	27.21
805.04	27.07
805.216	27.09
805.392	25.37
805.568	27.08
805.744	27.36
805.92	26.89
806.096	26.76
806.272	26.21
806.448	26.25
806.623	26.72
806.799	27.19
806.975	27.87
807.151	27.77
807.327	28.18
807.503	27.24
807.678	27.56
807.854	27.34
808.03	27.1
808.206	27.85
808.381	27.36
808.557	28.42
808.733	27.81
808.908	26.14
809.084	25.7
809.26	26.79
809.435	25.89
809.611	26.27
809.787	26.43
809.962	26.91
810.138	25.15
810.313	25.58
810.489	24.5
810.664	25.01
810.84	26.41
811.015	27.41
811.191	26.53
811.366	28.05
811.542	26.84
811.717	27.95
811.892	28.55
812.068	29.56
812.243	30.35
812.419	30.84
812.594	30.02
812.769	30.03
812.944	28.87
813.12	27.85
813.295	26.37
813.47	27.73
813.645	26.52
813.821	25.98
813.996	27.64
814.171	25.82
814.346	24.91
814.521	25.8
814.697	26.91
814.872	26.63
815.047	27.78
815.222	28.06
815.397	28.17
815.572	28.68
815.747	28.57
815.922	26.96
816.097	28.01
816.272	27.04
816.447	26.53
816.622	25.12
816.797	25.28
816.972	25.24
817.147	24.84
817.322	25.55
817.496	25.05
817.671	24.55
817.846	25.35
818.021	26.53
818.196	28.01
818.371	28.43
818.545	27.73
818.72	26.97
818.895	27.1
819.069	27.61
819.244	26.41
819.419	26.67
819.594	26.74
819.768	26.32
819.943	26.35
820.117	25.81
820.292	25.81
820.467	26.05
820.641	26.65
820.816	26.51
820.99	26.06
821.165	26.41
821.339	26.47
821.514	26.56
821.688	26.72
821.863	26.66
822.037	26.95
822.212	26.95
822.386	26.88
822.56	26.81
822.735	26.97
822.909	27.01
823.084	26.8
823.258	26.84
823.432	26.94
823.606	26.84
823.781	26.72
823.955	26.32
824.129	25.92
824.303	26.32
824.478	26.76
824.652	26.19
824.826	26.36
825	26.79
825.174	26.84
825.348	26.52
825.523	26.38
825.697	26.3
825.871	26.75
826.045	27.14
826.219	27.15
826.393	26.87
826.567	27.47
826.741	27.95
826.915	27.65
827.089	27.79
827.263	28.22
827.437	28.34
827.611	28.02
827.784	27.91
827.958	27.92
828.132	27.57
828.306	27.34
828.48	27.03
828.654	26.53
828.827	26.68
829.001	26.55
829.175	26.41
829.349	26.68
829.522	26.45
829.696	27.04
829.87	27.49
830.044	27.74
830.217	27.79
830.391	27.94
830.565	27.9
830.738	27.51
830.912	27.25
831.085	26.97
831.259	26.59
831.432	27.48
831.606	27.35
831.779	25.83
831.953	25.22
832.126	25.19
832.3	24.85
832.473	25.02
832.647	24.93
832.82	24.94
832.994	24.8
833.167	25.43
833.34	25.83
833.514	25.7
833.687	26.15
833.86	26.26
834.034	26.52
834.207	26.89
834.38	27.88
834.553	28.36
834.727	28.85
834.9	29.72
835.073	29.69
835.246	29.53
835.419	29.21
835.593	29.2
835.766	29.71
835.939	30.58
836.112	30.39
836.285	29.28
836.458	30.12
836.631	29.25
836.804	28.53
836.977	28.27
837.15	28.18
837.323	27.76
837.496	28.86
837.669	29.12
837.842	26.81
838.015	26.71
838.188	25.84
838.361	24.51
838.533	24.82
838.706	25.15
838.879	25.55
839.052	26.71
839.225	28.67
839.398	28.73
839.57	29.12
839.743	30.36
839.916	33
840.088	33.14
840.261	33.83
840.434	34.37
840.607	34.04
840.779	33.3
840.952	31.88
841.124	30.01
841.297	31.28
841.47	31.84
841.642	31.73
841.815	28.66
841.987	28.99
842.16	27.8
842.332	29.83
842.505	30.12
842.677	29.91
842.85	31.85
843.022	32.72
843.194	30.38
843.367	30.22
843.539	28.77
843.712	30.87
843.884	33.53
844.056	33.77
844.229	32.03
844.401	33.32
844.573	35.19
844.745	33.6
844.918	36.73
845.09	39.58
845.262	38.82
845.434	42.22
845.606	40.71
845.779	40.09
845.951	40.73
846.123	40.2
846.295	37.61
846.467	35.34
846.639	36.7
846.811	31.42
846.983	27.91
847.155	25.6
847.327	24.53
847.499	27.91
847.671	26.7
847.843	28.26
848.015	27.15
848.187	29.01
848.359	28.12
848.531	25.98
848.703	26.8
848.875	28.79
849.047	30.7
849.218	31.14
849.39	27.2
849.562	29.79
849.734	24.81
849.905	24.22
850.077	22.37
850.249	22.13
850.421	23.46
850.592	24.26
850.764	22.93
850.936	23.43
851.107	24.37
851.279	27.96
851.451	24.15
851.622	30.3
851.794	30.93
851.965	30.67
852.137	34.63
852.308	33.02
852.48	34.82
852.651	37.93
852.823	35.92
852.994	34.6
853.166	32.17
853.337	32.47
853.509	30.51
853.68	30.28
853.851	31.78
854.023	32.45
854.194	37.25
854.365	36.58
854.537	34.83
854.708	37.21
854.879	38.73
855.05	39.59
855.222	39.96
855.393	39.11
855.564	37.86
855.735	40.88
855.906	37.09
856.078	33.29
856.249	34.27
856.42	32.78
856.591	31.02
856.762	26.44
856.933	25.98
857.104	27.43
857.275	28.18
857.446	29.05
857.617	25.88
857.788	27.33
857.959	28.13
858.13	26.25
858.301	27.72
858.472	27.05
858.643	31.46
858.814	32.03
858.985	33.44
859.155	28.42
859.326	30.65
859.497	33.55
859.668	32.51
859.839	34.48
860.009	34.35
860.18	34.72
860.351	37.31
860.522	33.18
860.692	30.32
860.863	30.57
861.034	35.8
861.204	30.5
861.375	27.04
861.546	25.91
861.716	24.46
861.887	25.33
862.057	20.99
862.228	19.24
862.398	19.95
862.569	23.64
862.739	19.24
862.91	18.39
863.08	25.93
863.251	26.85
863.421	32.09
863.592	32.95
863.762	29.32
863.932	31.89
864.103	31.5
864.273	28.8
864.443	28.8
864.614	30.56
864.784	29.97
864.954	25.21
865.125	27.11
865.295	23.38
865.465	20.66
865.635	24.77
865.805	23.46
865.976	24.15
866.146	27.08
866.316	24.75
866.486	23.12
866.656	24.02
866.826	26.75
866.996	26
867.166	28.29
867.336	31.11
867.506	30.06
867.676	31.79
867.846	29.58
868.016	36.43
868.186	38.98
868.356	39.68
868.526	37.94
868.696	37.42
868.866	35.95
869.036	37
869.206	36.31
869.376	33.74
869.545	29.03
869.715	29.41
869.885	24.59
870.055	23.46
870.224	24.08
870.394	22.64
870.564	24.9
870.734	26.21
870.903	27.75
871.073	29.52
871.243	32.25
871.412	38.01
871.582	42.98
871.751	39.17
871.921	41.92
872.091	42.5
872.26	45.14
872.43	44.01
872.599	44.05
872.769	38.9
872.938	35.59
873.108	36.74
873.277	33.84
873.446	25.97
873.616	27.2
873.785	25.88
873.955	21.62
874.124	21.77
874.293	24.11
874.463	20.64
874.632	24.37
874.801	26.44
874.971	25.66
875.14	27.32
875.309	27.16
875.478	29.48
875.647	28.87
875.817	32.69
875.986	29.77
876.155	25.08
876.324	26.86
876.493	24.09
876.662	23.66
876.831	25.78
877	22.66
877.17	29.72
877.339	33.29
877.508	34
877.677	31.93
877.846	33.61
878.015	40.72
878.184	41.65
878.352	41.8
878.521	39.16
878.69	36.77
878.859	39.24
879.028	37.78
879.197	36.13
879.366	33.84
879.534	34.99
879.703	33.8
879.872	30.48
880.041	31.17
880.21	28.8
880.378	30.66
880.547	28.87
880.716	26.71
880.884	25.79
881.053	25.15
881.222	25.07
881.39	24.57
881.559	24.43
881.727	24.78
881.896	24.2
882.065	25.33
882.233	24.82
882.402	25.59
882.57	25.75
882.739	25.94
882.907	25.92
883.076	26.13
883.244	26.3
883.412	25.57
883.581	25.99
883.749	26.48
883.918	25.73
884.086	25.99
884.254	25.54
884.423	26.15
884.591	25.7
884.759	24.92
884.927	25.83
885.096	25.87
885.264	27.64
885.432	27.2
885.6	27.96
885.769	27.9
885.937	28.36
886.105	28.39
886.273	28.19
886.441	28.89
886.609	30.64
886.777	27.73
886.945	28.6
887.113	29.86
887.281	30.31
887.449	29.07
887.617	32.07
887.785	30.68
887.953	32.31
888.121	32.49
888.289	35.62
888.457	35.59
888.625	37.71
888.793	38.86
888.961	38.99
889.129	38.64
889.296	39.29
889.464	39.86
889.632	40.54
889.8	42.82
889.967	46.38
890.135	43.63
