Data from 2938522_Reflection_1.txt Node
Date: Tue Jun 16 22:13:58 EDT 2015
User: robert
Spectrometer: USB4E03002
Autoset integration time: false
Trigger mode: 4
Integration Time (sec): 1.000000E-1
Scans to average: 10
Electric dark correction enabled: true
Nonlinearity correction enabled: false
Boxcar width: 5
Stray light correction enabled: false
XAxis mode: Wavelengths
Stop averaging: false
Number of Pixels in Spectrum: 3648
>>>>>Begin Spectral Data<<<<<
177.575	-149.61
177.794	-163.33
178.014	-61.43
178.233	-60.85
178.452	-27.35
178.672	16.68
178.891	148.42
179.11	1914.05
179.33	4210.73
179.549	1036.98
179.768	386.63
179.987	548.16
180.207	713.27
180.426	256.66
180.645	183.19
180.864	170.27
181.084	145.8
181.303	113.89
181.522	98.08
181.741	102.69
181.96	94.32
182.179	106.57
182.398	87.3
182.618	64.9
182.837	65.16
183.056	67.07
183.275	71.38
183.494	72.48
183.713	77.93
183.932	78.17
184.151	60.21
184.37	60.75
184.589	60.49
184.808	60.26
185.027	76.41
185.246	95.75
185.465	91.38
185.684	90.55
185.903	95.12
186.122	92.51
186.341	90.04
186.56	109.5
186.779	163.19
186.998	193.08
187.216	216.93
187.435	345.94
187.654	325.03
187.873	495.73
188.092	597.31
188.311	-394.84
188.53	-255.83
188.748	-486.69
188.967	-9727.08
189.186	401.9
189.405	202.43
189.623	179.91
189.842	159.76
190.061	116.82
190.28	107.13
190.498	90.08
190.717	109.77
190.936	94.79
191.154	88.25
191.373	92.57
191.592	102.38
191.81	103.47
192.029	97.71
192.248	110.07
192.466	163.84
192.685	158.42
192.904	174.54
193.122	157.86
193.341	155.09
193.559	131.3
193.778	138.15
193.996	171.66
194.215	176.09
194.433	194.54
194.652	166.36
194.87	135.96
195.089	138.73
195.307	134.95
195.526	153.06
195.744	146.28
195.963	164.58
196.181	144.73
196.399	139.43
196.618	118.92
196.836	97.45
197.055	99.97
197.273	107.18
197.491	91.49
197.71	106.89
197.928	82.74
198.146	90.64
198.365	89.65
198.583	99.74
198.801	96.4
199.019	112.23
199.238	134.31
199.456	130.67
199.674	115.29
199.892	117.95
200.111	108.14
200.329	115.25
200.547	87.79
200.765	68.54
200.983	66.34
201.202	55.9
201.42	53.67
201.638	37.8
201.856	46.69
202.074	51.06
202.292	19.92
202.51	17.86
202.728	28.8
202.946	47.56
203.165	47.78
203.383	41.23
203.601	77.79
203.819	58.04
204.037	44.02
204.255	43.15
204.473	43.17
204.691	75.84
204.909	71.87
205.127	77.33
205.345	88.65
205.562	82.45
205.78	88.22
205.998	70.64
206.216	70.94
206.434	91.75
206.652	94.06
206.87	105.97
207.088	104.19
207.306	107.32
207.523	99.3
207.741	93.04
207.959	107.58
208.177	96.83
208.395	99.5
208.612	105.51
208.83	97.54
209.048	91.54
209.266	78.72
209.483	63.58
209.701	56.77
209.919	50.71
210.136	49.09
210.354	43.02
210.572	44.01
210.79	47.93
211.007	45.96
211.225	52.9
211.442	54.31
211.66	62.19
211.878	70.23
212.095	154.06
212.313	181.67
212.53	199.3
212.748	175.57
212.966	167.31
213.183	153.34
213.401	175.43
213.618	157.7
213.836	175.84
214.053	155.84
214.271	163.63
214.488	67.2
214.705	63.8
214.923	66.66
215.14	54.93
215.358	56.42
215.575	66.13
215.793	60.87
216.01	54.89
216.227	51.75
216.445	57.28
216.662	64.12
216.879	67.06
217.097	61.49
217.314	56.38
217.531	64.86
217.749	64.88
217.966	59.72
218.183	51.03
218.4	44.19
218.618	52.09
218.835	49.03
219.052	40.08
219.269	45.01
219.487	41.9
219.704	55.45
219.921	46.27
220.138	48.83
220.355	50.83
220.572	60.35
220.79	62.83
221.007	59.25
221.224	55.46
221.441	57.37
221.658	55.8
221.875	57.52
222.092	40.49
222.309	39.72
222.526	34.98
222.743	35.44
222.96	29.05
223.177	34.11
223.394	31.75
223.611	33.84
223.828	35.8
224.045	31.03
224.262	30.43
224.479	31.2
224.696	30.34
224.913	32.86
225.13	29.15
225.347	27.42
225.564	23.21
225.781	20.58
225.997	18.43
226.214	17.32
226.431	16.8
226.648	15.03
226.865	15.3
227.082	14.7
227.298	12.82
227.515	12.51
227.732	12.94
227.949	12.7
228.165	12.96
228.382	12.99
228.599	13.28
228.816	12.94
229.032	11.91
229.249	11.78
229.466	12.23
229.682	12.92
229.899	14.06
230.116	13.28
230.332	14.26
230.549	14.02
230.765	14.44
230.982	15.96
231.199	16.57
231.415	20.1
231.632	18.93
231.848	18.67
232.065	18.05
232.281	18.45
232.498	19.98
232.714	18.58
232.931	19.65
233.147	19.57
233.364	17.04
233.58	17.3
233.797	15.86
234.013	17.3
234.23	18.64
234.446	17.72
234.662	16.56
234.879	14.89
235.095	16.39
235.312	15.69
235.528	18.66
235.744	18.19
235.961	16.68
236.177	15.06
236.393	14.72
236.61	13.99
236.826	15.23
237.042	16.4
237.258	17.9
237.475	17.9
237.691	18.74
237.907	16.77
238.123	18.11
238.339	19.44
238.556	20.16
238.772	19.84
238.988	18.74
239.204	17.42
239.42	16.29
239.636	14.77
239.853	13.65
240.069	12.3
240.285	11.82
240.501	10.51
240.717	10.01
240.933	9.12
241.149	9.01
241.365	9.33
241.581	9.78
241.797	9.47
242.013	9.5
242.229	10.14
242.445	10.71
242.661	9.83
242.877	10.8
243.093	10.63
243.309	11.76
243.525	10.95
243.741	10.31
243.957	9.85
244.173	9.61
244.388	10.04
244.604	9.32
244.82	8.64
245.036	8.91
245.252	9.02
245.468	9.3
245.683	8.94
245.899	8.8
246.115	9.03
246.331	8.87
246.547	9.08
246.762	9.33
246.978	9.56
247.194	10.06
247.409	10.63
247.625	10.5
247.841	10.21
248.057	10.38
248.272	11.35
248.488	11.51
248.703	11.46
248.919	11.43
249.135	10.06
249.35	9.61
249.566	8.83
249.782	8.16
249.997	8.85
250.213	8.59
250.428	8.81
250.644	8.31
250.859	8.1
251.075	8.78
251.29	8.63
251.506	9.25
251.721	9.21
251.937	9.99
252.152	9.57
252.368	8.69
252.583	9.33
252.798	9.31
253.014	9.96
253.229	10.02
253.445	10.39
253.66	10.21
253.875	8.78
254.091	9.66
254.306	8.91
254.521	10.44
254.737	9.97
254.952	8.91
255.167	8.49
255.383	8.2
255.598	7.09
255.813	5.95
256.028	6.68
256.244	7.63
256.459	7.56
256.674	7.41
256.889	6.6
257.104	6.63
257.32	6.99
257.535	6.88
257.75	6.72
257.965	7.03
258.18	7.11
258.395	7.09
258.61	6.99
258.826	6.73
259.041	7.03
259.256	7.31
259.471	7.17
259.686	7.17
259.901	7.08
260.116	6.8
260.331	6.36
260.546	6.66
260.761	6.14
260.976	6
261.191	6.08
261.406	5.77
261.621	5.42
261.836	5.09
262.05	4.64
262.265	5.02
262.48	5.74
262.695	6.21
262.91	5.76
263.125	6.66
263.34	6.14
263.555	6.16
263.769	6.31
263.984	6.29
264.199	7.28
264.414	7.17
264.629	7.25
264.843	7.19
265.058	7.52
265.273	7.68
265.488	6.97
265.702	7.73
265.917	8.56
266.132	8.55
266.346	8.46
266.561	8.33
266.776	8.37
266.99	8.27
267.205	8.11
267.42	7.96
267.634	7.78
267.849	8.53
268.063	8.32
268.278	7.19
268.492	7.04
268.707	7.41
268.922	7.22
269.136	7.19
269.351	6.82
269.565	6.47
269.78	6.35
269.994	6.53
270.209	6.1
270.423	6.12
270.637	6.44
270.852	5.88
271.066	5.67
271.281	5.78
271.495	5.61
271.709	6.18
271.924	6.09
272.138	6.5
272.353	6.79
272.567	6.97
272.781	6.93
272.996	7.71
273.21	8.46
273.424	8.93
273.638	8.92
273.853	9.84
274.067	9.51
274.281	10.16
274.495	10.04
274.71	9.73
274.924	9.83
275.138	9.71
275.352	8.23
275.566	8.02
275.781	7.84
275.995	7.68
276.209	7.06
276.423	7.1
276.637	7.2
276.851	6.87
277.065	6.77
277.279	7.01
277.493	7.07
277.707	7.92
277.921	7.8
278.135	7.67
278.349	8.16
278.563	8.23
278.777	8.41
278.991	8.09
279.205	7.8
279.419	7.66
279.633	7.24
279.847	6.8
280.061	6.84
280.275	6.97
280.489	6.82
280.703	6.29
280.917	6.33
281.131	6.03
281.344	6.41
281.558	6.6
281.772	6.97
281.986	7.05
282.2	7.23
282.414	6.73
282.627	6.72
282.841	6.76
283.055	7.01
283.269	6.84
283.482	6.78
283.696	6.5
283.91	6.59
284.123	6.17
284.337	6.06
284.551	6.07
284.764	6.25
284.978	6.22
285.192	6.25
285.405	6.15
285.619	5.94
285.833	6.34
286.046	6.24
286.26	5.98
286.473	6.26
286.687	6.45
286.9	6.29
287.114	6.17
287.327	6.23
287.541	6.05
287.754	6.11
287.968	6.74
288.181	6.26
288.395	6.32
288.608	6.71
288.822	6.65
289.035	6.5
289.248	6.41
289.462	6.76
289.675	6.66
289.889	6.94
290.102	6.83
290.315	6.74
290.529	6.86
290.742	6.63
290.955	6.37
291.169	6.38
291.382	7.05
291.595	7.55
291.808	7.37
292.022	7.79
292.235	7.55
292.448	8.06
292.661	7.64
292.875	7.75
293.088	8.3
293.301	8.51
293.514	8.34
293.727	8.19
293.94	8.15
294.153	7.7
294.367	7.38
294.58	6.88
294.793	6.37
295.006	6.2
295.219	6.17
295.432	5.88
295.645	5.41
295.858	5.32
296.071	4.81
296.284	4.8
296.497	5.03
296.71	5.09
296.923	5.46
297.136	5.41
297.349	5.89
297.562	5.83
297.775	5.72
297.988	6.15
298.201	6.49
298.414	6.69
298.626	6.66
298.839	6.68
299.052	6.33
299.265	6.56
299.478	6.6
299.691	6.43
299.903	6.44
300.116	6.6
300.329	6.63
300.542	6.77
300.755	6.52
300.967	6.21
301.18	6.16
301.393	6.42
301.605	5.59
301.818	5.85
302.031	6.07
302.243	5.84
302.456	5.77
302.669	5.46
302.881	5.67
303.094	6.13
303.307	6.24
303.519	6.14
303.732	6.68
303.944	7.11
304.157	7.21
304.37	6.95
304.582	6.95
304.795	7.01
305.007	7.27
305.22	6.72
305.432	6.67
305.645	6.73
305.857	7.4
306.069	7.1
306.282	7.46
306.494	7.05
306.707	6.99
306.919	7.58
307.132	7.38
307.344	7.19
307.556	6.88
307.769	6.8
307.981	6.73
308.193	6.42
308.406	6
308.618	6.13
308.83	6.31
309.043	6.06
309.255	5.72
309.467	5.58
309.679	5.84
309.892	6.1
310.104	6.16
310.316	6.77
310.528	6.68
310.74	7.15
310.953	6.91
311.165	6.72
311.377	6.87
311.589	7.14
311.801	7.26
312.013	7.7
312.225	7.52
312.437	7.31
312.649	7.05
312.862	6.95
313.074	6.66
313.286	6.61
313.498	6.86
313.71	6.99
313.922	7.21
314.134	7.21
314.346	6.67
314.558	6.59
314.77	7.13
314.982	6.81
315.193	6.92
315.405	6.88
315.617	6.85
315.829	6.79
316.041	6.44
316.253	6.05
316.465	6.72
316.677	6.67
316.888	7.05
317.1	6.8
317.312	7.14
317.524	7.04
317.736	7.28
317.947	8.03
318.159	7.82
318.371	7.67
318.583	8.15
318.794	7.69
319.006	7.85
319.218	7.78
319.43	7.75
319.641	7.25
319.853	7.61
320.064	7.69
320.276	7.36
320.488	7.59
320.699	8.06
320.911	7.69
321.123	7.49
321.334	7.55
321.546	7.67
321.757	7.7
321.969	8.16
322.18	7.81
322.392	7.5
322.603	7.16
322.815	7.13
323.026	7.28
323.238	7.27
323.449	7.92
323.661	8.02
323.872	7.71
324.083	7.81
324.295	7.29
324.506	7.25
324.718	7.38
324.929	7.68
325.14	8.12
325.352	8.05
325.563	8.2
325.774	7.97
325.986	7.61
326.197	7.94
326.408	7.59
326.62	7.82
326.831	7.97
327.042	7.98
327.253	8.3
327.464	8.08
327.676	7.77
327.887	7.59
328.098	7.29
328.309	7.55
328.52	7.47
328.732	7.46
328.943	7.52
329.154	7.79
329.365	7.29
329.576	6.8
329.787	6.36
329.998	6.55
330.209	6.55
330.42	6.9
330.631	6.41
330.842	6.53
331.053	6.48
331.264	6.52
331.475	6.2
331.686	6.53
331.897	6.44
332.108	6.79
332.319	6.87
332.53	6.47
332.741	6.15
332.952	6.36
333.163	6.23
333.374	6.39
333.585	6.46
333.795	6.3
334.006	6.61
334.217	6.39
334.428	6.28
334.639	6.58
334.849	6.67
335.06	6.73
335.271	6.92
335.482	6.74
335.692	6.66
335.903	6.09
336.114	6.62
336.325	6.38
336.535	6.89
336.746	7.14
336.957	6.92
337.167	7.55
337.378	7.61
337.589	7.71
337.799	7.82
338.01	8.21
338.22	8.47
338.431	8.68
338.642	8.59
338.852	8.36
339.063	7.99
339.273	7.93
339.484	7.39
339.694	7.01
339.905	6.26
340.115	6.34
340.326	5.94
340.536	5.93
340.746	5.22
340.957	5.23
341.167	5.32
341.378	5.12
341.588	5.04
341.799	5.05
342.009	5.34
342.219	5.94
342.43	5.87
342.64	5.88
342.85	5.84
343.061	6.03
343.271	6.24
343.481	5.59
343.691	5.8
343.902	6.08
344.112	6.12
344.322	5.91
344.532	5.92
344.743	5.63
344.953	5.59
345.163	5.56
345.373	5.33
345.583	5.14
345.793	5.35
346.004	5.34
346.214	4.72
346.424	4.65
346.634	4.9
346.844	5.22
347.054	5.48
347.264	5.43
347.474	5.33
347.684	5.56
347.894	5.52
348.104	5.73
348.314	5.7
348.524	5.69
348.734	5.31
348.944	5.35
349.154	4.75
349.364	4.49
349.574	4.23
349.784	4.18
349.994	4.14
350.204	3.91
350.413	3.98
350.623	3.98
350.833	4.43
351.043	4.79
351.253	4.53
351.463	4.5
351.672	5.13
351.882	5.48
352.092	5.66
352.302	5.54
352.511	5.63
352.721	5.9
352.931	6.22
353.141	6.01
353.35	6.33
353.56	6.27
353.77	6.39
353.979	6.42
354.189	6.19
354.399	6.23
354.608	6.3
354.818	6.42
355.027	6.09
355.237	5.91
355.447	5.8
355.656	5.46
355.866	5.59
356.075	5.53
356.285	5.16
356.494	5.49
356.704	5.66
356.913	6.01
357.123	5.97
357.332	6.02
357.542	5.95
357.751	6.08
357.96	6
358.17	6.12
358.379	6.15
358.589	6.25
358.798	5.78
359.007	5.55
359.217	5.2
359.426	5.14
359.635	5.26
359.845	5.12
360.054	4.97
360.263	5.12
360.472	4.93
360.682	4.93
360.891	4.9
361.1	5.09
361.309	5.28
361.519	5.29
361.728	5.27
361.937	5.15
362.146	5.16
362.355	5.34
362.564	5.18
362.774	5.24
362.983	5.2
363.192	5.27
363.401	5.32
363.61	5.2
363.819	5.16
364.028	5.17
364.237	4.92
364.446	4.96
364.655	4.68
364.864	4.68
365.073	4.66
365.282	4.75
365.491	4.59
365.7	4.5
365.909	4.41
366.118	4.37
366.327	4.32
366.536	4.47
366.745	4.61
366.954	4.83
367.162	5.05
367.371	5.25
367.58	5.25
367.789	5.25
367.998	5.31
368.207	5.23
368.415	5.07
368.624	5.02
368.833	5.01
369.042	4.93
369.25	4.79
369.459	4.7
369.668	4.5
369.877	4.13
370.085	4.05
370.294	4.12
370.503	4.08
370.711	4.41
370.92	4.24
371.129	4.19
371.337	4.1
371.546	4.06
371.754	4.12
371.963	4.01
372.171	4.29
372.38	4.42
372.589	4.67
372.797	4.54
373.006	4.32
373.214	4.89
373.423	5.09
373.631	5.01
373.84	5.15
374.048	5.01
374.256	5.23
374.465	5.24
374.673	5.2
374.882	4.85
375.09	4.83
375.298	5.05
375.507	4.73
375.715	4.77
375.923	4.98
376.132	4.92
376.34	5.01
376.548	4.58
376.757	4.63
376.965	4.68
377.173	4.72
377.381	4.96
377.59	4.98
377.798	5.02
378.006	4.9
378.214	4.65
378.423	4.56
378.631	4.42
378.839	4.77
379.047	4.45
379.255	4.25
379.463	4.24
379.671	3.97
379.879	3.76
380.088	3.6
380.296	3.33
380.504	3.66
380.712	3.9
380.92	3.99
381.128	3.94
381.336	4.11
381.544	4.04
381.752	3.96
381.96	4.2
382.168	3.99
382.376	4.08
382.584	4.52
382.791	4.17
382.999	4.18
383.207	4.09
383.415	4.04
383.623	3.97
383.831	4.16
384.039	4.18
384.247	3.95
384.454	3.99
384.662	3.85
384.87	3.55
385.078	3.72
385.285	3.48
385.493	3.5
385.701	3.5
385.909	3.44
386.116	3.13
386.324	3.08
386.532	3.23
386.739	3.44
386.947	3.59
387.155	3.55
387.362	3.44
387.57	3.53
387.778	3.3
387.985	3.31
388.193	3.25
388.4	3.22
388.608	3.28
388.816	3.15
389.023	3.02
389.231	2.83
389.438	2.96
389.646	2.98
389.853	3.03
390.061	3.29
390.268	3.28
390.475	3.35
390.683	3.47
390.89	3.51
391.098	3.64
391.305	3.77
391.512	3.93
391.72	3.82
391.927	3.6
392.135	3.33
392.342	3.07
392.549	3.07
392.756	3.16
392.964	3.08
393.171	3.04
393.378	3.02
393.586	2.91
393.793	2.81
394	2.9
394.207	3.13
394.414	3.42
394.622	3.51
394.829	3.57
395.036	3.57
395.243	3.68
395.45	3.64
395.657	3.49
395.864	3.47
396.072	3.66
396.279	3.6
396.486	3.56
396.693	3.38
396.9	3.53
397.107	3.32
397.314	3.31
397.521	3.4
397.728	3.39
397.935	3.62
398.142	3.63
398.349	3.41
398.556	3.29
398.763	3.45
398.97	3.55
399.177	3.45
399.383	3.49
399.59	3.29
399.797	3.26
400.004	3.21
400.211	3.04
400.418	2.97
400.625	3.17
400.831	3.35
401.038	3.06
401.245	3.05
401.452	2.93
401.658	3.03
401.865	3.1
402.072	3.08
402.279	3.17
402.485	3.24
402.692	3.29
402.899	3.1
403.105	2.93
403.312	2.93
403.519	2.89
403.725	2.88
403.932	2.84
404.138	2.88
404.345	2.7
404.552	2.72
404.758	2.53
404.965	2.51
405.171	2.52
405.378	2.5
405.584	2.73
405.791	2.68
405.997	2.85
406.204	2.68
406.41	2.74
406.617	2.95
406.823	2.8
407.029	2.82
407.236	2.86
407.442	2.97
407.649	2.95
407.855	2.71
408.061	2.83
408.268	2.62
408.474	2.67
408.68	2.68
408.887	2.55
409.093	2.72
409.299	2.83
409.505	2.76
409.712	2.71
409.918	2.91
410.124	3.06
410.33	3
410.537	3.14
410.743	3.29
410.949	3.01
411.155	3.1
411.361	2.77
411.567	2.75
411.773	2.64
411.98	2.64
412.186	2.48
412.392	2.47
412.598	2.5
412.804	2.39
413.01	2.3
413.216	2.39
413.422	2.4
413.628	2.61
413.834	2.52
414.04	2.52
414.246	2.45
414.452	2.38
414.658	2.41
414.864	2.31
415.07	2.51
415.275	2.63
415.481	2.64
415.687	2.6
415.893	2.53
416.099	2.48
416.305	2.58
416.511	2.57
416.716	2.63
416.922	2.59
417.128	2.64
417.334	2.53
417.539	2.3
417.745	2.27
417.951	2.31
418.157	2.37
418.362	2.43
418.568	2.38
418.774	2.4
418.979	2.38
419.185	2.25
419.391	2.16
419.596	2.13
419.802	2.2
420.008	2.16
420.213	2.82
420.419	2.82
420.624	2.79
420.83	2.77
421.035	2.8
421.241	2.78
421.446	2.82
421.652	2.91
421.857	2.9
422.063	2.92
422.268	2.98
422.474	2.23
422.679	2.23
422.885	2.23
423.09	2.19
423.295	2.09
423.501	2.09
423.706	2.09
423.911	2.03
424.117	2.1
424.322	2.09
424.527	2.1
424.733	2.13
424.938	2.05
425.143	2.09
425.349	2.16
425.554	2.3
425.759	2.35
425.964	2.39
426.169	2.55
426.375	2.45
426.58	2.45
426.785	2.42
426.99	2.47
427.195	2.51
427.4	2.59
427.605	2.68
427.811	2.53
428.016	2.47
428.221	2.5
428.426	2.31
428.631	2.35
428.836	2.46
429.041	2.59
429.246	2.52
429.451	2.42
429.656	2.15
429.861	2.07
430.066	2.21
430.271	2.23
430.476	2.22
430.681	2.35
430.886	2.31
431.09	2.26
431.295	2.12
431.5	2.1
431.705	2.16
431.91	2.27
432.115	2.23
432.32	2.17
432.524	2.14
432.729	2.18
432.934	2.06
433.139	2.16
433.343	2.13
433.548	2.17
433.753	2.2
433.958	2.19
434.162	2.17
434.367	2.21
434.572	2.18
434.776	2.15
434.981	2.17
435.186	2.24
435.39	2.15
435.595	2.14
435.799	2.1
436.004	2.11
436.209	2.12
436.413	2.07
436.618	2.16
436.822	2.18
437.027	2.26
437.231	2.13
437.436	2.1
437.64	2.09
437.845	2.07
438.049	2.05
438.253	2.08
438.458	2.06
438.662	2.07
438.867	2.03
439.071	1.97
439.275	1.93
439.48	2.01
439.684	1.98
439.888	2.08
440.093	2.1
440.297	2.06
440.501	1.99
440.706	2.04
440.91	2.07
441.114	2.04
441.318	2.13
441.523	2.21
441.727	2.19
441.931	2.27
442.135	2.14
442.339	2.09
442.543	2.16
442.748	2.14
442.952	2.11
443.156	2.06
443.36	2.03
443.564	1.97
443.768	1.83
443.972	1.81
444.176	1.85
444.38	1.91
444.584	1.9
444.788	1.92
444.992	1.95
445.196	1.97
445.4	1.95
445.604	1.99
445.808	2.05
446.012	2.04
446.216	2.02
446.42	1.93
446.624	1.88
446.828	1.98
447.032	1.94
447.235	1.96
447.439	1.92
447.643	1.93
447.847	1.83
448.051	1.78
448.254	1.79
448.458	1.79
448.662	1.8
448.866	1.88
449.069	1.81
449.273	1.92
449.477	1.83
449.681	1.76
449.884	1.84
450.088	1.81
450.292	1.84
450.495	1.91
450.699	2
450.902	2.04
451.106	1.85
451.31	1.83
451.513	1.84
451.717	1.92
451.92	1.96
452.124	1.95
452.327	2.09
452.531	2.07
452.734	2.09
452.938	2.13
453.141	2.17
453.345	2.25
453.548	2.2
453.752	2.08
453.955	2.1
454.158	2.17
454.362	2.05
454.565	2.03
454.769	2.04
454.972	2.07
455.175	1.99
455.379	1.97
455.582	2.09
455.785	2.23
455.988	2.15
456.192	2.08
456.395	1.97
456.598	2.07
456.801	1.98
457.005	1.91
457.208	1.84
457.411	1.8
457.614	1.69
457.817	1.64
458.021	1.62
458.224	1.74
458.427	1.66
458.63	1.74
458.833	1.77
459.036	1.76
459.239	1.81
459.442	1.81
459.645	1.85
459.848	1.91
460.051	1.94
460.254	1.91
460.457	1.86
460.66	2.01
460.863	2.03
461.066	2.09
461.269	2.17
461.472	2.25
461.675	2.24
461.878	2.36
462.081	2.29
462.284	2.28
462.486	2.28
462.689	2.29
462.892	2.34
463.095	2.32
463.298	2.1
463.5	2.19
463.703	2.02
463.906	2.14
464.109	2.04
464.311	2.18
464.514	2.26
464.717	2.29
464.92	2.29
465.122	2.27
465.325	2.24
465.528	2.31
465.73	2.23
465.933	2.31
466.135	2.29
466.338	2.24
466.541	2.21
466.743	2.15
466.946	2.16
467.148	2.12
467.351	2.03
467.553	2.05
467.756	2.03
467.958	2.06
468.161	1.98
468.363	1.95
468.566	2
468.768	2.02
468.971	1.98
469.173	1.91
469.375	1.91
469.578	1.92
469.78	1.89
469.983	1.92
470.185	1.88
470.387	1.94
470.59	1.87
470.792	1.84
470.994	1.8
471.196	1.88
471.399	1.97
471.601	1.96
471.803	1.92
472.005	2.01
472.208	2.01
472.41	2.04
472.612	2.05
472.814	2.08
473.016	2.21
473.218	2.35
473.421	2.13
473.623	2.14
473.825	2.2
474.027	2.29
474.229	2.25
474.431	2.31
474.633	2.22
474.835	2.28
475.037	2.3
475.239	2.04
475.441	1.9
475.643	2.05
475.845	2.02
476.047	2.04
476.249	1.98
476.451	1.95
476.653	2
476.855	1.98
477.057	1.91
477.258	1.87
477.46	1.98
477.662	1.98
477.864	1.97
478.066	1.96
478.268	1.84
478.469	1.87
478.671	1.84
478.873	1.72
479.075	1.83
479.276	1.8
479.478	1.76
479.68	1.73
479.882	1.78
480.083	1.71
480.285	1.7
480.487	1.74
480.688	1.69
480.89	1.71
481.091	1.67
481.293	1.66
481.495	1.61
481.696	1.61
481.898	1.59
482.099	1.56
482.301	1.55
482.502	1.55
482.704	1.54
482.905	1.56
483.107	1.56
483.308	1.57
483.51	1.54
483.711	1.52
483.913	1.53
484.114	1.55
484.315	1.55
484.517	1.57
484.718	1.51
484.92	1.52
485.121	1.52
485.322	1.51
485.524	1.5
485.725	1.49
485.926	1.53
486.127	1.57
486.329	1.56
486.53	1.58
486.731	1.57
486.932	1.62
487.134	1.61
487.335	1.59
487.536	1.56
487.737	1.59
487.938	1.64
488.139	1.66
488.341	1.65
488.542	1.63
488.743	1.6
488.944	1.64
489.145	1.66
489.346	1.66
489.547	1.67
489.748	1.71
489.949	1.71
490.15	1.67
490.351	1.63
490.552	1.61
490.753	1.63
490.954	1.66
491.155	1.64
491.356	1.6
491.557	1.65
491.758	1.68
491.959	1.68
492.159	1.64
492.36	1.61
492.561	1.63
492.762	1.69
492.963	1.72
493.164	1.7
493.364	1.68
493.565	1.7
493.766	1.71
493.967	1.71
494.167	1.71
494.368	1.76
494.569	1.82
494.769	1.84
494.97	1.78
495.171	1.8
495.371	1.78
495.572	1.8
495.773	1.8
495.973	1.78
496.174	1.74
496.375	1.78
496.575	1.81
496.776	1.9
496.976	1.93
497.177	1.94
497.377	2
497.578	2.05
497.778	2.06
497.979	2.13
498.179	2.14
498.38	2.17
498.58	2.2
498.78	2.21
498.981	2.19
499.181	2.17
499.382	2.22
499.582	2.13
499.782	2.14
499.983	2.11
500.183	2.14
500.383	2.21
500.584	2.22
500.784	2.13
500.984	2.09
501.184	2.07
501.385	2.06
501.585	2.08
501.785	2.01
501.985	1.96
502.185	1.98
502.386	1.95
502.586	1.85
502.786	1.87
502.986	1.91
503.186	1.87
503.386	1.93
503.586	1.88
503.786	1.87
503.987	1.88
504.187	1.87
504.387	1.84
504.587	1.87
504.787	1.9
504.987	1.95
505.187	2
505.387	2.11
505.587	2.08
505.786	2.21
505.986	2.18
506.186	2.23
506.386	2.26
506.586	2.35
506.786	2.34
506.986	2.36
507.186	2.27
507.386	2.21
507.585	2.12
507.785	2.07
507.985	2.05
508.185	2.08
508.384	2.1
508.584	2.06
508.784	2.06
508.984	2.1
509.183	2.04
509.383	2.12
509.583	2.11
509.782	2.14
509.982	2.23
510.182	2.23
510.381	2.17
510.581	2.25
510.781	2.31
510.98	2.3
511.18	2.27
511.379	2.31
511.579	2.29
511.778	2.26
511.978	2.27
512.177	2.19
512.377	2.24
512.576	2.33
512.776	2.29
512.975	2.27
513.175	2.25
513.374	2.24
513.573	2.2
513.773	2.25
513.972	2.28
514.172	2.36
514.371	2.46
514.57	2.38
514.77	2.41
514.969	2.47
515.168	2.48
515.367	2.54
515.567	2.59
515.766	2.66
515.965	2.71
516.164	2.75
516.364	2.74
516.563	2.68
516.762	2.73
516.961	2.7
517.16	2.62
517.359	2.65
517.559	2.7
517.758	2.7
517.957	2.66
518.156	2.63
518.355	2.66
518.554	2.61
518.753	2.64
518.952	2.64
519.151	2.68
519.35	2.71
519.549	2.71
519.748	2.65
519.947	2.68
520.146	2.77
520.345	2.75
520.544	2.77
520.743	2.82
520.942	2.85
521.141	2.88
521.339	2.91
521.538	2.83
521.737	2.84
521.936	2.86
522.135	2.87
522.333	2.86
522.532	2.89
522.731	2.85
522.93	2.93
523.129	2.95
523.327	2.91
523.526	2.9
523.725	3.05
523.923	3.12
524.122	3.16
524.321	3.14
524.519	3.11
524.718	3.13
524.917	3.16
525.115	3.13
525.314	3.14
525.512	3.17
525.711	3.2
525.909	3.17
526.108	3.14
526.306	3.17
526.505	3.22
526.703	3.27
526.902	3.28
527.1	3.31
527.299	3.36
527.497	3.38
527.696	3.44
527.894	3.49
528.092	3.54
528.291	3.55
528.489	3.55
528.688	3.55
528.886	3.58
529.084	3.66
529.283	3.67
529.481	3.67
529.679	3.68
529.877	3.66
530.076	3.62
530.274	3.57
530.472	3.59
530.67	3.65
530.869	3.69
531.067	3.72
531.265	3.69
531.463	3.71
531.661	3.75
531.859	3.75
532.057	3.78
532.255	3.78
532.454	3.82
532.652	3.88
532.85	3.94
533.048	3.95
533.246	4.03
533.444	4.03
533.642	4.07
533.84	4.05
534.038	4.14
534.236	4.14
534.434	4.18
534.632	4.27
534.83	4.3
535.027	4.3
535.225	4.32
535.423	4.3
535.621	4.35
535.819	4.45
536.017	4.52
536.215	4.54
536.412	4.53
536.61	4.61
536.808	4.61
537.006	4.6
537.203	4.6
537.401	4.69
537.599	4.74
537.797	4.76
537.994	4.69
538.192	4.73
538.39	4.75
538.587	4.87
538.785	4.9
538.983	4.91
539.18	4.91
539.378	4.94
539.575	4.93
539.773	4.92
539.97	4.97
540.168	5.02
540.366	5.05
540.563	5.09
540.761	5.07
540.958	5.06
541.155	5.08
541.353	5.18
541.55	5.17
541.748	5.2
541.945	5.24
542.143	5.24
542.34	5.32
542.537	5.32
542.735	5.28
542.932	5.32
543.129	5.42
543.327	5.47
543.524	5.55
543.721	5.59
543.919	5.66
544.116	5.72
544.313	5.86
544.51	5.82
544.708	5.88
544.905	5.96
545.102	6.04
545.299	6.02
545.496	6.11
545.693	6.01
545.891	6.1
546.088	6.1
546.285	6.17
546.482	6.18
546.679	6.21
546.876	6.27
547.073	6.34
547.27	6.47
547.467	6.5
547.664	6.46
547.861	6.65
548.058	6.65
548.255	6.74
548.452	6.73
548.649	6.78
548.846	6.91
549.043	6.9
549.24	7.01
549.437	6.97
549.633	7.08
549.83	7.13
550.027	7.13
550.224	7.22
550.421	7.23
550.618	7.23
550.814	7.29
551.011	7.32
551.208	7.36
551.405	7.33
551.601	7.35
551.798	7.37
551.995	7.41
552.191	7.45
552.388	7.52
552.585	7.59
552.781	7.65
552.978	7.53
553.175	7.59
553.371	7.69
553.568	7.75
553.764	7.8
553.961	7.91
554.157	7.99
554.354	8.08
554.55	8.06
554.747	8.05
554.943	8.07
555.14	8.24
555.336	8.3
555.533	8.18
555.729	8.29
555.926	8.27
556.122	8.36
556.318	8.43
556.515	8.59
556.711	8.69
556.907	8.87
557.104	9.07
557.3	9.2
557.496	9.21
557.693	9.37
557.889	9.39
558.085	9.54
558.281	9.6
558.478	9.67
558.674	9.56
558.87	9.6
559.066	9.7
559.262	9.73
559.459	9.73
559.655	9.79
559.851	9.83
560.047	9.8
560.243	9.86
560.439	9.9
560.635	9.91
560.831	9.95
561.027	9.95
561.223	9.88
561.419	9.83
561.615	9.81
561.811	9.98
562.007	10.08
562.203	10.24
562.399	10.2
562.595	10.19
562.791	10.29
562.987	10.46
563.183	10.63
563.379	10.74
563.575	10.89
563.771	11.04
563.966	11.05
564.162	11.07
564.358	11.13
564.554	11.27
564.75	11.28
564.945	11.31
565.141	11.33
565.337	11.43
565.533	11.44
565.728	11.43
565.924	11.45
566.12	11.5
566.315	11.58
566.511	11.58
566.707	11.62
566.902	11.74
567.098	11.84
567.293	11.85
567.489	11.87
567.684	11.86
567.88	11.98
568.076	12.03
568.271	12.11
568.467	12.16
568.662	12.33
568.858	12.4
569.053	12.42
569.248	12.41
569.444	12.58
569.639	12.66
569.835	12.81
570.03	12.91
570.225	13.02
570.421	13.04
570.616	13.14
570.812	13.18
571.007	13.28
571.202	13.4
571.397	13.5
571.593	13.44
571.788	13.49
571.983	13.57
572.178	13.54
572.374	13.65
572.569	13.69
572.764	13.71
572.959	13.73
573.154	13.66
573.35	13.69
573.545	13.79
573.74	13.84
573.935	13.87
574.13	13.92
574.325	14.01
574.52	14.04
574.715	14.2
574.91	14.19
575.105	14.26
575.3	14.38
575.495	14.44
575.69	14.31
575.885	14.51
576.08	14.61
576.275	14.67
576.47	14.72
576.665	14.58
576.86	14.57
577.055	14.72
577.25	14.82
577.444	14.86
577.639	14.94
577.834	15.16
578.029	15.08
578.224	14.97
578.418	15
578.613	15.16
578.808	15.28
579.003	15.28
579.197	15.43
579.392	15.45
579.587	15.67
579.781	15.65
579.976	15.73
580.171	15.82
580.365	15.94
580.56	16.02
580.755	15.95
580.949	16.04
581.144	16.2
581.338	16.21
581.533	16.19
581.727	16.09
581.922	16.09
582.116	16.25
582.311	16.27
582.505	16.39
582.7	16.46
582.894	16.51
583.089	16.42
583.283	16.27
583.478	16.24
583.672	16.2
583.866	16.34
584.061	16.37
584.255	16.24
584.449	16.33
584.644	16.38
584.838	16.25
585.032	16.29
585.226	16.38
585.421	16.45
585.615	16.6
585.809	16.71
586.003	16.64
586.198	16.78
586.392	16.89
586.586	16.86
586.78	16.84
586.974	17
587.168	17.05
587.363	17.18
587.557	17.23
587.751	17.14
587.945	17.19
588.139	17.27
588.333	17.28
588.527	17.32
588.721	17.4
588.915	17.38
589.109	17.47
589.303	17.54
589.497	17.39
589.691	17.37
589.885	17.32
590.079	17.45
590.273	17.46
590.466	17.37
590.66	17.34
590.854	17.3
591.048	17.36
591.242	17.37
591.436	17.31
591.629	17.57
591.823	17.51
592.017	17.68
592.211	17.54
592.404	17.58
592.598	17.62
592.792	17.74
592.986	17.78
593.179	17.81
593.373	17.76
593.567	17.86
593.76	17.79
593.954	18.12
594.147	18.21
594.341	18.33
594.535	18.43
594.728	18.47
594.922	18.47
595.115	18.59
595.309	18.57
595.502	18.59
595.696	18.54
595.889	18.57
596.083	18.43
596.276	18.36
596.47	18.39
596.663	18.3
596.856	18.44
597.05	18.39
597.243	18.35
597.437	18.36
597.63	18.3
597.823	18.37
598.017	18.37
598.21	18.54
598.403	18.49
598.596	18.51
598.79	18.59
598.983	18.44
599.176	18.51
599.369	18.48
599.563	18.53
599.756	18.62
599.949	18.58
600.142	18.65
600.335	18.49
600.528	18.55
600.722	18.7
600.915	18.72
601.108	18.95
601.301	19.02
601.494	19.14
601.687	19.22
601.88	19.2
602.073	19.19
602.266	19.26
602.459	19.28
602.652	19.34
602.845	19.3
603.038	19.25
603.231	19.27
603.424	19.33
603.617	19.33
603.809	19.3
604.002	19.33
604.195	19.48
604.388	19.51
604.581	19.67
604.774	19.79
604.966	19.75
605.159	19.71
605.352	19.73
605.545	19.67
605.737	19.57
605.93	19.62
606.123	19.69
606.316	19.7
606.508	19.78
606.701	19.73
606.894	19.54
607.086	19.64
607.279	19.8
607.471	19.8
607.664	19.85
607.857	19.93
608.049	19.97
608.242	20.03
608.434	20.02
608.627	19.99
608.819	19.98
609.012	20.05
609.204	20.07
609.397	20.21
609.589	20.12
609.782	20
609.974	20.2
610.166	20.25
610.359	20.24
610.551	20.31
610.743	20.28
610.936	20.37
611.128	20.49
611.32	20.39
611.513	20.33
611.705	20.43
611.897	20.57
612.09	20.53
612.282	20.68
612.474	20.56
612.666	20.5
612.858	20.75
613.051	20.88
613.243	20.77
613.435	20.83
613.627	20.84
613.819	20.84
614.011	21.17
614.203	21.28
614.395	21.35
614.588	21.49
614.78	21.56
614.972	21.34
615.164	21.15
615.356	21.11
615.548	21.18
615.74	21.09
615.932	21.07
616.124	20.87
616.315	20.79
616.507	20.59
616.699	20.78
616.891	20.93
617.083	21.16
617.275	21.27
617.467	21.47
617.659	21.64
617.85	21.91
618.042	22.01
618.234	22.02
618.426	21.93
618.618	22.12
618.809	22.05
619.001	21.91
619.193	21.89
619.384	21.89
619.576	21.85
619.768	21.92
619.959	21.76
620.151	21.85
620.343	21.92
620.534	22.05
620.726	21.94
620.917	22.06
621.109	22.01
621.301	21.94
621.492	21.84
621.684	21.76
621.875	21.56
622.067	21.59
622.258	21.68
622.45	21.64
622.641	21.65
622.832	21.65
623.024	21.54
623.215	21.75
623.407	21.73
623.598	21.82
623.789	21.84
623.981	21.91
624.172	22.02
624.363	21.93
624.555	22.11
624.746	22.05
624.937	21.95
625.129	22.11
625.32	22.01
625.511	21.94
625.702	21.94
625.893	22.03
626.085	21.98
626.276	21.99
626.467	22.03
626.658	21.76
626.849	21.83
627.04	21.89
627.231	21.81
627.422	21.82
627.614	21.96
627.805	22.03
627.996	21.88
628.187	22.01
628.378	21.99
628.569	21.92
628.76	22.2
628.951	22.11
629.142	22.28
629.332	22.22
629.523	22.3
629.714	22.22
629.905	22.24
630.096	22.45
630.287	22.52
630.478	22.35
630.669	22.43
630.859	22.13
631.05	22.28
631.241	22.15
631.432	22.21
631.623	22.23
631.813	22.28
632.004	22.2
632.195	22.11
632.385	21.99
632.576	22.07
632.767	22.18
632.957	22.57
633.148	22.62
633.339	22.8
633.529	22.84
633.72	22.84
633.91	22.79
634.101	22.75
634.292	22.88
634.482	23.02
634.673	23.08
634.863	23.2
635.054	23.08
635.244	23.09
635.435	22.83
635.625	22.8
635.815	22.82
636.006	22.94
636.196	23.19
636.387	23.17
636.577	23.02
636.767	23.05
636.958	22.99
637.148	23.07
637.338	22.96
637.529	23.04
637.719	23.31
637.909	23.37
638.099	23.46
638.29	23.44
638.48	23.46
638.67	23.53
638.86	23.75
639.05	23.63
639.241	23.45
639.431	23.41
639.621	23.58
639.811	23.4
640.001	23.41
640.191	23.24
640.381	23.21
640.571	23.37
640.761	23.49
640.951	23.38
641.141	23.54
641.331	23.41
641.521	23.5
641.711	23.6
641.901	23.73
642.091	23.84
642.281	23.91
642.471	23.85
642.661	23.85
642.851	23.88
643.041	24.05
643.231	23.98
643.42	24.3
643.61	24.45
643.8	24.5
643.99	24.41
644.18	24.27
644.369	24.41
644.559	24.46
644.749	24.53
644.939	24.32
645.128	24.23
645.318	24.24
645.508	24.25
645.697	24.23
645.887	24.08
646.076	23.86
646.266	23.97
646.456	24.02
646.645	24.17
646.835	23.99
647.024	24.24
647.214	24.19
647.403	24.02
647.593	23.97
647.782	23.9
647.972	24.07
648.161	24.39
648.351	24.29
648.54	24.2
648.73	24.18
648.919	24.26
649.108	24.22
649.298	24.21
649.487	24.43
649.677	24.33
649.866	24.32
650.055	24.16
650.244	23.88
650.434	24.15
650.623	24.23
650.812	24.27
651.002	24.12
651.191	24.12
651.38	24.23
651.569	24.03
651.758	24.09
651.947	24.44
652.137	24.45
652.326	24.93
652.515	24.82
652.704	24.75
652.893	24.79
653.082	24.96
653.271	25.23
653.46	25.04
653.649	25.28
653.838	25.65
654.027	25.4
654.216	25.36
654.405	25.3
654.594	25.16
654.783	25.07
654.972	24.89
655.161	24.94
655.35	24.76
655.539	25.15
655.728	25.08
655.916	24.89
656.105	24.77
656.294	24.96
656.483	24.9
656.672	25
656.86	25.11
657.049	25.08
657.238	24.98
657.427	24.95
657.615	24.75
657.804	24.82
657.993	24.79
658.181	24.97
658.37	25.04
658.559	24.84
658.747	24.76
658.936	24.88
659.125	24.97
659.313	25.09
659.502	25.14
659.69	25.09
659.879	25.03
660.067	25.14
660.256	24.98
660.444	24.92
660.633	25.24
660.821	25.66
661.01	25.54
661.198	25.63
661.387	25.62
661.575	25.69
661.763	25.98
661.952	26.13
662.14	26.18
662.328	26.2
662.517	26.35
662.705	26.31
662.893	25.97
663.082	26.06
663.27	25.95
663.458	26.13
663.646	26.08
663.834	25.99
664.023	26.21
664.211	26.14
664.399	26.22
664.587	26.05
664.775	25.77
664.963	25.96
665.152	25.96
665.34	26.13
665.528	26.12
665.716	26.27
665.904	26.26
666.092	25.93
666.28	25.81
666.468	25.95
666.656	26.12
666.844	26.52
667.032	26.53
667.22	26.61
667.408	26.72
667.596	26.65
667.784	26.5
667.971	26.52
668.159	26.67
668.347	26.8
668.535	26.65
668.723	26.68
668.911	26.6
669.098	26.49
669.286	26.41
669.474	25.99
669.662	25.88
669.849	25.88
670.037	25.69
670.225	25.73
670.413	25.72
670.6	25.86
670.788	25.77
670.976	25.82
671.163	25.64
671.351	25.85
671.538	26.23
671.726	26.51
671.913	26.6
672.101	26.86
672.289	26.9
672.476	26.85
672.664	26.85
672.851	27.06
673.039	27.04
673.226	27.1
673.413	27.16
673.601	27.34
673.788	27.16
673.976	27.13
674.163	27.29
674.35	27.36
674.538	27.58
674.725	27.7
674.912	27.34
675.1	27.22
675.287	27.43
675.474	27.12
675.662	26.99
675.849	27.19
676.036	27.11
676.223	26.87
676.411	26.76
676.598	26.49
676.785	26.57
676.972	26.86
677.159	26.94
677.346	26.93
677.533	27
677.721	26.89
677.908	26.96
678.095	27.09
678.282	27.19
678.469	27.28
678.656	27.39
678.843	27.33
679.03	27.24
679.217	27.25
679.404	27.26
679.591	27.22
679.778	27.17
679.964	27.09
680.151	26.93
680.338	26.9
680.525	26.97
680.712	27.04
680.899	27.22
681.086	26.98
681.272	27.01
681.459	26.83
681.646	26.97
681.833	27.06
682.02	26.92
682.206	27.02
682.393	27.08
682.58	26.87
682.766	27.03
682.953	26.82
683.14	27.23
683.326	27.5
683.513	28.09
683.7	28.42
683.886	28.65
684.073	28.94
684.259	29.15
684.446	29.1
684.632	29.22
684.819	28.68
685.005	28.82
685.192	28.95
685.378	28.54
685.565	28.17
685.751	27.8
685.938	27.69
686.124	27.66
686.31	27.67
686.497	27.7
686.683	27.96
686.87	28.2
687.056	27.97
687.242	27.87
687.429	28.16
687.615	28.34
687.801	28.44
687.987	28.54
688.174	28.39
688.36	28.35
688.546	28.41
688.732	27.88
688.918	27.92
689.105	27.84
689.291	27.7
689.477	27.58
689.663	27.33
689.849	27.29
690.035	27.12
690.221	27.19
690.407	27.69
690.593	27.58
690.779	27.93
690.965	28.05
691.151	28.41
691.337	28.38
691.523	28.73
691.709	29.04
691.895	29.45
692.081	29.41
692.267	29.55
692.453	28.82
692.639	28.63
692.825	28.59
693.011	28.67
693.196	28.52
693.382	28.42
693.568	28.12
693.754	28.38
693.94	27.85
694.125	28.2
694.311	27.98
694.497	27.95
694.682	28.28
694.868	28.36
695.054	28.09
695.239	28.28
695.425	28.47
695.611	28.64
695.796	28.08
695.982	28.43
696.168	28.28
696.353	28.26
696.539	28.5
696.724	28.5
696.91	28.27
697.095	28.28
697.281	28.21
697.466	28.26
697.652	28.08
697.837	28.3
698.023	28.22
698.208	28.24
698.393	28.22
698.579	28.15
698.764	28.05
698.949	28.19
699.135	28.31
699.32	28.46
699.505	28.27
699.691	28.26
699.876	28.11
700.061	28.08
700.246	28.19
700.432	28.32
700.617	28.34
700.802	28.23
700.987	28.22
701.172	28.66
701.358	28.31
701.543	28.71
701.728	28.94
701.913	29.51
702.098	29.63
702.283	29.53
702.468	29.61
702.653	29.75
702.838	30.32
703.023	30.27
703.208	29.74
703.393	29.95
703.578	29.83
703.763	29.75
703.948	29.21
704.133	29.45
704.318	29.32
704.503	29.29
704.688	29.38
704.873	28.77
705.057	28.95
705.242	29.16
705.427	29.44
705.612	29.62
705.797	29.69
705.981	30.13
706.166	29.86
706.351	29.98
706.536	29.64
706.72	29.31
706.905	29.62
707.09	29.44
707.274	29.12
707.459	29.12
707.644	28.96
707.828	29.28
708.013	28.96
708.197	28.68
708.382	28.89
708.567	29.11
708.751	29.19
708.936	29.15
709.12	29.33
709.305	29.6
709.489	29.32
709.673	29.28
709.858	29
710.042	29.1
710.227	29.17
710.411	29.21
710.596	29.11
710.78	29.13
710.964	29.12
711.149	29.34
711.333	29.39
711.517	29.5
711.702	29.63
711.886	29.82
712.07	29.69
712.254	29.71
712.438	29.82
712.623	30.03
712.807	30.1
712.991	30.41
713.175	30.28
713.359	30.41
713.544	29.94
713.728	29.63
713.912	29.37
714.096	29.45
714.28	29.42
714.464	29.11
714.648	29.29
714.832	29.33
715.016	29.17
715.2	29.25
715.384	29.04
715.568	29.97
715.752	30
715.936	30.5
716.12	30.29
716.304	30.83
716.488	30.74
716.671	30.71
716.855	30.73
717.039	30.75
717.223	30.46
717.407	30.5
717.59	30.09
717.774	30.17
717.958	29.31
718.142	29.61
718.325	29.48
718.509	29.45
718.693	29.29
718.877	29.19
719.06	29.36
719.244	30.24
719.428	30.33
719.611	30.24
719.795	30.85
719.978	31.64
720.162	31.77
720.345	31.82
720.529	32.24
720.713	32.4
720.896	32.49
721.08	32.38
721.263	31.61
721.446	31.61
721.63	31.32
721.813	30.55
721.997	30.48
722.18	30.31
722.364	30.35
722.547	30.15
722.73	30.09
722.914	30.12
723.097	30.4
723.28	30.74
723.464	30.5
723.647	30.93
723.83	30.96
724.013	31.09
724.197	31.42
724.38	31.2
724.563	31.05
724.746	31.24
724.929	31.18
725.112	31.23
725.296	31.24
725.479	31.54
725.662	31.63
725.845	32.02
726.028	31.48
726.211	31.14
726.394	31.08
726.577	31.26
726.76	31.23
726.943	31.31
727.126	30.7
727.309	30.22
727.492	30.07
727.675	29.72
727.858	29.56
728.041	29.89
728.224	30.23
728.407	30.31
728.589	30.3
728.772	30.19
728.955	30.35
729.138	30.55
729.321	30.95
729.503	31.23
729.686	31.41
729.869	31.5
730.052	31.39
730.234	31.02
730.417	30.66
730.6	30.71
730.782	30.68
730.965	30.53
731.148	30.71
731.33	30.55
731.513	30.58
731.695	30.49
731.878	30.29
732.061	30.04
732.243	30.2
732.426	30.35
732.608	30.38
732.791	30.79
732.973	31.03
733.156	30.7
733.338	30.41
733.52	30.26
733.703	30.17
733.885	30.44
734.068	30.76
734.25	31.3
734.432	31.63
734.615	31.69
734.797	31.18
734.979	30.89
735.162	31.31
735.344	31.64
735.526	31.83
735.708	31.85
735.891	31.68
736.073	31.13
736.255	30.71
736.437	30.81
736.619	30.69
736.802	31.1
736.984	31.6
737.166	31.67
737.348	32.14
737.53	31.55
737.712	31.66
737.894	32.07
738.076	32.51
738.258	32.27
738.44	31.91
738.622	31.85
738.804	31.04
738.986	30.71
739.168	30.24
739.35	29.96
739.532	30.29
739.714	30.43
739.896	29.76
740.078	30
740.259	30.16
740.441	30.5
740.623	30.82
740.805	30.93
740.987	31.72
741.168	31.91
741.35	32.45
741.532	32.5
741.714	32.24
741.895	32.57
742.077	32.71
742.259	32.22
742.44	31.88
742.622	31.48
742.804	32.29
742.985	31.84
743.167	31.74
743.348	31.1
743.53	31.4
743.711	32.08
743.893	32.24
744.075	31.73
744.256	31.46
744.438	31.5
744.619	30.99
744.8	30.44
744.982	30.54
745.163	31.03
745.345	31.31
745.526	31.26
745.707	31.23
745.889	30.85
746.07	30.29
746.252	31.15
746.433	31.45
746.614	32.69
746.795	33.23
746.977	32.47
747.158	32.73
747.339	32.95
747.52	33.06
747.702	32.73
747.883	32.97
748.064	33.79
748.245	33.34
748.426	32.77
748.607	32.28
748.788	31.82
748.97	32.22
749.151	31.6
749.332	31.42
749.513	31.52
749.694	31.72
749.875	32.16
750.056	32.05
750.237	32.39
750.418	32.86
750.599	32.65
750.78	32.67
750.96	33.08
751.141	32.76
751.322	32.45
751.503	32.21
751.684	31.98
751.865	31.65
752.046	31.9
752.226	31.85
752.407	31.53
752.588	31.54
752.769	32.31
752.949	31.85
753.13	32.85
753.311	33.09
753.492	32.95
753.672	33.04
753.853	33.56
754.034	33.3
754.214	33.14
754.395	33.11
754.575	33.38
754.756	32.84
754.937	33.39
755.117	32.85
755.298	32.61
755.478	33.41
755.659	33.32
755.839	32.79
756.02	32.72
756.2	32.97
756.381	33.47
756.561	33.48
756.741	33.56
756.922	33.21
757.102	33.02
757.283	33.07
757.463	32.05
757.643	32.78
757.823	33.47
758.004	33.7
758.184	33.44
758.364	33.4
758.545	33.54
758.725	33.32
758.905	33.38
759.085	33.44
759.265	32.36
759.446	32.62
759.626	32.46
759.806	31.62
759.986	31.41
760.166	31.15
760.346	30.96
760.526	30.86
760.706	30.46
760.886	30.19
761.066	30.73
761.246	32.18
761.426	32.31
761.606	31.79
761.786	31.87
761.966	31.95
762.146	32.73
762.326	32.93
762.506	32.71
762.686	33.03
762.866	33.04
763.046	32.52
763.225	32.29
763.405	32.07
763.585	31.86
763.765	31.98
763.945	31.93
764.124	31.53
764.304	31.72
764.484	32.49
764.664	32.66
764.843	32.95
765.023	33.3
765.203	32.88
765.382	32.73
765.562	33.1
765.741	33.25
765.921	33.51
766.101	33.78
766.28	33.59
766.46	33.19
766.639	33.06
766.819	32.8
766.998	32.89
767.178	32.93
767.357	33.11
767.537	32.85
767.716	32.56
767.896	32.53
768.075	32.11
768.254	31.45
768.434	31.66
768.613	32.08
768.792	31.99
768.972	32.23
769.151	32.34
769.33	32.28
769.51	32.89
769.689	33.62
769.868	33.65
770.047	34.22
770.226	33.94
770.406	34.01
770.585	34.23
770.764	34.5
770.943	34.29
771.122	34.45
771.301	34.75
771.48	34.93
771.66	34.33
771.839	33.95
772.018	33.58
772.197	34.4
772.376	34.69
772.555	33.77
772.734	33.35
772.913	32.88
773.092	32.82
773.271	32.9
773.449	33.13
773.628	32.72
773.807	33.41
773.986	33.23
774.165	33.45
774.344	32.46
774.523	33.29
774.701	33.07
774.88	33.6
775.059	34.09
775.238	33.97
775.417	34
775.595	35.24
775.774	34.56
775.953	34.47
776.131	34.58
776.31	34.43
776.489	33.29
776.667	34.21
776.846	33.76
777.025	34.07
777.203	33.85
777.382	33.74
777.56	32.58
777.739	33.06
777.917	34.24
778.096	34.15
778.274	33.96
778.453	34.8
778.631	33.97
778.81	34.43
778.988	34.13
779.166	34.13
779.345	33.36
779.523	33.46
779.702	33.35
779.88	32.77
780.058	33.19
780.237	34.07
780.415	33.5
780.593	34.27
780.771	33.64
780.95	34.25
781.128	35.27
781.306	35.91
781.484	36.66
781.662	36.4
781.841	36.16
782.019	35.69
782.197	35.43
782.375	35.02
782.553	34.67
782.731	35.29
782.909	33.76
783.087	33.41
783.265	33.43
783.443	33.4
783.621	33.51
783.799	33.83
783.977	33.2
784.155	33.46
784.333	34.04
784.511	33.54
784.689	33.97
784.867	34.99
785.045	35.4
785.223	35.69
785.4	35.79
785.578	36.83
785.756	36.96
785.934	37.81
786.112	37.16
786.289	37.23
786.467	38.42
786.645	37.95
786.823	37.56
787	37.22
787.178	36.31
787.356	35.56
787.533	34.25
787.711	34.72
787.889	34.71
788.066	34.81
788.244	35.43
788.421	34.89
788.599	34.94
788.776	34.49
788.954	33.73
789.131	34.28
789.309	34.48
789.486	34.69
789.664	34.27
789.841	34.64
790.019	34.88
790.196	34.19
790.373	34.34
790.551	35.45
790.728	36.39
790.906	36.92
791.083	37.61
791.26	39.54
791.437	40.31
791.615	39.98
791.792	38.73
791.969	39.04
792.146	39.99
792.324	40.38
792.501	39.87
792.678	40.01
792.855	40.32
793.032	39.55
793.209	38.23
793.387	38.16
793.564	38.57
793.741	38.87
793.918	38.82
794.095	38.09
794.272	36.51
794.449	34.86
794.626	35.48
794.803	34.83
794.98	34.82
795.157	34.56
795.334	35.33
795.511	35.35
795.688	35.45
795.864	34.9
796.041	34.91
796.218	35.97
796.395	37.1
796.572	36.36
796.749	36.43
796.925	35.68
797.102	35.75
797.279	35.12
797.456	35.15
797.632	35.15
797.809	35.46
797.986	35.67
798.162	35.66
798.339	35.95
798.516	35.34
798.692	34.94
798.869	36.09
799.046	35.82
799.222	35.88
799.399	34.88
799.575	35.24
799.752	34.75
799.928	34.9
800.105	34.38
800.281	34.77
800.458	35.94
800.634	37.52
800.811	37.28
800.987	37.08
801.163	36.59
801.34	38.36
801.516	38.23
801.692	38.71
801.869	38.31
802.045	38.83
802.221	37.54
802.398	36.82
802.574	36.19
802.75	35.16
802.926	35.4
803.103	36.18
803.279	34.41
803.455	34.06
803.631	34.57
803.807	35.5
803.983	36.27
804.16	35.71
804.336	35.21
804.512	34.69
804.688	35.93
804.864	36.19
805.04	35.62
805.216	36.59
805.392	36.78
805.568	36.72
805.744	36.35
805.92	36.03
806.096	37.67
806.272	37.54
806.448	38.27
806.623	37.3
806.799	37.06
806.975	36.66
807.151	37.27
807.327	37.51
807.503	36.32
807.678	35.61
807.854	34.61
808.03	33.61
808.206	34.32
808.381	33.27
808.557	32.79
808.733	32.44
808.908	33
809.084	31.94
809.26	30.29
809.435	31.14
809.611	32.93
809.787	33.4
809.962	33.83
810.138	33.11
810.313	33.68
810.489	35.42
810.664	35.46
810.84	35.09
811.015	34.51
811.191	37.45
811.366	37.41
811.542	36.71
811.717	36.75
811.892	38.18
812.068	39.55
812.243	39.47
812.419	38.41
812.594	38.68
812.769	38.76
812.944	39.72
813.12	39.9
813.295	39.31
813.47	39.35
813.645	40.23
813.821	38.83
813.996	37.77
814.171	38.12
814.346	38.4
814.521	39.45
814.697	41.16
814.872	40.35
815.047	38.79
815.222	40.46
815.397	39.71
815.572	38.45
815.747	38.29
815.922	37.44
816.097	36.26
816.272	36.9
816.447	36.05
816.622	34.15
816.797	35.14
816.972	34.99
817.147	33.59
817.322	33.71
817.496	33.87
817.671	33.69
817.846	34.57
818.021	34.93
818.196	35.32
818.371	35.94
818.545	36.01
818.72	35.08
818.895	35.71
819.069	35.93
819.244	36.35
819.419	35.6
819.594	35.45
819.768	35.1
819.943	35.27
820.117	34.66
820.292	34.1
820.467	34.02
820.641	34.07
820.816	33.7
820.99	33.64
821.165	33.39
821.339	33.77
821.514	33.85
821.688	33.94
821.863	33.33
822.037	32.91
822.212	32.96
822.386	32.92
822.56	33.1
822.735	33.03
822.909	33.18
823.084	33.04
823.258	32.72
823.432	32.43
823.606	32.36
823.781	32.83
823.955	33.24
824.129	33.2
824.303	33.25
824.478	33.17
824.652	33.29
824.826	32.87
825	32.93
825.174	32.93
825.348	32.95
825.523	32.89
825.697	33.18
825.871	33.27
826.045	33.29
826.219	33.33
826.393	33.48
826.567	33.63
826.741	33.73
826.915	33.61
827.089	34.29
827.263	34.71
827.437	34.79
827.611	34.49
827.784	34.93
827.958	35.03
828.132	34.93
828.306	34.4
828.48	34.36
828.654	34.88
828.827	35.24
829.001	34.89
829.175	34.88
829.349	35.28
829.522	35.59
829.696	35.28
829.87	34.87
830.044	35.59
830.217	35.48
830.391	35.86
830.565	35.45
830.738	35.44
830.912	36.08
831.085	35.06
831.259	35.21
831.432	34.87
831.606	34.54
831.779	34.82
831.953	34.38
832.126	33.91
832.3	33.35
832.473	33.45
832.647	33.51
832.82	33.17
832.994	33.73
833.167	33.64
833.34	33.16
833.514	33.26
833.687	33.16
833.86	33.21
834.034	34.52
834.207	34.19
834.38	34.27
834.553	34.63
834.727	34.46
834.9	34.62
835.073	34
835.246	35
835.419	34.47
835.593	35.22
835.766	34.9
835.939	34.15
836.112	35.09
836.285	35.38
836.458	35.08
836.631	35.8
836.804	36.7
836.977	38.03
837.15	38.43
837.323	39.05
837.496	38.78
837.669	39.22
837.842	39.29
838.015	38.49
838.188	37.37
838.361	37.59
838.533	35.67
838.706	34.85
838.879	33.9
839.052	33.18
839.225	34.01
839.398	33.36
839.57	32.81
839.743	34.51
839.916	35.68
840.088	38.03
840.261	37.65
840.434	38.28
840.607	38.11
840.779	37.86
840.952	38.76
841.124	38.43
841.297	39.57
841.47	41.64
841.642	41.39
841.815	41.76
841.987	39.67
842.16	40.17
842.332	41.56
842.505	40.96
842.677	43.73
842.85	42.37
843.022	42.32
843.194	43.78
843.367	44.7
843.539	42.95
843.712	42.29
843.884	44.1
844.056	46.22
844.229	45.27
844.401	46.67
844.573	43.32
844.745	42.53
844.918	43.46
845.09	42.11
845.262	40.56
845.434	42.14
845.606	40.78
845.779	40.19
845.951	35.55
846.123	35.76
846.295	36.67
846.467	37.81
846.639	41.4
846.811	42.76
846.983	44.27
847.155	41.72
847.327	41.06
847.499	42.39
847.671	44.17
847.843	44.16
848.015	41.8
848.187	42.13
848.359	44.16
848.531	42.89
848.703	40.71
848.875	39.09
849.047	40.54
849.218	39.17
849.39	40.48
849.562	36.11
849.734	40.03
849.905	44
850.077	42.36
850.249	39.88
850.421	42.08
850.592	39.97
850.764	42.97
850.936	45.85
851.107	46.42
851.279	46.13
851.451	53.17
851.622	52.52
851.794	50.95
851.965	55.39
852.137	57.73
852.308	57.34
852.48	63.17
852.651	57.83
852.823	57.95
852.994	59.09
853.166	54.22
853.337	50.53
853.509	51.2
853.68	53.98
853.851	48.3
854.023	47.06
854.194	44
854.365	37.62
854.537	38.65
854.708	39.02
854.879	41.2
855.05	44.96
855.222	45.63
855.393	44.76
855.564	42.78
855.735	48.05
855.906	48.47
856.078	47.86
856.249	51.35
856.42	52.98
856.591	51.4
856.762	51.79
856.933	48.38
857.104	45.7
857.275	47.14
857.446	46.95
857.617	45.1
857.788	44.19
857.959	47.11
858.13	48.31
858.301	48.84
858.472	44.95
858.643	44.83
858.814	48.78
858.985	51.63
859.155	52.11
859.326	53.26
859.497	52.05
859.668	52.5
859.839	51.28
860.009	49.18
860.18	48.73
860.351	52.38
860.522	50.39
860.692	46.25
860.863	41.53
861.034	39.72
861.204	39.39
861.375	40.31
861.546	41.15
861.716	41.05
861.887	41.99
862.057	42.48
862.228	43.6
862.398	43.28
862.569	48.91
862.739	54.1
862.91	54.03
863.08	55.06
863.251	53.51
863.421	49.54
863.592	50.35
863.762	51.06
863.932	50.19
864.103	48.63
864.273	50.74
864.443	49.98
864.614	48.89
864.784	51.72
864.954	48.89
865.125	49
865.295	53.88
865.465	54.38
865.635	52.92
865.805	56.17
865.976	55.83
866.146	55.34
866.316	53.78
866.486	49.96
866.656	50.04
866.826	48.47
866.996	50.84
867.166	49.8
867.336	53.46
867.506	54.35
867.676	52.65
867.846	54.38
868.016	51.47
868.186	49.45
868.356	54.29
868.526	50.2
868.696	51.79
868.866	51.31
869.036	46.88
869.206	45.69
869.376	46.68
869.545	44.24
869.715	43.93
869.885	48.7
870.055	52.87
870.224	52.7
870.394	53.78
870.564	59.09
870.734	58.02
870.903	59.68
871.073	57.59
871.243	54.22
871.412	56.38
871.582	54.06
871.751	52.44
871.921	50.09
872.091	48.38
872.26	49.19
872.43	46.68
872.599	44.32
872.769	45.25
872.938	44.12
873.108	47.42
873.277	45.11
873.446	44.31
873.616	43.37
873.785	49.27
873.955	47.76
874.124	46.35
874.293	48.12
874.463	51.43
874.632	51.51
874.801	55.65
874.971	53.42
875.14	54.77
875.309	56.11
875.478	54.25
875.647	47.03
875.817	49.28
875.986	51.24
876.155	49.88
876.324	51.54
876.493	51.42
876.662	49.39
876.831	49.81
877	50.27
877.17	49.27
877.339	49.85
877.508	51.67
877.677	50.03
877.846	47.55
878.015	46.42
878.184	39.68
878.352	38.44
878.521	37.68
878.69	38.8
878.859	37.25
879.028	38.8
879.197	39.91
879.366	41.22
879.534	40.32
879.703	40.21
879.872	39.27
880.041	39.56
880.21	40.34
880.378	39.33
880.547	38.28
880.716	37.18
880.884	37.16
881.053	36.36
881.222	35.94
881.39	36.45
881.559	36.15
881.727	36.03
881.896	36.36
882.065	36.25
882.233	35.98
882.402	35.9
882.57	36.24
882.739	35.69
882.907	35.9
883.076	35.61
883.244	35.73
883.412	35.88
883.581	35.92
883.749	36.86
883.918	36.73
884.086	37.49
884.254	37.28
884.423	37.99
884.591	38.06
884.759	38.11
884.927	38.01
885.096	36.52
885.264	36.9
885.432	37.4
885.6	36.86
885.769	36.28
885.937	36.08
886.105	37.41
886.273	37.14
886.441	39.12
886.609	40.05
886.777	41.04
886.945	46.13
887.113	47.26
887.281	46.64
887.449	47.45
887.617	47.81
887.785	48.41
887.953	47.83
888.121	47.75
888.289	47.48
888.457	47.71
888.625	47.81
888.793	46.14
888.961	45.6
889.129	45.51
889.296	44.89
889.464	46.47
889.632	45.1
889.8	46.06
889.967	47.32
890.135	46.36
