Data from 2938449_Reflection_3.txt Node
Date: Fri Jun 19 18:02:43 EDT 2015
User: robert
Spectrometer: USB4E03002
Autoset integration time: false
Trigger mode: 4
Integration Time (sec): 1.000000E-1
Scans to average: 10
Electric dark correction enabled: true
Nonlinearity correction enabled: false
Boxcar width: 5
Stray light correction enabled: false
XAxis mode: Wavelengths
Stop averaging: false
Number of Pixels in Spectrum: 3648
>>>>>Begin Spectral Data<<<<<
177.575	-625.48
177.794	-191.41
178.014	-343.63
178.233	-168.68
178.452	-52.08
178.672	-245.69
178.891	79.6
179.11	-664.86
179.33	-547.43
179.549	-192.95
179.768	-87.16
179.987	-107.64
180.207	-84.02
180.426	-194.49
180.645	-147.34
180.864	-243.91
181.084	552.73
181.303	349.03
181.522	164.73
181.741	239.37
181.96	168.87
182.179	157.66
182.398	118.45
182.618	142.72
182.837	156.62
183.056	135.4
183.275	125.18
183.494	122.09
183.713	104.85
183.932	132.21
184.151	151.58
184.37	299.14
184.589	458.81
184.808	496.99
185.027	439.33
185.246	422.5
185.465	1012.22
185.684	603150
185.903	-220.2
186.122	-179.78
186.341	-112.23
186.56	-102.15
186.779	4.25
186.998	-46.76
187.216	25.55
187.435	44.59
187.654	54.43
187.873	73.78
188.092	38.61
188.311	19.73
188.53	-6.09
188.748	-108.53
188.967	-29.65
189.186	-117.12
189.405	-174.94
189.623	-8479.37
189.842	-1231.01
190.061	-253.6
190.28	-439.33
190.498	-412.07
190.717	535.47
190.936	374.81
191.154	392.99
191.373	244.5
191.592	270.84
191.81	636.09
192.029	1200.11
192.248	310.23
192.466	285.17
192.685	384.07
192.904	271.17
193.122	618.64
193.341	-1860.95
193.559	4500
193.778	-9136.17
193.996	-1842.63
194.215	1186.02
194.433	529.63
194.652	-948.04
194.87	-133.24
195.089	-167.73
195.307	-83.18
195.526	-258.64
195.744	280.96
195.963	257350
196.181	935.43
196.399	402.91
196.618	279.96
196.836	319.05
197.055	298.17
197.273	258.74
197.491	304.86
197.71	248.74
197.928	304.13
198.146	302.23
198.365	183.98
198.583	185.77
198.801	278.57
199.019	655.99
199.238	500.97
199.456	447.62
199.674	489.62
199.892	-2811.24
200.111	-239.84
200.329	-183.42
200.547	-117.42
200.765	-101.61
200.983	-122.5
201.202	-122.3
201.42	-132.94
201.638	-134.43
201.856	-143.4
202.074	-227.31
202.292	-228.71
202.51	-247.43
202.728	-288.76
202.946	-1255.49
203.165	-10398.68
203.383	1163.39
203.601	353.6
203.819	983.01
204.037	-838.81
204.255	-435.38
204.473	-163.75
204.691	-263.67
204.909	-122.84
205.127	-67.08
205.345	-52.2
205.562	-39
205.78	-0.88
205.998	7.81
206.216	-68.4
206.434	-615.05
206.652	317.83
206.87	288.27
207.088	2280.74
207.306	432.62
207.523	141.66
207.741	117.43
207.959	124.75
208.177	141.84
208.395	123.48
208.612	127.53
208.83	121.54
209.048	135.17
209.266	111.3
209.483	103.74
209.701	75.1
209.919	118.4
210.136	129.53
210.354	159.22
210.572	143.12
210.79	188.53
211.007	174.54
211.225	209.01
211.442	184.64
211.66	145.42
211.878	89.21
212.095	52.14
212.313	20.66
212.53	21.72
212.748	15.63
212.966	-0.61
213.183	2.87
213.401	-4.74
213.618	-14.63
213.836	-14.07
214.053	-28.43
214.271	-111.68
214.488	64.74
214.705	102.18
214.923	89.62
215.14	73.05
215.358	112.79
215.575	191.23
215.793	251.92
216.01	138.64
216.227	123.82
216.445	128.81
216.662	155.69
216.879	143.07
217.097	122.27
217.314	101.2
217.531	114.04
217.749	105.95
217.966	105.59
218.183	82.31
218.4	94.11
218.618	81.67
218.835	73.39
219.052	79.35
219.269	82.92
219.487	100.41
219.704	114.08
219.921	117.91
220.138	119.91
220.355	128.43
220.572	132.36
220.79	119.13
221.007	122.94
221.224	126.53
221.441	96.68
221.658	96.43
221.875	85.91
222.092	58.3
222.309	62.08
222.526	57.85
222.743	44.14
222.96	46.96
223.177	38.59
223.394	36.63
223.611	31.71
223.828	38.24
224.045	37.71
224.262	36.67
224.479	45.44
224.696	41.27
224.913	41.38
225.13	41.66
225.347	36.22
225.564	38.06
225.781	36.27
225.997	35.69
226.214	32.11
226.431	30.32
226.648	26.5
226.865	23.79
227.082	21.7
227.298	20.55
227.515	20.29
227.732	19.51
227.949	18.07
228.165	18.59
228.382	18.39
228.599	17.02
228.816	14.74
229.032	14.84
229.249	16
229.466	15.67
229.682	16.44
229.899	16.02
230.116	18.78
230.332	18.27
230.549	17.66
230.765	16.71
230.982	17.56
231.199	20.73
231.415	23.99
231.632	23.53
231.848	27.52
232.065	26.68
232.281	28.42
232.498	24.93
232.714	26.84
232.931	26.67
233.147	25.87
233.364	29.04
233.58	28.29
233.797	28.28
234.013	30.21
234.23	27.19
234.446	29.22
234.662	26.61
234.879	26.93
235.095	25.81
235.312	24.63
235.528	28.32
235.744	24.53
235.961	22.04
236.177	20.65
236.393	18.4
236.61	17.65
236.826	16.85
237.042	18.51
237.258	19.03
237.475	19.42
237.691	18.98
237.907	17.29
238.123	18.09
238.339	18.66
238.556	17.58
238.772	18.11
238.988	18.54
239.204	17.17
239.42	16.63
239.636	15.57
239.853	15.05
240.069	15.03
240.285	14.68
240.501	14.96
240.717	14.42
240.933	14.82
241.149	14.63
241.365	14.64
241.581	14.64
241.797	14.98
242.013	15.46
242.229	14.58
242.445	15.36
242.661	14.47
242.877	13.69
243.093	13.68
243.309	13.28
243.525	12.81
243.741	13.58
243.957	13.72
244.173	12.56
244.388	12.16
244.604	13.08
244.82	12.72
245.036	12.63
245.252	12.45
245.468	11.84
245.683	11.78
245.899	11.63
246.115	10.98
246.331	10.36
246.547	10.43
246.762	10.36
246.978	10.18
247.194	9.86
247.409	9.82
247.625	10.03
247.841	10.27
248.057	10.64
248.272	9.92
248.488	9.28
248.703	9.74
248.919	10.25
249.135	10.33
249.35	9.82
249.566	9.19
249.782	9.52
249.997	9.31
250.213	9.8
250.428	8.9
250.644	9.7
250.859	11.24
251.075	10.67
251.29	10.1
251.506	9.85
251.721	10.11
251.937	11.18
252.152	12.14
252.368	11.55
252.583	12.45
252.798	12.76
253.014	13.69
253.229	13.76
253.445	14.17
253.66	13.63
253.875	13.9
254.091	13.1
254.306	12.76
254.521	11.33
254.737	11.83
254.952	10.47
255.167	10.69
255.383	10.5
255.598	9.52
255.813	9.51
256.028	9.51
256.244	9.65
256.459	9.71
256.674	8.9
256.889	8.19
257.104	7.74
257.32	7.69
257.535	7.22
257.75	6.81
257.965	6.74
258.18	6.61
258.395	6.85
258.61	7.04
258.826	7.13
259.041	6.97
259.256	7.39
259.471	7.67
259.686	7.97
259.901	8.48
260.116	8.44
260.331	8.67
260.546	9.49
260.761	9.47
260.976	9.04
261.191	9.35
261.406	10.51
261.621	10.61
261.836	10.43
262.05	10.06
262.265	10.51
262.48	11.79
262.695	11.78
262.91	11.67
263.125	11.27
263.34	11.27
263.555	11.24
263.769	9.72
263.984	10.22
264.199	10.48
264.414	10.91
264.629	9.69
264.843	8.93
265.058	8.52
265.273	7.96
265.488	8.14
265.702	8.07
265.917	8.13
266.132	8.71
266.346	8.08
266.561	8.48
266.776	8.25
266.99	8.39
267.205	8.81
267.42	9.42
267.634	8.87
267.849	8.96
268.063	9.06
268.278	9.21
268.492	9.49
268.707	9.67
268.922	8.75
269.136	8.32
269.351	8.07
269.565	7.78
269.78	7.3
269.994	7.64
270.209	7.84
270.423	7.9
270.637	7.88
270.852	7.83
271.066	7.85
271.281	8.45
271.495	9.11
271.709	9.55
271.924	9.51
272.138	9.72
272.353	10.33
272.567	10.59
272.781	10.82
272.996	11.04
273.21	11.42
273.424	11.29
273.638	10.84
273.853	10.92
274.067	9.97
274.281	9.97
274.495	9.7
274.71	9.46
274.924	9.02
275.138	8.94
275.352	8.55
275.566	7.96
275.781	7.96
275.995	8.35
276.209	8.51
276.423	10.21
276.637	9.9
276.851	10.16
277.065	9.91
277.279	10.42
277.493	10.52
277.707	9.96
277.921	10.16
278.135	9.63
278.349	9.07
278.563	8.21
278.777	7.66
278.991	7.52
279.205	7.32
279.419	7.15
279.633	7.53
279.847	7.27
280.061	7.42
280.275	7.56
280.489	7.89
280.703	8.51
280.917	8.48
281.131	7.89
281.344	8.15
281.558	7.64
281.772	7.91
281.986	7.23
282.2	7.41
282.414	7.46
282.627	7.41
282.841	7.63
283.055	7.77
283.269	7.97
283.482	8.29
283.696	8.01
283.91	8.6
284.123	8.03
284.337	7.96
284.551	7.5
284.764	7.53
284.978	7.18
285.192	7.18
285.405	7.14
285.619	6.95
285.833	7.35
286.046	7.81
286.26	8.09
286.473	8.93
286.687	9.29
286.9	9.63
287.114	9.77
287.327	10.35
287.541	9.74
287.754	9.32
287.968	9.12
288.181	8.68
288.395	8.61
288.608	8.72
288.822	8.77
289.035	8.82
289.248	9.15
289.462	8.88
289.675	8.83
289.889	9.48
290.102	9.3
290.315	9.48
290.529	9.56
290.742	9.77
290.955	9.5
291.169	9.11
291.382	9.36
291.595	8.67
291.808	9.13
292.022	8.79
292.235	8.8
292.448	8.92
292.661	8.86
292.875	8.77
293.088	9.08
293.301	9.44
293.514	9.17
293.727	8.77
293.94	9.21
294.153	8.92
294.367	8.82
294.58	8.81
294.793	8.58
295.006	8.99
295.219	9.48
295.432	9.46
295.645	9.06
295.858	9.4
296.071	9.27
296.284	9.49
296.497	9.81
296.71	10.1
296.923	9.88
297.136	10.69
297.349	10.65
297.562	10.42
297.775	10.17
297.988	11
298.201	10.97
298.414	11.1
298.626	11.62
298.839	11.36
299.052	10.99
299.265	11.67
299.478	11.18
299.691	11.42
299.903	11.47
300.116	11.7
300.329	10.73
300.542	10.31
300.755	10.03
300.967	9.43
301.18	9.72
301.393	10.09
301.605	9.72
301.818	10.06
302.031	9.7
302.243	9.86
302.456	9.73
302.669	9.9
302.881	10.67
303.094	11.37
303.307	11.67
303.519	11.98
303.732	11.83
303.944	11.79
304.157	11.9
304.37	12.04
304.582	12.13
304.795	12.39
305.007	13.26
305.22	13.01
305.432	12.7
305.645	11.98
305.857	12.53
306.069	13.32
306.282	13.4
306.494	13.17
306.707	12.87
306.919	12.6
307.132	12.07
307.344	11.41
307.556	11.59
307.769	12.04
307.981	12.32
308.193	11.64
308.406	11.08
308.618	11.17
308.83	11.29
309.043	11.63
309.255	11.54
309.467	11.61
309.679	11.22
309.892	10.76
310.104	10.54
310.316	10.85
310.528	10.61
310.74	10.72
310.953	10.61
311.165	10.68
311.377	10.79
311.589	11.58
311.801	12.14
312.013	13.31
312.225	13.56
312.437	13.87
312.649	13.93
312.862	14.12
313.074	14.51
313.286	14.92
313.498	14.99
313.71	14.8
313.922	14.35
314.134	14.09
314.346	12.99
314.558	13.74
314.77	13.62
314.982	13.42
315.193	13.83
315.405	13.27
315.617	13.18
315.829	13.32
316.041	13.47
316.253	13.5
316.465	13.42
316.677	13.96
316.888	13.77
317.1	13.36
317.312	13.68
317.524	13.14
317.736	13.82
317.947	14.68
318.159	14.25
318.371	14.43
318.583	13.36
318.794	13.51
319.006	13.54
319.218	13.36
319.43	13.5
319.641	13.27
319.853	13.12
320.064	13.27
320.276	12.74
320.488	12.83
320.699	11.74
320.911	12.79
321.123	12.37
321.334	12.93
321.546	12.99
321.757	13.41
321.969	13.98
322.18	14.72
322.392	14.04
322.603	13.22
322.815	13.18
323.026	13.75
323.238	12.89
323.449	12.83
323.661	12.25
323.872	12.01
324.083	11.77
324.295	11.19
324.506	10.76
324.718	10.58
324.929	11.04
325.14	11.49
325.352	11.74
325.563	12.24
325.774	13.27
325.986	13.4
326.197	13.77
326.408	13.98
326.62	14.54
326.831	14.84
327.042	14.73
327.253	15.06
327.464	15.16
327.676	15.33
327.887	15.32
328.098	14.63
328.309	15.04
328.52	15.53
328.732	15.55
328.943	15.94
329.154	16.19
329.365	16.58
329.576	16.49
329.787	16.12
329.998	16.36
330.209	17.23
330.42	17.5
330.631	16.78
330.842	16.47
331.053	16.25
331.264	15.58
331.475	15.63
331.686	16.05
331.897	15.83
332.108	16.2
332.319	16.16
332.53	16.08
332.741	16.11
332.952	16.95
333.163	17.37
333.374	18.21
333.585	18.46
333.795	18.67
334.006	19.03
334.217	19.51
334.428	19.19
334.639	19.25
334.849	19.16
335.06	19.4
335.271	19.28
335.482	18.18
335.692	17.58
335.903	17.12
336.114	16.49
336.325	15.99
336.535	15.97
336.746	16.23
336.957	16.64
337.167	16.49
337.378	16.58
337.589	16.4
337.799	17.06
338.01	17.41
338.22	18.24
338.431	18.59
338.642	19.3
338.852	19.22
339.063	18.72
339.273	18.19
339.484	18.09
339.694	17.75
339.905	18.26
340.115	18.25
340.326	18.04
340.536	17.17
340.746	17.29
340.957	17.04
341.167	17.1
341.378	17.34
341.588	17.57
341.799	17.85
342.009	17.52
342.219	16.61
342.43	16.11
342.64	16.1
342.85	15.6
343.061	15.12
343.271	15.03
343.481	14.54
343.691	14.96
343.902	14.54
344.112	14.11
344.322	14.28
344.532	14.8
344.743	15.44
344.953	15.26
345.163	15.73
345.373	16.31
345.583	16.06
345.793	16.37
346.004	15.99
346.214	16.11
346.424	16.41
346.634	16.74
346.844	16.47
347.054	16.37
347.264	16.46
347.474	17.22
347.684	16.8
347.894	16.7
348.104	16.77
348.314	16.48
348.524	16.27
348.734	15.77
348.944	15.46
349.154	15.61
349.364	15.68
349.574	15.63
349.784	14.86
349.994	15.21
350.204	15.55
350.413	15.59
350.623	16.1
350.833	16.05
351.043	16.39
351.253	15.91
351.463	15.77
351.672	15.58
351.882	15.41
352.092	15.6
352.302	15.82
352.511	15.69
352.721	15.36
352.931	15.55
353.141	15.43
353.35	15.59
353.56	16.09
353.77	15.94
353.979	15.52
354.189	15.67
354.399	15.45
354.608	14.89
354.818	14.99
355.027	15.09
355.237	14.7
355.447	15.02
355.656	14.72
355.866	14.59
356.075	14.88
356.285	15.22
356.494	15.18
356.704	15.23
356.913	15.32
357.123	14.91
357.332	14.87
357.542	14.86
357.751	14.87
357.96	15.29
358.17	15.33
358.379	15.04
358.589	14.94
358.798	14.99
359.007	14.71
359.217	14.5
359.426	14.35
359.635	14.47
359.845	14.34
360.054	13.91
360.263	13.55
360.472	13.46
360.682	13.45
360.891	13.19
361.1	12.99
361.309	13.23
361.519	13.26
361.728	13.53
361.937	13.2
362.146	13.13
362.355	13.24
362.564	13.49
362.774	13.36
362.983	13.3
363.192	13.35
363.401	13.43
363.61	13.57
363.819	13.63
364.028	13.44
364.237	13.19
364.446	13.23
364.655	13.04
364.864	12.8
365.073	13.01
365.282	12.82
365.491	13.19
365.7	13.32
365.909	13.19
366.118	13.12
366.327	13.05
366.536	13.45
366.745	13.45
366.954	13.82
367.162	14.04
367.371	14.21
367.58	14.5
367.789	14.07
367.998	13.59
368.207	13.43
368.415	13.39
368.624	13.61
368.833	13.28
369.042	13.21
369.25	13.46
369.459	13.31
369.668	12.98
369.877	12.59
370.085	12.78
370.294	13.11
370.503	13.22
370.711	13.07
370.92	12.86
371.129	13.19
371.337	12.78
371.546	12.12
371.754	11.77
371.963	11.53
372.171	11.45
372.38	11.34
372.589	11.09
372.797	10.93
373.006	11.13
373.214	11.15
373.423	10.59
373.631	10.98
373.84	11.17
374.048	11.46
374.256	11.36
374.465	11.56
374.673	11.41
374.882	11.14
375.09	10.86
375.298	10.48
375.507	10.4
375.715	10.84
375.923	10.5
376.132	10.27
376.34	9.71
376.548	9.6
376.757	9.45
376.965	9.58
377.173	9.93
377.381	10.08
377.59	10.05
377.798	10.1
378.006	9.89
378.214	10.28
378.423	10.37
378.631	10.52
378.839	10.51
379.047	10.83
379.255	10.44
379.463	9.82
379.671	9.62
379.879	9.77
380.088	9.73
380.296	9.49
380.504	9.42
380.712	9.42
380.92	9.51
381.128	9.36
381.336	8.77
381.544	8.68
381.752	8.83
381.96	8.96
382.168	9.04
382.376	8.93
382.584	8.77
382.791	8.78
382.999	8.72
383.207	8.6
383.415	8.8
383.623	8.88
383.831	9.05
384.039	9.27
384.247	9.14
384.454	8.93
384.662	8.73
384.87	8.68
385.078	8.21
385.285	8.07
385.493	8.15
385.701	8.11
385.909	8.32
386.116	8.22
386.324	7.75
386.532	7.9
386.739	8.08
386.947	7.98
387.155	8.16
387.362	8.37
387.57	8.41
387.778	8.27
387.985	7.99
388.193	7.68
388.4	7.51
388.608	7.53
388.816	7.31
389.023	7.11
389.231	7.05
389.438	6.9
389.646	6.91
389.853	6.76
390.061	6.53
390.268	6.85
390.475	6.86
390.683	6.97
390.89	7.1
391.098	7.09
391.305	7.11
391.512	7.07
391.72	6.83
391.927	6.63
392.135	6.71
392.342	6.89
392.549	6.62
392.756	6.72
392.964	6.56
393.171	6.55
393.378	6.55
393.586	6.43
393.793	6.45
394	6.48
394.207	6.47
394.414	6.52
394.622	6.57
394.829	6.66
395.036	6.44
395.243	6.6
395.45	6.42
395.657	6.21
395.864	6.28
396.072	6.58
396.279	6.5
396.486	6.39
396.693	6.24
396.9	6.01
397.107	5.64
397.314	5.63
397.521	5.46
397.728	5.47
397.935	5.57
398.142	5.45
398.349	5.34
398.556	5.34
398.763	5.47
398.97	5.38
399.177	5.51
399.383	5.6
399.59	5.46
399.797	5.42
400.004	5.36
400.211	5.22
400.418	5.16
400.625	4.94
400.831	4.95
401.038	4.97
401.245	4.99
401.452	4.65
401.658	4.79
401.865	4.91
402.072	4.82
402.279	4.82
402.485	4.72
402.692	4.67
402.899	4.59
403.105	4.58
403.312	4.3
403.519	4.36
403.725	4.5
403.932	4.57
404.138	4.6
404.345	4.64
404.552	4.63
404.758	4.8
404.965	4.84
405.171	4.78
405.378	4.82
405.584	4.9
405.791	4.79
405.997	4.7
406.204	4.63
406.41	4.51
406.617	4.57
406.823	4.44
407.029	4.41
407.236	4.41
407.442	4.49
407.649	4.63
407.855	4.66
408.061	4.66
408.268	4.63
408.474	4.61
408.68	4.69
408.887	4.66
409.093	4.78
409.299	4.77
409.505	4.78
409.712	4.65
409.918	4.51
410.124	4.46
410.33	4.47
410.537	4.42
410.743	4.2
410.949	4.09
411.155	4.04
411.361	3.83
411.567	3.93
411.773	3.85
411.98	3.95
412.186	4.03
412.392	4.05
412.598	3.95
412.804	4.04
413.01	4.08
413.216	4.22
413.422	4.11
413.628	4.38
413.834	4.23
414.04	4.22
414.246	4.15
414.452	4.07
414.658	3.94
414.864	3.98
415.07	3.91
415.275	4
415.481	3.89
415.687	3.86
415.893	3.69
416.099	3.59
416.305	3.57
416.511	3.6
416.716	3.55
416.922	3.61
417.128	3.57
417.334	3.62
417.539	3.53
417.745	3.44
417.951	3.4
418.157	3.4
418.362	3.44
418.568	3.42
418.774	3.34
418.979	3.24
419.185	3.29
419.391	3.32
419.596	3.33
419.802	3.33
420.008	3.37
420.213	3.52
420.419	3.56
420.624	3.57
420.83	3.57
421.035	3.57
421.241	3.61
421.446	3.53
421.652	3.5
421.857	3.41
422.063	3.43
422.268	3.38
422.474	3.24
422.679	3.25
422.885	3.25
423.09	3.21
423.295	3.27
423.501	3.29
423.706	3.25
423.911	3.19
424.117	3.23
424.322	3.24
424.527	3.24
424.733	3.23
424.938	3.08
425.143	3.02
425.349	3.09
425.554	3.01
425.759	3.15
425.964	3.23
426.169	3.32
426.375	3.29
426.58	3.19
426.785	3.29
426.99	3.46
427.195	3.72
427.4	3.69
427.605	3.69
427.811	3.8
428.016	3.62
428.221	3.68
428.426	3.56
428.631	3.5
428.836	3.65
429.041	3.58
429.246	3.4
429.451	3.22
429.656	3.2
429.861	3.18
430.066	3.14
430.271	3.21
430.476	3.15
430.681	3.24
430.886	3.22
431.09	3.17
431.295	3.18
431.5	3.25
431.705	3.27
431.91	3.37
432.115	3.35
432.32	3.35
432.524	3.29
432.729	3.36
432.934	3.41
433.139	3.45
433.343	3.51
433.548	3.49
433.753	3.43
433.958	3.45
434.162	3.47
434.367	3.49
434.572	3.43
434.776	3.35
434.981	3.25
435.186	3.04
435.39	3.06
435.595	3.01
435.799	3
436.004	3.14
436.209	3.13
436.413	3.05
436.618	2.95
436.822	2.94
437.027	2.92
437.231	2.94
437.436	3
437.64	2.97
437.845	2.94
438.049	2.93
438.253	2.75
438.458	2.85
438.662	2.88
438.867	2.89
439.071	2.92
439.275	2.91
439.48	2.79
439.684	2.83
439.888	2.75
440.093	2.75
440.297	2.68
440.501	2.75
440.706	2.66
440.91	2.57
441.114	2.56
441.318	2.59
441.523	2.63
441.727	2.67
441.931	2.64
442.135	2.75
442.339	2.79
442.543	2.98
442.748	2.97
442.952	2.84
443.156	2.92
443.36	2.9
443.564	2.85
443.768	2.84
443.972	2.85
444.176	2.87
444.38	2.79
444.584	2.67
444.788	2.56
444.992	2.51
445.196	2.56
445.4	2.48
445.604	2.44
445.808	2.46
446.012	2.44
446.216	2.46
446.42	2.42
446.624	2.48
446.828	2.58
447.032	2.66
447.235	2.74
447.439	2.73
447.643	2.7
447.847	2.77
448.051	2.71
448.254	2.78
448.458	2.83
448.662	2.84
448.866	2.73
449.069	2.72
449.273	2.65
449.477	2.63
449.681	2.74
449.884	2.83
450.088	2.83
450.292	2.75
450.495	2.65
450.699	2.59
450.902	2.52
451.106	2.48
451.31	2.43
451.513	2.32
451.717	2.31
451.92	2.23
452.124	2.13
452.327	2.14
452.531	2.16
452.734	2.18
452.938	2.15
453.141	2.22
453.345	2.3
453.548	2.32
453.752	2.4
453.955	2.44
454.158	2.51
454.362	2.58
454.565	2.64
454.769	2.67
454.972	2.77
455.175	2.88
455.379	2.92
455.582	2.88
455.785	2.87
455.988	2.82
456.192	2.74
456.395	2.57
456.598	2.54
456.801	2.49
457.005	2.54
457.208	2.49
457.411	2.45
457.614	2.39
457.817	2.38
458.021	2.35
458.224	2.38
458.427	2.42
458.63	2.46
458.833	2.55
459.036	2.53
459.239	2.5
459.442	2.45
459.645	2.5
459.848	2.51
460.051	2.53
460.254	2.59
460.457	2.55
460.66	2.56
460.863	2.57
461.066	2.42
461.269	2.42
461.472	2.38
461.675	2.34
461.878	2.26
462.081	2.21
462.284	2.23
462.486	2.21
462.689	2.23
462.892	2.31
463.095	2.36
463.298	2.41
463.5	2.51
463.703	2.46
463.906	2.58
464.109	2.6
464.311	2.67
464.514	2.73
464.717	2.75
464.92	2.73
465.122	2.53
465.325	2.6
465.528	2.66
465.73	2.59
465.933	2.69
466.135	2.63
466.338	2.64
466.541	2.72
466.743	2.69
466.946	2.68
467.148	2.8
467.351	2.91
467.553	2.84
467.756	2.86
467.958	2.91
468.161	2.91
468.363	2.99
468.566	3.02
468.768	2.89
468.971	2.91
469.173	3
469.375	2.87
469.578	2.84
469.78	2.79
469.983	2.76
470.185	2.76
470.387	2.92
470.59	2.88
470.792	2.85
470.994	2.87
471.196	2.98
471.399	2.93
471.601	2.99
471.803	2.99
472.005	2.95
472.208	2.9
472.41	2.91
472.612	2.81
472.814	2.85
473.016	2.75
473.218	2.8
473.421	2.66
473.623	2.56
473.825	2.61
474.027	2.55
474.229	2.66
474.431	2.74
474.633	2.73
474.835	2.81
475.037	2.8
475.239	2.91
475.441	2.95
475.643	2.87
475.845	2.91
476.047	2.84
476.249	2.91
476.451	2.88
476.653	2.83
476.855	2.83
477.057	2.75
477.258	2.71
477.46	2.66
477.662	2.62
477.864	2.75
478.066	2.71
478.268	2.67
478.469	2.69
478.671	2.66
478.873	2.62
479.075	2.55
479.276	2.56
479.478	2.53
479.68	2.55
479.882	2.54
480.083	2.49
480.285	2.54
480.487	2.5
480.688	2.54
480.89	2.51
481.091	2.52
481.293	2.5
481.495	2.45
481.696	2.49
481.898	2.47
482.099	2.45
482.301	2.44
482.502	2.44
482.704	2.46
482.905	2.43
483.107	2.44
483.308	2.45
483.51	2.45
483.711	2.47
483.913	2.45
484.114	2.45
484.315	2.47
484.517	2.51
484.718	2.52
484.92	2.55
485.121	2.55
485.322	2.57
485.524	2.58
485.725	2.61
485.926	2.62
486.127	2.6
486.329	2.63
486.53	2.6
486.731	2.59
486.932	2.57
487.134	2.56
487.335	2.56
487.536	2.56
487.737	2.55
487.938	2.52
488.139	2.48
488.341	2.54
488.542	2.53
488.743	2.54
488.944	2.51
489.145	2.54
489.346	2.49
489.547	2.5
489.748	2.49
489.949	2.47
490.15	2.5
490.351	2.51
490.552	2.48
490.753	2.45
490.954	2.46
491.155	2.51
491.356	2.47
491.557	2.53
491.758	2.58
491.959	2.61
492.159	2.68
492.36	2.73
492.561	2.8
492.762	2.84
492.963	2.87
493.164	2.9
493.364	2.98
493.565	2.96
493.766	2.93
493.967	2.9
494.167	2.91
494.368	2.88
494.569	2.77
494.769	2.8
494.97	2.83
495.171	2.88
495.371	2.94
495.572	2.86
495.773	2.93
495.973	2.96
496.174	2.98
496.375	2.97
496.575	2.99
496.776	3.03
496.976	2.98
497.177	2.99
497.377	3.03
497.578	3.01
497.778	3.07
497.979	3.11
498.179	3.15
498.38	3.15
498.58	3.21
498.78	3.31
498.981	3.41
499.181	3.5
499.382	3.54
499.582	3.47
499.782	3.54
499.983	3.6
500.183	3.58
500.383	3.64
500.584	3.72
500.784	3.68
500.984	3.63
501.184	3.61
501.385	3.61
501.585	3.56
501.785	3.56
501.985	3.6
502.185	3.49
502.386	3.5
502.586	3.53
502.786	3.57
502.986	3.56
503.186	3.55
503.386	3.55
503.586	3.53
503.786	3.66
503.987	3.76
504.187	3.78
504.387	3.88
504.587	3.91
504.787	3.8
504.987	3.73
505.187	3.76
505.387	3.78
505.587	3.88
505.786	3.92
505.986	3.89
506.186	3.93
506.386	3.87
506.586	3.93
506.786	3.96
506.986	4.11
507.186	4.17
507.386	4.18
507.585	4.21
507.785	4.19
507.985	4.22
508.185	4.23
508.384	4.24
508.584	4.26
508.784	4.2
508.984	4.15
509.183	4.17
509.383	4.23
509.583	4.29
509.782	4.3
509.982	4.34
510.182	4.4
510.381	4.46
510.581	4.49
510.781	4.62
510.98	4.67
511.18	4.8
511.379	4.88
511.579	4.88
511.778	4.95
511.978	4.97
512.177	5.01
512.377	5.05
512.576	5.04
512.776	5.11
512.975	5.09
513.175	5.23
513.374	5.32
513.573	5.31
513.773	5.42
513.972	5.44
514.172	5.54
514.371	5.62
514.57	5.66
514.77	5.76
514.969	5.79
515.168	5.81
515.367	5.8
515.567	5.78
515.766	5.75
515.965	5.7
516.164	5.71
516.364	5.69
516.563	5.63
516.762	5.55
516.961	5.54
517.16	5.61
517.359	5.59
517.559	5.63
517.758	5.62
517.957	5.69
518.156	5.79
518.355	5.86
518.554	5.95
518.753	6.05
518.952	6.15
519.151	6.28
519.35	6.26
519.549	6.35
519.748	6.4
519.947	6.52
520.146	6.57
520.345	6.54
520.544	6.58
520.743	6.64
520.942	6.6
521.141	6.64
521.339	6.57
521.538	6.56
521.737	6.63
521.936	6.66
522.135	6.65
522.333	6.69
522.532	6.71
522.731	6.68
522.93	6.66
523.129	6.7
523.327	6.74
523.526	6.82
523.725	6.87
523.923	6.82
524.122	6.78
524.321	6.76
524.519	6.72
524.718	6.75
524.917	6.78
525.115	6.79
525.314	6.82
525.512	6.82
525.711	6.79
525.909	6.79
526.108	6.8
526.306	6.8
526.505	6.81
526.703	6.8
526.902	6.81
527.1	6.84
527.299	6.81
527.497	6.86
527.696	6.88
527.894	6.92
528.092	6.97
528.291	7.02
528.489	7.1
528.688	7.15
528.886	7.27
529.084	7.33
529.283	7.38
529.481	7.53
529.679	7.57
529.877	7.61
530.076	7.63
530.274	7.6
530.472	7.63
530.67	7.65
530.869	7.67
531.067	7.61
531.265	7.61
531.463	7.6
531.661	7.54
531.859	7.53
532.057	7.55
532.255	7.59
532.454	7.67
532.652	7.7
532.85	7.7
533.048	7.75
533.246	7.84
533.444	7.86
533.642	7.94
533.84	8.01
534.038	8.08
534.236	8.13
534.434	8.17
534.632	8.22
534.83	8.28
535.027	8.34
535.225	8.32
535.423	8.3
535.621	8.36
535.819	8.38
536.017	8.41
536.215	8.4
536.412	8.51
536.61	8.54
536.808	8.51
537.006	8.52
537.203	8.52
537.401	8.62
537.599	8.69
537.797	8.71
537.994	8.74
538.192	8.76
538.39	8.77
538.587	8.68
538.785	8.7
538.983	8.74
539.18	8.73
539.378	8.73
539.575	8.73
539.773	8.76
539.97	8.79
540.168	8.79
540.366	8.83
540.563	8.9
540.761	8.96
540.958	8.99
541.155	9.05
541.353	9.12
541.55	9.21
541.748	9.26
541.945	9.33
542.143	9.38
542.34	9.49
542.537	9.57
542.735	9.63
542.932	9.7
543.129	9.69
543.327	9.73
543.524	9.78
543.721	9.79
543.919	9.87
544.116	9.94
544.313	10.05
544.51	10.05
544.708	10.03
544.905	10.03
545.102	10.07
545.299	10.14
545.496	10.11
545.693	10.18
545.891	10.27
546.088	10.23
546.285	10.21
546.482	10.17
546.679	10.25
546.876	10.36
547.073	10.4
547.27	10.39
547.467	10.41
547.664	10.63
547.861	10.62
548.058	10.66
548.255	10.83
548.452	10.88
548.649	11.04
548.846	11.09
549.043	11.02
549.24	11.08
549.437	11.18
549.633	11.33
549.83	11.33
550.027	11.46
550.224	11.51
550.421	11.58
550.618	11.59
550.814	11.63
551.011	11.62
551.208	11.71
551.405	11.79
551.601	11.89
551.798	11.99
551.995	12
552.191	11.98
552.388	12
552.585	11.95
552.781	11.98
552.978	12
553.175	12.02
553.371	12.16
553.568	12.25
553.764	12.23
553.961	12.18
554.157	12.22
554.354	12.31
554.55	12.38
554.747	12.52
554.943	12.56
555.14	12.64
555.336	12.79
555.533	12.73
555.729	12.84
555.926	12.94
556.122	13.1
556.318	13.22
556.515	13.29
556.711	13.35
556.907	13.39
557.104	13.53
557.3	13.63
557.496	13.61
557.693	13.64
557.889	13.57
558.085	13.61
558.281	13.63
558.478	13.66
558.674	13.74
558.87	13.73
559.066	13.8
559.262	13.8
559.459	13.74
559.655	13.82
559.851	13.92
560.047	14.01
560.243	14.09
560.439	14.24
560.635	14.28
560.831	14.22
561.027	14.29
561.223	14.32
561.419	14.47
561.615	14.64
561.811	14.68
562.007	14.81
562.203	14.88
562.399	14.86
562.595	14.85
562.791	14.97
562.987	15.14
563.183	15.3
563.379	15.27
563.575	15.28
563.771	15.19
563.966	15.25
564.162	15.27
564.358	15.31
564.554	15.36
564.75	15.27
564.945	15.18
565.141	15.19
565.337	15.17
565.533	15.26
565.728	15.3
565.924	15.4
566.12	15.52
566.315	15.52
566.511	15.61
566.707	15.69
566.902	15.9
567.098	16.02
567.293	16.09
567.489	16.17
567.684	16.27
567.88	16.33
568.076	16.41
568.271	16.41
568.467	16.56
568.662	16.49
568.858	16.53
569.053	16.35
569.248	16.36
569.444	16.33
569.639	16.34
569.835	16.37
570.03	16.34
570.225	16.38
570.421	16.34
570.616	16.25
570.812	16.38
571.007	16.45
571.202	16.66
571.397	16.7
571.593	16.8
571.788	16.84
571.983	16.86
572.178	16.94
572.374	17.04
572.569	17.11
572.764	17.23
572.959	17.23
573.154	17.22
573.35	17.25
573.545	17.36
573.74	17.33
573.935	17.31
574.13	17.26
574.325	17.3
574.52	17.27
574.715	17.27
574.91	17.27
575.105	17.35
575.3	17.49
575.495	17.5
575.69	17.45
575.885	17.55
576.08	17.75
576.275	17.96
576.47	17.97
576.665	17.93
576.86	18.04
577.055	18.02
577.25	17.97
577.444	17.96
577.639	18.06
577.834	18.15
578.029	18.25
578.224	18.27
578.418	18.37
578.613	18.51
578.808	18.62
579.003	18.61
579.197	18.77
579.392	18.86
579.587	19.02
579.781	19
579.976	19.09
580.171	19.16
580.365	19.09
580.56	19.1
580.755	19.05
580.949	19.14
581.144	19.28
581.338	19.16
581.533	19.16
581.727	19.18
581.922	19.14
582.116	19.1
582.311	19.13
582.505	19.2
582.7	19.11
582.894	19.23
583.089	19.18
583.283	19.23
583.478	19.44
583.672	19.42
583.866	19.39
584.061	19.44
584.255	19.38
584.449	19.38
584.644	19.33
584.838	19.58
585.032	19.48
585.226	19.45
585.421	19.42
585.615	19.43
585.809	19.4
586.003	19.41
586.198	19.46
586.392	19.58
586.586	19.49
586.78	19.53
586.974	19.31
587.168	19.42
587.363	19.55
587.557	19.56
587.751	19.51
587.945	19.59
588.139	19.54
588.333	19.57
588.527	19.56
588.721	19.58
588.915	19.56
589.109	19.67
589.303	19.61
589.497	19.69
589.691	19.79
589.885	19.9
590.079	20.07
590.273	20.17
590.466	20.19
590.66	20.15
590.854	20.29
591.048	20.31
591.242	20.23
591.436	20.34
591.629	20.28
591.823	20.32
592.017	20.29
592.211	20.05
592.404	19.93
592.598	19.88
592.792	19.9
592.986	19.9
593.179	20.06
593.373	20.05
593.567	20.13
593.76	20.14
593.954	20.13
594.147	20.12
594.341	20.3
594.535	20.5
594.728	20.6
594.922	20.7
595.115	20.59
595.309	20.52
595.502	20.57
595.696	20.5
595.889	20.57
596.083	20.51
596.276	20.58
596.47	20.65
596.663	20.58
596.856	20.54
597.05	20.57
597.243	20.68
597.437	20.8
597.63	20.68
597.823	20.72
598.017	20.76
598.21	20.8
598.403	20.87
598.596	20.75
598.79	20.62
598.983	20.72
599.176	20.78
599.369	20.63
599.563	20.73
599.756	20.9
599.949	20.92
600.142	20.86
600.335	20.91
600.528	20.84
600.722	20.87
600.915	21.12
601.108	21.18
601.301	21.12
601.494	21.34
601.687	21.21
601.88	21.17
602.073	21.05
602.266	21.04
602.459	20.98
602.652	20.91
602.845	20.94
603.038	20.91
603.231	20.85
603.424	20.88
603.617	20.83
603.809	20.76
604.002	20.73
604.195	20.89
604.388	21.03
604.581	21.1
604.774	21.22
604.966	21.14
605.159	21.15
605.352	21.17
605.545	21.15
605.737	21.18
605.93	21.28
606.123	21.61
606.316	21.43
606.508	21.32
606.701	21.34
606.894	21.19
607.086	21.48
607.279	21.44
607.471	21.62
607.664	21.57
607.857	21.62
608.049	21.71
608.242	21.47
608.434	21.54
608.627	21.63
608.819	21.57
609.012	21.81
609.204	21.6
609.397	21.64
609.589	21.48
609.782	21.76
609.974	21.85
610.166	21.8
610.359	21.98
610.551	22.1
610.743	21.98
610.936	22.27
611.128	22.19
611.32	22.38
611.513	22.4
611.705	22.37
611.897	22.02
612.09	21.98
612.282	22.07
612.474	21.9
612.666	22.01
612.858	22.06
613.051	21.88
613.243	21.86
613.435	21.78
613.627	21.94
613.819	21.87
614.011	22.44
614.203	22.5
614.395	22.39
614.588	22.38
614.78	22.15
614.972	22.2
615.164	22.09
615.356	21.96
615.548	21.95
615.74	21.82
615.932	21.9
616.124	21.33
616.315	21.41
616.507	21.63
616.699	21.76
616.891	21.74
617.083	21.69
617.275	21.83
617.467	22.09
617.659	22.1
617.85	22.16
618.042	22.38
618.234	22.67
618.426	22.48
618.618	22.17
618.809	22.1
619.001	22.2
619.193	22.31
619.384	22.24
619.576	22.14
619.768	22.08
619.959	21.98
620.151	22
620.343	21.95
620.534	21.9
620.726	22.19
620.917	22.35
621.109	22.43
621.301	22.33
621.492	22.37
621.684	22.34
621.875	22.46
622.067	22.47
622.258	22.34
622.45	22.31
622.641	22.42
622.832	22.25
623.024	22.15
623.215	22.18
623.407	22.11
623.598	22.07
623.789	22.12
623.981	22.09
624.172	22.16
624.363	22.2
624.555	22.14
624.746	22.1
624.937	22.22
625.129	22.14
625.32	21.98
625.511	22.05
625.702	22.05
625.893	21.97
626.085	21.97
626.276	21.9
626.467	21.87
626.658	21.92
626.849	21.85
627.04	21.73
627.231	21.71
627.422	21.85
627.614	21.84
627.805	21.93
627.996	21.92
628.187	21.95
628.378	22.05
628.569	22.18
628.76	22
628.951	22.02
629.142	22.09
629.332	22.12
629.523	22.15
629.714	22.24
629.905	22.19
630.096	22.35
630.287	22.33
630.478	22.29
630.669	22.12
630.859	22.55
631.05	22.56
631.241	22.45
631.432	22.35
631.623	22.24
631.813	22.32
632.004	22.28
632.195	22.22
632.385	22.21
632.576	22.28
632.767	22.29
632.957	22.16
633.148	22.31
633.339	22.41
633.529	22.56
633.72	22.65
633.91	22.41
634.101	22.36
634.292	22.5
634.482	22.61
634.673	22.5
634.863	22.58
635.054	22.45
635.244	22.35
635.435	22.32
635.625	22.28
635.815	22.29
636.006	22.24
636.196	22.38
636.387	22.25
636.577	22.26
636.767	22.2
636.958	22.29
637.148	22.4
637.338	22.31
637.529	22.4
637.719	22.58
637.909	22.69
638.099	23.13
638.29	23.18
638.48	23.09
638.67	23.03
638.86	23.11
639.05	22.81
639.241	22.81
639.431	22.88
639.621	22.8
639.811	22.77
640.001	22.74
640.191	22.47
640.381	22.24
640.571	22.27
640.761	22.2
640.951	22.19
641.141	22.3
641.331	22.02
641.521	22.13
641.711	22.17
641.901	22.07
642.091	21.95
642.281	21.91
642.471	22.07
642.661	22.23
642.851	22.42
643.041	22.65
643.231	22.8
643.42	23.04
643.61	23.05
643.8	23.02
643.99	23.25
644.18	23.15
644.369	23.17
644.559	23.13
644.749	22.94
644.939	22.79
645.128	22.7
645.318	22.68
645.508	22.53
645.697	22.55
645.887	22.75
646.076	22.48
646.266	22.39
646.456	22.42
646.645	22.64
646.835	22.75
647.024	22.93
647.214	22.94
647.403	22.8
647.593	22.87
647.782	22.87
647.972	22.71
648.161	22.8
648.351	23.04
648.54	22.85
648.73	22.76
648.919	22.65
649.108	22.54
649.298	22.74
649.487	22.81
649.677	22.82
649.866	22.88
650.055	22.9
650.244	22.81
650.434	22.98
650.623	23.13
650.812	22.96
651.002	23.1
651.191	22.92
651.38	22.78
651.569	22.77
651.758	22.81
651.947	22.83
652.137	22.91
652.326	23.1
652.515	22.96
652.704	23.09
652.893	23.04
653.082	22.97
653.271	23.14
653.46	23.08
653.649	23.11
653.838	23.24
654.027	23.14
654.216	22.96
654.405	22.85
654.594	22.79
654.783	22.87
654.972	23.09
655.161	23.38
655.35	23.51
655.539	23.64
655.728	23.74
655.916	23.65
656.105	23.39
656.294	23.62
656.483	23.74
656.672	23.68
656.86	23.58
657.049	23.56
657.238	23.3
657.427	23.21
657.615	22.99
657.804	22.69
657.993	22.64
658.181	22.81
658.37	22.79
658.559	22.65
658.747	22.67
658.936	22.61
659.125	22.63
659.313	22.52
659.502	22.69
659.69	22.8
659.879	23.01
660.067	23
660.256	22.97
660.444	22.9
660.633	23.04
660.821	23.26
661.01	23.17
661.198	23.3
661.387	23.55
661.575	23.29
661.763	23.31
661.952	23.36
662.14	23.61
662.328	23.68
662.517	23.67
662.705	23.6
662.893	23.48
663.082	23.75
663.27	23.57
663.458	23.61
663.646	23.76
663.834	23.53
664.023	23.62
664.211	23.5
664.399	23.58
664.587	23.6
664.775	23.7
664.963	23.78
665.152	23.71
665.34	23.91
665.528	23.78
665.716	23.92
665.904	24.15
666.092	23.93
666.28	24.08
666.468	23.85
666.656	23.76
666.844	23.77
667.032	23.85
667.22	24
667.408	23.61
667.596	23.53
667.784	23.18
667.971	23.38
668.159	23.53
668.347	23.26
668.535	23.29
668.723	23.47
668.911	23.54
669.098	23.35
669.286	23.34
669.474	23.45
669.662	23.7
669.849	23.9
670.037	23.82
670.225	23.62
670.413	23.88
670.6	23.95
670.788	23.74
670.976	23.64
671.163	23.64
671.351	23.46
671.538	23.65
671.726	23.5
671.913	23.46
672.101	23.15
672.289	23.14
672.476	22.87
672.664	22.93
672.851	22.97
673.039	22.84
673.226	22.89
673.413	22.77
673.601	22.92
673.788	23.3
673.976	23.44
674.163	23.82
674.35	24.04
674.538	24.27
674.725	24.4
674.912	24.46
675.1	24.75
675.287	24.75
675.474	24.64
675.662	24.25
675.849	23.93
676.036	23.79
676.223	23.44
676.411	23.36
676.598	23.34
676.785	23.38
676.972	23.46
677.159	23.32
677.346	23.15
677.533	23.26
677.721	23.57
677.908	23.41
678.095	23.35
678.282	23.42
678.469	23.57
678.656	23.59
678.843	23.34
679.03	22.94
679.217	23.02
679.404	23.09
679.591	23.07
679.778	23.21
679.964	23.34
680.151	23.32
680.338	23.53
680.525	23.41
680.712	23.64
680.899	23.85
681.086	24.42
681.272	24.42
681.459	24.37
681.646	24.36
681.833	24.32
682.02	24.37
682.206	24.71
682.393	24.62
682.58	24.64
682.766	24.25
682.953	24.16
683.14	24
683.326	24.31
683.513	24.72
683.7	24.81
683.886	24.81
684.073	24.83
684.259	24.52
684.446	24.55
684.632	24.55
684.819	24.53
685.005	24.61
685.192	24.6
685.378	24.3
685.565	24.19
685.751	24.15
685.938	23.99
686.124	24.05
686.31	24.16
686.497	24.36
686.683	24.51
686.87	24.78
687.056	24.62
687.242	24.53
687.429	24.69
687.615	24.51
687.801	24.47
687.987	24.08
688.174	24
688.36	23.85
688.546	23.98
688.732	23.92
688.918	23.79
689.105	23.8
689.291	23.75
689.477	23.37
689.663	23.16
689.849	23.27
690.035	23.7
690.221	23.41
690.407	23.71
690.593	23.06
690.779	23.04
690.965	22.89
691.151	22.74
691.337	23.08
691.523	23.29
691.709	23.38
691.895	23.5
692.081	23.43
692.267	23.9
692.453	23.77
692.639	23.82
692.825	23.73
693.011	23.84
693.196	24.13
693.382	23.59
693.568	23.46
693.754	23.59
693.94	23.69
694.125	23.63
694.311	23.58
694.497	23.44
694.682	23.66
694.868	23.79
695.054	23.66
695.239	23.47
695.425	23.72
695.611	24.03
695.796	24.12
695.982	23.99
696.168	23.94
696.353	23.92
696.539	23.96
696.724	24
696.91	23.98
697.095	23.93
697.281	23.85
697.466	23.97
697.652	23.95
697.837	23.88
698.023	24.03
698.208	23.92
698.393	23.75
698.579	23.83
698.764	23.67
698.949	23.4
699.135	23.6
699.32	23.69
699.505	23.65
699.691	23.2
699.876	23.12
700.061	22.93
700.246	23.16
700.432	23.3
700.617	23.55
700.802	23.74
700.987	24.25
701.172	24.23
701.358	24.41
701.543	24.37
701.728	24.72
701.913	24.53
702.098	24.76
702.283	25.06
702.468	24.92
702.653	24.58
702.838	25
703.023	24.82
703.208	24.63
703.393	24.64
703.578	25.1
703.763	25.1
703.948	25.62
704.133	25.39
704.318	24.72
704.503	24.99
704.688	25.27
704.873	24.51
705.057	24.57
705.242	24.53
705.427	24.48
705.612	24.05
705.797	24.45
705.981	24.53
706.166	24.55
706.351	24.68
706.536	24.29
706.72	24.09
706.905	24.31
707.09	24.31
707.274	24.87
707.459	25
707.644	24.96
707.828	24.82
708.013	24.68
708.197	24.73
708.382	24.96
708.567	25.31
708.751	25.01
708.936	25.12
709.12	25.34
709.305	24.54
709.489	24.38
709.673	24.47
709.858	24.2
710.042	24.27
710.227	24.1
710.411	23.98
710.596	23.99
710.78	24.01
710.964	23.85
711.149	23.81
711.333	24.27
711.517	24.33
711.702	24.16
711.886	24.27
712.07	24.01
712.254	24.17
712.438	24.29
712.623	23.97
712.807	24.23
712.991	24.3
713.175	24.5
713.359	24.28
713.544	24.2
713.728	24.4
713.912	24.46
714.096	24.41
714.28	24.24
714.464	24.36
714.648	24.6
714.832	24.54
715.016	24.47
715.2	24
715.384	24.09
715.568	24.14
715.752	24.14
715.936	24.12
716.12	24.19
716.304	24.77
716.488	24.57
716.671	24.34
716.855	24.44
717.039	24.6
717.223	24.54
717.407	24.86
717.59	24.97
717.774	24.92
717.958	24.83
718.142	25.16
718.325	24.64
718.509	24.78
718.693	25.08
718.877	24.62
719.06	24.67
719.244	25.06
719.428	24.54
719.611	24.67
719.795	24.25
719.978	23.91
720.162	24.01
720.345	24.51
720.529	25.05
720.713	25.13
720.896	25.33
721.08	24.79
721.263	24.78
721.446	25.14
721.63	25.38
721.813	25.91
721.997	26.43
722.18	26.41
722.364	25.78
722.547	25.12
722.73	24.89
722.914	25.1
723.097	25.71
723.28	25.6
723.464	25.38
723.647	24.88
723.83	24.49
724.013	24.23
724.197	24.01
724.38	24.51
724.563	24.71
724.746	25.14
724.929	25.14
725.112	25.13
725.296	25.39
725.479	25.65
725.662	26.21
725.845	26.5
726.028	26.6
726.211	26.47
726.394	26.11
726.577	26.06
726.76	25.37
726.943	25.2
727.126	24.96
727.309	24.72
727.492	24.52
727.675	23.56
727.858	23.17
728.041	23.43
728.224	23.73
728.407	23.98
728.589	23.99
728.772	24.61
728.955	24.79
729.138	24.99
729.321	25.13
729.503	25.35
729.686	25.82
729.869	26.43
730.052	26.04
730.234	25.87
730.417	25.77
730.6	25.65
730.782	25.33
730.965	25.35
731.148	25.36
731.33	25.47
731.513	25.11
731.695	25.25
731.878	25.11
732.061	25.28
732.243	25.3
732.426	25.27
732.608	25.7
732.791	25.56
732.973	25.51
733.156	25.28
733.338	25
733.52	25.44
733.703	25.33
733.885	25.37
734.068	25.41
734.25	25.68
734.432	25.62
734.615	25.38
734.797	25.46
734.979	25.34
735.162	25.68
735.344	25.47
735.526	25.22
735.708	25.32
735.891	25.33
736.073	24.96
736.255	24.63
736.437	24.57
736.619	24.02
736.802	23.93
736.984	24.05
737.166	23.83
737.348	24.47
737.53	24.79
737.712	24.52
737.894	24.2
738.076	25.06
738.258	25.08
738.44	25.57
738.622	26.05
738.804	26.12
738.986	26.38
739.168	26.21
739.35	26.03
739.532	25.87
739.714	26.09
739.896	26.47
740.078	26.17
740.259	25.51
740.441	25.11
740.623	24.91
740.805	25.44
740.987	25.49
741.168	25.67
741.35	26.16
741.532	26.27
741.714	26.08
741.895	25.86
742.077	26.08
742.259	26.4
742.44	26.41
742.622	26.05
742.804	25.84
742.985	25.19
743.167	25.15
743.348	24.3
743.53	23.74
743.711	24.19
743.893	24.22
744.075	24.05
744.256	24.44
744.438	24.78
744.619	25.53
744.8	25.3
744.982	25.39
745.163	26.05
745.345	26.36
745.526	27.1
745.707	27.36
745.889	27.23
746.07	27.08
746.252	26.88
746.433	26.45
746.614	26.07
746.795	26.31
746.977	26.96
747.158	26.17
747.339	26.26
747.52	26.22
747.702	25.67
747.883	26.27
748.064	25.94
748.245	26.45
748.426	26.76
748.607	27.05
748.788	27.03
748.97	26.73
749.151	27.25
749.332	27.61
749.513	26.78
749.694	27.31
749.875	26.9
750.056	27.39
750.237	26.89
750.418	27.26
750.599	26.74
750.78	26.89
750.96	26.82
751.141	26.78
751.322	25.46
751.503	25.53
751.684	25.08
751.865	25.1
752.046	24.6
752.226	25.09
752.407	24.96
752.588	25.51
752.769	25.87
752.949	25.84
753.13	26.8
753.311	27.23
753.492	27.29
753.672	27.31
753.853	27.36
754.034	27.7
754.214	27.72
754.395	27.1
754.575	26.79
754.756	25.94
754.937	26.78
755.117	25.12
755.298	25.77
755.478	25.83
755.659	25.41
755.839	25.01
756.02	25.18
756.2	25.29
756.381	24.61
756.561	24.94
756.741	25.08
756.922	24.28
757.102	25.54
757.283	25.1
757.463	25.27
757.643	25.29
757.823	25.11
758.004	24.46
758.184	24.66
758.364	25.68
758.545	25.92
758.725	25.78
758.905	26.07
759.085	25.99
759.265	26.19
759.446	26.2
759.626	26.24
759.806	27.09
759.986	28.07
760.166	27.47
760.346	26.89
760.526	26.5
760.706	26.65
760.886	26.81
761.066	26.29
761.246	25.95
761.426	26.44
761.606	26.42
761.786	26.05
761.966	25.43
762.146	25.29
762.326	25.62
762.506	25.58
762.686	25.66
762.866	25.45
763.046	25
763.225	24.9
763.405	24.43
763.585	24.34
763.765	24.1
763.945	23.92
764.124	24.55
764.304	24.45
764.484	24.96
764.664	24.68
764.843	24.19
765.023	24.78
765.203	25.11
765.382	25.55
765.562	26.15
765.741	26.19
765.921	26.68
766.101	25.99
766.28	25.83
766.46	25.34
766.639	26.03
766.819	26.15
766.998	25.49
767.178	25.79
767.357	25.33
767.537	25.06
767.716	24.99
767.896	24.94
768.075	25.11
768.254	24.84
768.434	24.55
768.613	24.6
768.792	24.67
768.972	25.7
769.151	25.48
769.33	25.72
769.51	25.87
769.689	26.48
769.868	26.17
770.047	26.81
770.226	27.73
770.406	27.56
770.585	27.32
770.764	27.53
770.943	27.47
771.122	26.98
771.301	27.29
771.48	27.58
771.66	27.95
771.839	27.81
772.018	27.08
772.197	26.87
772.376	26.93
772.555	26.55
772.734	26.07
772.913	25.43
773.092	25.86
773.271	25
773.449	24.18
773.628	23.4
773.807	24.13
773.986	23.96
774.165	23.85
774.344	24.48
774.523	24.47
774.701	25.23
774.88	25.74
775.059	26.24
775.238	26.95
775.417	27.54
775.595	27.73
775.774	27.28
775.953	26.85
776.131	26.73
776.31	26.22
776.489	26.1
776.667	25.67
776.846	25.33
777.025	24.76
777.203	23.73
777.382	23.9
777.56	23.88
777.739	23.9
777.917	25.2
778.096	25.23
778.274	25.74
778.453	25.53
778.631	25.84
778.81	25.39
778.988	25.73
779.166	26.66
779.345	25.93
779.523	25.46
779.702	25.33
779.88	24.5
780.058	24.6
780.237	25.01
780.415	25.09
780.593	25.54
780.771	26.49
780.95	27.26
781.128	27.42
781.306	27.52
781.484	28.59
781.662	28.86
781.841	29.49
782.019	29.34
782.197	27.91
782.375	28.3
782.553	28.82
782.731	27.37
782.909	26.53
783.087	27.12
783.265	27.46
783.443	26.44
783.621	26.19
783.799	26.32
783.977	26.65
784.155	27.32
784.333	28.55
784.511	26.78
784.689	27.8
784.867	27.52
785.045	25.53
785.223	25.67
785.4	25.65
785.578	25.4
785.756	25.8
785.934	26.52
786.112	26.44
786.289	24.27
786.467	24.62
786.645	24.44
786.823	24.61
787	25.65
787.178	25.8
787.356	26.02
787.533	26.01
787.711	25.44
787.889	24.31
788.066	24.33
788.244	25.5
788.421	25.98
788.599	25.9
788.776	25.83
788.954	26.65
789.131	26.12
789.309	25.79
789.486	26.46
789.664	25.73
789.841	26.03
790.019	25.6
790.196	24.76
790.373	25.25
790.551	25.59
790.728	24.58
790.906	23.69
791.083	23.89
791.26	25.44
791.437	25.41
791.615	25.81
791.792	25.39
791.969	26.25
792.146	27.16
792.324	26.53
792.501	26.86
792.678	27.7
792.855	27.8
793.032	26.92
793.209	25.74
793.387	25.98
793.564	26.39
793.741	27.29
793.918	26.98
794.095	26.45
794.272	26.64
794.449	25.76
794.626	26.22
794.803	26.5
794.98	27.31
795.157	27.15
795.334	26.88
795.511	27.43
795.688	26.92
795.864	26.26
796.041	26.2
796.218	26.65
796.395	27.08
796.572	26.23
796.749	26.46
796.925	27.17
797.102	26.69
797.279	26.24
797.456	25.31
797.632	25.49
797.809	26.21
797.986	26.26
798.162	25.33
798.339	25.14
798.516	25.82
798.692	25.32
798.869	23.96
799.046	25.13
799.222	25.42
799.399	26.34
799.575	26.02
799.752	25.8
799.928	25.69
800.105	25.92
800.281	26.23
800.458	26.75
800.634	26.07
800.811	26.36
800.987	26.72
801.163	25.95
801.34	24.4
801.516	25.64
801.692	25.66
801.869	26
802.045	26.55
802.221	26.41
802.398	26.05
802.574	27.41
802.75	28.7
802.926	28.79
803.103	29.1
803.279	28.86
803.455	27.42
803.631	27.01
803.807	27.99
803.983	28.39
804.16	28.1
804.336	27.47
804.512	26.97
804.688	25.85
804.864	26.13
805.04	27.28
805.216	28.26
805.392	30.19
805.568	31.08
805.744	29.46
805.92	29.47
806.096	29.52
806.272	29.82
806.448	30.6
806.623	31.39
806.799	31.3
806.975	30.75
807.151	31.09
807.327	29.61
807.503	28.64
807.678	30.11
807.854	29.66
808.03	30.4
808.206	30.38
808.381	29.76
808.557	30.22
808.733	29.46
808.908	29.74
809.084	28.78
809.26	28.48
809.435	29.5
809.611	28.44
809.787	27.72
809.962	26.86
810.138	27.4
810.313	26.61
810.489	25.86
810.664	26.16
810.84	25.58
811.015	27.7
811.191	29.05
811.366	29.84
811.542	31.63
811.717	31.61
811.892	32.6
812.068	31.54
812.243	31.42
812.419	32.02
812.594	32.13
812.769	32.07
812.944	31.29
813.12	29.64
813.295	28.93
813.47	27.19
813.645	28.51
813.821	28.5
813.996	31.01
814.171	31.91
814.346	31.45
814.521	31.48
814.697	32.34
814.872	31.45
815.047	31.28
815.222	31.2
815.397	31.02
815.572	30.51
815.747	29.38
815.922	28.36
816.097	27.38
816.272	28.45
816.447	27.49
816.622	26.85
816.797	27.36
816.972	26.86
817.147	27.29
817.322	27.77
817.496	27.16
817.671	29.25
817.846	29.12
818.021	30.07
818.196	28.43
818.371	28.4
818.545	29.23
818.72	29.21
818.895	29.57
819.069	28.39
819.244	27.97
819.419	27.98
819.594	27.01
819.768	25.95
819.943	26.12
820.117	26.8
820.292	26.84
820.467	26.29
820.641	25.66
820.816	25.61
820.99	25.07
821.165	25.14
821.339	25.2
821.514	25.03
821.688	25.14
821.863	24.73
822.037	24.38
822.212	24.3
822.386	24
822.56	23.92
822.735	24.01
822.909	24.24
823.084	24.09
823.258	23.75
823.432	23.64
823.606	23.71
823.781	23.93
823.955	23.78
824.129	23.82
824.303	24.04
824.478	24.31
824.652	24.05
824.826	24.51
825	24.57
825.174	25.41
825.348	25.42
825.523	25.37
825.697	25.44
825.871	25.95
826.045	25.78
826.219	26.12
826.393	25.62
826.567	25.98
826.741	26.04
826.915	26.33
827.089	26.14
827.263	26.24
827.437	26.49
827.611	26.43
827.784	26.2
827.958	26.26
828.132	26.23
828.306	26.9
828.48	26.97
828.654	27.27
828.827	27.14
829.001	27.02
829.175	27.98
829.349	28.07
829.522	28.56
829.696	28.94
829.87	29.15
830.044	29.42
830.217	30.25
830.391	29.78
830.565	29.09
830.738	29.98
830.912	29.81
831.085	27.7
831.259	27.32
831.432	26.72
831.606	27.12
831.779	27.27
831.953	26.87
832.126	26.56
832.3	27.94
832.473	27.66
832.647	26.69
832.82	26.37
832.994	26.61
833.167	27.01
833.34	26.95
833.514	26.56
833.687	26.48
833.86	26.52
834.034	26.57
834.207	26.62
834.38	26.55
834.553	27.13
834.727	27
834.9	27.01
835.073	26.37
835.246	25.88
835.419	26.65
835.593	26.78
835.766	26.73
835.939	27.06
836.112	26.26
836.285	26.9
836.458	26.32
836.631	26.88
836.804	28.48
836.977	28.98
837.15	30.04
837.323	28.36
837.496	27.52
837.669	28.23
837.842	27.15
838.015	28.07
838.188	27.5
838.361	27.68
838.533	28.37
838.706	27.93
838.879	28.79
839.052	29.91
839.225	30.58
839.398	31.3
839.57	31.45
839.743	31.92
839.916	31.39
840.088	31.45
840.261	32.73
840.434	32.36
840.607	31.03
840.779	30.92
840.952	30.89
841.124	31.76
841.297	31.31
841.47	31.84
841.642	31.48
841.815	32.18
841.987	32.36
842.16	31.31
842.332	33.37
842.505	36.84
842.677	36.33
842.85	36
843.022	37.81
843.194	40.08
843.367	40.43
843.539	43.07
843.712	43.7
843.884	42.21
844.056	45.18
844.229	43.13
844.401	41.6
844.573	41.86
844.745	42.69
844.918	43.31
845.09	40.58
845.262	36.06
845.434	34.63
845.606	32.1
845.779	36.18
845.951	35.74
846.123	34.18
846.295	34.9
846.467	34.41
846.639	31.51
846.811	29.26
846.983	31.5
847.155	36.94
847.327	33.33
847.499	37.1
847.671	35.63
847.843	30.9
848.015	33.48
848.187	32.34
848.359	34.53
848.531	35.34
848.703	34.15
848.875	30.78
849.047	28.8
849.218	28.16
849.39	26.06
849.562	23.07
849.734	24.91
849.905	22.7
850.077	25.1
850.249	22.85
850.421	26.74
850.592	27.22
850.764	32.24
850.936	31.39
851.107	34.14
851.279	34.76
851.451	37.01
851.622	37.29
851.794	39.73
851.965	39.34
852.137	38.53
852.308	35.82
852.48	33.69
852.651	36.08
852.823	36.37
852.994	36.75
853.166	35.88
853.337	36.52
853.509	41.23
853.68	42.03
853.851	41.86
854.023	45.13
854.194	49.32
854.365	55.9
854.537	50.7
854.708	55.42
854.879	54.85
855.05	56.31
855.222	54.45
855.393	55.8
855.564	56.37
855.735	53.61
855.906	54.13
856.078	48.53
856.249	47.34
856.42	48.22
856.591	44.91
856.762	46.59
856.933	46.67
857.104	46.53
857.275	45.18
857.446	43.8
857.617	42.43
857.788	38.61
857.959	39.72
858.13	39.33
858.301	41.99
858.472	39.04
858.643	37.29
858.814	37.13
858.985	39.24
859.155	34.09
859.326	36.84
859.497	37.92
859.668	36.08
859.839	39.91
860.009	36.63
860.18	33.17
860.351	34.21
860.522	35.99
860.692	32.88
860.863	30.81
861.034	35.83
861.204	31.69
861.375	33.05
861.546	39.09
861.716	35.19
861.887	33.96
862.057	34.19
862.228	30.07
862.398	30.83
862.569	33.39
862.739	38.29
862.91	30.6
863.08	34
863.251	34.77
863.421	30.9
863.592	34.48
863.762	38.39
863.932	37.42
864.103	43.26
864.273	39.03
864.443	38.29
864.614	35.07
864.784	40.29
864.954	38.21
865.125	39.37
865.295	41.87
865.465	39.15
865.635	34.55
865.805	37.39
865.976	38.78
866.146	41.01
866.316	43.95
866.486	43.91
866.656	41.97
866.826	41.34
866.996	40.34
867.166	40.11
867.336	40.28
867.506	44.88
867.676	43.83
867.846	45.78
868.016	47.49
868.186	44.71
868.356	42.75
868.526	38.2
868.696	39.6
868.866	40.36
869.036	39.09
869.206	36.26
869.376	34.77
869.545	32.91
869.715	30.08
869.885	29.29
870.055	30.97
870.224	35.68
870.394	39.49
870.564	43.63
870.734	42.29
870.903	38.78
871.073	41.18
871.243	44.65
871.412	50.12
871.582	51.98
871.751	48.69
871.921	52.28
872.091	49.9
872.26	50.82
872.43	45.5
872.599	45.91
872.769	51.56
872.938	51.1
873.108	46.86
873.277	45.67
873.446	43.55
873.616	47.25
873.785	45.02
873.955	42.73
874.124	40.08
874.293	41.99
874.463	38.15
874.632	34.9
874.801	37.02
874.971	37.8
875.14	36.58
875.309	33.73
875.478	32.46
875.647	32.97
875.817	34.62
875.986	35.85
876.155	35.28
876.324	40.14
876.493	41.49
876.662	40.06
876.831	41.4
877	37.78
877.17	41.17
877.339	38.82
877.508	35.22
877.677	36.43
877.846	36.33
878.015	38.9
878.184	34.07
878.352	33.99
878.521	32.94
878.69	32.91
878.859	36.35
879.028	36.38
879.197	36.9
879.366	38.34
879.534	37.45
879.703	34.95
879.872	31.84
880.041	33.59
880.21	33.58
880.378	34.28
880.547	33.3
880.716	31.52
880.884	31.48
881.053	30.7
881.222	30.17
881.39	28.78
881.559	29.7
881.727	29.51
881.896	28.34
882.065	28.2
882.233	27.54
882.402	27.39
882.57	27.49
882.739	27.22
882.907	27.29
883.076	27.29
883.244	27.54
883.412	27.52
883.581	28.09
883.749	28.34
883.918	27.85
884.086	28.54
884.254	29.87
884.423	30.66
884.591	30.41
884.759	31.05
884.927	30.78
885.096	31.4
885.264	31.67
885.432	32.54
885.6	32.47
885.769	33.39
885.937	33.04
886.105	30.99
886.273	29.82
886.441	29
886.609	28.17
886.777	29.4
886.945	29.7
887.113	29.32
887.281	27.65
887.449	30.69
887.617	29.21
887.785	28.21
887.953	29.38
888.121	29.47
888.289	30.6
888.457	31.62
888.625	30.92
888.793	31.32
888.961	31.11
889.129	31.27
889.296	32.78
889.464	34.8
889.632	36.89
889.8	36.86
889.967	38.76
890.135	40.9
