Data from 2938541_Reflection_2.txt Node
Date: Mon Jun 15 23:34:17 EDT 2015
User: robert
Spectrometer: USB4E03002
Autoset integration time: false
Trigger mode: 4
Integration Time (sec): 1.000000E-1
Scans to average: 10
Electric dark correction enabled: true
Nonlinearity correction enabled: false
Boxcar width: 6
Stray light correction enabled: false
XAxis mode: Wavelengths
Stop averaging: false
Number of Pixels in Spectrum: 3648
>>>>>Begin Spectral Data<<<<<
177.575	17.65
177.794	18.42
178.014	14.03
178.233	-55.99
178.452	-342.48
178.672	217.71
178.891	220
179.11	-70.16
179.33	-91.4
179.549	-123.79
179.768	-81.82
179.987	-147.32
180.207	-26.35
180.426	-32.03
180.645	-13.28
180.864	19.84
181.084	-8.97
181.303	-27.73
181.522	6.34
181.741	-10.57
181.96	-2.38
182.179	14.01
182.398	7.38
182.618	-8.51
182.837	-14.88
183.056	-31.29
183.275	8.42
183.494	0.38
183.713	-32.9
183.932	-14.15
184.151	-46.9
184.37	-110.98
184.589	-41.35
184.808	-77.01
185.027	-180.77
185.246	-53.41
185.465	-79.16
185.684	-156.58
185.903	-117.78
186.122	-1200
186.341	2885
186.56	634.57
186.779	1264.1
186.998	-155.63
187.216	1084.62
187.435	207.22
187.654	661.17
187.873	3147.62
188.092	522.66
188.311	292.06
188.53	1091.67
188.748	-1400
188.967	-141.82
189.186	-617.07
189.405	-484.42
189.623	884.62
189.842	277.64
190.061	3072.73
190.28	-90.09
190.498	-182.46
190.717	-48.65
190.936	292.86
191.154	-29.73
191.373	1555.56
191.592	844.44
191.81	310.81
192.029	237.1
192.248	260.32
192.466	-900
192.685	-171.92
192.904	-142.15
193.122	808.16
193.341	1066.67
193.559	162.95
193.778	333.12
193.996	180.17
194.215	179.26
194.433	167.47
194.652	192.72
194.87	178.41
195.089	146.09
195.307	125.58
195.526	91.86
195.744	111.27
195.963	227.87
196.181	218.5
196.399	969.7
196.618	175.57
196.836	1.6
197.055	37.04
197.273	-4.17
197.491	20.25
197.71	-108.81
197.928	-8.18
198.146	-29.89
198.365	-48.28
198.583	-131.98
198.801	9750
199.019	520
199.238	784.48
199.456	1421.88
199.674	343.15
199.892	385.26
200.111	1839.29
200.329	177.64
200.547	246.75
200.765	213.54
200.983	213.25
201.202	217.19
201.42	294.48
201.638	198.35
201.856	340
202.074	174.78
202.292	203.91
202.51	144.64
202.728	165.1
202.946	127.04
203.165	117.42
203.383	107.47
203.601	86.09
203.819	66.29
204.037	79.5
204.255	56.94
204.473	78.73
204.691	65.67
204.909	50.17
205.127	31.57
205.345	11.64
205.562	43.6
205.78	122.58
205.998	110.29
206.216	65.23
206.434	39.75
206.652	18.35
206.87	40.92
207.088	79.62
207.306	87.23
207.523	97.8
207.741	152.17
207.959	146.86
208.177	181.76
208.395	133.39
208.612	111.69
208.83	133.33
209.048	163.12
209.266	180.22
209.483	192.21
209.701	226.49
209.919	400.77
210.136	202.43
210.354	197.85
210.572	179.08
210.79	176.4
211.007	150.64
211.225	173.77
211.442	132.68
211.66	116.67
211.878	107.42
212.095	118.77
212.313	104.36
212.53	84.48
212.748	83.18
212.966	61.8
213.183	76.8
213.401	78.38
213.618	88.87
213.836	78.44
214.053	44.06
214.271	38.92
214.488	15.91
214.705	23.59
214.923	0.41
215.14	10.66
215.358	23.84
215.575	11.76
215.793	10.97
216.01	9.32
216.227	21.76
216.445	19.04
216.662	22.98
216.879	36.31
217.097	47.31
217.314	44.91
217.531	49.95
217.749	56.97
217.966	37.3
218.183	42.92
218.4	44.78
218.618	37.06
218.835	27.15
219.052	14.5
219.269	4.71
219.487	-9.44
219.704	5.46
219.921	5.2
220.138	14.79
220.355	16.81
220.572	15.16
220.79	14.55
221.007	11.82
221.224	7.11
221.441	14.66
221.658	24.64
221.875	22.53
222.092	20.46
222.309	23.48
222.526	18.78
222.743	8.11
222.96	12.53
223.177	10.72
223.394	13.95
223.611	15.37
223.828	16.19
224.045	19.51
224.262	16.87
224.479	13.36
224.696	13.08
224.913	13.73
225.13	10.71
225.347	10.23
225.564	12.04
225.781	8.6
225.997	8.58
226.214	8.2
226.431	9.43
226.648	9.25
226.865	8.85
227.082	9.97
227.298	9.92
227.515	9.81
227.732	9.47
227.949	9
228.165	9.06
228.382	8.8
228.599	8.92
228.816	8.33
229.032	8.31
229.249	8.29
229.466	8.07
229.682	8.02
229.899	7.79
230.116	6.98
230.332	6.04
230.549	7.18
230.765	9.73
230.982	10.23
231.199	10.87
231.415	10.87
231.632	10.72
231.848	11.27
232.065	8.52
232.281	9.39
232.498	9.23
232.714	7.7
232.931	7.92
233.147	7.88
233.364	7.05
233.58	6
233.797	7.13
234.013	7.53
234.23	7.07
234.446	6.51
234.662	5.38
234.879	7.17
235.095	5.67
235.312	5.61
235.528	4.42
235.744	5.55
235.961	6.52
236.177	6.74
236.393	6.24
236.61	3.72
236.826	4.75
237.042	5.07
237.258	5.93
237.475	6.66
237.691	5.93
237.907	7.72
238.123	8.48
238.339	10.87
238.556	10.98
238.772	10.28
238.988	9.79
239.204	10.47
239.42	10.99
239.636	9.72
239.853	11.03
240.069	11.14
240.285	11.27
240.501	12.05
240.717	12.34
240.933	12.71
241.149	11.65
241.365	11.58
241.581	11.55
241.797	11.48
242.013	11.15
242.229	11.28
242.445	11.66
242.661	10.66
242.877	10.45
243.093	10.71
243.309	9.66
243.525	8.51
243.741	7.71
243.957	8.35
244.173	7.78
244.388	8.29
244.604	8.72
244.82	8.49
245.036	7.92
245.252	7.96
245.468	8.02
245.683	8.08
245.899	8.06
246.115	8.19
246.331	8.14
246.547	8.25
246.762	8.33
246.978	8.11
247.194	8
247.409	8.13
247.625	8.09
247.841	8.89
248.057	8.35
248.272	8.22
248.488	7.97
248.703	7.92
248.919	7.52
249.135	7.74
249.35	7.66
249.566	7.15
249.782	8.06
249.997	8.14
250.213	7.69
250.428	7.82
250.644	7.24
250.859	7.75
251.075	8.51
251.29	8.48
251.506	8.7
251.721	8.96
251.937	8.88
252.152	9.46
252.368	9.29
252.583	8.99
252.798	8.47
253.014	7.87
253.229	7.79
253.445	8.74
253.66	9.1
253.875	8.16
254.091	9.09
254.306	7.74
254.521	8.08
254.737	7.83
254.952	7.39
255.167	7.96
255.383	7.6
255.598	8
255.813	7.99
256.028	8.74
256.244	7.97
256.459	7.41
256.674	7.41
256.889	6.84
257.104	6.82
257.32	6.68
257.535	7.04
257.75	6.63
257.965	6.29
258.18	6.42
258.395	6.36
258.61	6.38
258.826	6.19
259.041	6.13
259.256	6.4
259.471	6.22
259.686	6.08
259.901	6.19
260.116	6.13
260.331	5.98
260.546	6.03
260.761	5.98
260.976	5.63
261.191	5.39
261.406	4.76
261.621	4.58
261.836	4.63
262.05	4.56
262.265	4.76
262.48	4.94
262.695	4.9
262.91	4.43
263.125	4.16
263.34	4.16
263.555	4.39
263.769	4.79
263.984	5.31
264.199	5.95
264.414	5.73
264.629	5.55
264.843	5.56
265.058	5.86
265.273	5.77
265.488	5.71
265.702	6.02
265.917	6.12
266.132	6.3
266.346	6.33
266.561	6.31
266.776	5.71
266.99	5.93
267.205	5.97
267.42	6.12
267.634	6.06
267.849	6.36
268.063	6.6
268.278	6.61
268.492	6.91
268.707	6.73
268.922	6.52
269.136	6.76
269.351	6.88
269.565	6.97
269.78	6.71
269.994	6.53
270.209	6.26
270.423	6.26
270.637	5.75
270.852	5.66
271.066	5.64
271.281	5.78
271.495	5.81
271.709	5.96
271.924	6.05
272.138	5.82
272.353	6.14
272.567	6.39
272.781	6.54
272.996	6.91
273.21	6.98
273.424	7.53
273.638	7.63
273.853	7.88
274.067	7.58
274.281	7.34
274.495	7.15
274.71	6.67
274.924	6.33
275.138	6.22
275.352	6.23
275.566	6.17
275.781	5.99
275.995	5.72
276.209	5.2
276.423	5
276.637	4.5
276.851	4.54
277.065	4.86
277.279	5.05
277.493	4.91
277.707	5.71
277.921	5.69
278.135	5.02
278.349	5.19
278.563	4.9
278.777	4.96
278.991	5.04
279.205	5.17
279.419	5.28
279.633	5.26
279.847	5.07
280.061	5.29
280.275	5.51
280.489	5.28
280.703	5.38
280.917	5.75
281.131	5.76
281.344	6.07
281.558	6.09
281.772	5.95
281.986	5.97
282.2	6.15
282.414	6.16
282.627	6.02
282.841	6.04
283.055	5.99
283.269	6.1
283.482	5.75
283.696	6.1
283.91	5.83
284.123	6
284.337	5.8
284.551	5.8
284.764	5.79
284.978	5.66
285.192	5.57
285.405	6.16
285.619	6.18
285.833	6.32
286.046	6.26
286.26	6.46
286.473	6.14
286.687	6.63
286.9	6.5
287.114	6.66
287.327	6.67
287.541	6.91
287.754	7.05
287.968	7.12
288.181	6.76
288.395	6.73
288.608	6.78
288.822	6.61
289.035	6.61
289.248	6.59
289.462	6.03
289.675	6.01
289.889	5.94
290.102	5.98
290.315	5.51
290.529	5.38
290.742	5.21
290.955	5.63
291.169	5.64
291.382	5.34
291.595	5.38
291.808	5.7
292.022	5.71
292.235	6.02
292.448	6.22
292.661	6.32
292.875	6.76
293.088	7.28
293.301	7.28
293.514	7.2
293.727	6.71
293.94	6.6
294.153	6.86
294.367	7.03
294.58	6.88
294.793	7.03
295.006	7.04
295.219	6.72
295.432	6.67
295.645	6.53
295.858	6.29
296.071	6.26
296.284	6.45
296.497	6.55
296.71	6.59
296.923	6.52
297.136	6.63
297.349	6.55
297.562	6.35
297.775	6.25
297.988	6.61
298.201	6.61
298.414	6.36
298.626	6.13
298.839	5.93
299.052	5.77
299.265	5.82
299.478	5.77
299.691	5.64
299.903	5.51
300.116	5.73
300.329	5.77
300.542	5.67
300.755	5.59
300.967	5.68
301.18	5.94
301.393	6.51
301.605	6.84
301.818	6.85
302.031	6.88
302.243	6.64
302.456	6.65
302.669	6.93
302.881	6.94
303.094	7.04
303.307	7.03
303.519	7.09
303.732	6.91
303.944	6.88
304.157	6.61
304.37	6.67
304.582	7.03
304.795	6.98
305.007	7.47
305.22	7.44
305.432	6.98
305.645	6.76
305.857	6.65
306.069	7.22
306.282	7.06
306.494	7.31
306.707	7.36
306.919	7.22
307.132	7.26
307.344	7.09
307.556	6.89
307.769	6.44
307.981	6.6
308.193	6.6
308.406	6.78
308.618	6.71
308.83	6.32
309.043	6.35
309.255	6.45
309.467	6.37
309.679	6.63
309.892	6.62
310.104	6.86
310.316	7.09
310.528	7.34
310.74	7.4
310.953	7.68
311.165	7.93
311.377	8.13
311.589	8.59
311.801	8.38
312.013	8.56
312.225	8.5
312.437	8.64
312.649	8.46
312.862	8.34
313.074	8.39
313.286	8.84
313.498	8.66
313.71	8.37
313.922	7.92
314.134	7.94
314.346	7.55
314.558	8.02
314.77	7.48
314.982	7.37
315.193	7.45
315.405	7.35
315.617	7.23
315.829	6.83
316.041	6.18
316.253	6.39
316.465	6.22
316.677	6.22
316.888	6.12
317.1	6.44
317.312	6.02
317.524	6.38
317.736	6.58
317.947	6.5
318.159	6.84
318.371	7.25
318.583	7.61
318.794	7.91
319.006	8.01
319.218	8.43
319.43	8.5
319.641	8.6
319.853	8.39
320.064	8.95
320.276	8.99
320.488	9.19
320.699	9.14
320.911	9.11
321.123	9.16
321.334	9.02
321.546	8.68
321.757	8.22
321.969	8.46
322.18	8.53
322.392	9
322.603	8.69
322.815	8.71
323.026	8.55
323.238	8.52
323.449	8.44
323.661	8.75
323.872	8.65
324.083	9.05
324.295	9.27
324.506	9.52
324.718	9.2
324.929	9.07
325.14	8.85
325.352	9.11
325.563	8.67
325.774	9.07
325.986	9.21
326.197	9.33
326.408	9.34
326.62	9.41
326.831	9.34
327.042	9.73
327.253	10.1
327.464	9.83
327.676	10.08
327.887	10.08
328.098	10.43
328.309	10.66
328.52	10.64
328.732	10.72
328.943	10.68
329.154	10.8
329.365	11
329.576	10.94
329.787	10.4
329.998	10.12
330.209	10.66
330.42	10.74
330.631	10.76
330.842	10.67
331.053	10.59
331.264	10.43
331.475	10.41
331.686	10.6
331.897	10.24
332.108	10.12
332.319	10.48
332.53	10.68
332.741	10.63
332.952	10.38
333.163	10.06
333.374	9.9
333.585	10.08
333.795	9.85
334.006	10.07
334.217	10.25
334.428	10.15
334.639	10.15
334.849	9.8
335.06	9.38
335.271	9.59
335.482	9.53
335.692	9.89
335.903	10.09
336.114	10.32
336.325	10.13
336.535	10.84
336.746	10.71
336.957	10.68
337.167	10.74
337.378	11.28
337.589	11.21
337.799	11.59
338.01	11.43
338.22	11.4
338.431	11.06
338.642	11.47
338.852	11.37
339.063	11.44
339.273	11.22
339.484	11.4
339.694	11.43
339.905	11.41
340.115	10.91
340.326	11.05
340.536	10.5
340.746	10.35
340.957	10.66
341.167	10.87
341.378	10.63
341.588	10.58
341.799	10.41
342.009	10
342.219	9.92
342.43	9.74
342.64	9.43
342.85	9.48
343.061	9.49
343.271	9.65
343.481	9.79
343.691	9.44
343.902	9.36
344.112	9.26
344.322	9.24
344.532	9.26
344.743	9.53
344.953	9.11
345.163	9.03
345.373	9.09
345.583	9.16
345.793	9.33
346.004	9.58
346.214	9.73
346.424	9.87
346.634	9.82
346.844	9.7
347.054	9.71
347.264	10.03
347.474	9.76
347.684	10.16
347.894	10.21
348.104	10.15
348.314	10.13
348.524	9.71
348.734	9.82
348.944	9.71
349.154	9.68
349.364	9.85
349.574	10.01
349.784	10.01
349.994	9.54
350.204	9.7
350.413	9.34
350.623	9.26
350.833	9.37
351.043	9.26
351.253	9.43
351.463	9.06
351.672	9.24
351.882	9.32
352.092	9.17
352.302	9.13
352.511	8.85
352.721	9.15
352.931	9.3
353.141	9.48
353.35	9.53
353.56	9.51
353.77	9.43
353.979	9.54
354.189	9.52
354.399	9.35
354.608	9.41
354.818	9.45
355.027	9.44
355.237	9.58
355.447	9.35
355.656	9.1
355.866	8.93
356.075	9.05
356.285	9.36
356.494	9.49
356.704	9.22
356.913	9.34
357.123	9.32
357.332	9.19
357.542	9.02
357.751	8.9
357.96	8.98
358.17	9.03
358.379	9.17
358.589	9.34
358.798	9.04
359.007	8.64
359.217	8.38
359.426	8.62
359.635	8.56
359.845	8.76
360.054	8.66
360.263	8.8
360.472	8.76
360.682	8.66
360.891	8.67
361.1	8.66
361.309	8.69
361.519	8.68
361.728	8.78
361.937	8.99
362.146	8.72
362.355	8.8
362.564	8.48
362.774	8.47
362.983	8.36
363.192	8.36
363.401	8.33
363.61	8.73
363.819	8.69
364.028	8.47
364.237	8.56
364.446	8.33
364.655	8.2
364.864	8.49
365.073	8.37
365.282	8.37
365.491	8.51
365.7	8.46
365.909	8.31
366.118	8.46
366.327	7.96
366.536	7.93
366.745	7.91
366.954	7.95
367.162	8.17
367.371	8.26
367.58	8.16
367.789	8.11
367.998	7.87
368.207	7.88
368.415	8.06
368.624	8.26
368.833	8.29
369.042	8.34
369.25	8.21
369.459	8.36
369.668	8.37
369.877	8.28
370.085	8.11
370.294	8.08
370.503	8.16
370.711	8.38
370.92	8.58
371.129	8.33
371.337	8.21
371.546	8.21
371.754	8.26
371.963	8.41
372.171	8.43
372.38	8.12
372.589	8.17
372.797	8.24
373.006	8.11
373.214	8.24
373.423	8.23
373.631	7.84
373.84	8.2
374.048	8.34
374.256	8.26
374.465	8.36
374.673	8.25
374.882	8.1
375.09	8.34
375.298	8.38
375.507	8.32
375.715	8.3
375.923	8.01
376.132	8.03
376.34	8.31
376.548	8.03
376.757	7.96
376.965	7.87
377.173	7.66
377.381	7.73
377.59	7.74
377.798	7.51
378.006	7.31
378.214	7.3
378.423	7.3
378.631	7.16
378.839	6.91
379.047	6.68
379.255	6.78
379.463	6.6
379.671	6.61
379.879	6.79
380.088	6.71
380.296	6.65
380.504	6.92
380.712	6.89
380.92	6.83
381.128	6.89
381.336	6.81
381.544	6.87
381.752	7.02
381.96	6.78
382.168	6.89
382.376	6.92
382.584	6.76
382.791	6.81
382.999	6.73
383.207	6.66
383.415	6.68
383.623	6.79
383.831	6.88
384.039	7.29
384.247	7.21
384.454	7.01
384.662	7.15
384.87	7.16
385.078	7.11
385.285	7.1
385.493	6.96
385.701	7.01
385.909	7.02
386.116	6.89
386.324	6.87
386.532	6.85
386.739	6.75
386.947	6.96
387.155	6.98
387.362	6.93
387.57	6.96
387.778	6.89
387.985	6.79
388.193	6.96
388.4	7.17
388.608	7.15
388.816	7.3
389.023	7.39
389.231	7.27
389.438	7.15
389.646	7.15
389.853	7.17
390.061	7.14
390.268	6.98
390.475	6.98
390.683	7.07
390.89	6.92
391.098	6.77
391.305	6.71
391.512	6.81
391.72	6.7
391.927	6.64
392.135	6.61
392.342	6.7
392.549	6.65
392.756	6.64
392.964	6.67
393.171	6.66
393.378	6.67
393.586	6.69
393.793	6.7
394	6.72
394.207	6.55
394.414	6.47
394.622	6.51
394.829	6.47
395.036	6.48
395.243	6.6
395.45	6.44
395.657	6.38
395.864	6.38
396.072	6.29
396.279	6.32
396.486	6.21
396.693	6.22
396.9	6.35
397.107	6.49
397.314	6.5
397.521	6.47
397.728	6.22
397.935	6.04
398.142	6.21
398.349	6.31
398.556	6.45
398.763	6.4
398.97	6.34
399.177	6.47
399.383	6.43
399.59	6.43
399.797	6.42
400.004	6.63
400.211	6.7
400.418	6.65
400.625	6.71
400.831	6.61
401.038	6.63
401.245	6.56
401.452	6.53
401.658	6.56
401.865	6.53
402.072	6.54
402.279	6.51
402.485	6.38
402.692	6.11
402.899	6.22
403.105	6.15
403.312	6.14
403.519	6.09
403.725	6.01
403.932	5.95
404.138	5.97
404.345	6.03
404.552	6.08
404.758	6.03
404.965	6
405.171	6.03
405.378	6.04
405.584	5.96
405.791	6.02
405.997	6.05
406.204	6.08
406.41	6.17
406.617	6.06
406.823	6.07
407.029	5.97
407.236	5.9
407.442	5.87
407.649	5.91
407.855	5.95
408.061	6.07
408.268	6.05
408.474	6.03
408.68	6.05
408.887	6.15
409.093	6.11
409.299	6.25
409.505	6.14
409.712	6.12
409.918	6.06
410.124	6.14
410.33	5.98
410.537	5.92
410.743	5.78
410.949	5.7
411.155	5.76
411.361	5.71
411.567	5.52
411.773	5.38
411.98	5.36
412.186	5.42
412.392	5.42
412.598	5.37
412.804	5.37
413.01	5.51
413.216	5.72
413.422	5.84
413.628	5.84
413.834	5.8
414.04	5.71
414.246	5.94
414.452	6.04
414.658	6
414.864	6.06
415.07	6.21
415.275	6.27
415.481	6.24
415.687	6.06
415.893	5.81
416.099	5.76
416.305	5.83
416.511	5.85
416.716	5.9
416.922	5.74
417.128	5.79
417.334	5.77
417.539	5.68
417.745	5.6
417.951	5.62
418.157	5.59
418.362	5.65
418.568	5.71
418.774	5.63
418.979	5.52
419.185	5.44
419.391	5.48
419.596	5.52
419.802	5.56
420.008	5.67
420.213	5.65
420.419	5.67
420.624	5.64
420.83	5.59
421.035	5.61
421.241	5.57
421.446	5.61
421.652	5.6
421.857	5.6
422.063	5.54
422.268	5.53
422.474	5.44
422.679	5.37
422.885	5.42
423.09	5.37
423.295	5.37
423.501	5.38
423.706	5.32
423.911	5.34
424.117	5.27
424.322	5.34
424.527	5.38
424.733	5.3
424.938	5.22
425.143	5.21
425.349	5.16
425.554	5.11
425.759	5.15
425.964	5.15
426.169	5.21
426.375	5.26
426.58	5.2
426.785	5.29
426.99	5.25
427.195	5.23
427.4	5.38
427.605	5.47
427.811	5.52
428.016	5.46
428.221	5.47
428.426	5.39
428.631	5.35
428.836	5.3
429.041	5.2
429.246	5.21
429.451	5.2
429.656	5.16
429.861	5.24
430.066	5.17
430.271	5.13
430.476	5.12
430.681	5.18
430.886	5.26
431.09	5.31
431.295	5.23
431.5	5.21
431.705	5.32
431.91	5.45
432.115	5.51
432.32	5.6
432.524	5.57
432.729	5.58
432.934	5.53
433.139	5.54
433.343	5.48
433.548	5.34
433.753	5.33
433.958	5.36
434.162	5.43
434.367	5.5
434.572	5.45
434.776	5.41
434.981	5.27
435.186	5.23
435.39	5.22
435.595	5.35
435.799	5.32
436.004	5.32
436.209	5.48
436.413	5.53
436.618	5.55
436.822	5.44
437.027	5.37
437.231	5.3
437.436	5.28
437.64	5.44
437.845	5.52
438.049	5.53
438.253	5.53
438.458	5.5
438.662	5.55
438.867	5.49
439.071	5.36
439.275	5.37
439.48	5.46
439.684	5.43
439.888	5.51
440.093	5.5
440.297	5.43
440.501	5.37
440.706	5.48
440.91	5.46
441.114	5.58
441.318	5.55
441.523	5.6
441.727	5.7
441.931	5.68
442.135	5.61
442.339	5.68
442.543	5.61
442.748	5.62
442.952	5.57
443.156	5.57
443.36	5.43
443.564	5.4
443.768	5.23
443.972	5.27
444.176	5.27
444.38	5.27
444.584	5.24
444.788	5.3
444.992	5.25
445.196	5.28
445.4	5.2
445.604	5.19
445.808	5.18
446.012	5.15
446.216	5.17
446.42	5.22
446.624	5.12
446.828	5.1
447.032	5.07
447.235	5.13
447.439	5.07
447.643	5.06
447.847	5.01
448.051	5.12
448.254	5.12
448.458	5.07
448.662	5.07
448.866	5.01
449.069	5.01
449.273	5.1
449.477	4.94
449.681	4.95
449.884	4.9
450.088	4.85
450.292	4.88
450.495	4.8
450.699	4.79
450.902	4.8
451.106	4.75
451.31	4.85
451.513	4.86
451.717	4.93
451.92	4.92
452.124	5
452.327	4.94
452.531	5.03
452.734	5.07
452.938	5.08
453.141	5.13
453.345	5.1
453.548	5.08
453.752	5.19
453.955	5.05
454.158	5.03
454.362	4.93
454.565	4.91
454.769	4.94
454.972	4.93
455.175	4.84
455.379	4.78
455.582	4.76
455.785	4.8
455.988	4.85
456.192	4.79
456.395	4.81
456.598	4.87
456.801	4.94
457.005	4.89
457.208	4.82
457.411	4.78
457.614	4.82
457.817	4.83
458.021	4.84
458.224	4.82
458.427	4.81
458.63	4.73
458.833	4.78
459.036	4.82
459.239	4.84
459.442	4.83
459.645	4.9
459.848	5
460.051	5.06
460.254	5.03
460.457	5.08
460.66	5.22
460.863	5.22
461.066	5.24
461.269	5.32
461.472	5.31
461.675	5.2
461.878	5.2
462.081	5.13
462.284	5.05
462.486	5.03
462.689	4.98
462.892	5.02
463.095	5.01
463.298	4.88
463.5	4.91
463.703	4.91
463.906	4.86
464.109	4.83
464.311	4.95
464.514	5.04
464.717	5.14
464.92	5.13
465.122	5.07
465.325	5.12
465.528	5.1
465.73	5
465.933	4.96
466.135	4.95
466.338	4.98
466.541	4.93
466.743	4.97
466.946	4.87
467.148	4.75
467.351	4.68
467.553	4.74
467.756	4.8
467.958	4.73
468.161	4.8
468.363	4.9
468.566	4.87
468.768	4.86
468.971	4.79
469.173	4.83
469.375	4.88
469.578	4.96
469.78	5.08
469.983	5.05
470.185	5.08
470.387	5.1
470.59	5.2
470.792	5.18
470.994	5.09
471.196	5.15
471.399	5.18
471.601	5.29
471.803	5.3
472.005	5.32
472.208	5.24
472.41	5.18
472.612	5.24
472.814	5.2
473.016	5.18
473.218	5.23
473.421	5.32
473.623	5.4
473.825	5.43
474.027	5.41
474.229	5.36
474.431	5.44
474.633	5.49
474.835	5.58
475.037	5.64
475.239	5.69
475.441	5.71
475.643	5.72
475.845	5.65
476.047	5.59
476.249	5.57
476.451	5.64
476.653	5.72
476.855	5.72
477.057	5.65
477.258	5.59
477.46	5.61
477.662	5.55
477.864	5.53
478.066	5.52
478.268	5.56
478.469	5.53
478.671	5.5
478.873	5.49
479.075	5.36
479.276	5.33
479.478	5.3
479.68	5.37
479.882	5.38
480.083	5.33
480.285	5.33
480.487	5.27
480.688	5.3
480.89	5.22
481.091	5.25
481.293	5.2
481.495	5.16
481.696	5.16
481.898	5.13
482.099	5.12
482.301	5.09
482.502	5.08
482.704	5.11
482.905	5.1
483.107	5.09
483.308	5.05
483.51	5.06
483.711	5.05
483.913	5.06
484.114	5.13
484.315	5.14
484.517	5.18
484.718	5.18
484.92	5.21
485.121	5.22
485.322	5.21
485.524	5.21
485.725	5.25
485.926	5.28
486.127	5.28
486.329	5.28
486.53	5.28
486.731	5.26
486.932	5.28
487.134	5.26
487.335	5.28
487.536	5.3
487.737	5.31
487.938	5.29
488.139	5.32
488.341	5.31
488.542	5.31
488.743	5.34
488.944	5.38
489.145	5.4
489.346	5.42
489.547	5.41
489.748	5.43
489.949	5.48
490.15	5.48
490.351	5.47
490.552	5.48
490.753	5.48
490.954	5.5
491.155	5.52
491.356	5.54
491.557	5.52
491.758	5.51
491.959	5.47
492.159	5.52
492.36	5.54
492.561	5.56
492.762	5.58
492.963	5.63
493.164	5.66
493.364	5.68
493.565	5.69
493.766	5.7
493.967	5.62
494.167	5.64
494.368	5.73
494.569	5.76
494.769	5.74
494.97	5.73
495.171	5.65
495.371	5.65
495.572	5.65
495.773	5.65
495.973	5.65
496.174	5.66
496.375	5.71
496.575	5.79
496.776	5.81
496.976	5.83
497.177	5.88
497.377	5.93
497.578	5.91
497.778	5.98
497.979	6.03
498.179	6.03
498.38	6.11
498.58	6.19
498.78	6.27
498.981	6.3
499.181	6.33
499.382	6.36
499.582	6.37
499.782	6.33
499.983	6.33
500.183	6.4
500.383	6.34
500.584	6.37
500.784	6.43
500.984	6.38
501.184	6.44
501.385	6.41
501.585	6.47
501.785	6.47
501.985	6.58
502.185	6.61
502.386	6.62
502.586	6.62
502.786	6.6
502.986	6.76
503.186	6.72
503.386	6.68
503.586	6.83
503.786	6.83
503.987	6.86
504.187	6.82
504.387	6.86
504.587	6.85
504.787	6.88
504.987	6.99
505.187	6.99
505.387	7.03
505.587	7
505.786	7.03
505.986	7.11
506.186	7.06
506.386	7.07
506.586	7.09
506.786	7.13
506.986	7.17
507.186	7.13
507.386	7.16
507.585	7.09
507.785	7.17
507.985	7.25
508.185	7.28
508.384	7.32
508.584	7.38
508.784	7.34
508.984	7.41
509.183	7.44
509.383	7.43
509.583	7.5
509.782	7.58
509.982	7.61
510.182	7.68
510.381	7.68
510.581	7.68
510.781	7.74
510.98	7.8
511.18	7.82
511.379	7.9
511.579	7.97
511.778	8.07
511.978	8.1
512.177	8.15
512.377	8.14
512.576	8.19
512.776	8.2
512.975	8.31
513.175	8.35
513.374	8.44
513.573	8.47
513.773	8.53
513.972	8.52
514.172	8.49
514.371	8.56
514.57	8.68
514.77	8.68
514.969	8.76
515.168	8.84
515.367	8.85
515.567	8.88
515.766	8.92
515.965	8.92
516.164	8.92
516.364	8.92
516.563	9
516.762	9.02
516.961	9.03
517.16	9.04
517.359	9.05
517.559	9.04
517.758	9.05
517.957	9.15
518.156	9.19
518.355	9.24
518.554	9.23
518.753	9.31
518.952	9.4
519.151	9.42
519.35	9.46
519.549	9.5
519.748	9.61
519.947	9.66
520.146	9.75
520.345	9.84
520.544	9.9
520.743	9.89
520.942	9.89
521.141	10.06
521.339	9.97
521.538	9.93
521.737	10.01
521.936	10.05
522.135	10.07
522.333	9.97
522.532	10.06
522.731	10.08
522.93	10.07
523.129	10.05
523.327	10.11
523.526	10.17
523.725	10.2
523.923	10.31
524.122	10.34
524.321	10.34
524.519	10.42
524.718	10.42
524.917	10.44
525.115	10.41
525.314	10.4
525.512	10.44
525.711	10.45
525.909	10.43
526.108	10.45
526.306	10.44
526.505	10.45
526.703	10.47
526.902	10.45
527.1	10.44
527.299	10.46
527.497	10.51
527.696	10.55
527.894	10.59
528.092	10.62
528.291	10.65
528.489	10.72
528.688	10.73
528.886	10.76
529.084	10.8
529.283	10.9
529.481	10.99
529.679	11.06
529.877	11.11
530.076	11.15
530.274	11.19
530.472	11.24
530.67	11.23
530.869	11.31
531.067	11.34
531.265	11.4
531.463	11.45
531.661	11.52
531.859	11.51
532.057	11.55
532.255	11.58
532.454	11.62
532.652	11.64
532.85	11.65
533.048	11.7
533.246	11.78
533.444	11.78
533.642	11.79
533.84	11.82
534.038	11.83
534.236	11.84
534.434	11.76
534.632	11.74
534.83	11.7
535.027	11.76
535.225	11.83
535.423	11.86
535.621	11.91
535.819	11.92
536.017	11.97
536.215	11.99
536.412	12
536.61	11.99
536.808	12
537.006	12.14
537.203	12.24
537.401	12.36
537.599	12.35
537.797	12.36
537.994	12.35
538.192	12.35
538.39	12.36
538.587	12.38
538.785	12.43
538.983	12.46
539.18	12.48
539.378	12.5
539.575	12.49
539.773	12.51
539.97	12.46
540.168	12.49
540.366	12.53
540.563	12.62
540.761	12.62
540.958	12.72
541.155	12.73
541.353	12.8
541.55	12.84
541.748	12.92
541.945	12.96
542.143	13.02
542.34	13.06
542.537	13.2
542.735	13.22
542.932	13.23
543.129	13.23
543.327	13.33
543.524	13.29
543.721	13.39
543.919	13.41
544.116	13.48
544.313	13.47
544.51	13.55
544.708	13.66
544.905	13.7
545.102	13.68
545.299	13.78
545.496	13.84
545.693	13.86
545.891	13.91
546.088	13.92
546.285	13.91
546.482	13.88
546.679	13.88
546.876	14.01
547.073	14.05
547.27	14.02
547.467	14.11
547.664	14.21
547.861	14.25
548.058	14.28
548.255	14.36
548.452	14.43
548.649	14.49
548.846	14.53
549.043	14.66
549.24	14.74
549.437	14.65
549.633	14.71
549.83	14.77
550.027	14.8
550.224	14.76
550.421	14.77
550.618	14.84
550.814	14.87
551.011	14.88
551.208	14.96
551.405	15.09
551.601	15.11
551.798	15.12
551.995	15.32
552.191	15.3
552.388	15.35
552.585	15.35
552.781	15.41
552.978	15.42
553.175	15.53
553.371	15.52
553.568	15.64
553.764	15.61
553.961	15.52
554.157	15.54
554.354	15.62
554.55	15.59
554.747	15.63
554.943	15.71
555.14	15.77
555.336	15.84
555.533	15.95
555.729	15.99
555.926	16.2
556.122	16.14
556.318	16.27
556.515	16.36
556.711	16.49
556.907	16.61
557.104	16.65
557.3	16.74
557.496	16.81
557.693	16.9
557.889	17.02
558.085	17.1
558.281	17.08
558.478	16.99
558.674	17.09
558.87	17.16
559.066	17.22
559.262	17.24
559.459	17.24
559.655	17.35
559.851	17.42
560.047	17.4
560.243	17.47
560.439	17.51
560.635	17.56
560.831	17.7
561.027	17.84
561.223	17.86
561.419	17.98
561.615	18.05
561.811	18.11
562.007	18.25
562.203	18.26
562.399	18.32
562.595	18.41
562.791	18.49
562.987	18.58
563.183	18.64
563.379	18.77
563.575	18.75
563.771	18.91
563.966	18.89
564.162	18.96
564.358	19.1
564.554	19.05
564.75	19.09
564.945	19.19
565.141	19.22
565.337	19.29
565.533	19.38
565.728	19.48
565.924	19.49
566.12	19.65
566.315	19.75
566.511	19.98
566.707	20.04
566.902	20.09
567.098	20.22
567.293	20.32
567.489	20.3
567.684	20.43
567.88	20.48
568.076	20.55
568.271	20.64
568.467	20.6
568.662	20.62
568.858	20.61
569.053	20.51
569.248	20.59
569.444	20.6
569.639	20.61
569.835	20.75
570.03	20.8
570.225	20.83
570.421	20.86
570.616	20.87
570.812	20.85
571.007	21.02
571.202	21.07
571.397	21.2
571.593	21.31
571.788	21.34
571.983	21.43
572.178	21.56
572.374	21.59
572.569	21.75
572.764	21.79
572.959	21.87
573.154	21.94
573.35	22.07
573.545	22.14
573.74	22.23
573.935	22.25
574.13	22.32
574.325	22.43
574.52	22.61
574.715	22.62
574.91	22.75
575.105	22.79
575.3	22.91
575.495	22.96
575.69	23.01
575.885	23.13
576.08	23.16
576.275	23.23
576.47	23.29
576.665	23.36
576.86	23.49
577.055	23.44
577.25	23.56
577.444	23.5
577.639	23.48
577.834	23.52
578.029	23.57
578.224	23.7
578.418	23.76
578.613	23.85
578.808	23.85
579.003	23.87
579.197	23.98
579.392	23.94
579.587	24
579.781	24.04
579.976	24.11
580.171	24.23
580.365	24.35
580.56	24.44
580.755	24.41
580.949	24.39
581.144	24.43
581.338	24.65
581.533	24.69
581.727	24.65
581.922	24.76
582.116	24.76
582.311	24.9
582.505	24.97
582.7	25.13
582.894	25.12
583.089	25.12
583.283	25.21
583.478	25.26
583.672	25.31
583.866	25.35
584.061	25.52
584.255	25.65
584.449	25.74
584.644	25.79
584.838	25.78
585.032	25.8
585.226	25.75
585.421	25.83
585.615	25.92
585.809	26.03
586.003	26.18
586.198	26.25
586.392	26.25
586.586	26.14
586.78	26.12
586.974	26.09
587.168	26.22
587.363	26.21
587.557	26.28
587.751	26.3
587.945	26.36
588.139	26.42
588.333	26.38
588.527	26.28
588.721	26.19
588.915	26.18
589.109	26.24
589.303	26.2
589.497	26.31
589.691	26.32
589.885	26.34
590.079	26.32
590.273	26.39
590.466	26.33
590.66	26.37
590.854	26.42
591.048	26.46
591.242	26.64
591.436	26.67
591.629	26.74
591.823	26.83
592.017	26.77
592.211	26.71
592.404	26.76
592.598	26.93
592.792	26.93
592.986	26.93
593.179	26.97
593.373	27
593.567	27.11
593.76	27.12
593.954	27.16
594.147	27.22
594.341	27.28
594.535	27.38
594.728	27.51
594.922	27.59
595.115	27.49
595.309	27.66
595.502	27.9
595.696	27.94
595.889	27.96
596.083	27.97
596.276	28.01
596.47	28.03
596.663	28
596.856	28.01
597.05	28.06
597.243	28
597.437	27.93
597.63	28.08
597.823	28.05
598.017	27.88
598.21	27.95
598.403	28.08
598.596	28.09
598.79	28.2
598.983	28.24
599.176	28.4
599.369	28.47
599.563	28.44
599.756	28.7
599.949	28.8
600.142	28.82
600.335	28.82
600.528	28.91
600.722	28.87
600.915	28.85
601.108	28.91
601.301	28.9
601.494	28.97
601.687	29
601.88	29.02
602.073	28.96
602.266	28.92
602.459	28.96
602.652	28.92
602.845	28.96
603.038	28.94
603.231	28.94
603.424	28.96
603.617	29.02
603.809	28.97
604.002	29.05
604.195	29.03
604.388	29.02
604.581	29.18
604.774	29.15
604.966	29.08
605.159	29.19
605.352	29.17
605.545	29.3
605.737	29.3
605.93	29.39
606.123	29.32
606.316	29.34
606.508	29.31
606.701	29.35
606.894	29.43
607.086	29.47
607.279	29.53
607.471	29.57
607.664	29.64
607.857	29.56
608.049	29.58
608.242	29.76
608.434	29.69
608.627	29.69
608.819	29.78
609.012	29.76
609.204	29.72
609.397	29.67
609.589	29.69
609.782	29.73
609.974	29.87
610.166	29.82
610.359	29.97
610.551	29.92
610.743	29.75
610.936	29.8
611.128	29.78
611.32	29.63
611.513	29.7
611.705	29.83
611.897	30.14
612.09	30.06
612.282	29.94
612.474	30.11
612.666	30.12
612.858	30.13
613.051	30.14
613.243	30.31
613.435	30.37
613.627	30.59
613.819	30.84
614.011	30.86
614.203	30.82
614.395	30.6
614.588	30.65
614.78	30.79
614.972	30.63
615.164	30.7
615.356	30.75
615.548	30.87
615.74	30.74
615.932	30.72
616.124	30.66
616.315	30.55
616.507	30.65
616.699	30.54
616.891	30.55
617.083	30.67
617.275	30.66
617.467	30.62
617.659	30.61
617.85	30.59
618.042	30.59
618.234	30.6
618.426	30.54
618.618	30.51
618.809	30.53
619.001	30.49
619.193	30.56
619.384	30.56
619.576	30.44
619.768	30.34
619.959	30.32
620.151	30.37
620.343	30.36
620.534	30.37
620.726	30.51
620.917	30.7
621.109	30.76
621.301	30.86
621.492	30.8
621.684	30.86
621.875	30.83
622.067	31.07
622.258	31.19
622.45	31.25
622.641	31.39
622.832	31.56
623.024	31.65
623.215	31.7
623.407	31.53
623.598	31.5
623.789	31.57
623.981	31.64
624.172	31.64
624.363	31.87
624.555	31.84
624.746	31.71
624.937	31.61
625.129	31.58
625.32	31.47
625.511	31.44
625.702	31.4
625.893	31.52
626.085	31.56
626.276	31.51
626.467	31.61
626.658	31.75
626.849	31.62
627.04	31.57
627.231	31.57
627.422	31.83
627.614	31.76
627.805	31.78
627.996	31.66
628.187	31.75
628.378	31.73
628.569	31.88
628.76	31.87
628.951	31.59
629.142	31.6
629.332	31.61
629.523	31.64
629.714	31.84
629.905	31.56
630.096	31.47
630.287	31.41
630.478	31.46
630.669	31.47
630.859	31.54
631.05	31.36
631.241	31.27
631.432	31.58
631.623	31.58
631.813	31.43
632.004	31.41
632.195	31.35
632.385	31.4
632.576	31.46
632.767	31.55
632.957	31.54
633.148	31.6
633.339	31.54
633.529	31.47
633.72	31.68
633.91	31.57
634.101	31.48
634.292	31.55
634.482	31.65
634.673	31.59
634.863	31.68
635.054	31.75
635.244	31.7
635.435	31.84
635.625	31.69
635.815	31.7
636.006	31.89
636.196	31.93
636.387	31.99
636.577	32.02
636.767	32.2
636.958	32.14
637.148	32.25
637.338	32.21
637.529	32.2
637.719	32.19
637.909	32.14
638.099	32.3
638.29	32.37
638.48	32.44
638.67	32.36
638.86	32.35
639.05	32.45
639.241	32.44
639.431	32.3
639.621	32.48
639.811	32.61
640.001	32.58
640.191	32.59
640.381	32.62
640.571	32.45
640.761	32.43
640.951	32.46
641.141	32.4
641.331	32.49
641.521	32.32
641.711	32.29
641.901	32.47
642.091	32.34
642.281	32.39
642.471	32.5
642.661	32.54
642.851	32.68
643.041	32.91
643.231	32.91
643.42	32.72
643.61	32.83
643.8	32.82
643.99	32.93
644.18	33.02
644.369	33.11
644.559	33.21
644.749	33.04
644.939	32.96
645.128	32.97
645.318	32.98
645.508	32.94
645.697	32.89
645.887	33.12
646.076	33.26
646.266	33.34
646.456	33.52
646.645	33.5
646.835	33.36
647.024	33.42
647.214	33.64
647.403	33.8
647.593	33.93
647.782	33.81
647.972	33.72
648.161	33.68
648.351	33.58
648.54	33.43
648.73	33.43
648.919	33.26
649.108	33.16
649.298	33.35
649.487	33.36
649.677	33.17
649.866	32.98
650.055	32.93
650.244	33.05
650.434	33.11
650.623	33.27
650.812	33.39
651.002	33.39
651.191	33.43
651.38	33.35
651.569	33.45
651.758	33.22
651.947	33.25
652.137	33.36
652.326	33.34
652.515	33.6
652.704	33.57
652.893	33.59
653.082	33.48
653.271	33.51
653.46	33.37
653.649	33.21
653.838	33.31
654.027	33.3
654.216	33.54
654.405	33.57
654.594	33.58
654.783	33.62
654.972	33.55
655.161	33.37
655.35	33.25
655.539	33.34
655.728	33.55
655.916	33.74
656.105	33.87
656.294	33.73
656.483	33.92
656.672	33.83
656.86	33.67
657.049	33.7
657.238	33.83
657.427	33.83
657.615	33.94
657.804	33.96
657.993	33.93
658.181	33.61
658.37	33.47
658.559	33.44
658.747	33.39
658.936	33.18
659.125	33.13
659.313	33.21
659.502	33.23
659.69	33.38
659.879	33.24
660.067	33.13
660.256	33.24
660.444	33.23
660.633	33.42
660.821	33.48
661.01	33.33
661.198	33.49
661.387	33.52
661.575	33.54
661.763	33.23
661.952	33.22
662.14	32.88
662.328	32.83
662.517	33.06
662.705	33.23
662.893	33.39
663.082	33.24
663.27	33.46
663.458	33.51
663.646	33.74
663.834	33.99
664.023	34.11
664.211	34.33
664.399	34.37
664.587	34.55
664.775	34.69
664.963	34.61
665.152	34.66
665.34	34.42
665.528	34.44
665.716	34.38
665.904	34.47
666.092	34.42
666.28	34.34
666.468	34.4
666.656	34.56
666.844	34.41
667.032	34.48
667.22	34.61
667.408	34.53
667.596	34.19
667.784	34.36
667.971	34.45
668.159	34.26
668.347	34.33
668.535	34.16
668.723	34.1
668.911	34.05
669.098	33.94
669.286	34.15
669.474	34.07
669.662	33.86
669.849	33.9
670.037	34.1
670.225	33.95
670.413	34.03
670.6	34.12
670.788	33.96
670.976	34.12
671.163	34.11
671.351	33.95
671.538	33.91
671.726	33.8
671.913	33.83
672.101	33.91
672.289	33.99
672.476	33.94
672.664	34.21
672.851	33.94
673.039	34.15
673.226	34.37
673.413	34.42
673.601	34.3
673.788	34.45
673.976	34.64
674.163	34.47
674.35	34.56
674.538	34.46
674.725	34.42
674.912	34.36
675.1	33.97
675.287	34.09
675.474	33.99
675.662	33.92
675.849	33.89
676.036	34.05
676.223	33.87
676.411	33.89
676.598	34.14
676.785	33.9
676.972	34.04
677.159	34
677.346	33.99
677.533	34.09
677.721	34.1
677.908	34.21
678.095	34.31
678.282	34.12
678.469	34.12
678.656	34.25
678.843	34.29
679.03	34.19
679.217	34.35
679.404	34.21
679.591	34.31
679.778	34.24
679.964	34.46
680.151	34.54
680.338	34.47
680.525	34.44
680.712	34.59
680.899	34.59
681.086	34.57
681.272	34.38
681.459	34.69
681.646	34.67
681.833	34.77
682.02	34.83
682.206	34.91
682.393	34.71
682.58	34.79
682.766	34.6
682.953	34.67
683.14	34.91
683.326	34.96
683.513	35.01
683.7	35.15
683.886	34.8
684.073	34.86
684.259	34.82
684.446	34.81
684.632	34.75
684.819	34.82
685.005	34.52
685.192	34.66
685.378	34.48
685.565	34.18
685.751	34.28
685.938	34.44
686.124	34.49
686.31	34.69
686.497	34.67
686.683	34.63
686.87	34.6
687.056	34.75
687.242	34.74
687.429	35
687.615	35.05
687.801	35.22
687.987	35.28
688.174	35.34
688.36	35.27
688.546	35.28
688.732	35.04
688.918	35.03
689.105	35.2
689.291	35.16
689.477	35.34
689.663	35.5
689.849	35.37
690.035	35.54
690.221	35.36
690.407	35.14
690.593	35.23
690.779	35.4
690.965	35.24
691.151	35.34
691.337	35.38
691.523	35.45
691.709	35.5
691.895	35.48
692.081	35.48
692.267	35.53
692.453	35.2
692.639	35.25
692.825	35.49
693.011	35.34
693.196	34.95
693.382	34.82
693.568	34.83
693.754	34.5
693.94	34.72
694.125	34.59
694.311	34.5
694.497	34.41
694.682	34.68
694.868	34.98
695.054	34.85
695.239	34.75
695.425	34.68
695.611	34.85
695.796	34.95
695.982	35.11
696.168	35.13
696.353	34.98
696.539	35.13
696.724	34.85
696.91	34.76
697.095	34.36
697.281	34.17
697.466	34.53
697.652	34.67
697.837	34.55
698.023	34.63
698.208	34.74
698.393	34.72
698.579	34.79
698.764	34.72
698.949	34.63
699.135	34.85
699.32	34.82
699.505	34.89
699.691	34.98
699.876	34.64
700.061	34.6
700.246	34.81
700.432	34.56
700.617	34.25
700.802	34.04
700.987	34.56
701.172	34.66
701.358	34.78
701.543	34.64
701.728	34.75
701.913	35.28
702.098	35.3
702.283	35.43
702.468	35.28
702.653	35.24
702.838	35.04
703.023	35.13
703.208	35.18
703.393	34.76
703.578	34.52
703.763	34.2
703.948	34.33
704.133	34.37
704.318	33.93
704.503	33.68
704.688	33.77
704.873	33.62
705.057	33.37
705.242	33.55
705.427	33.51
705.612	33.33
705.797	33.23
705.981	33.2
706.166	33.69
706.351	33.64
706.536	33.73
706.72	33.68
706.905	33.96
707.09	33.96
707.274	33.99
707.459	34.3
707.644	34.4
707.828	34.47
708.013	34.63
708.197	34.78
708.382	34.76
708.567	34.34
708.751	34.08
708.936	33.57
709.12	33.71
709.305	33.23
709.489	33.16
709.673	33.62
709.858	33.44
710.042	33.53
710.227	33.67
710.411	33.66
710.596	33.45
710.78	33.82
710.964	34.3
711.149	34.33
711.333	34.65
711.517	34.78
711.702	35.06
711.886	35.11
712.07	34.43
712.254	34.43
712.438	34.37
712.623	34.21
712.807	34.19
712.991	34.28
713.175	34.14
713.359	33.7
713.544	33.93
713.728	33.91
713.912	34.05
714.096	34
714.28	33.69
714.464	33.99
714.648	33.81
714.832	33.7
715.016	33.92
715.2	33.61
715.384	33.53
715.568	33.36
715.752	33.46
715.936	33.49
716.12	33.8
716.304	33.66
716.488	33.64
716.671	34.06
716.855	34.29
717.039	34.33
717.223	34.34
717.407	34.09
717.59	34.51
717.774	34.43
717.958	34.18
718.142	33.93
718.325	33.91
718.509	33.64
718.693	33.84
718.877	34.08
719.06	33.79
719.244	33.7
719.428	33.89
719.611	33.86
719.795	33.59
719.978	33.47
720.162	33.43
720.345	33.63
720.529	33.92
720.713	33.47
720.896	33.27
721.08	33.11
721.263	33.09
721.446	33.06
721.63	33.03
721.813	32.91
721.997	33.32
722.18	33.74
722.364	33.64
722.547	33.86
722.73	33.67
722.914	33.29
723.097	33.94
723.28	34.28
723.464	33.98
723.647	34.02
723.83	34.17
724.013	33.87
724.197	33.95
724.38	33.89
724.563	34.01
724.746	34.36
724.929	34.28
725.112	34.46
725.296	34.64
725.479	34.32
725.662	33.89
725.845	33.94
726.028	33.8
726.211	33.49
726.394	33.8
726.577	34.06
726.76	33.94
726.943	34.04
727.126	34.17
727.309	34.29
727.492	34.38
727.675	34.27
727.858	34.63
728.041	34.89
728.224	34.89
728.407	34.84
728.589	34.91
728.772	34.83
728.955	34.49
729.138	34.34
729.321	34.2
729.503	33.72
729.686	33.58
729.869	33.61
730.052	33.86
730.234	33.59
730.417	33.14
730.6	32.86
730.782	33.07
730.965	33.49
731.148	33.53
731.33	33.79
731.513	33.7
731.695	33.5
731.878	34
732.061	33.78
732.243	33.98
732.426	33.97
732.608	33.59
732.791	34.07
732.973	34.49
733.156	34.56
733.338	34.35
733.52	34.33
733.703	34.2
733.885	34.62
734.068	34.54
734.25	34.11
734.432	34.5
734.615	34.19
734.797	33.95
734.979	34.11
735.162	33.93
735.344	33.73
735.526	33.65
735.708	33.32
735.891	32.88
736.073	32.85
736.255	32.46
736.437	32.77
736.619	32.91
736.802	32.85
736.984	32.76
737.166	32.94
737.348	32.98
737.53	33.12
737.712	32.97
737.894	33.08
738.076	32.83
738.258	33.49
738.44	33.87
738.622	33.9
738.804	33.58
738.986	33.02
739.168	33.37
739.35	33.51
739.532	33.67
739.714	33.91
739.896	33.68
740.078	33.91
740.259	33.51
740.441	34.37
740.623	33.92
740.805	33.77
740.987	33.52
741.168	33.74
741.35	34.45
741.532	34.09
741.714	33.67
741.895	33.61
742.077	33.86
742.259	34.42
742.44	33.98
742.622	33.87
742.804	33.35
742.985	33.16
743.167	32.66
743.348	32.98
743.53	32.44
743.711	32.87
743.893	32.75
744.075	33.42
744.256	33.26
744.438	32.76
744.619	32.32
744.8	32.22
744.982	31.95
745.163	32.02
745.345	32.61
745.526	33.23
745.707	33.58
745.889	34.13
746.07	33.51
746.252	33.81
746.433	32.49
746.614	32.86
746.795	32.85
746.977	33.06
747.158	33.36
747.339	33.93
747.52	33.77
747.702	33.29
747.883	33.19
748.064	32.92
748.245	32.67
748.426	32.77
748.607	32.48
748.788	33.7
748.97	32.88
749.151	33.2
749.332	33.22
749.513	33.66
749.694	33.38
749.875	33.41
750.056	33.28
750.237	33.51
750.418	33.35
750.599	33.61
750.78	33.84
750.96	34.47
751.141	34.07
751.322	34.68
751.503	34.27
751.684	34.04
751.865	33.73
752.046	33.82
752.226	34.27
752.407	34.96
752.588	34.44
752.769	34.66
752.949	35.39
753.13	34.6
753.311	33.89
753.492	33.49
753.672	33.61
753.853	34.08
754.034	33.93
754.214	33.38
754.395	33.43
754.575	32.93
754.756	32.76
754.937	33.17
755.117	33.21
755.298	33.02
755.478	32.64
755.659	32.46
755.839	33.15
756.02	32.78
756.2	32.49
756.381	32.89
756.561	33.22
756.741	33.56
756.922	34.02
757.102	33.72
757.283	33.37
757.463	33.25
757.643	32.8
757.823	33.27
758.004	33.96
758.184	33.61
758.364	33.6
758.545	33.5
758.725	33.42
758.905	33.32
759.085	32.27
759.265	31.89
759.446	31.81
759.626	32.09
759.806	31.84
759.986	31.69
760.166	31.94
760.346	31.58
760.526	31.46
760.706	31.45
760.886	31.43
761.066	31.64
761.246	32.08
761.426	32.53
761.606	32.58
761.786	32.33
761.966	31.88
762.146	31.78
762.326	32.21
762.506	31.99
762.686	32.03
762.866	32.06
763.046	32.27
763.225	32.24
763.405	32.05
763.585	32.12
763.765	32.62
763.945	32.44
764.124	32.68
764.304	33.1
764.484	33.31
764.664	33.11
764.843	33.03
765.023	32.9
765.203	32.91
765.382	32.78
765.562	32.62
765.741	32.42
765.921	31.92
766.101	31.48
766.28	31.74
766.46	31.95
766.639	31.94
766.819	32.13
766.998	31.83
767.178	32.93
767.357	33.43
767.537	33.49
767.716	33.37
767.896	33.9
768.075	33.63
768.254	34.21
768.434	34.09
768.613	34.09
768.792	33.38
768.972	32.72
769.151	32.09
769.33	32.44
769.51	31.48
769.689	30.63
769.868	31.44
770.047	31.38
770.226	31.41
770.406	31.85
770.585	31.36
770.764	31.69
770.943	31.93
771.122	32.61
771.301	33.16
771.48	33.75
771.66	33.67
771.839	33.88
772.018	34.87
772.197	33.87
772.376	33.88
772.555	33.47
772.734	32.44
772.913	33.1
773.092	33.15
773.271	33.14
773.449	33.19
773.628	32.88
773.807	32.7
773.986	32.89
774.165	32.55
774.344	31.4
774.523	31.93
774.701	32.37
774.88	32.28
775.059	33.49
775.238	32.48
775.417	32.53
775.595	31.83
775.774	32.09
775.953	32.39
776.131	31.62
776.31	31.26
776.489	31.38
776.667	31.29
776.846	30.37
777.025	30.41
777.203	30.92
777.382	31.08
777.56	30.81
777.739	30.62
777.917	31
778.096	30.73
778.274	30.64
778.453	31.6
778.631	31.17
778.81	31.31
778.988	31.71
779.166	33.25
779.345	33.01
779.523	32.52
779.702	32.47
779.88	33.08
780.058	32.89
780.237	33.02
780.415	33.02
780.593	32.79
780.771	33.27
780.95	34.16
781.128	34.24
781.306	34.58
781.484	33.96
781.662	33.87
781.841	33.91
782.019	33.46
782.197	33.25
782.375	32.63
782.553	32.94
782.731	32.69
782.909	33.13
783.087	33
783.265	33.47
783.443	33.68
783.621	33.77
783.799	34.11
783.977	33.27
784.155	33.84
784.333	34.09
784.511	33.74
784.689	34.74
784.867	33.76
785.045	34.2
785.223	34.24
785.4	33.77
785.578	33.73
785.756	34.22
785.934	33.53
786.112	32.22
786.289	32.64
786.467	32.29
786.645	31.87
786.823	32.51
787	31.89
787.178	32.38
787.356	32.2
787.533	31.71
787.711	31.35
787.889	30.58
788.066	29.11
788.244	29.71
788.421	30.07
788.599	30.67
788.776	30.69
788.954	31.4
789.131	31.45
789.309	31.94
789.486	32.31
789.664	32.67
789.841	32.44
790.019	32.89
790.196	32.78
790.373	33.97
790.551	33.85
790.728	34.86
790.906	34.3
791.083	34.37
791.26	34
791.437	34.04
791.615	33.6
791.792	33.65
791.969	33.32
792.146	34.74
792.324	35.58
792.501	36.12
792.678	35.23
792.855	35.35
793.032	34.59
793.209	35.25
793.387	34.78
793.564	34.78
793.741	33.82
793.918	34.72
794.095	35.1
794.272	35.02
794.449	34.7
794.626	34.07
794.803	34.93
794.98	35.55
795.157	36.24
795.334	36.4
795.511	36.48
795.688	36.34
795.864	36.21
796.041	36.66
796.218	36
796.395	35.92
796.572	35.28
796.749	34.84
796.925	35.09
797.102	33.33
797.279	32.72
797.456	32.05
797.632	32.24
797.809	32.11
797.986	32.54
798.162	32.67
798.339	32.98
798.516	33.23
798.692	32.74
798.869	33.29
799.046	33.26
799.222	32.75
799.399	33.17
799.575	34.16
799.752	34.07
799.928	33.5
800.105	34.28
800.281	34.22
800.458	34.13
800.634	34.61
800.811	34.73
800.987	35.18
801.163	34.92
801.34	34.37
801.516	34.58
801.692	34.18
801.869	33.52
802.045	33.74
802.221	34.36
802.398	34.42
802.574	35
802.75	35.12
802.926	34.43
803.103	34.23
803.279	33.6
803.455	34.37
803.631	34.72
803.807	33.99
803.983	33.97
804.16	33.97
804.336	33.28
804.512	33.44
804.688	32.02
804.864	31.66
805.04	31.47
805.216	31.85
805.392	31.64
805.568	31.8
805.744	32.01
805.92	31.45
806.096	32.3
806.272	33.53
806.448	32.81
806.623	33.01
806.799	32.37
806.975	33.83
807.151	34.39
807.327	34.34
807.503	33.8
807.678	34.81
807.854	33.59
808.03	33.49
808.206	33.78
808.381	33.64
808.557	33.19
808.733	33.18
808.908	33.68
809.084	33.65
809.26	32.57
809.435	31.86
809.611	31.82
809.787	32.73
809.962	31.26
810.138	32.2
810.313	32.09
810.489	32.48
810.664	31.97
810.84	31.81
811.015	34.26
811.191	34.75
811.366	35.29
811.542	35.06
811.717	35.96
811.892	36.62
812.068	36.46
812.243	38.18
812.419	38.47
812.594	38.76
812.769	39.08
812.944	38.77
813.12	38.25
813.295	36.48
813.47	35.83
813.645	36.14
813.821	37.48
813.996	37.22
814.171	37.67
814.346	37.22
814.521	36.58
814.697	35.9
814.872	34.23
815.047	34.78
815.222	34.86
815.397	34.98
815.572	35.15
815.747	34.69
815.922	34.56
816.097	32.95
816.272	31.89
816.447	31.54
816.622	31.47
816.797	31.66
816.972	31.92
817.147	32.37
817.322	30.91
817.496	32
817.671	31.98
817.846	32.26
818.021	31.19
818.196	31
818.371	31.59
818.545	32.57
818.72	32.72
818.895	32.82
819.069	32.07
819.244	31.37
819.419	31.33
819.594	31.85
819.768	31.13
819.943	31.47
820.117	31.68
820.292	32
820.467	31.69
820.641	31.44
820.816	31.13
820.99	31.26
821.165	31.24
821.339	31.55
821.514	31.97
821.688	31.9
821.863	31.54
822.037	31.78
822.212	31.85
822.386	31.57
822.56	31.74
822.735	31.74
822.909	31.81
823.084	31.85
823.258	31.69
823.432	31.44
823.606	31.34
823.781	31.3
823.955	31.06
824.129	31.46
824.303	31.57
824.478	31.19
824.652	30.97
824.826	30.81
825	30.79
825.174	30.52
825.348	30.44
825.523	30
825.697	30.35
825.871	30.3
826.045	30.14
826.219	30.56
826.393	30.13
826.567	29.73
826.741	29.54
826.915	30.11
827.089	30.23
827.263	30.49
827.437	30.37
827.611	30.59
827.784	30.9
827.958	30.6
828.132	30.68
828.306	30.65
828.48	30.97
828.654	31.05
828.827	30.67
829.001	31.3
829.175	31.07
829.349	30.63
829.522	29.97
829.696	30.84
829.87	30.95
830.044	31.27
830.217	31.88
830.391	30.96
830.565	29.85
830.738	30.02
830.912	30.07
831.085	30.46
831.259	30.11
831.432	31.14
831.606	31.84
831.779	32.49
831.953	32.22
832.126	31.9
832.3	31.67
832.473	32.03
832.647	32.67
832.82	33.94
832.994	33.05
833.167	33.57
833.34	34.11
833.514	34.1
833.687	33.88
833.86	33.52
834.034	33.34
834.207	33.5
834.38	33.31
834.553	33.93
834.727	33.34
834.9	33.25
835.073	32.89
835.246	33.23
835.419	32.88
835.593	32.37
835.766	32.52
835.939	31.68
836.112	32.34
836.285	32.93
836.458	32.83
836.631	33.79
836.804	33.07
836.977	33.69
837.15	33.73
837.323	33.13
837.496	32.31
837.669	32.54
837.842	32.88
838.015	33
838.188	32.94
838.361	34
838.533	33.25
838.706	33.33
838.879	32.06
839.052	32.84
839.225	32.96
839.398	33.1
839.57	34.32
839.743	35.76
839.916	35.92
840.088	34.13
840.261	34.67
840.434	35.59
840.607	33.58
840.779	33.77
840.952	33.34
841.124	34.56
841.297	34.1
841.47	34.35
841.642	33.86
841.815	33.74
841.987	33.64
842.16	34.51
842.332	36.5
842.505	36.35
842.677	38.66
842.85	39.99
843.022	39.66
843.194	41.24
843.367	41.27
843.539	40.78
843.712	41.46
843.884	42.71
844.056	43.02
844.229	43.8
844.401	42.29
844.573	42.6
844.745	41.52
844.918	35.41
845.09	37.28
845.262	40.08
845.434	37
845.606	37.39
845.779	37.66
845.951	40.49
846.123	39.26
846.295	39.74
846.467	37.43
846.639	38.37
846.811	36.94
846.983	39.81
847.155	43
847.327	41.17
847.499	38.19
847.671	39.13
847.843	37.59
848.015	37.06
848.187	35.2
848.359	35.79
848.531	34.15
848.703	29.97
848.875	26.24
849.047	28.65
849.218	27.85
849.39	26.9
849.562	23.29
849.734	24.93
849.905	26.55
850.077	27.71
850.249	27.82
850.421	27.81
850.592	26.12
850.764	26.43
850.936	32.52
851.107	33.1
851.279	35.1
851.451	32.5
851.622	33.03
851.794	37.12
851.965	35.18
852.137	35.17
852.308	35.07
852.48	33.93
852.651	31.8
852.823	32.66
852.994	32.45
853.166	32.47
853.337	35.7
853.509	31.17
853.68	29.94
853.851	29.54
854.023	26.74
854.194	28.17
854.365	26.71
854.537	25.59
854.708	25.96
854.879	26.32
855.05	27.4
855.222	27.77
855.393	27.7
855.564	32.32
855.735	34.41
855.906	36.92
856.078	38.02
856.249	36.05
856.42	39.93
856.591	42.44
856.762	43.99
856.933	46.28
857.104	46.12
857.275	44.08
857.446	48.29
857.617	47.89
857.788	41.22
857.959	39.49
858.13	43.72
858.301	45.38
858.472	49.26
858.643	45.15
858.814	43.61
858.985	42.48
859.155	43.82
859.326	41.28
859.497	44.51
859.668	40.16
859.839	36.24
860.009	41.1
860.18	42.22
860.351	37.43
860.522	34.59
860.692	34.49
860.863	34.31
861.034	30.46
861.204	28.12
861.375	26.43
861.546	26.94
861.716	25.7
861.887	26.92
862.057	29.3
862.228	25.41
862.398	25.31
862.569	30.17
862.739	24.95
862.91	23.77
863.08	25.22
863.251	29.01
863.421	30.31
863.592	32.09
863.762	34.96
863.932	37.85
864.103	39.12
864.273	40.59
864.443	43.33
864.614	43.55
864.784	38.54
864.954	46.08
865.125	46.88
865.295	45.97
865.465	47.51
865.635	51.09
865.805	50.42
865.976	54.08
866.146	49.8
866.316	51.13
866.486	49.2
866.656	46.61
866.826	48.15
866.996	50.2
867.166	48.69
867.336	47.09
867.506	48.07
867.676	44.68
867.846	41.94
868.016	39.6
868.186	33.71
868.356	35.77
868.526	33.83
868.696	36.73
868.866	38.63
869.036	37.84
869.206	35.77
869.376	33.88
869.545	33.97
869.715	33.15
869.885	32.54
870.055	34.25
870.224	36.41
870.394	39.5
870.564	35.64
870.734	34.82
870.903	31.56
871.073	35.69
871.243	36.14
871.412	35.87
871.582	39.15
871.751	36.81
871.921	36.66
872.091	39.95
872.26	35.54
872.43	35.26
872.599	36.96
872.769	39.74
872.938	45.76
873.108	46.27
873.277	44.35
873.446	43.22
873.616	45.16
873.785	44.73
873.955	47.09
874.124	46.93
874.293	46.99
874.463	50.62
874.632	53.23
874.801	50.42
874.971	53.99
875.14	44.24
875.309	47.69
875.478	46.81
875.647	46.82
875.817	45.12
875.986	45.77
876.155	43.58
876.324	41.11
876.493	42.49
876.662	43.45
876.831	39.39
877	38.95
877.17	33.16
877.339	33.36
877.508	35.04
877.677	33.77
877.846	37.59
878.015	35.09
878.184	36.8
878.352	40.09
878.521	42.84
878.69	43.43
878.859	43.22
879.028	42.21
879.197	41.78
879.366	40.31
879.534	40.14
879.703	39.8
879.872	40.42
880.041	39.51
880.21	39.58
880.378	38.75
880.547	38.02
880.716	37.55
880.884	37.69
881.053	36.92
881.222	37.13
881.39	36.86
881.559	37.16
881.727	36.79
881.896	35.96
882.065	35.57
882.233	34.9
882.402	34.48
882.57	34.01
882.739	34.13
882.907	33.59
883.076	32.57
883.244	32.76
883.412	32.8
883.581	32.7
883.749	32.8
883.918	32.65
884.086	32.64
884.254	32.88
884.423	32.54
884.591	33.16
884.759	34.14
884.927	34.42
885.096	35.18
885.264	36.61
885.432	36.82
885.6	36.3
885.769	36.54
885.937	36.7
886.105	38.43
886.273	38.29
886.441	38.68
886.609	38.49
886.777	39.69
886.945	37.87
887.113	37.99
887.281	37.73
887.449	35.21
887.617	32.23
887.785	35.23
887.953	34.64
888.121	33.59
888.289	34.44
888.457	33.35
888.625	31.38
888.793	34.62
888.961	34.23
889.129	32.74
889.296	30.23
889.464	30.24
889.632	30.93
889.8	34.91
889.967	31.3
890.135	33.27
