Data from 2938523_Reflection_3.txt Node
Date: Tue Jun 16 22:10:13 EDT 2015
User: robert
Spectrometer: USB4E03002
Autoset integration time: false
Trigger mode: 4
Integration Time (sec): 1.000000E-1
Scans to average: 10
Electric dark correction enabled: true
Nonlinearity correction enabled: false
Boxcar width: 5
Stray light correction enabled: false
XAxis mode: Wavelengths
Stop averaging: false
Number of Pixels in Spectrum: 3648
>>>>>Begin Spectral Data<<<<<
177.575	-169.03
177.794	-98.18
178.014	-35.99
178.233	23.67
178.452	38.41
178.672	26.23
178.891	98.37
179.11	1844.63
179.33	4203.95
179.549	760.81
179.768	367.29
179.987	600.61
180.207	588.14
180.426	230.39
180.645	157.74
180.864	178.32
181.084	188.89
181.303	177.13
181.522	127.09
181.741	112.62
181.96	118.13
182.179	112.22
182.398	104.8
182.618	81.23
182.837	64.61
183.056	55.82
183.275	56.52
183.494	51.96
183.713	38.54
183.932	34.86
184.151	40.63
184.37	35.32
184.589	55.02
184.808	46.9
185.027	61.21
185.246	92.95
185.465	103.93
185.684	80.4
185.903	87.39
186.122	97.65
186.341	112.89
186.56	146.91
186.779	244.01
186.998	223.42
187.216	222.85
187.435	374.19
187.654	433.65
187.873	491.37
188.092	694.49
188.311	-605.01
188.53	-385.56
188.748	-418.01
188.967	-8076.04
189.186	300.36
189.405	130.18
189.623	94.57
189.842	83.59
190.061	44.55
190.28	53.53
190.498	40.65
190.717	64.09
190.936	54.16
191.154	50.67
191.373	56.24
191.592	57.91
191.81	55.44
192.029	66
192.248	69.64
192.466	95
192.685	85.93
192.904	123.08
193.122	121.39
193.341	135.46
193.559	123.05
193.778	137.87
193.996	196.28
194.215	219.13
194.433	211.53
194.652	198.54
194.87	176.96
195.089	168.75
195.307	146.62
195.526	156.38
195.744	143.13
195.963	175.58
196.181	151.55
196.399	123.63
196.618	111.35
196.836	99.4
197.055	102.42
197.273	109.04
197.491	113.27
197.71	117.18
197.928	88.41
198.146	101.52
198.365	92.87
198.583	92.18
198.801	95.78
199.019	93.5
199.238	113.69
199.456	115.27
199.674	112.38
199.892	111.74
200.111	120.24
200.329	128.07
200.547	94.11
200.765	81.86
200.983	84.01
201.202	80.28
201.42	91.47
201.638	81.77
201.856	82.25
202.074	79.96
202.292	57.61
202.51	55.7
202.728	59.65
202.946	86.49
203.165	86.44
203.383	83.26
203.601	121.28
203.819	91.41
204.037	75.03
204.255	63.79
204.473	52.2
204.691	75.84
204.909	66.98
205.127	59.76
205.345	56.65
205.562	44.08
205.78	55.72
205.998	41.31
206.216	42.2
206.434	50.79
206.652	60.17
206.87	60.46
207.088	68.17
207.306	77.66
207.523	80.03
207.741	82.46
207.959	99.37
208.177	84.42
208.395	82.79
208.612	89.86
208.83	89.25
209.048	87.94
209.266	81.21
209.483	66.33
209.701	56.89
209.919	58.05
210.136	61.6
210.354	59.67
210.572	82.22
210.79	86.14
211.007	83.1
211.225	73.47
211.442	59.25
211.66	69.66
211.878	78.55
212.095	94.2
212.313	92.66
212.53	94.22
212.748	91.69
212.966	70.09
213.183	58.09
213.401	63.2
213.618	77.84
213.836	95.75
214.053	70.9
214.271	68.25
214.488	59.04
214.705	58.58
214.923	64.66
215.14	42.17
215.358	51.35
215.575	49.68
215.793	38.49
216.01	30.04
216.227	35.12
216.445	38.46
216.662	45.15
216.879	46.57
217.097	46.46
217.314	42.5
217.531	54.07
217.749	46.32
217.966	49.31
218.183	47.97
218.4	42.71
218.618	43.85
218.835	51.45
219.052	47.56
219.269	51.76
219.487	58.35
219.704	55.94
219.921	50.97
220.138	47.75
220.355	48.39
220.572	54.33
220.79	58.79
221.007	56.52
221.224	57.82
221.441	56.44
221.658	54.45
221.875	54.55
222.092	48.64
222.309	45.88
222.526	46.54
222.743	46.83
222.96	42.18
223.177	45.56
223.394	40.63
223.611	36.43
223.828	37.8
224.045	37.22
224.262	36.56
224.479	32.02
224.696	31.92
224.913	30.52
225.13	28.81
225.347	26.31
225.564	22.35
225.781	18.63
225.997	18.07
226.214	15.51
226.431	12.71
226.648	10.88
226.865	12.78
227.082	11.83
227.298	11.3
227.515	10.59
227.732	11.66
227.949	11.1
228.165	12.47
228.382	12.61
228.599	13.74
228.816	14.36
229.032	14.16
229.249	12.89
229.466	12.62
229.682	14.51
229.899	14.73
230.116	13.05
230.332	14.8
230.549	14.12
230.765	12.83
230.982	14.54
231.199	13.98
231.415	16.53
231.632	17.09
231.848	17.21
232.065	14.86
232.281	16.19
232.498	18.63
232.714	17.99
232.931	18.68
233.147	19.58
233.364	18.38
233.58	19.32
233.797	17.49
234.013	17.18
234.23	20
234.446	18.84
234.662	18.91
234.879	18.38
235.095	17.42
235.312	17.14
235.528	19.02
235.744	16.54
235.961	15.16
236.177	15.31
236.393	17.51
236.61	14.85
236.826	17.77
237.042	18.4
237.258	18.36
237.475	18.6
237.691	18.21
237.907	17.56
238.123	19.02
238.339	20.26
238.556	19.16
238.772	19.41
238.988	19.59
239.204	17.56
239.42	16.22
239.636	15.38
239.853	14.3
240.069	13.67
240.285	12.23
240.501	10.68
240.717	10.46
240.933	10.39
241.149	9.6
241.365	9.41
241.581	9.57
241.797	9.01
242.013	8.69
242.229	9.12
242.445	9.69
242.661	9.52
242.877	10.53
243.093	10.11
243.309	10.43
243.525	9.67
243.741	9.18
243.957	9.66
244.173	9.83
244.388	10.18
244.604	9.41
244.82	8.78
245.036	8.83
245.252	8.72
245.468	8.74
245.683	8.57
245.899	8.69
246.115	8.87
246.331	8.05
246.547	8.12
246.762	8.34
246.978	8.93
247.194	9.29
247.409	9.58
247.625	9.86
247.841	9.75
248.057	10.23
248.272	10.39
248.488	10.17
248.703	10.93
248.919	10.84
249.135	9.91
249.35	9.25
249.566	8.42
249.782	8.83
249.997	8.27
250.213	7.78
250.428	7.26
250.644	7.15
250.859	7.73
251.075	7.95
251.29	7.84
251.506	8.56
251.721	8.94
251.937	9.63
252.152	9.45
252.368	9.63
252.583	9.87
252.798	10.32
253.014	11.6
253.229	10.53
253.445	11.31
253.66	11.46
253.875	10.86
254.091	10.92
254.306	9.92
254.521	9.14
254.737	8.72
254.952	8.2
255.167	7.87
255.383	6.78
255.598	7.19
255.813	5.94
256.028	6.63
256.244	6.83
256.459	6.45
256.674	6.76
256.889	7.15
257.104	7.06
257.32	7.43
257.535	7.16
257.75	7.34
257.965	7.06
258.18	7.34
258.395	7.27
258.61	7.02
258.826	6.99
259.041	7.08
259.256	6.94
259.471	6.93
259.686	7.18
259.901	7.31
260.116	7.01
260.331	7.14
260.546	7.01
260.761	6.98
260.976	6.76
261.191	6.72
261.406	7.1
261.621	7.26
261.836	7
262.05	6.58
262.265	6.7
262.48	7.5
262.695	7.67
262.91	7.74
263.125	7.97
263.34	7.96
263.555	7.89
263.769	7.73
263.984	7.94
264.199	8.6
264.414	8.76
264.629	8.77
264.843	8.32
265.058	8.43
265.273	8.55
265.488	8.11
265.702	8.73
265.917	9.19
266.132	8.57
266.346	8.49
266.561	8.45
266.776	8.31
266.99	8.02
267.205	8.05
267.42	7.64
267.634	7.71
267.849	7.91
268.063	7.49
268.278	7.04
268.492	7.18
268.707	7.33
268.922	7.28
269.136	7.03
269.351	6.99
269.565	6.63
269.78	6.95
269.994	6.63
270.209	6.7
270.423	6.95
270.637	7.06
270.852	6.6
271.066	6.39
271.281	6.25
271.495	6.33
271.709	6.61
271.924	6.54
272.138	6.61
272.353	7.01
272.567	6.92
272.781	6.77
272.996	7.31
273.21	7.69
273.424	7.83
273.638	8.04
273.853	8.34
274.067	8.14
274.281	8.56
274.495	8.66
274.71	8.7
274.924	8.55
275.138	7.84
275.352	6.88
275.566	7.05
275.781	6.92
275.995	6.78
276.209	6.75
276.423	6.96
276.637	7.27
276.851	6.3
277.065	5.74
277.279	5.51
277.493	6.24
277.707	6.54
277.921	6.59
278.135	6.64
278.349	6.85
278.563	6.84
278.777	6.76
278.991	6.33
279.205	6.71
279.419	6.69
279.633	7.47
279.847	7.25
280.061	7.39
280.275	7.52
280.489	7.5
280.703	6.99
280.917	7.1
281.131	6.79
281.344	7.26
281.558	7.43
281.772	7.62
281.986	7.18
282.2	7.16
282.414	6.65
282.627	6.31
282.841	6.16
283.055	6.67
283.269	6.67
283.482	6.57
283.696	6.17
283.91	6.39
284.123	6
284.337	5.88
284.551	5.83
284.764	6.21
284.978	6.77
285.192	6.99
285.405	6.88
285.619	6.7
285.833	7.36
286.046	7.35
286.26	7.11
286.473	7.76
286.687	7.97
286.9	8.1
287.114	7.77
287.327	7.66
287.541	7.28
287.754	7.22
287.968	7.33
288.181	6.84
288.395	6.69
288.608	7.01
288.822	6.53
289.035	6.42
289.248	6.12
289.462	6.61
289.675	6.46
289.889	6.99
290.102	6.75
290.315	6.69
290.529	6.58
290.742	6.84
290.955	6.77
291.169	7.21
291.382	7.66
291.595	8.29
291.808	8.09
292.022	7.99
292.235	7.7
292.448	8.3
292.661	8.09
292.875	8.45
293.088	8.66
293.301	8.38
293.514	8.24
293.727	7.91
293.94	7.83
294.153	7.5
294.367	7.48
294.58	7.03
294.793	6.8
295.006	6.94
295.219	6.87
295.432	6.9
295.645	7.03
295.858	6.96
296.071	6.92
296.284	7.13
296.497	7.49
296.71	7.51
296.923	7.87
297.136	7.97
297.349	8.15
297.562	8.44
297.775	8.44
297.988	8.67
298.201	8.85
298.414	9.11
298.626	8.81
298.839	8.98
299.052	8.75
299.265	9.19
299.478	9.39
299.691	9.46
299.903	9.59
300.116	9.26
300.329	9.11
300.542	9.24
300.755	9
300.967	9.16
301.18	8.96
301.393	9.49
301.605	8.73
301.818	8.88
302.031	8.83
302.243	8.54
302.456	8.92
302.669	8.82
302.881	9.08
303.094	9.49
303.307	9.44
303.519	9.24
303.732	9.84
303.944	10.35
304.157	9.94
304.37	10.12
304.582	10.02
304.795	9.79
305.007	10.22
305.22	9.99
305.432	10.26
305.645	10.37
305.857	10.83
306.069	10.67
306.282	10.65
306.494	10.77
306.707	10.68
306.919	10.78
307.132	11.05
307.344	10.8
307.556	11.1
307.769	10.93
307.981	10.65
308.193	10.63
308.406	9.87
308.618	10.03
308.83	9.96
309.043	9.86
309.255	9.91
309.467	9.95
309.679	10.21
309.892	9.88
310.104	9.97
310.316	10.62
310.528	10.48
310.74	11
310.953	10.76
311.165	10.63
311.377	10.83
311.589	10.63
311.801	10.25
312.013	10.3
312.225	10.82
312.437	10.47
312.649	10.17
312.862	10.24
313.074	10.02
313.286	10.17
313.498	10.52
313.71	10.48
313.922	10.71
314.134	10.88
314.346	10.63
314.558	10.13
314.77	10.66
314.982	10.8
315.193	10.85
315.405	11.12
315.617	11.37
315.829	11.32
316.041	11.03
316.253	11.28
316.465	11.72
316.677	11.67
316.888	11.82
317.1	11.43
317.312	11.26
317.524	11.3
317.736	11.32
317.947	11.87
318.159	11.73
318.371	11.87
318.583	11.58
318.794	11.82
319.006	12.46
319.218	12.47
319.43	12.74
319.641	12.58
319.853	12.58
320.064	12.82
320.276	12.2
320.488	12.46
320.699	12.64
320.911	13
321.123	12.55
321.334	12.65
321.546	13.09
321.757	13
321.969	13.54
322.18	13.86
322.392	13.6
322.603	13.92
322.815	14.01
323.026	14
323.238	14.06
323.449	14.44
323.661	13.96
323.872	13.9
324.083	14.14
324.295	13.8
324.506	13.52
324.718	13.99
324.929	14.06
325.14	14.22
325.352	14.87
325.563	14.94
325.774	15.13
325.986	15.43
326.197	15.85
326.408	15.91
326.62	16.28
326.831	16.49
327.042	16.43
327.253	16.75
327.464	16.99
327.676	16.69
327.887	16.84
328.098	16.92
328.309	17.16
328.52	17.3
328.732	17.52
328.943	18
329.154	18.93
329.365	19.21
329.576	18.94
329.787	19.17
329.998	19.18
330.209	19.2
330.42	19.56
330.631	19.53
330.842	19.34
331.053	19.41
331.264	19.35
331.475	19.03
331.686	19.31
331.897	19.33
332.108	19.56
332.319	20.02
332.53	20.18
332.741	20.36
332.952	20.6
333.163	20.65
333.374	20.86
333.585	20.66
333.795	20.62
334.006	20.55
334.217	20.79
334.428	20.8
334.639	20.92
334.849	20.84
335.06	20.67
335.271	20.69
335.482	20.75
335.692	20.59
335.903	20.91
336.114	21.2
336.325	21.06
336.535	21.42
336.746	21.62
336.957	21.66
337.167	22.13
337.378	22.28
337.589	22.38
337.799	22.08
338.01	22.38
338.22	22.33
338.431	22.67
338.642	22.75
338.852	22.39
339.063	22.07
339.273	21.84
339.484	21.61
339.694	21.33
339.905	21
340.115	21.3
340.326	21.03
340.536	20.91
340.746	20.26
340.957	20.31
341.167	20.77
341.378	20.61
341.588	20.32
341.799	20.23
342.009	20.23
342.219	20.52
342.43	20.69
342.64	20.99
342.85	20.69
343.061	20.82
343.271	20.76
343.481	20.27
343.691	20.34
343.902	20.79
344.112	20.93
344.322	20.83
344.532	20.72
344.743	20.27
344.953	19.93
345.163	20.36
345.373	20.32
345.583	20.25
345.793	20.23
346.004	20.63
346.214	20.28
346.424	20.31
346.634	20.48
346.844	20.71
347.054	20.8
347.264	21.19
347.474	20.97
347.684	20.98
347.894	20.78
348.104	20.9
348.314	20.54
348.524	20.53
348.734	20.31
348.944	20.46
349.154	20.17
349.364	20.24
349.574	19.75
349.784	19.6
349.994	19.49
350.204	19.29
350.413	19.38
350.623	19.59
350.833	19.71
351.043	19.74
351.253	19.69
351.463	19.64
351.672	19.89
351.882	20.04
352.092	20.16
352.302	20.07
352.511	20.52
352.721	20.39
352.931	20.38
353.141	20.28
353.35	20.58
353.56	20.33
353.77	20.4
353.979	20.52
354.189	20.5
354.399	20.45
354.608	20.69
354.818	20.84
355.027	20.91
355.237	20.7
355.447	20.71
355.656	20.73
355.866	20.6
356.075	20.49
356.285	20.12
356.494	20.25
356.704	20.4
356.913	20.42
357.123	19.99
357.332	19.94
357.542	19.99
357.751	20.02
357.96	19.73
358.17	19.93
358.379	19.87
358.589	20.2
358.798	19.92
359.007	19.69
359.217	19.6
359.426	19.59
359.635	19.68
359.845	19.53
360.054	19.4
360.263	19.42
360.472	19.34
360.682	19.23
360.891	18.93
361.1	18.99
361.309	18.89
361.519	18.75
361.728	18.86
361.937	18.75
362.146	18.85
362.355	18.95
362.564	18.84
362.774	18.65
362.983	18.77
363.192	18.85
363.401	18.95
363.61	19.26
363.819	19.33
364.028	19.34
364.237	19.1
364.446	18.92
364.655	18.87
364.864	18.95
365.073	18.99
365.282	18.99
365.491	18.81
365.7	18.66
365.909	18.38
366.118	18.22
366.327	18.12
366.536	18.06
366.745	18.13
366.954	18.12
367.162	18.26
367.371	18.62
367.58	18.67
367.789	18.49
367.998	18.47
368.207	18.56
368.415	18.37
368.624	18.23
368.833	18.18
369.042	18.15
369.25	18.38
369.459	18.02
369.668	17.8
369.877	17.68
370.085	17.83
370.294	17.84
370.503	17.7
370.711	18.02
370.92	17.59
371.129	17.84
371.337	17.57
371.546	17.02
371.754	17.07
371.963	16.83
372.171	16.73
372.38	16.78
372.589	16.74
372.797	16.61
373.006	16.22
373.214	16.93
373.423	16.71
373.631	16.82
373.84	16.86
374.048	16.92
374.256	16.9
374.465	16.87
374.673	16.95
374.882	16.94
375.09	17.04
375.298	17.26
375.507	16.95
375.715	16.95
375.923	17.12
376.132	17.11
376.34	16.83
376.548	16.66
376.757	16.46
376.965	16.23
377.173	16.01
377.381	16.02
377.59	15.89
377.798	15.75
378.006	15.88
378.214	15.53
378.423	15.52
378.631	15.56
378.839	15.86
379.047	15.89
379.255	15.71
379.463	15.61
379.671	15.18
379.879	15.25
380.088	15.31
380.296	15.07
380.504	15.15
380.712	15.15
380.92	15.09
381.128	14.95
381.336	14.89
381.544	14.7
381.752	14.58
381.96	14.72
382.168	14.56
382.376	14.47
382.584	14.53
382.791	14.29
382.999	14.26
383.207	14.2
383.415	14.06
383.623	14.04
383.831	14.29
384.039	14.39
384.247	14.29
384.454	14.26
384.662	14.08
384.87	13.68
385.078	13.91
385.285	13.58
385.493	13.45
385.701	13.36
385.909	13.18
386.116	13.07
386.324	12.8
386.532	13.11
386.739	13.03
386.947	13.14
387.155	13.38
387.362	13.08
387.57	13.06
387.778	13.12
387.985	13.12
388.193	13.3
388.4	13.1
388.608	13.43
388.816	13.12
389.023	13.09
389.231	12.92
389.438	12.85
389.646	12.92
389.853	13.25
390.061	13.06
390.268	13.04
390.475	13.02
390.683	13.2
390.89	13.07
391.098	13.13
391.305	13.18
391.512	13.23
391.72	13.05
391.927	12.87
392.135	12.48
392.342	12.43
392.549	12.28
392.756	12.11
392.964	11.87
393.171	11.87
393.378	11.83
393.586	11.68
393.793	11.47
394	11.51
394.207	11.62
394.414	11.71
394.622	11.78
394.829	11.84
395.036	11.89
395.243	11.97
395.45	11.73
395.657	11.56
395.864	11.47
396.072	11.71
396.279	11.65
396.486	11.61
396.693	11.39
396.9	11.35
397.107	11.17
397.314	11.17
397.521	11.11
397.728	11.25
397.935	11.37
398.142	11.45
398.349	11.19
398.556	11.17
398.763	11.15
398.97	11.24
399.177	11.12
399.383	11.11
399.59	10.83
399.797	10.83
400.004	10.57
400.211	10.45
400.418	10.28
400.625	10.29
400.831	10.37
401.038	10.21
401.245	10.2
401.452	10.22
401.658	10.3
401.865	10.4
402.072	10.33
402.279	10.48
402.485	10.48
402.692	10.57
402.899	10.47
403.105	10.31
403.312	10.34
403.519	10.38
403.725	10.27
403.932	10.35
404.138	10.31
404.345	10.33
404.552	10.22
404.758	10.11
404.965	9.92
405.171	9.9
405.378	9.86
405.584	10.06
405.791	9.97
405.997	10.24
406.204	9.99
406.41	10.05
406.617	10.14
406.823	10.02
407.029	9.97
407.236	10.07
407.442	10.22
407.649	10.23
407.855	9.99
408.061	10.13
408.268	9.89
408.474	9.82
408.68	9.85
408.887	9.65
409.093	9.78
409.299	9.74
409.505	9.66
409.712	9.48
409.918	9.69
410.124	9.6
410.33	9.57
410.537	9.45
410.743	9.65
410.949	9.47
411.155	9.58
411.361	9.53
411.567	9.64
411.773	9.62
411.98	9.77
412.186	9.58
412.392	9.69
412.598	9.47
412.804	9.35
413.01	9.14
413.216	9.06
413.422	8.97
413.628	8.93
413.834	8.89
414.04	8.87
414.246	8.79
414.452	8.76
414.658	8.72
414.864	8.78
415.07	8.86
415.275	9
415.481	8.99
415.687	8.94
415.893	8.95
416.099	8.9
416.305	8.87
416.511	8.66
416.716	8.51
416.922	8.55
417.128	8.54
417.334	8.53
417.539	8.33
417.745	8.36
417.951	8.42
418.157	8.39
418.362	8.39
418.568	8.39
418.774	8.45
418.979	8.5
419.185	8.36
419.391	8.22
419.596	8.21
419.802	8.24
420.008	8.1
420.213	7.99
420.419	7.91
420.624	7.83
420.83	7.75
421.035	7.81
421.241	7.84
421.446	7.82
421.652	7.91
421.857	7.87
422.063	7.86
422.268	7.97
422.474	7.95
422.679	8.02
422.885	8.01
423.09	7.9
423.295	7.79
423.501	7.64
423.706	7.65
423.911	7.58
424.117	7.61
424.322	7.56
424.527	7.52
424.733	7.53
424.938	7.48
425.143	7.42
425.349	7.54
425.554	7.62
425.759	7.7
425.964	7.66
426.169	7.77
426.375	7.71
426.58	7.74
426.785	7.71
426.99	7.65
427.195	7.61
427.4	7.73
427.605	7.74
427.811	7.65
428.016	7.56
428.221	7.63
428.426	7.44
428.631	7.44
428.836	7.49
429.041	7.52
429.246	7.54
429.451	7.53
429.656	7.35
429.861	7.46
430.066	7.55
430.271	7.66
430.476	7.62
430.681	7.66
430.886	7.65
431.09	7.66
431.295	7.57
431.5	7.56
431.705	7.52
431.91	7.68
432.115	7.58
432.32	7.44
432.524	7.33
432.729	7.31
432.934	7.34
433.139	7.36
433.343	7.34
433.548	7.4
433.753	7.37
433.958	7.38
434.162	7.34
434.367	7.32
434.572	7.52
434.776	7.48
434.981	7.61
435.186	7.56
435.39	7.55
435.595	7.57
435.799	7.51
436.004	7.55
436.209	7.6
436.413	7.45
436.618	7.48
436.822	7.35
437.027	7.44
437.231	7.24
437.436	7.19
437.64	7.15
437.845	7.09
438.049	7.11
438.253	7.07
438.458	7.05
438.662	7.08
438.867	7.09
439.071	7.03
439.275	7.01
439.48	7.14
439.684	7.13
439.888	7.17
440.093	7.15
440.297	7.15
440.501	7.18
440.706	7.18
440.91	7.25
441.114	7.27
441.318	7.37
441.523	7.44
441.727	7.42
441.931	7.46
442.135	7.48
442.339	7.39
442.543	7.39
442.748	7.3
442.952	7.24
443.156	7.12
443.36	7.02
443.564	6.96
443.768	6.95
443.972	7
444.176	7.03
444.38	6.99
444.584	7.05
444.788	7.04
444.992	7.14
445.196	7.16
445.4	7.13
445.604	7.12
445.808	7.16
446.012	7.11
446.216	6.98
446.42	6.96
446.624	6.95
446.828	6.94
447.032	6.89
447.235	6.87
447.439	6.89
447.643	7
447.847	6.97
448.051	6.97
448.254	6.96
448.458	6.95
448.662	6.9
448.866	6.88
449.069	6.9
449.273	6.9
449.477	6.81
449.681	6.71
449.884	6.66
450.088	6.75
450.292	6.69
450.495	6.71
450.699	6.74
450.902	6.68
451.106	6.63
451.31	6.54
451.513	6.58
451.717	6.55
451.92	6.55
452.124	6.58
452.327	6.56
452.531	6.57
452.734	6.57
452.938	6.57
453.141	6.64
453.345	6.69
453.548	6.69
453.752	6.64
453.955	6.7
454.158	6.67
454.362	6.62
454.565	6.68
454.769	6.63
454.972	6.69
455.175	6.75
455.379	6.75
455.582	6.72
455.785	6.75
455.988	6.8
456.192	6.74
456.395	6.76
456.598	6.73
456.801	6.64
457.005	6.64
457.208	6.55
457.411	6.5
457.614	6.54
457.817	6.57
458.021	6.6
458.224	6.53
458.427	6.5
458.63	6.51
458.833	6.56
459.036	6.52
459.239	6.51
459.442	6.55
459.645	6.6
459.848	6.52
460.051	6.48
460.254	6.5
460.457	6.56
460.66	6.64
460.863	6.62
461.066	6.65
461.269	6.74
461.472	6.79
461.675	6.72
461.878	6.81
462.081	6.8
462.284	6.84
462.486	6.87
462.689	6.85
462.892	6.96
463.095	6.95
463.298	6.92
463.5	7.12
463.703	6.98
463.906	7.19
464.109	7.19
464.311	7.32
464.514	7.42
464.717	7.36
464.92	7.49
465.122	7.44
465.325	7.54
465.528	7.52
465.73	7.35
465.933	7.43
466.135	7.32
466.338	7.24
466.541	7.18
466.743	7.15
466.946	7.26
467.148	7.15
467.351	7.12
467.553	7.14
467.756	7.14
467.958	7.16
468.161	7.11
468.363	7.1
468.566	7.19
468.768	7.26
468.971	7.22
469.173	7.2
469.375	7.17
469.578	7.19
469.78	7.12
469.983	7.1
470.185	7.1
470.387	7.21
470.59	7.15
470.792	7.13
470.994	7.17
471.196	7.12
471.399	7.16
471.601	7.27
471.803	7.28
472.005	7.37
472.208	7.4
472.41	7.45
472.612	7.51
472.814	7.57
473.016	7.6
473.218	7.59
473.421	7.58
473.623	7.63
473.825	7.57
474.027	7.54
474.229	7.49
474.431	7.52
474.633	7.54
474.835	7.52
475.037	7.42
475.239	7.33
475.441	7.33
475.643	7.39
475.845	7.27
476.047	7.3
476.249	7.31
476.451	7.28
476.653	7.26
476.855	7.21
477.057	7.2
477.258	7.24
477.46	7.23
477.662	7.22
477.864	7.2
478.066	7.16
478.268	7.07
478.469	7.07
478.671	7.09
478.873	7.03
479.075	7.04
479.276	6.95
479.478	6.95
479.68	6.9
479.882	6.91
480.083	6.94
480.285	6.94
480.487	6.99
480.688	6.96
480.89	7.01
481.091	6.99
481.293	6.96
481.495	6.94
481.696	6.94
481.898	6.95
482.099	6.9
482.301	6.88
482.502	6.88
482.704	6.88
482.905	6.89
483.107	6.84
483.308	6.85
483.51	6.82
483.711	6.82
483.913	6.82
484.114	6.81
484.315	6.83
484.517	6.85
484.718	6.82
484.92	6.8
485.121	6.8
485.322	6.81
485.524	6.8
485.725	6.83
485.926	6.81
486.127	6.8
486.329	6.8
486.53	6.79
486.731	6.78
486.932	6.81
487.134	6.81
487.335	6.79
487.536	6.79
487.737	6.81
487.938	6.81
488.139	6.86
488.341	6.9
488.542	6.88
488.743	6.92
488.944	6.98
489.145	6.98
489.346	6.98
489.547	7.01
489.748	7.02
489.949	7.08
490.15	7.07
490.351	7.07
490.552	7.08
490.753	7.08
490.954	7.11
491.155	7.04
491.356	7.05
491.557	7.1
491.758	7.18
491.959	7.22
492.159	7.2
492.36	7.23
492.561	7.28
492.762	7.35
492.963	7.48
493.164	7.54
493.364	7.64
493.565	7.69
493.766	7.74
493.967	7.69
494.167	7.73
494.368	7.71
494.569	7.81
494.769	7.77
494.97	7.81
495.171	7.82
495.371	7.77
495.572	7.77
495.773	7.87
495.973	7.94
496.174	7.94
496.375	7.93
496.575	7.96
496.776	8
496.976	8.05
497.177	8.06
497.377	8.15
497.578	8.29
497.778	8.4
497.979	8.42
498.179	8.39
498.38	8.47
498.58	8.62
498.78	8.75
498.981	8.85
499.181	8.9
499.382	8.94
499.582	8.97
499.782	8.97
499.983	9
500.183	9.07
500.383	9.1
500.584	9.17
500.784	9.22
500.984	9.22
501.184	9.28
501.385	9.42
501.585	9.46
501.785	9.47
501.985	9.48
502.185	9.53
502.386	9.55
502.586	9.58
502.786	9.61
502.986	9.71
503.186	9.8
503.386	9.8
503.586	9.93
503.786	10.04
503.987	10.08
504.187	10.19
504.387	10.27
504.587	10.38
504.787	10.57
504.987	10.7
505.187	10.74
505.387	10.86
505.587	10.99
505.786	11.02
505.986	11.04
506.186	11.14
506.386	11.2
506.586	11.32
506.786	11.38
506.986	11.37
507.186	11.42
507.386	11.52
507.585	11.53
507.785	11.56
507.985	11.6
508.185	11.74
508.384	11.82
508.584	11.84
508.784	11.88
508.984	11.98
509.183	12.05
509.383	12.12
509.583	12.12
509.782	12.12
509.982	12.23
510.182	12.24
510.381	12.28
510.581	12.38
510.781	12.57
510.98	12.65
511.18	12.76
511.379	12.9
511.579	12.99
511.778	13.11
511.978	13.22
512.177	13.29
512.377	13.46
512.576	13.55
512.776	13.66
512.975	13.64
513.175	13.7
513.374	13.68
513.573	13.79
513.773	13.93
513.972	14
514.172	14.14
514.371	14.29
514.57	14.31
514.77	14.42
514.969	14.58
515.168	14.66
515.367	14.83
515.567	14.96
515.766	14.99
515.965	15.01
516.164	15.12
516.364	15.22
516.563	15.27
516.762	15.38
516.961	15.37
517.16	15.31
517.359	15.38
517.559	15.47
517.758	15.49
517.957	15.52
518.156	15.63
518.355	15.71
518.554	15.72
518.753	15.77
518.952	15.82
519.151	16
519.35	16.11
519.549	16.19
519.748	16.13
519.947	16.28
520.146	16.38
520.345	16.42
520.544	16.44
520.743	16.56
520.942	16.65
521.141	16.72
521.339	16.78
521.538	16.81
521.737	16.99
521.936	17.11
522.135	17.13
522.333	17.23
522.532	17.28
522.731	17.39
522.93	17.54
523.129	17.68
523.327	17.81
523.526	17.78
523.725	17.95
523.923	18
524.122	18.06
524.321	18.12
524.519	18.16
524.718	18.23
524.917	18.32
525.115	18.33
525.314	18.35
525.512	18.43
525.711	18.54
525.909	18.54
526.108	18.53
526.306	18.64
526.505	18.68
526.703	18.78
526.902	18.74
527.1	18.71
527.299	18.72
527.497	18.7
527.696	18.69
527.894	18.71
528.092	18.75
528.291	18.78
528.489	18.73
528.688	18.78
528.886	18.76
529.084	18.9
529.283	19.02
529.481	19.09
529.679	19.24
529.877	19.33
530.076	19.43
530.274	19.5
530.472	19.6
530.67	19.79
530.869	19.83
531.067	19.9
531.265	19.86
531.463	19.84
531.661	19.91
531.859	19.88
532.057	19.91
532.255	19.93
532.454	19.92
532.652	19.93
532.85	19.93
533.048	19.99
533.246	20.04
533.444	20.14
533.642	20.18
533.84	20.16
534.038	20.18
534.236	20.22
534.434	20.22
534.632	20.31
534.83	20.4
535.027	20.47
535.225	20.45
535.423	20.46
535.621	20.52
535.819	20.53
536.017	20.56
536.215	20.64
536.412	20.67
536.61	20.71
536.808	20.75
537.006	20.71
537.203	20.71
537.401	20.82
537.599	20.89
537.797	20.92
537.994	21.04
538.192	21.18
538.39	21.33
538.587	21.41
538.785	21.5
538.983	21.51
539.18	21.58
539.378	21.6
539.575	21.58
539.773	21.56
539.97	21.54
540.168	21.55
540.366	21.51
540.563	21.49
540.761	21.47
540.958	21.44
541.155	21.46
541.353	21.5
541.55	21.49
541.748	21.52
541.945	21.55
542.143	21.64
542.34	21.62
542.537	21.71
542.735	21.76
542.932	21.82
543.129	21.93
543.327	22.07
543.524	22.2
543.721	22.26
543.919	22.28
544.116	22.37
544.313	22.46
544.51	22.56
544.708	22.56
544.905	22.54
545.102	22.6
545.299	22.59
545.496	22.56
545.693	22.52
545.891	22.58
546.088	22.62
546.285	22.68
546.482	22.68
546.679	22.78
546.876	22.87
547.073	22.96
547.27	23.11
547.467	23.19
547.664	23.23
547.861	23.3
548.058	23.36
548.255	23.53
548.452	23.59
548.649	23.72
548.846	23.81
549.043	23.81
549.24	23.91
549.437	23.82
549.633	23.84
549.83	23.94
550.027	24.03
550.224	24.08
550.421	24.22
550.618	24.2
550.814	24.24
551.011	24.19
551.208	24.2
551.405	24.19
551.601	24.19
551.798	24.25
551.995	24.28
552.191	24.3
552.388	24.29
552.585	24.18
552.781	24.27
552.978	24.17
553.175	24.28
553.371	24.48
553.568	24.54
553.764	24.73
553.961	24.86
554.157	24.91
554.354	24.91
554.55	25
554.747	25.09
554.943	25.16
555.14	25.34
555.336	25.3
555.533	25.2
555.729	25.45
555.926	25.5
556.122	25.6
556.318	25.68
556.515	25.82
556.711	25.84
556.907	25.94
557.104	25.97
557.3	25.97
557.496	26.03
557.693	26.21
557.889	26.22
558.085	26.33
558.281	26.33
558.478	26.43
558.674	26.52
558.87	26.57
559.066	26.5
559.262	26.61
559.459	26.66
559.655	26.7
559.851	26.72
560.047	26.69
560.243	26.72
560.439	26.77
560.635	26.75
560.831	26.6
561.027	26.61
561.223	26.66
561.419	26.6
561.615	26.63
561.811	26.79
562.007	26.8
562.203	26.87
562.399	26.79
562.595	26.88
562.791	27.07
562.987	27.16
563.183	27.27
563.379	27.45
563.575	27.55
563.771	27.65
563.966	27.68
564.162	27.79
564.358	27.9
564.554	28.05
564.75	27.99
564.945	28
565.141	28.1
565.337	28.14
565.533	28.13
565.728	28.13
565.924	28.1
566.12	28.12
566.315	28.15
566.511	28.17
566.707	28.18
566.902	28.3
567.098	28.43
567.293	28.43
567.489	28.57
567.684	28.57
567.88	28.7
568.076	28.8
568.271	28.98
568.467	28.98
568.662	29.03
568.858	29.14
569.053	29.14
569.248	28.98
569.444	29.15
569.639	29.25
569.835	29.31
570.03	29.4
570.225	29.42
570.421	29.47
570.616	29.53
570.812	29.58
571.007	29.6
571.202	29.71
571.397	29.84
571.593	29.86
571.788	29.87
571.983	30.01
572.178	29.96
572.374	30.08
572.569	30.08
572.764	30.21
572.959	30.26
573.154	30.27
573.35	30.35
573.545	30.45
573.74	30.44
573.935	30.5
574.13	30.52
574.325	30.61
574.52	30.67
574.715	30.79
574.91	30.66
575.105	30.71
575.3	30.78
575.495	30.83
575.69	30.78
575.885	30.91
576.08	30.89
576.275	30.92
576.47	31
576.665	30.89
576.86	30.86
577.055	31.02
577.25	31.1
577.444	31.14
577.639	31.17
577.834	31.29
578.029	31.23
578.224	31.31
578.418	31.35
578.613	31.4
578.808	31.51
579.003	31.47
579.197	31.58
579.392	31.57
579.587	31.72
579.781	31.66
579.976	31.7
580.171	31.87
580.365	31.96
580.56	31.99
580.755	31.99
580.949	32.15
581.144	32.15
581.338	32.18
581.533	32.19
581.727	32.13
581.922	32.22
582.116	32.33
582.311	32.37
582.505	32.41
582.7	32.57
582.894	32.74
583.089	32.62
583.283	32.75
583.478	32.73
583.672	32.79
583.866	32.84
584.061	32.82
584.255	32.73
584.449	32.74
584.644	32.76
584.838	32.69
585.032	32.63
585.226	32.88
585.421	32.93
585.615	33.03
585.809	33.03
586.003	33.05
586.198	33.24
586.392	33.23
586.586	33.18
586.78	33.28
586.974	33.45
587.168	33.56
587.363	33.49
587.557	33.6
587.751	33.64
587.945	33.7
588.139	33.67
588.333	33.53
588.527	33.53
588.721	33.56
588.915	33.48
589.109	33.39
589.303	33.34
589.497	33.27
589.691	33.13
589.885	32.98
590.079	32.98
590.273	33.07
590.466	33.08
590.66	33.15
590.854	33.1
591.048	33.13
591.242	33.19
591.436	33.13
591.629	33.23
591.823	33.27
592.017	33.4
592.211	33.36
592.404	33.46
592.598	33.57
592.792	33.63
592.986	33.78
593.179	33.72
593.373	33.74
593.567	33.82
593.76	33.86
593.954	34.02
594.147	34.04
594.341	34.11
594.535	34.17
594.728	34.09
594.922	34.11
595.115	34.13
595.309	34.11
595.502	34.18
595.696	34.25
595.889	34.25
596.083	34.07
596.276	34.07
596.47	34.08
596.663	34.04
596.856	34.1
597.05	34.07
597.243	33.96
597.437	34.01
597.63	34.05
597.823	34.04
598.017	34.06
598.21	34.41
598.403	34.4
598.596	34.47
598.79	34.48
598.983	34.49
599.176	34.63
599.369	34.89
599.563	34.89
599.756	34.67
599.949	34.72
600.142	34.84
600.335	34.66
600.528	34.69
600.722	34.77
600.915	34.7
601.108	34.79
601.301	34.69
601.494	34.64
601.687	34.74
601.88	34.78
602.073	34.64
602.266	34.53
602.459	34.49
602.652	34.53
602.845	34.5
603.038	34.53
603.231	34.66
603.424	34.75
603.617	34.79
603.809	34.77
604.002	34.76
604.195	34.86
604.388	34.96
604.581	35.12
604.774	35.17
604.966	35.09
605.159	35.08
605.352	34.98
605.545	34.99
605.737	34.94
605.93	34.9
606.123	35.08
606.316	35.1
606.508	35.1
606.701	35.08
606.894	35.1
607.086	35.21
607.279	35.19
607.471	35.09
607.664	35
607.857	35.01
608.049	35.1
608.242	35.06
608.434	35.14
608.627	35.09
608.819	34.99
609.012	35.05
609.204	35.17
609.397	35.13
609.589	35.24
609.782	35.2
609.974	35.24
610.166	35.19
610.359	35.19
610.551	35.05
610.743	35.18
610.936	35.17
611.128	35.07
611.32	34.83
611.513	34.9
611.705	34.95
611.897	34.91
612.09	34.88
612.282	34.95
612.474	34.8
612.666	34.87
612.858	34.82
613.051	35.04
613.243	34.99
613.435	35.18
613.627	35.37
613.819	35.28
614.011	35.55
614.203	35.57
614.395	35.81
614.588	35.97
614.78	36.04
614.972	36.04
615.164	35.85
615.356	35.93
615.548	35.88
615.74	35.88
615.932	35.82
616.124	35.76
616.315	35.79
616.507	35.71
616.699	35.81
616.891	35.91
617.083	35.95
617.275	36.23
617.467	36.11
617.659	36.13
617.85	36.2
618.042	36.23
618.234	36.32
618.426	36.46
618.618	36.36
618.809	36.28
619.001	36.05
619.193	36.05
619.384	35.81
619.576	36.06
619.768	36.16
619.959	35.88
620.151	36.09
620.343	36.1
620.534	36.18
620.726	36.35
620.917	36.32
621.109	36.24
621.301	36.29
621.492	36.27
621.684	36.14
621.875	36.08
622.067	36.21
622.258	36.07
622.45	36.16
622.641	35.95
622.832	35.74
623.024	35.8
623.215	35.96
623.407	35.88
623.598	35.87
623.789	35.86
623.981	35.89
624.172	35.98
624.363	35.84
624.555	35.6
624.746	35.55
624.937	35.51
625.129	35.54
625.32	35.42
625.511	35.42
625.702	35.35
625.893	35.43
626.085	35.27
626.276	35.3
626.467	35.62
626.658	35.46
626.849	35.34
627.04	35.37
627.231	35.39
627.422	35.62
627.614	35.58
627.805	35.69
627.996	35.6
628.187	35.68
628.378	35.58
628.569	35.49
628.76	35.81
628.951	36.16
629.142	36.1
629.332	35.91
629.523	35.82
629.714	35.81
629.905	35.9
630.096	36
630.287	36.13
630.478	36.05
630.669	35.92
630.859	36.07
631.05	35.82
631.241	35.81
631.432	35.67
631.623	35.76
631.813	35.74
632.004	35.69
632.195	35.64
632.385	35.42
632.576	35.35
632.767	35.36
632.957	35.33
633.148	35.48
633.339	35.51
633.529	35.83
633.72	35.73
633.91	35.79
634.101	35.79
634.292	35.86
634.482	35.84
634.673	36.05
634.863	36.01
635.054	35.89
635.244	35.83
635.435	35.78
635.625	35.54
635.815	35.47
636.006	35.54
636.196	35.42
636.387	35.44
636.577	35.64
636.767	35.58
636.958	35.62
637.148	35.64
637.338	35.46
637.529	35.76
637.719	36.03
637.909	36.07
638.099	36.08
638.29	36.21
638.48	36.1
638.67	35.89
638.86	35.89
639.05	35.87
639.241	35.96
639.431	35.94
639.621	35.9
639.811	35.85
640.001	35.87
640.191	35.65
640.381	35.5
640.571	35.64
640.761	35.83
640.951	35.74
641.141	35.82
641.331	35.69
641.521	35.91
641.711	35.71
641.901	35.89
642.091	35.87
642.281	35.87
642.471	35.94
642.661	35.83
642.851	35.86
643.041	36.15
643.231	36.01
643.42	36.23
643.61	36.2
643.8	36.22
643.99	36.21
644.18	36.18
644.369	36.4
644.559	36.64
644.749	36.84
644.939	36.75
645.128	36.61
645.318	36.64
645.508	36.41
645.697	36.55
645.887	36.66
646.076	36.33
646.266	36.41
646.456	36.29
646.645	36.18
646.835	35.95
647.024	35.98
647.214	35.8
647.403	35.69
647.593	35.8
647.782	35.73
647.972	35.63
648.161	35.86
648.351	35.63
648.54	35.67
648.73	35.69
648.919	35.78
649.108	35.85
649.298	36
649.487	36.02
649.677	35.97
649.866	35.92
650.055	36.08
650.244	35.96
650.434	36.34
650.623	36.41
650.812	36.32
651.002	36.23
651.191	36.09
651.38	36.12
651.569	35.89
651.758	35.71
651.947	35.77
652.137	35.53
652.326	35.57
652.515	35.28
652.704	35.05
652.893	35.06
653.082	35.25
653.271	35.46
653.46	35.43
653.649	35.71
653.838	36.04
654.027	36.17
654.216	36.18
654.405	36.16
654.594	36.18
654.783	36.08
654.972	35.98
655.161	35.9
655.35	35.79
655.539	35.96
655.728	35.83
655.916	35.72
656.105	35.42
656.294	35.48
656.483	35.32
656.672	35.31
656.86	35.54
657.049	35.53
657.238	35.51
657.427	35.42
657.615	35.38
657.804	35.52
657.993	35.53
658.181	35.67
658.37	35.77
658.559	35.76
658.747	35.7
658.936	35.72
659.125	35.8
659.313	35.84
659.502	35.97
659.69	35.85
659.879	35.9
660.067	35.84
660.256	35.74
660.444	35.76
660.633	36.03
660.821	36.37
661.01	36.39
661.198	36.35
661.387	36.24
661.575	36.1
661.763	36.23
661.952	36.25
662.14	36.35
662.328	36.36
662.517	36.42
662.705	36.29
662.893	36.07
663.082	36.07
663.27	36.09
663.458	36.19
663.646	36.1
663.834	35.85
664.023	35.76
664.211	35.64
664.399	35.73
664.587	35.57
664.775	35.54
664.963	35.65
665.152	35.69
665.34	35.7
665.528	35.56
665.716	35.79
665.904	36
666.092	36.13
666.28	35.97
666.468	35.7
666.656	35.64
666.844	35.88
667.032	35.86
667.22	35.89
667.408	35.88
667.596	36.25
667.784	36.06
667.971	36.03
668.159	35.81
668.347	35.9
668.535	35.96
668.723	35.88
668.911	35.43
669.098	35.34
669.286	35.21
669.474	35.17
669.662	34.95
669.849	35.05
670.037	35.03
670.225	35.33
670.413	35.45
670.6	35.63
670.788	35.85
670.976	36.21
671.163	36.17
671.351	36.21
671.538	36.41
671.726	36.34
671.913	36.23
672.101	36.33
672.289	36.04
672.476	35.97
672.664	36.05
672.851	36.28
673.039	36.25
673.226	36.26
673.413	36.06
673.601	35.84
673.788	35.64
673.976	35.59
674.163	35.42
674.35	35.56
674.538	35.93
674.725	35.94
674.912	35.71
675.1	35.76
675.287	35.86
675.474	35.95
675.662	36.16
675.849	36.53
676.036	36.97
676.223	36.84
676.411	36.82
676.598	36.34
676.785	36.43
676.972	36.48
677.159	36.39
677.346	35.96
677.533	36.04
677.721	35.85
677.908	35.77
678.095	35.65
678.282	35.78
678.469	35.67
678.656	35.72
678.843	35.65
679.03	35.62
679.217	35.56
679.404	35.74
679.591	35.65
679.778	35.6
679.964	35.57
680.151	35.41
680.338	35.33
680.525	35.41
680.712	35.44
680.899	35.66
681.086	35.61
681.272	35.69
681.459	35.78
681.646	35.85
681.833	35.87
682.02	35.74
682.206	35.84
682.393	36.11
682.58	36.12
682.766	36.25
682.953	35.93
683.14	36.01
683.326	36.26
683.513	36.19
683.7	36.29
683.886	36.53
684.073	36.62
684.259	36.77
684.446	36.81
684.632	36.75
684.819	36.45
685.005	36.48
685.192	36.5
685.378	36.5
685.565	36.72
685.751	36.45
685.938	36.3
686.124	36.41
686.31	36.11
686.497	35.68
686.683	35.76
686.87	36.01
687.056	35.91
687.242	35.87
687.429	35.67
687.615	35.7
687.801	35.91
687.987	35.88
688.174	35.83
688.36	36.29
688.546	36.45
688.732	36.17
688.918	36.22
689.105	36.01
689.291	36.06
689.477	36
689.663	35.83
689.849	35.65
690.035	35.55
690.221	35.63
690.407	35.28
690.593	35.36
690.779	35.69
690.965	35.83
691.151	36.17
691.337	36.06
691.523	36.23
691.709	36.48
691.895	37.06
692.081	37.12
692.267	36.86
692.453	36.85
692.639	36.34
692.825	36.31
693.011	36.04
693.196	36.11
693.382	36.03
693.568	35.7
693.754	35.75
693.94	35.09
694.125	35.58
694.311	35.64
694.497	35.62
694.682	36
694.868	36.28
695.054	36.29
695.239	36.23
695.425	36.04
695.611	36.06
695.796	35.68
695.982	35.87
696.168	35.48
696.353	35.44
696.539	35.48
696.724	35.41
696.91	35.11
697.095	35.15
697.281	35.07
697.466	35.16
697.652	35.12
697.837	35.37
698.023	35.25
698.208	35.34
698.393	35.55
698.579	35.38
698.764	35.51
698.949	35.53
699.135	35.32
699.32	35.44
699.505	35.4
699.691	35.61
699.876	35.45
700.061	35.56
700.246	35.5
700.432	35.39
700.617	35.43
700.802	35.06
700.987	34.9
701.172	35.25
701.358	34.93
701.543	35.2
701.728	35.06
701.913	35.16
702.098	35.08
702.283	35.32
702.468	35.3
702.653	35.9
702.838	36.37
703.023	36.42
703.208	36.37
703.393	36.53
703.578	36.23
703.763	36.16
703.948	36.19
704.133	36.31
704.318	35.96
704.503	36.27
704.688	35.81
704.873	35.57
705.057	35.57
705.242	35.61
705.427	35.85
705.612	35.85
705.797	36.21
705.981	36.42
706.166	36.34
706.351	36.33
706.536	36.07
706.72	35.99
706.905	36.02
707.09	36.03
707.274	35.45
707.459	35.2
707.644	35.33
707.828	35.34
708.013	34.95
708.197	34.94
708.382	35.09
708.567	34.6
708.751	34.49
708.936	34.39
709.12	34.55
709.305	35.4
709.489	35.41
709.673	35.12
709.858	35.22
710.042	35.29
710.227	35.41
710.411	35.21
710.596	35.49
710.78	35.78
710.964	35.99
711.149	36.13
711.333	35.83
711.517	35.77
711.702	36.16
711.886	35.95
712.07	36.05
712.254	35.78
712.438	35.92
712.623	35.85
712.807	35.46
712.991	35.41
713.175	35.09
713.359	35.09
713.544	34.68
713.728	34.72
713.912	34.65
714.096	34.39
714.28	34.38
714.464	34.22
714.648	34.16
714.832	34.21
715.016	34.21
715.2	34.11
715.384	33.86
715.568	34.45
715.752	33.95
715.936	33.93
716.12	33.89
716.304	34.28
716.488	34.34
716.671	34.5
716.855	34.82
717.039	34.84
717.223	35.2
717.407	35.1
717.59	34.92
717.774	35.21
717.958	35.06
718.142	35.08
718.325	34.87
718.509	34.63
718.693	34.6
718.877	34.59
719.06	34.03
719.244	34.12
719.428	34.29
719.611	34.1
719.795	34.21
719.978	34.39
720.162	34.64
720.345	34.94
720.529	34.96
720.713	34.96
720.896	34.62
721.08	35.43
721.263	34.95
721.446	35.15
721.63	35.52
721.813	35.17
721.997	35.02
722.18	34.62
722.364	34.25
722.547	34.17
722.73	33.87
722.914	33.54
723.097	33.67
723.28	34.08
723.464	33.99
723.647	33.7
723.83	33.44
724.013	33.46
724.197	34.01
724.38	34.03
724.563	34.02
724.746	34.77
724.929	35.11
725.112	35.07
725.296	34.19
725.479	34.1
725.662	33.65
725.845	34.01
726.028	33.92
726.211	33.7
726.394	33.73
726.577	34.24
726.76	34
726.943	34.18
727.126	33.94
727.309	34.15
727.492	33.9
727.675	34.49
727.858	34.29
728.041	34.56
728.224	34.61
728.407	34.62
728.589	34.36
728.772	34.18
728.955	34.4
729.138	33.89
729.321	34.11
729.503	34.48
729.686	34.5
729.869	34.83
730.052	34.59
730.234	34.19
730.417	33.75
730.6	33.64
730.782	33.91
730.965	33.46
731.148	33.93
731.33	34.41
731.513	34.42
731.695	34.37
731.878	34.09
732.061	34.18
732.243	34.43
732.426	34.68
732.608	34.67
732.791	34.88
732.973	35.6
733.156	35.59
733.338	34.95
733.52	35
733.703	34.93
733.885	35.11
734.068	35.18
734.25	35.28
734.432	35.24
734.615	35.1
734.797	34.6
734.979	34.05
735.162	33.78
735.344	33.9
735.526	34.18
735.708	34.1
735.891	34.26
736.073	34.09
736.255	33.96
736.437	33.98
736.619	34
736.802	33.82
736.984	34.18
737.166	34.35
737.348	34.84
737.53	34.5
737.712	34.76
737.894	35
738.076	35.17
738.258	35.23
738.44	35.3
738.622	35.75
738.804	35.69
738.986	35.44
739.168	34.96
739.35	35.33
739.532	35.11
739.714	35.48
739.896	34.84
740.078	34.77
740.259	34.64
740.441	35.13
740.623	35.23
740.805	34.78
740.987	34.67
741.168	34.87
741.35	34.18
741.532	34.44
741.714	33.89
741.895	34.18
742.077	34.64
742.259	34.34
742.44	33.74
742.622	33.57
742.804	34.11
742.985	34.2
743.167	34.58
743.348	34.45
743.53	34.81
743.711	35.31
743.893	34.93
744.075	34.4
744.256	34.59
744.438	34.85
744.619	34.63
744.8	34.57
744.982	34.33
745.163	34.55
745.345	34.23
745.526	34.38
745.707	33.93
745.889	33.81
746.07	33.47
746.252	34.1
746.433	34.39
746.614	34
746.795	34.49
746.977	34.23
747.158	34.16
747.339	34.8
747.52	34.48
747.702	34.06
747.883	34.09
748.064	34.07
748.245	33.35
748.426	32.79
748.607	33.57
748.788	33.01
748.97	33.29
749.151	33.29
749.332	33.63
749.513	32.92
749.694	33.56
749.875	34.64
750.056	34.9
750.237	34.91
750.418	34.73
750.599	34.39
750.78	33.95
750.96	34.26
751.141	34.24
751.322	33.52
751.503	33.54
751.684	32.83
751.865	31.86
752.046	31.74
752.226	32.23
752.407	33.01
752.588	32.82
752.769	34.09
752.949	33.93
753.13	34.02
753.311	33.5
753.492	34.29
753.672	34.3
753.853	34.89
754.034	35.5
754.214	35.07
754.395	34.96
754.575	35.03
754.756	34.76
754.937	34.65
755.117	34.14
755.298	34.84
755.478	34.7
755.659	34.79
755.839	33.96
756.02	33.77
756.2	33.84
756.381	33.61
756.561	33.65
756.741	33.32
756.922	33.6
757.102	33.92
757.283	33.98
757.463	32.98
757.643	33.95
757.823	35.07
758.004	34.46
758.184	34.66
758.364	34.49
758.545	34.81
758.725	34.65
758.905	34.56
759.085	34.91
759.265	34.27
759.446	34.73
759.626	34.32
759.806	33.95
759.986	34.52
760.166	34.36
760.346	34.07
760.526	33.97
760.706	34.16
760.886	33.58
761.066	33.31
761.246	33.85
761.426	34.01
761.606	33.56
761.786	33.72
761.966	34.32
762.146	34.39
762.326	35.04
762.506	34.89
762.686	34.9
762.866	35.17
763.046	34.84
763.225	35.04
763.405	34.84
763.585	34.87
763.765	34.92
763.945	33.93
764.124	34
764.304	33.91
764.484	34.34
764.664	34.2
764.843	34.39
765.023	34.68
765.203	34.37
765.382	34.25
765.562	34.56
765.741	34.45
765.921	34.79
766.101	34.91
766.28	34.26
766.46	34.11
766.639	33.69
766.819	33.53
766.998	33.53
767.178	33.37
767.357	33.67
767.537	33.09
767.716	32.45
767.896	32.37
768.075	31.83
768.254	31.77
768.434	31.54
768.613	32.7
768.792	32.5
768.972	32.99
769.151	33.22
769.33	32.98
769.51	33.79
769.689	34.52
769.868	34.27
770.047	34.82
770.226	35.09
770.406	35.45
770.585	35.3
770.764	35.98
770.943	36.29
771.122	36.44
771.301	37.16
771.48	36.52
771.66	35.81
771.839	36.6
772.018	36.71
772.197	36.52
772.376	36.88
772.555	36.61
772.734	35.77
772.913	35.03
773.092	34.77
773.271	34.66
773.449	34.71
773.628	34.95
773.807	35.16
773.986	34.83
774.165	35.5
774.344	34.62
774.523	34.51
774.701	34.54
774.88	34.55
775.059	34.81
775.238	34.46
775.417	34.78
775.595	35.68
775.774	34.19
775.953	33.17
776.131	33.27
776.31	33.1
776.489	32.67
776.667	33.04
776.846	32.51
777.025	32.9
777.203	32.81
777.382	32.78
777.56	31.48
777.739	32.7
777.917	33.87
778.096	33.03
778.274	32.92
778.453	33.92
778.631	33.39
778.81	34.08
778.988	33.37
779.166	33.43
779.345	34.06
779.523	35.29
779.702	35.05
779.88	35.16
780.058	35.3
780.237	35.68
780.415	34.44
780.593	34.86
780.771	34.78
780.95	35.71
781.128	36.03
781.306	35.94
781.484	36.04
781.662	36.06
781.841	36.22
782.019	36.4
782.197	36.01
782.375	36.84
782.553	36.59
782.731	36.95
782.909	35.87
783.087	35.83
783.265	35.43
783.443	34.37
783.621	34.79
783.799	34.1
783.977	34.66
784.155	35.15
784.333	35.1
784.511	34.48
784.689	34.21
784.867	34.19
785.045	34.32
785.223	34.87
785.4	35.24
785.578	35.22
785.756	35.94
785.934	34.88
786.112	35.43
786.289	35.72
786.467	36.26
786.645	35.44
786.823	35.7
787	36.14
787.178	35.41
787.356	34.72
787.533	33.73
787.711	33.42
787.889	33.85
788.066	33.18
788.244	33.11
788.421	33.77
788.599	33.84
788.776	33.03
788.954	32.39
789.131	33.17
789.309	34.66
789.486	35
789.664	34.91
789.841	35.06
790.019	34.24
790.196	33.87
790.373	33.42
790.551	34.55
790.728	35.22
790.906	35.06
791.083	34.62
791.26	34.11
791.437	34.79
791.615	35.2
791.792	35.53
791.969	37.02
792.146	37.58
792.324	37.85
792.501	37.75
792.678	38.52
792.855	38.98
793.032	37.97
793.209	38.08
793.387	38.58
793.564	38.5
793.741	37.87
793.918	37.64
794.095	36.98
794.272	35.8
794.449	34.97
794.626	35.67
794.803	35.98
794.98	36.64
795.157	36.52
795.334	36.07
795.511	33.7
795.688	33.83
795.864	33.75
796.041	34.72
796.218	35.76
796.395	36.79
796.572	35.34
796.749	34.53
796.925	33.82
797.102	33.04
797.279	32.6
797.456	34.52
797.632	34.32
797.809	33.6
797.986	33.26
798.162	33.59
798.339	32.63
798.516	32.92
798.692	32.31
798.869	33.26
799.046	33.53
799.222	33.39
799.399	33.4
799.575	34.23
799.752	33.93
799.928	33.66
800.105	32.16
800.281	33.17
800.458	33.41
800.634	34.95
800.811	34.95
800.987	34.29
801.163	34.76
801.34	35.27
801.516	34.92
801.692	35.39
801.869	35.02
802.045	34.98
802.221	33.09
802.398	33.16
802.574	31.9
802.75	30.83
802.926	31.97
803.103	32.46
803.279	32.08
803.455	31.48
803.631	31.33
803.807	32.73
803.983	33.74
804.16	33.8
804.336	33.37
804.512	32.62
804.688	34
804.864	33.93
805.04	32.72
805.216	33.48
805.392	33.77
805.568	34.66
805.744	33.56
805.92	34.17
806.096	35.72
806.272	35.95
806.448	36.88
806.623	35.43
806.799	35.21
806.975	35.09
807.151	34.6
807.327	34.13
807.503	33.52
807.678	33.5
807.854	32.39
808.03	31.47
808.206	32.71
808.381	32.53
808.557	32.5
808.733	31.57
808.908	32.18
809.084	31.73
809.26	31.44
809.435	31.62
809.611	31.59
809.787	31.13
809.962	31.32
810.138	29.31
810.313	29.97
810.489	31.52
810.664	31.84
810.84	31.26
811.015	30.53
811.191	32.72
811.366	31.65
811.542	31.14
811.717	31.54
811.892	32.84
812.068	33.5
812.243	32.48
812.419	31.4
812.594	31.59
812.769	32.02
812.944	33.41
813.12	32.21
813.295	33.12
813.47	33.69
813.645	33.46
813.821	32.93
813.996	33.42
814.171	34.4
814.346	35.07
814.521	35.4
814.697	36.62
814.872	35.95
815.047	35.2
815.222	36.81
815.397	35.46
815.572	35.92
815.747	34.29
815.922	31.96
816.097	31.05
816.272	32.19
816.447	31.5
816.622	31.12
816.797	30.24
816.972	31
817.147	30.21
817.322	31.9
817.496	32.18
817.671	33.01
817.846	33.45
818.021	33.57
818.196	32.45
818.371	33.55
818.545	32.19
818.72	32.79
818.895	32.6
819.069	31.85
819.244	31.64
819.419	31.6
819.594	30.87
819.768	31.82
819.943	32.95
820.117	32.92
820.292	32.75
820.467	32.94
820.641	32.94
820.816	32.68
820.99	32.72
821.165	32.8
821.339	32.67
821.514	32.91
821.688	32.77
821.863	32.28
822.037	32.21
822.212	32.1
822.386	32.14
822.56	32.14
822.735	32.03
822.909	31.97
823.084	31.79
823.258	31.69
823.432	31.83
823.606	31.7
823.781	31.83
823.955	31.85
824.129	32.03
824.303	32.29
824.478	32.2
824.652	32.34
824.826	32.77
825	32.69
825.174	32.93
825.348	32.44
825.523	32.57
825.697	32.3
825.871	32.18
826.045	31.67
826.219	30.83
826.393	31.02
826.567	31.48
826.741	30.99
826.915	31.3
827.089	31.34
827.263	31.48
827.437	31.65
827.611	32.52
827.784	33.06
827.958	33.74
828.132	34.44
828.306	34.58
828.48	34.54
828.654	35.02
828.827	34.83
829.001	34.93
829.175	35.04
829.349	34.87
829.522	33.96
829.696	34.13
829.87	33.75
830.044	34.45
830.217	34.22
830.391	34.31
830.565	34.26
830.738	34.25
830.912	33.83
831.085	33.95
831.259	34.65
831.432	34.24
831.606	33.14
831.779	32.4
831.953	32.32
832.126	32.01
832.3	32.35
832.473	32.05
832.647	32.44
832.82	32.87
832.994	32.66
833.167	33.07
833.34	32.9
833.514	33.03
833.687	33.64
833.86	33.43
834.034	33.26
834.207	32.62
834.38	32.46
834.553	32.32
834.727	31.91
834.9	31.91
835.073	30.53
835.246	31.22
835.419	31.67
835.593	30.93
835.766	29.6
835.939	30.85
836.112	31.27
836.285	32.01
836.458	33.03
836.631	32.91
836.804	34.05
836.977	35.69
837.15	36.78
837.323	36.7
837.496	38.3
837.669	39.62
837.842	38.19
838.015	38.06
838.188	37.59
838.361	36.3
838.533	36.67
838.706	36.07
838.879	34.91
839.052	31.96
839.225	31.87
839.398	30.81
839.57	30.87
839.743	33.08
839.916	34.5
840.088	35.66
840.261	37.48
840.434	37.64
840.607	37.03
840.779	37.19
840.952	37.55
841.124	36.77
841.297	37.2
841.47	37.54
841.642	36.04
841.815	35.47
841.987	35.42
842.16	32.51
842.332	33.87
842.505	33.83
842.677	35.73
842.85	37.87
843.022	40.56
843.194	41.95
843.367	44.06
843.539	43.04
843.712	41.16
843.884	40.5
844.056	45.41
844.229	45.41
844.401	48.06
844.573	45.98
844.745	44.32
844.918	41.94
845.09	40.34
845.262	41.46
845.434	43.83
845.606	43.77
845.779	45.67
845.951	40.99
846.123	39.27
846.295	36.99
846.467	37.02
846.639	41.22
846.811	41.01
846.983	41.49
847.155	39
847.327	38.1
847.499	41.62
847.671	39.11
847.843	36.84
848.015	36.75
848.187	35.92
848.359	36.73
848.531	32.04
848.703	32.29
848.875	31.04
849.047	30.51
849.218	29.88
849.39	30.15
849.562	29.19
849.734	31.15
849.905	30.45
850.077	30.91
850.249	28.45
850.421	31.08
850.592	30.53
850.764	32.45
850.936	34.73
851.107	36.1
851.279	33.06
851.451	35.68
851.622	36.75
851.794	36.72
851.965	39.62
852.137	41.83
852.308	41.91
852.48	46.15
852.651	46.5
852.823	46.96
852.994	43.36
853.166	43.47
853.337	42.46
853.509	42.37
853.68	42.29
853.851	39.03
854.023	36.27
854.194	35.34
854.365	30.58
854.537	29.36
854.708	27.97
854.879	31.85
855.05	34.94
855.222	33.88
855.393	34.84
855.564	37.97
855.735	38.52
855.906	40.31
856.078	37.51
856.249	42.51
856.42	41.51
856.591	42.2
856.762	42.94
856.933	37.44
857.104	35.81
857.275	31.76
857.446	32.39
857.617	35.54
857.788	38.59
857.959	43.24
858.13	39.86
858.301	41.15
858.472	33.89
858.643	33.63
858.814	34.51
858.985	39.29
859.155	41.42
859.326	41.01
859.497	37.38
859.668	37.92
859.839	34.72
860.009	36.72
860.18	35.95
860.351	43.18
860.522	44.37
860.692	45.62
860.863	41.92
861.034	41.59
861.204	43.22
861.375	43.49
861.546	42.12
861.716	43.65
861.887	41.57
862.057	41.37
862.228	37.82
862.398	33.58
862.569	33.13
862.739	37.29
862.91	37.27
863.08	39.23
863.251	38.24
863.421	35.75
863.592	37.84
863.762	36.08
863.932	36.71
864.103	37.45
864.273	39.53
864.443	39.44
864.614	39.17
864.784	43.06
864.954	38.56
865.125	42.17
865.295	42.45
865.465	38.82
865.635	42.03
865.805	48.06
865.976	49.6
866.146	49.19
866.316	51.25
866.486	51.82
866.656	48.88
866.826	45.98
866.996	43.05
867.166	44.05
867.336	45.3
867.506	44.37
867.676	34.55
867.846	36
868.016	37.73
868.186	38.63
868.356	36.86
868.526	35.91
868.696	36.72
868.866	38.04
869.036	39.3
869.206	41.83
869.376	39.33
869.545	40.44
869.715	40.51
869.885	37.73
870.055	39.16
870.224	39.13
870.394	40.39
870.564	44.8
870.734	44.59
870.903	44.99
871.073	42.82
871.243	47.4
871.412	50.15
871.582	50.19
871.751	50.87
871.921	49.27
872.091	49.58
872.26	48.54
872.43	48.1
872.599	46.27
872.769	46.25
872.938	46.53
873.108	43.5
873.277	40.29
873.446	36.05
873.616	34.96
873.785	36.52
873.955	29.85
874.124	31.8
874.293	34.45
874.463	39.68
874.632	38.82
874.801	36.13
874.971	35.77
875.14	41.93
875.309	43.76
875.478	42.81
875.647	40.11
875.817	43.99
875.986	40.6
876.155	39.67
876.324	38.26
876.493	39.02
876.662	40.65
876.831	41.8
877	41.33
877.17	41.35
877.339	43.61
877.508	46.77
877.677	44.69
877.846	44.17
878.015	41.44
878.184	36.95
878.352	35.54
878.521	36.39
878.69	34.52
878.859	32.4
879.028	32.26
879.197	32.14
879.366	26.17
879.534	28.05
879.703	29.29
879.872	28.34
880.041	29.33
880.21	27.78
880.378	26.91
880.547	27
880.716	28.01
880.884	28.45
881.053	28.86
881.222	29.63
881.39	29.77
881.559	29.61
881.727	29.73
881.896	30.42
882.065	31.35
882.233	31.32
882.402	32.18
882.57	32.32
882.739	31.96
882.907	32.18
883.076	32.75
883.244	33.13
883.412	33.38
883.581	34.27
883.749	34.31
883.918	33.9
884.086	34.69
884.254	34.79
884.423	34.68
884.591	35.78
884.759	34.71
884.927	35.48
885.096	33.77
885.264	34.56
885.432	35.07
885.6	33.54
885.769	33.15
885.937	33.68
886.105	34.12
886.273	34.63
886.441	34.58
886.609	36.71
886.777	35.9
886.945	39.31
887.113	38.6
887.281	37.69
887.449	44.27
887.617	47.02
887.785	49.95
887.953	48.95
888.121	49.45
888.289	48.72
888.457	49.88
888.625	51.03
888.793	53.32
888.961	53.68
889.129	53.22
889.296	49.31
889.464	50.58
889.632	46.84
889.8	47.35
889.967	46.5
890.135	50.22
