Data from 2938558_Reflection_3.txt Node
Date: Sun Jun 14 23:33:03 EDT 2015
User: robert
Spectrometer: USB4E03002
Autoset integration time: false
Trigger mode: 4
Integration Time (sec): 1.000000E-1
Scans to average: 10
Electric dark correction enabled: true
Nonlinearity correction enabled: false
Boxcar width: 5
Stray light correction enabled: false
XAxis mode: Wavelengths
Stop averaging: false
Number of Pixels in Spectrum: 3648
>>>>>Begin Spectral Data<<<<<
177.575	-0.3
177.794	26.41
178.014	111.36
178.233	-124.59
178.452	-35.36
178.672	262.61
178.891	98.4
179.11	-17.28
179.33	42.82
179.549	57.61
179.768	80.88
179.987	62.57
180.207	67.91
180.426	68.71
180.645	123.38
180.864	139.01
181.084	116.97
181.303	97.14
181.522	97.79
181.741	80.52
181.96	15.01
182.179	22.56
182.398	90.48
182.618	198.49
182.837	75.08
183.056	32.49
183.275	39.28
183.494	24.9
183.713	21.1
183.932	35.13
184.151	80.61
184.37	96.26
184.589	81.31
184.808	85.54
185.027	72.78
185.246	-113.83
185.465	-139
185.684	-3.7
185.903	-11.69
186.122	263.19
186.341	65.9
186.56	25.35
186.779	64.35
186.998	53.09
187.216	40.49
187.435	36.72
187.654	46.06
187.873	48.23
188.092	53.57
188.311	102
188.53	123.97
188.748	-137.9
188.967	-82.41
189.186	-301.23
189.405	-876.37
189.623	-815.82
189.842	-3823.81
190.061	-637.91
190.28	-838.36
190.498	234.1
190.717	116.54
190.936	165.5
191.154	141.19
191.373	150.49
191.592	169.33
191.81	121.86
192.029	163.47
192.248	252.91
192.466	349.24
192.685	140.37
192.904	226.84
193.122	-623.84
193.341	1357.32
193.559	63.21
193.778	-230.27
193.996	-110.64
194.215	-26.42
194.433	-40.69
194.652	11.56
194.87	-16.45
195.089	21.02
195.307	-19.91
195.526	-28.04
195.744	4.37
195.963	34.1
196.181	43.4
196.399	80.3
196.618	84.38
196.836	71.5
197.055	54.54
197.273	83.94
197.491	169.61
197.71	214.83
197.928	106.77
198.146	186.11
198.365	215.3
198.583	303.9
198.801	284.39
199.019	214.52
199.238	575.4
199.456	180.15
199.674	204.02
199.892	146.59
200.111	123.15
200.329	227.87
200.547	122.4
200.765	91.98
200.983	97.11
201.202	78.74
201.42	89.81
201.638	80.8
201.856	133.27
202.074	113.65
202.292	120.01
202.51	144.47
202.728	79.18
202.946	92.32
203.165	128.28
203.383	83.66
203.601	163.45
203.819	196.77
204.037	2655.56
204.255	345.23
204.473	285.8
204.691	172.33
204.909	164.58
205.127	79.63
205.345	109.93
205.562	246.26
205.78	586.23
205.998	-777.48
206.216	2381.61
206.434	1619.54
206.652	231.37
206.87	129.98
207.088	-713.22
207.306	2046
207.523	143.97
207.741	83.21
207.959	49.57
208.177	20.9
208.395	5.67
208.612	1.41
208.83	-0.29
209.048	8.1
209.266	10.13
209.483	12.43
209.701	16.66
209.919	25.45
210.136	9.79
210.354	26.74
210.572	4.66
210.79	-30.29
211.007	-168.7
211.225	-623.87
211.442	116.1
211.66	46.12
211.878	27.35
212.095	146.8
212.313	134.25
212.53	135.07
212.748	95.41
212.966	87.83
213.183	94.26
213.401	101.99
213.618	93.7
213.836	98.12
214.053	92.17
214.271	78.93
214.488	-32.02
214.705	-13.66
214.923	-21.54
215.14	-15.29
215.358	-26.6
215.575	-73.66
215.793	-56.16
216.01	-74.54
216.227	-132.5
216.445	-87.26
216.662	-118.17
216.879	-49.32
217.097	-142.88
217.314	-92.3
217.531	-80.9
217.749	-62.89
217.966	-39.58
218.183	-107.85
218.4	-41
218.618	-69.5
218.835	-69.54
219.052	-60.51
219.269	-57.49
219.487	-45.46
219.704	-45.59
219.921	-41.17
220.138	-27.26
220.355	-27.96
220.572	-23.12
220.79	-44.25
221.007	-25.23
221.224	-22.54
221.441	-12.57
221.658	-4.4
221.875	-8.48
222.092	-10.08
222.309	-9.86
222.526	-16.12
222.743	-5.48
222.96	-3.37
223.177	-0.84
223.394	-3.14
223.611	-0.78
223.828	-3.98
224.045	-5.21
224.262	-3.02
224.479	-0.56
224.696	-1.07
224.913	-3.31
225.13	-5.59
225.347	-4.93
225.564	-0.66
225.781	1.06
225.997	3.21
226.214	5
226.431	5.99
226.648	7.14
226.865	6.56
227.082	6.86
227.298	8.71
227.515	9.46
227.732	10.97
227.949	9.71
228.165	9.6
228.382	9.64
228.599	8.4
228.816	9.61
229.032	9.07
229.249	10.26
229.466	11.55
229.682	10.58
229.899	10.5
230.116	8.79
230.332	8.79
230.549	8.97
230.765	6.89
230.982	5
231.199	3.03
231.415	2.35
231.632	1.75
231.848	1.67
232.065	0.39
232.281	-1.49
232.498	-0.55
232.714	1.94
232.931	1.73
233.147	5.31
233.364	9.41
233.58	9.82
233.797	12.45
234.013	12.95
234.23	12.59
234.446	13.77
234.662	14.65
234.879	14.06
235.095	12.5
235.312	14.11
235.528	11.8
235.744	9.73
235.961	9.72
236.177	7.99
236.393	6.24
236.61	5.99
236.826	4.57
237.042	4.74
237.258	4.98
237.475	5.43
237.691	5.63
237.907	5.36
238.123	6.9
238.339	7.21
238.556	6.63
238.772	5.94
238.988	6.41
239.204	8.08
239.42	6.85
239.636	7.99
239.853	7.63
240.069	7.51
240.285	7.45
240.501	7.67
240.717	8.11
240.933	8.1
241.149	8.51
241.365	8.81
241.581	8.46
241.797	9.49
242.013	8.77
242.229	8.68
242.445	8.6
242.661	9.04
242.877	9.23
243.093	8.29
243.309	8.73
243.525	8.89
243.741	7.93
243.957	7.57
244.173	7.34
244.388	7.81
244.604	7.87
244.82	7.73
245.036	7.6
245.252	7.15
245.468	7.42
245.683	7.29
245.899	7.08
246.115	7.4
246.331	7.39
246.547	7.1
246.762	7.2
246.978	7.61
247.194	7.83
247.409	7.99
247.625	8.28
247.841	8.15
248.057	7.58
248.272	8.01
248.488	7.6
248.703	7.68
248.919	7.87
249.135	6.73
249.35	6.36
249.566	5.79
249.782	5.42
249.997	5.49
250.213	5.2
250.428	5.94
250.644	5.7
250.859	5.31
251.075	4.78
251.29	5.25
251.506	5.92
251.721	5.04
251.937	4.79
252.152	5.05
252.368	5.12
252.583	5.06
252.798	4.05
253.014	3.04
253.229	3.3
253.445	3.91
253.66	3.31
253.875	1.99
254.091	2.9
254.306	3.64
254.521	2.64
254.737	1.55
254.952	1.31
255.167	1.38
255.383	2.58
255.598	2.87
255.813	3.03
256.028	3.16
256.244	3.69
256.459	3.69
256.674	3.92
256.889	3.98
257.104	4.23
257.32	4.62
257.535	5.3
257.75	4.89
257.965	5.03
258.18	5.05
258.395	4.79
258.61	4.83
258.826	4.88
259.041	4.57
259.256	4.7
259.471	4.33
259.686	4.13
259.901	3.75
260.116	3.64
260.331	3.27
260.546	3.19
260.761	3.6
260.976	3.97
261.191	3.73
261.406	4.09
261.621	4.13
261.836	5.02
262.05	5.72
262.265	5.43
262.48	6.17
262.695	6.74
262.91	6.78
263.125	6.01
263.34	5.25
263.555	5.1
263.769	4.39
263.984	4.52
264.199	4.75
264.414	4.9
264.629	5.75
264.843	5.2
265.058	4.5
265.273	4.45
265.488	4.51
265.702	4.7
265.917	4.83
266.132	4.92
266.346	4.83
266.561	4.73
266.776	4.31
266.99	4.12
267.205	4.3
267.42	4.78
267.634	4.96
267.849	5.58
268.063	6.33
268.278	6.68
268.492	6.57
268.707	6.61
268.922	6.22
269.136	6.12
269.351	6
269.565	6.12
269.78	6.66
269.994	6.12
270.209	5.61
270.423	5.07
270.637	4.69
270.852	4.84
271.066	4.53
271.281	4.74
271.495	4.97
271.709	4.99
271.924	4.78
272.138	3.8
272.353	3.85
272.567	4.26
272.781	3.78
272.996	3.85
273.21	3.84
273.424	4.13
273.638	4.14
273.853	4.14
274.067	4.92
274.281	4.71
274.495	4.81
274.71	5.32
274.924	4.83
275.138	5.51
275.352	5.25
275.566	5.57
275.781	5.42
275.995	5.17
276.209	5.18
276.423	4.51
276.637	4.81
276.851	5.06
277.065	5.17
277.279	5.83
277.493	6.04
277.707	5.27
277.921	4.96
278.135	4.73
278.349	4.45
278.563	3.9
278.777	4.09
278.991	4.59
279.205	4.64
279.419	4.75
279.633	3.95
279.847	4
280.061	4.65
280.275	4.69
280.489	5.22
280.703	5.71
280.917	5.76
281.131	5.4
281.344	5.05
281.558	5.28
281.772	5.07
281.986	5.35
282.2	4.83
282.414	5.25
282.627	4.96
282.841	4.92
283.055	4.51
283.269	4.48
283.482	4.76
283.696	4.44
283.91	4.11
284.123	3.94
284.337	4.12
284.551	4.39
284.764	4.55
284.978	4.97
285.192	4.95
285.405	5.18
285.619	5.37
285.833	5.32
286.046	5.44
286.26	5.44
286.473	5.35
286.687	5.16
286.9	4.98
287.114	4.48
287.327	4.11
287.541	3.82
287.754	3.9
287.968	3.75
288.181	3.8
288.395	4.1
288.608	4.05
288.822	3.78
289.035	3.75
289.248	3.75
289.462	4.05
289.675	4.11
289.889	4.31
290.102	4.05
290.315	3.87
290.529	4
290.742	3.64
290.955	3.74
291.169	4.22
291.382	4.51
291.595	4.8
291.808	4.5
292.022	4.97
292.235	4.93
292.448	5
292.661	5.05
292.875	5.02
293.088	5.27
293.301	5.43
293.514	5.51
293.727	5.44
293.94	5.38
294.153	5.13
294.367	4.75
294.58	4.92
294.793	5.04
295.006	5.05
295.219	4.91
295.432	4.6
295.645	4.67
295.858	4.64
296.071	4.7
296.284	4.58
296.497	4.68
296.71	4.82
296.923	4.52
297.136	4.39
297.349	4.53
297.562	4.47
297.775	5.08
297.988	4.8
298.201	4.99
298.414	4.78
298.626	5.03
298.839	5.54
299.052	5.28
299.265	5.86
299.478	6.02
299.691	6.24
299.903	5.95
300.116	5.4
300.329	5.67
300.542	5.01
300.755	4.79
300.967	4.27
301.18	3.95
301.393	3.75
301.605	3.34
301.818	3.13
302.031	2.54
302.243	2.58
302.456	2.77
302.669	2.86
302.881	3.67
303.094	4.13
303.307	4.28
303.519	4.52
303.732	5.03
303.944	4.82
304.157	4.94
304.37	5.25
304.582	5.35
304.795	4.97
305.007	4.76
305.22	4.45
305.432	4.15
305.645	4.28
305.857	4.03
306.069	3.72
306.282	3.6
306.494	3.61
306.707	3.37
306.919	3.32
307.132	3.61
307.344	3.77
307.556	3.89
307.769	4.52
307.981	4.41
308.193	4.38
308.406	4.63
308.618	4.88
308.83	5.07
309.043	5.32
309.255	5.51
309.467	5.65
309.679	5.51
309.892	5.41
310.104	4.91
310.316	4.77
310.528	4.63
310.74	4.67
310.953	4.71
311.165	4.5
311.377	4.1
311.589	4.55
311.801	4.63
312.013	4.66
312.225	4.57
312.437	4.45
312.649	4.89
312.862	4.85
313.074	4.55
313.286	4.45
313.498	4.51
313.71	5.02
313.922	4.7
314.134	4.68
314.346	4.72
314.558	4.71
314.77	4.77
314.982	4.39
315.193	4.78
315.405	4.86
315.617	4.87
315.829	4.78
316.041	4.66
316.253	4.46
316.465	4.4
316.677	4.32
316.888	4.56
317.1	4.72
317.312	4.48
317.524	4.52
317.736	4.37
317.947	4.5
318.159	4.43
318.371	4.35
318.583	4.44
318.794	4.33
319.006	4.35
319.218	4.45
319.43	4.77
319.641	5.24
319.853	5.32
320.064	5.67
320.276	5.33
320.488	5.67
320.699	5.54
320.911	5.27
321.123	5
321.334	4.84
321.546	5.01
321.757	4.77
321.969	4.53
322.18	4.26
322.392	4.49
322.603	4.87
322.815	4.78
323.026	4.81
323.238	5.34
323.449	5.21
323.661	5.56
323.872	4.83
324.083	4.87
324.295	4.86
324.506	4.84
324.718	4.44
324.929	4.15
325.14	4.23
325.352	4.28
325.563	3.9
325.774	4.15
325.986	3.83
326.197	4.42
326.408	4.59
326.62	4.59
326.831	4.63
327.042	4.82
327.253	5.12
327.464	5.16
327.676	4.94
327.887	4.81
328.098	4.62
328.309	5.02
328.52	4.67
328.732	4.4
328.943	4.72
329.154	4.58
329.365	4.78
329.576	4.58
329.787	4.59
329.998	5.1
330.209	4.95
330.42	5.39
330.631	5.09
330.842	5.31
331.053	5.14
331.264	5.12
331.475	5.07
331.686	4.53
331.897	4.88
332.108	4.34
332.319	4.71
332.53	4.58
332.741	4.51
332.952	4.46
333.163	4.37
333.374	4.73
333.585	4.34
333.795	4.9
334.006	5.5
334.217	5.57
334.428	5.96
334.639	5.08
334.849	5.44
335.06	5.65
335.271	5.54
335.482	5.72
335.692	5.53
335.903	5.6
336.114	5.4
336.325	4.85
336.535	4.36
336.746	4.38
336.957	4.83
337.167	4.88
337.378	4.57
337.589	4.57
337.799	4.57
338.01	4.94
338.22	5.1
338.431	4.8
338.642	5.1
338.852	5.1
339.063	5
339.273	5.15
339.484	4.75
339.694	4.51
339.905	4.59
340.115	4.49
340.326	3.99
340.536	3.92
340.746	4.05
340.957	4.14
341.167	4.21
341.378	4.17
341.588	4.21
341.799	4.48
342.009	4.58
342.219	4.48
342.43	4.16
342.64	4.14
342.85	3.88
343.061	4.03
343.271	3.73
343.481	3.89
343.691	4.08
343.902	3.92
344.112	3.72
344.322	3.95
344.532	4.03
344.743	4.23
344.953	4.25
345.163	4.76
345.373	4.43
345.583	4.57
345.793	4.39
346.004	4.11
346.214	4.05
346.424	4.22
346.634	4.05
346.844	4.11
347.054	3.86
347.264	4.05
347.474	4.08
347.684	4.72
347.894	4.35
348.104	4.55
348.314	4.32
348.524	3.73
348.734	4.03
348.944	4.32
349.154	4.5
349.364	4.66
349.574	4.6
349.784	4.57
349.994	4.22
350.204	4.74
350.413	4.84
350.623	5.47
350.833	6.18
351.043	6.09
351.253	5.87
351.463	5.74
351.672	5.88
351.882	5.76
352.092	5.51
352.302	5.19
352.511	4.6
352.721	4.32
352.931	4.14
353.141	3.72
353.35	3.94
353.56	3.98
353.77	3.77
353.979	3.46
354.189	3.64
354.399	3.46
354.608	3.83
354.818	3.98
355.027	4.11
355.237	4.05
355.447	4.41
355.656	4.19
355.866	4.09
356.075	4.26
356.285	4.69
356.494	4.57
356.704	4.8
356.913	4.77
357.123	4.64
357.332	4.77
357.542	4.89
357.751	4.77
357.96	4.69
358.17	4.6
358.379	4.63
358.589	4.18
358.798	4.3
359.007	4.42
359.217	4.23
359.426	4.55
359.635	4.55
359.845	4.48
360.054	4.27
360.263	4.37
360.472	4.48
360.682	4.65
360.891	4.77
361.1	4.49
361.309	4.41
361.519	4.63
361.728	4.37
361.937	4.15
362.146	4.05
362.355	4.21
362.564	4.24
362.774	4.22
362.983	3.85
363.192	3.96
363.401	4.26
363.61	4.29
363.819	4.18
364.028	4.22
364.237	4.17
364.446	4.38
364.655	4.24
364.864	3.99
365.073	3.64
365.282	3.85
365.491	3.67
365.7	3.57
365.909	3.35
366.118	3.46
366.327	3.59
366.536	3.8
366.745	3.81
366.954	3.99
367.162	4.19
367.371	4.5
367.58	4.26
367.789	4.45
367.998	4.5
368.207	4.4
368.415	4.27
368.624	4.25
368.833	4.08
369.042	3.89
369.25	3.74
369.459	3.9
369.668	3.75
369.877	3.63
370.085	3.9
370.294	4.18
370.503	4.26
370.711	4.21
370.92	4.39
371.129	4.09
371.337	3.82
371.546	3.88
371.754	3.44
371.963	3.47
372.171	3.68
372.38	3.51
372.589	3.36
372.797	3.35
373.006	2.96
373.214	2.94
373.423	3.34
373.631	3.67
373.84	3.53
374.048	3.79
374.256	3.7
374.465	3.46
374.673	3.27
374.882	3.04
375.09	3.04
375.298	3.24
375.507	3.11
375.715	2.93
375.923	2.66
376.132	2.84
376.34	2.62
376.548	2.76
376.757	2.89
376.965	2.81
377.173	2.85
377.381	2.85
377.59	3.1
377.798	3.17
378.006	3.35
378.214	3.58
378.423	3.31
378.631	3.48
378.839	3.45
379.047	3.43
379.255	3.44
379.463	3.51
379.671	3.46
379.879	3.11
380.088	3.06
380.296	2.83
380.504	2.61
380.712	2.8
380.92	2.88
381.128	2.95
381.336	3.08
381.544	3.25
381.752	3.02
381.96	2.77
382.168	3.02
382.376	2.84
382.584	2.82
382.791	2.92
382.999	2.92
383.207	2.78
383.415	2.84
383.623	2.64
383.831	2.31
384.039	2.27
384.247	2.54
384.454	2.45
384.662	2.59
384.87	2.66
385.078	2.74
385.285	2.64
385.493	2.54
385.701	2.63
385.909	2.74
386.116	3
386.324	2.97
386.532	2.92
386.739	2.83
386.947	2.8
387.155	3
387.362	3
387.57	3.07
387.778	2.89
387.985	2.68
388.193	2.73
388.4	2.72
388.608	2.93
388.816	2.83
389.023	2.88
389.231	3.09
389.438	2.88
389.646	2.74
389.853	2.95
390.061	3.04
390.268	3.1
390.475	3.2
390.683	3.34
390.89	3.18
391.098	3.38
391.305	3.39
391.512	2.97
391.72	3.17
391.927	3.27
392.135	3.06
392.342	3.15
392.549	3.06
392.756	2.98
392.964	2.68
393.171	2.86
393.378	2.65
393.586	2.58
393.793	2.93
394	2.81
394.207	2.89
394.414	2.77
394.622	2.83
394.829	2.9
395.036	2.67
395.243	2.79
395.45	2.62
395.657	2.53
395.864	2.7
396.072	2.63
396.279	2.69
396.486	2.59
396.693	2.6
396.9	2.29
397.107	2.27
397.314	2.35
397.521	2.45
397.728	2.56
397.935	2.76
398.142	2.67
398.349	2.67
398.556	2.57
398.763	2.4
398.97	2.65
399.177	2.84
399.383	2.77
399.59	2.98
399.797	2.8
400.004	2.62
400.211	2.67
400.418	2.76
400.625	2.53
400.831	2.49
401.038	2.47
401.245	2.47
401.452	2.53
401.658	2.51
401.865	2.22
402.072	2.15
402.279	2.24
402.485	2.15
402.692	2.05
402.899	2.14
403.105	2.28
403.312	2.31
403.519	2
403.725	1.94
403.932	1.98
404.138	1.95
404.345	2.03
404.552	2.03
404.758	2.01
404.965	2.03
405.171	1.88
405.378	1.86
405.584	1.93
405.791	2.09
405.997	2.16
406.204	2.29
406.41	2.57
406.617	2.7
406.823	2.7
407.029	2.73
407.236	2.81
407.442	3.04
407.649	2.88
407.855	2.95
408.061	2.87
408.268	2.88
408.474	2.55
408.68	2.42
408.887	2.18
409.093	2.21
409.299	2.32
409.505	2.21
409.712	2.14
409.918	2.16
410.124	2.13
410.33	2.22
410.537	2.21
410.743	2.58
410.949	2.66
411.155	2.72
411.361	2.7
411.567	2.5
411.773	2.63
411.98	2.7
412.186	2.64
412.392	2.5
412.598	2.47
412.804	2.37
413.01	2.1
413.216	2.06
413.422	2.17
413.628	2.18
413.834	2.23
414.04	2.21
414.246	2.23
414.452	2.16
414.658	2.09
414.864	2.1
415.07	2.07
415.275	2.01
415.481	2.05
415.687	1.88
415.893	1.87
416.099	1.72
416.305	1.65
416.511	1.46
416.716	1.62
416.922	1.74
417.128	1.74
417.334	1.72
417.539	1.75
417.745	1.68
417.951	1.68
418.157	1.75
418.362	1.87
418.568	1.82
418.774	1.91
418.979	1.82
419.185	1.86
419.391	1.82
419.596	1.87
419.802	1.83
420.008	1.88
420.213	1.09
420.419	0.92
420.624	0.9
420.83	0.93
421.035	0.91
421.241	0.95
421.446	0.9
421.652	0.96
421.857	0.94
422.063	1.01
422.268	0.99
422.474	1.87
422.679	2.03
422.885	1.95
423.09	1.97
423.295	2.03
423.501	1.99
423.706	1.97
423.911	1.94
424.117	1.89
424.322	1.83
424.527	1.83
424.733	1.76
424.938	1.68
425.143	1.76
425.349	1.67
425.554	1.63
425.759	1.62
425.964	1.56
426.169	1.47
426.375	1.49
426.58	1.49
426.785	1.38
426.99	1.36
427.195	1.36
427.4	1.34
427.605	1.53
427.811	1.58
428.016	1.57
428.221	1.62
428.426	1.65
428.631	1.64
428.836	1.7
429.041	1.77
429.246	1.87
429.451	1.84
429.656	1.85
429.861	1.77
430.066	1.68
430.271	1.76
430.476	1.68
430.681	1.72
430.886	1.86
431.09	1.84
431.295	1.8
431.5	1.88
431.705	1.95
431.91	1.88
432.115	1.83
432.32	1.81
432.524	1.79
432.729	1.85
432.934	1.84
433.139	1.72
433.343	1.72
433.548	1.73
433.753	1.56
433.958	1.48
434.162	1.53
434.367	1.58
434.572	1.54
434.776	1.62
434.981	1.68
435.186	1.69
435.39	1.7
435.595	1.71
435.799	1.7
436.004	1.64
436.209	1.58
436.413	1.57
436.618	1.49
436.822	1.62
437.027	1.45
437.231	1.39
437.436	1.39
437.64	1.45
437.845	1.5
438.049	1.44
438.253	1.49
438.458	1.55
438.662	1.57
438.867	1.57
439.071	1.52
439.275	1.56
439.48	1.58
439.684	1.59
439.888	1.57
440.093	1.47
440.297	1.52
440.501	1.48
440.706	1.45
440.91	1.46
441.114	1.52
441.318	1.47
441.523	1.5
441.727	1.44
441.931	1.49
442.135	1.47
442.339	1.41
442.543	1.39
442.748	1.4
442.952	1.43
443.156	1.39
443.36	1.39
443.564	1.42
443.768	1.36
443.972	1.39
444.176	1.3
444.38	1.28
444.584	1.34
444.788	1.38
444.992	1.45
445.196	1.44
445.4	1.51
445.604	1.45
445.808	1.45
446.012	1.48
446.216	1.53
446.42	1.53
446.624	1.55
446.828	1.62
447.032	1.58
447.235	1.64
447.439	1.63
447.643	1.58
447.847	1.55
448.051	1.61
448.254	1.51
448.458	1.41
448.662	1.47
448.866	1.55
449.069	1.36
449.273	1.45
449.477	1.36
449.681	1.31
449.884	1.2
450.088	1.27
450.292	1.16
450.495	1.24
450.699	1.25
450.902	1.25
451.106	1.16
451.31	1.3
451.513	1.25
451.717	1.13
451.92	1.16
452.124	1.31
452.327	1.31
452.531	1.32
452.734	1.3
452.938	1.3
453.141	1.21
453.345	1.27
453.548	1.34
453.752	1.33
453.955	1.39
454.158	1.28
454.362	1.22
454.565	1.18
454.769	1.28
454.972	1.35
455.175	1.43
455.379	1.48
455.582	1.48
455.785	1.35
455.988	1.44
456.192	1.4
456.395	1.63
456.598	1.63
456.801	1.64
457.005	1.58
457.208	1.53
457.411	1.45
457.614	1.43
457.817	1.45
458.021	1.46
458.224	1.39
458.427	1.5
458.63	1.4
458.833	1.37
459.036	1.37
459.239	1.34
459.442	1.38
459.645	1.39
459.848	1.36
460.051	1.37
460.254	1.37
460.457	1.37
460.66	1.31
460.863	1.32
461.066	1.44
461.269	1.41
461.472	1.43
461.675	1.42
461.878	1.47
462.081	1.52
462.284	1.47
462.486	1.48
462.689	1.52
462.892	1.48
463.095	1.57
463.298	1.5
463.5	1.64
463.703	1.59
463.906	1.59
464.109	1.72
464.311	1.74
464.514	1.74
464.717	1.77
464.92	1.69
465.122	1.71
465.325	1.61
465.528	1.5
465.73	1.4
465.933	1.45
466.135	1.49
466.338	1.41
466.541	1.38
466.743	1.34
466.946	1.32
467.148	1.3
467.351	1.29
467.553	1.33
467.756	1.34
467.958	1.41
468.161	1.44
468.363	1.33
468.566	1.25
468.768	1.35
468.971	1.37
469.173	1.27
469.375	1.37
469.578	1.26
469.78	1.25
469.983	1.29
470.185	1.15
470.387	1.13
470.59	1.12
470.792	1.13
470.994	0.98
471.196	1.04
471.399	1.09
471.601	1.07
471.803	1.1
472.005	1.08
472.208	1.12
472.41	1.17
472.612	1.1
472.814	1.06
473.016	0.98
473.218	0.98
473.421	0.86
473.623	0.91
473.825	0.92
474.027	1
474.229	1.03
474.431	1.07
474.633	1.08
474.835	1.07
475.037	1.14
475.239	1.14
475.441	1.21
475.643	1.31
475.845	1.33
476.047	1.34
476.249	1.43
476.451	1.44
476.653	1.33
476.855	1.36
477.057	1.43
477.258	1.46
477.46	1.56
477.662	1.61
477.864	1.56
478.066	1.53
478.268	1.52
478.469	1.45
478.671	1.41
478.873	1.48
479.075	1.49
479.276	1.38
479.478	1.35
479.68	1.3
479.882	1.25
480.083	1.23
480.285	1.28
480.487	1.29
480.688	1.28
480.89	1.3
481.091	1.27
481.293	1.26
481.495	1.29
481.696	1.31
481.898	1.32
482.099	1.3
482.301	1.32
482.502	1.33
482.704	1.33
482.905	1.32
483.107	1.3
483.308	1.28
483.51	1.27
483.711	1.27
483.913	1.24
484.114	1.22
484.315	1.23
484.517	1.2
484.718	1.15
484.92	1.13
485.121	1.13
485.322	1.15
485.524	1.17
485.725	1.17
485.926	1.17
486.127	1.2
486.329	1.21
486.53	1.23
486.731	1.19
486.932	1.17
487.134	1.18
487.335	1.2
487.536	1.19
487.737	1.2
487.938	1.22
488.139	1.27
488.341	1.26
488.542	1.25
488.743	1.25
488.944	1.35
489.145	1.4
489.346	1.41
489.547	1.41
489.748	1.41
489.949	1.45
490.15	1.51
490.351	1.49
490.552	1.48
490.753	1.49
490.954	1.5
491.155	1.5
491.356	1.45
491.557	1.46
491.758	1.46
491.959	1.5
492.159	1.45
492.36	1.42
492.561	1.43
492.762	1.43
492.963	1.43
493.164	1.37
493.364	1.35
493.565	1.4
493.766	1.4
493.967	1.35
494.167	1.27
494.368	1.26
494.569	1.15
494.769	1.18
494.97	1.21
495.171	1.16
495.371	1.13
495.572	1.16
495.773	1.2
495.973	1.21
496.174	1.24
496.375	1.26
496.575	1.32
496.776	1.4
496.976	1.37
497.177	1.31
497.377	1.45
497.578	1.49
497.778	1.38
497.979	1.48
498.179	1.51
498.38	1.5
498.58	1.5
498.78	1.44
498.981	1.44
499.181	1.53
499.382	1.57
499.582	1.49
499.782	1.49
499.983	1.59
500.183	1.51
500.383	1.38
500.584	1.47
500.784	1.53
500.984	1.59
501.184	1.59
501.385	1.44
501.585	1.4
501.785	1.4
501.985	1.45
502.185	1.46
502.386	1.46
502.586	1.51
502.786	1.43
502.986	1.36
503.186	1.36
503.386	1.35
503.586	1.42
503.786	1.5
503.987	1.57
504.187	1.6
504.387	1.58
504.587	1.47
504.787	1.43
504.987	1.45
505.187	1.44
505.387	1.45
505.587	1.41
505.786	1.4
505.986	1.39
506.186	1.38
506.386	1.36
506.586	1.32
506.786	1.32
506.986	1.4
507.186	1.4
507.386	1.41
507.585	1.42
507.785	1.5
507.985	1.56
508.185	1.54
508.384	1.54
508.584	1.53
508.784	1.6
508.984	1.74
509.183	1.78
509.383	1.82
509.583	1.92
509.782	1.89
509.982	1.81
510.182	1.83
510.381	1.87
510.581	1.83
510.781	1.89
510.98	1.94
511.18	1.86
511.379	1.81
511.579	1.83
511.778	1.82
511.978	1.87
512.177	1.93
512.377	1.89
512.576	1.92
512.776	1.9
512.975	1.91
513.175	1.9
513.374	1.88
513.573	1.89
513.773	1.8
513.972	1.76
514.172	1.73
514.371	1.73
514.57	1.76
514.77	1.66
514.969	1.76
515.168	1.71
515.367	1.73
515.567	1.69
515.766	1.7
515.965	1.8
516.164	1.9
516.364	1.9
516.563	1.9
516.762	1.92
516.961	1.96
517.16	1.9
517.359	1.94
517.559	1.93
517.758	1.97
517.957	1.98
518.156	2.01
518.355	1.94
518.554	1.96
518.753	2.01
518.952	1.97
519.151	1.98
519.35	2.09
519.549	2.04
519.748	2.02
519.947	2.03
520.146	1.99
520.345	1.85
520.544	1.82
520.743	1.8
520.942	1.73
521.141	1.81
521.339	1.88
521.538	1.8
521.737	1.87
521.936	1.86
522.135	1.96
522.333	2.1
522.532	2.19
522.731	2.3
522.93	2.26
523.129	2.33
523.327	2.27
523.526	2.25
523.725	2.22
523.923	2.26
524.122	2.29
524.321	2.3
524.519	2.24
524.718	2.27
524.917	2.22
525.115	2.25
525.314	2.23
525.512	2.3
525.711	2.34
525.909	2.37
526.108	2.34
526.306	2.34
526.505	2.3
526.703	2.32
526.902	2.32
527.1	2.32
527.299	2.34
527.497	2.38
527.696	2.32
527.894	2.31
528.092	2.32
528.291	2.36
528.489	2.37
528.688	2.37
528.886	2.39
529.084	2.42
529.283	2.48
529.481	2.51
529.679	2.46
529.877	2.55
530.076	2.59
530.274	2.61
530.472	2.58
530.67	2.62
530.869	2.6
531.067	2.6
531.265	2.58
531.463	2.59
531.661	2.57
531.859	2.58
532.057	2.6
532.255	2.6
532.454	2.6
532.652	2.62
532.85	2.63
533.048	2.71
533.246	2.75
533.444	2.73
533.642	2.74
533.84	2.77
534.038	2.75
534.236	2.71
534.434	2.71
534.632	2.76
534.83	2.84
535.027	2.82
535.225	2.84
535.423	2.8
535.621	2.8
535.819	2.8
536.017	2.81
536.215	2.93
536.412	2.97
536.61	2.97
536.808	2.94
537.006	2.96
537.203	3.02
537.401	3
537.599	3.05
537.797	3.16
537.994	3.17
538.192	3.22
538.39	3.2
538.587	3.15
538.785	3.14
538.983	3.18
539.18	3.16
539.378	3.13
539.575	3.21
539.773	3.21
539.97	3.25
540.168	3.28
540.366	3.3
540.563	3.34
540.761	3.4
540.958	3.46
541.155	3.5
541.353	3.52
541.55	3.55
541.748	3.55
541.945	3.63
542.143	3.61
542.34	3.61
542.537	3.69
542.735	3.73
542.932	3.85
543.129	3.91
543.327	3.94
543.524	4.01
543.721	4.13
543.919	4.19
544.116	4.15
544.313	4.24
544.51	4.28
544.708	4.27
544.905	4.17
545.102	4.18
545.299	4.23
545.496	4.3
545.693	4.32
545.891	4.35
546.088	4.44
546.285	4.53
546.482	4.6
546.679	4.67
546.876	4.75
547.073	4.92
547.27	4.96
547.467	5.03
547.664	5
547.861	5.09
548.058	5.03
548.255	5.1
548.452	5.02
548.649	5
548.846	5
549.043	4.97
549.24	4.99
549.437	5.14
549.633	5.14
549.83	5.27
550.027	5.29
550.224	5.37
550.421	5.35
550.618	5.51
550.814	5.6
551.011	5.71
551.208	5.81
551.405	5.89
551.601	5.88
551.798	5.96
551.995	5.97
552.191	6.06
552.388	6.04
552.585	6.02
552.781	6.05
552.978	6.06
553.175	6.09
553.371	6.17
553.568	6.16
553.764	6.2
553.961	6.08
554.157	6.12
554.354	6.24
554.55	6.28
554.747	6.38
554.943	6.54
555.14	6.58
555.336	6.51
555.533	6.49
555.729	6.65
555.926	6.67
556.122	6.8
556.318	6.89
556.515	6.82
556.711	6.9
556.907	6.97
557.104	6.93
557.3	6.93
557.496	7.15
557.693	7.31
557.889	7.37
558.085	7.42
558.281	7.53
558.478	7.55
558.674	7.7
558.87	7.83
559.066	7.83
559.262	7.89
559.459	7.96
559.655	7.93
559.851	7.94
560.047	7.93
560.243	8.04
560.439	8.02
560.635	8.13
560.831	8.08
561.027	8.21
561.223	8.41
561.419	8.52
561.615	8.65
561.811	8.73
562.007	8.8
562.203	8.96
562.399	8.96
562.595	9.17
562.791	9.29
562.987	9.4
563.183	9.38
563.379	9.43
563.575	9.53
563.771	9.63
563.966	9.66
564.162	9.76
564.358	9.81
564.554	10.02
564.75	10.02
564.945	10.07
565.141	10.2
565.337	10.33
565.533	10.36
565.728	10.37
565.924	10.42
566.12	10.56
566.315	10.63
566.511	10.68
566.707	10.63
566.902	10.63
567.098	10.72
567.293	10.76
567.489	10.7
567.684	10.75
567.88	10.85
568.076	10.95
568.271	11.07
568.467	11.13
568.662	11.22
568.858	11.34
569.053	11.52
569.248	11.58
569.444	11.62
569.639	11.72
569.835	11.87
570.03	11.93
570.225	11.99
570.421	11.93
570.616	12.01
570.812	12.04
571.007	12.08
571.202	12.11
571.397	12.13
571.593	12.13
571.788	12.27
571.983	12.25
572.178	12.39
572.374	12.44
572.569	12.6
572.764	12.62
572.959	12.71
573.154	12.76
573.35	12.86
573.545	12.88
573.74	13.04
573.935	13.02
574.13	13.01
574.325	13.08
574.52	13.19
574.715	13.23
574.91	13.25
575.105	13.26
575.3	13.39
575.495	13.46
575.69	13.51
575.885	13.49
576.08	13.6
576.275	13.75
576.47	13.68
576.665	13.54
576.86	13.57
577.055	13.55
577.25	13.71
577.444	13.5
577.639	13.44
577.834	13.52
578.029	13.59
578.224	13.63
578.418	13.62
578.613	13.66
578.808	13.86
579.003	13.93
579.197	14.13
579.392	14.05
579.587	14.19
579.781	14.13
579.976	14.2
580.171	14.14
580.365	14.11
580.56	14.17
580.755	14.13
580.949	14.11
581.144	14.05
581.338	14.13
581.533	14.11
581.727	14.16
581.922	14.37
582.116	14.39
582.311	14.58
582.505	14.62
582.7	14.65
582.894	14.8
583.089	14.87
583.283	14.84
583.478	14.82
583.672	14.94
583.866	15.03
584.061	15.13
584.255	15.07
584.449	15.12
584.644	15.2
584.838	15.24
585.032	15.15
585.226	15.06
585.421	15.29
585.615	15.35
585.809	15.3
586.003	15.26
586.198	15.33
586.392	15.44
586.586	15.47
586.78	15.58
586.974	15.64
587.168	15.69
587.363	15.87
587.557	15.91
587.751	15.8
587.945	15.78
588.139	16
588.333	15.96
588.527	15.95
588.721	15.97
588.915	16.03
589.109	16.02
589.303	16.04
589.497	15.96
589.691	15.9
589.885	16
590.079	16.15
590.273	15.99
590.466	15.97
590.66	16.05
590.854	16.06
591.048	16.04
591.242	16.02
591.436	16.24
591.629	16.32
591.823	16.48
592.017	16.56
592.211	16.65
592.404	16.75
592.598	16.76
592.792	16.79
592.986	16.83
593.179	16.84
593.373	16.87
593.567	16.8
593.76	16.81
593.954	16.68
594.147	16.63
594.341	16.57
594.535	16.45
594.728	16.52
594.922	16.58
595.115	16.63
595.309	16.66
595.502	16.77
595.696	16.87
595.889	16.81
596.083	16.68
596.276	16.7
596.47	16.78
596.663	16.87
596.856	16.9
597.05	16.89
597.243	16.71
597.437	16.71
597.63	16.52
597.823	16.4
598.017	16.53
598.21	16.64
598.403	16.6
598.596	16.64
598.79	16.67
598.983	16.43
599.176	16.55
599.369	16.69
599.563	16.61
599.756	16.69
599.949	16.64
600.142	16.71
600.335	17.01
600.528	17.12
600.722	16.98
600.915	17.11
601.108	17.34
601.301	17.23
601.494	17.24
601.687	17.23
601.88	17.25
602.073	17.35
602.266	17.27
602.459	17.25
602.652	17.32
602.845	17.31
603.038	17.33
603.231	17.31
603.424	17.33
603.617	17.39
603.809	17.49
604.002	17.49
604.195	17.56
604.388	17.6
604.581	17.62
604.774	17.58
604.966	17.54
605.159	17.46
605.352	17.56
605.545	17.58
605.737	17.46
605.93	17.38
606.123	17.52
606.316	17.48
606.508	17.47
606.701	17.43
606.894	17.35
607.086	17.49
607.279	17.55
607.471	17.43
607.664	17.49
607.857	17.46
608.049	17.67
608.242	17.72
608.434	17.68
608.627	17.71
608.819	17.67
609.012	17.81
609.204	17.82
609.397	17.76
609.589	17.85
609.782	17.88
609.974	17.99
610.166	17.79
610.359	17.68
610.551	17.79
610.743	17.71
610.936	17.81
611.128	17.77
611.32	17.87
611.513	17.92
611.705	17.9
611.897	17.68
612.09	17.82
612.282	17.91
612.474	17.96
612.666	17.73
612.858	17.8
613.051	17.83
613.243	17.76
613.435	17.66
613.627	17.78
613.819	17.81
614.011	18.16
614.203	17.98
614.395	18.06
614.588	17.95
614.78	18.19
614.972	18.2
615.164	18.27
615.356	18.34
615.548	18.33
615.74	18.21
615.932	18.23
616.124	18.2
616.315	18.17
616.507	18.05
616.699	18.34
616.891	18.22
617.083	18.33
617.275	18.2
617.467	18.3
617.659	18.31
617.85	18.33
618.042	18.18
618.234	18.11
618.426	18.34
618.618	18.37
618.809	18.28
619.001	18.56
619.193	18.59
619.384	18.62
619.576	18.38
619.768	18.46
619.959	18.58
620.151	18.5
620.343	18.38
620.534	18.45
620.726	18.57
620.917	18.51
621.109	18.4
621.301	18.2
621.492	18.25
621.684	18.27
621.875	18.02
622.067	17.92
622.258	18.18
622.45	18.3
622.641	18.17
622.832	18.2
623.024	18.18
623.215	18.02
623.407	18.18
623.598	18.26
623.789	18.34
623.981	18.53
624.172	18.55
624.363	18.4
624.555	18.5
624.746	18.68
624.937	18.61
625.129	18.64
625.32	18.61
625.511	18.55
625.702	18.42
625.893	18.55
626.085	18.65
626.276	18.62
626.467	18.74
626.658	18.59
626.849	18.52
627.04	18.62
627.231	18.58
627.422	18.63
627.614	18.73
627.805	18.87
627.996	18.8
628.187	18.83
628.378	18.76
628.569	18.74
628.76	18.73
628.951	18.67
629.142	18.52
629.332	18.38
629.523	18.47
629.714	18.58
629.905	18.51
630.096	18.6
630.287	18.42
630.478	18.72
630.669	18.69
630.859	18.93
631.05	19.04
631.241	19.17
631.432	19.23
631.623	19.24
631.813	19
632.004	19.02
632.195	19.07
632.385	19.15
632.576	19.09
632.767	19.14
632.957	18.92
633.148	18.9
633.339	18.87
633.529	19.08
633.72	19.15
633.91	19.12
634.101	18.96
634.292	18.75
634.482	18.81
634.673	18.69
634.863	18.65
635.054	18.89
635.244	18.78
635.435	18.81
635.625	18.89
635.815	18.73
636.006	18.88
636.196	18.95
636.387	19.18
636.577	18.96
636.767	18.92
636.958	19.04
637.148	18.92
637.338	18.93
637.529	18.83
637.719	18.71
637.909	18.87
638.099	18.78
638.29	18.93
638.48	18.76
638.67	18.85
638.86	19.01
639.05	18.98
639.241	18.8
639.431	18.89
639.621	18.86
639.811	18.66
640.001	18.68
640.191	18.79
640.381	18.77
640.571	18.82
640.761	18.9
640.951	18.7
641.141	18.62
641.331	18.58
641.521	18.56
641.711	18.71
641.901	18.91
642.091	18.91
642.281	18.82
642.471	18.83
642.661	18.92
642.851	18.89
643.041	18.98
643.231	18.92
643.42	19.06
643.61	19.13
643.8	19.27
643.99	19.27
644.18	19.27
644.369	19.28
644.559	19.22
644.749	19.22
644.939	19.21
645.128	19.56
645.318	19.58
645.508	19.49
645.697	19.4
645.887	19.26
646.076	19.34
646.266	19.17
646.456	19.34
646.645	19.48
646.835	19.44
647.024	19.55
647.214	19.25
647.403	19.43
647.593	19.71
647.782	19.8
647.972	19.85
648.161	19.87
648.351	19.9
648.54	20.01
648.73	20
648.919	19.96
649.108	20.02
649.298	20.06
649.487	20
649.677	19.81
649.866	19.73
650.055	19.78
650.244	19.85
650.434	19.9
650.623	19.76
650.812	19.71
651.002	19.62
651.191	19.56
651.38	19.72
651.569	19.73
651.758	19.84
651.947	20.17
652.137	19.98
652.326	19.8
652.515	19.81
652.704	19.94
652.893	19.98
653.082	20.15
653.271	20.14
653.46	20.09
653.649	20.06
653.838	20.1
654.027	19.92
654.216	19.88
654.405	19.91
654.594	19.91
654.783	19.79
654.972	19.6
655.161	19.62
655.35	19.6
655.539	19.59
655.728	19.55
655.916	19.56
656.105	19.2
656.294	19.21
656.483	19.35
656.672	19.47
656.86	19.27
657.049	19.28
657.238	19.36
657.427	19.23
657.615	19.12
657.804	19.21
657.993	19.14
658.181	19.32
658.37	19.43
658.559	19.35
658.747	19.49
658.936	19.64
659.125	19.69
659.313	19.7
659.502	19.74
659.69	19.9
659.879	19.97
660.067	19.97
660.256	20.17
660.444	20.18
660.633	20.18
660.821	19.83
661.01	20.04
661.198	20.11
661.387	19.93
661.575	19.92
661.763	19.84
661.952	19.89
662.14	20.31
662.328	20.19
662.517	20.14
662.705	20.04
662.893	20.15
663.082	20.08
663.27	20
663.458	20.04
663.646	20.19
663.834	20.1
664.023	19.93
664.211	19.41
664.399	19.17
664.587	19.26
664.775	19.45
664.963	19.19
665.152	18.96
665.34	18.92
665.528	19.13
665.716	19.1
665.904	19.22
666.092	19.27
666.28	19.51
666.468	19.8
666.656	19.71
666.844	19.63
667.032	19.92
667.22	19.94
667.408	20.11
667.596	20.13
667.784	19.95
667.971	19.76
668.159	19.96
668.347	20.1
668.535	20.13
668.723	20.17
668.911	20.41
669.098	20.44
669.286	20.43
669.474	20.5
669.662	20.16
669.849	20.71
670.037	21.17
670.225	21.03
670.413	20.79
670.6	20.81
670.788	20.91
670.976	20.53
671.163	20.67
671.351	20.77
671.538	20.98
671.726	21.41
671.913	21.16
672.101	20.95
672.289	21.06
672.476	21.05
672.664	20.98
672.851	20.88
673.039	21.08
673.226	20.7
673.413	20.71
673.601	20.51
673.788	20.57
673.976	20.67
674.163	20.5
674.35	20.45
674.538	20.61
674.725	20.58
674.912	20.69
675.1	20.64
675.287	20.96
675.474	21
675.662	20.89
675.849	20.7
676.036	20.86
676.223	20.86
676.411	20.78
676.598	20.66
676.785	20.67
676.972	20.69
677.159	20.89
677.346	20.77
677.533	20.69
677.721	20.58
677.908	20.46
678.095	20.04
678.282	20.04
678.469	19.93
678.656	19.86
678.843	19.9
679.03	19.8
679.217	19.71
679.404	19.71
679.591	19.73
679.778	19.79
679.964	19.87
680.151	20.05
680.338	20.19
680.525	19.99
680.712	20.08
680.899	20.03
681.086	19.99
681.272	19.92
681.459	19.81
681.646	19.87
681.833	19.94
682.02	19.81
682.206	19.93
682.393	19.96
682.58	20.26
682.766	20.5
682.953	20.42
683.14	20.33
683.326	20.36
683.513	20.61
683.7	20.52
683.886	20.38
684.073	20.4
684.259	20.22
684.446	20.15
684.632	20.39
684.819	20.23
685.005	20.42
685.192	20.76
685.378	21
685.565	20.98
685.751	21.06
685.938	21.36
686.124	21.56
686.31	21.8
686.497	21.82
686.683	21.63
686.87	21.62
687.056	21.43
687.242	21.37
687.429	21.2
687.615	21.22
687.801	21.08
687.987	20.83
688.174	20.5
688.36	20.18
688.546	19.95
688.732	19.78
688.918	19.86
689.105	19.97
689.291	20.05
689.477	19.83
689.663	19.79
689.849	19.5
690.035	19.84
690.221	19.96
690.407	19.92
690.593	20.36
690.779	20.48
690.965	20.12
691.151	20.07
691.337	20.02
691.523	20.36
691.709	20.24
691.895	20.65
692.081	20.55
692.267	20.5
692.453	20.49
692.639	20.17
692.825	20.07
693.011	20.31
693.196	20.58
693.382	20.73
693.568	20.67
693.754	20.67
693.94	20.77
694.125	20.52
694.311	20.43
694.497	20.52
694.682	20.8
694.868	20.88
695.054	20.87
695.239	20.6
695.425	20.62
695.611	20.34
695.796	20.65
695.982	20.58
696.168	20.93
696.353	21.34
696.539	21.15
696.724	21.07
696.91	21.25
697.095	21.34
697.281	21.33
697.466	21.16
697.652	21.14
697.837	21.24
698.023	21.16
698.208	20.84
698.393	20.64
698.579	20.83
698.764	20.7
698.949	20.69
699.135	20.77
699.32	20.76
699.505	20.67
699.691	21.04
699.876	20.89
700.061	21.11
700.246	21.37
700.432	21.57
700.617	21.6
700.802	21.31
700.987	21.15
701.172	20.75
701.358	20.77
701.543	21.04
701.728	20.85
701.913	20.54
702.098	20.05
702.283	19.87
702.468	19.79
702.653	19.92
702.838	20.32
703.023	20.44
703.208	20.45
703.393	20.4
703.578	20.3
703.763	20.29
703.948	20.52
704.133	20.92
704.318	21.18
704.503	20.85
704.688	20.82
704.873	21.02
705.057	20.88
705.242	21.25
705.427	21.32
705.612	21.9
705.797	21.91
705.981	21.96
706.166	21.97
706.351	21.73
706.536	21.65
706.72	21.6
706.905	21.37
707.09	21.59
707.274	21.68
707.459	21.96
707.644	21.25
707.828	20.99
708.013	20.75
708.197	21.22
708.382	21.47
708.567	22.05
708.751	21.87
708.936	22.2
709.12	22.01
709.305	21.76
709.489	21.43
709.673	21.43
709.858	21.46
710.042	21.72
710.227	21.48
710.411	21.35
710.596	21.01
710.78	21.23
710.964	21
711.149	20.98
711.333	20.95
711.517	21.14
711.702	21.61
711.886	21.92
712.07	21.89
712.254	21.65
712.438	21.69
712.623	22.06
712.807	22.08
712.991	22.19
713.175	22.51
713.359	22.6
713.544	22.39
713.728	22.14
713.912	21.84
714.096	21.91
714.28	21.71
714.464	21.51
714.648	21.32
714.832	21.3
715.016	21.45
715.2	21.37
715.384	21.75
715.568	21.84
715.752	21.57
715.936	21.88
716.12	21.84
716.304	22.48
716.488	22.85
716.671	22.74
716.855	23.23
717.039	22.76
717.223	22.77
717.407	22.42
717.59	22.49
717.774	22.93
717.958	22.5
718.142	22.69
718.325	21.93
718.509	21.69
718.693	21.52
718.877	21.01
719.06	21.38
719.244	21.14
719.428	20.93
719.611	21.12
719.795	20.87
719.978	21.31
720.162	20.94
720.345	21.62
720.529	21.3
720.713	21.58
720.896	21.69
721.08	21.67
721.263	22.16
721.446	22.32
721.63	22.4
721.813	22.61
721.997	22.15
722.18	22.42
722.364	22.23
722.547	22.4
722.73	22.36
722.914	22.62
723.097	22.42
723.28	22.16
723.464	22.17
723.647	21.75
723.83	21.64
724.013	21.9
724.197	22.03
724.38	21.86
724.563	22.15
724.746	21.94
724.929	21.6
725.112	21.63
725.296	21.23
725.479	21.34
725.662	21.6
725.845	21.32
726.028	21.58
726.211	20.78
726.394	20.88
726.577	21.04
726.76	21.24
726.943	20.63
727.126	20.45
727.309	20.77
727.492	20.42
727.675	20.41
727.858	20.6
728.041	20.77
728.224	21.09
728.407	21.36
728.589	21.01
728.772	20.96
728.955	21.21
729.138	21.65
729.321	21.45
729.503	21.57
729.686	21.27
729.869	21.32
730.052	20.99
730.234	20.6
730.417	20.25
730.6	20.6
730.782	20.38
730.965	20.91
731.148	20.99
731.33	21.63
731.513	21.4
731.695	21.78
731.878	21.92
732.061	22
732.243	22.64
732.426	22.6
732.608	22.25
732.791	22.69
732.973	22.27
733.156	21.78
733.338	21.31
733.52	21.42
733.703	20.82
733.885	20.07
734.068	20.1
734.25	20
734.432	19.85
734.615	19.92
734.797	19.52
734.979	19.11
735.162	19.72
735.344	19.84
735.526	20.13
735.708	20.88
735.891	21.57
736.073	21.99
736.255	21.84
736.437	21.75
736.619	22.04
736.802	21.99
736.984	22.72
737.166	22.72
737.348	22.86
737.53	22.84
737.712	22.14
737.894	22.02
738.076	21.47
738.258	21.87
738.44	22.4
738.622	22.22
738.804	22.78
738.986	22.7
739.168	22.2
739.35	22.16
739.532	22.29
739.714	22.4
739.896	22.07
740.078	21.86
740.259	21.72
740.441	21.2
740.623	21.47
740.805	21.42
740.987	21.46
741.168	21.81
741.35	21.54
741.532	21.64
741.714	21.87
741.895	22.34
742.077	22.66
742.259	22.41
742.44	22.21
742.622	21.97
742.804	21.37
742.985	21.14
743.167	20.68
743.348	20.72
743.53	20.37
743.711	20.66
743.893	20.6
744.075	20.87
744.256	20.54
744.438	20.78
744.619	20.51
744.8	20.25
744.982	20.53
745.163	20.25
745.345	19.48
745.526	19.17
745.707	19.2
745.889	19.28
746.07	18.91
746.252	19.75
746.433	20.35
746.614	20.72
746.795	21.82
746.977	21.82
747.158	22.35
747.339	23.65
747.52	24.1
747.702	23.88
747.883	23.81
748.064	23.83
748.245	23.23
748.426	22.82
748.607	22.52
748.788	22.43
748.97	22.66
749.151	22.74
749.332	22.35
749.513	22.11
749.694	22.09
749.875	22.43
750.056	22.39
750.237	22.92
750.418	23.02
750.599	22.67
750.78	21.91
750.96	21.35
751.141	21.51
751.322	20.81
751.503	21.44
751.684	21.28
751.865	21.09
752.046	20.9
752.226	20.33
752.407	20.4
752.588	20.98
752.769	20.88
752.949	21.38
753.13	20.83
753.311	20.97
753.492	20.62
753.672	21.47
753.853	21.5
754.034	21.39
754.214	21.97
754.395	21.11
754.575	21.15
754.756	21.36
754.937	20.76
755.117	21.25
755.298	21.8
755.478	22.44
755.659	22.1
755.839	21.83
756.02	22.27
756.2	22.36
756.381	22.87
756.561	23.15
756.741	23.42
756.922	23.34
757.102	22.77
757.283	23.19
757.463	22.17
757.643	21.81
757.823	21.54
758.004	21.52
758.184	21.4
758.364	21.85
758.545	21.51
758.725	21.49
758.905	22.05
759.085	22.17
759.265	21.41
759.446	21.8
759.626	21.68
759.806	22.2
759.986	21.72
760.166	21.18
760.346	21.15
760.526	21.19
760.706	20.73
760.886	20.53
761.066	21.02
761.246	21.46
761.426	21.72
761.606	21.69
761.786	21.34
761.966	21.78
762.146	22.28
762.326	21.98
762.506	21.68
762.686	22.13
762.866	21.93
763.046	21.81
763.225	21.4
763.405	21.05
763.585	21.23
763.765	21.15
763.945	21.24
764.124	20.85
764.304	21
764.484	20.82
764.664	21.13
764.843	20.94
765.023	20.9
765.203	21.35
765.382	21.64
765.562	21.29
765.741	21.99
765.921	22
766.101	21.97
766.28	22.12
766.46	22.23
766.639	21.92
766.819	22.24
766.998	22.07
767.178	21.94
767.357	21.69
767.537	21.87
767.716	21.28
767.896	20.8
768.075	21.13
768.254	20.96
768.434	21.32
768.613	20.92
768.792	21.2
768.972	20.71
769.151	20.83
769.33	20.77
769.51	20.22
769.689	20.71
769.868	20.62
770.047	20.75
770.226	20.72
770.406	20.39
770.585	20.12
770.764	20.24
770.943	20.29
771.122	19.69
771.301	19.79
771.48	20.54
771.66	20.53
771.839	21.79
772.018	21.88
772.197	22.26
772.376	23.52
772.555	23.99
772.734	23.25
772.913	23.96
773.092	23.6
773.271	23.93
773.449	24.35
773.628	23.49
773.807	23.31
773.986	23.15
774.165	23.24
774.344	23.24
774.523	22.89
774.701	23.18
774.88	23.89
775.059	24.22
775.238	23.93
775.417	22.86
775.595	23.58
775.774	21.84
775.953	21.62
776.131	21.33
776.31	21.33
776.489	21.18
776.667	21.29
776.846	21.18
777.025	21.89
777.203	21.86
777.382	22.67
777.56	22.45
777.739	23.1
777.917	23.93
778.096	23.75
778.274	22.11
778.453	21.31
778.631	20.75
778.81	20.37
778.988	20.08
779.166	19.39
779.345	18.83
779.523	18.96
779.702	18.55
779.88	18.01
780.058	18.45
780.237	19.08
780.415	20.3
780.593	21.35
780.771	21.46
780.95	21.42
781.128	22.17
781.306	22.31
781.484	22.08
781.662	23.05
781.841	22.77
782.019	22.62
782.197	22.9
782.375	23.02
782.553	22.63
782.731	21.81
782.909	22.2
783.087	21.63
783.265	22.69
783.443	23.04
783.621	22.68
783.799	22.07
783.977	21.64
784.155	22.65
784.333	21.28
784.511	22.21
784.689	22.15
784.867	22.3
785.045	22.45
785.223	21.39
785.4	21.68
785.578	22.22
785.756	23.15
785.934	23.21
786.112	22.58
786.289	24.01
786.467	22.88
786.645	23.5
786.823	23.28
787	24.68
787.178	24.94
787.356	24.8
787.533	25.01
787.711	24.98
787.889	26.02
788.066	25.44
788.244	24.72
788.421	24.14
788.599	24.45
788.776	24.73
788.954	23.83
789.131	23.49
789.309	22.92
789.486	22.28
789.664	21.95
789.841	21.05
790.019	20.7
790.196	21.58
790.373	21.46
790.551	21.97
790.728	20.41
790.906	20.16
791.083	20.06
791.26	19.56
791.437	19.31
791.615	19.72
791.792	19.56
791.969	20.33
792.146	19.71
792.324	21.37
792.501	20.99
792.678	21.51
792.855	22.64
793.032	23.32
793.209	23.39
793.387	23.89
793.564	24.35
793.741	24.47
793.918	24.57
794.095	24.89
794.272	23.48
794.449	23.01
794.626	24.78
794.803	23.48
794.98	23.89
795.157	23.74
795.334	23.61
795.511	22.16
795.688	21.48
795.864	20.85
796.041	20.38
796.218	20.87
796.395	20.71
796.572	19.31
796.749	19.48
796.925	18.66
797.102	20.49
797.279	20.2
797.456	20.47
797.632	21.18
797.809	21.61
797.986	21.9
798.162	22.05
798.339	21.2
798.516	21.13
798.692	21.07
798.869	20.61
799.046	19.29
799.222	18.92
799.399	18.99
799.575	18.42
799.752	18.57
799.928	18.48
800.105	17.54
800.281	18.09
800.458	17.62
800.634	17.28
800.811	18.8
800.987	19.62
801.163	19.62
801.34	19.82
801.516	19.45
801.692	19.81
801.869	19.77
802.045	20.88
802.221	20.95
802.398	22.1
802.574	23.16
802.75	22.9
802.926	23.25
803.103	23.77
803.279	24.15
803.455	25.71
803.631	25.78
803.807	25.37
803.983	25.58
804.16	25.72
804.336	24.76
804.512	24.94
804.688	24.62
804.864	24.68
805.04	25.14
805.216	24.37
805.392	24.25
805.568	24.49
805.744	24.07
805.92	24.5
806.096	24.54
806.272	25.67
806.448	26.34
806.623	26.18
806.799	25.16
806.975	24.32
807.151	25
807.327	23.46
807.503	23.49
807.678	25.32
807.854	24.55
808.03	24.9
808.206	24.46
808.381	23.12
808.557	24.45
808.733	23.85
808.908	24.88
809.084	24.78
809.26	25.3
809.435	24.16
809.611	22.98
809.787	22.94
809.962	21.71
810.138	21.06
810.313	21.91
810.489	21.05
810.664	21.46
810.84	21.73
811.015	21.7
811.191	24.25
811.366	24
811.542	25.15
811.717	25.95
811.892	25.63
812.068	26.46
812.243	26.12
812.419	24.89
812.594	25.21
812.769	25.05
812.944	25.03
813.12	22
813.295	21.94
813.47	20.96
813.645	19.2
813.821	21.01
813.996	19.47
814.171	18.63
814.346	19.01
814.521	18.04
814.697	19.14
814.872	19.05
815.047	18.96
815.222	20.3
815.397	20.37
815.572	20.82
815.747	20.17
815.922	21.29
816.097	21.01
816.272	21.83
816.447	21.31
816.622	19.73
816.797	20.25
816.972	21.27
817.147	20.62
817.322	21.81
817.496	22.3
817.671	23.72
817.846	24.46
818.021	25.63
818.196	25
818.371	27.08
818.545	26.82
818.72	27.89
818.895	27.3
819.069	26.94
819.244	26.76
819.419	27.06
819.594	26.49
819.768	25.44
819.943	25.16
820.117	24.9
820.292	23.95
820.467	24.09
820.641	23.32
820.816	23.71
820.99	23.79
821.165	23.4
821.339	23.77
821.514	23.66
821.688	23.84
821.863	23.53
822.037	23.4
822.212	23.72
822.386	23.74
822.56	23.72
822.735	23.42
822.909	23.07
823.084	23
823.258	22.59
823.432	22.47
823.606	22.5
823.781	22.54
823.955	22.43
824.129	22.34
824.303	22.21
824.478	22.38
824.652	22.6
824.826	23.4
825	23.58
825.174	23.89
825.348	24.15
825.523	24.13
825.697	24.52
825.871	24.97
826.045	24.93
826.219	24.98
826.393	24.26
826.567	24.12
826.741	23.83
826.915	23.7
827.089	23.37
827.263	23.1
827.437	22.53
827.611	22.25
827.784	22.23
827.958	22.09
828.132	22.37
828.306	23.32
828.48	23.47
828.654	23.38
828.827	23.3
829.001	23.3
829.175	23.55
829.349	24.01
829.522	24.43
829.696	24.22
829.87	23.81
830.044	23.33
830.217	22.47
830.391	22.48
830.565	21.78
830.738	22.22
830.912	21.94
831.085	21.86
831.259	22.36
831.432	22.83
831.606	23.41
831.779	23.52
831.953	22.19
832.126	22.44
832.3	21.63
832.473	22.68
832.647	21.92
832.82	22.64
832.994	22.17
833.167	22.85
833.34	22.48
833.514	21.95
833.687	22.17
833.86	22.97
834.034	23.36
834.207	24.15
834.38	23.92
834.553	24.58
834.727	23.71
834.9	22.87
835.073	22.17
835.246	22.79
835.419	22.28
835.593	21.79
835.766	21.76
835.939	21.06
836.112	19.58
836.285	19.73
836.458	18.55
836.631	18.72
836.804	20.91
836.977	20.75
837.15	19.65
837.323	20.83
837.496	21.15
837.669	20.63
837.842	21.35
838.015	23.13
838.188	23.26
838.361	23.96
838.533	22.98
838.706	23.16
838.879	21.73
839.052	21.72
839.225	22.8
839.398	23.89
839.57	23.48
839.743	23.83
839.916	24.12
840.088	23.51
840.261	22.84
840.434	25.23
840.607	26.59
840.779	27.91
840.952	27.96
841.124	27.92
841.297	25.54
841.47	27.83
841.642	25.88
841.815	27.01
841.987	24.47
842.16	27.42
842.332	26.44
842.505	24.96
842.677	24.36
842.85	24.7
843.022	22.46
843.194	22.36
843.367	19.28
843.539	21.78
843.712	19.67
843.884	24.03
844.056	23.7
844.229	26.96
844.401	25.35
844.573	23.94
844.745	24.26
844.918	25.51
845.09	27.9
845.262	29.85
845.434	29.29
845.606	29.92
845.779	27.67
845.951	28.83
846.123	25.15
846.295	24.02
846.467	26.74
846.639	24.45
846.811	22.94
846.983	26.09
847.155	25.46
847.327	22.33
847.499	24.45
847.671	25.41
847.843	21.88
848.015	22.12
848.187	24.48
848.359	24.06
848.531	26.48
848.703	25.99
848.875	25.52
849.047	26.76
849.218	28.68
849.39	26.28
849.562	26.17
849.734	30.34
849.905	33.81
850.077	34.37
850.249	33.77
850.421	29.64
850.592	33.45
850.764	33.72
850.936	35.28
851.107	35.36
851.279	37.77
851.451	38.81
851.622	34.56
851.794	32.42
851.965	33.64
852.137	34.11
852.308	40.34
852.48	37.34
852.651	33.25
852.823	30.04
852.994	31.08
853.166	28.34
853.337	31.23
853.509	31.99
853.68	32.07
853.851	26.62
854.023	25.62
854.194	21.43
854.365	23.01
854.537	23.11
854.708	23.4
854.879	23.32
855.05	26.78
855.222	21.77
855.393	22.89
855.564	23.93
855.735	28.09
855.906	31.3
856.078	28.16
856.249	30.13
856.42	30.83
856.591	27.5
856.762	23.48
856.933	20.91
857.104	19.48
857.275	16.95
857.446	13.23
857.617	14.62
857.788	10.96
857.959	12.28
858.13	10.83
858.301	13.01
858.472	15.01
858.643	16.37
858.814	13.52
858.985	16.13
859.155	13.34
859.326	18.43
859.497	18.44
859.668	19.14
859.839	25.31
860.009	23.38
860.18	25.81
860.351	24.38
860.522	27.03
860.692	29.93
860.863	25.09
861.034	22.78
861.204	22.1
861.375	17.12
861.546	16.72
861.716	10.24
861.887	10.81
862.057	8.36
862.228	7.51
862.398	5.01
862.569	3.27
862.739	7.96
862.91	15.13
863.08	16.2
863.251	22.51
863.421	23.98
863.592	26.74
863.762	28.34
863.932	27.52
864.103	32.21
864.273	35.2
864.443	41.29
864.614	38.73
864.784	38.31
864.954	34.28
865.125	32.44
865.295	31.76
865.465	27.88
865.635	28.26
865.805	32.78
865.976	29.36
866.146	28.77
866.316	17.5
866.486	21.46
866.656	20.22
866.826	18.61
866.996	17.37
867.166	15.84
867.336	15.99
867.506	10.47
867.676	4.86
867.846	5.11
868.016	5.37
868.186	4.98
868.356	4.05
868.526	1.91
868.696	7.66
868.866	9.76
869.036	14.52
869.206	23.41
869.376	28.6
869.545	33.91
869.715	36.67
869.885	30.03
870.055	36
870.224	35.8
870.394	34.57
870.564	33.63
870.734	29.18
870.903	23.3
871.073	22.09
871.243	24.2
871.412	22.43
871.582	16.67
871.751	24.09
871.921	19.22
872.091	18.48
872.26	22.27
872.43	19.3
872.599	21.84
872.769	26.46
872.938	25.86
873.108	24.64
873.277	23.02
873.446	24.7
873.616	25.14
873.785	29.89
873.955	33.51
874.124	29.9
874.293	35.62
874.463	33.73
874.632	28.89
874.801	24.98
874.971	24.18
875.14	21.91
875.309	27.99
875.478	27.94
875.647	22.13
875.817	24.97
875.986	28.08
876.155	24.61
876.324	26.48
876.493	28.93
876.662	31.49
876.831	29.27
877	32.4
877.17	29.19
877.339	26.97
877.508	25.5
877.677	20.62
877.846	20.25
878.015	17.25
878.184	15.66
878.352	17.26
878.521	15.35
878.69	20.97
878.859	18.26
879.028	16.67
879.197	17.45
879.366	18.58
879.534	18.01
879.703	19.25
879.872	23.8
880.041	25.3
880.21	25.78
880.378	25.63
880.547	25.17
880.716	24.71
880.884	25.45
881.053	24.99
881.222	25.03
881.39	26.22
881.559	25.64
881.727	24.55
881.896	24.53
882.065	24.2
882.233	23.74
882.402	23.25
882.57	23.17
882.739	23.82
882.907	23.78
883.076	24.6
883.244	23.78
883.412	24.49
883.581	24.6
883.749	24.74
883.918	25.29
884.086	25.67
884.254	25.03
884.423	25.48
884.591	24.27
884.759	26.07
884.927	25.53
885.096	26.18
885.264	25.63
885.432	25.73
885.6	26.21
885.769	25.72
885.937	26.81
886.105	28.14
886.273	29.84
886.441	29.93
886.609	28.23
886.777	27.26
886.945	26.97
887.113	24.68
887.281	23.7
887.449	24.72
887.617	22.27
887.785	21.48
887.953	19.53
888.121	18.15
888.289	20.13
888.457	22.6
888.625	22.31
888.793	22.69
888.961	24.81
889.129	28.18
889.296	19.44
889.464	22.64
889.632	21.54
889.8	23.27
889.967	20.47
890.135	15.77
