Data from 2938439_Reflection_2.txt Node
Date: Fri Jun 19 18:26:41 EDT 2015
User: robert
Spectrometer: USB4E03002
Autoset integration time: false
Trigger mode: 4
Integration Time (sec): 1.000000E-1
Scans to average: 10
Electric dark correction enabled: true
Nonlinearity correction enabled: false
Boxcar width: 5
Stray light correction enabled: false
XAxis mode: Wavelengths
Stop averaging: false
Number of Pixels in Spectrum: 3648
>>>>>Begin Spectral Data<<<<<
177.575	160.36
177.794	160.23
178.014	96.32
178.233	62.92
178.452	47.05
178.672	31.1
178.891	-166.1
179.11	130.25
179.33	127.68
179.549	123.74
179.768	115.3
179.987	117.45
180.207	144.9
180.426	105.46
180.645	90.72
180.864	83.02
181.084	70.56
181.303	73.94
181.522	83.58
181.741	79.28
181.96	71.69
182.179	78.05
182.398	83.42
182.618	67.06
182.837	58.92
183.056	62.68
183.275	63.65
183.494	77.16
183.713	74.33
183.932	77.68
184.151	66.43
184.37	71.43
184.589	61.14
184.808	62.42
185.027	76.42
185.246	93.89
185.465	103.46
185.684	99.73
185.903	102.33
186.122	101.33
186.341	100.98
186.56	118.05
186.779	112.06
186.998	115.62
187.216	97.08
187.435	83.79
187.654	89.48
187.873	71.98
188.092	74.18
188.311	58.86
188.53	59.4
188.748	59.93
188.967	50.12
189.186	48.9
189.405	45.68
189.623	48.73
189.842	59.87
190.061	42.14
190.28	45.26
190.498	68.01
190.717	110.62
190.936	100.79
191.154	105.11
191.373	115.38
191.592	144.35
191.81	145.35
192.029	161.58
192.248	197.24
192.466	251.31
192.685	272.48
192.904	218.08
193.122	157.83
193.341	223.16
193.559	208.31
193.778	330.45
193.996	315.33
194.215	368.94
194.433	289.68
194.652	173.17
194.87	179.09
195.089	184.57
195.307	141.36
195.526	135.3
195.744	108
195.963	93.85
196.181	63.5
196.399	62.35
196.618	43.87
196.836	46.51
197.055	38.5
197.273	33.9
197.491	43.57
197.71	48.01
197.928	47.66
198.146	40.73
198.365	55.18
198.583	58.42
198.801	51.86
199.019	67.77
199.238	54.81
199.456	67.43
199.674	73.59
199.892	64.49
200.111	56.13
200.329	61.68
200.547	55.66
200.765	40.54
200.983	45.82
201.202	65.89
201.42	60.94
201.638	69.13
201.856	57.02
202.074	55.36
202.292	53.32
202.51	69.77
202.728	74.07
202.946	86.33
203.165	84.6
203.383	60.94
203.601	57.43
203.819	50.52
204.037	57.67
204.255	70.86
204.473	71.36
204.691	69.81
204.909	59.68
205.127	65.16
205.345	60.24
205.562	72.02
205.78	87.39
205.998	79.18
206.216	80.07
206.434	72.65
206.652	66.69
206.87	75.07
207.088	77.37
207.306	86.31
207.523	70.34
207.741	57.56
207.959	61.77
208.177	47.7
208.395	68.13
208.612	64.66
208.83	70.18
209.048	61.59
209.266	60.52
209.483	60
209.701	53.59
209.919	56.31
210.136	71.49
210.354	60.89
210.572	67.78
210.79	58.44
211.007	46.87
211.225	43.71
211.442	46.41
211.66	48.03
211.878	56.24
212.095	116.17
212.313	125.65
212.53	125.44
212.748	142.54
212.966	137.15
213.183	139.78
213.401	151.3
213.618	170.14
213.836	180.22
214.053	189.78
214.271	163.88
214.488	58.09
214.705	55.36
214.923	52.86
215.14	52.54
215.358	47.55
215.575	42.5
215.793	56.26
216.01	51.38
216.227	61.25
216.445	57.84
216.662	61.52
216.879	72.25
217.097	67.98
217.314	59.1
217.531	66.36
217.749	59.16
217.966	51.88
218.183	38.12
218.4	43.98
218.618	41.92
218.835	45.61
219.052	41.36
219.269	41.19
219.487	37.51
219.704	38.05
219.921	34.9
220.138	41.92
220.355	50.12
220.572	51.81
220.79	58.25
221.007	55.86
221.224	62.07
221.441	66.33
221.658	64.44
221.875	60.47
222.092	68.93
222.309	67.43
222.526	60.53
222.743	56.49
222.96	59.53
223.177	52.1
223.394	53.61
223.611	53.41
223.828	52.4
224.045	51.51
224.262	47.78
224.479	46.69
224.696	49.32
224.913	44.68
225.13	38.31
225.347	33.87
225.564	30.2
225.781	29.91
225.997	28.05
226.214	24.87
226.431	22.43
226.648	25.01
226.865	23.8
227.082	20.06
227.298	21.61
227.515	22.1
227.732	22.18
227.949	21.77
228.165	20.82
228.382	20.53
228.599	21.64
228.816	21.33
229.032	20.76
229.249	21.38
229.466	23.7
229.682	22.17
229.899	22.88
230.116	23.51
230.332	24.93
230.549	24.27
230.765	22.9
230.982	19.62
231.199	20.65
231.415	22.02
231.632	20.83
231.848	18.88
232.065	18.35
232.281	14.5
232.498	14.87
232.714	14.54
232.931	16.53
233.147	19.13
233.364	20.94
233.58	21.11
233.797	21.77
234.013	19.73
234.23	22.44
234.446	23.83
234.662	27.68
234.879	28.45
235.095	29.81
235.312	28.18
235.528	27.39
235.744	26.47
235.961	25.98
236.177	22.35
236.393	22.29
236.61	22.08
236.826	24.06
237.042	21.78
237.258	20.46
237.475	20.05
237.691	20.14
237.907	20.63
238.123	22.6
238.339	22.52
238.556	26.74
238.772	28.72
238.988	27.72
239.204	25.71
239.42	25
239.636	23.55
239.853	23.76
240.069	23.53
240.285	22.92
240.501	21.51
240.717	21.13
240.933	19.56
241.149	18.64
241.365	18.6
241.581	18.78
241.797	19.32
242.013	20.7
242.229	20.19
242.445	21.23
242.661	21.18
242.877	21.7
243.093	21.61
243.309	21.38
243.525	21.44
243.741	21.18
243.957	20.1
244.173	18.82
244.388	17.83
244.604	16.95
244.82	15.45
245.036	15.34
245.252	15.54
245.468	15.29
245.683	14.6
245.899	14.37
246.115	13.94
246.331	13.96
246.547	14.11
246.762	14.1
246.978	14.25
247.194	14.81
247.409	14.65
247.625	14.46
247.841	13.99
248.057	14.76
248.272	14.57
248.488	15.3
248.703	16.17
248.919	16.89
249.135	15.73
249.35	16.53
249.566	17.27
249.782	17.77
249.997	18.16
250.213	18.23
250.428	18.02
250.644	18.42
250.859	17.44
251.075	17.47
251.29	16.6
251.506	17.12
251.721	17.09
251.937	15.61
252.152	15.16
252.368	13.91
252.583	14.15
252.798	13.99
253.014	13.76
253.229	13.71
253.445	12.16
253.66	12.38
253.875	13.6
254.091	11.84
254.306	13.16
254.521	12.87
254.737	12.8
254.952	13.42
255.167	12.26
255.383	11.68
255.598	10.93
255.813	11.73
256.028	11.69
256.244	10.91
256.459	11.4
256.674	10.94
256.889	11.53
257.104	11.73
257.32	11.47
257.535	12
257.75	12.05
257.965	12.48
258.18	12.32
258.395	12.71
258.61	12.54
258.826	12.13
259.041	11.84
259.256	11.28
259.471	11.47
259.686	11.85
259.901	11.99
260.116	12.06
260.331	11.8
260.546	12
260.761	11.56
260.976	11.99
261.191	12.67
261.406	13.12
261.621	13.21
261.836	12.91
262.05	12.18
262.265	12.42
262.48	11.98
262.695	12.21
262.91	13.66
263.125	13.94
263.34	14.12
263.555	14
263.769	14.2
263.984	15.05
264.199	15.37
264.414	15.55
264.629	15.45
264.843	16.53
265.058	16.16
265.273	14.26
265.488	13.62
265.702	12.6
265.917	12.46
266.132	13.08
266.346	13.29
266.561	13.67
266.776	13.52
266.99	13.45
267.205	12.94
267.42	13.44
267.634	14.18
267.849	14.99
268.063	16.34
268.278	16.83
268.492	15.72
268.707	15.15
268.922	14.45
269.136	14.32
269.351	14.31
269.565	13.9
269.78	13.53
269.994	13.1
270.209	12.58
270.423	11.51
270.637	11.17
270.852	11.3
271.066	11.7
271.281	12.66
271.495	12.9
271.709	12.16
271.924	12.04
272.138	12.18
272.353	12.14
272.567	12.8
272.781	13.46
272.996	13.61
273.21	13.7
273.424	13.02
273.638	12.65
273.853	13.32
274.067	14.61
274.281	14.63
274.495	14.42
274.71	13.68
274.924	13.18
275.138	12.49
275.352	13.09
275.566	13.4
275.781	13.84
275.995	13.33
276.209	12.25
276.423	12.68
276.637	12.71
276.851	13.02
277.065	14.36
277.279	15.16
277.493	16.13
277.707	15.6
277.921	16.14
278.135	16.19
278.349	15.94
278.563	16.18
278.777	14.95
278.991	15.22
279.205	14.42
279.419	14.31
279.633	13.4
279.847	12.99
280.061	13.05
280.275	13.05
280.489	13.22
280.703	13.7
280.917	13.08
281.131	13.39
281.344	13.54
281.558	13.96
281.772	13.38
281.986	14.2
282.2	14.48
282.414	13.92
282.627	12.82
282.841	12.22
283.055	11.9
283.269	12.41
283.482	12.29
283.696	12.06
283.91	12.03
284.123	12.25
284.337	11.13
284.551	10.73
284.764	11.09
284.978	11.54
285.192	12.11
285.405	11.89
285.619	11.69
285.833	11.88
286.046	11.99
286.26	12.63
286.473	13.11
286.687	13.25
286.9	13.57
287.114	13.5
287.327	13.76
287.541	13.62
287.754	13.65
287.968	14
288.181	13.55
288.395	13.9
288.608	13.57
288.822	13.56
289.035	14.11
289.248	13.8
289.462	14.22
289.675	14.49
289.889	15.03
290.102	15.59
290.315	15.21
290.529	15.15
290.742	14.58
290.955	14.88
291.169	14.47
291.382	15.08
291.595	15.96
291.808	15.28
292.022	15.45
292.235	14.61
292.448	14.54
292.661	14.82
292.875	14.48
293.088	14.78
293.301	14.68
293.514	14.43
293.727	14.21
293.94	13.92
294.153	14
294.367	13.85
294.58	13.82
294.793	13.73
295.006	13.83
295.219	14.2
295.432	13.58
295.645	12.85
295.858	12.89
296.071	12.03
296.284	11.83
296.497	11.75
296.71	11.5
296.923	12.1
297.136	11.91
297.349	11.79
297.562	12.1
297.775	12.65
297.988	12.97
298.201	13.37
298.414	14.01
298.626	13.89
298.839	13.97
299.052	13.86
299.265	12.54
299.478	13.02
299.691	13.43
299.903	13.21
300.116	13.17
300.329	13.95
300.542	14.23
300.755	14.44
300.967	14.73
301.18	14.88
301.393	15.48
301.605	16.35
301.818	15.47
302.031	14.59
302.243	14.17
302.456	14.97
302.669	14.91
302.881	15.24
303.094	15.2
303.307	14.65
303.519	14.81
303.732	14.29
303.944	14.38
304.157	15.2
304.37	16.19
304.582	16.56
304.795	15.17
305.007	15.2
305.22	14.5
305.432	14.39
305.645	15.56
305.857	15.71
306.069	15.43
306.282	15.23
306.494	15.05
306.707	14.74
306.919	14.55
307.132	15.59
307.344	15.5
307.556	15.39
307.769	15.46
307.981	15
308.193	14.51
308.406	14.6
308.618	14.59
308.83	13.92
309.043	13.98
309.255	14.21
309.467	13.68
309.679	13.4
309.892	13.02
310.104	13.05
310.316	13.27
310.528	13.65
310.74	14
310.953	13.83
311.165	14.33
311.377	14.22
311.589	14.57
311.801	14.33
312.013	14.4
312.225	14.83
312.437	14.42
312.649	13.81
312.862	13.49
313.074	13.41
313.286	13.74
313.498	13.87
313.71	13.62
313.922	13.6
314.134	13.75
314.346	14.08
314.558	14.37
314.77	14.35
314.982	15.15
315.193	15.71
315.405	14.96
315.617	14.5
315.829	14.58
316.041	14.75
316.253	13.79
316.465	14.56
316.677	14.39
316.888	14.75
317.1	15.41
317.312	15.17
317.524	14.62
317.736	14.6
317.947	15.28
318.159	15.47
318.371	15.63
318.583	16.91
318.794	16.61
319.006	16.5
319.218	16.24
319.43	16.23
319.641	15.68
319.853	16.39
320.064	17.51
320.276	16.46
320.488	16.56
320.699	15.93
320.911	15.37
321.123	14.96
321.334	14.84
321.546	14.87
321.757	15.41
321.969	15.78
322.18	14.98
322.392	14.1
322.603	14.74
322.815	14.73
323.026	15.24
323.238	14.77
323.449	15.31
323.661	15.63
323.872	15.27
324.083	14.8
324.295	14.56
324.506	15.41
324.718	16.2
324.929	16.84
325.14	16.25
325.352	16.45
325.563	16.8
325.774	16.66
325.986	16.03
326.197	16.18
326.408	15.86
326.62	15.7
326.831	15.42
327.042	15.14
327.253	14.87
327.464	15.05
327.676	14.98
327.887	15.07
328.098	14.95
328.309	15.59
328.52	15.02
328.732	16.08
328.943	15.56
329.154	15.87
329.365	15.44
329.576	15
329.787	15.45
329.998	15.4
330.209	14.87
330.42	15.08
330.631	14.58
330.842	15.36
331.053	15.15
331.264	15.69
331.475	15.52
331.686	16.24
331.897	16.5
332.108	16.08
332.319	15.14
332.53	15.93
332.741	16.39
332.952	17.15
333.163	16.55
333.374	15.9
333.585	16.59
333.795	16.22
334.006	15.82
334.217	15.78
334.428	16
334.639	16.73
334.849	16.84
335.06	16.4
335.271	16.03
335.482	16
335.692	16.18
335.903	16.31
336.114	16.15
336.325	16.65
336.535	16.92
336.746	16.08
336.957	15.64
337.167	15.54
337.378	15.46
337.589	15.55
337.799	16.07
338.01	15.99
338.22	15.87
338.431	16.62
338.642	15.96
338.852	15.52
339.063	16.34
339.273	16.76
339.484	16.2
339.694	16.77
339.905	16.78
340.115	16.83
340.326	16.36
340.536	16.32
340.746	15.82
340.957	15.9
341.167	16.84
341.378	16.79
341.588	17.1
341.799	17.38
342.009	16.83
342.219	16.5
342.43	16.35
342.64	17.21
342.85	16.79
343.061	17.15
343.271	17.12
343.481	16.72
343.691	16.88
343.902	16.5
344.112	16.41
344.322	16.18
344.532	16.6
344.743	17.14
344.953	16.62
345.163	16.79
345.373	16.43
345.583	16.53
345.793	15.86
346.004	15.47
346.214	15.75
346.424	15.99
346.634	15.93
346.844	15.3
347.054	15.05
347.264	15
347.474	15.86
347.684	15.82
347.894	16.01
348.104	16.37
348.314	17.37
348.524	17.09
348.734	16.53
348.944	16.81
349.154	17.06
349.364	16.46
349.574	16.7
349.784	16.09
349.994	16.71
350.204	16.21
350.413	16.5
350.623	15.81
350.833	15.53
351.043	15.79
351.253	15.54
351.463	15.45
351.672	15.96
351.882	15.33
352.092	15.63
352.302	15.12
352.511	15.45
352.721	14.96
352.931	14.86
353.141	14.86
353.35	15.01
353.56	15.07
353.77	15.92
353.979	15.54
354.189	15.79
354.399	15.44
354.608	15.7
354.818	15.57
355.027	15.56
355.237	15.14
355.447	15.37
355.656	15.18
355.866	14.91
356.075	14.31
356.285	14.15
356.494	14.07
356.704	13.85
356.913	13.23
357.123	13.36
357.332	13.34
357.542	13.67
357.751	13.51
357.96	13.57
358.17	13.84
358.379	13.9
358.589	14.19
358.798	14.13
359.007	14.48
359.217	14.74
359.426	14.47
359.635	14.59
359.845	14.52
360.054	14.57
360.263	14.15
360.472	14.19
360.682	14.14
360.891	13.95
361.1	14.1
361.309	13.93
361.519	13.8
361.728	13.9
361.937	13.65
362.146	13.54
362.355	13.17
362.564	13.27
362.774	13.2
362.983	12.79
363.192	12.77
363.401	12.54
363.61	11.84
363.819	11.78
364.028	11.51
364.237	11.36
364.446	11.78
364.655	12.33
364.864	12.21
365.073	12.14
365.282	12.03
365.491	12.31
365.7	12.53
365.909	12.98
366.118	13.22
366.327	13.4
366.536	13.31
366.745	13.2
366.954	13.37
367.162	13.83
367.371	13.88
367.58	13.94
367.789	13.77
367.998	13.68
368.207	13.8
368.415	13.63
368.624	13.61
368.833	13.83
369.042	13.39
369.25	12.56
369.459	12.38
369.668	11.92
369.877	12.4
370.085	12.63
370.294	12.43
370.503	11.92
370.711	11.75
370.92	11.83
371.129	11.65
371.337	11.92
371.546	12.31
371.754	12.41
371.963	13.03
372.171	12.87
372.38	12.68
372.589	13
372.797	12.98
373.006	13.06
373.214	12.99
373.423	13.2
373.631	12.86
373.84	12.64
374.048	12.26
374.256	11.5
374.465	11.46
374.673	11.24
374.882	11.2
375.09	11.62
375.298	11.55
375.507	11.1
375.715	10.75
375.923	10.63
376.132	10.49
376.34	10.49
376.548	10.61
376.757	10.38
376.965	10.6
377.173	10.3
377.381	9.89
377.59	10.06
377.798	10.37
378.006	10.52
378.214	10.66
378.423	10.92
378.631	10.98
378.839	11.07
379.047	11.03
379.255	10.79
379.463	10.72
379.671	10.66
379.879	10.37
380.088	10.34
380.296	10.52
380.504	10.12
380.712	9.94
380.92	9.99
381.128	10.19
381.336	10.13
381.544	9.87
381.752	9.85
381.96	10.07
382.168	10.25
382.376	9.96
382.584	9.7
382.791	9.96
382.999	10.17
383.207	10.12
383.415	9.89
383.623	9.93
383.831	9.91
384.039	9.5
384.247	9.37
384.454	9.04
384.662	8.91
384.87	8.79
385.078	8.46
385.285	8.09
385.493	7.77
385.701	7.5
385.909	7.19
386.116	7.1
386.324	7.35
386.532	7.1
386.739	6.99
386.947	7.06
387.155	7.02
387.362	7.13
387.57	6.95
387.778	7.02
387.985	7.31
388.193	7.29
388.4	7.39
388.608	7.47
388.816	7.65
389.023	7.71
389.231	7.56
389.438	7.15
389.646	7.13
389.853	7
390.061	6.75
390.268	6.53
390.475	6.54
390.683	6.4
390.89	6.16
391.098	5.99
391.305	5.96
391.512	5.91
391.72	6.16
391.927	6.07
392.135	6.19
392.342	6.12
392.549	6.02
392.756	6.1
392.964	6.05
393.171	6.1
393.378	6.01
393.586	6.06
393.793	6.35
394	6.3
394.207	6.34
394.414	6.34
394.622	6.38
394.829	6.46
395.036	6.08
395.243	5.89
395.45	5.84
395.657	5.7
395.864	5.44
396.072	5.12
396.279	5.12
396.486	5.01
396.693	4.89
396.9	4.87
397.107	4.96
397.314	5.12
397.521	5.22
397.728	5.27
397.935	5.23
398.142	5.44
398.349	5.48
398.556	5.49
398.763	5.43
398.97	5.41
399.177	5.62
399.383	5.34
399.59	5.39
399.797	5.45
400.004	5.25
400.211	5.43
400.418	5.2
400.625	5.17
400.831	5.13
401.038	5.05
401.245	5.05
401.452	4.85
401.658	5.03
401.865	5.08
402.072	5.14
402.279	5.17
402.485	5.23
402.692	5.28
402.899	5.17
403.105	5.19
403.312	5.21
403.519	5.1
403.725	5.02
403.932	5.03
404.138	5.05
404.345	4.97
404.552	4.92
404.758	4.84
404.965	4.78
405.171	4.75
405.378	4.76
405.584	4.85
405.791	4.84
405.997	4.88
406.204	4.76
406.41	4.64
406.617	4.59
406.823	4.81
407.029	4.75
407.236	4.76
407.442	4.91
407.649	4.7
407.855	4.68
408.061	4.89
408.268	5.04
408.474	5.06
408.68	4.96
408.887	5.01
409.093	4.84
409.299	4.9
409.505	4.85
409.712	4.77
409.918	4.85
410.124	4.8
410.33	4.57
410.537	4.53
410.743	4.63
410.949	4.85
411.155	4.71
411.361	4.61
411.567	4.5
411.773	4.49
411.98	4.38
412.186	4.53
412.392	4.48
412.598	4.6
412.804	4.54
413.01	4.34
413.216	4.19
413.422	4.37
413.628	4.46
413.834	4.41
414.04	4.33
414.246	4.57
414.452	4.48
414.658	4.54
414.864	4.5
415.07	4.35
415.275	4.46
415.481	4.45
415.687	4.36
415.893	4.4
416.099	4.37
416.305	4.51
416.511	4.36
416.716	4.26
416.922	4.17
417.128	4.2
417.334	4.28
417.539	4.18
417.745	4.16
417.951	4.04
418.157	3.91
418.362	3.91
418.568	3.79
418.774	3.78
418.979	3.8
419.185	3.78
419.391	3.76
419.596	3.69
419.802	3.67
420.008	3.65
420.213	3.7
420.419	3.76
420.624	3.76
420.83	3.73
421.035	3.73
421.241	3.68
421.446	3.71
421.652	3.62
421.857	3.65
422.063	3.64
422.268	3.61
422.474	3.66
422.679	3.62
422.885	3.59
423.09	3.62
423.295	3.6
423.501	3.67
423.706	3.63
423.911	3.64
424.117	3.6
424.322	3.68
424.527	3.67
424.733	3.61
424.938	3.71
425.143	3.7
425.349	3.71
425.554	3.74
425.759	3.73
425.964	3.85
426.169	3.88
426.375	3.91
426.58	3.93
426.785	4
426.99	4.01
427.195	3.91
427.4	3.95
427.605	3.94
427.811	3.91
428.016	3.99
428.221	3.86
428.426	3.85
428.631	3.91
428.836	3.81
429.041	3.82
429.246	3.84
429.451	3.93
429.656	4.06
429.861	4.09
430.066	4.1
430.271	4.01
430.476	4.08
430.681	3.99
430.886	3.97
431.09	3.92
431.295	3.83
431.5	3.83
431.705	3.78
431.91	3.77
432.115	3.72
432.32	3.74
432.524	3.66
432.729	3.57
432.934	3.64
433.139	3.58
433.343	3.56
433.548	3.6
433.753	3.57
433.958	3.51
434.162	3.48
434.367	3.46
434.572	3.34
434.776	3.33
434.981	3.36
435.186	3.42
435.39	3.52
435.595	3.54
435.799	3.56
436.004	3.49
436.209	3.55
436.413	3.45
436.618	3.44
436.822	3.52
437.027	3.52
437.231	3.49
437.436	3.49
437.64	3.46
437.845	3.37
438.049	3.32
438.253	3.31
438.458	3.31
438.662	3.29
438.867	3.37
439.071	3.35
439.275	3.38
439.48	3.48
439.684	3.47
439.888	3.46
440.093	3.51
440.297	3.52
440.501	3.58
440.706	3.59
440.91	3.63
441.114	3.57
441.318	3.49
441.523	3.42
441.727	3.28
441.931	3.19
442.135	3.21
442.339	3.27
442.543	3.25
442.748	3.22
442.952	3.24
443.156	3.18
443.36	3.21
443.564	3.26
443.768	3.24
443.972	3.27
444.176	3.32
444.38	3.21
444.584	3.22
444.788	3.24
444.992	3.2
445.196	3.17
445.4	3.15
445.604	3.08
445.808	3.06
446.012	3.15
446.216	3.15
446.42	3.12
446.624	3.12
446.828	3.08
447.032	3.04
447.235	3.08
447.439	3.05
447.643	3.05
447.847	3.19
448.051	3.26
448.254	3.13
448.458	3.16
448.662	3.14
448.866	3.16
449.069	3.14
449.273	3.2
449.477	3.2
449.681	3.16
449.884	3.21
450.088	3.2
450.292	3.14
450.495	3.3
450.699	3.25
450.902	3.27
451.106	3.29
451.31	3.24
451.513	3.27
451.717	3.26
451.92	3.34
452.124	3.32
452.327	3.21
452.531	3.21
452.734	3.2
452.938	3.26
453.141	3.28
453.345	3.23
453.548	3.32
453.752	3.27
453.955	3.37
454.158	3.28
454.362	3.38
454.565	3.5
454.769	3.46
454.972	3.35
455.175	3.32
455.379	3.39
455.582	3.39
455.785	3.32
455.988	3.26
456.192	3.13
456.395	3.14
456.598	3.03
456.801	2.89
457.005	2.84
457.208	2.84
457.411	2.79
457.614	2.75
457.817	2.82
458.021	2.84
458.224	2.83
458.427	2.84
458.63	2.84
458.833	2.81
459.036	2.83
459.239	2.95
459.442	2.96
459.645	3.05
459.848	3.01
460.051	3.04
460.254	3.07
460.457	3.16
460.66	3.23
460.863	3.32
461.066	3.42
461.269	3.55
461.472	3.54
461.675	3.56
461.878	3.54
462.081	3.64
462.284	3.62
462.486	3.52
462.689	3.57
462.892	3.49
463.095	3.39
463.298	3.3
463.5	3.21
463.703	3.21
463.906	3.22
464.109	3.12
464.311	3.1
464.514	3.07
464.717	3.17
464.92	3.05
465.122	3.09
465.325	3.15
465.528	3.32
465.73	3.32
465.933	3.25
466.135	3.28
466.338	3.4
466.541	3.41
466.743	3.43
466.946	3.46
467.148	3.48
467.351	3.5
467.553	3.44
467.756	3.37
467.958	3.29
468.161	3.45
468.363	3.49
468.566	3.4
468.768	3.37
468.971	3.43
469.173	3.47
469.375	3.43
469.578	3.49
469.78	3.51
469.983	3.46
470.185	3.5
470.387	3.33
470.59	3.26
470.792	3.25
470.994	3.26
471.196	3.21
471.399	3.08
471.601	3.16
471.803	3
472.005	3.04
472.208	3.17
472.41	3.22
472.612	3.18
472.814	3.06
473.016	3.16
473.218	3.17
473.421	3.23
473.623	3.34
473.825	3.34
474.027	3.45
474.229	3.47
474.431	3.44
474.633	3.42
474.835	3.58
475.037	3.69
475.239	3.55
475.441	3.45
475.643	3.44
475.845	3.38
476.047	3.26
476.249	3.24
476.451	3.22
476.653	3.18
476.855	3.13
477.057	3.13
477.258	3.15
477.46	3.25
477.662	3.33
477.864	3.28
478.066	3.24
478.268	3.37
478.469	3.39
478.671	3.35
478.873	3.29
479.075	3.35
479.276	3.34
479.478	3.34
479.68	3.29
479.882	3.22
480.083	3.19
480.285	3.22
480.487	3.09
480.688	3.02
480.89	2.97
481.091	2.95
481.293	2.96
481.495	2.93
481.696	2.86
481.898	2.83
482.099	2.8
482.301	2.79
482.502	2.76
482.704	2.78
482.905	2.8
483.107	2.84
483.308	2.86
483.51	2.83
483.711	2.83
483.913	2.89
484.114	2.91
484.315	2.95
484.517	2.98
484.718	3.02
484.92	3
485.121	3
485.322	2.98
485.524	2.99
485.725	2.99
485.926	3
486.127	2.95
486.329	2.95
486.53	2.99
486.731	2.99
486.932	2.99
487.134	3.01
487.335	3.03
487.536	3.02
487.737	2.99
487.938	3.01
488.139	3
488.341	3.04
488.542	3.04
488.743	2.99
488.944	3
489.145	2.97
489.346	3.01
489.547	2.98
489.748	2.96
489.949	2.95
490.15	2.94
490.351	2.93
490.552	2.94
490.753	2.93
490.954	2.96
491.155	2.95
491.356	2.97
491.557	2.97
491.758	2.97
491.959	3.04
492.159	3.13
492.36	3.18
492.561	3.2
492.762	3.23
492.963	3.33
493.164	3.35
493.364	3.42
493.565	3.48
493.766	3.46
493.967	3.58
494.167	3.53
494.368	3.48
494.569	3.46
494.769	3.46
494.97	3.43
495.171	3.36
495.371	3.35
495.572	3.34
495.773	3.22
495.973	3.27
496.174	3.18
496.375	3.18
496.575	3.16
496.776	3.14
496.976	3.17
497.177	3.15
497.377	3.25
497.578	3.3
497.778	3.31
497.979	3.37
498.179	3.34
498.38	3.38
498.58	3.4
498.78	3.37
498.981	3.4
499.181	3.4
499.382	3.43
499.582	3.41
499.782	3.36
499.983	3.4
500.183	3.43
500.383	3.55
500.584	3.62
500.784	3.61
500.984	3.69
501.184	3.73
501.385	3.72
501.585	3.72
501.785	3.66
501.985	3.71
502.185	3.71
502.386	3.69
502.586	3.68
502.786	3.64
502.986	3.69
503.186	3.68
503.386	3.65
503.586	3.67
503.786	3.76
503.987	3.85
504.187	3.79
504.387	3.75
504.587	3.78
504.787	3.81
504.987	3.82
505.187	3.85
505.387	4
505.587	4.04
505.786	4.11
505.986	4.04
506.186	4.1
506.386	4.2
506.586	4.22
506.786	4.26
506.986	4.21
507.186	4.27
507.386	4.22
507.585	4.12
507.785	4.16
507.985	4.11
508.185	4.18
508.384	4.14
508.584	4.19
508.784	4.3
508.984	4.34
509.183	4.36
509.383	4.34
509.583	4.39
509.782	4.41
509.982	4.43
510.182	4.53
510.381	4.53
510.581	4.53
510.781	4.52
510.98	4.46
511.18	4.44
511.379	4.45
511.579	4.55
511.778	4.58
511.978	4.74
512.177	4.73
512.377	4.67
512.576	4.77
512.776	4.84
512.975	4.78
513.175	4.84
513.374	4.81
513.573	4.88
513.773	4.81
513.972	4.85
514.172	4.78
514.371	4.86
514.57	4.95
514.77	4.88
514.969	4.85
515.168	4.84
515.367	4.9
515.567	5.05
515.766	4.96
515.965	5
516.164	4.97
516.364	4.99
516.563	4.94
516.762	4.93
516.961	4.97
517.16	4.95
517.359	4.98
517.559	4.95
517.758	4.98
517.957	5.1
518.156	5.17
518.355	5.26
518.554	5.3
518.753	5.34
518.952	5.4
519.151	5.43
519.35	5.52
519.549	5.63
519.748	5.73
519.947	5.62
520.146	5.57
520.345	5.53
520.544	5.53
520.743	5.54
520.942	5.66
521.141	5.65
521.339	5.69
521.538	5.8
521.737	5.8
521.936	5.77
522.135	5.85
522.333	5.81
522.532	5.81
522.731	5.76
522.93	5.76
523.129	5.73
523.327	5.7
523.526	5.68
523.725	5.6
523.923	5.61
524.122	5.65
524.321	5.7
524.519	5.74
524.718	5.8
524.917	5.87
525.115	5.85
525.314	5.85
525.512	5.83
525.711	5.82
525.909	5.83
526.108	5.82
526.306	5.75
526.505	5.76
526.703	5.77
526.902	5.76
527.1	5.74
527.299	5.77
527.497	5.78
527.696	5.85
527.894	5.91
528.092	5.93
528.291	5.97
528.489	6.05
528.688	6.08
528.886	6.14
529.084	6.18
529.283	6.24
529.481	6.27
529.679	6.33
529.877	6.31
530.076	6.3
530.274	6.34
530.472	6.33
530.67	6.35
530.869	6.37
531.067	6.39
531.265	6.42
531.463	6.46
531.661	6.47
531.859	6.44
532.057	6.5
532.255	6.51
532.454	6.54
532.652	6.61
532.85	6.63
533.048	6.67
533.246	6.64
533.444	6.66
533.642	6.64
533.84	6.6
534.038	6.68
534.236	6.6
534.434	6.64
534.632	6.64
534.83	6.62
535.027	6.62
535.225	6.64
535.423	6.67
535.621	6.68
535.819	6.79
536.017	6.88
536.215	6.89
536.412	7.03
536.61	7.07
536.808	7.12
537.006	7.15
537.203	7.27
537.401	7.3
537.599	7.38
537.797	7.44
537.994	7.33
538.192	7.35
538.39	7.37
538.587	7.37
538.785	7.37
538.983	7.41
539.18	7.44
539.378	7.35
539.575	7.35
539.773	7.37
539.97	7.33
540.168	7.37
540.366	7.47
540.563	7.46
540.761	7.48
540.958	7.52
541.155	7.52
541.353	7.54
541.55	7.62
541.748	7.62
541.945	7.63
542.143	7.71
542.34	7.81
542.537	7.8
542.735	7.89
542.932	7.9
543.129	7.93
543.327	7.94
543.524	7.96
543.721	7.97
543.919	8.06
544.116	8.06
544.313	8.03
544.51	8.01
544.708	7.96
544.905	7.91
545.102	7.92
545.299	7.95
545.496	8.06
545.693	8.07
545.891	8.14
546.088	8.13
546.285	8.25
546.482	8.36
546.679	8.4
546.876	8.53
547.073	8.7
547.27	8.74
547.467	8.67
547.664	8.61
547.861	8.69
548.058	8.8
548.255	8.88
548.452	8.9
548.649	8.93
548.846	8.99
549.043	9.09
549.24	9.07
549.437	9.12
549.633	9.28
549.83	9.32
550.027	9.37
550.224	9.37
550.421	9.38
550.618	9.45
550.814	9.43
551.011	9.46
551.208	9.45
551.405	9.5
551.601	9.65
551.798	9.69
551.995	9.81
552.191	9.83
552.388	9.83
552.585	9.82
552.781	9.7
552.978	9.77
553.175	9.87
553.371	9.96
553.568	10.05
553.764	9.97
553.961	10.09
554.157	10.12
554.354	10.26
554.55	10.33
554.747	10.47
554.943	10.71
555.14	10.78
555.336	10.79
555.533	10.82
555.729	10.89
555.926	11
556.122	11.01
556.318	11.14
556.515	11.09
556.711	11.13
556.907	11.22
557.104	11.25
557.3	11.39
557.496	11.47
557.693	11.47
557.889	11.44
558.085	11.58
558.281	11.68
558.478	11.75
558.674	11.95
558.87	11.92
559.066	12
559.262	12.16
559.459	12.17
559.655	12.31
559.851	12.44
560.047	12.59
560.243	12.58
560.439	12.62
560.635	12.57
560.831	12.59
561.027	12.67
561.223	12.71
561.419	12.6
561.615	12.66
561.811	12.61
562.007	12.63
562.203	12.7
562.399	12.67
562.595	12.66
562.791	12.93
562.987	12.95
563.183	13.16
563.379	13.2
563.575	13.28
563.771	13.37
563.966	13.45
564.162	13.51
564.358	13.51
564.554	13.7
564.75	13.8
564.945	13.77
565.141	13.88
565.337	13.99
565.533	14.07
565.728	14.13
565.924	14.21
566.12	14.28
566.315	14.32
566.511	14.4
566.707	14.46
566.902	14.52
567.098	14.56
567.293	14.58
567.489	14.59
567.684	14.67
567.88	14.79
568.076	14.84
568.271	14.9
568.467	15.03
568.662	15.12
568.858	15.11
569.053	15.27
569.248	15.29
569.444	15.4
569.639	15.46
569.835	15.57
570.03	15.59
570.225	15.58
570.421	15.6
570.616	15.7
570.812	15.71
571.007	15.73
571.202	15.75
571.397	15.87
571.593	15.85
571.788	15.89
571.983	15.98
572.178	16.07
572.374	16.15
572.569	16.34
572.764	16.34
572.959	16.47
573.154	16.71
573.35	16.79
573.545	16.85
573.74	16.98
573.935	17.08
574.13	17.1
574.325	17.13
574.52	17.25
574.715	17.23
574.91	17.25
575.105	17.22
575.3	17.26
575.495	17.27
575.69	17.25
575.885	17.28
576.08	17.32
576.275	17.43
576.47	17.62
576.665	17.63
576.86	17.67
577.055	17.86
577.25	17.98
577.444	17.88
577.639	17.95
577.834	18.08
578.029	18.3
578.224	18.22
578.418	18.21
578.613	18.18
578.808	18.16
579.003	18.22
579.197	18.22
579.392	18.3
579.587	18.47
579.781	18.54
579.976	18.6
580.171	18.59
580.365	18.68
580.56	18.67
580.755	18.75
580.949	18.93
581.144	19.09
581.338	19.09
581.533	19.13
581.727	19.1
581.922	19.18
582.116	19.27
582.311	19.23
582.505	19.37
582.7	19.47
582.894	19.63
583.089	19.5
583.283	19.45
583.478	19.46
583.672	19.57
583.866	19.55
584.061	19.47
584.255	19.49
584.449	19.57
584.644	19.53
584.838	19.57
585.032	19.5
585.226	19.76
585.421	19.93
585.615	19.96
585.809	19.8
586.003	19.84
586.198	20.01
586.392	19.99
586.586	20.15
586.78	20.19
586.974	20.06
587.168	20.11
587.363	20.11
587.557	20.02
587.751	20.09
587.945	20.11
588.139	20.25
588.333	20.24
588.527	20.28
588.721	20.15
588.915	20.27
589.109	20.54
589.303	20.52
589.497	20.49
589.691	20.62
589.885	20.6
590.079	20.83
590.273	20.85
590.466	20.86
590.66	20.87
590.854	20.9
591.048	20.79
591.242	20.75
591.436	20.87
591.629	20.88
591.823	20.89
592.017	21.07
592.211	21.17
592.404	21.08
592.598	21.2
592.792	21.34
592.986	21.28
593.179	21.39
593.373	21.43
593.567	21.46
593.76	21.57
593.954	21.63
594.147	21.63
594.341	21.6
594.535	21.68
594.728	21.55
594.922	21.52
595.115	21.59
595.309	21.62
595.502	21.51
595.696	21.43
595.889	21.38
596.083	21.36
596.276	21.28
596.47	21.29
596.663	21.4
596.856	21.56
597.05	21.53
597.243	21.52
597.437	21.52
597.63	21.57
597.823	21.66
598.017	21.64
598.21	21.41
598.403	21.54
598.596	21.47
598.79	21.4
598.983	21.39
599.176	21.57
599.369	21.53
599.563	21.58
599.756	21.74
599.949	21.71
600.142	21.8
600.335	22.05
600.528	21.96
600.722	22.04
600.915	22.13
601.108	22.11
601.301	22.01
601.494	22.11
601.687	22.12
601.88	22.05
602.073	22.04
602.266	22.09
602.459	22.1
602.652	22.15
602.845	22.09
603.038	22.05
603.231	22.01
603.424	22.08
603.617	22.15
603.809	22.17
604.002	22.24
604.195	22.33
604.388	22.35
604.581	22.48
604.774	22.56
604.966	22.66
605.159	22.75
605.352	22.87
605.545	22.92
605.737	22.94
605.93	23.04
606.123	23.15
606.316	23.19
606.508	23.16
606.701	23.03
606.894	22.85
607.086	22.86
607.279	22.79
607.471	22.79
607.664	22.83
607.857	22.91
608.049	22.87
608.242	22.93
608.434	22.91
608.627	22.92
608.819	23.1
609.012	23.31
609.204	23.46
609.397	23.56
609.589	23.59
609.782	23.63
609.974	23.53
610.166	23.59
610.359	23.61
610.551	23.53
610.743	23.47
610.936	23.32
611.128	23.33
611.32	23.35
611.513	23.35
611.705	23.46
611.897	23.34
612.09	23.49
612.282	23.53
612.474	23.34
612.666	23.63
612.858	23.72
613.051	23.75
613.243	23.69
613.435	23.58
613.627	23.49
613.819	23.4
614.011	23.55
614.203	23.51
614.395	23.44
614.588	23.58
614.78	23.46
614.972	23.63
615.164	23.63
615.356	23.81
615.548	23.59
615.74	23.72
615.932	23.75
616.124	23.65
616.315	23.59
616.507	23.62
616.699	23.65
616.891	23.57
617.083	23.55
617.275	23.52
617.467	23.35
617.659	23.6
617.85	23.59
618.042	23.62
618.234	23.64
618.426	23.69
618.618	23.52
618.809	23.54
619.001	23.61
619.193	23.73
619.384	23.53
619.576	23.74
619.768	23.63
619.959	23.68
620.151	23.73
620.343	23.77
620.534	23.79
620.726	23.86
620.917	23.68
621.109	23.87
621.301	23.75
621.492	24.06
621.684	24
621.875	24.08
622.067	24.07
622.258	23.99
622.45	24.09
622.641	24.26
622.832	24.45
623.024	24.55
623.215	24.57
623.407	24.59
623.598	24.58
623.789	24.61
623.981	24.56
624.172	24.52
624.363	24.51
624.555	24.53
624.746	24.42
624.937	24.33
625.129	24.34
625.32	24.23
625.511	24.3
625.702	24.22
625.893	24.31
626.085	24.25
626.276	24.36
626.467	24.45
626.658	24.54
626.849	24.55
627.04	24.62
627.231	24.59
627.422	24.58
627.614	24.55
627.805	24.64
627.996	24.57
628.187	24.71
628.378	24.55
628.569	24.54
628.76	24.5
628.951	24.59
629.142	24.61
629.332	24.7
629.523	24.83
629.714	24.73
629.905	24.67
630.096	24.55
630.287	24.59
630.478	24.76
630.669	24.75
630.859	24.72
631.05	24.66
631.241	24.65
631.432	24.55
631.623	24.35
631.813	24.56
632.004	24.63
632.195	24.7
632.385	24.63
632.576	24.62
632.767	24.68
632.957	24.6
633.148	24.49
633.339	24.46
633.529	24.59
633.72	24.71
633.91	24.67
634.101	24.74
634.292	24.76
634.482	24.9
634.673	25.06
634.863	24.95
635.054	24.96
635.244	25.13
635.435	25.28
635.625	25.37
635.815	25.38
636.006	25.4
636.196	25.37
636.387	25.36
636.577	25.26
636.767	25.21
636.958	25.39
637.148	25.58
637.338	25.51
637.529	25.63
637.719	25.52
637.909	25.56
638.099	25.71
638.29	25.6
638.48	25.73
638.67	25.72
638.86	25.83
639.05	25.62
639.241	25.62
639.431	25.75
639.621	25.5
639.811	25.47
640.001	25.37
640.191	25.26
640.381	25.53
640.571	25.46
640.761	25.45
640.951	25.3
641.141	25.67
641.331	25.43
641.521	25.39
641.711	25.66
641.901	25.78
642.091	25.92
642.281	25.67
642.471	25.65
642.661	25.72
642.851	25.97
643.041	26.05
643.231	25.79
643.42	25.97
643.61	26.01
643.8	25.97
643.99	26.08
644.18	26.09
644.369	26.14
644.559	26.01
644.749	25.97
644.939	25.87
645.128	25.88
645.318	26.05
645.508	25.98
645.697	25.9
645.887	25.82
646.076	25.68
646.266	25.65
646.456	25.83
646.645	25.94
646.835	25.93
647.024	25.96
647.214	26.07
647.403	25.9
647.593	25.97
647.782	26.04
647.972	25.88
648.161	26.01
648.351	26.06
648.54	26.07
648.73	25.89
648.919	26
649.108	26
649.298	25.77
649.487	25.8
649.677	25.97
649.866	25.95
650.055	26.01
650.244	25.81
650.434	25.93
650.623	26.06
650.812	26.3
651.002	26.22
651.191	26.32
651.38	26.39
651.569	26.48
651.758	26.46
651.947	26.52
652.137	26.79
652.326	27
652.515	27.09
652.704	26.87
652.893	26.78
653.082	26.87
653.271	26.58
653.46	26.36
653.649	26.4
653.838	26.09
654.027	26.11
654.216	26.08
654.405	26.34
654.594	26.21
654.783	26.53
654.972	26.68
655.161	26.65
655.35	26.84
655.539	27.22
655.728	27.23
655.916	27.4
656.105	27.39
656.294	27.4
656.483	27.24
656.672	27.23
656.86	27.01
657.049	26.92
657.238	26.98
657.427	26.95
657.615	26.66
657.804	26.79
657.993	26.85
658.181	26.63
658.37	26.48
658.559	26.35
658.747	26.4
658.936	26.46
659.125	26.93
659.313	26.98
659.502	27.12
659.69	27.27
659.879	27.2
660.067	27.12
660.256	27.21
660.444	27.39
660.633	27.53
660.821	27.54
661.01	27.58
661.198	26.9
661.387	26.77
661.575	26.74
661.763	26.79
661.952	26.58
662.14	26.56
662.328	26.75
662.517	26.89
662.705	26.7
662.893	26.77
663.082	26.76
663.27	26.74
663.458	26.86
663.646	26.95
663.834	26.94
664.023	27.13
664.211	27.37
664.399	27.5
664.587	27.29
664.775	27.5
664.963	27.04
665.152	27.1
665.34	27.33
665.528	27.03
665.716	26.88
665.904	26.82
666.092	26.91
666.28	26.79
666.468	26.78
666.656	26.56
666.844	26.63
667.032	26.99
667.22	26.99
667.408	26.78
667.596	26.91
667.784	26.82
667.971	26.81
668.159	26.63
668.347	26.62
668.535	26.59
668.723	26.9
668.911	26.83
669.098	26.87
669.286	26.84
669.474	27.14
669.662	27.04
669.849	27.27
670.037	27.54
670.225	27.68
670.413	27.67
670.6	27.54
670.788	27.7
670.976	27.52
671.163	27.62
671.351	27.58
671.538	27.45
671.726	27.49
671.913	27.59
672.101	27.26
672.289	27.05
672.476	27.17
672.664	27.36
672.851	27.03
673.039	27.38
673.226	27.25
673.413	27.37
673.601	27.61
673.788	27.61
673.976	27.53
674.163	27.9
674.35	27.91
674.538	28.05
674.725	28.17
674.912	28.37
675.1	28.29
675.287	28.41
675.474	28.43
675.662	28.19
675.849	28.39
676.036	28.17
676.223	28.08
676.411	28.22
676.598	28
676.785	27.7
676.972	27.59
677.159	27.42
677.346	27.25
677.533	27.2
677.721	26.99
677.908	26.9
678.095	27.2
678.282	27.14
678.469	26.98
678.656	26.94
678.843	27.34
679.03	27.42
679.217	27.63
679.404	27.93
679.591	27.97
679.778	28.08
679.964	28.1
680.151	27.69
680.338	27.89
680.525	28.1
680.712	28.09
680.899	27.73
681.086	27.56
681.272	27.49
681.459	27.21
681.646	27.24
681.833	27.51
682.02	27.61
682.206	27.99
682.393	27.98
682.58	28.09
682.766	28.19
682.953	28.22
683.14	28.53
683.326	28.64
683.513	28.7
683.7	28.64
683.886	28.56
684.073	28.76
684.259	28.57
684.446	28.63
684.632	28.42
684.819	28.28
685.005	28.18
685.192	28.17
685.378	28.17
685.565	28.16
685.751	28.32
685.938	28.35
686.124	28.27
686.31	28.53
686.497	28.5
686.683	28.66
686.87	28.9
687.056	29.09
687.242	28.93
687.429	29.04
687.615	28.88
687.801	28.85
687.987	28.73
688.174	28.53
688.36	28.27
688.546	28.2
688.732	28.11
688.918	28.14
689.105	28.08
689.291	28.17
689.477	27.9
689.663	28.24
689.849	28.62
690.035	28.71
690.221	28.99
690.407	29.36
690.593	29.11
690.779	28.99
690.965	28.72
691.151	28.95
691.337	28.93
691.523	28.96
691.709	28.8
691.895	28.28
692.081	28.01
692.267	27.92
692.453	27.71
692.639	28.08
692.825	28.1
693.011	28.25
693.196	28.06
693.382	27.92
693.568	27.95
693.754	28.05
693.94	27.94
694.125	28.15
694.311	28.03
694.497	28.02
694.682	27.82
694.868	27.91
695.054	27.81
695.239	27.97
695.425	28.06
695.611	27.76
695.796	27.78
695.982	27.92
696.168	27.8
696.353	27.77
696.539	27.68
696.724	27.75
696.91	27.67
697.095	27.92
697.281	27.84
697.466	27.87
697.652	27.99
697.837	28.18
698.023	28.14
698.208	28.34
698.393	28.38
698.579	28.51
698.764	28.49
698.949	28.59
699.135	28.63
699.32	28.77
699.505	28.71
699.691	28.8
699.876	28.59
700.061	28.72
700.246	28.63
700.432	28.63
700.617	28.53
700.802	28.47
700.987	28.54
701.172	28.91
701.358	28.62
701.543	28.79
701.728	28.73
701.913	28.45
702.098	28.42
702.283	28.52
702.468	28.48
702.653	28.67
702.838	28.85
703.023	28.99
703.208	28.17
703.393	28.39
703.578	28.48
703.763	28.44
703.948	28.63
704.133	28.78
704.318	28.75
704.503	28.81
704.688	28.92
704.873	28.73
705.057	29.09
705.242	29.48
705.427	29.54
705.612	29.29
705.797	29.49
705.981	29.46
706.166	29.56
706.351	29.55
706.536	29.59
706.72	29.39
706.905	29.62
707.09	29.42
707.274	28.91
707.459	28.71
707.644	29
707.828	28.96
708.013	29.17
708.197	28.71
708.382	28.71
708.567	28.85
708.751	29
708.936	28.77
709.12	28.6
709.305	28.94
709.489	28.63
709.673	28.55
709.858	28.74
710.042	28.53
710.227	28.81
710.411	28.74
710.596	28.48
710.78	28.54
710.964	28.55
711.149	28.53
711.333	28.64
711.517	29.17
711.702	29.16
711.886	28.78
712.07	28.96
712.254	28.7
712.438	28.43
712.623	28.8
712.807	28.37
712.991	28.44
713.175	28.18
713.359	27.79
713.544	27.55
713.728	27.2
713.912	27.42
714.096	27.28
714.28	27.46
714.464	27.95
714.648	27.63
714.832	27.67
715.016	27.77
715.2	28.17
715.384	28.39
715.568	28.56
715.752	28.8
715.936	28.88
716.12	28.64
716.304	28.67
716.488	28.44
716.671	28.43
716.855	28.72
717.039	28.42
717.223	27.94
717.407	28.34
717.59	28.4
717.774	28.57
717.958	28.27
718.142	28.5
718.325	28.41
718.509	28.62
718.693	29.16
718.877	28.54
719.06	28.9
719.244	29.47
719.428	29.31
719.611	29.24
719.795	29.06
719.978	29.09
720.162	29.3
720.345	29.55
720.529	29.96
720.713	29.95
720.896	30.47
721.08	30.17
721.263	30.1
721.446	29.92
721.63	29.5
721.813	29.6
721.997	29.89
722.18	29.46
722.364	29.52
722.547	28.82
722.73	28.26
722.914	28.13
723.097	28.09
723.28	27.69
723.464	28.17
723.647	28.57
723.83	28.63
724.013	29.03
724.197	29.22
724.38	29.07
724.563	29.46
724.746	30.04
724.929	30.4
725.112	31.16
725.296	31.4
725.479	30.84
725.662	31.03
725.845	31.47
726.028	31.09
726.211	31.26
726.394	31.63
726.577	31.31
726.76	30.64
726.943	30.33
727.126	29.98
727.309	29.69
727.492	29.83
727.675	29.55
727.858	29.13
728.041	29.27
728.224	29.27
728.407	29.09
728.589	29.2
728.772	29.29
728.955	29.31
729.138	29.03
729.321	29.49
729.503	29.6
729.686	29.66
729.869	29.69
730.052	29.56
730.234	29.53
730.417	29.44
730.6	29.43
730.782	29.7
730.965	29.79
731.148	30.26
731.33	30.02
731.513	29.66
731.695	29.59
731.878	29.71
732.061	29.87
732.243	29.69
732.426	29.32
732.608	29.2
732.791	29.2
732.973	29.2
733.156	28.96
733.338	29.1
733.52	29.75
733.703	29.96
733.885	30.29
734.068	30.06
734.25	29.86
734.432	30.17
734.615	30.27
734.797	30.41
734.979	30.46
735.162	30.75
735.344	30.76
735.526	30.06
735.708	29.93
735.891	29.8
736.073	29.42
736.255	30.22
736.437	30.3
736.619	30.12
736.802	30.1
736.984	30.17
737.166	29.9
737.348	30.2
737.53	30.09
737.712	30.19
737.894	29.87
738.076	30.36
738.258	29.68
738.44	29.75
738.622	29.79
738.804	29.44
738.986	29.49
739.168	29.28
739.35	29.23
739.532	29.23
739.714	29.03
739.896	29.2
740.078	29.42
740.259	29.87
740.441	29.47
740.623	29.3
740.805	29.86
740.987	29.79
741.168	29.53
741.35	29.78
741.532	30.28
741.714	29.93
741.895	29.97
742.077	29.98
742.259	29.53
742.44	30.51
742.622	31.11
742.804	30.53
742.985	30.15
743.167	30.1
743.348	29.89
743.53	29.56
743.711	30.06
743.893	29.71
744.075	30.09
744.256	29.65
744.438	29.04
744.619	29.15
744.8	29.39
744.982	30.03
745.163	30.38
745.345	30.03
745.526	30.25
745.707	30.12
745.889	30.08
746.07	28.98
746.252	30.4
746.433	30.62
746.614	30.93
746.795	30.25
746.977	30.03
747.158	30.22
747.339	30.16
747.52	29.81
747.702	29.45
747.883	29.41
748.064	29.42
748.245	28.03
748.426	27.62
748.607	27.82
748.788	28.42
748.97	28.27
749.151	28.61
749.332	28.1
749.513	28.46
749.694	29
749.875	29.18
750.056	29.84
750.237	30.39
750.418	30.56
750.599	29.78
750.78	29.35
750.96	29.14
751.141	29.18
751.322	30.02
751.503	30.3
751.684	30.26
751.865	30.02
752.046	30.09
752.226	29.98
752.407	30.32
752.588	30.61
752.769	31.11
752.949	30.66
753.13	29.83
753.311	28.92
753.492	28.59
753.672	28.82
753.853	28.58
754.034	27.62
754.214	28.86
754.395	28.3
754.575	27.99
754.756	28.22
754.937	29
755.117	29.24
755.298	29.81
755.478	29.45
755.659	28.69
755.839	29.39
756.02	30.03
756.2	28.74
756.381	29.32
756.561	28.82
756.741	28.98
756.922	29.44
757.102	29.68
757.283	30.07
757.463	30.25
757.643	30.96
757.823	31.32
758.004	30.8
758.184	31.19
758.364	30.79
758.545	31.44
758.725	31.11
758.905	30.33
759.085	29.62
759.265	29.29
759.446	29.17
759.626	29.29
759.806	28.36
759.986	28.58
760.166	28.55
760.346	29.04
760.526	28.49
760.706	28.91
760.886	29.7
761.066	30.03
761.246	30.03
761.426	30.55
761.606	30.32
761.786	30.55
761.966	30.49
762.146	30.99
762.326	30.5
762.506	30.87
762.686	30.23
762.866	29.66
763.046	29.76
763.225	30.02
763.405	29.66
763.585	29.92
763.765	29.75
763.945	30.1
764.124	29.56
764.304	29.4
764.484	29.2
764.664	29.03
764.843	29.08
765.023	28.99
765.203	28.57
765.382	28.61
765.562	28.16
765.741	28.23
765.921	28.13
766.101	28.61
766.28	28.71
766.46	28.38
766.639	29.38
766.819	29.55
766.998	29.8
767.178	29.92
767.357	30.01
767.537	30.46
767.716	30.47
767.896	30.63
768.075	30.4
768.254	29.96
768.434	30.77
768.613	30.44
768.792	29.76
768.972	29.63
769.151	29.99
769.33	30.57
769.51	30.39
769.689	30.49
769.868	30.09
770.047	29.96
770.226	30.67
770.406	30.13
770.585	30.07
770.764	30.1
770.943	30.65
771.122	30.38
771.301	30.51
771.48	30.02
771.66	30.38
771.839	30.57
772.018	30.4
772.197	30.62
772.376	30.45
772.555	30.42
772.734	31.23
772.913	30.84
773.092	31.07
773.271	30.03
773.449	29.94
773.628	30.28
773.807	30.07
773.986	30.28
774.165	29.47
774.344	30.35
774.523	30.53
774.701	30.38
774.88	30.52
775.059	30.8
775.238	31.9
775.417	32.08
775.595	31.97
775.774	32.48
775.953	32.14
776.131	33.38
776.31	32.96
776.489	32.57
776.667	33.04
776.846	33.05
777.025	31.75
777.203	31.11
777.382	31.43
777.56	30.45
777.739	30.18
777.917	29.36
778.096	28.27
778.274	27.58
778.453	27.67
778.631	27.08
778.81	26.83
778.988	28
779.166	28.44
779.345	28.38
779.523	29.06
779.702	28.79
779.88	29.84
780.058	30.2
780.237	30.13
780.415	30.2
780.593	30.65
780.771	30.99
780.95	31.09
781.128	31.05
781.306	31.07
781.484	31.3
781.662	31.09
781.841	31.23
782.019	31.56
782.197	32.35
782.375	32.61
782.553	32.72
782.731	32.42
782.909	31.68
783.087	32.01
783.265	33.11
783.443	33.14
783.621	32.56
783.799	32.96
783.977	32.6
784.155	32.98
784.333	32.35
784.511	32
784.689	31.48
784.867	30.92
785.045	30.46
785.223	28.79
785.4	28.18
785.578	29.3
785.756	28.46
785.934	28.36
786.112	28.9
786.289	29.6
786.467	28.8
786.645	28.69
786.823	29.56
787	29.62
787.178	29.7
787.356	29.73
787.533	28.43
787.711	29.01
787.889	29.69
788.066	29.01
788.244	28.51
788.421	29.22
788.599	29.61
788.776	29.06
788.954	29.01
789.131	29.41
789.309	29.83
789.486	30.28
789.664	30.53
789.841	29.95
790.019	30.32
790.196	30.24
790.373	30.23
790.551	30.42
790.728	30.92
790.906	30.32
791.083	29.41
791.26	28.55
791.437	29.03
791.615	28.95
791.792	29.17
791.969	28.2
792.146	28.37
792.324	27.77
792.501	27.59
792.678	27.82
792.855	28.7
793.032	29.85
793.209	30.63
793.387	30.83
793.564	30.37
793.741	30.97
793.918	32.07
794.095	32.17
794.272	32.46
794.449	33.18
794.626	33.43
794.803	32.12
794.98	30.98
795.157	30.87
795.334	30.88
795.511	30
795.688	29.58
795.864	28.38
796.041	28.24
796.218	28.67
796.395	27.56
796.572	27.36
796.749	28.16
796.925	28.82
797.102	28.09
797.279	27.88
797.456	29.37
797.632	28.34
797.809	28.36
797.986	28.75
798.162	29.44
798.339	29.49
798.516	29.42
798.692	30.53
798.869	31.15
799.046	31.44
799.222	31.67
799.399	32.17
799.575	33.85
799.752	34.13
799.928	33.74
800.105	32.21
800.281	33.22
800.458	33.16
800.634	32.61
800.811	31.95
800.987	31.52
801.163	31.8
801.34	30.48
801.516	29.91
801.692	30.42
801.869	30.45
802.045	32.48
802.221	32.22
802.398	30.83
802.574	30.69
802.75	30.22
802.926	31.45
803.103	31.49
803.279	31.75
803.455	31.42
803.631	31.95
803.807	31.68
803.983	30.94
804.16	31.29
804.336	33.06
804.512	33.01
804.688	33.79
804.864	32.6
805.04	32.2
805.216	32.79
805.392	32.95
805.568	31.68
805.744	32.24
805.92	31.3
806.096	31.43
806.272	31.28
806.448	30.95
806.623	31.91
806.799	32.77
806.975	32.54
807.151	32.28
807.327	31.88
807.503	33.04
807.678	33.18
807.854	33.92
808.03	34.31
808.206	33.94
808.381	33.89
808.557	33.71
808.733	33.42
808.908	35.76
809.084	35.56
809.26	35.9
809.435	35.33
809.611	35.71
809.787	36.14
809.962	35.66
810.138	35.57
810.313	35.18
810.489	35.19
810.664	34.9
810.84	32.9
811.015	32.94
811.191	33.68
811.366	33.67
811.542	31.98
811.717	31.69
811.892	32.03
812.068	31.54
812.243	31.53
812.419	30.2
812.594	31.13
812.769	30.47
812.944	30.33
813.12	29.17
813.295	29.07
813.47	29.62
813.645	29.95
813.821	29.81
813.996	31.51
814.171	32.6
814.346	32.1
814.521	32.24
814.697	34.24
814.872	33.86
815.047	33.34
815.222	33.27
815.397	33.78
815.572	32.9
815.747	32.69
815.922	32.09
816.097	30.91
816.272	30.49
816.447	29.58
816.622	27.85
816.797	28.63
816.972	29.22
817.147	29.44
817.322	30.06
817.496	31.07
817.671	29.78
817.846	30.24
818.021	30.4
818.196	31.9
818.371	31.47
818.545	32.67
818.72	33.34
818.895	34.45
819.069	34.09
819.244	33.97
819.419	33.08
819.594	33.24
819.768	32.9
819.943	32.61
820.117	31.58
820.292	32.01
820.467	31.04
820.641	30.3
820.816	30.04
820.99	30.1
821.165	29.67
821.339	29.34
821.514	29.27
821.688	29.14
821.863	29.04
822.037	29.03
822.212	28.82
822.386	28.77
822.56	28.74
822.735	28.71
822.909	28.71
823.084	28.76
823.258	28.85
823.432	28.71
823.606	28.82
823.781	29.09
823.955	29.22
824.129	29.35
824.303	29.6
824.478	29.88
824.652	29.61
824.826	29.22
825	29.32
825.174	29.7
825.348	30.32
825.523	29.98
825.697	29.79
825.871	29.77
826.045	30.14
826.219	30.07
826.393	29.64
826.567	30.04
826.741	30.25
826.915	30.01
827.089	30.35
827.263	29.98
827.437	29.87
827.611	30.39
827.784	30.49
827.958	30.33
828.132	30.4
828.306	30.51
828.48	29.69
828.654	29.62
828.827	30.33
829.001	29.02
829.175	29.28
829.349	29.98
829.522	28.79
829.696	29.41
829.87	28.91
830.044	28.89
830.217	30.24
830.391	30.78
830.565	31.88
830.738	31.43
830.912	32.12
831.085	32.31
831.259	32.96
831.432	34.02
831.606	33.54
831.779	33.16
831.953	33.23
832.126	32.49
832.3	32.88
832.473	32.77
832.647	33.09
832.82	33.37
832.994	33.03
833.167	32.13
833.34	31.59
833.514	31.36
833.687	31.25
833.86	30.87
834.034	30.36
834.207	29.89
834.38	29.73
834.553	28.96
834.727	28.79
834.9	28.8
835.073	29
835.246	29.43
835.419	28.9
835.593	29.73
835.766	30.61
835.939	30.7
836.112	30.99
836.285	30.89
836.458	31.1
836.631	32.32
836.804	32.65
836.977	32.49
837.15	32.79
837.323	34.04
837.496	33.3
837.669	31.87
837.842	32.87
838.015	33.54
838.188	33.73
838.361	34.22
838.533	33.56
838.706	33.56
838.879	33.05
839.052	32.18
839.225	31.35
839.398	33.09
839.57	34.49
839.743	32.99
839.916	34.43
840.088	34.52
840.261	35.06
840.434	34.91
840.607	35.82
840.779	36.02
840.952	34.83
841.124	34.64
841.297	33.73
841.47	33.34
841.642	34.26
841.815	33.68
841.987	31.83
842.16	32.39
842.332	31.21
842.505	30.9
842.677	29.66
842.85	31.08
843.022	32.59
843.194	31.57
843.367	30.69
843.539	31.35
843.712	31.36
843.884	34.76
844.056	34.24
844.229	33.71
844.401	32.88
844.573	36.02
844.745	33.17
844.918	30.44
845.09	33.08
845.262	33.65
845.434	30.86
845.606	30.35
845.779	29.73
845.951	30.68
846.123	32.06
846.295	30.86
846.467	27.05
846.639	32.67
846.811	35.65
846.983	33.39
847.155	34.31
847.327	36.89
847.499	36.11
847.671	35.96
847.843	33.1
848.015	35.04
848.187	33.81
848.359	35.12
848.531	31.93
848.703	31.24
848.875	33.37
849.047	35.29
849.218	37.23
849.39	36.5
849.562	34.02
849.734	36.58
849.905	34.87
850.077	35.21
850.249	33.66
850.421	34.96
850.592	36.27
850.764	33.09
850.936	28.52
851.107	26.48
851.279	25.3
851.451	28.2
851.622	30.05
851.794	28.81
851.965	34.86
852.137	37.65
852.308	39.21
852.48	39.02
852.651	41.66
852.823	43.85
852.994	42.43
853.166	44.04
853.337	44.29
853.509	42.77
853.68	42.32
853.851	39.18
854.023	41.71
854.194	39.4
854.365	39.26
854.537	38.46
854.708	38.69
854.879	39.43
855.05	38.35
855.222	36.21
855.393	36.6
855.564	37.97
855.735	38.18
855.906	34.38
856.078	36.17
856.249	37.1
856.42	39.79
856.591	40.05
856.762	41.4
856.933	41.24
857.104	42.4
857.275	40.59
857.446	40.4
857.617	39.85
857.788	41.85
857.959	42.64
858.13	42.6
858.301	39.89
858.472	40.92
858.643	39.3
858.814	40.99
858.985	40.61
859.155	40.22
859.326	42.15
859.497	41.73
859.668	40.82
859.839	37.59
860.009	36.65
860.18	35.8
860.351	33.41
860.522	32.94
860.692	31.5
860.863	30.44
861.034	33.73
861.204	33.02
861.375	36.2
861.546	36.43
861.716	37.7
861.887	39.92
862.057	38.2
862.228	34.57
862.398	37.73
862.569	41.68
862.739	41.14
862.91	39.91
863.08	39.7
863.251	35.5
863.421	33.71
863.592	35.49
863.762	32.68
863.932	34.44
864.103	39.78
864.273	39.2
864.443	36.67
864.614	41.75
864.784	42.08
864.954	40.35
865.125	39.59
865.295	40.45
865.465	38.8
865.635	41.25
865.805	40.4
865.976	39.15
866.146	36.78
866.316	35.77
866.486	32.7
866.656	32.77
866.826	34.98
866.996	38
867.166	38.17
867.336	39.93
867.506	40.32
867.676	39.98
867.846	43.66
868.016	44.99
868.186	45.35
868.356	46.15
868.526	46.71
868.696	46.24
868.866	44.1
869.036	43.3
869.206	45.32
869.376	43.87
869.545	44.17
869.715	44.34
869.885	43.37
870.055	44.83
870.224	45.66
870.394	43.22
870.564	42.58
870.734	44.46
870.903	41.98
871.073	41.28
871.243	39.79
871.412	40.5
871.582	38.15
871.751	41.23
871.921	39.78
872.091	37.62
872.26	37.95
872.43	39.42
872.599	38.42
872.769	41.78
872.938	42.62
873.108	43.66
873.277	43.2
873.446	41.61
873.616	38.24
873.785	41.5
873.955	41.68
874.124	42.1
874.293	40.59
874.463	41.51
874.632	42.13
874.801	40.26
874.971	38.12
875.14	39.07
875.309	39.35
875.478	38.93
875.647	35.84
875.817	33.03
875.986	37.62
876.155	39.2
876.324	34.35
876.493	37.68
876.662	38.34
876.831	41.71
877	47.23
877.17	47.04
877.339	49.27
877.508	51.91
877.677	51.92
877.846	45.93
878.015	43.19
878.184	44.88
878.352	41.49
878.521	38.49
878.69	40.15
878.859	36.59
879.028	34.2
879.197	32.38
879.366	33.37
879.534	35.24
879.703	34.79
879.872	34.24
880.041	33.63
880.21	32.01
880.378	32.38
880.547	30.83
880.716	30.99
880.884	32.41
881.053	33.22
881.222	31.17
881.39	28.83
881.559	29.25
881.727	29.21
881.896	29.53
882.065	29.9
882.233	30.78
882.402	30.89
882.57	30.28
882.739	29.62
882.907	29.52
883.076	30.25
883.244	31.69
883.412	31.41
883.581	32.31
883.749	32.65
883.918	33.23
884.086	33.43
884.254	34.12
884.423	34.63
884.591	35.66
884.759	36.1
884.927	35.52
885.096	34.89
885.264	35.44
885.432	34.32
885.6	34.18
885.769	32.87
885.937	32.75
886.105	31.27
886.273	30.14
886.441	29.36
886.609	27.48
886.777	28.43
886.945	30.97
887.113	30.51
887.281	31.82
887.449	32.67
887.617	34.2
887.785	33.33
887.953	34.23
888.121	36.31
888.289	36.48
888.457	36.85
888.625	39.37
888.793	34.78
888.961	36.14
889.129	35.41
889.296	32.95
889.464	33.46
889.632	32.61
889.8	31.19
889.967	29.88
890.135	28.94
