Data from 2938513_Reflection_2.txt Node
Date: Tue Jun 16 22:41:20 EDT 2015
User: robert
Spectrometer: USB4E03002
Autoset integration time: false
Trigger mode: 4
Integration Time (sec): 1.000000E-1
Scans to average: 10
Electric dark correction enabled: true
Nonlinearity correction enabled: false
Boxcar width: 5
Stray light correction enabled: false
XAxis mode: Wavelengths
Stop averaging: false
Number of Pixels in Spectrum: 3648
>>>>>Begin Spectral Data<<<<<
177.575	-7.75
177.794	9
178.014	19.34
178.233	18.82
178.452	68.49
178.672	41.24
178.891	50.6
179.11	-194.09
179.33	-342.58
179.549	-49
179.768	-74.38
179.987	-72.34
180.207	-91.81
180.426	-70
180.645	-1272.39
180.864	1169.37
181.084	146.88
181.303	138.81
181.522	104.97
181.741	100.4
181.96	75.91
182.179	82.41
182.398	115.07
182.618	106.12
182.837	110.79
183.056	98.63
183.275	87.41
183.494	91.07
183.713	-39.82
183.932	-304
184.151	-387.55
184.37	-2642.23
184.589	314.5
184.808	167.61
185.027	247.35
185.246	185.65
185.465	225.12
185.684	195.87
185.903	233.86
186.122	174.1
186.341	179.59
186.56	187.97
186.779	306.73
186.998	492.09
187.216	661.63
187.435	367.91
187.654	358.45
187.873	502.65
188.092	430.58
188.311	317.34
188.53	293.04
188.748	779.79
188.967	4510.75
189.186	149.98
189.405	141.33
189.623	127.45
189.842	133.8
190.061	142.57
190.28	133.11
190.498	139.8
190.717	126.28
190.936	151.44
191.154	137.78
191.373	154.46
191.592	150.94
191.81	144.73
192.029	167.86
192.248	193.41
192.466	212.87
192.685	188.72
192.904	294.04
193.122	467.57
193.341	-194.82
193.559	-89.19
193.778	-72.37
193.996	-87.06
194.215	-674.97
194.433	-368.8
194.652	-870.54
194.87	2697.59
195.089	618.9
195.307	517.29
195.526	257.48
195.744	280.8
195.963	224.24
196.181	199.17
196.399	214.67
196.618	215.96
196.836	199
197.055	155.33
197.273	186.11
197.491	202.89
197.71	126.1
197.928	198.92
198.146	175.55
198.365	185.31
198.583	200.83
198.801	152.07
199.019	134.13
199.238	147.84
199.456	274.85
199.674	109.25
199.892	155.91
200.111	168.54
200.329	100.44
200.547	75.31
200.765	62.16
200.983	60.5
201.202	62.03
201.42	44.42
201.638	67.72
201.856	68.03
202.074	85.3
202.292	83.36
202.51	79.24
202.728	81.7
202.946	98.91
203.165	138.33
203.383	141.33
203.601	126.27
203.819	195.8
204.037	164.23
204.255	159.87
204.473	193.03
204.691	153.31
204.909	162.58
205.127	222.3
205.345	215.29
205.562	167.61
205.78	177.15
205.998	162.49
206.216	114.73
206.434	123.67
206.652	189.55
206.87	164.9
207.088	149.05
207.306	176.45
207.523	126.99
207.741	97.19
207.959	113.33
208.177	101.56
208.395	96.39
208.612	98.79
208.83	87.51
209.048	90.77
209.266	96.13
209.483	98.02
209.701	88.64
209.919	105.85
210.136	116.4
210.354	110.77
210.572	106.91
210.79	108.87
211.007	114.69
211.225	129.57
211.442	112.59
211.66	93.34
211.878	89.4
212.095	94.05
212.313	88.33
212.53	88.61
212.748	88.66
212.966	92.08
213.183	94.14
213.401	105.39
213.618	94.69
213.836	89.7
214.053	96.35
214.271	101.8
214.488	91.7
214.705	80.41
214.923	76.32
215.14	78.08
215.358	68.3
215.575	61.56
215.793	33.63
216.01	33.4
216.227	47.3
216.445	25.99
216.662	37.7
216.879	49.45
217.097	47.62
217.314	43.25
217.531	43.3
217.749	32.36
217.966	37.56
218.183	44.96
218.4	50.75
218.618	34.31
218.835	39.64
219.052	15.99
219.269	-3.57
219.487	7.58
219.704	12.88
219.921	27.71
220.138	29.86
220.355	19.94
220.572	21.02
220.79	19.23
221.007	23.64
221.224	22.51
221.441	33.05
221.658	43.68
221.875	45.37
222.092	39.28
222.309	31.6
222.526	32.15
222.743	34.97
222.96	28.14
223.177	33.58
223.394	34.07
223.611	35.9
223.828	36.56
224.045	32.51
224.262	25.38
224.479	27.61
224.696	24.22
224.913	22.78
225.13	23.83
225.347	26.81
225.564	21.47
225.781	21.21
225.997	19.84
226.214	17.28
226.431	16.11
226.648	15.81
226.865	14
227.082	13.59
227.298	11.8
227.515	10.39
227.732	9.59
227.949	10.1
228.165	8.91
228.382	9.1
228.599	9.51
228.816	9.75
229.032	11.54
229.249	11.78
229.466	12.86
229.682	13.78
229.899	15.5
230.116	16.55
230.332	16.21
230.549	16.18
230.765	14.7
230.982	14.13
231.199	15.7
231.415	13.39
231.632	14.96
231.848	14.37
232.065	16.36
232.281	16.2
232.498	14.15
232.714	13.93
232.931	14.63
233.147	13.38
233.364	14.34
233.58	13.91
233.797	14.23
234.013	14.01
234.23	14.52
234.446	15.23
234.662	13.83
234.879	16.27
235.095	18.67
235.312	20.27
235.528	22.35
235.744	21.78
235.961	22.88
236.177	24.45
236.393	24.43
236.61	23.5
236.826	23.37
237.042	23.58
237.258	21.73
237.475	19.57
237.691	17.35
237.907	18.97
238.123	17.77
238.339	15.7
238.556	14.08
238.772	12.87
238.988	13.44
239.204	13.55
239.42	12.65
239.636	13.12
239.853	13.04
240.069	12.94
240.285	11.95
240.501	12.44
240.717	13.08
240.933	13.14
241.149	13.01
241.365	12.47
241.581	11.74
241.797	11.94
242.013	11.42
242.229	11.18
242.445	11.69
242.661	11.23
242.877	10.67
243.093	10.51
243.309	10.87
243.525	11.22
243.741	10.84
243.957	10.86
244.173	10.45
244.388	10.72
244.604	10.69
244.82	10.08
245.036	9.97
245.252	10.34
245.468	9.75
245.683	9.51
245.899	9.6
246.115	9.8
246.331	9.67
246.547	9.26
246.762	8.8
246.978	9.02
247.194	9.42
247.409	9.58
247.625	9.13
247.841	9.04
248.057	8.66
248.272	8.54
248.488	8.62
248.703	8.41
248.919	9.51
249.135	10.52
249.35	10.57
249.566	10.08
249.782	9.59
249.997	9.78
250.213	10.48
250.428	11
250.644	10.44
250.859	10.12
251.075	11.03
251.29	10.69
251.506	10.21
251.721	10.01
251.937	10.24
252.152	11.16
252.368	11.28
252.583	11.17
252.798	11.55
253.014	13.1
253.229	13.49
253.445	11.97
253.66	12.8
253.875	11.9
254.091	11.94
254.306	12.57
254.521	11.51
254.737	11.62
254.952	11.37
255.167	10.66
255.383	9.61
255.598	9
255.813	8.97
256.028	7.24
256.244	7.9
256.459	7.77
256.674	7.07
256.889	7.46
257.104	6.84
257.32	6.56
257.535	6.22
257.75	6.45
257.965	6.66
258.18	7.03
258.395	7.52
258.61	7.34
258.826	7.19
259.041	7.61
259.256	7.29
259.471	7.41
259.686	7.56
259.901	7.66
260.116	7.44
260.331	7.65
260.546	7.53
260.761	7.13
260.976	7.47
261.191	7.15
261.406	6.29
261.621	7.09
261.836	7.72
262.05	8.49
262.265	8.88
262.48	9.31
262.695	8.85
262.91	8.49
263.125	8.51
263.34	8.57
263.555	9.31
263.769	9.66
263.984	9.05
264.199	9.14
264.414	8.78
264.629	8.67
264.843	8.02
265.058	8.83
265.273	8.78
265.488	9.62
265.702	9.51
265.917	9.17
266.132	9.01
266.346	8.99
266.561	8.09
266.776	8.05
266.99	8.29
267.205	8.65
267.42	8.14
267.634	7.78
267.849	6.93
268.063	6.77
268.278	6.57
268.492	6.54
268.707	6.8
268.922	7.45
269.136	7.3
269.351	6.96
269.565	6.89
269.78	6.61
269.994	7.01
270.209	7.49
270.423	7.32
270.637	7.78
270.852	7.84
271.066	7.42
271.281	7.34
271.495	7.1
271.709	7.19
271.924	7.06
272.138	7.04
272.353	7.24
272.567	7.19
272.781	7.47
272.996	7.24
273.21	6.59
273.424	7.11
273.638	6.42
273.853	6.55
274.067	6.69
274.281	6.73
274.495	7.07
274.71	6.83
274.924	6.34
275.138	6.37
275.352	6.1
275.566	7.18
275.781	6.82
275.995	7.17
276.209	7.11
276.423	7.11
276.637	6.8
276.851	6.77
277.065	6.64
277.279	7.25
277.493	7.14
277.707	7.2
277.921	6.94
278.135	7.36
278.349	7.26
278.563	7.25
278.777	7.19
278.991	7.43
279.205	7.15
279.419	7.16
279.633	6.93
279.847	6.99
280.061	6.98
280.275	6.81
280.489	6.83
280.703	6.89
280.917	6.94
281.131	6.88
281.344	6.69
281.558	6.83
281.772	7.03
281.986	6.7
282.2	7.03
282.414	7.06
282.627	7.31
282.841	7.31
283.055	7.38
283.269	7.31
283.482	7.68
283.696	7.86
283.91	7.69
284.123	7.37
284.337	7.7
284.551	7.61
284.764	7.57
284.978	7.25
285.192	7.02
285.405	7.43
285.619	7.45
285.833	6.91
286.046	7.2
286.26	7.1
286.473	7.22
286.687	7.61
286.9	7.19
287.114	7.43
287.327	7.51
287.541	7.82
287.754	7.45
287.968	7.89
288.181	8.1
288.395	7.55
288.608	7.84
288.822	7.9
289.035	7.57
289.248	7.98
289.462	7.52
289.675	7.66
289.889	7.1
290.102	7.25
290.315	7.08
290.529	7.01
290.742	7.4
290.955	7.41
291.169	7.69
291.382	8
291.595	7.97
291.808	8.96
292.022	9.03
292.235	9.13
292.448	9.57
292.661	9.64
292.875	9.69
293.088	9.37
293.301	9.58
293.514	9.51
293.727	9.38
293.94	9.11
294.153	8.75
294.367	8.66
294.58	8.73
294.793	8.51
295.006	8.27
295.219	8.29
295.432	8.36
295.645	8.23
295.858	8.41
296.071	8.19
296.284	8.26
296.497	8.35
296.71	8.67
296.923	8.83
297.136	8.76
297.349	9.07
297.562	9.08
297.775	9.33
297.988	9.45
298.201	9.2
298.414	9.47
298.626	9.54
298.839	9.92
299.052	9.5
299.265	9.53
299.478	9.39
299.691	9.64
299.903	9.43
300.116	9.51
300.329	9.2
300.542	9.11
300.755	8.88
300.967	8.96
301.18	8.94
301.393	9.36
301.605	9.19
301.818	9.59
302.031	9.07
302.243	9.57
302.456	9.66
302.669	10.02
302.881	10.44
303.094	10.81
303.307	10.76
303.519	10.63
303.732	11
303.944	11.26
304.157	11.01
304.37	10.94
304.582	10.69
304.795	10.48
305.007	11
305.22	10.98
305.432	10.74
305.645	10.57
305.857	10.71
306.069	10.29
306.282	10.8
306.494	10.71
306.707	10.83
306.919	11.16
307.132	11.06
307.344	10.61
307.556	10.54
307.769	10.65
307.981	10.91
308.193	10.7
308.406	10.31
308.618	9.74
308.83	9.72
309.043	9.71
309.255	9.5
309.467	9.31
309.679	9.22
309.892	9.34
310.104	9.39
310.316	9.13
310.528	8.78
310.74	8.86
310.953	9.12
311.165	9.24
311.377	9.53
311.589	9.68
311.801	9.95
312.013	10.1
312.225	9.78
312.437	9.65
312.649	9.83
312.862	9.71
313.074	10.31
313.286	10.04
313.498	10.19
313.71	9.61
313.922	9.65
314.134	9.62
314.346	9.36
314.558	9.88
314.77	9.65
314.982	9.96
315.193	10.43
315.405	9.97
315.617	10.43
315.829	10.23
316.041	10.36
316.253	10.46
316.465	10.94
316.677	10.91
316.888	10.89
317.1	11.09
317.312	10.9
317.524	10.85
317.736	10.75
317.947	10.93
318.159	11.28
318.371	11.77
318.583	11.21
318.794	10.65
319.006	11.1
319.218	10.6
319.43	10.53
319.641	10.25
319.853	10.43
320.064	10.68
320.276	10.24
320.488	9.73
320.699	9.43
320.911	9.91
321.123	9.93
321.334	9.92
321.546	10.68
321.757	10.58
321.969	10.84
322.18	10.85
322.392	10.81
322.603	10.87
322.815	11.23
323.026	11.33
323.238	11.42
323.449	11.98
323.661	11.57
323.872	10.82
324.083	11.18
324.295	11.29
324.506	11.83
324.718	11.77
324.929	11.55
325.14	11.28
325.352	11.17
325.563	10.88
325.774	10.75
325.986	11
326.197	11.81
326.408	11.38
326.62	11.61
326.831	11.22
327.042	10.94
327.253	11.33
327.464	11.38
327.676	11.64
327.887	11.63
328.098	11.51
328.309	11.63
328.52	11.54
328.732	11.69
328.943	11.56
329.154	11.5
329.365	11.83
329.576	11.83
329.787	12.39
329.998	12.15
330.209	12.89
330.42	13.33
330.631	12.94
330.842	12.54
331.053	12.9
331.264	12.36
331.475	12.48
331.686	12.39
331.897	12.14
332.108	11.7
332.319	12.05
332.53	11.76
332.741	11.32
332.952	11.78
333.163	11.7
333.374	11.55
333.585	11.69
333.795	11.33
334.006	11.62
334.217	11.57
334.428	11.84
334.639	11.18
334.849	11.27
335.06	11.19
335.271	11
335.482	10.94
335.692	10.9
335.903	10.89
336.114	11.21
336.325	10.76
336.535	11.04
336.746	10.86
336.957	11.74
337.167	11.49
337.378	11.69
337.589	11.67
337.799	11.93
338.01	11.96
338.22	12.16
338.431	11.74
338.642	11.86
338.852	11.85
339.063	11.74
339.273	11.17
339.484	11.15
339.694	10.97
339.905	10.88
340.115	10.81
340.326	10.77
340.536	10.7
340.746	10.71
340.957	10.87
341.167	10.44
341.378	10.39
341.588	10.36
341.799	9.95
342.009	9.97
342.219	9.85
342.43	9.54
342.64	9.48
342.85	9.43
343.061	9.76
343.271	10.02
343.481	10.54
343.691	10.71
343.902	10.55
344.112	11.11
344.322	11.24
344.532	11.33
344.743	11.43
344.953	11.61
345.163	12.38
345.373	11.93
345.583	11.51
345.793	11.1
346.004	11.02
346.214	11.21
346.424	11.02
346.634	11.07
346.844	10.94
347.054	11.12
347.264	11.14
347.474	10.33
347.684	10.52
347.894	10.82
348.104	10.99
348.314	10.61
348.524	10.66
348.734	10.3
348.944	10.08
349.154	10.33
349.364	10.02
349.574	10.11
349.784	9.99
349.994	10.37
350.204	10.13
350.413	10.13
350.623	10.2
350.833	9.82
351.043	9.68
351.253	9.81
351.463	9.68
351.672	9.84
351.882	9.39
352.092	9.73
352.302	9.47
352.511	9.5
352.721	9.39
352.931	9.54
353.141	9.92
353.35	10.03
353.56	9.91
353.77	9.94
353.979	9.79
354.189	9.99
354.399	9.54
354.608	9.4
354.818	9.48
355.027	9.81
355.237	9.68
355.447	9.71
355.656	9.96
355.866	9.75
356.075	9.72
356.285	10
356.494	9.94
356.704	9.94
356.913	10.05
357.123	10.06
357.332	9.57
357.542	9.73
357.751	9.35
357.96	9.51
358.17	9.43
358.379	9.68
358.589	9.39
358.798	9.28
359.007	9.28
359.217	9.2
359.426	9.01
359.635	9.09
359.845	8.97
360.054	9.21
360.263	9.13
360.472	9.24
360.682	9.06
360.891	9.06
361.1	9.31
361.309	9.35
361.519	9.24
361.728	9.36
361.937	9.5
362.146	9.41
362.355	9.48
362.564	9.14
362.774	9.02
362.983	9.04
363.192	9.21
363.401	8.95
363.61	9.11
363.819	9.04
364.028	8.69
364.237	8.43
364.446	8.65
364.655	8.52
364.864	8.44
365.073	8.49
365.282	8.2
365.491	8.04
365.7	8.14
365.909	7.68
366.118	7.67
366.327	7.89
366.536	7.95
366.745	8.07
366.954	8.21
367.162	8.31
367.371	8.45
367.58	8.42
367.789	8.45
367.998	8.4
368.207	8.76
368.415	8.82
368.624	8.82
368.833	8.59
369.042	8.39
369.25	8.26
369.459	8.33
369.668	8.04
369.877	8.09
370.085	8.15
370.294	8.01
370.503	8.06
370.711	8.13
370.92	8.16
371.129	8.4
371.337	8.38
371.546	8.26
371.754	8.25
371.963	8.34
372.171	8.25
372.38	7.84
372.589	8.09
372.797	7.84
373.006	7.8
373.214	7.57
373.423	7.49
373.631	7.45
373.84	7.61
374.048	7.59
374.256	7.57
374.465	7.85
374.673	8.04
374.882	7.87
375.09	7.92
375.298	7.77
375.507	7.77
375.715	7.53
375.923	7.61
376.132	7.45
376.34	7.33
376.548	7.34
376.757	7.26
376.965	7.05
377.173	7.07
377.381	7
377.59	7.27
377.798	7.3
378.006	7.52
378.214	7.61
378.423	7.61
378.631	7.48
378.839	7.45
379.047	7.29
379.255	7.52
379.463	7.32
379.671	7.34
379.879	7.01
380.088	7.13
380.296	6.98
380.504	6.75
380.712	6.83
380.92	6.84
381.128	6.82
381.336	6.74
381.544	6.8
381.752	6.79
381.96	6.64
382.168	6.61
382.376	6.43
382.584	6.63
382.791	6.45
382.999	6.17
383.207	6.28
383.415	6.05
383.623	6.01
383.831	5.97
384.039	5.86
384.247	6
384.454	6.08
384.662	6.17
384.87	5.97
385.078	6.1
385.285	6.22
385.493	6.15
385.701	6.36
385.909	6.51
386.116	6.31
386.324	6.48
386.532	6.23
386.739	6.23
386.947	6.3
387.155	6.21
387.362	6.11
387.57	6.03
387.778	5.94
387.985	6.05
388.193	6.05
388.4	6.1
388.608	6.15
388.816	6.23
389.023	6.45
389.231	6.2
389.438	6.52
389.646	6.52
389.853	6.52
390.061	6.68
390.268	6.52
390.475	6.47
390.683	6.35
390.89	6.1
391.098	6.26
391.305	6.16
391.512	6.16
391.72	5.91
391.927	5.89
392.135	5.81
392.342	5.72
392.549	5.8
392.756	5.81
392.964	5.96
393.171	6.11
393.378	6.03
393.586	5.83
393.793	5.89
394	5.98
394.207	6.18
394.414	6.26
394.622	6.22
394.829	5.96
395.036	5.69
395.243	5.63
395.45	5.57
395.657	5.53
395.864	5.54
396.072	5.56
396.279	5.5
396.486	5.32
396.693	5.18
396.9	5.07
397.107	5.24
397.314	5.4
397.521	5.36
397.728	5.21
397.935	5.23
398.142	5.27
398.349	5.29
398.556	5.12
398.763	5.17
398.97	5.27
399.177	5.56
399.383	5.48
399.59	5.58
399.797	5.49
400.004	5.43
400.211	5.38
400.418	5.27
400.625	5.11
400.831	5.25
401.038	5.11
401.245	5.01
401.452	4.81
401.658	4.79
401.865	4.63
402.072	4.74
402.279	4.97
402.485	4.87
402.692	4.89
402.899	4.89
403.105	4.86
403.312	4.82
403.519	4.83
403.725	4.87
403.932	4.84
404.138	4.79
404.345	4.77
404.552	4.76
404.758	4.67
404.965	4.55
405.171	4.57
405.378	4.69
405.584	4.56
405.791	4.62
405.997	4.61
406.204	4.52
406.41	4.59
406.617	4.37
406.823	4.38
407.029	4.67
407.236	4.81
407.442	4.91
407.649	4.67
407.855	4.93
408.061	4.84
408.268	4.77
408.474	5.03
408.68	5
408.887	5.15
409.093	5.04
409.299	4.91
409.505	4.73
409.712	4.64
409.918	4.72
410.124	4.64
410.33	4.56
410.537	4.47
410.743	4.27
410.949	4.31
411.155	4.37
411.361	4.34
411.567	4.27
411.773	4.56
411.98	4.64
412.186	4.62
412.392	4.54
412.598	4.6
412.804	4.65
413.01	4.86
413.216	4.83
413.422	4.74
413.628	4.7
413.834	4.87
414.04	4.55
414.246	4.51
414.452	4.47
414.658	4.54
414.864	4.59
415.07	4.61
415.275	4.41
415.481	4.35
415.687	4.3
415.893	4.39
416.099	4.31
416.305	4.39
416.511	4.3
416.716	4.36
416.922	4.43
417.128	4.34
417.334	4.32
417.539	4.31
417.745	4.33
417.951	4.28
418.157	4.26
418.362	4.19
418.568	4.22
418.774	4.22
418.979	4.15
419.185	4.14
419.391	4.19
419.596	4.13
419.802	4.13
420.008	4.14
420.213	4.49
420.419	4.46
420.624	4.49
420.83	4.46
421.035	4.48
421.241	4.49
421.446	4.35
421.652	4.26
421.857	4.22
422.063	4.17
422.268	4.11
422.474	3.65
422.679	3.6
422.885	3.56
423.09	3.57
423.295	3.55
423.501	3.53
423.706	3.56
423.911	3.61
424.117	3.75
424.322	3.76
424.527	3.77
424.733	3.88
424.938	3.91
425.143	3.96
425.349	4.01
425.554	4.03
425.759	3.98
425.964	3.91
426.169	3.9
426.375	3.79
426.58	3.81
426.785	3.95
426.99	4.05
427.195	4.07
427.4	4.05
427.605	4.02
427.811	4.09
428.016	4.24
428.221	4.31
428.426	4.27
428.631	4.24
428.836	4.31
429.041	4.29
429.246	4.31
429.451	4.28
429.656	4.29
429.861	4.14
430.066	4.08
430.271	3.94
430.476	3.91
430.681	3.81
430.886	3.89
431.09	3.84
431.295	3.75
431.5	3.75
431.705	3.69
431.91	3.68
432.115	3.7
432.32	3.73
432.524	3.8
432.729	3.89
432.934	4.01
433.139	3.9
433.343	3.91
433.548	3.84
433.753	3.69
433.958	3.63
434.162	3.61
434.367	3.56
434.572	3.51
434.776	3.44
434.981	3.23
435.186	3.14
435.39	3.2
435.595	3.23
435.799	3.21
436.004	3.34
436.209	3.33
436.413	3.45
436.618	3.49
436.822	3.46
437.027	3.49
437.231	3.63
437.436	3.71
437.64	3.66
437.845	3.61
438.049	3.67
438.253	3.54
438.458	3.61
438.662	3.57
438.867	3.56
439.071	3.59
439.275	3.64
439.48	3.66
439.684	3.66
439.888	3.61
440.093	3.6
440.297	3.59
440.501	3.59
440.706	3.65
440.91	3.61
441.114	3.67
441.318	3.65
441.523	3.64
441.727	3.66
441.931	3.7
442.135	3.81
442.339	3.8
442.543	3.81
442.748	3.9
442.952	3.86
443.156	3.84
443.36	3.76
443.564	3.7
443.768	3.67
443.972	3.57
444.176	3.49
444.38	3.44
444.584	3.42
444.788	3.41
444.992	3.34
445.196	3.32
445.4	3.28
445.604	3.38
445.808	3.5
446.012	3.47
446.216	3.41
446.42	3.4
446.624	3.41
446.828	3.49
447.032	3.53
447.235	3.56
447.439	3.59
447.643	3.68
447.847	3.59
448.051	3.56
448.254	3.58
448.458	3.63
448.662	3.64
448.866	3.52
449.069	3.5
449.273	3.44
449.477	3.48
449.681	3.34
449.884	3.19
450.088	3.22
450.292	3.18
450.495	3.21
450.699	3.16
450.902	3.22
451.106	3.3
451.31	3.2
451.513	3.17
451.717	3.1
451.92	3.14
452.124	3.3
452.327	3.19
452.531	3.11
452.734	3.13
452.938	3.17
453.141	3.18
453.345	3.24
453.548	3.36
453.752	3.46
453.955	3.62
454.158	3.64
454.362	3.52
454.565	3.64
454.769	3.7
454.972	3.52
455.175	3.63
455.379	3.56
455.582	3.58
455.785	3.52
455.988	3.47
456.192	3.37
456.395	3.34
456.598	3.44
456.801	3.37
457.005	3.3
457.208	3.38
457.411	3.27
457.614	3.33
457.817	3.36
458.021	3.37
458.224	3.36
458.427	3.29
458.63	3.28
458.833	3.27
459.036	3.26
459.239	3.32
459.442	3.34
459.645	3.37
459.848	3.28
460.051	3.21
460.254	3.19
460.457	3.23
460.66	3.26
460.863	3.33
461.066	3.27
461.269	3.33
461.472	3.3
461.675	3.3
461.878	3.39
462.081	3.39
462.284	3.36
462.486	3.35
462.689	3.36
462.892	3.35
463.095	3.39
463.298	3.44
463.5	3.5
463.703	3.58
463.906	3.56
464.109	3.5
464.311	3.5
464.514	3.51
464.717	3.49
464.92	3.51
465.122	3.53
465.325	3.45
465.528	3.43
465.73	3.41
465.933	3.36
466.135	3.42
466.338	3.29
466.541	3.47
466.743	3.52
466.946	3.59
467.148	3.54
467.351	3.54
467.553	3.55
467.756	3.58
467.958	3.62
468.161	3.59
468.363	3.53
468.566	3.76
468.768	3.72
468.971	3.68
469.173	3.67
469.375	3.7
469.578	3.69
469.78	3.64
469.983	3.6
470.185	3.48
470.387	3.52
470.59	3.54
470.792	3.46
470.994	3.38
471.196	3.4
471.399	3.38
471.601	3.34
471.803	3.33
472.005	3.42
472.208	3.38
472.41	3.47
472.612	3.46
472.814	3.4
473.016	3.38
473.218	3.53
473.421	3.63
473.623	3.69
473.825	3.59
474.027	3.61
474.229	3.59
474.431	3.57
474.633	3.65
474.835	3.7
475.037	3.78
475.239	3.8
475.441	3.63
475.643	3.55
475.845	3.41
476.047	3.51
476.249	3.52
476.451	3.46
476.653	3.54
476.855	3.42
477.057	3.29
477.258	3.25
477.46	3.2
477.662	3.19
477.864	3.17
478.066	3.22
478.268	3.24
478.469	3.26
478.671	3.37
478.873	3.29
479.075	3.23
479.276	3.35
479.478	3.36
479.68	3.43
479.882	3.42
480.083	3.38
480.285	3.37
480.487	3.32
480.688	3.32
480.89	3.24
481.091	3.28
481.293	3.31
481.495	3.27
481.696	3.25
481.898	3.19
482.099	3.18
482.301	3.22
482.502	3.24
482.704	3.24
482.905	3.21
483.107	3.22
483.308	3.21
483.51	3.19
483.711	3.18
483.913	3.2
484.114	3.22
484.315	3.23
484.517	3.23
484.718	3.18
484.92	3.2
485.121	3.22
485.322	3.24
485.524	3.22
485.725	3.26
485.926	3.25
486.127	3.22
486.329	3.22
486.53	3.24
486.731	3.19
486.932	3.23
487.134	3.24
487.335	3.25
487.536	3.26
487.737	3.28
487.938	3.28
488.139	3.28
488.341	3.32
488.542	3.32
488.743	3.3
488.944	3.34
489.145	3.34
489.346	3.31
489.547	3.31
489.748	3.24
489.949	3.29
490.15	3.28
490.351	3.29
490.552	3.33
490.753	3.36
490.954	3.37
491.155	3.39
491.356	3.38
491.557	3.44
491.758	3.46
491.959	3.5
492.159	3.5
492.36	3.49
492.561	3.54
492.762	3.54
492.963	3.48
493.164	3.48
493.364	3.42
493.565	3.47
493.766	3.38
493.967	3.36
494.167	3.37
494.368	3.32
494.569	3.34
494.769	3.33
494.97	3.28
495.171	3.33
495.371	3.41
495.572	3.39
495.773	3.37
495.973	3.41
496.174	3.47
496.375	3.5
496.575	3.56
496.776	3.66
496.976	3.7
497.177	3.69
497.377	3.71
497.578	3.71
497.778	3.77
497.979	3.66
498.179	3.71
498.38	3.67
498.58	3.76
498.78	3.75
498.981	3.7
499.181	3.62
499.382	3.65
499.582	3.64
499.782	3.64
499.983	3.65
500.183	3.83
500.383	3.85
500.584	3.89
500.784	3.77
500.984	3.8
501.184	3.84
501.385	3.91
501.585	3.89
501.785	3.98
501.985	3.99
502.185	4.11
502.386	4.15
502.586	4.13
502.786	4.08
502.986	4.18
503.186	4.23
503.386	4.19
503.586	4.27
503.786	4.31
503.987	4.29
504.187	4.38
504.387	4.37
504.587	4.31
504.787	4.37
504.987	4.49
505.187	4.49
505.387	4.49
505.587	4.45
505.786	4.4
505.986	4.39
506.186	4.39
506.386	4.28
506.586	4.18
506.786	4.16
506.986	4.18
507.186	4.18
507.386	4.21
507.585	4.19
507.785	4.31
507.985	4.34
508.185	4.46
508.384	4.5
508.584	4.6
508.784	4.68
508.984	4.76
509.183	4.71
509.383	4.69
509.583	4.7
509.782	4.73
509.982	4.72
510.182	4.78
510.381	4.71
510.581	4.76
510.781	4.72
510.98	4.77
511.18	4.78
511.379	4.86
511.579	4.85
511.778	4.82
511.978	4.91
512.177	4.96
512.377	4.98
512.576	5.04
512.776	5.04
512.975	5.14
513.175	5.21
513.374	5.33
513.573	5.42
513.773	5.47
513.972	5.55
514.172	5.6
514.371	5.69
514.57	5.77
514.77	5.84
514.969	5.89
515.168	5.88
515.367	5.89
515.567	5.89
515.766	5.87
515.965	5.92
516.164	5.98
516.364	5.98
516.563	6
516.762	6.01
516.961	6.04
517.16	6.1
517.359	6.17
517.559	6.18
517.758	6.22
517.957	6.3
518.156	6.37
518.355	6.43
518.554	6.42
518.753	6.36
518.952	6.39
519.151	6.43
519.35	6.42
519.549	6.5
519.748	6.57
519.947	6.66
520.146	6.62
520.345	6.67
520.544	6.68
520.743	6.74
520.942	6.81
521.141	6.89
521.339	6.94
521.538	6.98
521.737	7.02
521.936	7.16
522.135	7.11
522.333	7.16
522.532	7.17
522.731	7.19
522.93	7.26
523.129	7.3
523.327	7.32
523.526	7.31
523.725	7.37
523.923	7.4
524.122	7.4
524.321	7.45
524.519	7.51
524.718	7.54
524.917	7.62
525.115	7.66
525.314	7.68
525.512	7.76
525.711	7.85
525.909	7.92
526.108	7.96
526.306	7.96
526.505	8.01
526.703	8.06
526.902	8.16
527.1	8.18
527.299	8.22
527.497	8.27
527.696	8.3
527.894	8.34
528.092	8.37
528.291	8.41
528.489	8.49
528.688	8.52
528.886	8.53
529.084	8.55
529.283	8.58
529.481	8.6
529.679	8.72
529.877	8.78
530.076	8.78
530.274	8.82
530.472	8.88
530.67	8.89
530.869	8.97
531.067	9.05
531.265	9.07
531.463	9.12
531.661	9.14
531.859	9.14
532.057	9.14
532.255	9.22
532.454	9.22
532.652	9.28
532.85	9.33
533.048	9.37
533.246	9.41
533.444	9.52
533.642	9.57
533.84	9.71
534.038	9.73
534.236	9.76
534.434	9.81
534.632	9.91
534.83	9.92
535.027	9.96
535.225	10.01
535.423	10.04
535.621	10.03
535.819	10.11
536.017	10.12
536.215	10.2
536.412	10.29
536.61	10.35
536.808	10.31
537.006	10.36
537.203	10.41
537.401	10.44
537.599	10.5
537.797	10.56
537.994	10.61
538.192	10.7
538.39	10.71
538.587	10.71
538.785	10.74
538.983	10.86
539.18	10.85
539.378	10.88
539.575	10.86
539.773	10.88
539.97	10.91
540.168	10.87
540.366	10.9
540.563	10.97
540.761	11.03
540.958	11.06
541.155	11.11
541.353	11.2
541.55	11.22
541.748	11.29
541.945	11.35
542.143	11.31
542.34	11.42
542.537	11.42
542.735	11.45
542.932	11.54
543.129	11.6
543.327	11.59
543.524	11.58
543.721	11.67
543.919	11.77
544.116	11.89
544.313	12.02
544.51	12.05
544.708	12.14
544.905	12.22
545.102	12.25
545.299	12.36
545.496	12.45
545.693	12.53
545.891	12.55
546.088	12.56
546.285	12.57
546.482	12.68
546.679	12.74
546.876	12.73
547.073	12.8
547.27	12.78
547.467	12.79
547.664	12.83
547.861	12.91
548.058	12.99
548.255	13.08
548.452	13.17
548.649	13.21
548.846	13.42
549.043	13.55
549.24	13.54
549.437	13.7
549.633	13.7
549.83	13.78
550.027	13.9
550.224	13.88
550.421	14.01
550.618	14.04
550.814	14.1
551.011	14.05
551.208	14.1
551.405	14.17
551.601	14.25
551.798	14.3
551.995	14.39
552.191	14.44
552.388	14.59
552.585	14.62
552.781	14.62
552.978	14.63
553.175	14.74
553.371	14.83
553.568	14.84
553.764	14.84
553.961	14.9
554.157	14.85
554.354	14.84
554.55	14.97
554.747	14.96
554.943	14.96
555.14	15.15
555.336	15.13
555.533	15.25
555.729	15.39
555.926	15.39
556.122	15.47
556.318	15.59
556.515	15.76
556.711	15.81
556.907	15.97
557.104	16.11
557.3	16.05
557.496	16.09
557.693	15.96
557.889	16.09
558.085	16.22
558.281	16.33
558.478	16.41
558.674	16.37
558.87	16.44
559.066	16.5
559.262	16.6
559.459	16.7
559.655	16.89
559.851	17.09
560.047	17.16
560.243	17.12
560.439	17.18
560.635	17.32
560.831	17.51
561.027	17.54
561.223	17.59
561.419	17.64
561.615	17.78
561.811	17.91
562.007	18.17
562.203	18.16
562.399	18.48
562.595	18.56
562.791	18.46
562.987	18.34
563.183	18.36
563.379	18.47
563.575	18.46
563.771	18.55
563.966	18.55
564.162	18.4
564.358	18.47
564.554	18.4
564.75	18.45
564.945	18.52
565.141	18.64
565.337	18.63
565.533	18.6
565.728	18.63
565.924	18.58
566.12	18.52
566.315	18.63
566.511	18.7
566.707	18.79
566.902	18.85
567.098	19.02
567.293	19.16
567.489	19.27
567.684	19.37
567.88	19.54
568.076	19.65
568.271	19.76
568.467	19.76
568.662	19.96
568.858	20.08
569.053	20.14
569.248	20.23
569.444	20.2
569.639	20.4
569.835	20.44
570.03	20.56
570.225	20.55
570.421	20.58
570.616	20.65
570.812	20.6
571.007	20.64
571.202	20.63
571.397	20.66
571.593	20.7
571.788	20.69
571.983	20.73
572.178	20.75
572.374	20.87
572.569	20.97
572.764	21.02
572.959	21.08
573.154	21.1
573.35	21.27
573.545	21.48
573.74	21.6
573.935	21.68
574.13	21.76
574.325	21.89
574.52	21.85
574.715	21.98
574.91	22.05
575.105	22.11
575.3	22.14
575.495	22.13
575.69	22.06
575.885	22.03
576.08	22.03
576.275	22.08
576.47	21.96
576.665	22.08
576.86	22.14
577.055	22.18
577.25	22.06
577.444	22.12
577.639	22.18
577.834	22.13
578.029	22.15
578.224	22.19
578.418	22.24
578.613	22.33
578.808	22.47
579.003	22.47
579.197	22.57
579.392	22.81
579.587	22.8
579.781	22.88
579.976	23.04
580.171	23.18
580.365	23.34
580.56	23.34
580.755	23.44
580.949	23.35
581.144	23.31
581.338	23.42
581.533	23.4
581.727	23.42
581.922	23.37
582.116	23.4
582.311	23.38
582.505	23.37
582.7	23.43
582.894	23.48
583.089	23.54
583.283	23.59
583.478	23.6
583.672	23.7
583.866	23.75
584.061	23.78
584.255	23.74
584.449	23.87
584.644	23.84
584.838	23.84
585.032	23.95
585.226	24.15
585.421	24.14
585.615	24.02
585.809	23.98
586.003	24.06
586.198	24.2
586.392	24.07
586.586	23.97
586.78	24.09
586.974	24.13
587.168	24.16
587.363	24.07
587.557	24.13
587.751	24.21
587.945	24.28
588.139	24.43
588.333	24.44
588.527	24.57
588.721	24.7
588.915	24.72
589.109	24.72
589.303	24.58
589.497	24.55
589.691	24.6
589.885	24.73
590.079	24.79
590.273	24.62
590.466	24.63
590.66	24.69
590.854	24.66
591.048	24.9
591.242	24.83
591.436	25.03
591.629	25.21
591.823	25.23
592.017	25.2
592.211	25.11
592.404	25.29
592.598	25.37
592.792	25.32
592.986	25.38
593.179	25.24
593.373	25.41
593.567	25.36
593.76	25.25
593.954	25.23
594.147	25.37
594.341	25.6
594.535	25.54
594.728	25.52
594.922	25.64
595.115	25.63
595.309	25.61
595.502	25.64
595.696	25.63
595.889	25.75
596.083	25.85
596.276	25.81
596.47	25.8
596.663	25.87
596.856	25.95
597.05	25.98
597.243	26.08
597.437	26.24
597.63	26.19
597.823	26.24
598.017	26.2
598.21	26.25
598.403	26.22
598.596	26.1
598.79	26.16
598.983	26.09
599.176	26.04
599.369	26
599.563	25.82
599.756	25.9
599.949	25.93
600.142	26.03
600.335	25.91
600.528	25.93
600.722	26.18
600.915	26.36
601.108	26.43
601.301	26.41
601.494	26.35
601.687	26.41
601.88	26.5
602.073	26.49
602.266	26.43
602.459	26.45
602.652	26.5
602.845	26.37
603.038	26.18
603.231	26.24
603.424	26.35
603.617	26.44
603.809	26.48
604.002	26.41
604.195	26.44
604.388	26.49
604.581	26.64
604.774	26.64
604.966	26.63
605.159	26.76
605.352	26.78
605.545	26.79
605.737	26.88
605.93	26.95
606.123	26.87
606.316	26.88
606.508	27.01
606.701	26.87
606.894	27
607.086	27.13
607.279	27.05
607.471	27.07
607.664	27.03
607.857	26.92
608.049	26.9
608.242	27.09
608.434	27.26
608.627	27.2
608.819	27.31
609.012	27.12
609.204	27.02
609.397	27.05
609.589	26.98
609.782	26.98
609.974	27.06
610.166	27.05
610.359	26.95
610.551	26.99
610.743	26.9
610.936	26.84
611.128	26.91
611.32	26.97
611.513	27.04
611.705	27.08
611.897	27.19
612.09	27.3
612.282	27.49
612.474	27.55
612.666	27.39
612.858	27.35
613.051	27.41
613.243	27.5
613.435	27.55
613.627	27.51
613.819	27.62
614.011	27.67
614.203	27.63
614.395	27.59
614.588	27.74
614.78	27.65
614.972	27.85
615.164	27.68
615.356	27.78
615.548	27.76
615.74	27.81
615.932	27.92
616.124	27.92
616.315	27.91
616.507	28.03
616.699	28.09
616.891	28.39
617.083	28.47
617.275	28.6
617.467	28.44
617.659	28.5
617.85	28.55
618.042	28.44
618.234	28.25
618.426	28.26
618.618	28.14
618.809	28.04
619.001	27.82
619.193	27.85
619.384	28.02
619.576	28.22
619.768	28.28
619.959	28.31
620.151	28.25
620.343	28.5
620.534	28.52
620.726	28.42
620.917	28.33
621.109	28.41
621.301	28.17
621.492	28.16
621.684	28.12
621.875	28.27
622.067	28.22
622.258	28.42
622.45	28.41
622.641	28.25
622.832	28.36
623.024	28.28
623.215	28.32
623.407	28.57
623.598	28.48
623.789	28.54
623.981	28.24
624.172	28.19
624.363	28.06
624.555	27.91
624.746	28.06
624.937	28.08
625.129	28.23
625.32	28.25
625.511	28.27
625.702	28.28
625.893	28.13
626.085	28.32
626.276	28.27
626.467	28.34
626.658	28.52
626.849	28.5
627.04	28.53
627.231	28.66
627.422	28.55
627.614	28.4
627.805	28.45
627.996	28.55
628.187	28.58
628.378	28.78
628.569	28.7
628.76	28.64
628.951	28.7
629.142	28.71
629.332	28.76
629.523	28.94
629.714	29.24
629.905	29.24
630.096	29.29
630.287	29.3
630.478	29.5
630.669	29.67
630.859	29.68
631.05	29.53
631.241	29.24
631.432	29.01
631.623	28.89
631.813	28.81
632.004	28.82
632.195	28.79
632.385	28.7
632.576	28.43
632.767	28.24
632.957	28.16
633.148	28.36
633.339	28.65
633.529	28.83
633.72	28.94
633.91	28.78
634.101	28.81
634.292	28.96
634.482	28.96
634.673	29.09
634.863	29.22
635.054	29.21
635.244	29.22
635.435	29.19
635.625	29.1
635.815	29.02
636.006	29.02
636.196	28.88
636.387	28.88
636.577	29.1
636.767	29.11
636.958	29.16
637.148	29.27
637.338	29.12
637.529	29.29
637.719	29.45
637.909	29.64
638.099	29.73
638.29	30.02
638.48	29.84
638.67	29.79
638.86	29.87
639.05	29.83
639.241	29.94
639.431	29.98
639.621	29.79
639.811	29.76
640.001	29.65
640.191	29.8
640.381	29.74
640.571	29.95
640.761	30.04
640.951	30.01
641.141	30.08
641.331	30.22
641.521	30.6
641.711	30.72
641.901	30.63
642.091	30.61
642.281	30.49
642.471	30.41
642.661	30.24
642.851	30.13
643.041	30.25
643.231	30.38
643.42	30.27
643.61	29.92
643.8	29.88
643.99	29.71
644.18	29.79
644.369	29.78
644.559	30.11
644.749	30.14
644.939	30.25
645.128	30.02
645.318	29.95
645.508	30.08
645.697	30.17
645.887	30.2
646.076	30.31
646.266	30.32
646.456	30.36
646.645	30.06
646.835	30
647.024	29.82
647.214	29.8
647.403	29.76
647.593	29.46
647.782	29.32
647.972	29.42
648.161	29.62
648.351	29.62
648.54	29.66
648.73	29.81
648.919	30.05
649.108	30.41
649.298	30.45
649.487	30.64
649.677	30.74
649.866	30.79
650.055	30.71
650.244	30.63
650.434	30.66
650.623	30.61
650.812	30.55
651.002	30.28
651.191	30.16
651.38	30.31
651.569	29.95
651.758	30.07
651.947	30.29
652.137	30.38
652.326	30.43
652.515	30.37
652.704	30.35
652.893	30.26
653.082	30.39
653.271	30.12
653.46	29.9
653.649	30.24
653.838	30.22
654.027	30
654.216	30.05
654.405	30.12
654.594	30.13
654.783	30.28
654.972	30.53
655.161	30.62
655.35	30.78
655.539	30.73
655.728	30.48
655.916	30.19
656.105	30.34
656.294	30.23
656.483	30.02
656.672	30
656.86	30.01
657.049	30.04
657.238	30.09
657.427	29.9
657.615	29.97
657.804	29.96
657.993	30.17
658.181	30.15
658.37	30.17
658.559	30.18
658.747	30.18
658.936	30.11
659.125	29.73
659.313	29.57
659.502	29.81
659.69	29.81
659.879	29.88
660.067	29.86
660.256	29.99
660.444	29.92
660.633	29.99
660.821	30.03
661.01	30.15
661.198	30.49
661.387	30.67
661.575	30.67
661.763	30.78
661.952	31
662.14	31.02
662.328	30.84
662.517	31.07
662.705	31.05
662.893	31.15
663.082	31.02
663.27	30.99
663.458	30.87
663.646	30.76
663.834	30.92
664.023	30.83
664.211	30.85
664.399	31
664.587	30.97
664.775	31.28
664.963	31.07
665.152	31.14
665.34	31.14
665.528	31.29
665.716	31.45
665.904	31.22
666.092	31.28
666.28	31.33
666.468	31.16
666.656	31.17
666.844	31.02
667.032	31.31
667.22	31.27
667.408	31.3
667.596	31.29
667.784	31.22
667.971	31.35
668.159	31.3
668.347	31.29
668.535	31.44
668.723	31.38
668.911	31.31
669.098	31.05
669.286	31.23
669.474	31.31
669.662	31.13
669.849	31.07
670.037	31.02
670.225	31.19
670.413	31.16
670.6	30.85
670.788	30.73
670.976	30.6
671.163	30.89
671.351	30.67
671.538	30.67
671.726	30.79
671.913	30.74
672.101	30.61
672.289	30.26
672.476	30.34
672.664	30.63
672.851	30.48
673.039	30.76
673.226	30.68
673.413	30.94
673.601	30.96
673.788	30.74
673.976	31.02
674.163	31.06
674.35	31.25
674.538	31.24
674.725	31.22
674.912	31.54
675.1	31.18
675.287	31.33
675.474	31.11
675.662	31.28
675.849	31.64
676.036	31.58
676.223	31.56
676.411	31.67
676.598	31.87
676.785	31.85
676.972	31.82
677.159	31.8
677.346	31.73
677.533	31.86
677.721	31.59
677.908	31.51
678.095	31.48
678.282	31.76
678.469	31.58
678.656	31.4
678.843	31.42
679.03	31.31
679.217	31.31
679.404	31.25
679.591	31.24
679.778	31.44
679.964	31.37
680.151	31.58
680.338	31.51
680.525	31.58
680.712	31.55
680.899	31.68
681.086	31.71
681.272	31.78
681.459	31.75
681.646	31.69
681.833	31.27
682.02	31.44
682.206	31.12
682.393	31.07
682.58	31.2
682.766	31.08
682.953	30.91
683.14	30.99
683.326	31.37
683.513	31.49
683.7	31.42
683.886	31.9
684.073	32.01
684.259	32.05
684.446	31.88
684.632	31.66
684.819	32
685.005	32.08
685.192	32.01
685.378	32.26
685.565	32.39
685.751	32.41
685.938	32.24
686.124	32.03
686.31	32.02
686.497	32.24
686.683	32.39
686.87	32.31
687.056	32.4
687.242	32.56
687.429	32.18
687.615	31.95
687.801	32.08
687.987	32.08
688.174	32.07
688.36	32
688.546	32.09
688.732	32.21
688.918	32.04
689.105	31.93
689.291	31.85
689.477	32.2
689.663	32.47
689.849	32.43
690.035	32.25
690.221	32.38
690.407	32.84
690.593	33.01
690.779	32.5
690.965	32.54
691.151	32.56
691.337	32.64
691.523	32.35
691.709	32.19
691.895	32.23
692.081	32.42
692.267	32.24
692.453	32.08
692.639	31.9
692.825	32.61
693.011	32.77
693.196	32.66
693.382	32.75
693.568	32.64
693.754	32.88
693.94	32.89
694.125	33.15
694.311	33.54
694.497	33.17
694.682	32.89
694.868	32.67
695.054	32.84
695.239	33.28
695.425	33.08
695.611	33.12
695.796	32.93
695.982	32.92
696.168	32.53
696.353	32.33
696.539	32.42
696.724	32.37
696.91	32.37
697.095	32.32
697.281	32.06
697.466	32.21
697.652	32.27
697.837	32.12
698.023	32.23
698.208	32.37
698.393	32.4
698.579	32.43
698.764	32.5
698.949	32.53
699.135	32.5
699.32	32.59
699.505	32.31
699.691	32.22
699.876	32.39
700.061	32.52
700.246	32.25
700.432	32.36
700.617	32.24
700.802	32.41
700.987	32.21
701.172	32.41
701.358	32.58
701.543	33.13
701.728	33.01
701.913	32.94
702.098	32.93
702.283	33.21
702.468	33.37
702.653	33.83
702.838	34.02
703.023	33.91
703.208	33.27
703.393	33.17
703.578	32.78
703.763	33.13
703.948	32.97
704.133	32.35
704.318	32.45
704.503	32.07
704.688	31.78
704.873	31.59
705.057	31.79
705.242	32.35
705.427	32.13
705.612	32
705.797	32.06
705.981	32.25
706.166	32.41
706.351	32.79
706.536	32.85
706.72	32.77
706.905	32.76
707.09	32.93
707.274	32.54
707.459	32.35
707.644	32.51
707.828	32.13
708.013	32.05
708.197	32.83
708.382	32.5
708.567	32.39
708.751	32.58
708.936	32.87
709.12	32.76
709.305	32.92
709.489	33.22
709.673	33.21
709.858	33.41
710.042	33.38
710.227	32.8
710.411	32.86
710.596	32.84
710.78	32.5
710.964	32.09
711.149	32.28
711.333	32.27
711.517	32.22
711.702	32.11
711.886	31.98
712.07	31.83
712.254	31.9
712.438	31.96
712.623	32.23
712.807	32.27
712.991	32.43
713.175	32.04
713.359	32.02
713.544	32
713.728	31.86
713.912	31.9
714.096	32.11
714.28	32.2
714.464	32.16
714.648	31.87
714.832	31.97
715.016	31.89
715.2	32.29
715.384	31.97
715.568	32.15
715.752	32.31
715.936	32.45
716.12	32.64
716.304	32.69
716.488	32.66
716.671	32.97
716.855	33.03
717.039	33
717.223	33.2
717.407	33.48
717.59	33.49
717.774	33.52
717.958	33.4
718.142	32.94
718.325	32.56
718.509	32.81
718.693	32.53
718.877	32.75
719.06	32.96
719.244	32.47
719.428	32.85
719.611	32.75
719.795	33.4
719.978	32.99
720.162	33.05
720.345	33.62
720.529	33.54
720.713	33.58
720.896	33.44
721.08	32.97
721.263	33.13
721.446	32.75
721.63	32.7
721.813	32.55
721.997	32.78
722.18	33.16
722.364	33.2
722.547	32.61
722.73	32.46
722.914	32.56
723.097	32.66
723.28	32.61
723.464	32.75
723.647	32.52
723.83	31.87
724.013	32.43
724.197	32.31
724.38	32.17
724.563	32.58
724.746	32.92
724.929	32.92
725.112	33.45
725.296	33.04
725.479	32.9
725.662	32.88
725.845	33.28
726.028	33.05
726.211	32.97
726.394	32.76
726.577	32.5
726.76	32.61
726.943	32.68
727.126	32.28
727.309	32.94
727.492	33.31
727.675	33.58
727.858	33.53
728.041	33.44
728.224	33.79
728.407	33.92
728.589	33.78
728.772	33.52
728.955	33.54
729.138	33.53
729.321	33.08
729.503	33.02
729.686	33.23
729.869	33.62
730.052	34.03
730.234	33.59
730.417	33.34
730.6	33.61
730.782	33.55
730.965	33.67
731.148	33.57
731.33	33.45
731.513	33.44
731.695	32.93
731.878	32.11
732.061	31.56
732.243	31.57
732.426	31.32
732.608	31.63
732.791	31.66
732.973	31.5
733.156	31.74
733.338	31.8
733.52	31.84
733.703	32.02
733.885	32.43
734.068	32.67
734.25	32.59
734.432	33.38
734.615	32.89
734.797	32.8
734.979	32.83
735.162	32.99
735.344	33.41
735.526	33.11
735.708	33.4
735.891	33.2
736.073	33.5
736.255	33.91
736.437	33.03
736.619	33.18
736.802	33.24
736.984	33.05
737.166	33.2
737.348	32.9
737.53	32.56
737.712	32.42
737.894	32.9
738.076	32.72
738.258	32.51
738.44	33.05
738.622	33.71
738.804	34.36
738.986	34.78
739.168	34.39
739.35	34.9
739.532	34.89
739.714	34.86
739.896	34.4
740.078	34.56
740.259	34.69
740.441	34.6
740.623	33.91
740.805	33.39
740.987	32.81
741.168	32.92
741.35	32.74
741.532	33.32
741.714	33.52
741.895	33.79
742.077	33.88
742.259	34.31
742.44	34.74
742.622	35.04
742.804	34.97
742.985	35.32
743.167	35.85
743.348	35.55
743.53	35.84
743.711	36.08
743.893	35.84
744.075	35.18
744.256	34.61
744.438	34.64
744.619	34.79
744.8	35.04
744.982	35.21
745.163	34.96
745.345	35.13
745.526	34.85
745.707	34.46
745.889	35.29
746.07	34.68
746.252	34.46
746.433	34.17
746.614	33.61
746.795	34.1
746.977	34.08
747.158	33.85
747.339	34.02
747.52	34.05
747.702	33.9
747.883	33.66
748.064	34.69
748.245	35.11
748.426	35.15
748.607	35.97
748.788	35.03
748.97	34.35
749.151	35.19
749.332	35.12
749.513	34.79
749.694	35.19
749.875	35.07
750.056	35.03
750.237	35.28
750.418	35
750.599	34.49
750.78	35.25
750.96	35.29
751.141	34.27
751.322	33.86
751.503	33.62
751.684	33.48
751.865	33.08
752.046	32.71
752.226	32.97
752.407	32.94
752.588	32.3
752.769	32.29
752.949	32.4
753.13	32.87
753.311	33.36
753.492	33.79
753.672	33.92
753.853	34.43
754.034	35.33
754.214	34.79
754.395	35.47
754.575	35.72
754.756	35.52
754.937	35.83
755.117	36.25
755.298	37.13
755.478	37.21
755.659	37.17
755.839	36.85
756.02	36.2
756.2	36.14
756.381	35.09
756.561	35.67
756.741	35.57
756.922	36
757.102	35.59
757.283	34.96
757.463	34.81
757.643	34.41
757.823	34.78
758.004	35.25
758.184	35.05
758.364	34.94
758.545	34.88
758.725	34.58
758.905	34.2
759.085	33.33
759.265	32.82
759.446	32.97
759.626	32.8
759.806	31.62
759.986	31.24
760.166	31.3
760.346	31.24
760.526	31.08
760.706	31.24
760.886	31.15
761.066	31.97
761.246	32.04
761.426	32.11
761.606	31.93
761.786	32.3
761.966	32.6
762.146	33.24
762.326	33.34
762.506	33.66
762.686	33.41
762.866	33.5
763.046	33.27
763.225	33.18
763.405	33.06
763.585	33.69
763.765	33.79
763.945	33.39
764.124	33.14
764.304	33.5
764.484	32.91
764.664	33.4
764.843	33.36
765.023	33.68
765.203	33.5
765.382	33.23
765.562	33.39
765.741	33.63
765.921	33.71
766.101	33.52
766.28	33.02
766.46	32.91
766.639	32
766.819	32.12
766.998	32.55
767.178	33.31
767.357	34.16
767.537	33.52
767.716	34.07
767.896	34.46
768.075	34.52
768.254	35
768.434	35.39
768.613	35.66
768.792	35.7
768.972	35.13
769.151	34.53
769.33	34.39
769.51	34.12
769.689	33.83
769.868	33.78
770.047	33.95
770.226	34.38
770.406	34.78
770.585	35.9
770.764	36.11
770.943	35.75
771.122	35.91
771.301	35.79
771.48	36.53
771.66	36.31
771.839	36.18
772.018	35.87
772.197	35.46
772.376	35.39
772.555	34.73
772.734	33.76
772.913	34.16
773.092	34.09
773.271	34.28
773.449	34.76
773.628	34.7
773.807	34.62
773.986	33.75
774.165	33.51
774.344	33.15
774.523	33.21
774.701	33.71
774.88	33.54
775.059	33.28
775.238	32.89
775.417	31.55
775.595	31.42
775.774	31.84
775.953	33.11
776.131	33.2
776.31	33.49
776.489	33.4
776.667	33.62
776.846	33.6
777.025	34.16
777.203	34.01
777.382	34.5
777.56	33.66
777.739	32.96
777.917	32.56
778.096	33.12
778.274	32.09
778.453	32.66
778.631	32.58
778.81	32.66
778.988	31.59
779.166	31.25
779.345	30.57
779.523	31.75
779.702	32.68
779.88	32.55
780.058	32.15
780.237	32.27
780.415	32.03
780.593	31.58
780.771	31.75
780.95	32.97
781.128	33.99
781.306	34.79
781.484	34.87
781.662	34.79
781.841	35.57
782.019	35.82
782.197	36.88
782.375	36.72
782.553	37.22
782.731	37.27
782.909	37.3
783.087	36.56
783.265	35.68
783.443	35.1
783.621	35.67
783.799	35.31
783.977	35.42
784.155	35.59
784.333	36
784.511	35.56
784.689	35.53
784.867	35.65
785.045	35.57
785.223	36.15
785.4	36.53
785.578	35.39
785.756	35.48
785.934	34.52
786.112	34.74
786.289	34.6
786.467	34.44
786.645	33.84
786.823	32.53
787	32.99
787.178	32.71
787.356	33.67
787.533	33.25
787.711	33.13
787.889	33.43
788.066	32.22
788.244	32.17
788.421	32.77
788.599	32.75
788.776	33.58
788.954	34.43
789.131	34.21
789.309	33.02
789.486	34.27
789.664	34
789.841	34.89
790.019	36.37
790.196	35.87
790.373	35.95
790.551	36.61
790.728	36.3
790.906	35.23
791.083	35.37
791.26	35.19
791.437	34.64
791.615	35.33
791.792	34.55
791.969	34.2
792.146	35.32
792.324	34.7
792.501	34.55
792.678	34.73
792.855	35.18
793.032	35.44
793.209	36.46
793.387	35.35
793.564	35.04
793.741	35.31
793.918	35.06
794.095	34.17
794.272	34.8
794.449	34.68
794.626	35.09
794.803	35.07
794.98	35.74
795.157	35.18
795.334	36.23
795.511	37.39
795.688	36.56
795.864	36.39
796.041	37.36
796.218	37.2
796.395	36.38
796.572	36.42
796.749	36.23
796.925	36.16
797.102	35.82
797.279	35.71
797.456	34.39
797.632	35.21
797.809	35.65
797.986	34.22
798.162	33.6
798.339	34.03
798.516	34.03
798.692	33.53
798.869	33.05
799.046	33.15
799.222	33.35
799.399	33.41
799.575	33.14
799.752	32.56
799.928	33.76
800.105	34.14
800.281	33.74
800.458	34
800.634	35.08
800.811	35.25
800.987	35.31
801.163	35.24
801.34	34.7
801.516	34.85
801.692	35.4
801.869	34.17
802.045	34.96
802.221	35.25
802.398	34.99
802.574	34.2
802.75	34.44
802.926	35.27
803.103	34.68
803.279	35.15
803.455	35.82
803.631	35.92
803.807	36
803.983	36.52
804.16	37.78
804.336	37.62
804.512	37.16
804.688	37.92
804.864	38.05
805.04	38.79
805.216	39.2
805.392	37.88
805.568	37.7
805.744	37.67
805.92	37.02
806.096	36.59
806.272	36.09
806.448	36.81
806.623	36.45
806.799	35.54
806.975	35.96
807.151	35.21
807.327	36.21
807.503	36.18
807.678	35.93
807.854	35.77
808.03	36.16
808.206	36.85
808.381	35.97
808.557	36.46
808.733	36.55
808.908	34.91
809.084	35.08
809.26	35.44
809.435	34.64
809.611	35.48
809.787	35.23
809.962	33.93
810.138	32.68
810.313	32.75
810.489	31.24
810.664	30.66
810.84	30.43
811.015	30.98
811.191	30.16
811.366	31.12
811.542	32.61
811.717	33.49
811.892	34.59
812.068	36.43
812.243	37.71
812.419	38.26
812.594	38.64
812.769	40.05
812.944	38.95
813.12	39.23
813.295	39.41
813.47	38.3
813.645	37.17
813.821	35.87
813.996	35.61
814.171	35.2
814.346	34.62
814.521	35.69
814.697	36.71
814.872	37.56
815.047	37.47
815.222	37.55
815.397	37.34
815.572	38.2
815.747	38.84
815.922	38.19
816.097	38.09
816.272	37.14
816.447	36.63
816.622	35.61
816.797	34.79
816.972	34.73
817.147	34.54
817.322	35.79
817.496	35.54
817.671	35.36
817.846	36.75
818.021	37.6
818.196	40.1
818.371	39.97
818.545	39.48
818.72	38.71
818.895	37.69
819.069	37.23
819.244	36.79
819.419	36.63
819.594	36.74
819.768	35.71
819.943	34.96
820.117	32.98
820.292	32.9
820.467	32.29
820.641	32.44
820.816	32.85
820.99	32.72
821.165	32.3
821.339	32.2
821.514	32.22
821.688	31.81
821.863	31.66
822.037	32.1
822.212	32.21
822.386	32.56
822.56	32.71
822.735	32.97
822.909	32.99
823.084	33.06
823.258	33.14
823.432	33.14
823.606	33.58
823.781	33.92
823.955	34.06
824.129	33.8
824.303	33.68
824.478	33.92
824.652	33.3
824.826	32.87
825	33.13
825.174	33.23
825.348	33.1
825.523	32.84
825.697	32.42
825.871	32.27
826.045	32.09
826.219	32.23
826.393	32.44
826.567	32.86
826.741	33.52
826.915	33.08
827.089	33.13
827.263	33.28
827.437	33.17
827.611	33.44
827.784	33.37
827.958	33.7
828.132	33.22
828.306	32.76
828.48	32.83
828.654	33.34
828.827	33.35
829.001	33.26
829.175	33.33
829.349	33.79
829.522	33.8
829.696	34.53
829.87	35.02
830.044	35.98
830.217	36.02
830.391	35.05
830.565	33.56
830.738	34.21
830.912	34.34
831.085	34.6
831.259	34.06
831.432	34.11
831.606	34.56
831.779	34.87
831.953	34.42
832.126	34.5
832.3	34.58
832.473	34.36
832.647	34.01
832.82	33.61
832.994	32.75
833.167	32.95
833.34	33.13
833.514	32.55
833.687	32.26
833.86	32.72
834.034	32.84
834.207	33.21
834.38	34.53
834.553	35.34
834.727	35.42
834.9	36.22
835.073	36.85
835.246	36.94
835.419	36.83
835.593	36.43
835.766	36.61
835.939	36.88
836.112	37.07
836.285	36.08
836.458	36.24
836.631	37.15
836.804	36.94
836.977	36.45
837.15	36.68
837.323	37.09
837.496	38.36
837.669	38.41
837.842	38.09
838.015	38.63
838.188	39.31
838.361	38.5
838.533	37.04
838.706	36.88
838.879	39.67
839.052	39.84
839.225	40.94
839.398	41.67
839.57	41.66
839.743	42.46
839.916	42.13
840.088	42.12
840.261	43.03
840.434	43.2
840.607	43.55
840.779	41.36
840.952	40.66
841.124	40.85
841.297	40.96
841.47	41.58
841.642	42.55
841.815	42.18
841.987	44.51
842.16	44.85
842.332	46.99
842.505	48.1
842.677	47.33
842.85	48.51
843.022	45.82
843.194	44.36
843.367	43.44
843.539	41.08
843.712	42.28
843.884	41.35
844.056	40.55
844.229	37.91
844.401	38.46
844.573	39.77
844.745	37.86
844.918	39.89
845.09	40.44
845.262	41.68
845.434	42.06
845.606	39.43
845.779	38.7
845.951	37.66
846.123	38.99
846.295	36.36
846.467	34.19
846.639	35.42
846.811	33.04
846.983	34.7
847.155	34.02
847.327	35.45
847.499	38.94
847.671	37.59
847.843	37.43
848.015	37.48
848.187	41.87
848.359	44.34
848.531	45.62
848.703	47.72
848.875	46.41
849.047	45.92
849.218	47.04
849.39	47.06
849.562	50.85
849.734	52.9
849.905	53.17
850.077	48.58
850.249	52.28
850.421	50.75
850.592	51.14
850.764	54.28
850.936	54.13
851.107	52.7
851.279	51.46
851.451	45.06
851.622	45.19
851.794	46.01
851.965	45.78
852.137	42.73
852.308	45.3
852.48	47.81
852.651	48.26
852.823	46.71
852.994	44.7
853.166	42.73
853.337	44.9
853.509	43.2
853.68	43.83
853.851	44.83
854.023	46.61
854.194	44.73
854.365	44.45
854.537	43.82
854.708	45.62
854.879	48.45
855.05	50.73
855.222	54.24
855.393	53.03
855.564	49.25
855.735	48.99
855.906	47.78
856.078	46.19
856.249	46.68
856.42	44.46
856.591	42.19
856.762	37.06
856.933	37.32
857.104	34.72
857.275	36.04
857.446	39.89
857.617	40.64
857.788	40.65
857.959	42.58
858.13	39.62
858.301	39.57
858.472	39.48
858.643	44.03
858.814	45.23
858.985	44.46
859.155	42.22
859.326	41.52
859.497	45.46
859.668	46.52
859.839	44.06
860.009	46.31
860.18	46.45
860.351	45.77
860.522	41.02
860.692	40.91
860.863	42.5
861.034	44.62
861.204	45.05
861.375	45.66
861.546	45.52
861.716	45.66
861.887	44.02
862.057	42.07
862.228	44.3
862.398	48.45
862.569	50.83
862.739	49.38
862.91	49.43
863.08	47.53
863.251	44.35
863.421	42.18
863.592	42.3
863.762	39.09
863.932	41
864.103	43.37
864.273	42.12
864.443	39.04
864.614	38.63
864.784	39.56
864.954	39.25
865.125	40.74
865.295	43.13
865.465	45.02
865.635	43.71
865.805	43.46
865.976	37.23
866.146	38.41
866.316	37.75
866.486	37.08
866.656	36.01
866.826	36.02
866.996	33.87
867.166	29.02
867.336	29.69
867.506	36.04
867.676	38.01
867.846	41.47
868.016	44.84
868.186	44.55
868.356	45.58
868.526	44.3
868.696	47.01
868.866	49.22
869.036	50.55
869.206	50.07
869.376	41.43
869.545	39.68
869.715	37.53
869.885	33.48
870.055	34.55
870.224	38.55
870.394	39.52
870.564	43.47
870.734	42.28
870.903	43.65
871.073	45.88
871.243	48.37
871.412	49.69
871.582	49.88
871.751	49.35
871.921	48.77
872.091	47.86
872.26	48.61
872.43	44.52
872.599	49.12
872.769	51.59
872.938	48.24
873.108	50.58
873.277	49.72
873.446	49.35
873.616	49.63
873.785	55.36
873.955	50.3
874.124	53.39
874.293	53.61
874.463	46.59
874.632	45.82
874.801	47.97
874.971	47.24
875.14	43.61
875.309	45.79
875.478	46.83
875.647	42.23
875.817	42.93
875.986	37.08
876.155	32.39
876.324	36.92
876.493	33.18
876.662	31.1
876.831	32.93
877	33.92
877.17	36.97
877.339	41.48
877.508	44.83
877.677	44.14
877.846	45.46
878.015	49.76
878.184	51.01
878.352	52.82
878.521	53.07
878.69	51.61
878.859	52.3
879.028	50.52
879.197	47.14
879.366	43.62
879.534	43.91
879.703	41.97
879.872	40.49
880.041	37.36
880.21	36.63
880.378	35.87
880.547	35.12
880.716	33.74
880.884	33.57
881.053	32.92
881.222	33.2
881.39	33.15
881.559	32.96
881.727	32.79
881.896	33.75
882.065	33.39
882.233	33.64
882.402	34.05
882.57	34.27
882.739	34.26
882.907	34.69
883.076	34.77
883.244	35.55
883.412	35.35
883.581	35.52
883.749	34.62
883.918	34.88
884.086	35.07
884.254	34.24
884.423	34.57
884.591	34.2
884.759	33.88
884.927	35.03
885.096	34.13
885.264	35.66
885.432	35.73
885.6	36.33
885.769	36.3
885.937	36.4
886.105	37.69
886.273	38.04
886.441	40.8
886.609	41.99
886.777	40.84
886.945	40.98
887.113	41.53
887.281	41.39
887.449	42.47
887.617	46.94
887.785	47.19
887.953	47.26
888.121	47.83
888.289	47.55
888.457	45.18
888.625	43.33
888.793	44.07
888.961	44.71
889.129	47.73
889.296	48.9
889.464	45.96
889.632	46.08
889.8	47.2
889.967	48.88
890.135	46.56
