Data from 2938485_Reflection_2.txt Node
Date: Wed Jun 17 01:00:26 EDT 2015
User: robert
Spectrometer: USB4E03002
Autoset integration time: false
Trigger mode: 4
Integration Time (sec): 1.000000E-1
Scans to average: 10
Electric dark correction enabled: true
Nonlinearity correction enabled: false
Boxcar width: 5
Stray light correction enabled: false
XAxis mode: Wavelengths
Stop averaging: false
Number of Pixels in Spectrum: 3648
>>>>>Begin Spectral Data<<<<<
177.575	-247.74
177.794	-18.63
178.014	34.12
178.233	39.98
178.452	66.5
178.672	197.29
178.891	177.21
179.11	-284.94
179.33	-1102.65
179.549	-853.85
179.768	143.52
179.987	235.87
180.207	1724.62
180.426	288.79
180.645	1294.47
180.864	-93.17
181.084	-234.29
181.303	-217.73
181.522	-2856.64
181.741	363.33
181.96	256.05
182.179	88.9
182.398	297.64
182.618	188.7
182.837	79.71
183.056	-25.85
183.275	-1.66
183.494	33.67
183.713	-2.31
183.932	15.46
184.151	-14.27
184.37	-3.37
184.589	-545.29
184.808	-264.93
185.027	-236.87
185.246	-160.18
185.465	-64.92
185.684	-87.13
185.903	-176.71
186.122	-425.85
186.341	-165.62
186.56	-238.56
186.779	-605.44
186.998	54.61
187.216	99.84
187.435	63.22
187.654	24.49
187.873	107.69
188.092	-65.89
188.311	-125.94
188.53	41.47
188.748	392.66
188.967	1734.27
189.186	559.83
189.405	-8.46
189.623	-110.54
189.842	-325.25
190.061	-336.12
190.28	-197.77
190.498	163.59
190.717	111.99
190.936	57.43
191.154	55.9
191.373	52.15
191.592	59.93
191.81	41.53
192.029	-6.61
192.248	-59.49
192.466	-192.55
192.685	17.5
192.904	144.06
193.122	190.5
193.341	-81.49
193.559	-884.77
193.778	-163.8
193.996	831.62
194.215	483.4
194.433	339.66
194.652	203.49
194.87	158.85
195.089	197.2
195.307	88.89
195.526	95.33
195.744	62.43
195.963	-147.48
196.181	-410.26
196.399	343.18
196.618	-488.57
196.836	-172.55
197.055	-105.98
197.273	-69.77
197.491	1310.41
197.71	-28.74
197.928	-218.66
198.146	-116.92
198.365	108.05
198.583	174.77
198.801	159.17
199.019	99.48
199.238	904.73
199.456	455.79
199.674	390.14
199.892	225.21
200.111	260.89
200.329	169.96
200.547	153.94
200.765	164.59
200.983	151.87
201.202	174.92
201.42	186.05
201.638	169.88
201.856	245.13
202.074	257.11
202.292	364.93
202.51	436.18
202.728	-811.85
202.946	3230.22
203.165	160.72
203.383	196.34
203.601	212.3
203.819	200.09
204.037	157.47
204.255	86.68
204.473	11.62
204.691	1.06
204.909	13.81
205.127	-8.45
205.345	2.14
205.562	17.75
205.78	22.62
205.998	-4.38
206.216	-131.76
206.434	135.98
206.652	118.72
206.87	159.26
207.088	780.09
207.306	1293.2
207.523	-100.16
207.741	-176.92
207.959	-301.62
208.177	-180.03
208.395	-481.73
208.612	-213.44
208.83	1153.85
209.048	-1415.38
209.266	-462.7
209.483	358.31
209.701	95.21
209.919	143.47
210.136	131.6
210.354	88.16
210.572	92.61
210.79	178.45
211.007	189.49
211.225	97.53
211.442	-9.97
211.66	-1.26
211.878	38.54
212.095	-873.08
212.313	-2230.77
212.53	2579.81
212.748	-553.28
212.966	-358.36
213.183	-200.51
213.401	-38.93
213.618	-40.33
213.836	-13.78
214.053	-7.71
214.271	-245.55
214.488	105.7
214.705	73.17
214.923	51.63
215.14	34.62
215.358	38.32
215.575	39.26
215.793	24.67
216.01	9.36
216.227	2.43
216.445	18.65
216.662	39.45
216.879	46.31
217.097	42.84
217.314	46.32
217.531	42.54
217.749	31.85
217.966	28.45
218.183	47.44
218.4	43.3
218.618	43.56
218.835	39
219.052	32.81
219.269	22.48
219.487	17.36
219.704	13.22
219.921	7.72
220.138	18.04
220.355	20.81
220.572	9.96
220.79	17.37
221.007	22.24
221.224	15.97
221.441	15.88
221.658	18.75
221.875	13.48
222.092	15.3
222.309	25.1
222.526	26.93
222.743	33.19
222.96	33.83
223.177	30.42
223.394	28.02
223.611	32.92
223.828	35.01
224.045	30.16
224.262	29.04
224.479	20.8
224.696	17.98
224.913	15.19
225.13	13.38
225.347	9.61
225.564	11.36
225.781	13.89
225.997	11.53
226.214	9.56
226.431	10.99
226.648	11.04
226.865	13.35
227.082	13.43
227.298	13.13
227.515	12.35
227.732	14.44
227.949	13.26
228.165	12.98
228.382	13.35
228.599	13.7
228.816	13.53
229.032	14.15
229.249	12.45
229.466	11.75
229.682	11.98
229.899	11.4
230.116	10.62
230.332	10.67
230.549	8.44
230.765	9.43
230.982	7.1
231.199	7.42
231.415	8.58
231.632	11.5
231.848	13.17
232.065	13.86
232.281	14.97
232.498	14.69
232.714	14.44
232.931	15.29
233.147	12.46
233.364	17.42
233.58	18.15
233.797	16.16
234.013	16.22
234.23	14.16
234.446	13.59
234.662	15.87
234.879	14.88
235.095	13.48
235.312	14.44
235.528	15.72
235.744	14.71
235.961	15.17
236.177	15.65
236.393	17.14
236.61	17.55
236.826	17.44
237.042	14.19
237.258	15.95
237.475	20.67
237.691	18.42
237.907	18.06
238.123	16.81
238.339	15.48
238.556	16.67
238.772	14.72
238.988	15.12
239.204	15.11
239.42	15.39
239.636	15.04
239.853	13.26
240.069	13.44
240.285	13.11
240.501	13.84
240.717	13.89
240.933	13.34
241.149	13.87
241.365	13.29
241.581	13.05
241.797	12.22
242.013	11.5
242.229	12.26
242.445	12.79
242.661	13.02
242.877	11.91
243.093	11.24
243.309	11.96
243.525	11.28
243.741	12.51
243.957	12.03
244.173	12.4
244.388	13
244.604	12.34
244.82	12.55
245.036	12.63
245.252	13.21
245.468	13.55
245.683	13.27
245.899	13.08
246.115	12.69
246.331	12.77
246.547	13.31
246.762	12.9
246.978	13.1
247.194	12.71
247.409	12.47
247.625	11.88
247.841	11.45
248.057	10.99
248.272	11.14
248.488	10.95
248.703	10.92
248.919	9.73
249.135	11.04
249.35	10.77
249.566	10.07
249.782	10.67
249.997	10.86
250.213	10.96
250.428	10.89
250.644	10.94
250.859	10.76
251.075	10.79
251.29	10.28
251.506	9.35
251.721	9.14
251.937	10.29
252.152	9.43
252.368	9.33
252.583	9.23
252.798	9.95
253.014	9.73
253.229	9.46
253.445	9.67
253.66	10.76
253.875	10.12
254.091	10.54
254.306	9.69
254.521	10.68
254.737	11.46
254.952	11.23
255.167	10.95
255.383	11.59
255.598	12.63
255.813	12.66
256.028	12.88
256.244	12.64
256.459	11.66
256.674	11.34
256.889	10.54
257.104	9.49
257.32	9.65
257.535	9.49
257.75	9.05
257.965	8.34
258.18	8.27
258.395	8.11
258.61	8.56
258.826	8.85
259.041	8.91
259.256	9.19
259.471	9.44
259.686	9.27
259.901	9.23
260.116	9.06
260.331	9.35
260.546	9.32
260.761	9.25
260.976	8.85
261.191	8.8
261.406	8.7
261.621	8.65
261.836	8.36
262.05	8.5
262.265	8.59
262.48	8.31
262.695	9.06
262.91	9.35
263.125	9.6
263.34	9.48
263.555	9.47
263.769	10.41
263.984	10.33
264.199	10.7
264.414	10.83
264.629	10.62
264.843	10.7
265.058	10
265.273	10.45
265.488	10.27
265.702	9.71
265.917	9.35
266.132	9.07
266.346	8.8
266.561	8.86
266.776	8.87
266.99	8.78
267.205	9
267.42	9.38
267.634	8.28
267.849	8.7
268.063	9.49
268.278	9.36
268.492	9.03
268.707	8.95
268.922	8.69
269.136	8.82
269.351	9.09
269.565	9.65
269.78	9.25
269.994	9.83
270.209	9.13
270.423	8.67
270.637	9.52
270.852	9.44
271.066	9.85
271.281	9.96
271.495	9.44
271.709	9.54
271.924	9.52
272.138	9.73
272.353	9.49
272.567	9.82
272.781	10.46
272.996	10.32
273.21	10.6
273.424	10.07
273.638	9.83
273.853	10.13
274.067	10.17
274.281	9.96
274.495	9.71
274.71	9.78
274.924	9.36
275.138	9.14
275.352	8.55
275.566	8.12
275.781	8.11
275.995	7.62
276.209	7.83
276.423	7.23
276.637	7.43
276.851	7.94
277.065	7.88
277.279	8.69
277.493	8.19
277.707	8.55
277.921	8.62
278.135	8.8
278.349	9.58
278.563	9.58
278.777	9.58
278.991	9.74
279.205	9.28
279.419	9.65
279.633	9.69
279.847	9.67
280.061	9.64
280.275	9.89
280.489	10.52
280.703	10.55
280.917	10.41
281.131	10.44
281.344	10.2
281.558	10.24
281.772	9.8
281.986	9.56
282.2	9.35
282.414	9.2
282.627	9.01
282.841	8.51
283.055	8.24
283.269	8.09
283.482	8.01
283.696	7.35
283.91	7.62
284.123	8.07
284.337	7.93
284.551	8.27
284.764	8.24
284.978	8.29
285.192	8
285.405	7.91
285.619	8.08
285.833	7.99
286.046	8.48
286.26	8.17
286.473	7.74
286.687	7.75
286.9	7.81
287.114	7.6
287.327	7.93
287.541	8.16
287.754	8.03
287.968	7.74
288.181	7.71
288.395	7.79
288.608	8.04
288.822	8.22
289.035	8.33
289.248	7.83
289.462	8.26
289.675	7.78
289.889	7.73
290.102	8.08
290.315	8.39
290.529	8.87
290.742	8.87
290.955	8.58
291.169	8.43
291.382	8.18
291.595	8.73
291.808	8.1
292.022	8.46
292.235	9.05
292.448	8.92
292.661	8.28
292.875	7.75
293.088	7.77
293.301	7.77
293.514	7.68
293.727	8.04
293.94	7.89
294.153	8.24
294.367	8.03
294.58	7.45
294.793	7.63
295.006	8.15
295.219	8.53
295.432	8.57
295.645	8.67
295.858	8.6
296.071	8.54
296.284	8.61
296.497	8.74
296.71	8.65
296.923	9.07
297.136	9
297.349	8.94
297.562	8.31
297.775	8.33
297.988	8.7
298.201	8.74
298.414	9.07
298.626	9.06
298.839	8.39
299.052	8.55
299.265	8.34
299.478	8.14
299.691	7.84
299.903	8.27
300.116	8.22
300.329	7.87
300.542	8.1
300.755	7.92
300.967	8.05
301.18	8.42
301.393	8.06
301.605	7.8
301.818	7.84
302.031	8.16
302.243	8.76
302.456	9.14
302.669	9.2
302.881	8.73
303.094	8.72
303.307	8.42
303.519	8.59
303.732	8.92
303.944	9.14
304.157	9.23
304.37	9.44
304.582	8.54
304.795	7.94
305.007	7.76
305.22	8.23
305.432	8.24
305.645	8.46
305.857	8.12
306.069	8.18
306.282	8.94
306.494	9.2
306.707	8.95
306.919	8.98
307.132	8.81
307.344	9
307.556	9.04
307.769	8.73
307.981	8.28
308.193	8.65
308.406	8.34
308.618	7.65
308.83	7.51
309.043	7.59
309.255	7.96
309.467	8.13
309.679	7.85
309.892	7.44
310.104	7.38
310.316	7.71
310.528	7.65
310.74	8.11
310.953	8.36
311.165	8.33
311.377	7.84
311.589	7.58
311.801	7.8
312.013	7.81
312.225	8.42
312.437	8.08
312.649	8.18
312.862	7.99
313.074	7.58
313.286	7.5
313.498	7.35
313.71	7.83
313.922	8.24
314.134	7.71
314.346	8.12
314.558	7.91
314.77	8.17
314.982	7.7
315.193	7.81
315.405	8.05
315.617	7.65
315.829	7.48
316.041	7.82
316.253	7.26
316.465	7.69
316.677	8.02
316.888	8.4
317.1	8.67
317.312	9.19
317.524	9.39
317.736	9.78
317.947	9.8
318.159	9.66
318.371	9.13
318.583	9.4
318.794	8.96
319.006	8.5
319.218	8.01
319.43	7.85
319.641	7.67
319.853	7.7
320.064	6.8
320.276	7.4
320.488	8
320.699	8.12
320.911	8.02
321.123	8.51
321.334	8.38
321.546	8.29
321.757	7.78
321.969	8.08
322.18	7.64
322.392	8.21
322.603	8.07
322.815	7.93
323.026	7.84
323.238	7.69
323.449	7.18
323.661	7.29
323.872	7.22
324.083	7.73
324.295	7.42
324.506	7.34
324.718	7.02
324.929	6.81
325.14	6.78
325.352	6.66
325.563	7.13
325.774	7.38
325.986	6.99
326.197	7.72
326.408	7.5
326.62	7.26
326.831	7.3
327.042	7.73
327.253	8.12
327.464	8.19
327.676	8.58
327.887	8.36
328.098	8.39
328.309	8.97
328.52	8.22
328.732	8.6
328.943	9.38
329.154	9.8
329.365	9.23
329.576	9.48
329.787	9.75
329.998	9.68
330.209	9.64
330.42	9.91
330.631	9.69
330.842	10.06
331.053	9.84
331.264	9.11
331.475	9.1
331.686	9.31
331.897	8.47
332.108	7.98
332.319	7.74
332.53	7.48
332.741	6.61
332.952	6.37
333.163	6
333.374	6.39
333.585	6.15
333.795	5.9
334.006	5.97
334.217	6.54
334.428	6.83
334.639	6.83
334.849	6.98
335.06	7.45
335.271	7.89
335.482	8.05
335.692	7.58
335.903	8.08
336.114	8.04
336.325	8.14
336.535	7.58
336.746	7.41
336.957	7.29
337.167	7.57
337.378	7.94
337.589	7.58
337.799	7.13
338.01	7.19
338.22	7.16
338.431	7.59
338.642	7.38
338.852	7.64
339.063	7.98
339.273	8.44
339.484	8.39
339.694	7.99
339.905	8.14
340.115	8.15
340.326	8.21
340.536	8.05
340.746	7.56
340.957	7.64
341.167	7.69
341.378	7.53
341.588	7.27
341.799	6.83
342.009	6.89
342.219	6.94
342.43	7.05
342.64	7.13
342.85	7.11
343.061	7.21
343.271	7.02
343.481	7.29
343.691	7.15
343.902	7.19
344.112	7.49
344.322	7.33
344.532	7.54
344.743	7.61
344.953	7.66
345.163	7.78
345.373	8.02
345.583	8.15
345.793	8.12
346.004	8.11
346.214	8.26
346.424	8.23
346.634	8.69
346.844	8.23
347.054	8.68
347.264	8.81
347.474	8.48
347.684	8.33
347.894	8.16
348.104	7.46
348.314	7.55
348.524	7.37
348.734	7.81
348.944	7.45
349.154	7.35
349.364	7.04
349.574	6.98
349.784	7.1
349.994	7.1
350.204	7.47
350.413	7.64
350.623	7.44
350.833	7.47
351.043	7.18
351.253	7.41
351.463	7.16
351.672	6.92
351.882	6.68
352.092	6.84
352.302	6.45
352.511	6.17
352.721	6.44
352.931	6.57
353.141	6.45
353.35	6.46
353.56	6.38
353.77	6.99
353.979	7.36
354.189	7.26
354.399	7.19
354.608	7.52
354.818	7.59
355.027	7.24
355.237	6.96
355.447	7.06
355.656	6.86
355.866	6.78
356.075	6.45
356.285	6.4
356.494	6.6
356.704	6.5
356.913	6.62
357.123	6.35
357.332	6.78
357.542	6.88
357.751	6.93
357.96	6.77
358.17	6.56
358.379	6.58
358.589	6.48
358.798	6.44
359.007	6.53
359.217	6.4
359.426	6.47
359.635	6.16
359.845	6.26
360.054	6.15
360.263	6.27
360.472	6.6
360.682	6.53
360.891	6.44
361.1	6.35
361.309	6.35
361.519	6.13
361.728	6.25
361.937	6.14
362.146	5.95
362.355	5.87
362.564	5.89
362.774	5.74
362.983	5.84
363.192	5.73
363.401	5.84
363.61	5.98
363.819	6.23
364.028	6.19
364.237	6.51
364.446	6.71
364.655	6.77
364.864	6.63
365.073	6.82
365.282	6.89
365.491	6.86
365.7	6.68
365.909	6.33
366.118	6.24
366.327	5.88
366.536	5.97
366.745	6.14
366.954	6.2
367.162	6.41
367.371	6.19
367.58	5.83
367.789	6.03
367.998	6.14
368.207	6.18
368.415	6.26
368.624	6.55
368.833	6.15
369.042	5.87
369.25	5.74
369.459	5.45
369.668	5.09
369.877	5.39
370.085	5.21
370.294	4.96
370.503	4.94
370.711	4.72
370.92	4.76
371.129	4.95
371.337	4.72
371.546	4.84
371.754	4.76
371.963	5.06
372.171	5.06
372.38	5.22
372.589	5.68
372.797	5.72
373.006	5.74
373.214	5.49
373.423	5.33
373.631	5.66
373.84	5.47
374.048	5.5
374.256	5.18
374.465	4.87
374.673	4.76
374.882	4.65
375.09	4.52
375.298	4.51
375.507	4.62
375.715	4.55
375.923	4.49
376.132	4.66
376.34	4.96
376.548	5.19
376.757	5.42
376.965	5.44
377.173	5.44
377.381	5.72
377.59	5.81
377.798	5.89
378.006	6.1
378.214	5.82
378.423	5.91
378.631	5.84
378.839	5.77
379.047	5.82
379.255	6.04
379.463	5.83
379.671	5.91
379.879	5.76
380.088	5.66
380.296	5.47
380.504	5.79
380.712	5.74
380.92	5.44
381.128	5.42
381.336	5.2
381.544	5.12
381.752	5.13
381.96	4.7
382.168	4.69
382.376	4.78
382.584	4.95
382.791	4.89
382.999	4.68
383.207	4.74
383.415	4.83
383.623	4.95
383.831	4.73
384.039	4.72
384.247	5.03
384.454	5.1
384.662	5.1
384.87	5.12
385.078	4.9
385.285	4.92
385.493	5.06
385.701	4.87
385.909	4.77
386.116	4.84
386.324	4.84
386.532	4.71
386.739	4.73
386.947	4.71
387.155	4.52
387.362	4.71
387.57	4.75
387.778	4.74
387.985	5.14
388.193	5.15
388.4	5.23
388.608	4.96
388.816	5.02
389.023	5.09
389.231	5.04
389.438	5.2
389.646	5.18
389.853	5.28
390.061	5.23
390.268	5.11
390.475	5.14
390.683	5.18
390.89	5.42
391.098	5.42
391.305	5.26
391.512	5.33
391.72	5.28
391.927	5.33
392.135	5.17
392.342	5.06
392.549	4.95
392.756	4.93
392.964	4.87
393.171	4.94
393.378	4.99
393.586	5.04
393.793	4.83
394	4.89
394.207	4.84
394.414	4.97
394.622	5.23
394.829	5.27
395.036	5.47
395.243	5.56
395.45	5.51
395.657	5.52
395.864	5.55
396.072	5.69
396.279	5.72
396.486	5.79
396.693	5.57
396.9	5.44
397.107	5.52
397.314	5.11
397.521	5.07
397.728	4.97
397.935	4.79
398.142	4.87
398.349	4.96
398.556	4.85
398.763	4.88
398.97	5.01
399.177	4.97
399.383	5.07
399.59	5.33
399.797	5.27
400.004	5.16
400.211	4.97
400.418	4.92
400.625	4.54
400.831	4.54
401.038	4.47
401.245	4.52
401.452	4.56
401.658	4.31
401.865	4.29
402.072	4.22
402.279	4.37
402.485	4.55
402.692	4.46
402.899	4.66
403.105	4.66
403.312	4.53
403.519	4.52
403.725	4.46
403.932	4.42
404.138	4.41
404.345	4.53
404.552	4.49
404.758	4.34
404.965	4.38
405.171	4.4
405.378	4.27
405.584	4.39
405.791	4.2
405.997	4.09
406.204	4.17
406.41	4.14
406.617	3.9
406.823	3.93
407.029	4.17
407.236	4.12
407.442	4.09
407.649	4.26
407.855	4.27
408.061	4.35
408.268	4.39
408.474	4.28
408.68	4.37
408.887	4.54
409.093	4.51
409.299	4.46
409.505	4.49
409.712	4.53
409.918	4.45
410.124	4.35
410.33	4.58
410.537	4.64
410.743	4.81
410.949	4.62
411.155	4.55
411.361	4.68
411.567	4.66
411.773	4.68
411.98	4.76
412.186	4.68
412.392	4.81
412.598	4.63
412.804	4.57
413.01	4.35
413.216	4.5
413.422	4.4
413.628	4.25
413.834	4.34
414.04	4.44
414.246	4.31
414.452	4.4
414.658	4.3
414.864	4.32
415.07	4.3
415.275	4.25
415.481	4.2
415.687	4.25
415.893	4.23
416.099	4.14
416.305	4.02
416.511	4.02
416.716	3.98
416.922	3.88
417.128	3.85
417.334	3.92
417.539	3.99
417.745	3.92
417.951	3.82
418.157	3.85
418.362	3.88
418.568	3.84
418.774	3.8
418.979	3.87
419.185	3.94
419.391	3.91
419.596	3.9
419.802	3.92
420.008	3.96
420.213	4.65
420.419	4.65
420.624	4.66
420.83	4.7
421.035	4.77
421.241	4.75
421.446	4.76
421.652	4.8
421.857	4.75
422.063	4.73
422.268	4.74
422.474	4.08
422.679	4.06
422.885	4.03
423.09	4.04
423.295	4.02
423.501	3.98
423.706	3.95
423.911	3.93
424.117	3.95
424.322	4
424.527	4.03
424.733	4.11
424.938	4.08
425.143	4.06
425.349	3.93
425.554	3.94
425.759	3.96
425.964	3.99
426.169	4.05
426.375	4.07
426.58	4.06
426.785	3.97
426.99	3.97
427.195	4.05
427.4	3.96
427.605	4.15
427.811	4.14
428.016	4.09
428.221	4.13
428.426	4.01
428.631	3.95
428.836	3.8
429.041	3.87
429.246	3.81
429.451	3.7
429.656	3.73
429.861	3.68
430.066	3.68
430.271	3.68
430.476	3.58
430.681	3.5
430.886	3.58
431.09	3.61
431.295	3.61
431.5	3.67
431.705	3.62
431.91	3.69
432.115	3.65
432.32	3.6
432.524	3.59
432.729	3.58
432.934	3.68
433.139	3.67
433.343	3.74
433.548	3.7
433.753	3.68
433.958	3.72
434.162	3.68
434.367	3.76
434.572	3.8
434.776	3.81
434.981	3.74
435.186	3.73
435.39	3.6
435.595	3.53
435.799	3.56
436.004	3.53
436.209	3.68
436.413	3.76
436.618	3.65
436.822	3.71
437.027	3.74
437.231	3.78
437.436	3.76
437.64	3.88
437.845	3.92
438.049	3.8
438.253	3.73
438.458	3.67
438.662	3.62
438.867	3.64
439.071	3.63
439.275	3.63
439.48	3.73
439.684	3.8
439.888	3.73
440.093	3.71
440.297	3.76
440.501	3.81
440.706	3.8
440.91	3.77
441.114	3.76
441.318	3.74
441.523	3.74
441.727	3.62
441.931	3.58
442.135	3.64
442.339	3.67
442.543	3.67
442.748	3.65
442.952	3.66
443.156	3.68
443.36	3.77
443.564	3.69
443.768	3.62
443.972	3.59
444.176	3.57
444.38	3.56
444.584	3.59
444.788	3.59
444.992	3.58
445.196	3.59
445.4	3.61
445.604	3.58
445.808	3.59
446.012	3.65
446.216	3.66
446.42	3.68
446.624	3.63
446.828	3.63
447.032	3.63
447.235	3.6
447.439	3.56
447.643	3.5
447.847	3.52
448.051	3.56
448.254	3.47
448.458	3.51
448.662	3.49
448.866	3.47
449.069	3.37
449.273	3.39
449.477	3.54
449.681	3.55
449.884	3.59
450.088	3.62
450.292	3.65
450.495	3.76
450.699	3.71
450.902	3.75
451.106	3.72
451.31	3.71
451.513	3.75
451.717	3.79
451.92	3.82
452.124	3.81
452.327	3.74
452.531	3.61
452.734	3.54
452.938	3.59
453.141	3.43
453.345	3.49
453.548	3.54
453.752	3.53
453.955	3.5
454.158	3.56
454.362	3.58
454.565	3.55
454.769	3.58
454.972	3.64
455.175	3.66
455.379	3.71
455.582	3.82
455.785	3.86
455.988	3.83
456.192	3.78
456.395	3.64
456.598	3.57
456.801	3.56
457.005	3.59
457.208	3.6
457.411	3.64
457.614	3.6
457.817	3.55
458.021	3.53
458.224	3.5
458.427	3.49
458.63	3.56
458.833	3.58
459.036	3.61
459.239	3.66
459.442	3.62
459.645	3.61
459.848	3.7
460.051	3.7
460.254	3.7
460.457	3.74
460.66	3.66
460.863	3.6
461.066	3.54
461.269	3.52
461.472	3.56
461.675	3.56
461.878	3.51
462.081	3.46
462.284	3.51
462.486	3.51
462.689	3.55
462.892	3.64
463.095	3.62
463.298	3.7
463.5	3.65
463.703	3.56
463.906	3.5
464.109	3.55
464.311	3.49
464.514	3.5
464.717	3.53
464.92	3.46
465.122	3.42
465.325	3.52
465.528	3.52
465.73	3.58
465.933	3.61
466.135	3.68
466.338	3.64
466.541	3.67
466.743	3.59
466.946	3.65
467.148	3.7
467.351	3.73
467.553	3.71
467.756	3.8
467.958	3.81
468.161	3.78
468.363	3.78
468.566	3.83
468.768	3.81
468.971	3.92
469.173	3.87
469.375	3.77
469.578	3.67
469.78	3.57
469.983	3.58
470.185	3.55
470.387	3.57
470.59	3.57
470.792	3.54
470.994	3.52
471.196	3.5
471.399	3.49
471.601	3.55
471.803	3.7
472.005	3.75
472.208	3.68
472.41	3.66
472.612	3.62
472.814	3.63
473.016	3.57
473.218	3.62
473.421	3.58
473.623	3.65
473.825	3.66
474.027	3.63
474.229	3.62
474.431	3.65
474.633	3.7
474.835	3.59
475.037	3.62
475.239	3.7
475.441	3.69
475.643	3.64
475.845	3.64
476.047	3.72
476.249	3.71
476.451	3.78
476.653	3.73
476.855	3.65
477.057	3.69
477.258	3.67
477.46	3.62
477.662	3.55
477.864	3.52
478.066	3.44
478.268	3.38
478.469	3.33
478.671	3.33
478.873	3.38
479.075	3.49
479.276	3.58
479.478	3.54
479.68	3.58
479.882	3.62
480.083	3.58
480.285	3.62
480.487	3.58
480.688	3.64
480.89	3.62
481.091	3.62
481.293	3.59
481.495	3.59
481.696	3.57
481.898	3.56
482.099	3.59
482.301	3.63
482.502	3.6
482.704	3.62
482.905	3.6
483.107	3.6
483.308	3.58
483.51	3.54
483.711	3.54
483.913	3.55
484.114	3.52
484.315	3.5
484.517	3.47
484.718	3.51
484.92	3.49
485.121	3.49
485.322	3.48
485.524	3.5
485.725	3.51
485.926	3.49
486.127	3.5
486.329	3.52
486.53	3.52
486.731	3.53
486.932	3.51
487.134	3.5
487.335	3.5
487.536	3.52
487.737	3.5
487.938	3.56
488.139	3.55
488.341	3.57
488.542	3.6
488.743	3.61
488.944	3.62
489.145	3.63
489.346	3.58
489.547	3.61
489.748	3.56
489.949	3.59
490.15	3.61
490.351	3.63
490.552	3.63
490.753	3.63
490.954	3.63
491.155	3.67
491.356	3.69
491.557	3.78
491.758	3.78
491.959	3.81
492.159	3.82
492.36	3.78
492.561	3.81
492.762	3.85
492.963	3.89
493.164	3.88
493.364	3.82
493.565	3.84
493.766	3.8
493.967	3.84
494.167	3.86
494.368	3.86
494.569	3.84
494.769	3.8
494.97	3.75
495.171	3.68
495.371	3.68
495.572	3.74
495.773	3.76
495.973	3.75
496.174	3.73
496.375	3.72
496.575	3.76
496.776	3.83
496.976	3.84
497.177	3.86
497.377	3.89
497.578	3.92
497.778	3.92
497.979	3.91
498.179	3.95
498.38	3.95
498.58	4.07
498.78	3.97
498.981	3.95
499.181	4
499.382	3.98
499.582	3.98
499.782	3.98
499.983	3.88
500.183	3.88
500.383	3.81
500.584	3.78
500.784	3.78
500.984	3.86
501.184	3.86
501.385	3.85
501.585	3.87
501.785	3.99
501.985	3.99
502.185	3.98
502.386	4
502.586	4.09
502.786	4.17
502.986	4.07
503.186	4
503.386	4.04
503.586	4.08
503.786	4.1
503.987	4.01
504.187	4.13
504.387	4.2
504.587	4.17
504.787	4.17
504.987	4.21
505.187	4.21
505.387	4.33
505.587	4.36
505.786	4.25
505.986	4.35
506.186	4.37
506.386	4.32
506.586	4.33
506.786	4.33
506.986	4.28
507.186	4.27
507.386	4.36
507.585	4.34
507.785	4.25
507.985	4.38
508.185	4.31
508.384	4.33
508.584	4.29
508.784	4.32
508.984	4.38
509.183	4.44
509.383	4.46
509.583	4.42
509.782	4.39
509.982	4.49
510.182	4.47
510.381	4.47
510.581	4.49
510.781	4.59
510.98	4.56
511.18	4.57
511.379	4.57
511.579	4.51
511.778	4.55
511.978	4.64
512.177	4.64
512.377	4.64
512.576	4.68
512.776	4.61
512.975	4.58
513.175	4.58
513.374	4.52
513.573	4.49
513.773	4.48
513.972	4.48
514.172	4.49
514.371	4.48
514.57	4.52
514.77	4.45
514.969	4.57
515.168	4.58
515.367	4.58
515.567	4.65
515.766	4.66
515.965	4.7
516.164	4.68
516.364	4.6
516.563	4.6
516.762	4.62
516.961	4.66
517.16	4.62
517.359	4.64
517.559	4.7
517.758	4.72
517.957	4.73
518.156	4.74
518.355	4.73
518.554	4.85
518.753	4.88
518.952	4.91
519.151	4.93
519.35	4.93
519.549	4.9
519.748	4.96
519.947	4.95
520.146	4.95
520.345	5.1
520.544	5.23
520.743	5.18
520.942	5.16
521.141	5.07
521.339	5.09
521.538	5.21
521.737	5.28
521.936	5.24
522.135	5.26
522.333	5.34
522.532	5.31
522.731	5.31
522.93	5.34
523.129	5.37
523.327	5.36
523.526	5.43
523.725	5.34
523.923	5.26
524.122	5.23
524.321	5.21
524.519	5.15
524.718	5.12
524.917	5.08
525.115	5.08
525.314	5.11
525.512	5.17
525.711	5.1
525.909	5.17
526.108	5.25
526.306	5.3
526.505	5.32
526.703	5.38
526.902	5.39
527.1	5.36
527.299	5.36
527.497	5.37
527.696	5.37
527.894	5.41
528.092	5.36
528.291	5.34
528.489	5.35
528.688	5.36
528.886	5.37
529.084	5.38
529.283	5.43
529.481	5.46
529.679	5.48
529.877	5.54
530.076	5.56
530.274	5.63
530.472	5.65
530.67	5.65
530.869	5.75
531.067	5.81
531.265	5.86
531.463	5.87
531.661	5.87
531.859	5.87
532.057	5.85
532.255	5.86
532.454	5.9
532.652	5.96
532.85	5.99
533.048	5.94
533.246	5.9
533.444	5.88
533.642	5.91
533.84	5.95
534.038	5.96
534.236	5.99
534.434	6.03
534.632	6.02
534.83	6.04
535.027	6.06
535.225	6.09
535.423	6.11
535.621	6.16
535.819	6.12
536.017	6.07
536.215	6.09
536.412	6.15
536.61	6.16
536.808	6.2
537.006	6.22
537.203	6.23
537.401	6.28
537.599	6.35
537.797	6.39
537.994	6.48
538.192	6.67
538.39	6.63
538.587	6.63
538.785	6.65
538.983	6.63
539.18	6.59
539.378	6.64
539.575	6.64
539.773	6.64
539.97	6.62
540.168	6.62
540.366	6.58
540.563	6.59
540.761	6.61
540.958	6.64
541.155	6.67
541.353	6.71
541.55	6.66
541.748	6.71
541.945	6.73
542.143	6.7
542.34	6.74
542.537	6.75
542.735	6.79
542.932	6.78
543.129	6.79
543.327	6.85
543.524	6.82
543.721	6.88
543.919	6.9
544.116	6.91
544.313	6.98
544.51	7.02
544.708	7.04
544.905	7.13
545.102	7.16
545.299	7.2
545.496	7.16
545.693	7.23
545.891	7.29
546.088	7.27
546.285	7.3
546.482	7.38
546.679	7.38
546.876	7.42
547.073	7.4
547.27	7.45
547.467	7.52
547.664	7.54
547.861	7.54
548.058	7.47
548.255	7.48
548.452	7.56
548.649	7.58
548.846	7.7
549.043	7.78
549.24	7.91
549.437	7.93
549.633	7.95
549.83	8.04
550.027	8.12
550.224	8.21
550.421	8.31
550.618	8.26
550.814	8.31
551.011	8.33
551.208	8.31
551.405	8.27
551.601	8.27
551.798	8.24
551.995	8.26
552.191	8.33
552.388	8.39
552.585	8.37
552.781	8.52
552.978	8.53
553.175	8.57
553.371	8.56
553.568	8.72
553.764	8.83
553.961	8.81
554.157	8.82
554.354	8.84
554.55	8.97
554.747	9.05
554.943	9.08
555.14	9.1
555.336	9.06
555.533	9.09
555.729	8.89
555.926	9.04
556.122	9.18
556.318	9.17
556.515	9.16
556.711	9.05
556.907	9.06
557.104	9.11
557.3	9.19
557.496	9.34
557.693	9.4
557.889	9.64
558.085	9.49
558.281	9.55
558.478	9.76
558.674	9.84
558.87	9.95
559.066	10.05
559.262	10.07
559.459	10.2
559.655	10.13
559.851	10.14
560.047	10.13
560.243	10.26
560.439	10.3
560.635	10.26
560.831	10.37
561.027	10.43
561.223	10.4
561.419	10.43
561.615	10.33
561.811	10.39
562.007	10.45
562.203	10.46
562.399	10.43
562.595	10.5
562.791	10.61
562.987	10.58
563.183	10.55
563.379	10.59
563.575	10.68
563.771	10.83
563.966	10.86
564.162	10.88
564.358	10.96
564.554	11
564.75	10.88
564.945	10.89
565.141	10.93
565.337	11.03
565.533	11.05
565.728	11.03
565.924	10.96
566.12	11.01
566.315	11.07
566.511	11.12
566.707	11.22
566.902	11.36
567.098	11.44
567.293	11.58
567.489	11.56
567.684	11.72
567.88	11.66
568.076	11.73
568.271	11.79
568.467	11.92
568.662	11.94
568.858	11.93
569.053	11.96
569.248	11.96
569.444	11.89
569.639	11.94
569.835	11.91
570.03	12.15
570.225	12.21
570.421	12.18
570.616	12.1
570.812	12.1
571.007	12.18
571.202	12.26
571.397	12.25
571.593	12.32
571.788	12.34
571.983	12.35
572.178	12.37
572.374	12.44
572.569	12.55
572.764	12.7
572.959	12.83
573.154	12.94
573.35	13.02
573.545	13.08
573.74	13.16
573.935	13.22
574.13	13.28
574.325	13.24
574.52	13.28
574.715	13.35
574.91	13.3
575.105	13.33
575.3	13.23
575.495	13.16
575.69	13.15
575.885	13.05
576.08	13.08
576.275	13.13
576.47	13.18
576.665	13.18
576.86	13.18
577.055	13.17
577.25	13.19
577.444	13.14
577.639	13.17
577.834	13.28
578.029	13.45
578.224	13.47
578.418	13.52
578.613	13.55
578.808	13.65
579.003	13.66
579.197	13.8
579.392	13.84
579.587	14.04
579.781	14.08
579.976	14.04
580.171	13.98
580.365	14.01
580.56	13.97
580.755	13.97
580.949	13.97
581.144	14.05
581.338	14.13
581.533	14.06
581.727	14.1
581.922	14.13
582.116	14.29
582.311	14.42
582.505	14.44
582.7	14.43
582.894	14.53
583.089	14.47
583.283	14.49
583.478	14.44
583.672	14.65
583.866	14.62
584.061	14.69
584.255	14.54
584.449	14.49
584.644	14.47
584.838	14.73
585.032	14.59
585.226	14.63
585.421	14.62
585.615	14.68
585.809	14.69
586.003	14.76
586.198	14.85
586.392	15.01
586.586	15.18
586.78	15.27
586.974	15.22
587.168	15.29
587.363	15.26
587.557	15.21
587.751	15.15
587.945	15.15
588.139	15.13
588.333	15.05
588.527	15
588.721	14.97
588.915	14.9
589.109	14.84
589.303	14.95
589.497	14.84
589.691	14.93
589.885	15.08
590.079	14.97
590.273	14.95
590.466	14.89
590.66	15.01
590.854	14.91
591.048	15.11
591.242	15.26
591.436	15.29
591.629	15.48
591.823	15.59
592.017	15.39
592.211	15.49
592.404	15.61
592.598	15.79
592.792	15.72
592.986	15.84
593.179	15.88
593.373	15.81
593.567	15.83
593.76	15.77
593.954	15.82
594.147	15.91
594.341	15.91
594.535	15.87
594.728	15.82
594.922	15.84
595.115	15.81
595.309	15.73
595.502	15.67
595.696	15.63
595.889	15.73
596.083	15.75
596.276	15.79
596.47	15.76
596.663	15.7
596.856	15.71
597.05	15.97
597.243	15.99
597.437	16.1
597.63	16.17
597.823	16.11
598.017	16.26
598.21	16.23
598.403	16.38
598.596	16.5
598.79	16.75
598.983	16.75
599.176	16.4
599.369	16.33
599.563	16.34
599.756	16.49
599.949	16.7
600.142	16.71
600.335	16.71
600.528	16.61
600.722	16.58
600.915	16.65
601.108	16.69
601.301	16.85
601.494	17.07
601.687	17.05
601.88	17.01
602.073	17.02
602.266	16.99
602.459	16.9
602.652	16.84
602.845	17.02
603.038	16.91
603.231	16.97
603.424	17
603.617	17.05
603.809	17.1
604.002	17.01
604.195	17
604.388	16.98
604.581	17.13
604.774	17.21
604.966	17.11
605.159	17.13
605.352	17.16
605.545	17.06
605.737	16.94
605.93	16.98
606.123	17.17
606.316	17.13
606.508	17.16
606.701	17.25
606.894	17.32
607.086	17.28
607.279	17.34
607.471	17.42
607.664	17.53
607.857	17.5
608.049	17.44
608.242	17.46
608.434	17.44
608.627	17.45
608.819	17.27
609.012	17.34
609.204	17.39
609.397	17.33
609.589	17.17
609.782	17.22
609.974	17.23
610.166	17.19
610.359	17.19
610.551	17.3
610.743	17.06
610.936	17.03
611.128	16.89
611.32	16.83
611.513	16.91
611.705	17.03
611.897	16.9
612.09	17.16
612.282	17.35
612.474	17.06
612.666	17.03
612.858	17.28
613.051	17.32
613.243	17.29
613.435	17.43
613.627	17.43
613.819	17.34
614.011	17.48
614.203	17.28
614.395	17.23
614.588	17.31
614.78	17.41
614.972	17.54
615.164	17.82
615.356	18.02
615.548	17.85
615.74	17.9
615.932	17.99
616.124	17.76
616.315	17.89
616.507	17.82
616.699	17.91
616.891	17.96
617.083	17.9
617.275	17.63
617.467	17.48
617.659	17.66
617.85	17.59
618.042	17.75
618.234	17.95
618.426	17.96
618.618	17.96
618.809	18.15
619.001	18.04
619.193	18.03
619.384	18.02
619.576	18.02
619.768	17.99
619.959	17.98
620.151	17.76
620.343	17.6
620.534	17.53
620.726	17.74
620.917	17.65
621.109	17.67
621.301	17.7
621.492	17.97
621.684	17.95
621.875	17.98
622.067	18.08
622.258	18.23
622.45	18.43
622.641	18.37
622.832	18.34
623.024	18.37
623.215	18.35
623.407	18.34
623.598	18.2
623.789	18.43
623.981	18.58
624.172	18.61
624.363	18.6
624.555	18.54
624.746	18.56
624.937	18.42
625.129	18.48
625.32	18.54
625.511	18.56
625.702	18.67
625.893	18.64
626.085	18.43
626.276	18.47
626.467	18.48
626.658	18.56
626.849	18.64
627.04	18.62
627.231	18.53
627.422	18.64
627.614	18.64
627.805	18.53
627.996	18.52
628.187	18.63
628.378	18.57
628.569	18.63
628.76	18.53
628.951	18.28
629.142	18.44
629.332	18.55
629.523	18.41
629.714	18.38
629.905	18.37
630.096	18.58
630.287	18.52
630.478	18.5
630.669	18.43
630.859	18.5
631.05	18.59
631.241	18.54
631.432	18.46
631.623	18.31
631.813	18.33
632.004	18.39
632.195	18.19
632.385	18.17
632.576	17.98
632.767	17.96
632.957	17.92
633.148	18.16
633.339	18.14
633.529	18.24
633.72	18.42
633.91	18.65
634.101	18.69
634.292	18.66
634.482	18.84
634.673	19.09
634.863	19.09
635.054	19.21
635.244	19.31
635.435	19.39
635.625	19.39
635.815	19.3
636.006	19.08
636.196	19.09
636.387	19.16
636.577	19.06
636.767	19.1
636.958	19.19
637.148	19.22
637.338	19.09
637.529	19.31
637.719	19.3
637.909	19.27
638.099	19.31
638.29	19.26
638.48	19.26
638.67	19.15
638.86	19.27
639.05	19.03
639.241	19.03
639.431	19
639.621	18.83
639.811	18.92
640.001	18.96
640.191	18.98
640.381	19.04
640.571	19.05
640.761	19.23
640.951	18.96
641.141	19.13
641.331	19.04
641.521	18.9
641.711	18.84
641.901	18.71
642.091	18.77
642.281	18.65
642.471	18.66
642.661	18.65
642.851	18.55
643.041	18.61
643.231	18.88
643.42	18.98
643.61	19.22
643.8	19.14
643.99	19.03
644.18	19.11
644.369	19.22
644.559	19.15
644.749	19.17
644.939	19.16
645.128	19.13
645.318	18.96
645.508	18.68
645.697	18.54
645.887	18.56
646.076	18.74
646.266	18.6
646.456	18.66
646.645	18.73
646.835	18.78
647.024	18.97
647.214	19.14
647.403	18.97
647.593	19.42
647.782	19.48
647.972	19.48
648.161	19.52
648.351	19.61
648.54	19.52
648.73	19.44
648.919	19.5
649.108	19.49
649.298	19.25
649.487	19.35
649.677	19.35
649.866	19.37
650.055	19.36
650.244	19.23
650.434	19.34
650.623	19.52
650.812	19.62
651.002	19.54
651.191	19.33
651.38	19.68
651.569	19.66
651.758	19.53
651.947	19.42
652.137	19.6
652.326	19.53
652.515	19.5
652.704	19.54
652.893	19.36
653.082	19.46
653.271	19.79
653.46	19.62
653.649	19.63
653.838	19.51
654.027	19.65
654.216	19.59
654.405	19.86
654.594	19.89
654.783	19.8
654.972	20
655.161	19.81
655.35	19.59
655.539	19.69
655.728	19.73
655.916	19.74
656.105	19.64
656.294	19.81
656.483	19.72
656.672	19.65
656.86	19.75
657.049	19.81
657.238	20
657.427	20.06
657.615	20.06
657.804	20.24
657.993	20.4
658.181	20.43
658.37	20.18
658.559	20.19
658.747	20.28
658.936	20.14
659.125	20.19
659.313	20.42
659.502	20.46
659.69	20.39
659.879	20.23
660.067	20.13
660.256	20.13
660.444	20.12
660.633	20.13
660.821	20.08
661.01	20.14
661.198	20.23
661.387	19.85
661.575	19.84
661.763	19.79
661.952	19.73
662.14	19.44
662.328	19.6
662.517	19.76
662.705	19.67
662.893	19.67
663.082	19.76
663.27	19.72
663.458	19.74
663.646	19.75
663.834	19.79
664.023	20.11
664.211	20.36
664.399	20.21
664.587	20.41
664.775	20.48
664.963	20.69
665.152	20.66
665.34	20.42
665.528	20.32
665.716	20.46
665.904	20.65
666.092	20.54
666.28	20.87
666.468	21.03
666.656	20.96
666.844	21.24
667.032	21.09
667.22	21.32
667.408	21.28
667.596	21.37
667.784	21.17
667.971	20.96
668.159	20.9
668.347	20.71
668.535	20.65
668.723	20.49
668.911	20.24
669.098	20.1
669.286	19.86
669.474	20.06
669.662	20
669.849	19.97
670.037	20.18
670.225	20.37
670.413	20.29
670.6	20.22
670.788	20.46
670.976	20.47
671.163	20.77
671.351	20.83
671.538	20.96
671.726	21.07
671.913	21.22
672.101	21.15
672.289	21.05
672.476	21.06
672.664	20.97
672.851	20.76
673.039	20.82
673.226	20.63
673.413	20.53
673.601	20.17
673.788	20.21
673.976	19.95
674.163	20.04
674.35	19.97
674.538	20.02
674.725	20.2
674.912	20.42
675.1	20.44
675.287	20.47
675.474	20.47
675.662	20.5
675.849	20.35
676.036	20.71
676.223	20.77
676.411	20.87
676.598	20.75
676.785	20.77
676.972	20.61
677.159	20.56
677.346	20.45
677.533	20.34
677.721	20.53
677.908	20.72
678.095	20.63
678.282	20.48
678.469	20.49
678.656	20.6
678.843	20.76
679.03	20.65
679.217	20.6
679.404	20.71
679.591	20.87
679.778	20.88
679.964	20.92
680.151	20.95
680.338	20.92
680.525	21.03
680.712	20.95
680.899	20.8
681.086	20.9
681.272	21.04
681.459	20.92
681.646	20.68
681.833	20.77
682.02	20.73
682.206	20.9
682.393	20.89
682.58	20.91
682.766	21.17
682.953	21.27
683.14	21.34
683.326	21.31
683.513	21.51
683.7	22.03
683.886	21.88
684.073	21.8
684.259	21.64
684.446	21.73
684.632	21.77
684.819	21.71
685.005	21.62
685.192	21.7
685.378	21.62
685.565	21.64
685.751	21.34
685.938	21.38
686.124	21.65
686.31	21.62
686.497	21.45
686.683	21.26
686.87	20.97
687.056	21.09
687.242	20.96
687.429	20.87
687.615	21.01
687.801	20.96
687.987	20.98
688.174	20.83
688.36	20.93
688.546	21.19
688.732	21.09
688.918	21.51
689.105	21.47
689.291	21.43
689.477	21.7
689.663	21.44
689.849	21.3
690.035	21.28
690.221	21.27
690.407	21.52
690.593	21.48
690.779	21.39
690.965	21.16
691.151	21.1
691.337	21.14
691.523	21.12
691.709	21.12
691.895	21.35
692.081	21.25
692.267	21.17
692.453	20.86
692.639	20.7
692.825	20.77
693.011	20.8
693.196	21.02
693.382	20.69
693.568	20.71
693.754	20.75
693.94	20.67
694.125	20.91
694.311	21.08
694.497	21.18
694.682	21.35
694.868	21.35
695.054	21.42
695.239	21.09
695.425	21.72
695.611	21.3
695.796	21.14
695.982	21.54
696.168	21.59
696.353	21.48
696.539	21.48
696.724	21.43
696.91	21.54
697.095	21.71
697.281	21.58
697.466	21.45
697.652	21.86
697.837	22.07
698.023	22.09
698.208	22.09
698.393	22.18
698.579	22.06
698.764	22.03
698.949	22.01
699.135	21.91
699.32	22.08
699.505	22.19
699.691	22.08
699.876	22.05
700.061	21.69
700.246	21.49
700.432	21.59
700.617	21.9
700.802	21.99
700.987	22.08
701.172	22.27
701.358	22.35
701.543	22.39
701.728	22.03
701.913	21.91
702.098	22.05
702.283	22.33
702.468	21.86
702.653	21.55
702.838	21.49
703.023	21.69
703.208	21.16
703.393	21.17
703.578	20.99
703.763	21.16
703.948	21.2
704.133	21.55
704.318	21.69
704.503	21.91
704.688	22.11
704.873	22.22
705.057	22.13
705.242	22.41
705.427	22.68
705.612	22.49
705.797	22.75
705.981	23.01
706.166	22.49
706.351	21.84
706.536	21.97
706.72	21.78
706.905	21.87
707.09	21.68
707.274	21.38
707.459	21.18
707.644	21.33
707.828	21.17
708.013	21.03
708.197	21.43
708.382	21.69
708.567	21.38
708.751	21.38
708.936	21.58
709.12	22.01
709.305	22.06
709.489	21.98
709.673	22.18
709.858	22.45
710.042	22.58
710.227	22.09
710.411	22.41
710.596	22.62
710.78	22.57
710.964	22.3
711.149	22.07
711.333	22.28
711.517	22.32
711.702	22.15
711.886	21.99
712.07	21.73
712.254	22.09
712.438	21.83
712.623	21.87
712.807	21.91
712.991	21.98
713.175	21.69
713.359	21.57
713.544	21.54
713.728	21.82
713.912	21.63
714.096	21.78
714.28	21.83
714.464	21.85
714.648	21.94
714.832	22.16
715.016	22.18
715.2	22.49
715.384	22.32
715.568	22.31
715.752	21.99
715.936	22.15
716.12	22.16
716.304	22.18
716.488	22.05
716.671	22.04
716.855	21.88
717.039	21.78
717.223	21.72
717.407	21.86
717.59	22.14
717.774	22.28
717.958	22.63
718.142	22.57
718.325	22.27
718.509	22.22
718.693	22
718.877	21.99
719.06	21.85
719.244	21.75
719.428	22.2
719.611	21.72
719.795	22.05
719.978	21.85
720.162	22.24
720.345	22.15
720.529	22.26
720.713	22.3
720.896	22.31
721.08	22.62
721.263	22.57
721.446	22.52
721.63	22.86
721.813	22.81
721.997	22.65
722.18	22.58
722.364	22.98
722.547	23.18
722.73	23.43
722.914	23.61
723.097	23.66
723.28	23.88
723.464	23.26
723.647	23.35
723.83	23.35
724.013	23.4
724.197	22.83
724.38	22.75
724.563	22.67
724.746	22.29
724.929	22.77
725.112	22.84
725.296	23.07
725.479	23.45
725.662	23.64
725.845	23.64
726.028	23.54
726.211	23.55
726.394	23.62
726.577	23.93
726.76	23.86
726.943	23.69
727.126	23.28
727.309	22.84
727.492	23.06
727.675	22.9
727.858	22.46
728.041	22.48
728.224	22.69
728.407	22.49
728.589	22.15
728.772	22.27
728.955	22.11
729.138	22.5
729.321	22.35
729.503	22.37
729.686	22.39
729.869	22.78
730.052	22.81
730.234	23.09
730.417	23.21
730.6	23.28
730.782	23.34
730.965	22.98
731.148	22.65
731.33	22.98
731.513	23.12
731.695	23.11
731.878	23.03
732.061	22.89
732.243	22.53
732.426	22.74
732.608	22.7
732.791	22.82
732.973	23.06
733.156	23.24
733.338	23.11
733.52	22.74
733.703	23.02
733.885	23.1
734.068	23.24
734.25	23.37
734.432	23.29
734.615	23.37
734.797	23.16
734.979	22.83
735.162	22.76
735.344	22.65
735.526	22.64
735.708	22.45
735.891	22.32
736.073	21.82
736.255	22.06
736.437	22.18
736.619	22.43
736.802	22.1
736.984	22.4
737.166	22.21
737.348	22.5
737.53	22.62
737.712	22.26
737.894	22.71
738.076	23.69
738.258	23.78
738.44	23.27
738.622	23.21
738.804	23.77
738.986	23.26
739.168	23.48
739.35	23.56
739.532	23.87
739.714	24.03
739.896	23.69
740.078	23.36
740.259	23.15
740.441	22.78
740.623	22.77
740.805	22.81
740.987	22.89
741.168	22.76
741.35	22.17
741.532	21.67
741.714	21.4
741.895	21.23
742.077	21.17
742.259	21.07
742.44	22.05
742.622	21.91
742.804	21.33
742.985	21.72
743.167	22
743.348	22.08
743.53	22.25
743.711	22.64
743.893	22.22
744.075	22.21
744.256	22.39
744.438	22.45
744.619	22.37
744.8	22.74
744.982	22.91
745.163	22.84
745.345	23.09
745.526	22.8
745.707	22.34
745.889	23.23
746.07	23.08
746.252	22.61
746.433	22.04
746.614	22
746.795	22.16
746.977	21.57
747.158	21.59
747.339	21.27
747.52	21.29
747.702	21.41
747.883	20.26
748.064	20.69
748.245	21.33
748.426	21.43
748.607	21
748.788	21.1
748.97	21.71
749.151	22.41
749.332	23.14
749.513	23.31
749.694	23.16
749.875	23.82
750.056	23.6
750.237	23.21
750.418	23.13
750.599	23.54
750.78	23.38
750.96	23.69
751.141	22.84
751.322	22.61
751.503	22.24
751.684	22.99
751.865	22.52
752.046	22.91
752.226	23.17
752.407	23.3
752.588	23.71
752.769	23.95
752.949	24.16
753.13	24.45
753.311	23.73
753.492	23.83
753.672	23.35
753.853	23.58
754.034	22.83
754.214	22.19
754.395	22.63
754.575	21.95
754.756	22.38
754.937	21.94
755.117	21.92
755.298	23.07
755.478	23.32
755.659	22.94
755.839	23.21
756.02	24.01
756.2	23.95
756.381	23.3
756.561	23.91
756.741	23.43
756.922	23.68
757.102	23.73
757.283	23.7
757.463	23.76
757.643	24.49
757.823	23.96
758.004	23.43
758.184	24.51
758.364	24.42
758.545	24.27
758.725	23.97
758.905	23.01
759.085	22.69
759.265	22.5
759.446	22.28
759.626	21.28
759.806	22.09
759.986	21.97
760.166	21.36
760.346	21.69
760.526	21.16
760.706	21.59
760.886	22.35
761.066	22.4
761.246	22.58
761.426	22.74
761.606	23.16
761.786	22.57
761.966	22.56
762.146	22.41
762.326	22.61
762.506	22.59
762.686	22.62
762.866	22.27
763.046	22.55
763.225	22.15
763.405	22.36
763.585	22.5
763.765	22.41
763.945	22.58
764.124	22.58
764.304	22.22
764.484	22.58
764.664	22.64
764.843	23.4
765.023	23.55
765.203	24.31
765.382	24.26
765.562	24.14
765.741	24.09
765.921	24.14
766.101	24.46
766.28	24.94
766.46	25.32
766.639	24.54
766.819	24.04
766.998	23.04
767.178	22.16
767.357	21.8
767.537	22.15
767.716	22.61
767.896	22.82
768.075	22.95
768.254	22.67
768.434	23.07
768.613	23.98
768.792	23.86
768.972	24.28
769.151	24.54
769.33	25.08
769.51	24.68
769.689	24.79
769.868	25.11
770.047	25.5
770.226	25.47
770.406	24.7
770.585	24.8
770.764	24.94
770.943	25.01
771.122	24.76
771.301	24.35
771.48	24.7
771.66	24.31
771.839	23.67
772.018	23.12
772.197	23.34
772.376	23.75
772.555	23.18
772.734	22.74
772.913	22.86
773.092	23.25
773.271	22.83
773.449	23.42
773.628	23.52
773.807	22.7
773.986	23.11
774.165	23.15
774.344	23.3
774.523	23.41
774.701	24.53
774.88	24.22
775.059	23.82
775.238	24.58
775.417	24.31
775.595	24.56
775.774	24.81
775.953	24.4
776.131	23.47
776.31	23.28
776.489	23.37
776.667	22.45
776.846	22.74
777.025	22.77
777.203	22.28
777.382	22.08
777.56	21.6
777.739	21.79
777.917	21.87
778.096	23.06
778.274	23
778.453	22.97
778.631	23.01
778.81	23.07
778.988	23.57
779.166	23.66
779.345	23.32
779.523	23.59
779.702	24.1
779.88	23.96
780.058	24.08
780.237	23.66
780.415	23.4
780.593	23.82
780.771	23.07
780.95	22.31
781.128	22.89
781.306	22.89
781.484	23.13
781.662	23.41
781.841	23.61
782.019	22.05
782.197	23.17
782.375	23.54
782.553	23.41
782.731	24.55
782.909	25.23
783.087	24.99
783.265	24.76
783.443	25.28
783.621	24.93
783.799	24.89
783.977	26.31
784.155	25.2
784.333	25.2
784.511	24.48
784.689	23.97
784.867	23.56
785.045	24.22
785.223	24.56
785.4	24.24
785.578	24.03
785.756	23.83
785.934	23.09
786.112	23.34
786.289	23.54
786.467	24.56
786.645	25.21
786.823	24.75
787	23.72
787.178	24.88
787.356	24.91
787.533	25.21
787.711	24.65
787.889	25.08
788.066	25.33
788.244	25.13
788.421	24.56
788.599	23.69
788.776	23.91
788.954	23.95
789.131	22.44
789.309	22.25
789.486	22.09
789.664	22.3
789.841	21.74
790.019	20.61
790.196	20.29
790.373	20.25
790.551	20.92
790.728	20.85
790.906	20.86
791.083	21.33
791.26	20.77
791.437	20.01
791.615	19.79
791.792	19.88
791.969	20.49
792.146	21.27
792.324	21.17
792.501	21.03
792.678	21.88
792.855	22.44
793.032	22.57
793.209	23.26
793.387	24.22
793.564	25.2
793.741	25.47
793.918	24.99
794.095	24.75
794.272	25.35
794.449	25.5
794.626	25.48
794.803	25.6
794.98	25.52
795.157	25.51
795.334	25.33
795.511	24.74
795.688	25.67
795.864	25.85
796.041	25.17
796.218	23.92
796.395	23.23
796.572	23.54
796.749	23.04
796.925	23.48
797.102	23.42
797.279	23.33
797.456	23.18
797.632	22.64
797.809	22.89
797.986	23.66
798.162	25.55
798.339	26.91
798.516	26.77
798.692	26.67
798.869	26.26
799.046	25.92
799.222	26.23
799.399	26.37
799.575	25.34
799.752	24.56
799.928	24.05
800.105	24
800.281	23.21
800.458	22.34
800.634	22.89
800.811	23.57
800.987	24
801.163	24.56
801.34	25.58
801.516	25.48
801.692	26.4
801.869	26.85
802.045	26.31
802.221	25.68
802.398	26.55
802.574	26.47
802.75	25.14
802.926	24.2
803.103	23.89
803.279	23.55
803.455	23.75
803.631	22.79
803.807	22.67
803.983	21.4
804.16	22.3
804.336	21.52
804.512	21.94
804.688	22.47
804.864	23.34
805.04	22.74
805.216	23.03
805.392	24.11
805.568	24.13
805.744	24.55
805.92	25.99
806.096	25.48
806.272	26.43
806.448	25.62
806.623	26.32
806.799	25.68
806.975	24.53
807.151	24.7
807.327	24.14
807.503	24.87
807.678	24.7
807.854	23.59
808.03	23.84
808.206	23.09
808.381	23.52
808.557	22.33
808.733	23.28
808.908	25.36
809.084	25.02
809.26	24.68
809.435	24.99
809.611	25.72
809.787	27.12
809.962	26.59
810.138	25.97
810.313	26.44
810.489	27.59
810.664	28.47
810.84	28.55
811.015	28.46
811.191	27.99
811.366	28.59
811.542	27.9
811.717	27.14
811.892	27.68
812.068	28.57
812.243	27.69
812.419	26.83
812.594	25.02
812.769	23.6
812.944	21.49
813.12	24.67
813.295	23.81
813.47	23.58
813.645	23.45
813.821	24.57
813.996	23.82
814.171	22.79
814.346	23.56
814.521	24.77
814.697	25.5
814.872	26.84
815.047	24.61
815.222	25.05
815.397	25.2
815.572	25.58
815.747	23.81
815.922	24.07
816.097	24.39
816.272	23.87
816.447	23.37
816.622	24.62
816.797	24.56
816.972	23.88
817.147	23.73
817.322	23.38
817.496	23.67
817.671	23.78
817.846	24.55
818.021	25.31
818.196	24.99
818.371	24.96
818.545	24.29
818.72	23.85
818.895	24.55
819.069	25.19
819.244	25.15
819.419	23.98
819.594	23.69
819.768	23.78
819.943	23.73
820.117	24.14
820.292	24.01
820.467	24.37
820.641	24.52
820.816	24.3
820.99	23.71
821.165	23.96
821.339	24.17
821.514	24.39
821.688	24.01
821.863	24.05
822.037	23.97
822.212	24
822.386	23.84
822.56	23.87
822.735	23.94
822.909	24.13
823.084	23.98
823.258	23.76
823.432	23.59
823.606	23.61
823.781	23.76
823.955	23.57
824.129	23.35
824.303	23.35
824.478	22.9
824.652	22.91
824.826	23.04
825	23.02
825.174	23.39
825.348	23.53
825.523	23.89
825.697	24.22
825.871	24.56
826.045	25
826.219	25.13
826.393	25.42
826.567	25.51
826.741	25.19
826.915	25.27
827.089	25.43
827.263	25.26
827.437	24.95
827.611	24.11
827.784	24.23
827.958	23.96
828.132	23.52
828.306	24.08
828.48	24.08
828.654	24.26
828.827	24.47
829.001	23.85
829.175	24.4
829.349	24.88
829.522	26.03
829.696	25.25
829.87	25.42
830.044	25.51
830.217	24.76
830.391	24.72
830.565	24.44
830.738	23.85
830.912	23.84
831.085	23.23
831.259	23.31
831.432	22.62
831.606	23.82
831.779	24.08
831.953	24.35
832.126	25.1
832.3	24.33
832.473	24.27
832.647	23.9
832.82	24.66
832.994	25.13
833.167	25.13
833.34	24.25
833.514	24.27
833.687	23.86
833.86	23.45
834.034	23.42
834.207	23.98
834.38	24.23
834.553	24.56
834.727	24.26
834.9	24.33
835.073	24.2
835.246	25.04
835.419	25.27
835.593	25.89
835.766	26.34
835.939	26.79
836.112	26.82
836.285	26.89
836.458	26.28
836.631	26.72
836.804	25.95
836.977	25.59
837.15	25.85
837.323	26.05
837.496	26.13
837.669	26.23
837.842	24.61
838.015	23.61
838.188	22.15
838.361	24
838.533	23.74
838.706	24.63
838.879	25.33
839.052	24.11
839.225	22.5
839.398	21.93
839.57	23.01
839.743	24.59
839.916	25.06
840.088	25.99
840.261	24.95
840.434	25.58
840.607	26.29
840.779	26.37
840.952	26.34
841.124	25.82
841.297	26.37
841.47	25.24
841.642	24.39
841.815	24.08
841.987	22.57
842.16	25.02
842.332	23.07
842.505	22.08
842.677	20.96
842.85	20.83
843.022	20.9
843.194	23.32
843.367	23.51
843.539	21.91
843.712	25.07
843.884	26.95
844.056	23.45
844.229	25.96
844.401	27.31
844.573	29.27
844.745	30.94
844.918	31.36
845.09	28.98
845.262	26.88
845.434	30.9
845.606	29.18
845.779	31.7
845.951	32.61
846.123	28.36
846.295	26.63
846.467	26.18
846.639	27.38
846.811	25.47
846.983	27.6
847.155	30.78
847.327	28.9
847.499	30.17
847.671	29.5
847.843	28.52
848.015	30.5
848.187	29.77
848.359	31.81
848.531	26.8
848.703	30.56
848.875	26.07
849.047	21.85
849.218	20.34
849.39	20.41
849.562	21.23
849.734	19.9
849.905	24.22
850.077	28.56
850.249	28.18
850.421	30.88
850.592	27.35
850.764	28.21
850.936	31.79
851.107	34.62
851.279	31.32
851.451	34.24
851.622	34.66
851.794	30.44
851.965	26.84
852.137	24.92
852.308	25.34
852.48	27.14
852.651	27.05
852.823	26.78
852.994	25.8
853.166	28.04
853.337	24.38
853.509	25.62
853.68	27.96
853.851	28.83
854.023	26.46
854.194	27.57
854.365	31.27
854.537	33.8
854.708	35.27
854.879	38.33
855.05	35
855.222	32.64
855.393	33.23
855.564	30.17
855.735	30.81
855.906	35.84
856.078	33.95
856.249	30.61
856.42	25.7
856.591	22.62
856.762	24.07
856.933	23.37
857.104	26.72
857.275	25.76
857.446	29.48
857.617	31.15
857.788	30.34
857.959	30.87
858.13	33.66
858.301	37.68
858.472	38.95
858.643	34.05
858.814	36
858.985	30.83
859.155	31.22
859.326	27.46
859.497	21.93
859.668	17.99
859.839	18.83
860.009	17.57
860.18	15.57
860.351	18.46
860.522	22.25
860.692	22.41
860.863	26.29
861.034	26.12
861.204	27.75
861.375	31.31
861.546	32.09
861.716	31.61
861.887	28.51
862.057	28.29
862.228	26.92
862.398	22.14
862.569	26.94
862.739	28.66
862.91	27.97
863.08	28.78
863.251	26.63
863.421	29.9
863.592	29.75
863.762	31.29
863.932	33.53
864.103	32.55
864.273	35.81
864.443	32.2
864.614	28.98
864.784	29.11
864.954	26.98
865.125	27.93
865.295	24.93
865.465	25.12
865.635	28.04
865.805	24.86
865.976	25.89
866.146	24.42
866.316	22.16
866.486	23.92
866.656	29.05
866.826	29.05
866.996	31.92
867.166	33.37
867.336	33.45
867.506	28.66
867.676	26.1
867.846	25.84
868.016	28.75
868.186	32.63
868.356	31.86
868.526	29.4
868.696	31.23
868.866	31.26
869.036	27.74
869.206	27.81
869.376	31.47
869.545	39.97
869.715	39.33
869.885	35.44
870.055	35.01
870.224	35.93
870.394	31.91
870.564	34.1
870.734	33.79
870.903	35.89
871.073	37.14
871.243	35.49
871.412	32.51
871.582	31.17
871.751	31
871.921	26.94
872.091	27.71
872.26	30.1
872.43	28.36
872.599	24.74
872.769	23.29
872.938	22.45
873.108	23.88
873.277	21.19
873.446	23.97
873.616	28.87
873.785	30.82
873.955	31.86
874.124	29.59
874.293	31.34
874.463	35.6
874.632	34.24
874.801	35.26
874.971	35.28
875.14	37.58
875.309	36.62
875.478	33.28
875.647	32.45
875.817	30.14
875.986	33.42
876.155	31.63
876.324	31.65
876.493	34.41
876.662	30.94
876.831	30.91
877	31.68
877.17	31.63
877.339	26.35
877.508	26.18
877.677	28.51
877.846	24.43
878.015	21.85
878.184	19.99
878.352	17.41
878.521	18.16
878.69	17.98
878.859	18.02
879.028	17.49
879.197	20.18
879.366	21.68
879.534	21
879.703	23.04
879.872	25.33
880.041	24.58
880.21	24.67
880.378	24.71
880.547	25.1
880.716	23.94
880.884	23.63
881.053	23.98
881.222	23.91
881.39	24.27
881.559	24.55
881.727	24.13
881.896	24.07
882.065	24.46
882.233	24.27
882.402	24.1
882.57	24.65
882.739	24.8
882.907	25.29
883.076	25.19
883.244	24.71
883.412	24.57
883.581	24.14
883.749	24.74
883.918	24.61
884.086	24.83
884.254	24.63
884.423	24.55
884.591	25.31
884.759	24.33
884.927	24.36
885.096	24.87
885.264	23.99
885.432	24.6
885.6	24.18
885.769	25.11
885.937	25.23
886.105	25.51
886.273	25.23
886.441	25.13
886.609	24.83
886.777	25.12
886.945	23.85
887.113	24.47
887.281	26.28
887.449	28.15
887.617	26.34
887.785	26.92
887.953	25.92
888.121	26.83
888.289	24.97
888.457	28.57
888.625	27.33
888.793	26.17
888.961	29.8
889.129	27.38
889.296	26.59
889.464	26.92
889.632	27.28
889.8	30.53
889.967	29.57
890.135	29.31
