Data from 2938468_Reflection_3.txt Node
Date: Wed Jun 17 13:42:34 EDT 2015
User: robert
Spectrometer: USB4E03002
Autoset integration time: false
Trigger mode: 4
Integration Time (sec): 1.000000E-1
Scans to average: 10
Electric dark correction enabled: true
Nonlinearity correction enabled: false
Boxcar width: 5
Stray light correction enabled: false
XAxis mode: Wavelengths
Stop averaging: false
Number of Pixels in Spectrum: 3648
>>>>>Begin Spectral Data<<<<<
177.575	-3.45
177.794	17.69
178.014	19.55
178.233	-0.28
178.452	28.42
178.672	37.73
178.891	29.68
179.11	44.88
179.33	43.61
179.549	21.88
179.768	16.03
179.987	27.99
180.207	24.54
180.426	68.4
180.645	22.73
180.864	52.93
181.084	84.84
181.303	216.51
181.522	-148.43
181.741	-16.68
181.96	-36.28
182.179	-12.57
182.398	-45.72
182.618	-65.74
182.837	-42.13
183.056	-123.58
183.275	-124.34
183.494	-73.91
183.713	-89.78
183.932	-19.89
184.151	-44.96
184.37	-23.63
184.589	38.97
184.808	77.6
185.027	87.71
185.246	140.49
185.465	140.1
185.684	166.61
185.903	227.78
186.122	360.66
186.341	1096.25
186.56	1096.25
186.779	153.64
186.998	219.62
187.216	-24.13
187.435	-164.08
187.654	3943.02
187.873	-550.62
188.092	130.3
188.311	214.01
188.53	198.52
188.748	317.6
188.967	1224.37
189.186	-84.48
189.405	-6787.1
189.623	252.73
189.842	212.91
190.061	151.9
190.28	240.97
190.498	-133.33
190.717	-1386.41
190.936	2201.11
191.154	762.77
191.373	308.36
191.592	310.95
191.81	378.63
192.029	495.31
192.248	629.96
192.466	-488.33
192.685	-541.53
192.904	141.38
193.122	269.13
193.341	286.9
193.559	377.75
193.778	387.95
193.996	475.12
194.215	2560.36
194.433	545.03
194.652	420.93
194.87	149.41
195.089	265.07
195.307	1435.17
195.526	590.14
195.744	544.93
195.963	244.91
196.181	221.06
196.399	159.71
196.618	175.51
196.836	207.57
197.055	254.82
197.273	481.48
197.491	301.08
197.71	243.88
197.928	270.39
198.146	235.25
198.365	348.43
198.583	1007.2
198.801	21.9
199.019	-7.95
199.238	-1.6
199.456	116.91
199.674	185.84
199.892	728.38
200.111	284.12
200.329	68.21
200.547	3184.93
200.765	-153.87
200.983	-440.19
201.202	605.56
201.42	600.19
201.638	543.63
201.856	254.69
202.074	237.68
202.292	470.3
202.51	310.42
202.728	384.4
202.946	274.03
203.165	216.03
203.383	160.46
203.601	109.54
203.819	51.77
204.037	30.26
204.255	62.32
204.473	196.38
204.691	164.22
204.909	242.97
205.127	139.98
205.345	244.98
205.562	39.71
205.78	82.6
205.998	29.89
206.216	-612.48
206.434	-879.67
206.652	209.7
206.87	104.7
207.088	50.63
207.306	9.76
207.523	23.57
207.741	45.56
207.959	96.12
208.177	71.83
208.395	86.98
208.612	69.62
208.83	76.8
209.048	101.18
209.266	136.1
209.483	114.52
209.701	111.99
209.919	126.49
210.136	85.15
210.354	60.34
210.572	64.85
210.79	52.1
211.007	48.14
211.225	7.93
211.442	-4.1
211.66	-27.49
211.878	-25.8
212.095	-99.94
212.313	-71.24
212.53	-55.67
212.748	-68.65
212.966	-51.36
213.183	-72
213.401	-84.39
213.618	-69.95
213.836	-69.92
214.053	-93.38
214.271	-129.29
214.488	40.87
214.705	56.53
214.923	-6.07
215.14	18.81
215.358	0.6
215.575	-6.11
215.793	-38.19
216.01	38.78
216.227	31.78
216.445	42.78
216.662	28.25
216.879	10.08
217.097	-0.12
217.314	2.86
217.531	21.99
217.749	19.61
217.966	32.39
218.183	49.35
218.4	29.89
218.618	30.29
218.835	24.43
219.052	23.42
219.269	25.72
219.487	33.21
219.704	37.87
219.921	34.38
220.138	31.84
220.355	32.97
220.572	32.83
220.79	44.9
221.007	40.3
221.224	46.87
221.441	57.45
221.658	67.45
221.875	60.42
222.092	51.09
222.309	42.68
222.526	37.9
222.743	33.22
222.96	30.6
223.177	24.54
223.394	23.66
223.611	23.03
223.828	20.99
224.045	18.32
224.262	18.3
224.479	13.77
224.696	13.2
224.913	12.4
225.13	11.93
225.347	8.7
225.564	12.33
225.781	13.16
225.997	11.73
226.214	12.14
226.431	10.19
226.648	10.26
226.865	11.48
227.082	13.01
227.298	14.45
227.515	13.54
227.732	13.46
227.949	11.66
228.165	10.89
228.382	12.65
228.599	12.25
228.816	12.53
229.032	11.54
229.249	11.2
229.466	9.4
229.682	7.06
229.899	7.57
230.116	6.25
230.332	7.08
230.549	7.76
230.765	4.18
230.982	2.55
231.199	4.74
231.415	5.74
231.632	3.82
231.848	7.41
232.065	7.97
232.281	9.65
232.498	11.29
232.714	10.8
232.931	11.71
233.147	12.14
233.364	12.48
233.58	10.06
233.797	11.17
234.013	12.99
234.23	10.96
234.446	12.98
234.662	11.85
234.879	11.49
235.095	13.55
235.312	11.14
235.528	11.46
235.744	11.45
235.961	13.34
236.177	12.37
236.393	11.04
236.61	10.32
236.826	8.54
237.042	8.62
237.258	8.02
237.475	5.75
237.691	6.77
237.907	6.75
238.123	8.03
238.339	6.53
238.556	7.2
238.772	7.57
238.988	6.74
239.204	5.84
239.42	5.7
239.636	5.4
239.853	4.92
240.069	5.3
240.285	5.08
240.501	4.44
240.717	5.13
240.933	4.82
241.149	4.71
241.365	5.71
241.581	6.21
241.797	5.78
242.013	5.93
242.229	6.69
242.445	6.5
242.661	6.77
242.877	7.94
243.093	7.3
243.309	6.74
243.525	7.07
243.741	7.47
243.957	8.01
244.173	7.74
244.388	7.64
244.604	7.11
244.82	7.49
245.036	6.97
245.252	6.76
245.468	6.98
245.683	7.53
245.899	7.28
246.115	7
246.331	6.44
246.547	6.79
246.762	7.02
246.978	7.42
247.194	7.25
247.409	7.33
247.625	7.27
247.841	7.69
248.057	7.08
248.272	7.27
248.488	7.39
248.703	7.87
248.919	7.72
249.135	7.75
249.35	7.23
249.566	7.65
249.782	6.85
249.997	6.69
250.213	6.15
250.428	6.51
250.644	5.97
250.859	6.24
251.075	6.66
251.29	6.37
251.506	6.4
251.721	7
251.937	6.17
252.152	6.69
252.368	6.36
252.583	6.82
252.798	7.78
253.014	8.4
253.229	7.83
253.445	8.15
253.66	8.46
253.875	7.09
254.091	5.95
254.306	6.56
254.521	8.5
254.737	8.59
254.952	7.25
255.167	5.65
255.383	6.56
255.598	6.68
255.813	6.6
256.028	7.08
256.244	7.46
256.459	7.81
256.674	7.29
256.889	6.16
257.104	5.79
257.32	6.32
257.535	6.17
257.75	5.67
257.965	5.58
258.18	5.18
258.395	4.86
258.61	5.24
258.826	4.65
259.041	4.76
259.256	4.79
259.471	5.16
259.686	4.6
259.901	4.87
260.116	5
260.331	5.25
260.546	5.37
260.761	5.41
260.976	4.79
261.191	5.37
261.406	5.18
261.621	5.17
261.836	4.72
262.05	5.3
262.265	5.74
262.48	5.58
262.695	4.2
262.91	4.41
263.125	4.71
263.34	5.17
263.555	5.54
263.769	5.37
263.984	5.81
264.199	5.86
264.414	5.56
264.629	5.31
264.843	5.57
265.058	5.76
265.273	5.93
265.488	5.68
265.702	5.53
265.917	5.35
266.132	5.44
266.346	4.98
266.561	4.8
266.776	4.95
266.99	4.91
267.205	4.52
267.42	4.82
267.634	4.59
267.849	4.16
268.063	3.56
268.278	3.77
268.492	4.37
268.707	4.46
268.922	4.2
269.136	3.77
269.351	3.29
269.565	3.32
269.78	2.77
269.994	2.67
270.209	3.53
270.423	3.89
270.637	3.93
270.852	3.6
271.066	3.57
271.281	3.59
271.495	4.09
271.709	4.61
271.924	4.66
272.138	5.29
272.353	5.65
272.567	5.01
272.781	5.03
272.996	4.41
273.21	4.81
273.424	4.77
273.638	5.71
273.853	5.42
274.067	5.1
274.281	4.99
274.495	5.21
274.71	5
274.924	5.21
275.138	5.35
275.352	6.44
275.566	6.06
275.781	6.32
275.995	5.29
276.209	6
276.423	5.91
276.637	5.65
276.851	5.26
277.065	4.53
277.279	4.79
277.493	5.16
277.707	4.58
277.921	4.4
278.135	4.33
278.349	4.49
278.563	3.85
278.777	3.94
278.991	3.71
279.205	4.05
279.419	4.55
279.633	4.19
279.847	4.09
280.061	3.8
280.275	4.2
280.489	4.4
280.703	4.88
280.917	5
281.131	4.91
281.344	4.89
281.558	4.53
281.772	4.59
281.986	4.85
282.2	4.5
282.414	4.66
282.627	4.26
282.841	4.03
283.055	3.8
283.269	3.65
283.482	3.71
283.696	3.95
283.91	4.21
284.123	4.14
284.337	4.12
284.551	4.05
284.764	3.91
284.978	4.18
285.192	4.11
285.405	4.29
285.619	4.12
285.833	4.38
286.046	4.65
286.26	4.44
286.473	4.89
286.687	4.97
286.9	5.05
287.114	5.21
287.327	5.18
287.541	5.61
287.754	5.64
287.968	6.03
288.181	5.7
288.395	5.94
288.608	5.96
288.822	5.8
289.035	6.16
289.248	6.3
289.462	6.67
289.675	6.45
289.889	6.45
290.102	6.02
290.315	6.14
290.529	6.33
290.742	6.13
290.955	6.42
291.169	6.6
291.382	6.5
291.595	6.86
291.808	6.83
292.022	6.97
292.235	7.02
292.448	7.02
292.661	6.96
292.875	6.84
293.088	7.09
293.301	7.28
293.514	6.97
293.727	6.68
293.94	6.58
294.153	6.73
294.367	7.24
294.58	7.17
294.793	7.7
295.006	8.38
295.219	8.45
295.432	8.72
295.645	8.66
295.858	8.89
296.071	9.11
296.284	9.31
296.497	9.43
296.71	9.21
296.923	9.36
297.136	9.43
297.349	9.13
297.562	9.41
297.775	9.48
297.988	9.72
298.201	9.9
298.414	9.97
298.626	9.86
298.839	9.79
299.052	10.07
299.265	10.02
299.478	10.12
299.691	10.04
299.903	10.13
300.116	9.55
300.329	9.36
300.542	9.06
300.755	9.53
300.967	9.76
301.18	10.4
301.393	9.92
301.605	10.32
301.818	10.25
302.031	10.41
302.243	10.12
302.456	10.47
302.669	10.39
302.881	10.7
303.094	10.09
303.307	9.74
303.519	9.21
303.732	9.83
303.944	9.87
304.157	10.09
304.37	10.21
304.582	10.32
304.795	10.4
305.007	10.93
305.22	11.24
305.432	11.47
305.645	12.08
305.857	12.33
306.069	12.71
306.282	12.42
306.494	12.29
306.707	12.88
306.919	13.51
307.132	13.85
307.344	14.17
307.556	14.23
307.769	14.65
307.981	14.71
308.193	14.43
308.406	13.98
308.618	14.31
308.83	14.53
309.043	14.04
309.255	13.96
309.467	13.74
309.679	13.46
309.892	13.1
310.104	12.83
310.316	12.88
310.528	13.36
310.74	13.55
310.953	13.33
311.165	13.07
311.377	13.48
311.589	13.16
311.801	13.52
312.013	13.67
312.225	14.02
312.437	14.25
312.649	14.46
312.862	14.25
313.074	14.51
313.286	14.86
313.498	14.89
313.71	14.28
313.922	14.79
314.134	14.47
314.346	14.32
314.558	14.5
314.77	14.45
314.982	14.14
315.193	14.34
315.405	14.01
315.617	14.06
315.829	14.3
316.041	14.56
316.253	14.29
316.465	14.61
316.677	15.06
316.888	15.4
317.1	15.68
317.312	15.77
317.524	15.66
317.736	15.88
317.947	16.17
318.159	16.47
318.371	16.81
318.583	16.62
318.794	16.38
319.006	16.21
319.218	15.9
319.43	16.08
319.641	16.09
319.853	16.29
320.064	16.95
320.276	17.14
320.488	16.79
320.699	16.48
320.911	17.57
321.123	17.84
321.334	18.08
321.546	18.44
321.757	18.05
321.969	18.15
322.18	18.43
322.392	17.77
322.603	18.06
322.815	18.31
323.026	18.67
323.238	18.31
323.449	18.57
323.661	18.2
323.872	18.65
324.083	19.47
324.295	19.75
324.506	19.54
324.718	19.83
324.929	19.88
325.14	20.36
325.352	21.14
325.563	21.68
325.774	21.75
325.986	22.57
326.197	22.65
326.408	22.88
326.62	23.07
326.831	23.74
327.042	24.28
327.253	24.52
327.464	24.58
327.676	24.89
327.887	24.82
328.098	25.7
328.309	25.96
328.52	26.21
328.732	26.12
328.943	26.66
329.154	27.03
329.365	27.15
329.576	27.74
329.787	28.52
329.998	28.5
330.209	29.22
330.42	29.1
330.631	29.17
330.842	29.71
331.053	29.85
331.264	29.67
331.475	29.77
331.686	30.41
331.897	30.34
332.108	30.08
332.319	30.26
332.53	30.54
332.741	30.68
332.952	30.74
333.163	30.66
333.374	31.41
333.585	32.05
333.795	32.58
334.006	32.76
334.217	33.31
334.428	34.17
334.639	34.36
334.849	34.4
335.06	34.86
335.271	35.13
335.482	35.37
335.692	35.1
335.903	35.33
336.114	35.38
336.325	35.28
336.535	35.49
336.746	35.81
336.957	36.32
337.167	36.78
337.378	36.76
337.589	37.08
337.799	36.94
338.01	37.33
338.22	37.48
338.431	37.29
338.642	37.47
338.852	36.91
339.063	36.1
339.273	35.47
339.484	34.94
339.694	35.03
339.905	35.19
340.115	35.3
340.326	35.14
340.536	35.17
340.746	35.22
340.957	35.44
341.167	35.58
341.378	35.59
341.588	36.08
341.799	36.1
342.009	35.88
342.219	35.43
342.43	35.59
342.64	35.64
342.85	35.66
343.061	35.26
343.271	35.25
343.481	35.06
343.691	35.29
343.902	34.85
344.112	35.29
344.322	35.59
344.532	35.49
344.743	35.42
344.953	35.46
345.163	35.14
345.373	35.57
345.583	35.22
345.793	35.62
346.004	35.91
346.214	35.98
346.424	35.78
346.634	35.61
346.844	36.27
347.054	36.22
347.264	35.92
347.474	36.01
347.684	36.23
347.894	36.24
348.104	35.72
348.314	35.22
348.524	35.12
348.734	34.91
348.944	34.59
349.154	33.93
349.364	33.63
349.574	33.73
349.784	33.64
349.994	33.38
350.204	33.39
350.413	33.64
350.623	33.77
350.833	33.83
351.043	33.9
351.253	34.3
351.463	34.31
351.672	34.55
351.882	34.55
352.092	34.23
352.302	34.13
352.511	34.28
352.721	34.07
352.931	34.01
353.141	34.04
353.35	33.97
353.56	33.84
353.77	33.98
353.979	33.94
354.189	34.16
354.399	34.52
354.608	34.4
354.818	34.62
355.027	34.94
355.237	34.69
355.447	34.53
355.656	34.41
355.866	34.19
356.075	33.97
356.285	33.97
356.494	33.87
356.704	33.67
356.913	33.62
357.123	33.25
357.332	32.98
357.542	33.24
357.751	33.59
357.96	33.83
358.17	34.13
358.379	34.51
358.589	34.57
358.798	34.51
359.007	34.62
359.217	34.9
359.426	35.02
359.635	35.25
359.845	35.14
360.054	34.94
360.263	34.69
360.472	34.51
360.682	34.45
360.891	34.24
361.1	34.12
361.309	34.15
361.519	33.95
361.728	33.81
361.937	33.75
362.146	33.69
362.355	33.66
362.564	33.83
362.774	33.88
362.983	33.58
363.192	33.69
363.401	33.64
363.61	33.55
363.819	33.62
364.028	33.63
364.237	33.49
364.446	33.56
364.655	33.3
364.864	33.34
365.073	33.21
365.282	33.43
365.491	33.5
365.7	33.47
365.909	33.33
366.118	33.24
366.327	33.07
366.536	32.93
366.745	32.82
366.954	32.99
367.162	32.75
367.371	32.54
367.58	32.63
367.789	32.28
367.998	32.3
368.207	32.5
368.415	32.15
368.624	32.41
368.833	32.47
369.042	32.71
369.25	32.59
369.459	32.7
369.668	32.85
369.877	32.59
370.085	32.73
370.294	32.59
370.503	32.38
370.711	32.71
370.92	32.6
371.129	32.44
371.337	32.17
371.546	32.05
371.754	31.8
371.963	31.71
372.171	32.09
372.38	31.92
372.589	32
372.797	31.91
373.006	31.64
373.214	31.69
373.423	31.75
373.631	31.58
373.84	31.64
374.048	31.82
374.256	31.82
374.465	31.37
374.673	31.48
374.882	31.46
375.09	31.55
375.298	31.77
375.507	31.77
375.715	31.53
375.923	31.73
376.132	31.87
376.34	32.02
376.548	32.21
376.757	32.29
376.965	32.27
377.173	32.32
377.381	32.27
377.59	32.05
377.798	31.97
378.006	32.03
378.214	31.96
378.423	31.65
378.631	31.03
378.839	30.85
379.047	30.81
379.255	30.93
379.463	30.81
379.671	30.68
379.879	30.73
380.088	30.65
380.296	30.68
380.504	30.76
380.712	31
380.92	31.32
381.128	31.16
381.336	31.07
381.544	30.74
381.752	30.9
381.96	31.05
382.168	30.96
382.376	30.83
382.584	30.78
382.791	30.55
382.999	30.64
383.207	30.42
383.415	30.7
383.623	30.84
383.831	30.83
384.039	30.77
384.247	30.77
384.454	30.78
384.662	30.69
384.87	30.71
385.078	30.63
385.285	30.43
385.493	30.54
385.701	30.42
385.909	30.33
386.116	30.55
386.324	30.35
386.532	30.03
386.739	30.04
386.947	30.29
387.155	30.43
387.362	30.59
387.57	30.57
387.778	30.84
387.985	30.79
388.193	30.77
388.4	30.63
388.608	30.7
388.816	30.94
389.023	31.01
389.231	30.92
389.438	30.76
389.646	30.9
389.853	30.95
390.061	30.6
390.268	30.66
390.475	30.84
390.683	30.85
390.89	30.85
391.098	30.91
391.305	30.88
391.512	30.71
391.72	30.6
391.927	30.42
392.135	30.33
392.342	30.43
392.549	30.39
392.756	30.15
392.964	30.29
393.171	30.35
393.378	30.24
393.586	30.36
393.793	30.6
394	30.6
394.207	30.61
394.414	30.63
394.622	30.51
394.829	30.35
395.036	30.32
395.243	30.17
395.45	30.11
395.657	30.11
395.864	29.92
396.072	29.71
396.279	29.76
396.486	29.73
396.693	29.82
396.9	29.77
397.107	29.79
397.314	29.78
397.521	29.79
397.728	29.82
397.935	29.65
398.142	29.52
398.349	29.59
398.556	29.56
398.763	29.57
398.97	29.39
399.177	29.54
399.383	29.38
399.59	29.4
399.797	29.37
400.004	29.17
400.211	29.38
400.418	29.47
400.625	29.41
400.831	29.53
401.038	29.47
401.245	29.6
401.452	29.59
401.658	29.69
401.865	29.8
402.072	29.62
402.279	29.68
402.485	29.48
402.692	29.45
402.899	29.44
403.105	29.24
403.312	29.33
403.519	29.19
403.725	29
403.932	28.91
404.138	28.62
404.345	28.67
404.552	28.47
404.758	28.41
404.965	28.27
405.171	28.14
405.378	28.2
405.584	28.06
405.791	28.09
405.997	28.13
406.204	28.18
406.41	28.43
406.617	28.49
406.823	28.67
407.029	28.65
407.236	28.75
407.442	28.86
407.649	28.87
407.855	28.91
408.061	28.7
408.268	28.56
408.474	28.63
408.68	28.38
408.887	28.43
409.093	28.12
409.299	28.39
409.505	28.2
409.712	28.04
409.918	27.98
410.124	27.8
410.33	27.78
410.537	27.89
410.743	27.77
410.949	27.86
411.155	27.82
411.361	27.99
411.567	27.62
411.773	27.59
411.98	27.62
412.186	27.69
412.392	27.61
412.598	27.61
412.804	27.49
413.01	27.45
413.216	27.42
413.422	27.35
413.628	27.36
413.834	27.55
414.04	27.57
414.246	27.51
414.452	27.35
414.658	27.41
414.864	27.48
415.07	27.58
415.275	27.52
415.481	27.38
415.687	27.23
415.893	27.2
416.099	27.06
416.305	27.09
416.511	27.06
416.716	26.97
416.922	26.9
417.128	26.84
417.334	26.71
417.539	26.58
417.745	26.52
417.951	26.52
418.157	26.42
418.362	26.29
418.568	26.18
418.774	26.14
418.979	26.11
419.185	26.02
419.391	25.9
419.596	25.78
419.802	25.73
420.008	25.67
420.213	25.66
420.419	25.67
420.624	25.8
420.83	25.7
421.035	25.64
421.241	25.68
421.446	25.66
421.652	25.63
421.857	25.69
422.063	25.74
422.268	25.76
422.474	25.62
422.679	25.56
422.885	25.43
423.09	25.48
423.295	25.44
423.501	25.39
423.706	25.37
423.911	25.37
424.117	25.29
424.322	25.23
424.527	25.16
424.733	25.11
424.938	25.03
425.143	24.94
425.349	24.92
425.554	24.99
425.759	24.97
425.964	24.94
426.169	24.92
426.375	25.03
426.58	25.05
426.785	25.08
426.99	25.11
427.195	25.14
427.4	25.24
427.605	25.2
427.811	25.12
428.016	25
428.221	25.02
428.426	25.01
428.631	24.9
428.836	24.94
429.041	25.03
429.246	25.06
429.451	25.1
429.656	24.99
429.861	25.06
430.066	24.91
430.271	24.91
430.476	24.96
430.681	25.06
430.886	25.08
431.09	25.09
431.295	24.99
431.5	24.97
431.705	24.93
431.91	25.09
432.115	25.13
432.32	25.19
432.524	25.06
432.729	25.12
432.934	25
433.139	25.02
433.343	24.88
433.548	24.91
433.753	24.87
433.958	24.99
434.162	24.91
434.367	24.89
434.572	24.98
434.776	25.17
434.981	25.18
435.186	25.3
435.39	25.25
435.595	25.38
435.799	25.37
436.004	25.47
436.209	25.49
436.413	25.47
436.618	25.43
436.822	25.49
437.027	25.5
437.231	25.47
437.436	25.41
437.64	25.37
437.845	25.24
438.049	25.26
438.253	25.33
438.458	25.31
438.662	25.4
438.867	25.39
439.071	25.34
439.275	25.22
439.48	25.13
439.684	25.16
439.888	25.19
440.093	25.31
440.297	25.24
440.501	25.14
440.706	25.17
440.91	25.12
441.114	25.02
441.318	24.96
441.523	25.05
441.727	25.06
441.931	25.08
442.135	25
442.339	24.93
442.543	24.93
442.748	25.01
442.952	24.94
443.156	24.88
443.36	25.03
443.564	25.06
443.768	25.04
443.972	25
444.176	24.95
444.38	25
444.584	25
444.788	24.97
444.992	24.91
445.196	24.83
445.4	24.77
445.604	24.57
445.808	24.53
446.012	24.48
446.216	24.41
446.42	24.31
446.624	24.26
446.828	24.16
447.032	24.18
447.235	24.11
447.439	24.14
447.643	24.1
447.847	24.23
448.051	24.21
448.254	24.3
448.458	24.42
448.662	24.5
448.866	24.47
449.069	24.4
449.273	24.34
449.477	24.38
449.681	24.3
449.884	24.5
450.088	24.44
450.292	24.43
450.495	24.35
450.699	24.48
450.902	24.38
451.106	24.38
451.31	24.49
451.513	24.53
451.717	24.42
451.92	24.44
452.124	24.26
452.327	24.21
452.531	24.23
452.734	24.26
452.938	23.95
453.141	24.08
453.345	24.11
453.548	24.09
453.752	24.18
453.955	24.19
454.158	24.21
454.362	24.28
454.565	24.38
454.769	24.46
454.972	24.45
455.175	24.56
455.379	24.55
455.582	24.56
455.785	24.56
455.988	24.37
456.192	24.43
456.395	24.46
456.598	24.5
456.801	24.49
457.005	24.47
457.208	24.42
457.411	24.49
457.614	24.43
457.817	24.43
458.021	24.41
458.224	24.54
458.427	24.56
458.63	24.53
458.833	24.51
459.036	24.38
459.239	24.31
459.442	24.29
459.645	24.27
459.848	24.28
460.051	24.24
460.254	24.31
460.457	24.23
460.66	24.24
460.863	24.16
461.066	24.19
461.269	24.28
461.472	24.34
461.675	24.38
461.878	24.37
462.081	24.47
462.284	24.61
462.486	24.63
462.689	24.73
462.892	24.68
463.095	24.8
463.298	24.81
463.5	24.88
463.703	24.96
463.906	24.95
464.109	25.01
464.311	25.05
464.514	25.03
464.717	25.09
464.92	25.16
465.122	25.23
465.325	25.29
465.528	25.39
465.73	25.43
465.933	25.38
466.135	25.4
466.338	25.34
466.541	25.22
466.743	25.14
466.946	25.2
467.148	25.19
467.351	25.23
467.553	25.21
467.756	25.08
467.958	25.12
468.161	25.07
468.363	25.11
468.566	25.27
468.768	25.41
468.971	25.52
469.173	25.49
469.375	25.48
469.578	25.41
469.78	25.35
469.983	25.4
470.185	25.31
470.387	25.38
470.59	25.4
470.792	25.43
470.994	25.45
471.196	25.48
471.399	25.47
471.601	25.44
471.803	25.42
472.005	25.48
472.208	25.48
472.41	25.47
472.612	25.48
472.814	25.49
473.016	25.44
473.218	25.51
473.421	25.53
473.623	25.47
473.825	25.56
474.027	25.72
474.229	25.77
474.431	25.86
474.633	25.98
474.835	25.98
475.037	26
475.239	25.91
475.441	25.85
475.643	25.78
475.845	25.69
476.047	25.62
476.249	25.49
476.451	25.49
476.653	25.44
476.855	25.4
477.057	25.39
477.258	25.31
477.46	25.3
477.662	25.25
477.864	25.17
478.066	25.27
478.268	25.32
478.469	25.44
478.671	25.38
478.873	25.39
479.075	25.41
479.276	25.39
479.478	25.43
479.68	25.41
479.882	25.44
480.083	25.5
480.285	25.53
480.487	25.53
480.688	25.48
480.89	25.57
481.091	25.58
481.293	25.58
481.495	25.58
481.696	25.55
481.898	25.54
482.099	25.46
482.301	25.39
482.502	25.29
482.704	25.15
482.905	25.06
483.107	24.98
483.308	24.89
483.51	24.82
483.711	24.74
483.913	24.69
484.114	24.65
484.315	24.67
484.517	24.69
484.718	24.75
484.92	24.85
485.121	24.94
485.322	24.95
485.524	25
485.725	25.06
485.926	25.06
486.127	25.05
486.329	25.07
486.53	25.04
486.731	24.99
486.932	24.97
487.134	24.98
487.335	24.94
487.536	24.93
487.737	24.95
487.938	24.89
488.139	24.98
488.341	25.08
488.542	25.09
488.743	25.19
488.944	25.3
489.145	25.38
489.346	25.42
489.547	25.49
489.748	25.54
489.949	25.52
490.15	25.51
490.351	25.47
490.552	25.5
490.753	25.5
490.954	25.42
491.155	25.33
491.356	25.28
491.557	25.26
491.758	25.26
491.959	25.2
492.159	25.27
492.36	25.34
492.561	25.37
492.762	25.31
492.963	25.33
493.164	25.45
493.364	25.65
493.565	25.71
493.766	25.77
493.967	25.84
494.167	26
494.368	26.09
494.569	26.17
494.769	26.26
494.97	26.36
495.171	26.42
495.371	26.52
495.572	26.56
495.773	26.61
495.973	26.71
496.174	26.66
496.375	26.64
496.575	26.68
496.776	26.74
496.976	26.81
497.177	26.85
497.377	26.97
497.578	26.9
497.778	26.88
497.979	26.99
498.179	27.03
498.38	27.18
498.58	27.32
498.78	27.34
498.981	27.36
499.181	27.37
499.382	27.47
499.582	27.49
499.782	27.63
499.983	27.81
500.183	27.89
500.383	28.01
500.584	28.1
500.784	28.24
500.984	28.32
501.184	28.44
501.385	28.59
501.585	28.61
501.785	28.7
501.985	28.88
502.185	28.93
502.386	29.04
502.586	29.04
502.786	29.19
502.986	29.19
503.186	29.35
503.386	29.36
503.586	29.39
503.786	29.5
503.987	29.58
504.187	29.68
504.387	29.72
504.587	29.82
504.787	29.95
504.987	30.07
505.187	30.27
505.387	30.34
505.587	30.52
505.786	30.72
505.986	30.83
506.186	31.03
506.386	31.12
506.586	31.38
506.786	31.45
506.986	31.55
507.186	31.61
507.386	31.61
507.585	31.68
507.785	31.74
507.985	31.79
508.185	31.96
508.384	32
508.584	32.1
508.784	32.1
508.984	32.26
509.183	32.36
509.383	32.47
509.583	32.65
509.782	32.8
509.982	32.97
510.182	33.11
510.381	33.08
510.581	33.27
510.781	33.34
510.98	33.45
511.18	33.58
511.379	33.74
511.579	33.87
511.778	34.03
511.978	34.16
512.177	34.27
512.377	34.41
512.576	34.66
512.776	34.73
512.975	34.88
513.175	35.05
513.374	35.11
513.573	35.17
513.773	35.36
513.972	35.51
514.172	35.66
514.371	35.91
514.57	36.04
514.77	36.25
514.969	36.45
515.168	36.65
515.367	36.89
515.567	37.08
515.766	37.27
515.965	37.48
516.164	37.64
516.364	37.86
516.563	37.86
516.762	38.03
516.961	38.12
517.16	38.22
517.359	38.23
517.559	38.31
517.758	38.37
517.957	38.48
518.156	38.51
518.355	38.55
518.554	38.59
518.753	38.75
518.952	38.86
519.151	38.99
519.35	39.17
519.549	39.37
519.748	39.51
519.947	39.72
520.146	39.92
520.345	40.09
520.544	40.27
520.743	40.36
520.942	40.57
521.141	40.8
521.339	40.97
521.538	41.07
521.737	41.26
521.936	41.48
522.135	41.64
522.333	41.84
522.532	42.09
522.731	42.31
522.93	42.61
523.129	42.78
523.327	42.9
523.526	43.01
523.725	43.21
523.923	43.42
524.122	43.52
524.321	43.53
524.519	43.62
524.718	43.68
524.917	43.79
525.115	43.87
525.314	44.02
525.512	44.24
525.711	44.46
525.909	44.64
526.108	44.72
526.306	44.83
526.505	44.97
526.703	45.04
526.902	45.08
527.1	45.07
527.299	45.04
527.497	44.95
527.696	44.83
527.894	44.67
528.092	44.58
528.291	44.48
528.489	44.4
528.688	44.38
528.886	44.31
529.084	44.29
529.283	44.3
529.481	44.4
529.679	44.54
529.877	44.8
530.076	45.12
530.274	45.41
530.472	45.72
530.67	46.04
530.869	46.33
531.067	46.59
531.265	46.75
531.463	46.91
531.661	46.98
531.859	47.07
532.057	46.98
532.255	46.93
532.454	46.82
532.652	46.82
532.85	46.79
533.048	46.68
533.246	46.63
533.444	46.66
533.642	46.72
533.84	46.71
534.038	46.79
534.236	46.96
534.434	47.16
534.632	47.36
534.83	47.51
535.027	47.56
535.225	47.69
535.423	47.77
535.621	47.73
535.819	47.71
536.017	47.78
536.215	47.78
536.412	47.77
536.61	47.68
536.808	47.67
537.006	47.61
537.203	47.73
537.401	47.77
537.599	47.93
537.797	48.22
537.994	48.4
538.192	48.7
538.39	48.99
538.587	49.27
538.785	49.54
538.983	49.74
539.18	49.87
539.378	49.85
539.575	49.95
539.773	49.92
539.97	49.86
540.168	49.72
540.366	49.57
540.563	49.45
540.761	49.27
540.958	49.09
541.155	48.93
541.353	48.79
541.55	48.71
541.748	48.61
541.945	48.47
542.143	48.41
542.34	48.46
542.537	48.55
542.735	48.5
542.932	48.65
543.129	48.74
543.327	48.83
543.524	48.97
543.721	49.07
543.919	49.16
544.116	49.4
544.313	49.54
544.51	49.67
544.708	49.7
544.905	49.9
545.102	49.88
545.299	49.98
545.496	49.99
545.693	49.86
545.891	49.91
546.088	49.81
546.285	49.69
546.482	49.62
546.679	49.51
546.876	49.36
547.073	49.21
547.27	49.13
547.467	49.1
547.664	49.1
547.861	49.28
548.058	49.29
548.255	49.43
548.452	49.54
548.649	49.49
548.846	49.54
549.043	49.77
549.24	49.92
549.437	50.07
549.633	50.08
549.83	50.05
550.027	50.08
550.224	50.07
550.421	50.17
550.618	50.19
550.814	50.32
551.011	50.41
551.208	50.35
551.405	50.24
551.601	50.28
551.798	50.32
551.995	50.4
552.191	50.3
552.388	50.3
552.585	50.23
552.781	50.2
552.978	50.09
553.175	50.15
553.371	50.25
553.568	50.23
553.764	50.22
553.961	50.12
554.157	50.19
554.354	50.31
554.55	50.28
554.747	50.33
554.943	50.41
555.14	50.52
555.336	50.47
555.533	50.47
555.729	50.59
555.926	50.57
556.122	50.59
556.318	50.59
556.515	50.66
556.711	50.64
556.907	50.69
557.104	50.78
557.3	50.8
557.496	50.82
557.693	50.74
557.889	50.76
558.085	50.74
558.281	50.94
558.478	50.81
558.674	50.7
558.87	50.67
559.066	50.58
559.262	50.58
559.459	50.51
559.655	50.55
559.851	50.7
560.047	50.72
560.243	50.78
560.439	50.76
560.635	50.94
560.831	50.99
561.027	51.07
561.223	51.05
561.419	50.97
561.615	51.02
561.811	50.97
562.007	50.97
562.203	50.96
562.399	50.92
562.595	50.98
562.791	51.03
562.987	51.26
563.183	51.3
563.379	51.48
563.575	51.66
563.771	51.85
563.966	51.96
564.162	51.98
564.358	52.08
564.554	52.14
564.75	52.09
564.945	52.05
565.141	51.9
565.337	51.93
565.533	51.82
565.728	51.73
565.924	51.61
566.12	51.53
566.315	51.42
566.511	51.41
566.707	51.44
566.902	51.47
567.098	51.51
567.293	51.62
567.489	51.79
567.684	51.86
567.88	51.97
568.076	51.99
568.271	52
568.467	52.1
568.662	52.16
568.858	52.29
569.053	52.36
569.248	52.29
569.444	52.25
569.639	52.23
569.835	52.23
570.03	52.26
570.225	52.39
570.421	52.37
570.616	52.44
570.812	52.48
571.007	52.33
571.202	52.39
571.397	52.47
571.593	52.44
571.788	52.37
571.983	52.46
572.178	52.39
572.374	52.35
572.569	52.32
572.764	52.24
572.959	52.19
573.154	52.29
573.35	52.27
573.545	52.35
573.74	52.44
573.935	52.52
574.13	52.5
574.325	52.61
574.52	52.66
574.715	52.86
574.91	52.94
575.105	52.94
575.3	52.95
575.495	52.85
575.69	52.7
575.885	52.59
576.08	52.62
576.275	52.61
576.47	52.43
576.665	52.34
576.86	52.23
577.055	52.17
577.25	52.17
577.444	52.11
577.639	52.33
577.834	52.4
578.029	52.54
578.224	52.42
578.418	52.59
578.613	52.48
578.808	52.56
579.003	52.68
579.197	52.72
579.392	52.65
579.587	52.63
579.781	52.56
579.976	52.68
580.171	52.67
580.365	52.82
580.56	52.68
580.755	52.81
580.949	52.75
581.144	52.69
581.338	52.74
581.533	52.9
581.727	52.99
581.922	52.91
582.116	52.59
582.311	52.65
582.505	52.63
582.7	52.79
582.894	52.93
583.089	52.88
583.283	52.88
583.478	52.98
583.672	53.09
583.866	52.97
584.061	53.14
584.255	53.32
584.449	53.24
584.644	53.09
584.838	52.96
585.032	53.01
585.226	53.05
585.421	53.03
585.615	52.91
585.809	52.84
586.003	53
586.198	52.97
586.392	53.05
586.586	53.01
586.78	53.19
586.974	53.22
587.168	53.2
587.363	53.35
587.557	53.47
587.751	53.42
587.945	53.5
588.139	53.72
588.333	53.61
588.527	53.69
588.721	53.74
588.915	53.68
589.109	53.66
589.303	53.52
589.497	53.52
589.691	53.56
589.885	53.65
590.079	53.55
590.273	53.25
590.466	53.47
590.66	53.31
590.854	53.51
591.048	53.53
591.242	53.59
591.436	53.76
591.629	53.77
591.823	53.66
592.017	53.8
592.211	53.84
592.404	54.07
592.598	54.04
592.792	54.11
592.986	54
593.179	54.12
593.373	54.25
593.567	54.24
593.76	54.24
593.954	54.37
594.147	54.46
594.341	54.58
594.535	54.64
594.728	54.75
594.922	54.92
595.115	55.11
595.309	55.1
595.502	55.13
595.696	55.22
595.889	55.14
596.083	55.1
596.276	54.97
596.47	54.89
596.663	54.7
596.856	54.56
597.05	54.49
597.243	54.24
597.437	54.26
597.63	54.15
597.823	53.96
598.017	54.03
598.21	53.99
598.403	53.99
598.596	53.97
598.79	54.06
598.983	54.12
599.176	54.09
599.369	54.17
599.563	54.19
599.756	54.06
599.949	54.33
600.142	54.34
600.335	54.54
600.528	54.81
600.722	54.88
600.915	54.97
601.108	54.99
601.301	55.12
601.494	55.4
601.687	55.36
601.88	55.57
602.073	55.64
602.266	55.77
602.459	55.68
602.652	55.67
602.845	55.63
603.038	55.55
603.231	55.58
603.424	55.49
603.617	55.36
603.809	55.24
604.002	55.06
604.195	54.86
604.388	54.6
604.581	54.55
604.774	54.44
604.966	54.43
605.159	54.34
605.352	54.14
605.545	54.18
605.737	54.21
605.93	54.42
606.123	54.61
606.316	54.76
606.508	55.11
606.701	55.34
606.894	55.28
607.086	55.37
607.279	55.61
607.471	55.66
607.664	55.66
607.857	55.54
608.049	55.46
608.242	55.38
608.434	55.3
608.627	55.14
608.819	54.95
609.012	54.94
609.204	54.92
609.397	54.98
609.589	55.03
609.782	55.1
609.974	54.99
610.166	54.97
610.359	54.96
610.551	55.14
610.743	55.17
610.936	55.38
611.128	55.31
611.32	55.16
611.513	54.96
611.705	54.86
611.897	54.74
612.09	55.01
612.282	55.15
612.474	55.14
612.666	55.13
612.858	55.21
613.051	55.04
613.243	55.3
613.435	55.46
613.627	55.41
613.819	55.49
614.011	55.88
614.203	55.63
614.395	55.6
614.588	55.66
614.78	55.53
614.972	55.68
615.164	55.81
615.356	55.69
615.548	55.68
615.74	55.83
615.932	56.01
616.124	55.64
616.315	56
616.507	55.92
616.699	55.82
616.891	55.96
617.083	55.65
617.275	55.53
617.467	55.59
617.659	55.55
617.85	55.51
618.042	55.48
618.234	55.42
618.426	55.28
618.618	55.3
618.809	55.44
619.001	55.32
619.193	55.56
619.384	55.77
619.576	55.84
619.768	55.92
619.959	56.03
620.151	55.91
620.343	56
620.534	55.91
620.726	55.81
620.917	55.97
621.109	55.78
621.301	55.77
621.492	55.51
621.684	55.49
621.875	55.61
622.067	55.43
622.258	55.54
622.45	55.58
622.641	55.57
622.832	55.67
623.024	55.65
623.215	55.91
623.407	55.81
623.598	55.97
623.789	56.02
623.981	55.97
624.172	56.13
624.363	56.07
624.555	56.03
624.746	56.25
624.937	56.27
625.129	56.32
625.32	56.28
625.511	56.42
625.702	56.29
625.893	56.24
626.085	56.03
626.276	55.97
626.467	56.11
626.658	56.12
626.849	55.86
627.04	55.87
627.231	55.76
627.422	55.65
627.614	55.52
627.805	55.5
627.996	55.6
628.187	55.72
628.378	55.71
628.569	55.63
628.76	55.52
628.951	55.52
629.142	55.49
629.332	55.44
629.523	55.42
629.714	55.38
629.905	55.5
630.096	55.33
630.287	55.45
630.478	55.44
630.669	55.32
630.859	55.46
631.05	55.36
631.241	55.49
631.432	55.48
631.623	55.71
631.813	55.9
632.004	55.94
632.195	55.89
632.385	55.92
632.576	55.98
632.767	56.06
632.957	56.06
633.148	56.24
633.339	56.08
633.529	56.14
633.72	56.16
633.91	56.03
634.101	55.91
634.292	55.93
634.482	55.84
634.673	55.62
634.863	55.58
635.054	55.6
635.244	55.69
635.435	55.8
635.625	55.67
635.815	55.36
636.006	55.37
636.196	55.15
636.387	55.33
636.577	55.4
636.767	55.57
636.958	55.8
637.148	55.82
637.338	55.65
637.529	55.71
637.719	55.83
637.909	56.22
638.099	56.25
638.29	56.44
638.48	56.05
638.67	56.04
638.86	55.97
639.05	55.82
639.241	55.71
639.431	55.87
639.621	55.65
639.811	55.63
640.001	55.45
640.191	55.45
640.381	55.76
640.571	56.13
640.761	56.19
640.951	56.3
641.141	56.31
641.331	56.32
641.521	56.29
641.711	56.34
641.901	56.52
642.091	56.67
642.281	56.48
642.471	56.3
642.661	56.29
642.851	56.17
643.041	56.24
643.231	56.39
643.42	56.4
643.61	56.41
643.8	56.47
643.99	56.18
644.18	55.89
644.369	56.27
644.559	56.31
644.749	56.3
644.939	56.16
645.128	56.13
645.318	55.73
645.508	55.83
645.697	55.87
645.887	55.86
646.076	56.06
646.266	56
646.456	55.62
646.645	55.77
646.835	55.43
647.024	55.79
647.214	55.67
647.403	55.77
647.593	55.74
647.782	55.88
647.972	55.94
648.161	55.94
648.351	56.25
648.54	56.56
648.73	56.63
648.919	56.89
649.108	56.32
649.298	56.38
649.487	56.48
649.677	56.47
649.866	56.43
650.055	56.48
650.244	56.46
650.434	56.23
650.623	55.96
650.812	55.9
651.002	55.93
651.191	56.15
651.38	56.1
651.569	56.32
651.758	56.1
651.947	56.03
652.137	56.07
652.326	55.68
652.515	55.88
652.704	56.28
652.893	56.05
653.082	56
653.271	56.19
653.46	56.1
653.649	55.81
653.838	56.27
654.027	56.11
654.216	56.16
654.405	56.5
654.594	56.47
654.783	56.23
654.972	56.33
655.161	56.57
655.35	56.47
655.539	56.64
655.728	56.51
655.916	56.43
656.105	56.41
656.294	56.41
656.483	56.38
656.672	56.43
656.86	56.54
657.049	56.72
657.238	56.55
657.427	56.81
657.615	56.85
657.804	56.93
657.993	56.78
658.181	56.89
658.37	56.71
658.559	56.63
658.747	56.49
658.936	56.35
659.125	56.4
659.313	56.27
659.502	56.13
659.69	56.12
659.879	56.12
660.067	56.05
660.256	56
660.444	56
660.633	56.05
660.821	56.35
661.01	56.37
661.198	55.94
661.387	55.93
661.575	55.67
661.763	55.43
661.952	55.47
662.14	55.64
662.328	55.57
662.517	55.57
662.705	55.47
662.893	55.12
663.082	55.11
663.27	55.36
663.458	55.63
663.646	55.67
663.834	55.91
664.023	55.7
664.211	55.35
664.399	55.25
664.587	55.46
664.775	55.5
664.963	55.5
665.152	55.53
665.34	55.38
665.528	55.19
665.716	55.36
665.904	55.4
666.092	55.61
666.28	55.83
666.468	56.05
666.656	56.18
666.844	56.4
667.032	56.78
667.22	56.81
667.408	56.69
667.596	57
667.784	56.85
667.971	56.74
668.159	56.48
668.347	56.18
668.535	56.13
668.723	55.83
668.911	55.79
669.098	55.51
669.286	55.3
669.474	55.27
669.662	55.23
669.849	55.36
670.037	55.35
670.225	55.55
670.413	55.87
670.6	55.98
670.788	56.03
670.976	55.95
671.163	55.8
671.351	55.95
671.538	56.27
671.726	55.95
671.913	55.89
672.101	55.88
672.289	55.83
672.476	55.64
672.664	55.47
672.851	55.51
673.039	55.61
673.226	55.63
673.413	55.69
673.601	55.57
673.788	55.64
673.976	55.47
674.163	55.6
674.35	55.79
674.538	55.86
674.725	56.34
674.912	56.16
675.1	56.21
675.287	56.35
675.474	56.26
675.662	56.21
675.849	56.18
676.036	56.32
676.223	56.39
676.411	56.02
676.598	56.23
676.785	55.91
676.972	56.13
677.159	56.29
677.346	56.48
677.533	56.58
677.721	56.6
677.908	56.71
678.095	56.72
678.282	56.59
678.469	56.95
678.656	56.87
678.843	56.79
679.03	56.77
679.217	56.66
679.404	56.27
679.591	56.38
679.778	56.34
679.964	56.15
680.151	55.9
680.338	55.87
680.525	55.83
680.712	55.82
680.899	55.86
681.086	55.99
681.272	55.88
681.459	56.2
681.646	56.17
681.833	56.13
682.02	56.12
682.206	56.64
682.393	56.86
682.58	57.14
682.766	57.08
682.953	57
683.14	56.72
683.326	56.84
683.513	57.07
683.7	56.88
683.886	57
684.073	57.18
684.259	56.86
684.446	56.52
684.632	56.2
684.819	56.42
685.005	56.56
685.192	56.75
685.378	56.64
685.565	56.25
685.751	55.86
685.938	55.83
686.124	55.59
686.31	55.72
686.497	55.48
686.683	55.71
686.87	55.58
687.056	55.25
687.242	55.21
687.429	55.18
687.615	55.46
687.801	55.84
687.987	56.03
688.174	56.33
688.36	56.54
688.546	56.85
688.732	56.77
688.918	56.76
689.105	57.02
689.291	56.71
689.477	56.82
689.663	56.83
689.849	56.95
690.035	56.92
690.221	56.97
690.407	56.83
690.593	56.82
690.779	56.67
690.965	56.42
691.151	56.47
691.337	56.72
691.523	56.65
691.709	56.89
691.895	56.88
692.081	56.48
692.267	56.29
692.453	56.64
692.639	56.66
692.825	56.5
693.011	56.51
693.196	56.65
693.382	56.85
693.568	56.98
693.754	56.63
693.94	56.59
694.125	56.65
694.311	56.97
694.497	56.52
694.682	56.59
694.868	56.89
695.054	57.23
695.239	57.2
695.425	57.08
695.611	57.17
695.796	57.29
695.982	57.2
696.168	57.52
696.353	57.45
696.539	57.52
696.724	57.46
696.91	57.3
697.095	57.21
697.281	57.45
697.466	57.47
697.652	57.34
697.837	57.05
698.023	57.1
698.208	56.91
698.393	56.75
698.579	56.71
698.764	56.63
698.949	56.27
699.135	56.29
699.32	55.79
699.505	55.73
699.691	55.76
699.876	55.94
700.061	56
700.246	55.76
700.432	55.69
700.617	55.3
700.802	55.53
700.987	56.29
701.172	56.21
701.358	56.26
701.543	56.15
701.728	55.93
701.913	55.91
702.098	55.75
702.283	56.3
702.468	56.34
702.653	56.92
702.838	56.81
703.023	56.52
703.208	56.94
703.393	57.16
703.578	57.42
703.763	57.4
703.948	57.3
704.133	57.39
704.318	57.46
704.503	57.55
704.688	57.72
704.873	57.77
705.057	57.62
705.242	57.35
705.427	57.1
705.612	57.16
705.797	57.23
705.981	57.67
706.166	57.8
706.351	57.52
706.536	57.36
706.72	57.01
706.905	57.2
707.09	57.42
707.274	57.42
707.459	57.43
707.644	57.29
707.828	57.39
708.013	56.99
708.197	56.48
708.382	56.59
708.567	56.73
708.751	56.6
708.936	56.51
709.12	56.52
709.305	56.45
709.489	56.54
709.673	56.35
709.858	56.28
710.042	56.72
710.227	57.08
710.411	57.27
710.596	57.33
710.78	57.23
710.964	57.19
711.149	57.12
711.333	57.27
711.517	57.41
711.702	57.82
711.886	57.73
712.07	57.4
712.254	57.43
712.438	57.35
712.623	57.45
712.807	57.92
712.991	57.75
713.175	57.71
713.359	57.36
713.544	57.14
713.728	56.8
713.912	56.79
714.096	56.81
714.28	56.7
714.464	56.53
714.648	56.31
714.832	56.03
715.016	56.09
715.2	56.04
715.384	56.46
715.568	56.52
715.752	56.44
715.936	56.72
716.12	56.48
716.304	56.71
716.488	56.55
716.671	56.83
716.855	57
717.039	56.91
717.223	56.98
717.407	56.82
717.59	56.96
717.774	57.36
717.958	57.14
718.142	57.78
718.325	57.75
718.509	57.85
718.693	57.4
718.877	56.94
719.06	57.29
719.244	57.23
719.428	57.29
719.611	56.82
719.795	56.62
719.978	56.72
720.162	56.24
720.345	55.78
720.529	55.87
720.713	56.3
720.896	56.35
721.08	56.36
721.263	56.44
721.446	56.19
721.63	56.75
721.813	56.51
721.997	56.11
722.18	55.89
722.364	56.45
722.547	56.21
722.73	56.15
722.914	56.5
723.097	56.41
723.28	56.4
723.464	56.12
723.647	55.55
723.83	55.16
724.013	55.73
724.197	55.75
724.38	55.21
724.563	55.65
724.746	55.41
724.929	55.57
725.112	55.38
725.296	54.94
725.479	55.39
725.662	55.72
725.845	56.56
726.028	56.74
726.211	56.93
726.394	56.88
726.577	56.53
726.76	56.75
726.943	56.43
727.126	56.35
727.309	56.75
727.492	56.77
727.675	56.7
727.858	56.4
728.041	55.83
728.224	55.7
728.407	56.01
728.589	56.08
728.772	55.9
728.955	56.33
729.138	56.57
729.321	56.24
729.503	56.2
729.686	56.62
729.869	56.6
730.052	56.98
730.234	57.23
730.417	57.27
730.6	57.32
730.782	57.5
730.965	57.48
731.148	57.73
731.33	58.1
731.513	58.28
731.695	57.76
731.878	57.97
732.061	57.75
732.243	57.9
732.426	58.25
732.608	58.26
732.791	58.35
732.973	58.21
733.156	57.7
733.338	57.87
733.52	57.61
733.703	57.88
733.885	57.78
734.068	57.45
734.25	56.92
734.432	56.47
734.615	56.34
734.797	56.34
734.979	56.41
735.162	56.53
735.344	57.19
735.526	57.33
735.708	57.56
735.891	57.78
736.073	58.07
736.255	58.13
736.437	58.34
736.619	58.47
736.802	58.35
736.984	58.44
737.166	58.48
737.348	57.81
737.53	58.07
737.712	57.21
737.894	56.94
738.076	57.37
738.258	57.12
738.44	57.19
738.622	57.45
738.804	57.97
738.986	57.89
739.168	58.06
739.35	57.81
739.532	57.49
739.714	58.11
739.896	58.17
740.078	57.71
740.259	58.86
740.441	58.59
740.623	58.44
740.805	57.95
740.987	57.57
741.168	57.16
741.35	57.4
741.532	57.91
741.714	58.11
741.895	58.11
742.077	58.54
742.259	57.85
742.44	58.05
742.622	57.69
742.804	57.55
742.985	57.27
743.167	57.58
743.348	56.77
743.53	56.37
743.711	55.99
743.893	55.84
744.075	55.99
744.256	55.55
744.438	55.17
744.619	56.17
744.8	56.33
744.982	56.89
745.163	56.56
745.345	57.8
745.526	57.93
745.707	57.76
745.889	57.46
746.07	56.94
746.252	57.54
746.433	57.73
746.614	57.35
746.795	56.8
746.977	56.61
747.158	57.08
747.339	57
747.52	57.1
747.702	57.44
747.883	57.9
748.064	57.82
748.245	57.53
748.426	57.98
748.607	57.7
748.788	57.88
748.97	57.85
749.151	57.66
749.332	57.41
749.513	56.98
749.694	57.42
749.875	57.73
750.056	58.06
750.237	58.44
750.418	58.16
750.599	57.79
750.78	57.84
750.96	57.58
751.141	57.72
751.322	57.42
751.503	57.62
751.684	57.14
751.865	56.56
752.046	56.57
752.226	56.35
752.407	55.82
752.588	55.89
752.769	55.85
752.949	55.81
753.13	56.23
753.311	56.79
753.492	56.65
753.672	57
753.853	56.65
754.034	56.55
754.214	55.91
754.395	55.86
754.575	56.17
754.756	56.23
754.937	56.55
755.117	55.63
755.298	55.38
755.478	55.65
755.659	55.24
755.839	55.8
756.02	55.43
756.2	56.21
756.381	56.67
756.561	57.26
756.741	57.46
756.922	57.4
757.102	57.42
757.283	56.9
757.463	56.68
757.643	56.81
757.823	56.7
758.004	57.51
758.184	57.16
758.364	57.22
758.545	56.16
758.725	57.07
758.905	56.5
759.085	56.93
759.265	56.91
759.446	56.69
759.626	56.6
759.806	56.29
759.986	55.95
760.166	55.99
760.346	55.52
760.526	55.78
760.706	55.19
760.886	55.61
761.066	56.09
761.246	57.01
761.426	57.27
761.606	57.51
761.786	57.53
761.966	57.1
762.146	57.24
762.326	57.81
762.506	57.75
762.686	57.68
762.866	57.55
763.046	56.89
763.225	56.3
763.405	55.87
763.585	55.82
763.765	55.59
763.945	55.77
764.124	55.42
764.304	55.2
764.484	55.43
764.664	54.38
764.843	54.82
765.023	54.93
765.203	55.23
765.382	55.31
765.562	55.09
765.741	55.34
765.921	55.88
766.101	55.81
766.28	55.59
766.46	55.76
766.639	56.98
766.819	56.61
766.998	56.6
767.178	56.26
767.357	56.82
767.537	57.28
767.716	57.32
767.896	56.32
768.075	56.52
768.254	56.52
768.434	56.13
768.613	56.1
768.792	56.02
768.972	55.89
769.151	55.95
769.33	54.88
769.51	54.78
769.689	55.04
769.868	55.76
770.047	57.02
770.226	56.64
770.406	56.21
770.585	56.06
770.764	56.2
770.943	56.8
771.122	56.92
771.301	58.12
771.48	58.11
771.66	58.23
771.839	57.51
772.018	56.23
772.197	56.59
772.376	56.83
772.555	56.2
772.734	56.08
772.913	55.16
773.092	54.45
773.271	53.7
773.449	53.61
773.628	53.42
773.807	54.18
773.986	53.73
774.165	54.28
774.344	54.7
774.523	55.39
774.701	55.92
774.88	55.75
775.059	56.16
775.238	56.25
775.417	56.21
775.595	56.47
775.774	55.71
775.953	56.72
776.131	56.45
776.31	55.91
776.489	55.94
776.667	55.45
776.846	55.93
777.025	56.65
777.203	56.26
777.382	56.36
777.56	56
777.739	56.05
777.917	56.38
778.096	56.92
778.274	57.36
778.453	57.14
778.631	57.28
778.81	57.85
778.988	57
779.166	56.9
779.345	56.37
779.523	56.65
779.702	56.69
779.88	55.22
780.058	54.37
780.237	53.57
780.415	53.85
780.593	53.94
780.771	54.42
780.95	54.65
781.128	56.17
781.306	57.4
781.484	56.76
781.662	57.08
781.841	57.97
782.019	58.03
782.197	58.23
782.375	57.95
782.553	57.81
782.731	56.46
782.909	57.04
783.087	56.16
783.265	55.34
783.443	55.68
783.621	56.44
783.799	57.46
783.977	57.71
784.155	59.27
784.333	59.26
784.511	58.76
784.689	59.86
784.867	58.72
785.045	59.48
785.223	59.39
785.4	59.93
785.578	58.71
785.756	57.83
785.934	57.38
786.112	56.27
786.289	56.31
786.467	57.48
786.645	57.08
786.823	57.18
787	57.21
787.178	56.82
787.356	55.91
787.533	55.41
787.711	55.6
787.889	56.38
788.066	55.75
788.244	55.75
788.421	54.54
788.599	54.66
788.776	55.05
788.954	54.69
789.131	55.24
789.309	55.85
789.486	57.1
789.664	57.18
789.841	57.1
790.019	57.72
790.196	56.94
790.373	57.59
790.551	57.61
790.728	57.16
790.906	56.49
791.083	56.41
791.26	56.15
791.437	55.81
791.615	55.3
791.792	55.04
791.969	53.91
792.146	54.57
792.324	55.03
792.501	55.47
792.678	55.08
792.855	55.95
793.032	54.95
793.209	55.1
793.387	55.18
793.564	55.51
793.741	55.1
793.918	55.47
794.095	56.04
794.272	55.64
794.449	54.63
794.626	55.71
794.803	55.63
794.98	56.49
795.157	56.48
795.334	57.08
795.511	56.4
795.688	56.33
795.864	56.93
796.041	56.66
796.218	56.66
796.395	57.02
796.572	56.76
796.749	56.43
796.925	56.25
797.102	56.91
797.279	56.14
797.456	56.21
797.632	56.18
797.809	57.02
797.986	56.85
798.162	56.52
798.339	56.32
798.516	56.36
798.692	56.8
798.869	57.03
799.046	56.1
799.222	55.75
799.399	56.86
799.575	57.79
799.752	57.11
799.928	56.61
800.105	57.35
800.281	56.99
800.458	56.63
800.634	55.35
800.811	53.97
800.987	54.05
801.163	54.91
801.34	54.26
801.516	53.65
801.692	53.91
801.869	55.01
802.045	54.67
802.221	55.18
802.398	55.19
802.574	55.63
802.75	56.29
802.926	57.36
803.103	56.6
803.279	56.36
803.455	56.69
803.631	56.33
803.807	56.77
803.983	56.6
804.16	57.64
804.336	58.99
804.512	59.51
804.688	60.23
804.864	59.46
805.04	59.58
805.216	59.45
805.392	59.4
805.568	61.05
805.744	60.96
805.92	61.04
806.096	59.09
806.272	58.46
806.448	59.28
806.623	59.94
806.799	60.44
806.975	60.43
807.151	61.71
807.327	61.85
807.503	59.47
807.678	58.97
807.854	58.65
808.03	60.08
808.206	61.13
808.381	59.83
808.557	59.8
808.733	59.69
808.908	59.19
809.084	58.55
809.26	57.67
809.435	58.38
809.611	57.75
809.787	57
809.962	57.05
810.138	55.7
810.313	56.49
810.489	56.75
810.664	57
810.84	57.53
811.015	57.36
811.191	58.23
811.366	58.93
811.542	58.87
811.717	61.03
811.892	60.08
812.068	60.47
812.243	58.88
812.419	57.94
812.594	56.08
812.769	57.22
812.944	57.06
813.12	55.88
813.295	56.34
813.47	55.99
813.645	55.82
813.821	55.4
813.996	55.67
814.171	56.6
814.346	56.24
814.521	57.77
814.697	57.2
814.872	56.03
815.047	57.16
815.222	57.34
815.397	57.29
815.572	56.12
815.747	57.16
815.922	55.84
816.097	56.16
816.272	57.22
816.447	56.29
816.622	55.69
816.797	57.51
816.972	56.79
817.147	57
817.322	58.99
817.496	60.28
817.671	59.42
817.846	59.41
818.021	57.96
818.196	56.99
818.371	58.07
818.545	58.57
818.72	59.35
818.895	58.8
819.069	56.9
819.244	56.36
819.419	55.27
819.594	55.75
819.768	55.47
819.943	56.48
820.117	56.1
820.292	55.94
820.467	56.13
820.641	55.61
820.816	56.51
820.99	56.45
821.165	56.09
821.339	56.07
821.514	55.76
821.688	55.55
821.863	55.18
822.037	55.01
822.212	54.53
822.386	54.32
822.56	53.81
822.735	53.56
822.909	53.69
823.084	53.42
823.258	53.22
823.432	53.18
823.606	53.21
823.781	53.23
823.955	53.3
824.129	53.51
824.303	53.4
824.478	53.63
824.652	53.14
824.826	52.8
825	53.01
825.174	52.97
825.348	52.7
825.523	52.73
825.697	52.57
825.871	52.65
826.045	52.67
826.219	52.72
826.393	53.22
826.567	53.29
826.741	53.83
826.915	53.55
827.089	53.86
827.263	54.72
827.437	54.8
827.611	55.22
827.784	55.48
827.958	56.1
828.132	55.83
828.306	55.3
828.48	55.52
828.654	55.43
828.827	55.59
829.001	55.17
829.175	54.7
829.349	54.49
829.522	54.22
829.696	53.58
829.87	52.14
830.044	52.86
830.217	52.95
830.391	53.79
830.565	52.86
830.738	53.7
830.912	54.23
831.085	53.99
831.259	54.94
831.432	55.65
831.606	55.7
831.779	55.93
831.953	55.38
832.126	54.94
832.3	53.82
832.473	53.71
832.647	53.81
832.82	53.29
832.994	53.72
833.167	52.97
833.34	53.14
833.514	53.31
833.687	53.54
833.86	54.1
834.034	54.22
834.207	54.27
834.38	54.42
834.553	54.01
834.727	54.82
834.9	54.71
835.073	55.09
835.246	55.46
835.419	55.68
835.593	56.6
835.766	55.83
835.939	55.03
836.112	54.88
836.285	54.22
836.458	54.01
836.631	53.45
836.804	54.41
836.977	54.86
837.15	54.75
837.323	54.69
837.496	54.65
837.669	55.1
837.842	58.15
838.015	59.12
838.188	60.83
838.361	61.28
838.533	62.95
838.706	60.35
838.879	59.67
839.052	58.13
839.225	60.27
839.398	57.26
839.57	57.11
839.743	56.08
839.916	56.27
840.088	57.4
840.261	59.08
840.434	59.34
840.607	60
840.779	60.15
840.952	59.17
841.124	56.68
841.297	59.76
841.47	60.43
841.642	59.83
841.815	59.79
841.987	58.21
842.16	58.7
842.332	57.56
842.505	60.29
842.677	62.08
842.85	64.12
843.022	63.67
843.194	62.98
843.367	62.6
843.539	64.53
843.712	63.07
843.884	65.35
844.056	64.86
844.229	64.96
844.401	62.55
844.573	60.64
844.745	57.97
844.918	60.65
845.09	61.84
845.262	62.94
845.434	63.34
845.606	63.78
845.779	61.75
845.951	62.9
846.123	58.77
846.295	57
846.467	56.78
846.639	62.29
846.811	63.27
846.983	63.56
847.155	63.43
847.327	62.03
847.499	63.98
847.671	62.18
847.843	57.78
848.015	61.32
848.187	62.5
848.359	66.08
848.531	63.65
848.703	62.69
848.875	60.21
849.047	59.54
849.218	61.67
849.39	58.53
849.562	61.71
849.734	66.04
849.905	67.87
850.077	69.18
850.249	65.85
850.421	63.68
850.592	60.49
850.764	58.79
850.936	56.67
851.107	53.91
851.279	55.43
851.451	55.99
851.622	54.96
851.794	52.46
851.965	53.2
852.137	54.09
852.308	56.43
852.48	60.55
852.651	63.83
852.823	68.43
852.994	68.85
853.166	70.31
853.337	70.64
853.509	68.78
853.68	71.16
853.851	67.37
854.023	63.21
854.194	62
854.365	60.43
854.537	58.76
854.708	63.93
854.879	65.72
855.05	65.61
855.222	65.26
855.393	69.11
855.564	69.3
855.735	69.87
855.906	74.42
856.078	71.56
856.249	70.7
856.42	68.72
856.591	67.25
856.762	63.38
856.933	58.81
857.104	53.02
857.275	46.7
857.446	40.7
857.617	43.11
857.788	43.77
857.959	46.79
858.13	49.07
858.301	50.65
858.472	49.03
858.643	53.86
858.814	58.16
858.985	65.53
859.155	66.74
859.326	70.74
859.497	66.6
859.668	65.22
859.839	67.17
860.009	64.55
860.18	63.7
860.351	56.9
860.522	54.91
860.692	55.18
860.863	51.93
861.034	56.86
861.204	53.4
861.375	57.25
861.546	53.27
861.716	50.05
861.887	54.03
862.057	59.13
862.228	59.42
862.398	58.71
862.569	58.75
862.739	59.41
862.91	55.57
863.08	60.32
863.251	58.97
863.421	63.34
863.592	65.15
863.762	62.47
863.932	62.93
864.103	62.68
864.273	65.19
864.443	66.2
864.614	63.93
864.784	67.61
864.954	68.06
865.125	71.39
865.295	71.79
865.465	73.67
865.635	73.18
865.805	74.99
865.976	76.97
866.146	77.24
866.316	75.06
866.486	77.84
866.656	76.59
866.826	67.68
866.996	61.53
867.166	64.32
867.336	65.47
867.506	68.03
867.676	60.49
867.846	60.02
868.016	60.62
868.186	59.81
868.356	58.07
868.526	52.62
868.696	55.84
868.866	50.25
869.036	47.71
869.206	42.33
869.376	38.2
869.545	42.44
869.715	41.01
869.885	34.37
870.055	38.89
870.224	42.86
870.394	47.21
870.564	53.41
870.734	63.99
870.903	59.87
871.073	56.51
871.243	62.87
871.412	66.03
871.582	65.83
871.751	68.21
871.921	69.06
872.091	64.17
872.26	67.59
872.43	61.77
872.599	60.89
872.769	60.95
872.938	63.6
873.108	63.09
873.277	58.43
873.446	62.58
873.616	64.25
873.785	63.04
873.955	62.54
874.124	58.71
874.293	55.52
874.463	51.09
874.632	54.58
874.801	54.82
874.971	51.89
875.14	54.05
875.309	53.04
875.478	47.01
875.647	45.2
875.817	48.57
875.986	51.73
876.155	58.69
876.324	62.13
876.493	64.49
876.662	66.72
876.831	66.81
877	68.88
877.17	69.38
877.339	78.54
877.508	80.64
877.677	83.43
877.846	76.48
878.015	70.78
878.184	68.01
878.352	63.23
878.521	62.27
878.69	65.61
878.859	61.87
879.028	60.53
879.197	57.04
879.366	54.74
879.534	50.24
879.703	53.59
879.872	55.44
880.041	54.6
880.21	55.53
880.378	55.64
880.547	51.91
880.716	53.11
880.884	53.71
881.053	53.18
881.222	54.78
881.39	54.15
881.559	53.3
881.727	52.04
881.896	51.74
882.065	51.44
882.233	51.14
882.402	52.04
882.57	51.63
882.739	51.41
882.907	51.28
883.076	49.99
883.244	50.44
883.412	50.5
883.581	51.36
883.749	51.61
883.918	51.65
884.086	51.29
884.254	51.39
884.423	51.66
884.591	52.84
884.759	52.54
884.927	53.26
885.096	53.36
885.264	54.46
885.432	54.89
885.6	55.2
885.769	55.25
885.937	56.31
886.105	56.81
886.273	58.38
886.441	54.22
886.609	57.84
886.777	57.55
886.945	59.49
887.113	58.68
887.281	57.28
887.449	57.89
887.617	59.37
887.785	59.54
887.953	58.89
888.121	57.71
888.289	58.23
888.457	55.4
888.625	56.14
888.793	52.17
888.961	52.55
889.129	55.48
889.296	60.57
889.464	60.23
889.632	59.11
889.8	59.75
889.967	59.52
890.135	66.13
