Data from 2938566_Reflection_2.txt Node
Date: Sun Jun 14 22:23:18 EDT 2015
User: robert
Spectrometer: USB4E03002
Autoset integration time: false
Trigger mode: 4
Integration Time (sec): 1.000000E-1
Scans to average: 10
Electric dark correction enabled: true
Nonlinearity correction enabled: false
Boxcar width: 5
Stray light correction enabled: false
XAxis mode: Wavelengths
Stop averaging: false
Number of Pixels in Spectrum: 3648
>>>>>Begin Spectral Data<<<<<
177.575	-52.01
177.794	243.14
178.014	112.35
178.233	43.5
178.452	-41.81
178.672	-27250
178.891	53.63
179.11	20.33
179.33	53.41
179.549	30.42
179.768	42.77
179.987	-41.47
180.207	53.01
180.426	17.3
180.645	-6.5
180.864	-2.12
181.084	-28.61
181.303	79.94
181.522	287.75
181.741	129.69
181.96	6136.36
182.179	-128.99
182.398	-116.03
182.618	-31.2
182.837	-5.35
183.056	25.65
183.275	52.61
183.494	86.5
183.713	97.21
183.932	121.92
184.151	94.01
184.37	98.46
184.589	78.91
184.808	92.35
185.027	94.98
185.246	97.97
185.465	110.15
185.684	123.64
185.903	31.94
186.122	101.58
186.341	73.35
186.56	49.69
186.779	-18.06
186.998	-72.46
187.216	-738.13
187.435	35.46
187.654	140.46
187.873	102.02
188.092	75.22
188.311	77.88
188.53	74.07
188.748	65.54
188.967	74.22
189.186	85.39
189.405	123.44
189.623	119.32
189.842	108.02
190.061	125.9
190.28	90.36
190.498	113.85
190.717	-913.09
190.936	134.11
191.154	116.27
191.373	76.99
191.592	74.73
191.81	55.77
192.029	51.21
192.248	-44.33
192.466	-92.48
192.685	-63.2
192.904	-210.82
193.122	-49.19
193.341	-11.25
193.559	-25.63
193.778	-9.6
193.996	-6.37
194.215	20.86
194.433	39.37
194.652	79.21
194.87	57.34
195.089	72.5
195.307	95.8
195.526	104.67
195.744	123.28
195.963	141.03
196.181	147.72
196.399	160.26
196.618	164.78
196.836	176.44
197.055	83.01
197.273	-452.34
197.491	-804.94
197.71	265.26
197.928	1128.41
198.146	-617.43
198.365	-112.07
198.583	-39.24
198.801	60.88
199.019	44.45
199.238	87.69
199.456	74.93
199.674	22.98
199.892	39.8
200.111	14.32
200.329	20.38
200.547	24.69
200.765	41.43
200.983	75.15
201.202	78.83
201.42	102.59
201.638	139.11
201.856	159.87
202.074	151.48
202.292	300.8
202.51	271.69
202.728	386.79
202.946	495.25
203.165	329.8
203.383	75.22
203.601	154.57
203.819	268.02
204.037	208.68
204.255	243.66
204.473	-92.24
204.691	50.99
204.909	-31.93
205.127	-0.92
205.345	33.7
205.562	39.06
205.78	44.82
205.998	63.46
206.216	93.44
206.434	97.04
206.652	90.93
206.87	104.3
207.088	122.65
207.306	200.92
207.523	183.77
207.741	180.28
207.959	300.36
208.177	232.54
208.395	239.78
208.612	205.04
208.83	142.25
209.048	169.79
209.266	134.33
209.483	166.53
209.701	125.19
209.919	80.97
210.136	80.96
210.354	41.29
210.572	43.67
210.79	39.08
211.007	32.27
211.225	15.36
211.442	-3.08
211.66	21.08
211.878	17.92
212.095	58.04
212.313	53.96
212.53	51.58
212.748	61.8
212.966	58.46
213.183	65.86
213.401	60.91
213.618	58.01
213.836	61.77
214.053	55.04
214.271	59.6
214.488	-14.01
214.705	-10.08
214.923	-119.12
215.14	-76.31
215.358	-24.46
215.575	-5.18
215.793	-3.39
216.01	19.23
216.227	0.86
216.445	-10.64
216.662	-9.54
216.879	4.93
217.097	15.31
217.314	28.86
217.531	29.3
217.749	17.91
217.966	11.61
218.183	9.09
218.4	14.1
218.618	31.67
218.835	33.79
219.052	27.95
219.269	31.93
219.487	26.66
219.704	19.06
219.921	23.03
220.138	36.13
220.355	34.86
220.572	33.64
220.79	24.25
221.007	5.73
221.224	-2.39
221.441	2.85
221.658	9.23
221.875	12.98
222.092	18.39
222.309	9.09
222.526	3.91
222.743	6.78
222.96	6.04
223.177	8.27
223.394	16.73
223.611	21.32
223.828	19.04
224.045	12.67
224.262	11.16
224.479	5.96
224.696	12.28
224.913	12.34
225.13	12.77
225.347	16.06
225.564	16.34
225.781	14.23
225.997	12.48
226.214	13.2
226.431	11.92
226.648	11.51
226.865	13.6
227.082	11.67
227.298	11.46
227.515	10.8
227.732	11.21
227.949	10.95
228.165	10.97
228.382	10.81
228.599	10.66
228.816	11.32
229.032	10.65
229.249	10.8
229.466	11.13
229.682	11.27
229.899	11.21
230.116	9.97
230.332	9.96
230.549	10.4
230.765	11.96
230.982	9.79
231.199	10.12
231.415	11.18
231.632	10.6
231.848	11.07
232.065	10.37
232.281	13.43
232.498	13.53
232.714	13.07
232.931	13.64
233.147	12.17
233.364	11.64
233.58	10.41
233.797	11
234.013	9.93
234.23	9.52
234.446	11.13
234.662	7.03
234.879	8.1
235.095	11.46
235.312	10.66
235.528	12.47
235.744	14.62
235.961	16.91
236.177	16.53
236.393	17.09
236.61	17.12
236.826	16.8
237.042	16.67
237.258	16.19
237.475	13.72
237.691	14.66
237.907	12.96
238.123	13.22
238.339	12.89
238.556	12.64
238.772	12.23
238.988	11.75
239.204	10.94
239.42	11
239.636	11.29
239.853	11.57
240.069	11.38
240.285	11.56
240.501	11.18
240.717	11.48
240.933	11.77
241.149	11.32
241.365	11.38
241.581	11.95
241.797	13.06
242.013	12.1
242.229	11.06
242.445	11.1
242.661	11.08
242.877	11.83
243.093	10.84
243.309	10.63
243.525	11.17
243.741	12.23
243.957	11.39
244.173	10.1
244.388	10.68
244.604	11.15
244.82	10.8
245.036	10.27
245.252	10.08
245.468	10.03
245.683	9.67
245.899	9.63
246.115	9.57
246.331	9.9
246.547	10.18
246.762	9.83
246.978	9.3
247.194	9.31
247.409	9.74
247.625	9.43
247.841	10.07
248.057	10.7
248.272	10.78
248.488	10.31
248.703	9.49
248.919	8.77
249.135	9.53
249.35	10.4
249.566	10.06
249.782	9.35
249.997	9.36
250.213	9.21
250.428	9.37
250.644	9.02
250.859	8.44
251.075	8.64
251.29	8.3
251.506	8.55
251.721	8.75
251.937	8.37
252.152	8.36
252.368	8.47
252.583	7.5
252.798	6.75
253.014	6.96
253.229	7.14
253.445	7.22
253.66	9.05
253.875	6.67
254.091	5.92
254.306	6.76
254.521	7.22
254.737	7.55
254.952	8.13
255.167	7.85
255.383	8.29
255.598	8.34
255.813	8.49
256.028	7.62
256.244	8.55
256.459	9.37
256.674	9.3
256.889	9.17
257.104	8.99
257.32	9
257.535	8.86
257.75	8.47
257.965	8.65
258.18	8.84
258.395	9.08
258.61	9.1
258.826	8.61
259.041	8.59
259.256	8.68
259.471	8.56
259.686	8.31
259.901	8.8
260.116	9.17
260.331	8.97
260.546	8.76
260.761	8.57
260.976	8.43
261.191	8.78
261.406	9.05
261.621	8.87
261.836	9.11
262.05	9.71
262.265	8.39
262.48	8.15
262.695	8.37
262.91	8.93
263.125	9.07
263.34	9.38
263.555	8.56
263.769	8.82
263.984	8.85
264.199	8.62
264.414	8
264.629	8.51
264.843	8.63
265.058	8.35
265.273	8.09
265.488	8.13
265.702	7.27
265.917	7.94
266.132	7.17
266.346	7.28
266.561	7.24
266.776	7.3
266.99	6.93
267.205	6.83
267.42	6.82
267.634	6.49
267.849	6.28
268.063	7.22
268.278	7.33
268.492	7.77
268.707	7.36
268.922	7.93
269.136	8.02
269.351	8.12
269.565	7.75
269.78	7.9
269.994	7.46
270.209	7.94
270.423	7.65
270.637	7.34
270.852	7.36
271.066	7.3
271.281	7.13
271.495	6.76
271.709	6.97
271.924	7.52
272.138	7.61
272.353	7.7
272.567	6.82
272.781	6.74
272.996	6.64
273.21	6.45
273.424	6.84
273.638	6.55
273.853	6.96
274.067	6.78
274.281	6.6
274.495	6.45
274.71	6.62
274.924	7.09
275.138	6.8
275.352	6.93
275.566	6.92
275.781	7.13
275.995	6.96
276.209	7.38
276.423	7.87
276.637	7.48
276.851	7.45
277.065	8.28
277.279	8.63
277.493	9.08
277.707	8.57
277.921	8.43
278.135	8.19
278.349	8.17
278.563	7.83
278.777	7.62
278.991	7.47
279.205	7.37
279.419	6.94
279.633	6.95
279.847	7.28
280.061	7.52
280.275	7.55
280.489	7.54
280.703	7.67
280.917	7.48
281.131	7.51
281.344	8.05
281.558	8.34
281.772	7.91
281.986	7.52
282.2	7.07
282.414	7.33
282.627	7.16
282.841	6.8
283.055	6.58
283.269	6.66
283.482	6.37
283.696	6.13
283.91	5.54
284.123	5.81
284.337	6.01
284.551	6.31
284.764	6.08
284.978	6.36
285.192	6.63
285.405	6.57
285.619	6.54
285.833	6.91
286.046	7.15
286.26	7.49
286.473	7.48
286.687	7.49
286.9	7.28
287.114	7.83
287.327	7.94
287.541	7.82
287.754	7.93
287.968	8.09
288.181	7.75
288.395	7.59
288.608	7.74
288.822	7.82
289.035	7.74
289.248	7.42
289.462	7.61
289.675	7.25
289.889	7.68
290.102	7.75
290.315	7.83
290.529	8.14
290.742	7.97
290.955	7.62
291.169	7.29
291.382	7.67
291.595	7.58
291.808	7.03
292.022	6.92
292.235	6.47
292.448	6.56
292.661	6.22
292.875	6.31
293.088	6.63
293.301	6.7
293.514	7.06
293.727	6.67
293.94	7.15
294.153	7.11
294.367	7.21
294.58	7.12
294.793	6.8
295.006	6.95
295.219	6.82
295.432	6.86
295.645	7.08
295.858	6.85
296.071	6.88
296.284	6.79
296.497	6.68
296.71	6.43
296.923	6.47
297.136	6.58
297.349	6.56
297.562	6.66
297.775	6.52
297.988	6.64
298.201	6.83
298.414	6.9
298.626	6.82
298.839	6.93
299.052	7.4
299.265	7.68
299.478	7.8
299.691	7.73
299.903	7.81
300.116	7.42
300.329	7.34
300.542	7.23
300.755	7.12
300.967	7.49
301.18	7.51
301.393	7.56
301.605	7.22
301.818	7.4
302.031	7.41
302.243	6.89
302.456	6.96
302.669	6.61
302.881	6.7
303.094	6.57
303.307	6.15
303.519	5.94
303.732	6.02
303.944	6.15
304.157	5.92
304.37	6.17
304.582	6.29
304.795	6.44
305.007	6.51
305.22	6.29
305.432	6.4
305.645	6.62
305.857	7.08
306.069	7.09
306.282	6.98
306.494	6.86
306.707	6.79
306.919	7.1
307.132	7.15
307.344	7.27
307.556	7.5
307.769	7.5
307.981	7.47
308.193	7.07
308.406	6.81
308.618	6.91
308.83	6.67
309.043	6.37
309.255	5.96
309.467	6.15
309.679	6.23
309.892	6.15
310.104	5.94
310.316	6.06
310.528	6.6
310.74	6.48
310.953	6.24
311.165	6.73
311.377	6.88
311.589	7.24
311.801	6.93
312.013	6.78
312.225	7.19
312.437	7.83
312.649	7.9
312.862	7.63
313.074	7.83
313.286	8.42
313.498	8.4
313.71	8.56
313.922	8.14
314.134	8.33
314.346	8.29
314.558	8
314.77	8.05
314.982	7.74
315.193	7.36
315.405	7.39
315.617	7.17
315.829	7.43
316.041	7.09
316.253	7.69
316.465	7.65
316.677	7.25
316.888	7.2
317.1	6.96
317.312	7.71
317.524	8.01
317.736	8.37
317.947	8.43
318.159	8.28
318.371	7.99
318.583	8.01
318.794	8.16
319.006	8.83
319.218	8.59
319.43	8.5
319.641	8.12
319.853	8.14
320.064	7.93
320.276	7.95
320.488	8.01
320.699	8.49
320.911	8.08
321.123	8.08
321.334	7.71
321.546	7.85
321.757	7.87
321.969	7.65
322.18	7.39
322.392	7.26
322.603	7.16
322.815	7.1
323.026	7.68
323.238	7.87
323.449	7.52
323.661	7.69
323.872	7.19
324.083	7.21
324.295	7.28
324.506	7.35
324.718	7.45
324.929	7.58
325.14	7.61
325.352	7.04
325.563	6.98
325.774	7.72
325.986	8.04
326.197	8.38
326.408	8.32
326.62	8.24
326.831	8.2
327.042	8.36
327.253	8.04
327.464	7.94
327.676	8.42
327.887	8.18
328.098	7.69
328.309	7.36
328.52	7.79
328.732	7.85
328.943	8.05
329.154	8.35
329.365	8.25
329.576	8.48
329.787	8.38
329.998	8
330.209	8.74
330.42	8.91
330.631	9.1
330.842	8.83
331.053	8.66
331.264	8.09
331.475	8.37
331.686	8.43
331.897	8.7
332.108	9.11
332.319	9.24
332.53	9.09
332.741	9.1
332.952	9.05
333.163	9.17
333.374	9.12
333.585	9.79
333.795	9.65
334.006	9.37
334.217	9.1
334.428	9.02
334.639	9.17
334.849	8.85
335.06	8.72
335.271	8.99
335.482	8.86
335.692	8.92
335.903	8.49
336.114	8.39
336.325	8.78
336.535	8.85
336.746	8.51
336.957	8.32
337.167	8.25
337.378	8.34
337.589	7.89
337.799	8
338.01	8.18
338.22	8.3
338.431	8.43
338.642	7.93
338.852	7.76
339.063	7.88
339.273	7.78
339.484	7.99
339.694	7.77
339.905	7.98
340.115	7.8
340.326	7.56
340.536	7.86
340.746	7.74
340.957	7.97
341.167	8.43
341.378	8.35
341.588	8.45
341.799	8.52
342.009	8.41
342.219	8.44
342.43	8.56
342.64	8.74
342.85	8.12
343.061	7.98
343.271	7.89
343.481	7.32
343.691	7.59
343.902	7.46
344.112	7.58
344.322	7.48
344.532	7.48
344.743	7.64
344.953	7.6
345.163	8.07
345.373	8.22
345.583	8.51
345.793	8.87
346.004	8.86
346.214	8.85
346.424	8.71
346.634	9.33
346.844	8.99
347.054	8.61
347.264	8.79
347.474	8.79
347.684	8.35
347.894	8.03
348.104	7.65
348.314	7.66
348.524	7.33
348.734	7.49
348.944	7.03
349.154	7.32
349.364	7.51
349.574	7.37
349.784	7.14
349.994	7.35
350.204	7.25
350.413	7.54
350.623	7.26
350.833	7.44
351.043	7.12
351.253	7.23
351.463	7.14
351.672	6.95
351.882	6.97
352.092	7.11
352.302	7.25
352.511	7.59
352.721	7.59
352.931	7.86
353.141	7.93
353.35	8.12
353.56	8.2
353.77	8.04
353.979	8
354.189	7.96
354.399	7.73
354.608	7.93
354.818	7.59
355.027	7.79
355.237	7.64
355.447	7.82
355.656	7.85
355.866	7.88
356.075	7.86
356.285	7.97
356.494	8.03
356.704	8.26
356.913	8.1
357.123	8.2
357.332	7.91
357.542	7.8
357.751	7.69
357.96	7.13
358.17	7
358.379	7.48
358.589	7.51
358.798	7.52
359.007	7.17
359.217	7.18
359.426	7.36
359.635	7.35
359.845	7.61
360.054	7.77
360.263	8.05
360.472	8.12
360.682	7.82
360.891	7.9
361.1	7.75
361.309	8.12
361.519	8.12
361.728	8.11
361.937	8.09
362.146	7.88
362.355	7.62
362.564	7.72
362.774	7.54
362.983	7.44
363.192	7.34
363.401	7.39
363.61	7.2
363.819	7.36
364.028	7.21
364.237	7.24
364.446	7.25
364.655	7.2
364.864	6.96
365.073	6.92
365.282	6.91
365.491	6.81
365.7	6.62
365.909	6.58
366.118	6.3
366.327	6.27
366.536	6.32
366.745	6.6
366.954	6.67
367.162	7.08
367.371	7.04
367.58	7.18
367.789	7.11
367.998	7.01
368.207	7.04
368.415	7.07
368.624	7.19
368.833	7.17
369.042	6.8
369.25	6.73
369.459	6.41
369.668	6.39
369.877	6.35
370.085	6.34
370.294	6.56
370.503	6.72
370.711	6.65
370.92	6.68
371.129	6.76
371.337	6.78
371.546	6.56
371.754	6.7
371.963	6.85
372.171	6.78
372.38	6.75
372.589	6.8
372.797	6.35
373.006	6.47
373.214	6.51
373.423	6.28
373.631	6.22
373.84	6.69
374.048	6.53
374.256	6.57
374.465	6.87
374.673	7.18
374.882	7.08
375.09	7.38
375.298	7.21
375.507	7.18
375.715	7.37
375.923	7.35
376.132	7.17
376.34	7.24
376.548	7.28
376.757	7.3
376.965	7.22
377.173	7.11
377.381	6.93
377.59	6.98
377.798	6.81
378.006	6.6
378.214	6.49
378.423	6.38
378.631	6.36
378.839	6.45
379.047	6.23
379.255	6.07
379.463	6.04
379.671	6.18
379.879	6.39
380.088	6.45
380.296	6.59
380.504	6.45
380.712	6.43
380.92	6.44
381.128	6.17
381.336	6.23
381.544	6.07
381.752	6.2
381.96	6.11
382.168	5.95
382.376	5.97
382.584	6.03
382.791	6.39
382.999	6.42
383.207	6.34
383.415	6.49
383.623	6.38
383.831	6.62
384.039	6.64
384.247	6.62
384.454	6.68
384.662	6.61
384.87	6.7
385.078	6.58
385.285	6.75
385.493	6.83
385.701	6.79
385.909	6.75
386.116	6.81
386.324	7
386.532	7.02
386.739	6.9
386.947	6.96
387.155	6.94
387.362	7.02
387.57	7.04
387.778	6.97
387.985	7.05
388.193	7.07
388.4	7.01
388.608	7.02
388.816	7.11
389.023	7.22
389.231	7.04
389.438	6.96
389.646	6.86
389.853	6.66
390.061	6.58
390.268	6.66
390.475	6.57
390.683	6.55
390.89	6.41
391.098	6.36
391.305	6.11
391.512	6.22
391.72	6.22
391.927	6.39
392.135	6.61
392.342	6.75
392.549	6.58
392.756	6.66
392.964	6.44
393.171	6.4
393.378	6.29
393.586	6.41
393.793	6.32
394	6.37
394.207	6.27
394.414	6.1
394.622	6
394.829	5.91
395.036	5.78
395.243	5.9
395.45	5.99
395.657	6.23
395.864	6.07
396.072	6.21
396.279	5.95
396.486	5.79
396.693	5.8
396.9	5.92
397.107	6.14
397.314	6.44
397.521	6.57
397.728	6.45
397.935	6.33
398.142	6.48
398.349	6.35
398.556	6.41
398.763	6.67
398.97	6.51
399.177	6.47
399.383	6.11
399.59	5.65
399.797	5.44
400.004	5.48
400.211	5.39
400.418	5.43
400.625	5.55
400.831	5.49
401.038	5.11
401.245	5.22
401.452	5.13
401.658	5.4
401.865	5.55
402.072	5.63
402.279	5.6
402.485	5.46
402.692	5.55
402.899	5.71
403.105	5.79
403.312	5.98
403.519	6.03
403.725	6.16
403.932	6.05
404.138	6.09
404.345	6.1
404.552	6.07
404.758	6.33
404.965	6.27
405.171	6.02
405.378	5.99
405.584	6.03
405.791	5.95
405.997	5.94
406.204	5.99
406.41	6.16
406.617	6.13
406.823	6.13
407.029	5.99
407.236	6.07
407.442	6
407.649	6.18
407.855	6.2
408.061	6.25
408.268	5.96
408.474	5.89
408.68	5.57
408.887	5.58
409.093	5.52
409.299	5.51
409.505	5.33
409.712	5.43
409.918	5.42
410.124	5.3
410.33	5.37
410.537	5.52
410.743	5.52
410.949	5.57
411.155	5.54
411.361	5.69
411.567	5.72
411.773	5.68
411.98	5.71
412.186	5.37
412.392	5.48
412.598	5.35
412.804	5.5
413.01	5.54
413.216	5.63
413.422	5.59
413.628	5.62
413.834	5.64
414.04	5.71
414.246	5.74
414.452	5.74
414.658	5.64
414.864	5.56
415.07	5.49
415.275	5.5
415.481	5.52
415.687	5.62
415.893	5.48
416.099	5.41
416.305	5.35
416.511	5.31
416.716	5.33
416.922	5.28
417.128	5.4
417.334	5.38
417.539	5.3
417.745	5.28
417.951	5.22
418.157	5.19
418.362	5.19
418.568	5.22
418.774	5.07
418.979	5.03
419.185	5.07
419.391	5
419.596	4.93
419.802	4.94
420.008	4.92
420.213	5.59
420.419	5.69
420.624	5.67
420.83	5.61
421.035	5.66
421.241	5.8
421.446	5.66
421.652	5.7
421.857	5.73
422.063	5.7
422.268	5.73
422.474	5.06
422.679	5.03
422.885	5
423.09	5.08
423.295	5.09
423.501	5.03
423.706	5.11
423.911	5.12
424.117	5.14
424.322	5.25
424.527	5.2
424.733	5.23
424.938	5.2
425.143	5.23
425.349	5.16
425.554	5.12
425.759	5.07
425.964	5.07
426.169	4.97
426.375	4.94
426.58	4.89
426.785	4.96
426.99	4.89
427.195	4.77
427.4	4.84
427.605	4.81
427.811	4.9
428.016	4.81
428.221	4.88
428.426	4.94
428.631	4.77
428.836	4.85
429.041	4.8
429.246	4.84
429.451	4.94
429.656	4.94
429.861	4.93
430.066	4.83
430.271	5
430.476	4.99
430.681	4.94
430.886	5.07
431.09	5
431.295	4.88
431.5	4.9
431.705	4.83
431.91	4.85
432.115	4.92
432.32	5
432.524	4.98
432.729	4.93
432.934	4.93
433.139	4.91
433.343	4.81
433.548	4.93
433.753	4.9
433.958	5.04
434.162	4.95
434.367	4.96
434.572	4.89
434.776	4.85
434.981	4.89
435.186	4.92
435.39	4.98
435.595	5.03
435.799	5.04
436.004	5.01
436.209	4.89
436.413	4.89
436.618	4.77
436.822	4.84
437.027	4.89
437.231	4.89
437.436	4.93
437.64	4.98
437.845	4.98
438.049	4.89
438.253	4.82
438.458	4.86
438.662	4.92
438.867	4.91
439.071	4.89
439.275	4.81
439.48	4.81
439.684	4.76
439.888	4.68
440.093	4.59
440.297	4.64
440.501	4.68
440.706	4.67
440.91	4.64
441.114	4.77
441.318	4.75
441.523	4.69
441.727	4.68
441.931	4.67
442.135	4.69
442.339	4.77
442.543	4.76
442.748	4.75
442.952	4.72
443.156	4.66
443.36	4.55
443.564	4.66
443.768	4.73
443.972	4.7
444.176	4.72
444.38	4.67
444.584	4.71
444.788	4.63
444.992	4.62
445.196	4.66
445.4	4.7
445.604	4.77
445.808	4.72
446.012	4.66
446.216	4.68
446.42	4.73
446.624	4.73
446.828	4.74
447.032	4.78
447.235	4.84
447.439	4.81
447.643	4.78
447.847	4.73
448.051	4.65
448.254	4.68
448.458	4.69
448.662	4.61
448.866	4.53
449.069	4.45
449.273	4.57
449.477	4.51
449.681	4.56
449.884	4.61
450.088	4.56
450.292	4.46
450.495	4.58
450.699	4.63
450.902	4.71
451.106	4.79
451.31	4.85
451.513	4.69
451.717	4.73
451.92	4.68
452.124	4.75
452.327	4.77
452.531	4.93
452.734	4.77
452.938	4.73
453.141	4.64
453.345	4.59
453.548	4.44
453.752	4.51
453.955	4.55
454.158	4.44
454.362	4.45
454.565	4.45
454.769	4.42
454.972	4.51
455.175	4.55
455.379	4.51
455.582	4.45
455.785	4.57
455.988	4.63
456.192	4.64
456.395	4.64
456.598	4.58
456.801	4.61
457.005	4.63
457.208	4.57
457.411	4.5
457.614	4.47
457.817	4.55
458.021	4.52
458.224	4.5
458.427	4.42
458.63	4.51
458.833	4.46
459.036	4.52
459.239	4.47
459.442	4.55
459.645	4.56
459.848	4.61
460.051	4.57
460.254	4.61
460.457	4.59
460.66	4.65
460.863	4.56
461.066	4.62
461.269	4.57
461.472	4.67
461.675	4.53
461.878	4.57
462.081	4.55
462.284	4.65
462.486	4.63
462.689	4.63
462.892	4.51
463.095	4.58
463.298	4.62
463.5	4.49
463.703	4.47
463.906	4.45
464.109	4.36
464.311	4.49
464.514	4.53
464.717	4.58
464.92	4.62
465.122	4.65
465.325	4.65
465.528	4.63
465.73	4.69
465.933	4.68
466.135	4.72
466.338	4.78
466.541	4.72
466.743	4.65
466.946	4.53
467.148	4.52
467.351	4.59
467.553	4.61
467.756	4.6
467.958	4.61
468.161	4.61
468.363	4.59
468.566	4.6
468.768	4.68
468.971	4.57
469.173	4.61
469.375	4.67
469.578	4.64
469.78	4.63
469.983	4.61
470.185	4.6
470.387	4.58
470.59	4.66
470.792	4.64
470.994	4.58
471.196	4.84
471.399	4.82
471.601	4.75
471.803	4.71
472.005	4.7
472.208	4.65
472.41	4.6
472.612	4.67
472.814	4.73
473.016	4.68
473.218	4.54
473.421	4.4
473.623	4.4
473.825	4.37
474.027	4.36
474.229	4.46
474.431	4.49
474.633	4.66
474.835	4.63
475.037	4.56
475.239	4.64
475.441	4.72
475.643	4.68
475.845	4.71
476.047	4.69
476.249	4.77
476.451	4.73
476.653	4.8
476.855	4.67
477.057	4.6
477.258	4.63
477.46	4.57
477.662	4.55
477.864	4.49
478.066	4.48
478.268	4.5
478.469	4.41
478.671	4.33
478.873	4.3
479.075	4.3
479.276	4.31
479.478	4.4
479.68	4.42
479.882	4.47
480.083	4.56
480.285	4.54
480.487	4.54
480.688	4.58
480.89	4.58
481.091	4.54
481.293	4.57
481.495	4.56
481.696	4.46
481.898	4.44
482.099	4.47
482.301	4.45
482.502	4.46
482.704	4.47
482.905	4.48
483.107	4.48
483.308	4.5
483.51	4.5
483.711	4.5
483.913	4.55
484.114	4.57
484.315	4.55
484.517	4.55
484.718	4.55
484.92	4.54
485.121	4.52
485.322	4.52
485.524	4.49
485.725	4.48
485.926	4.49
486.127	4.47
486.329	4.48
486.53	4.47
486.731	4.45
486.932	4.45
487.134	4.48
487.335	4.49
487.536	4.53
487.737	4.54
487.938	4.54
488.139	4.54
488.341	4.54
488.542	4.55
488.743	4.54
488.944	4.56
489.145	4.57
489.346	4.53
489.547	4.52
489.748	4.49
489.949	4.5
490.15	4.51
490.351	4.51
490.552	4.52
490.753	4.52
490.954	4.54
491.155	4.54
491.356	4.5
491.557	4.56
491.758	4.58
491.959	4.62
492.159	4.65
492.36	4.64
492.561	4.69
492.762	4.76
492.963	4.77
493.164	4.76
493.364	4.82
493.565	4.88
493.766	4.82
493.967	4.79
494.167	4.74
494.368	4.74
494.569	4.74
494.769	4.66
494.97	4.59
495.171	4.57
495.371	4.6
495.572	4.57
495.773	4.65
495.973	4.64
496.174	4.67
496.375	4.71
496.575	4.65
496.776	4.65
496.976	4.69
497.177	4.75
497.377	4.76
497.578	4.77
497.778	4.74
497.979	4.7
498.179	4.8
498.38	4.79
498.58	4.76
498.78	4.81
498.981	4.86
499.181	4.85
499.382	4.82
499.582	4.8
499.782	4.87
499.983	4.93
500.183	5.02
500.383	5.01
500.584	5.03
500.784	5.1
500.984	5.14
501.184	5.09
501.385	5.19
501.585	5.21
501.785	5.27
501.985	5.2
502.185	5.16
502.386	5.03
502.586	4.92
502.786	4.96
502.986	4.95
503.186	4.95
503.386	5.02
503.586	5
503.786	5.05
503.987	5.07
504.187	5.04
504.387	5.12
504.587	5.2
504.787	5.22
504.987	5.15
505.187	5.14
505.387	5.16
505.587	5.17
505.786	5.15
505.986	5.02
506.186	5.1
506.386	5.2
506.586	5.23
506.786	5.21
506.986	5.34
507.186	5.39
507.386	5.41
507.585	5.39
507.785	5.4
507.985	5.41
508.185	5.52
508.384	5.51
508.584	5.53
508.784	5.46
508.984	5.43
509.183	5.41
509.383	5.4
509.583	5.41
509.782	5.46
509.982	5.49
510.182	5.55
510.381	5.51
510.581	5.5
510.781	5.5
510.98	5.56
511.18	5.63
511.379	5.57
511.579	5.56
511.778	5.54
511.978	5.52
512.177	5.45
512.377	5.51
512.576	5.55
512.776	5.55
512.975	5.53
513.175	5.56
513.374	5.65
513.573	5.75
513.773	5.76
513.972	5.76
514.172	5.75
514.371	5.83
514.57	5.79
514.77	5.75
514.969	5.81
515.168	5.8
515.367	5.82
515.567	5.75
515.766	5.73
515.965	5.73
516.164	5.73
516.364	5.78
516.563	5.72
516.762	5.72
516.961	5.79
517.16	5.73
517.359	5.84
517.559	5.86
517.758	5.85
517.957	5.89
518.156	5.97
518.355	6.02
518.554	6.05
518.753	6.11
518.952	6.11
519.151	6.13
519.35	6.21
519.549	6.06
519.748	6.02
519.947	6.05
520.146	6
520.345	6.02
520.544	6.04
520.743	5.94
520.942	5.91
521.141	5.93
521.339	5.93
521.538	5.89
521.737	6.01
521.936	6.04
522.135	6.07
522.333	6.09
522.532	6.05
522.731	6.07
522.93	6.16
523.129	6.2
523.327	6.22
523.526	6.23
523.725	6.2
523.923	6.17
524.122	6.2
524.321	6.2
524.519	6.22
524.718	6.25
524.917	6.19
525.115	6.18
525.314	6.19
525.512	6.21
525.711	6.2
525.909	6.25
526.108	6.27
526.306	6.26
526.505	6.28
526.703	6.32
526.902	6.28
527.1	6.33
527.299	6.37
527.497	6.37
527.696	6.34
527.894	6.35
528.092	6.38
528.291	6.4
528.489	6.44
528.688	6.44
528.886	6.45
529.084	6.51
529.283	6.51
529.481	6.47
529.679	6.52
529.877	6.57
530.076	6.6
530.274	6.61
530.472	6.6
530.67	6.56
530.869	6.54
531.067	6.55
531.265	6.55
531.463	6.6
531.661	6.63
531.859	6.64
532.057	6.68
532.255	6.68
532.454	6.66
532.652	6.71
532.85	6.71
533.048	6.78
533.246	6.82
533.444	6.86
533.642	6.92
533.84	6.97
534.038	6.95
534.236	6.94
534.434	6.96
534.632	7.02
534.83	7.06
535.027	7.11
535.225	7.14
535.423	7.16
535.621	7.25
535.819	7.25
536.017	7.27
536.215	7.33
536.412	7.37
536.61	7.44
536.808	7.46
537.006	7.48
537.203	7.48
537.401	7.48
537.599	7.47
537.797	7.4
537.994	7.44
538.192	7.43
538.39	7.47
538.587	7.48
538.785	7.45
538.983	7.48
539.18	7.5
539.378	7.51
539.575	7.47
539.773	7.47
539.97	7.48
540.168	7.51
540.366	7.54
540.563	7.57
540.761	7.57
540.958	7.59
541.155	7.57
541.353	7.54
541.55	7.59
541.748	7.61
541.945	7.63
542.143	7.65
542.34	7.64
542.537	7.65
542.735	7.64
542.932	7.67
543.129	7.72
543.327	7.79
543.524	7.91
543.721	7.89
543.919	8.04
544.116	8.12
544.313	8.15
544.51	8.13
544.708	8.13
544.905	8.22
545.102	8.32
545.299	8.38
545.496	8.34
545.693	8.31
545.891	8.36
546.088	8.35
546.285	8.37
546.482	8.42
546.679	8.46
546.876	8.58
547.073	8.53
547.27	8.5
547.467	8.52
547.664	8.6
547.861	8.61
548.058	8.62
548.255	8.61
548.452	8.64
548.649	8.58
548.846	8.6
549.043	8.56
549.24	8.62
549.437	8.66
549.633	8.66
549.83	8.71
550.027	8.74
550.224	8.83
550.421	8.88
550.618	9.04
550.814	9.15
551.011	9.21
551.208	9.32
551.405	9.38
551.601	9.34
551.798	9.38
551.995	9.52
552.191	9.52
552.388	9.57
552.585	9.69
552.781	9.59
552.978	9.66
553.175	9.79
553.371	9.73
553.568	9.82
553.764	9.97
553.961	9.99
554.157	9.89
554.354	9.97
554.55	10.02
554.747	9.93
554.943	10.02
555.14	9.94
555.336	9.82
555.533	9.99
555.729	9.96
555.926	9.99
556.122	10.08
556.318	10.13
556.515	10.24
556.711	10.17
556.907	10.19
557.104	10.16
557.3	10.3
557.496	10.41
557.693	10.42
557.889	10.52
558.085	10.49
558.281	10.52
558.478	10.61
558.674	10.7
558.87	10.85
559.066	10.97
559.262	11.03
559.459	11.07
559.655	11.03
559.851	11.02
560.047	10.99
560.243	11.03
560.439	11.11
560.635	11.26
560.831	11.33
561.027	11.34
561.223	11.39
561.419	11.5
561.615	11.52
561.811	11.62
562.007	11.73
562.203	11.87
562.399	12.04
562.595	12.01
562.791	12.06
562.987	12.06
563.183	12.06
563.379	12.03
563.575	12.03
563.771	12.15
563.966	12.17
564.162	12.15
564.358	12.15
564.554	12.09
564.75	12.11
564.945	12.07
565.141	12.08
565.337	12.15
565.533	12.28
565.728	12.38
565.924	12.37
566.12	12.49
566.315	12.43
566.511	12.51
566.707	12.67
566.902	12.76
567.098	12.77
567.293	12.8
567.489	12.85
567.684	12.9
567.88	12.87
568.076	12.94
568.271	13.07
568.467	13.3
568.662	13.28
568.858	13.21
569.053	13.36
569.248	13.43
569.444	13.57
569.639	13.6
569.835	13.62
570.03	13.62
570.225	13.7
570.421	13.6
570.616	13.64
570.812	13.64
571.007	13.69
571.202	13.7
571.397	13.74
571.593	13.69
571.788	13.7
571.983	13.81
572.178	13.97
572.374	13.93
572.569	14.07
572.764	14.06
572.959	14.19
573.154	14.26
573.35	14.23
573.545	14.15
573.74	14.23
573.935	14.35
574.13	14.38
574.325	14.4
574.52	14.48
574.715	14.49
574.91	14.62
575.105	14.61
575.3	14.8
575.495	14.9
575.69	15.12
575.885	15.25
576.08	15.31
576.275	15.29
576.47	15.32
576.665	15.23
576.86	15.21
577.055	15.25
577.25	15.47
577.444	15.3
577.639	15.37
577.834	15.32
578.029	15.28
578.224	15.33
578.418	15.38
578.613	15.47
578.808	15.55
579.003	15.6
579.197	15.5
579.392	15.35
579.587	15.48
579.781	15.51
579.976	15.48
580.171	15.59
580.365	15.53
580.56	15.5
580.755	15.41
580.949	15.59
581.144	15.67
581.338	15.8
581.533	15.93
581.727	15.88
581.922	15.88
582.116	16.02
582.311	15.98
582.505	16.03
582.7	16.21
582.894	16.42
583.089	16.24
583.283	16.19
583.478	16.05
583.672	16.09
583.866	16.06
584.061	16.1
584.255	16.04
584.449	16.11
584.644	16.25
584.838	16.19
585.032	15.96
585.226	16
585.421	16.02
585.615	16.21
585.809	16.22
586.003	16.3
586.198	16.36
586.392	16.47
586.586	16.53
586.78	16.53
586.974	16.57
587.168	16.73
587.363	16.89
587.557	17.01
587.751	16.96
587.945	16.93
588.139	16.94
588.333	16.91
588.527	16.86
588.721	16.82
588.915	16.77
589.109	16.85
589.303	16.88
589.497	17.03
589.691	17.04
589.885	17.03
590.079	16.94
590.273	17.05
590.466	17.08
590.66	17.11
590.854	17.12
591.048	17.25
591.242	17.16
591.436	17.1
591.629	17.04
591.823	16.99
592.017	16.97
592.211	17.13
592.404	17.23
592.598	17.3
592.792	17.38
592.986	17.51
593.179	17.4
593.373	17.51
593.567	17.64
593.76	17.59
593.954	17.57
594.147	17.64
594.341	17.66
594.535	17.64
594.728	17.62
594.922	17.59
595.115	17.6
595.309	17.73
595.502	17.65
595.696	17.48
595.889	17.58
596.083	17.64
596.276	17.68
596.47	17.71
596.663	17.72
596.856	17.72
597.05	17.89
597.243	17.92
597.437	17.87
597.63	18
597.823	18.23
598.017	18.15
598.21	18.24
598.403	18.41
598.596	18.35
598.79	18.19
598.983	18.17
599.176	18.06
599.369	17.91
599.563	17.88
599.756	17.86
599.949	17.69
600.142	17.67
600.335	17.73
600.528	17.61
600.722	17.81
600.915	17.9
601.108	18.01
601.301	17.95
601.494	18.13
601.687	18.08
601.88	18.1
602.073	18.28
602.266	18.31
602.459	18.21
602.652	18.18
602.845	18.06
603.038	18.08
603.231	18.05
603.424	18.02
603.617	17.92
603.809	17.92
604.002	17.93
604.195	17.84
604.388	17.87
604.581	17.93
604.774	17.87
604.966	17.99
605.159	18
605.352	18.05
605.545	18.22
605.737	18.28
605.93	18.36
606.123	18.26
606.316	18.27
606.508	18.34
606.701	18.34
606.894	18.39
607.086	18.38
607.279	18.44
607.471	18.41
607.664	18.25
607.857	18.24
608.049	18.27
608.242	18.32
608.434	18.37
608.627	18.39
608.819	18.31
609.012	18.34
609.204	18.33
609.397	18.32
609.589	18.27
609.782	18.36
609.974	18.36
610.166	18.35
610.359	18.41
610.551	18.37
610.743	18.44
610.936	18.45
611.128	18.58
611.32	18.58
611.513	18.6
611.705	18.72
611.897	18.7
612.09	18.77
612.282	18.79
612.474	18.96
612.666	18.98
612.858	18.97
613.051	19.17
613.243	19.05
613.435	19
613.627	19
613.819	18.92
614.011	18.99
614.203	18.93
614.395	18.92
614.588	18.73
614.78	18.73
614.972	18.62
615.164	18.43
615.356	18.52
615.548	18.46
615.74	18.52
615.932	18.67
616.124	18.56
616.315	18.57
616.507	18.46
616.699	18.52
616.891	18.42
617.083	18.22
617.275	18.47
617.467	18.46
617.659	18.49
617.85	18.32
618.042	18.17
618.234	18.34
618.426	18.32
618.618	18.58
618.809	18.42
619.001	18.48
619.193	18.65
619.384	18.36
619.576	18.35
619.768	18.43
619.959	18.34
620.151	18.46
620.343	18.29
620.534	18.22
620.726	18.13
620.917	18.35
621.109	18.35
621.301	18.35
621.492	18.41
621.684	18.37
621.875	18.34
622.067	18.5
622.258	18.22
622.45	18.37
622.641	18.48
622.832	18.4
623.024	18.34
623.215	18.15
623.407	18.24
623.598	18.31
623.789	18.37
623.981	18.43
624.172	18.57
624.363	18.73
624.555	18.72
624.746	18.9
624.937	18.96
625.129	18.97
625.32	19.23
625.511	19.16
625.702	19.25
625.893	19.14
626.085	19.22
626.276	19.15
626.467	19.24
626.658	19.18
626.849	18.81
627.04	18.82
627.231	18.86
627.422	18.72
627.614	18.82
627.805	18.78
627.996	19.03
628.187	18.86
628.378	18.77
628.569	18.63
628.76	18.76
628.951	18.95
629.142	19.02
629.332	19
629.523	19.17
629.714	19.19
629.905	19.35
630.096	19.14
630.287	19.02
630.478	19.29
630.669	19.41
630.859	19.29
631.05	19.33
631.241	19.31
631.432	19.35
631.623	19.27
631.813	19.19
632.004	19.15
632.195	19.32
632.385	19.4
632.576	19.28
632.767	19.3
632.957	19.45
633.148	19.6
633.339	19.61
633.529	19.6
633.72	19.5
633.91	19.48
634.101	19.35
634.292	19.19
634.482	19.38
634.673	19.41
634.863	19.47
635.054	19.44
635.244	19.41
635.435	19.25
635.625	19.23
635.815	19.33
636.006	19.5
636.196	19.49
636.387	19.66
636.577	19.56
636.767	19.57
636.958	19.69
637.148	19.48
637.338	19.35
637.529	19.43
637.719	19.34
637.909	19.42
638.099	19.39
638.29	19.64
638.48	19.44
638.67	19.42
638.86	19.49
639.05	19.1
639.241	19.26
639.431	19.4
639.621	19.47
639.811	19.64
640.001	19.67
640.191	19.66
640.381	19.44
640.571	19.57
640.761	19.61
640.951	19.57
641.141	19.81
641.331	19.59
641.521	19.62
641.711	19.82
641.901	19.64
642.091	19.55
642.281	19.57
642.471	19.7
642.661	19.54
642.851	19.46
643.041	19.42
643.231	19.33
643.42	19.36
643.61	19.28
643.8	19.22
643.99	19.34
644.18	19.3
644.369	19.06
644.559	18.99
644.749	19.02
644.939	18.93
645.128	18.85
645.318	18.71
645.508	18.79
645.697	18.76
645.887	18.52
646.076	18.48
646.266	18.4
646.456	18.69
646.645	18.67
646.835	18.83
647.024	19
647.214	18.89
647.403	18.84
647.593	18.98
647.782	19.12
647.972	19.18
648.161	19.06
648.351	19.2
648.54	18.98
648.73	19.05
648.919	19.05
649.108	19.2
649.298	19.36
649.487	19.52
649.677	19.54
649.866	19.29
650.055	19.21
650.244	19.24
650.434	19.13
650.623	19.39
650.812	19.32
651.002	19.18
651.191	19.13
651.38	18.92
651.569	19.01
651.758	18.92
651.947	19.21
652.137	19.23
652.326	19.06
652.515	19.17
652.704	18.9
652.893	18.84
653.082	19.2
653.271	19.26
653.46	19.46
653.649	19.42
653.838	19.65
654.027	19.41
654.216	19.44
654.405	19.73
654.594	19.91
654.783	19.99
654.972	20.09
655.161	19.76
655.35	19.42
655.539	19.59
655.728	19.6
655.916	19.54
656.105	19.5
656.294	19.61
656.483	19.54
656.672	19.47
656.86	19.58
657.049	19.63
657.238	19.69
657.427	19.71
657.615	19.55
657.804	19.72
657.993	19.55
658.181	19.72
658.37	19.7
658.559	19.8
658.747	19.82
658.936	19.88
659.125	19.96
659.313	20.12
659.502	20.29
659.69	20.42
659.879	20.31
660.067	20.52
660.256	20.46
660.444	20.53
660.633	20.51
660.821	20.47
661.01	20.57
661.198	20.43
661.387	20.3
661.575	20.44
661.763	20.39
661.952	20.4
662.14	20.12
662.328	19.85
662.517	19.75
662.705	19.87
662.893	19.78
663.082	19.73
663.27	19.6
663.458	19.41
663.646	19.33
663.834	19.34
664.023	19.33
664.211	19.66
664.399	20
664.587	19.96
664.775	19.77
664.963	19.96
665.152	19.84
665.34	20
665.528	20.09
665.716	20.1
665.904	19.93
666.092	20.08
666.28	19.86
666.468	19.65
666.656	19.83
666.844	19.95
667.032	19.98
667.22	19.82
667.408	19.95
667.596	20.03
667.784	19.98
667.971	20.22
668.159	20.11
668.347	20.12
668.535	20.29
668.723	20.33
668.911	20.23
669.098	20.03
669.286	20.07
669.474	19.94
669.662	19.83
669.849	19.64
670.037	19.36
670.225	19.33
670.413	19.54
670.6	19.63
670.788	19.63
670.976	19.75
671.163	19.64
671.351	19.9
671.538	19.98
671.726	19.85
671.913	20.01
672.101	20.17
672.289	20.33
672.476	20.01
672.664	20.07
672.851	19.89
673.039	19.86
673.226	19.9
673.413	19.74
673.601	19.79
673.788	19.9
673.976	19.97
674.163	19.88
674.35	19.68
674.538	19.86
674.725	19.48
674.912	19.67
675.1	19.82
675.287	20.07
675.474	20
675.662	19.96
675.849	20.05
676.036	20.13
676.223	20.2
676.411	20.39
676.598	20.17
676.785	20.28
676.972	19.97
677.159	20.01
677.346	19.94
677.533	19.91
677.721	20
677.908	20.1
678.095	20.18
678.282	20.2
678.469	20.24
678.656	20.54
678.843	20.69
679.03	21.03
679.217	20.97
679.404	21.05
679.591	21.09
679.778	20.95
679.964	20.98
680.151	20.74
680.338	20.63
680.525	20.32
680.712	20.22
680.899	20.11
681.086	20.04
681.272	19.8
681.459	19.71
681.646	19.66
681.833	19.69
682.02	19.77
682.206	19.94
682.393	20.09
682.58	20.24
682.766	20.23
682.953	20.14
683.14	20.13
683.326	20.57
683.513	20.7
683.7	20.88
683.886	20.8
684.073	20.55
684.259	20.59
684.446	20.73
684.632	20.89
684.819	20.82
685.005	20.89
685.192	20.79
685.378	20.64
685.565	20.54
685.751	20.6
685.938	20.78
686.124	21.06
686.31	20.86
686.497	20.97
686.683	21.11
686.87	21.38
687.056	21.43
687.242	21.58
687.429	21.44
687.615	21.54
687.801	21.6
687.987	21.71
688.174	21.06
688.36	21.28
688.546	21.12
688.732	21.11
688.918	20.88
689.105	21.1
689.291	20.99
689.477	21.1
689.663	20.86
689.849	20.42
690.035	20.43
690.221	21
690.407	21.28
690.593	21.3
690.779	21.18
690.965	21.01
691.151	21.07
691.337	20.99
691.523	20.87
691.709	21.19
691.895	21.41
692.081	20.99
692.267	20.94
692.453	20.71
692.639	20.85
692.825	20.7
693.011	20.89
693.196	20.86
693.382	20.75
693.568	20.74
693.754	20.34
693.94	20.43
694.125	20.68
694.311	20.5
694.497	20.55
694.682	20.63
694.868	20.69
695.054	20.57
695.239	20.37
695.425	20.32
695.611	20.29
695.796	20.45
695.982	20.56
696.168	20.38
696.353	20.42
696.539	20.32
696.724	20.12
696.91	20.16
697.095	20.39
697.281	20.55
697.466	20.82
697.652	20.9
697.837	20.95
698.023	20.79
698.208	20.76
698.393	20.55
698.579	20.5
698.764	20.45
698.949	20.42
699.135	20.31
699.32	20.25
699.505	20.25
699.691	20.19
699.876	20.35
700.061	20.32
700.246	20.47
700.432	20.92
700.617	20.95
700.802	20.95
700.987	21.15
701.172	21
701.358	20.93
701.543	20.69
701.728	21
701.913	20.8
702.098	21.11
702.283	21.02
702.468	21.06
702.653	21.14
702.838	20.86
703.023	20.83
703.208	21.12
703.393	21.17
703.578	21.49
703.763	21.19
703.948	21
704.133	20.91
704.318	20.82
704.503	21.04
704.688	20.82
704.873	21.3
705.057	21.11
705.242	21.27
705.427	21.35
705.612	21.28
705.797	21.14
705.981	21.28
706.166	21.21
706.351	21.65
706.536	21.52
706.72	21.77
706.905	21.73
707.09	21.67
707.274	21.43
707.459	21.22
707.644	21.03
707.828	21.46
708.013	21.61
708.197	21.59
708.382	21.59
708.567	21.43
708.751	21.28
708.936	21.08
709.12	21.31
709.305	21.26
709.489	21.29
709.673	21.31
709.858	20.83
710.042	20.54
710.227	20.48
710.411	20.25
710.596	20.49
710.78	20.78
710.964	21.26
711.149	21.18
711.333	21.08
711.517	21.36
711.702	21.54
711.886	21.75
712.07	21.94
712.254	21.99
712.438	22.14
712.623	22.09
712.807	22.01
712.991	21.7
713.175	21.45
713.359	21.58
713.544	21.26
713.728	21.25
713.912	21.02
714.096	20.99
714.28	21.07
714.464	21
714.648	20.7
714.832	20.85
715.016	20.4
715.2	20.68
715.384	20.71
715.568	20.91
715.752	20.81
715.936	20.97
716.12	21.27
716.304	21.22
716.488	21.68
716.671	21.68
716.855	21.46
717.039	22
717.223	21.74
717.407	21.61
717.59	21.55
717.774	21.62
717.958	21.91
718.142	21.56
718.325	21.86
718.509	21.3
718.693	21.41
718.877	21.29
719.06	21.21
719.244	21.41
719.428	21.64
719.611	21.21
719.795	21.12
719.978	21.14
720.162	21.29
720.345	21.16
720.529	20.98
720.713	21.01
720.896	21.4
721.08	21.46
721.263	21.58
721.446	21.92
721.63	22.61
721.813	22.58
721.997	22.63
722.18	22.37
722.364	21.71
722.547	21.75
722.73	22.09
722.914	21.51
723.097	21.67
723.28	21.6
723.464	21.12
723.647	20.83
723.83	20.59
724.013	20.14
724.197	20.28
724.38	20.46
724.563	20.41
724.746	20
724.929	20.21
725.112	20.18
725.296	20.11
725.479	20.43
725.662	20.57
725.845	20.75
726.028	20.76
726.211	21.02
726.394	21.34
726.577	21.11
726.76	21.3
726.943	21.18
727.126	20.93
727.309	20.64
727.492	20.44
727.675	20.25
727.858	20.45
728.041	20.59
728.224	20.43
728.407	20.65
728.589	20.74
728.772	20.31
728.955	20.19
729.138	20.55
729.321	20.38
729.503	20.25
729.686	20.37
729.869	20.26
730.052	20.31
730.234	20.44
730.417	20.23
730.6	20.28
730.782	20.69
730.965	20.94
731.148	20.52
731.33	20.66
731.513	20.83
731.695	20.59
731.878	20.93
732.061	21.19
732.243	21.02
732.426	20.82
732.608	21.1
732.791	20.88
732.973	20.85
733.156	20.83
733.338	21.21
733.52	21.6
733.703	21.64
733.885	21.61
734.068	21.47
734.25	21.53
734.432	21.48
734.615	21.72
734.797	21.79
734.979	21.7
735.162	21.89
735.344	21.8
735.526	21.57
735.708	21.55
735.891	21.56
736.073	21.25
736.255	21.42
736.437	21.64
736.619	21.44
736.802	21.39
736.984	21.89
737.166	22.02
737.348	22.66
737.53	22.58
737.712	22.98
737.894	22.82
738.076	22.79
738.258	22.35
738.44	22.52
738.622	22.78
738.804	23.41
738.986	22.94
739.168	22.15
739.35	21.41
739.532	21.16
739.714	20.63
739.896	20.6
740.078	21.02
740.259	21.61
740.441	21.74
740.623	21.28
740.805	20.56
740.987	20.64
741.168	21.44
741.35	22.35
741.532	22.53
741.714	22.88
741.895	22.05
742.077	22.25
742.259	21.79
742.44	21.61
742.622	22.02
742.804	22.54
742.985	22.63
743.167	22.83
743.348	22.09
743.53	21.99
743.711	22.05
743.893	23.03
744.075	22.27
744.256	22.69
744.438	22.94
744.619	22.4
744.8	21.94
744.982	22.36
745.163	22.23
745.345	22.08
745.526	22.39
745.707	22.32
745.889	22.48
746.07	22.79
746.252	22.29
746.433	22.31
746.614	21.93
746.795	22.47
746.977	22.18
747.158	22.24
747.339	22.22
747.52	21.8
747.702	21.54
747.883	21.28
748.064	21.59
748.245	22.27
748.426	21.91
748.607	22.23
748.788	21.74
748.97	20.97
749.151	20.3
749.332	20.57
749.513	20.68
749.694	20.76
749.875	20.69
750.056	20.89
750.237	20.06
750.418	20.13
750.599	20.5
750.78	20.07
750.96	20.92
751.141	20.85
751.322	21.05
751.503	21.03
751.684	20.88
751.865	20.26
752.046	19.62
752.226	19.87
752.407	19.76
752.588	19.89
752.769	20.72
752.949	20.33
753.13	21.29
753.311	20.87
753.492	20.56
753.672	20.29
753.853	21.14
754.034	21.55
754.214	21.77
754.395	21.11
754.575	20.67
754.756	20.29
754.937	19.98
755.117	19.23
755.298	19.41
755.478	19.5
755.659	19.79
755.839	19.15
756.02	18.71
756.2	18.68
756.381	19.55
756.561	19.74
756.741	19.82
756.922	20.24
757.102	20.24
757.283	19.84
757.463	19.93
757.643	20.24
757.823	20.34
758.004	20.9
758.184	20.76
758.364	20.87
758.545	20.89
758.725	21.02
758.905	21.16
759.085	21.88
759.265	22.61
759.446	23.01
759.626	23.56
759.806	23.99
759.986	23.81
760.166	24.08
760.346	24.42
760.526	24.59
760.706	24.93
760.886	24.57
761.066	24.14
761.246	23.63
761.426	23.24
761.606	22.99
761.786	22.42
761.966	22.25
762.146	21.8
762.326	21.64
762.506	21.67
762.686	21.25
762.866	21.43
763.046	21.28
763.225	21.25
763.405	21.05
763.585	20.58
763.765	20.91
763.945	20.61
764.124	20.98
764.304	21.4
764.484	21.68
764.664	21.47
764.843	21.83
765.023	20.8
765.203	20.87
765.382	21.47
765.562	21.85
765.741	21.63
765.921	21.52
766.101	21.1
766.28	19.99
766.46	19.47
766.639	19.69
766.819	19.1
766.998	20.49
767.178	20.45
767.357	20.36
767.537	20.24
767.716	20.32
767.896	21.27
768.075	21.3
768.254	21.29
768.434	21.2
768.613	21.24
768.792	21.46
768.972	21.39
769.151	21.17
769.33	21.23
769.51	21.22
769.689	20.98
769.868	21.34
770.047	21.4
770.226	21.64
770.406	21.49
770.585	21.81
770.764	21.38
770.943	21.84
771.122	22.3
771.301	21.43
771.48	21.47
771.66	21.64
771.839	20.44
772.018	20.84
772.197	20.83
772.376	21.35
772.555	21.05
772.734	21.36
772.913	20.79
773.092	19.93
773.271	20.64
773.449	20.52
773.628	20.91
773.807	21.23
773.986	21.12
774.165	20.7
774.344	20.11
774.523	19.39
774.701	19.54
774.88	19.39
775.059	19.04
775.238	18.84
775.417	19.08
775.595	18.48
775.774	18.61
775.953	18.65
776.131	19.95
776.31	20.79
776.489	21.59
776.667	21.43
776.846	21.85
777.025	22.47
777.203	23.25
777.382	22.89
777.56	22.97
777.739	22.45
777.917	22.34
778.096	21.94
778.274	20.87
778.453	20.99
778.631	20.08
778.81	19.94
778.988	20
779.166	19.23
779.345	19.06
779.523	18.6
779.702	19.66
779.88	19.89
780.058	19.21
780.237	19.07
780.415	19.25
780.593	20.08
780.771	20.91
780.95	21.72
781.128	22.54
781.306	22.65
781.484	23.97
781.662	23.07
781.841	22.45
782.019	21.94
782.197	22.49
782.375	22.22
782.553	21.9
782.731	21.97
782.909	21.38
783.087	19.62
783.265	20.74
783.443	19.35
783.621	19.65
783.799	20.12
783.977	20.98
784.155	21.76
784.333	21.97
784.511	22.22
784.689	21.89
784.867	22.25
785.045	24.14
785.223	23.05
785.4	23.79
785.578	23.89
785.756	22.97
785.934	22.72
786.112	23.12
786.289	22.55
786.467	22.8
786.645	22.76
786.823	22.22
787	21.7
787.178	21.62
787.356	22.15
787.533	23.42
787.711	23.99
787.889	23.77
788.066	21.83
788.244	22.52
788.421	22.47
788.599	22.57
788.776	23.13
788.954	23.22
789.131	23.19
789.309	22.96
789.486	21.12
789.664	21
789.841	20.59
790.019	21.81
790.196	21.25
790.373	21.07
790.551	21.14
790.728	20.73
790.906	19.95
791.083	20.19
791.26	20.22
791.437	21.42
791.615	22
791.792	23.93
791.969	23.68
792.146	24.36
792.324	24.07
792.501	22.85
792.678	22.86
792.855	23.14
793.032	24.2
793.209	23.76
793.387	24
793.564	22.93
793.741	22.63
793.918	23.76
794.095	24.17
794.272	24.15
794.449	25.13
794.626	24.32
794.803	23.77
794.98	23.2
795.157	22.69
795.334	22.2
795.511	22.52
795.688	22.18
795.864	22.3
796.041	21.1
796.218	21.59
796.395	21.82
796.572	22.56
796.749	23.01
796.925	22.74
797.102	24.09
797.279	24.33
797.456	25.22
797.632	24.74
797.809	23.94
797.986	25.16
798.162	25.04
798.339	25.05
798.516	24.96
798.692	25.87
798.869	26
799.046	24.7
799.222	25.17
799.399	24.48
799.575	24.68
799.752	24.17
799.928	23.09
800.105	23.17
800.281	22.58
800.458	22.53
800.634	21.7
800.811	22.16
800.987	22.46
801.163	21.33
801.34	22.29
801.516	22.71
801.692	23.92
801.869	23.18
802.045	24.86
802.221	25.3
802.398	25.45
802.574	24.84
802.75	24.91
802.926	24.58
803.103	24.49
803.279	23.91
803.455	23.76
803.631	23.47
803.807	23.33
803.983	21.22
804.16	20.48
804.336	20.81
804.512	21.74
804.688	21.21
804.864	21.3
805.04	21.12
805.216	20.67
805.392	20.7
805.568	19.03
805.744	19.73
805.92	19.99
806.096	20.38
806.272	20.55
806.448	20.71
806.623	20.41
806.799	19.93
806.975	19.67
807.151	19.62
807.327	18.66
807.503	20.68
807.678	21.72
807.854	22.33
808.03	21.84
808.206	21.6
808.381	21.59
808.557	20.98
808.733	23.48
808.908	23.59
809.084	23.81
809.26	24.88
809.435	24.46
809.611	24.13
809.787	22.98
809.962	24.49
810.138	24.59
810.313	24.94
810.489	25.11
810.664	22.96
810.84	22.81
811.015	24.18
811.191	22.93
811.366	23.09
811.542	23.21
811.717	24.29
811.892	23.66
812.068	22.2
812.243	20.47
812.419	21.44
812.594	21.69
812.769	23.19
812.944	22.09
813.12	23.27
813.295	24.39
813.47	23.7
813.645	23.29
813.821	22.48
813.996	22.84
814.171	22.44
814.346	23.05
814.521	24
814.697	22.67
814.872	23.4
815.047	21.87
815.222	20.19
815.397	19.92
815.572	21.43
815.747	22.18
815.922	21.09
816.097	21.63
816.272	20.65
816.447	21.11
816.622	22.66
816.797	21.38
816.972	21.38
817.147	23.08
817.322	23.08
817.496	22.45
817.671	22.41
817.846	25.09
818.021	25.55
818.196	25.88
818.371	25.37
818.545	24.77
818.72	25.13
818.895	26.04
819.069	24.46
819.244	24.67
819.419	23.89
819.594	23.65
819.768	23.34
819.943	23.34
820.117	22.97
820.292	22.86
820.467	22.93
820.641	22.9
820.816	23.01
820.99	22.93
821.165	22.61
821.339	22.54
821.514	22.34
821.688	22.45
821.863	22.28
822.037	22.06
822.212	22.07
822.386	22.01
822.56	21.8
822.735	21.35
822.909	21.35
823.084	21.68
823.258	21.75
823.432	22.16
823.606	21.66
823.781	21.87
823.955	22.34
824.129	22.22
824.303	22.12
824.478	22.84
824.652	23.55
824.826	23.56
825	23.32
825.174	23.44
825.348	22.8
825.523	23.21
825.697	23.34
825.871	22.9
826.045	22.73
826.219	22.87
826.393	22.4
826.567	22.1
826.741	22.35
826.915	22.38
827.089	22.39
827.263	22.42
827.437	22.51
827.611	21.82
827.784	22.12
827.958	22.39
828.132	22.22
828.306	22.19
828.48	22.18
828.654	22.41
828.827	22.36
829.001	22.68
829.175	22.7
829.349	22.27
829.522	22.27
829.696	21.16
829.87	21.59
830.044	22.27
830.217	21.9
830.391	22.78
830.565	22.65
830.738	21.78
830.912	20.94
831.085	20.57
831.259	21.69
831.432	22.43
831.606	24.75
831.779	23.86
831.953	23.07
832.126	24.3
832.3	23.39
832.473	22.11
832.647	22.51
832.82	22.79
832.994	23.58
833.167	23.49
833.34	24.01
833.514	23.36
833.687	23.07
833.86	22.93
834.034	22.19
834.207	22.51
834.38	22.96
834.553	23.33
834.727	23.26
834.9	22.93
835.073	22.55
835.246	22.09
835.419	22.7
835.593	22.78
835.766	23.1
835.939	23.88
836.112	23.59
836.285	24.41
836.458	24.82
836.631	24.94
836.804	25.14
836.977	25.95
837.15	26.64
837.323	25.81
837.496	25.69
837.669	26.17
837.842	25.22
838.015	24.92
838.188	23.35
838.361	22.55
838.533	22.52
838.706	24.59
838.879	24.78
839.052	24.5
839.225	24.89
839.398	26.89
839.57	26.65
839.743	27.48
839.916	27.4
840.088	26.29
840.261	26.9
840.434	26.6
840.607	25.33
840.779	24.51
840.952	22.74
841.124	22.62
841.297	21.05
841.47	21.56
841.642	20.63
841.815	21.56
841.987	23.09
842.16	22.51
842.332	23.74
842.505	24.87
842.677	25.25
842.85	27.14
843.022	26.94
843.194	28.92
843.367	27.86
843.539	27.52
843.712	27.71
843.884	27.69
844.056	26.08
844.229	24.13
844.401	21.61
844.573	19.92
844.745	17.51
844.918	15.77
845.09	16.09
845.262	15.11
845.434	15.66
845.606	14.31
845.779	14.59
845.951	18.92
846.123	19.7
846.295	21.48
846.467	22.28
846.639	25.06
846.811	28.01
846.983	25.07
847.155	25.24
847.327	28.98
847.499	27.39
847.671	25.78
847.843	23.35
848.015	24.75
848.187	21.37
848.359	23.91
848.531	25.11
848.703	26.06
848.875	26.23
849.047	27.68
849.218	21.02
849.39	22.69
849.562	22.46
849.734	22.98
849.905	18.81
850.077	17.37
850.249	12.25
850.421	14.57
850.592	15.58
850.764	20.81
850.936	19.22
851.107	19.91
851.279	22.15
851.451	24.36
851.622	22.3
851.794	25.09
851.965	28.61
852.137	34.23
852.308	30.54
852.48	28.67
852.651	26.8
852.823	27.93
852.994	33.63
853.166	29.66
853.337	28.65
853.509	33.27
853.68	33.98
853.851	33.55
854.023	26.59
854.194	29.38
854.365	28.25
854.537	26.67
854.708	25.38
854.879	18.47
855.05	24.83
855.222	29.33
855.393	24.11
855.564	24.51
855.735	27.11
855.906	34.07
856.078	28.29
856.249	29.02
856.42	33.7
856.591	36.62
856.762	37.9
856.933	32.85
857.104	27.85
857.275	29.98
857.446	30.22
857.617	28.7
857.788	27.23
857.959	31.43
858.13	33.37
858.301	29.18
858.472	27.78
858.643	30.96
858.814	28.3
858.985	32.19
859.155	33.26
859.326	31.4
859.497	31.94
859.668	30.9
859.839	29.52
860.009	26.72
860.18	25.92
860.351	27.09
860.522	25.04
860.692	28.25
860.863	25.89
861.034	27.76
861.204	29.66
861.375	29.06
861.546	32.36
861.716	30.19
861.887	31.03
862.057	32.92
862.228	29.87
862.398	27.64
862.569	26.34
862.739	27.32
862.91	20.68
863.08	22.04
863.251	20.54
863.421	16.59
863.592	21.94
863.762	23.44
863.932	23.77
864.103	23.23
864.273	30.19
864.443	30.86
864.614	26.68
864.784	27.84
864.954	26.3
865.125	30.23
865.295	29.47
865.465	30.74
865.635	29.52
865.805	30.84
865.976	34.93
866.146	35.25
866.316	35.99
866.486	40.54
866.656	41.37
866.826	41.59
866.996	39.85
867.166	37.71
867.336	31.84
867.506	28.59
867.676	27.59
867.846	22.51
868.016	18.35
868.186	16.38
868.356	12.02
868.526	12.49
868.696	11.62
868.866	5.07
869.036	10.84
869.206	12.08
869.376	19.6
869.545	20.22
869.715	24.92
869.885	29.14
870.055	30.87
870.224	35.18
870.394	34.66
870.564	32.17
870.734	38.96
870.903	36.38
871.073	35.54
871.243	34.87
871.412	29.76
871.582	28.88
871.751	29.52
871.921	31.48
872.091	28.78
872.26	31.04
872.43	34.49
872.599	34.73
872.769	38.4
872.938	41.02
873.108	38.99
873.277	40.48
873.446	38.04
873.616	35.25
873.785	33.11
873.955	32.12
874.124	34.31
874.293	32.67
874.463	28.46
874.632	29.46
874.801	29.89
874.971	28.82
875.14	31.52
875.309	34.1
875.478	34.36
875.647	32.44
875.817	36.13
875.986	35.09
876.155	35.11
876.324	36.28
876.493	32.42
876.662	29.9
876.831	32.23
877	31.38
877.17	29.47
877.339	27.37
877.508	31.95
877.677	30.16
877.846	26.81
878.015	25.83
878.184	25.85
878.352	26.42
878.521	25.85
878.69	24.69
878.859	24.88
879.028	26.64
879.197	23.26
879.366	23.42
879.534	22.65
879.703	24.97
879.872	23.69
880.041	23.36
880.21	25.47
880.378	25.34
880.547	24.16
880.716	23.61
880.884	22.72
881.053	24.78
881.222	24.83
881.39	25.31
881.559	25.69
881.727	26.11
881.896	25.94
882.065	24.8
882.233	24.66
882.402	25.55
882.57	25.42
882.739	26.14
882.907	25.54
883.076	25.05
883.244	25.27
883.412	25
883.581	25.25
883.749	25.5
883.918	26.18
884.086	26.82
884.254	26.86
884.423	26.75
884.591	26.15
884.759	27.08
884.927	27.28
885.096	25.8
885.264	23.91
885.432	24.82
885.6	24.92
885.769	24.2
885.937	24.2
886.105	22.82
886.273	25.3
886.441	24.86
886.609	23.63
886.777	22.87
886.945	25.86
887.113	28.7
887.281	24.72
887.449	25.59
887.617	25.34
887.785	25.77
887.953	27.45
888.121	24.18
888.289	25.17
888.457	25.03
888.625	24.11
888.793	23.06
888.961	21.49
889.129	25.6
889.296	25.6
889.464	26.83
889.632	25.05
889.8	23.32
889.967	25.12
890.135	25.35
