Data from 2938471_Reflection_2.txt Node
Date: Wed Jun 17 13:34:06 EDT 2015
User: robert
Spectrometer: USB4E03002
Autoset integration time: false
Trigger mode: 4
Integration Time (sec): 1.000000E-1
Scans to average: 10
Electric dark correction enabled: true
Nonlinearity correction enabled: false
Boxcar width: 5
Stray light correction enabled: false
XAxis mode: Wavelengths
Stop averaging: false
Number of Pixels in Spectrum: 3648
>>>>>Begin Spectral Data<<<<<
177.575	21.55
177.794	42.53
178.014	11.66
178.233	25.34
178.452	39.82
178.672	37.55
178.891	43.57
179.11	62.27
179.33	55.12
179.549	30.71
179.768	32.58
179.987	36.6
180.207	35.44
180.426	13.33
180.645	39.18
180.864	58.53
181.084	88.04
181.303	230.66
181.522	-57.65
181.741	16.66
181.96	-8.09
182.179	-6.14
182.398	0.22
182.618	-16.11
182.837	-5.88
183.056	16.12
183.275	-30.66
183.494	4.78
183.713	-38.44
183.932	-17.26
184.151	-35.87
184.37	-28.78
184.589	21.07
184.808	63.46
185.027	76.77
185.246	39.73
185.465	2.92
185.684	30.18
185.903	86.01
186.122	175
186.341	581.25
186.56	1129.69
186.779	183.3
186.998	241.4
187.216	52.44
187.435	180.04
187.654	545.35
187.873	-190.12
188.092	127.66
188.311	158.56
188.53	231.88
188.748	157.62
188.967	-342.71
189.186	93.98
189.405	-3190.32
189.623	117.09
189.842	121.23
190.061	114.52
190.28	167.73
190.498	-47.93
190.717	-542.4
190.936	1209.75
191.154	367.53
191.373	257.63
191.592	173.08
191.81	165.83
192.029	206.13
192.248	315.17
192.466	-215.41
192.685	-283.97
192.904	128.41
193.122	175.13
193.341	56.42
193.559	182.84
193.778	171.14
193.996	190.71
194.215	812.31
194.433	139.85
194.652	-61.88
194.87	-9.05
195.089	42.54
195.307	-265.64
195.526	139.52
195.744	208.6
195.963	120.78
196.181	87.29
196.399	103.23
196.618	116.88
196.836	143.93
197.055	271.85
197.273	397.61
197.491	153.67
197.71	71.45
197.928	-9.83
198.146	-26.98
198.365	-33.37
198.583	-2287.2
198.801	181.54
199.019	312.3
199.238	365.67
199.456	319.67
199.674	422.82
199.892	1086.86
200.111	468.24
200.329	-228.89
200.547	-1280.82
200.765	203.74
200.983	38.47
201.202	18.44
201.42	76.06
201.638	119.94
201.856	124.82
202.074	64.1
202.292	95.33
202.51	88.82
202.728	140.13
202.946	67.29
203.165	58.19
203.383	27.56
203.601	18.14
203.819	-19.35
204.037	-63.55
204.255	-341.03
204.473	-4765.94
204.691	-287.52
204.909	-617.16
205.127	-433.95
205.345	-611.37
205.562	-210.16
205.78	-275.9
205.998	615.01
206.216	608.15
206.434	396.19
206.652	21.96
206.87	22.09
207.088	-6.6
207.306	-91.87
207.523	-66.71
207.741	-46.52
207.959	-23.89
208.177	-14.47
208.395	-23.81
208.612	-24.28
208.83	-23.05
209.048	-23.21
209.266	-17.28
209.483	-12.49
209.701	11.96
209.919	36.72
210.136	28
210.354	0.2
210.572	-7.1
210.79	1.87
211.007	5.47
211.225	2.48
211.442	-7.71
211.66	-19.5
211.878	-21.35
212.095	-76.33
212.313	-50.07
212.53	-47.76
212.748	-50.07
212.966	-41.62
213.183	-63.44
213.401	-84.72
213.618	-82.43
213.836	-89.5
214.053	-137.13
214.271	-184
214.488	-95.45
214.705	-123.62
214.923	-200.68
215.14	-170.4
215.358	-137.57
215.575	-100.11
215.793	-235.2
216.01	-27.15
216.227	21.59
216.445	39.71
216.662	24.31
216.879	29.69
217.097	33.18
217.314	42.02
217.531	53.11
217.749	60.7
217.966	52.59
218.183	64.67
218.4	49.43
218.618	34.29
218.835	31.31
219.052	23
219.269	14.58
219.487	-6.62
219.704	-7.67
219.921	-21.78
220.138	-24.15
220.355	-27.61
220.572	-33.09
220.79	-17.16
221.007	-11.81
221.224	-5.78
221.441	-3.77
221.658	-3.55
221.875	6.64
222.092	9.94
222.309	10.34
222.526	4.2
222.743	6.12
222.96	15.05
223.177	11.33
223.394	9.47
223.611	13.77
223.828	24.85
224.045	27.86
224.262	24.94
224.479	24.05
224.696	24.03
224.913	20.04
225.13	14.59
225.347	9.28
225.564	11.37
225.781	11.57
225.997	9.47
226.214	8.27
226.431	6.85
226.648	8.28
226.865	7.62
227.082	8.9
227.298	10.67
227.515	12.23
227.732	12.55
227.949	12.3
228.165	11.15
228.382	12.11
228.599	12.24
228.816	13.63
229.032	12.21
229.249	11.69
229.466	9.58
229.682	8.4
229.899	8.22
230.116	7.45
230.332	5.9
230.549	8.39
230.765	6.64
230.982	4.96
231.199	4.27
231.415	4.78
231.632	7.56
231.848	9.54
232.065	7.5
232.281	8.67
232.498	9.98
232.714	11.55
232.931	10.63
233.147	10.71
233.364	11.77
233.58	8.87
233.797	10.85
234.013	9.78
234.23	9.75
234.446	8.79
234.662	8.21
234.879	7.21
235.095	8.87
235.312	8.56
235.528	6.99
235.744	5.08
235.961	10.35
236.177	7.97
236.393	6.19
236.61	6.95
236.826	9.02
237.042	7.09
237.258	7.83
237.475	6.46
237.691	7.47
237.907	9.38
238.123	11.68
238.339	8.85
238.556	9.34
238.772	10.69
238.988	9.42
239.204	9.2
239.42	10.49
239.636	10.31
239.853	8.74
240.069	8.81
240.285	8.15
240.501	7.38
240.717	8.17
240.933	7.95
241.149	7.45
241.365	7.83
241.581	8.02
241.797	7.78
242.013	7.2
242.229	7.95
242.445	7.58
242.661	7.94
242.877	8.96
243.093	8.54
243.309	8.51
243.525	8.9
243.741	8.96
243.957	9.07
244.173	8.38
244.388	8.61
244.604	8.41
244.82	8.58
245.036	8.12
245.252	7.75
245.468	7.7
245.683	8.48
245.899	8.08
246.115	8.4
246.331	8.15
246.547	8.47
246.762	8.64
246.978	8.98
247.194	8.8
247.409	8.92
247.625	9.02
247.841	9.83
248.057	8.66
248.272	9.56
248.488	8.89
248.703	8.85
248.919	8.47
249.135	7.65
249.35	7.01
249.566	6.88
249.782	6.52
249.997	6.11
250.213	4.79
250.428	4.84
250.644	4.31
250.859	4.28
251.075	4.99
251.29	5.06
251.506	5.73
251.721	6.18
251.937	5.83
252.152	6.43
252.368	6.4
252.583	6.49
252.798	7.63
253.014	8.06
253.229	8.29
253.445	8.5
253.66	9.04
253.875	7.84
254.091	5.98
254.306	6.61
254.521	6.86
254.737	7.43
254.952	7.12
255.167	6.29
255.383	6.3
255.598	6.92
255.813	6.34
256.028	6.27
256.244	6.42
256.459	7.21
256.674	6.91
256.889	5.98
257.104	5.27
257.32	5.72
257.535	5.37
257.75	5.11
257.965	4.72
258.18	4.51
258.395	4.51
258.61	4.95
258.826	4.68
259.041	4.93
259.256	5.16
259.471	5.51
259.686	5.33
259.901	5.51
260.116	5.59
260.331	6.15
260.546	6.4
260.761	6.24
260.976	5.99
261.191	6.15
261.406	6.19
261.621	6.07
261.836	5.69
262.05	5.92
262.265	6.46
262.48	6.46
262.695	5.12
262.91	4.93
263.125	4.88
263.34	5.12
263.555	4.79
263.769	4.85
263.984	4.91
264.199	5.78
264.414	5.17
264.629	5.49
264.843	5.3
265.058	5.37
265.273	5.26
265.488	5.58
265.702	5.22
265.917	5.64
266.132	4.75
266.346	4.97
266.561	4.48
266.776	5.45
266.99	4.95
267.205	4.71
267.42	5.32
267.634	5.7
267.849	5.22
268.063	5
268.278	4.85
268.492	5.13
268.707	5.22
268.922	4.76
269.136	4.06
269.351	3.75
269.565	3.91
269.78	3.22
269.994	3.05
270.209	3.54
270.423	3.83
270.637	4.28
270.852	4.54
271.066	4.37
271.281	4.45
271.495	4.44
271.709	4.84
271.924	4.98
272.138	5.2
272.353	5.37
272.567	4.42
272.781	4.51
272.996	3.86
273.21	3.83
273.424	3.58
273.638	4.18
273.853	4.44
274.067	4.42
274.281	4.43
274.495	5.16
274.71	4.89
274.924	5.66
275.138	5.26
275.352	5.79
275.566	6.04
275.781	6.48
275.995	5.57
276.209	5.74
276.423	5.3
276.637	5.12
276.851	4.43
277.065	3.91
277.279	4.27
277.493	4.52
277.707	4.08
277.921	3.52
278.135	3.89
278.349	4.52
278.563	4.55
278.777	4.54
278.991	4.51
279.205	4.77
279.419	5.23
279.633	4.72
279.847	4.76
280.061	4.91
280.275	5.13
280.489	4.57
280.703	4.69
280.917	4.32
281.131	4.78
281.344	4.35
281.558	4.23
281.772	4.42
281.986	4.65
282.2	4.34
282.414	4.11
282.627	3.94
282.841	4.09
283.055	4.01
283.269	4.17
283.482	4.15
283.696	4.67
283.91	4.76
284.123	4.74
284.337	4.77
284.551	4.77
284.764	4.86
284.978	4.99
285.192	4.86
285.405	4.89
285.619	4.66
285.833	4.46
286.046	4.68
286.26	4.5
286.473	4.62
286.687	4.43
286.9	4.5
287.114	4.68
287.327	4.57
287.541	4.99
287.754	5.03
287.968	5.17
288.181	5.05
288.395	4.89
288.608	5.06
288.822	5.02
289.035	5.41
289.248	5.65
289.462	5.64
289.675	5.61
289.889	5.56
290.102	5.32
290.315	5.29
290.529	5.66
290.742	5.81
290.955	6.19
291.169	5.97
291.382	5.63
291.595	5.49
291.808	5.65
292.022	5.85
292.235	5.8
292.448	5.81
292.661	5.78
292.875	5.57
293.088	5.43
293.301	5.45
293.514	5.73
293.727	5.54
293.94	5.65
294.153	5.68
294.367	6.05
294.58	5.85
294.793	6.22
295.006	6.94
295.219	6.99
295.432	7.04
295.645	6.95
295.858	6.83
296.071	7.06
296.284	7.24
296.497	7.54
296.71	7.22
296.923	7.24
297.136	7.3
297.349	6.98
297.562	7.03
297.775	7.2
297.988	7.13
298.201	7.57
298.414	7.61
298.626	7.14
298.839	6.61
299.052	6.47
299.265	6.32
299.478	6.2
299.691	5.81
299.903	5.69
300.116	5.79
300.329	5.67
300.542	5.34
300.755	5.44
300.967	5.98
301.18	6.49
301.393	6.73
301.605	7.22
301.818	7.11
302.031	7.12
302.243	7.21
302.456	7.14
302.669	7.09
302.881	6.94
303.094	7.15
303.307	7.04
303.519	6.46
303.732	6.3
303.944	6.04
304.157	6.31
304.37	6.62
304.582	6.24
304.795	5.99
305.007	6.01
305.22	6.06
305.432	5.69
305.645	5.21
305.857	5.53
306.069	5.98
306.282	6.16
306.494	5.86
306.707	5.77
306.919	6.34
307.132	6.35
307.344	6.71
307.556	6.79
307.769	6.84
307.981	7.42
308.193	7.3
308.406	7.08
308.618	7.03
308.83	7.12
309.043	7.05
309.255	7.07
309.467	6.96
309.679	6.98
309.892	6.57
310.104	6.64
310.316	6.34
310.528	6.52
310.74	6.62
310.953	6.67
311.165	6.46
311.377	6.9
311.589	6.82
311.801	7.39
312.013	7.26
312.225	7.85
312.437	7.8
312.649	8.09
312.862	8.32
313.074	8
313.286	8.02
313.498	7.71
313.71	7.36
313.922	7.78
314.134	7.46
314.346	7.55
314.558	7.35
314.77	7.58
314.982	7.62
315.193	7.27
315.405	7.21
315.617	7.22
315.829	7.75
316.041	7.61
316.253	7.02
316.465	7.28
316.677	7.17
316.888	8.02
317.1	8.08
317.312	8.05
317.524	7.87
317.736	8.07
317.947	8.55
318.159	8.53
318.371	8.37
318.583	8.42
318.794	7.92
319.006	7.65
319.218	6.4
319.43	6.43
319.641	7
319.853	7.12
320.064	8.06
320.276	7.48
320.488	7.3
320.699	7.35
320.911	7.98
321.123	7.72
321.334	7.92
321.546	8.21
321.757	7.69
321.969	6.75
322.18	6.9
322.392	6.15
322.603	6.53
322.815	6.41
323.026	6.65
323.238	6.17
323.449	6.37
323.661	6.52
323.872	7.06
324.083	7.91
324.295	8.45
324.506	8.38
324.718	8.41
324.929	8.41
325.14	8.89
325.352	9.2
325.563	9.54
325.774	9.72
325.986	9.71
326.197	9.54
326.408	9.16
326.62	8.94
326.831	8.89
327.042	8.79
327.253	8.51
327.464	8.47
327.676	8.04
327.887	7.38
328.098	7.59
328.309	7.62
328.52	7.4
328.732	7.13
328.943	7.44
329.154	7.57
329.365	7.71
329.576	7.91
329.787	7.98
329.998	7.95
330.209	8.15
330.42	7.8
330.631	7.74
330.842	7.91
331.053	8.1
331.264	7.32
331.475	7.48
331.686	7.34
331.897	7.4
332.108	7.32
332.319	7.52
332.53	7.79
332.741	8.18
332.952	7.98
333.163	7.92
333.374	8.16
333.585	8.92
333.795	8.87
334.006	9.13
334.217	8.96
334.428	9.08
334.639	9.11
334.849	9.28
335.06	8.96
335.271	9.21
335.482	9.48
335.692	9.09
335.903	8.69
336.114	8.49
336.325	8.63
336.535	9.02
336.746	8.54
336.957	8.64
337.167	8.55
337.378	8.19
337.589	8.27
337.799	7.78
338.01	8.18
338.22	8.4
338.431	8.15
338.642	8.08
338.852	7.95
339.063	8.03
339.273	7.61
339.484	7.46
339.694	7.9
339.905	7.86
340.115	8.07
340.326	7.57
340.536	7.41
340.746	7.86
340.957	7.71
341.167	7.36
341.378	7.71
341.588	8.02
341.799	8
342.009	7.46
342.219	7.32
342.43	7.51
342.64	7.97
342.85	7.89
343.061	7.51
343.271	7.37
343.481	7.69
343.691	7.94
343.902	7.81
344.112	7.77
344.322	8.1
344.532	7.94
344.743	7.68
344.953	7.33
345.163	7.53
345.373	7.73
345.583	7.65
345.793	7.36
346.004	7.02
346.214	6.95
346.424	6.87
346.634	7.17
346.844	7.28
347.054	7.26
347.264	7.52
347.474	7.64
347.684	7.8
347.894	7.82
348.104	7.77
348.314	7.48
348.524	7.38
348.734	7.93
348.944	7.67
349.154	7.97
349.364	8.12
349.574	8.07
349.784	8.08
349.994	7.85
350.204	8.16
350.413	8.18
350.623	8.43
350.833	8.75
351.043	8.33
351.253	8.67
351.463	8.15
351.672	8.16
351.882	8.16
352.092	7.71
352.302	7.77
352.511	7.65
352.721	7.83
352.931	7.7
353.141	7.6
353.35	7.61
353.56	7.35
353.77	7.57
353.979	7.46
354.189	7.53
354.399	7.74
354.608	7.69
354.818	7.84
355.027	7.83
355.237	7.82
355.447	7.47
355.656	7.22
355.866	7.21
356.075	7.22
356.285	7.19
356.494	7.08
356.704	6.94
356.913	6.87
357.123	6.71
357.332	6.63
357.542	6.46
357.751	6.68
357.96	6.8
358.17	7.15
358.379	7.3
358.589	7.26
358.798	7.14
359.007	7.11
359.217	7.11
359.426	7.2
359.635	7.12
359.845	7.36
360.054	7.47
360.263	7.59
360.472	7.38
360.682	7.4
360.891	7.38
361.1	7.61
361.309	7.78
361.519	7.8
361.728	7.67
361.937	7.74
362.146	7.78
362.355	7.6
362.564	7.91
362.774	7.75
362.983	7.6
363.192	7.47
363.401	7.34
363.61	7.09
363.819	7.24
364.028	7.28
364.237	7.25
364.446	7.01
364.655	7.02
364.864	6.64
365.073	6.6
365.282	6.58
365.491	6.77
365.7	6.67
365.909	6.77
366.118	6.69
366.327	6.47
366.536	6.69
366.745	7.02
366.954	7.16
367.162	7.2
367.371	7.39
367.58	7.29
367.789	7.3
367.998	7.5
368.207	7.55
368.415	7.37
368.624	7.36
368.833	7.14
369.042	6.96
369.25	6.71
369.459	6.73
369.668	6.61
369.877	6.59
370.085	6.73
370.294	6.43
370.503	6.17
370.711	6.29
370.92	6.22
371.129	6.15
371.337	5.94
371.546	5.76
371.754	5.62
371.963	5.53
372.171	5.85
372.38	5.59
372.589	5.66
372.797	5.73
373.006	5.63
373.214	5.88
373.423	5.83
373.631	5.67
373.84	6.02
374.048	6.38
374.256	6.51
374.465	6.28
374.673	6.4
374.882	6.5
375.09	6.8
375.298	6.82
375.507	6.84
375.715	6.86
375.923	7.05
376.132	6.9
376.34	6.82
376.548	7.02
376.757	7.02
376.965	6.72
377.173	6.48
377.381	6.32
377.59	6.27
377.798	6.4
378.006	6.3
378.214	6.52
378.423	6.81
378.631	6.4
378.839	6.24
379.047	6.13
379.255	6.45
379.463	6.59
379.671	6.52
379.879	6.46
380.088	6.31
380.296	6.56
380.504	6.27
380.712	6.24
380.92	6.39
381.128	6.11
381.336	6.22
381.544	6.15
381.752	6.01
381.96	6.01
382.168	6.08
382.376	6.08
382.584	5.92
382.791	6.12
382.999	5.86
383.207	5.85
383.415	5.97
383.623	6.03
383.831	5.92
384.039	6.06
384.247	6.06
384.454	6.02
384.662	6.05
384.87	6.03
385.078	5.73
385.285	5.71
385.493	5.71
385.701	5.85
385.909	5.69
386.116	5.86
386.324	5.9
386.532	5.79
386.739	5.85
386.947	5.74
387.155	5.67
387.362	5.8
387.57	5.97
387.778	5.88
387.985	5.83
388.193	6.08
388.4	5.86
388.608	5.79
388.816	5.9
389.023	6.02
389.231	5.9
389.438	6
389.646	6.05
389.853	6.17
390.061	6.2
390.268	6.15
390.475	6.11
390.683	6.15
390.89	6.25
391.098	6.27
391.305	6.38
391.512	6.53
391.72	6.53
391.927	6.36
392.135	6.31
392.342	6.28
392.549	6.35
392.756	6.12
392.964	6.24
393.171	5.97
393.378	5.99
393.586	5.8
393.793	5.77
394	5.8
394.207	5.91
394.414	5.77
394.622	5.76
394.829	5.66
395.036	5.73
395.243	5.68
395.45	5.91
395.657	5.92
395.864	5.74
396.072	5.84
396.279	5.89
396.486	5.9
396.693	5.97
396.9	6.07
397.107	6.19
397.314	6.44
397.521	6.22
397.728	6.17
397.935	5.94
398.142	6.11
398.349	5.82
398.556	5.76
398.763	5.68
398.97	5.52
399.177	5.39
399.383	5.28
399.59	5.13
399.797	5.39
400.004	5.49
400.211	5.44
400.418	5.4
400.625	5.71
400.831	5.76
401.038	5.76
401.245	5.85
401.452	5.92
401.658	5.83
401.865	5.72
402.072	5.67
402.279	5.5
402.485	5.53
402.692	5.64
402.899	5.53
403.105	5.39
403.312	5.59
403.519	5.73
403.725	5.76
403.932	5.81
404.138	5.71
404.345	5.7
404.552	5.61
404.758	5.69
404.965	5.57
405.171	5.5
405.378	5.47
405.584	5.4
405.791	5.26
405.997	5.14
406.204	5.07
406.41	5.19
406.617	5.19
406.823	5.39
407.029	5.19
407.236	5.14
407.442	5.15
407.649	5.38
407.855	5.24
408.061	5.23
408.268	5.17
408.474	5.21
408.68	5.22
408.887	5.34
409.093	5.28
409.299	5.52
409.505	5.43
409.712	5.39
409.918	5.12
410.124	5.14
410.33	5.07
410.537	5.16
410.743	5.27
410.949	5.33
411.155	5.24
411.361	5.08
411.567	4.9
411.773	5.09
411.98	5.15
412.186	5.47
412.392	5.53
412.598	5.54
412.804	5.36
413.01	5.17
413.216	4.96
413.422	4.9
413.628	5.12
413.834	5.33
414.04	5.19
414.246	5.12
414.452	4.88
414.658	4.89
414.864	4.98
415.07	5.14
415.275	5.14
415.481	5.08
415.687	5.1
415.893	5.04
416.099	4.94
416.305	5.02
416.511	4.99
416.716	5
416.922	5.02
417.128	4.98
417.334	4.91
417.539	4.91
417.745	4.95
417.951	4.91
418.157	4.88
418.362	4.81
418.568	4.78
418.774	4.85
418.979	4.88
419.185	4.85
419.391	4.87
419.596	4.87
419.802	4.85
420.008	4.82
420.213	4.91
420.419	4.87
420.624	4.95
420.83	4.92
421.035	4.87
421.241	4.87
421.446	4.8
421.652	4.74
421.857	4.78
422.063	4.79
422.268	4.85
422.474	4.73
422.679	4.7
422.885	4.75
423.09	4.78
423.295	4.79
423.501	4.8
423.706	4.76
423.911	4.73
424.117	4.64
424.322	4.63
424.527	4.55
424.733	4.58
424.938	4.61
425.143	4.51
425.349	4.49
425.554	4.47
425.759	4.34
425.964	4.39
426.169	4.35
426.375	4.49
426.58	4.42
426.785	4.5
426.99	4.39
427.195	4.36
427.4	4.35
427.605	4.35
427.811	4.18
428.016	4.25
428.221	4.3
428.426	4.42
428.631	4.37
428.836	4.34
429.041	4.39
429.246	4.32
429.451	4.4
429.656	4.39
429.861	4.5
430.066	4.65
430.271	4.71
430.476	4.73
430.681	4.61
430.886	4.63
431.09	4.77
431.295	4.67
431.5	4.74
431.705	4.62
431.91	4.61
432.115	4.5
432.32	4.49
432.524	4.37
432.729	4.36
432.934	4.42
433.139	4.46
433.343	4.33
433.548	4.37
433.753	4.32
433.958	4.46
434.162	4.45
434.367	4.37
434.572	4.35
434.776	4.38
434.981	4.32
435.186	4.38
435.39	4.23
435.595	4.33
435.799	4.23
436.004	4.19
436.209	4.1
436.413	4.1
436.618	4.12
436.822	4.18
437.027	4.29
437.231	4.3
437.436	4.14
437.64	4.13
437.845	4.1
438.049	4.09
438.253	4.22
438.458	4.32
438.662	4.37
438.867	4.5
439.071	4.5
439.275	4.41
439.48	4.35
439.684	4.44
439.888	4.45
440.093	4.48
440.297	4.57
440.501	4.5
440.706	4.44
440.91	4.36
441.114	4.32
441.318	4.2
441.523	4.18
441.727	4.23
441.931	4.21
442.135	4.17
442.339	4.12
442.543	4.01
442.748	4.15
442.952	4.14
443.156	4.13
443.36	4.07
443.564	4.14
443.768	4.18
443.972	4.19
444.176	4.17
444.38	4.2
444.584	4.23
444.788	4.31
444.992	4.2
445.196	4.15
445.4	4.16
445.604	4.05
445.808	4.09
446.012	4.13
446.216	4.13
446.42	4.11
446.624	4.08
446.828	4.03
447.032	4.06
447.235	4.03
447.439	4.08
447.643	4.12
447.847	4.25
448.051	4.23
448.254	4.19
448.458	4.23
448.662	4.25
448.866	4.27
449.069	4.26
449.273	4.15
449.477	4.24
449.681	4.3
449.884	4.39
450.088	4.41
450.292	4.35
450.495	4.32
450.699	4.47
450.902	4.47
451.106	4.61
451.31	4.65
451.513	4.67
451.717	4.59
451.92	4.49
452.124	4.25
452.327	4.19
452.531	4.25
452.734	4.26
452.938	4.01
453.141	4
453.345	3.85
453.548	3.84
453.752	3.92
453.955	3.95
454.158	3.97
454.362	4.06
454.565	4.14
454.769	4.12
454.972	3.93
455.175	3.98
455.379	3.91
455.582	3.96
455.785	3.89
455.988	3.74
456.192	3.8
456.395	3.82
456.598	3.93
456.801	3.92
457.005	3.89
457.208	4.06
457.411	4.05
457.614	4.09
457.817	4.08
458.021	4.14
458.224	4.15
458.427	4.17
458.63	4.17
458.833	4.14
459.036	4.08
459.239	4.12
459.442	4.06
459.645	4.11
459.848	4.22
460.051	4.23
460.254	4.27
460.457	4.32
460.66	4.32
460.863	4.3
461.066	4.2
461.269	4.29
461.472	4.26
461.675	4.18
461.878	4.11
462.081	4.1
462.284	4.15
462.486	4.12
462.689	4.16
462.892	4.15
463.095	4.13
463.298	4.33
463.5	4.26
463.703	4.31
463.906	4.34
464.109	4.43
464.311	4.28
464.514	4.25
464.717	4.21
464.92	4.19
465.122	4.2
465.325	4.24
465.528	4.21
465.73	4.26
465.933	4.29
466.135	4.37
466.338	4.29
466.541	4.29
466.743	4.18
466.946	4.25
467.148	4.21
467.351	4.18
467.553	4.12
467.756	4.02
467.958	3.97
468.161	3.86
468.363	3.77
468.566	3.86
468.768	3.89
468.971	4
469.173	3.97
469.375	3.94
469.578	3.89
469.78	3.86
469.983	3.86
470.185	3.8
470.387	3.82
470.59	3.9
470.792	3.87
470.994	3.99
471.196	3.93
471.399	3.98
471.601	3.95
471.803	3.93
472.005	4.08
472.208	4.11
472.41	4.21
472.612	4.22
472.814	4.2
473.016	4.21
473.218	4.14
473.421	4.21
473.623	4.12
473.825	4.26
474.027	4.31
474.229	4.29
474.431	4.31
474.633	4.31
474.835	4.27
475.037	4.33
475.239	4.3
475.441	4.26
475.643	4.24
475.845	4.31
476.047	4.26
476.249	4.22
476.451	4.16
476.653	4.29
476.855	4.32
477.057	4.32
477.258	4.33
477.46	4.32
477.662	4.26
477.864	4.2
478.066	4.22
478.268	4.29
478.469	4.37
478.671	4.36
478.873	4.23
479.075	4.22
479.276	4.26
479.478	4.17
479.68	4.1
479.882	4.14
480.083	4.21
480.285	4.2
480.487	4.1
480.688	4.08
480.89	4.13
481.091	4.12
481.293	4.11
481.495	4.12
481.696	4.13
481.898	4.14
482.099	4.13
482.301	4.11
482.502	4.1
482.704	4.11
482.905	4.11
483.107	4.1
483.308	4.12
483.51	4.14
483.711	4.16
483.913	4.16
484.114	4.2
484.315	4.18
484.517	4.21
484.718	4.2
484.92	4.22
485.121	4.24
485.322	4.2
485.524	4.17
485.725	4.17
485.926	4.12
486.127	4.09
486.329	4.06
486.53	4.08
486.731	4.04
486.932	4.05
487.134	4.06
487.335	4.05
487.536	4.07
487.737	4.06
487.938	4.01
488.139	4.04
488.341	4.08
488.542	4.1
488.743	4.15
488.944	4.19
489.145	4.16
489.346	4.14
489.547	4.19
489.748	4.18
489.949	4.22
490.15	4.23
490.351	4.22
490.552	4.26
490.753	4.3
490.954	4.32
491.155	4.31
491.356	4.37
491.557	4.39
491.758	4.41
491.959	4.39
492.159	4.42
492.36	4.46
492.561	4.49
492.762	4.49
492.963	4.42
493.164	4.41
493.364	4.42
493.565	4.4
493.766	4.35
493.967	4.28
494.167	4.39
494.368	4.38
494.569	4.45
494.769	4.45
494.97	4.46
495.171	4.44
495.371	4.41
495.572	4.43
495.773	4.46
495.973	4.51
496.174	4.5
496.375	4.44
496.575	4.43
496.776	4.43
496.976	4.5
497.177	4.45
497.377	4.6
497.578	4.6
497.778	4.58
497.979	4.57
498.179	4.65
498.38	4.75
498.58	4.77
498.78	4.74
498.981	4.69
499.181	4.67
499.382	4.81
499.582	4.69
499.782	4.67
499.983	4.7
500.183	4.74
500.383	4.7
500.584	4.63
500.784	4.71
500.984	4.79
501.184	4.77
501.385	4.76
501.585	4.68
501.785	4.61
501.985	4.72
502.185	4.76
502.386	4.78
502.586	4.78
502.786	4.79
502.986	4.74
503.186	4.75
503.386	4.8
503.586	4.81
503.786	4.9
503.987	4.98
504.187	5.03
504.387	4.97
504.587	4.98
504.787	4.94
504.987	5
505.187	5.1
505.387	5.11
505.587	5.15
505.786	5.2
505.986	5.17
506.186	5.18
506.386	5.14
506.586	5.25
506.786	5.22
506.986	5.23
507.186	5.18
507.386	5.1
507.585	5.06
507.785	5.03
507.985	5
508.185	4.94
508.384	4.92
508.584	4.93
508.784	4.82
508.984	4.82
509.183	4.88
509.383	4.87
509.583	4.94
509.782	4.96
509.982	5
510.182	5.02
510.381	5.04
510.581	5.03
510.781	5.01
510.98	5.12
511.18	5.13
511.379	5.14
511.579	5.17
511.778	5.26
511.978	5.28
512.177	5.32
512.377	5.37
512.576	5.38
512.776	5.47
512.975	5.47
513.175	5.46
513.374	5.5
513.573	5.46
513.773	5.47
513.972	5.36
514.172	5.41
514.371	5.49
514.57	5.46
514.77	5.52
514.969	5.56
515.168	5.57
515.367	5.56
515.567	5.53
515.766	5.5
515.965	5.6
516.164	5.56
516.364	5.54
516.563	5.41
516.762	5.43
516.961	5.5
517.16	5.52
517.359	5.52
517.559	5.53
517.758	5.55
517.957	5.55
518.156	5.5
518.355	5.49
518.554	5.51
518.753	5.56
518.952	5.62
519.151	5.6
519.35	5.6
519.549	5.68
519.748	5.73
519.947	5.83
520.146	5.92
520.345	5.97
520.544	6.07
520.743	6.12
520.942	6.19
521.141	6.2
521.339	6.23
521.538	6.23
521.737	6.28
521.936	6.32
522.135	6.33
522.333	6.29
522.532	6.35
522.731	6.41
522.93	6.38
523.129	6.32
523.327	6.3
523.526	6.24
523.725	6.24
523.923	6.18
524.122	6.15
524.321	6.07
524.519	6.12
524.718	6.12
524.917	6.11
525.115	6.13
525.314	6.16
525.512	6.14
525.711	6.18
525.909	6.17
526.108	6.15
526.306	6.17
526.505	6.24
526.703	6.21
526.902	6.21
527.1	6.17
527.299	6.15
527.497	6.18
527.696	6.21
527.894	6.23
528.092	6.27
528.291	6.33
528.489	6.37
528.688	6.41
528.886	6.45
529.084	6.45
529.283	6.53
529.481	6.61
529.679	6.66
529.877	6.71
530.076	6.72
530.274	6.75
530.472	6.74
530.67	6.66
530.869	6.6
531.067	6.6
531.265	6.66
531.463	6.64
531.661	6.64
531.859	6.63
532.057	6.63
532.255	6.66
532.454	6.67
532.652	6.73
532.85	6.84
533.048	6.86
533.246	6.95
533.444	6.99
533.642	7.08
533.84	7.1
534.038	7.08
534.236	7.1
534.434	7.16
534.632	7.14
534.83	7.1
535.027	7.08
535.225	7.09
535.423	7.05
535.621	6.99
535.819	7.01
536.017	7.08
536.215	7.07
536.412	7.09
536.61	7.04
536.808	7.08
537.006	7.11
537.203	7.17
537.401	7.21
537.599	7.25
537.797	7.4
537.994	7.43
538.192	7.47
538.39	7.6
538.587	7.66
538.785	7.67
538.983	7.72
539.18	7.78
539.378	7.75
539.575	7.78
539.773	7.79
539.97	7.76
540.168	7.75
540.366	7.76
540.563	7.8
540.761	7.79
540.958	7.84
541.155	7.91
541.353	7.95
541.55	8.01
541.748	8.08
541.945	8.15
542.143	8.19
542.34	8.24
542.537	8.27
542.735	8.29
542.932	8.4
543.129	8.42
543.327	8.36
543.524	8.41
543.721	8.47
543.919	8.47
544.116	8.5
544.313	8.56
544.51	8.6
544.708	8.61
544.905	8.65
545.102	8.65
545.299	8.76
545.496	8.85
545.693	8.85
545.891	8.87
546.088	8.88
546.285	8.87
546.482	8.99
546.679	9.04
546.876	9.12
547.073	9.16
547.27	9.18
547.467	9.23
547.664	9.28
547.861	9.27
548.058	9.4
548.255	9.52
548.452	9.7
548.649	9.6
548.846	9.63
549.043	9.75
549.24	9.81
549.437	9.92
549.633	9.96
549.83	9.97
550.027	10.11
550.224	10.07
550.421	10.2
550.618	10.21
550.814	10.34
551.011	10.32
551.208	10.31
551.405	10.36
551.601	10.38
551.798	10.46
551.995	10.52
552.191	10.51
552.388	10.64
552.585	10.65
552.781	10.72
552.978	10.67
553.175	10.79
553.371	10.91
553.568	10.99
553.764	11.04
553.961	11.05
554.157	11.08
554.354	11.18
554.55	11.21
554.747	11.29
554.943	11.22
555.14	11.41
555.336	11.54
555.533	11.57
555.729	11.64
555.926	11.75
556.122	11.7
556.318	11.93
556.515	11.98
556.711	12.02
556.907	12.16
557.104	12.39
557.3	12.48
557.496	12.6
557.693	12.59
557.889	12.82
558.085	12.82
558.281	12.95
558.478	12.87
558.674	13.01
558.87	13.03
559.066	12.93
559.262	12.91
559.459	12.8
559.655	12.7
559.851	12.91
560.047	12.82
560.243	12.97
560.439	13.18
560.635	13.36
560.831	13.36
561.027	13.53
561.223	13.65
561.419	13.8
561.615	13.97
561.811	14.09
562.007	14.11
562.203	14.16
562.399	14.17
562.595	14.15
562.791	14.11
562.987	14.24
563.183	14.29
563.379	14.36
563.575	14.36
563.771	14.4
563.966	14.41
564.162	14.43
564.358	14.54
564.554	14.61
564.75	14.68
564.945	14.79
565.141	14.94
565.337	14.97
565.533	15.08
565.728	15.08
565.924	15.15
566.12	15.35
566.315	15.42
566.511	15.5
566.707	15.59
566.902	15.75
567.098	15.88
567.293	15.92
567.489	16
567.684	16
567.88	16.18
568.076	16.27
568.271	16.35
568.467	16.51
568.662	16.58
568.858	16.63
569.053	16.67
569.248	16.72
569.444	16.72
569.639	16.86
569.835	16.99
570.03	17.06
570.225	17.16
570.421	17.16
570.616	17.26
570.812	17.33
571.007	17.42
571.202	17.43
571.397	17.49
571.593	17.49
571.788	17.54
571.983	17.6
572.178	17.72
572.374	17.71
572.569	17.86
572.764	17.86
572.959	17.97
573.154	17.93
573.35	18.01
573.545	18.16
573.74	18.27
573.935	18.3
574.13	18.33
574.325	18.4
574.52	18.64
574.715	18.66
574.91	18.78
575.105	18.91
575.3	19.12
575.495	19.1
575.69	19.02
575.885	19.07
576.08	19.05
576.275	19.14
576.47	19.19
576.665	19.19
576.86	19.21
577.055	19.18
577.25	19.13
577.444	19.23
577.639	19.48
577.834	19.7
578.029	19.91
578.224	20.12
578.418	20.26
578.613	20.33
578.808	20.49
579.003	20.74
579.197	20.97
579.392	20.99
579.587	21.02
579.781	21.09
579.976	21.14
580.171	21.13
580.365	21.23
580.56	21.14
580.755	21.15
580.949	21.01
581.144	20.92
581.338	20.8
581.533	21.01
581.727	20.95
581.922	20.94
582.116	20.83
582.311	20.95
582.505	21.03
582.7	21.14
582.894	21.09
583.089	21.23
583.283	21.17
583.478	21.39
583.672	21.34
583.866	21.43
584.061	21.44
584.255	21.52
584.449	21.5
584.644	21.43
584.838	21.47
585.032	21.6
585.226	21.62
585.421	21.82
585.615	21.78
585.809	21.87
586.003	22.09
586.198	22.24
586.392	22.39
586.586	22.37
586.78	22.37
586.974	22.41
587.168	22.54
587.363	22.6
587.557	22.63
587.751	22.65
587.945	22.75
588.139	22.77
588.333	22.64
588.527	22.73
588.721	22.84
588.915	22.88
589.109	23.09
589.303	22.99
589.497	22.97
589.691	23.08
589.885	23.19
590.079	23.12
590.273	22.98
590.466	23.22
590.66	23.1
590.854	23.15
591.048	23.21
591.242	23.19
591.436	23.28
591.629	23.42
591.823	23.45
592.017	23.51
592.211	23.74
592.404	23.91
592.598	23.93
592.792	23.96
592.986	24.04
593.179	24.28
593.373	24.28
593.567	24.34
593.76	24.41
593.954	24.38
594.147	24.42
594.341	24.39
594.535	24.49
594.728	24.47
594.922	24.57
595.115	24.74
595.309	24.62
595.502	24.63
595.696	24.74
595.889	24.75
596.083	24.75
596.276	24.73
596.47	24.67
596.663	24.56
596.856	24.62
597.05	24.68
597.243	24.59
597.437	24.75
597.63	24.77
597.823	24.76
598.017	24.79
598.21	24.83
598.403	25.02
598.596	25.19
598.79	25.36
598.983	25.4
599.176	25.45
599.369	25.37
599.563	25.41
599.756	25.44
599.949	25.41
600.142	25.39
600.335	25.55
600.528	25.46
600.722	25.31
600.915	25.28
601.108	25.32
601.301	25.31
601.494	25.38
601.687	25.4
601.88	25.52
602.073	25.66
602.266	25.75
602.459	25.67
602.652	25.71
602.845	25.75
603.038	25.75
603.231	25.82
603.424	25.86
603.617	25.94
603.809	25.82
604.002	25.8
604.195	25.75
604.388	25.67
604.581	25.75
604.774	25.78
604.966	25.8
605.159	25.85
605.352	25.72
605.545	25.75
605.737	25.73
605.93	25.84
606.123	25.88
606.316	26.01
606.508	26.21
606.701	26.36
606.894	26.34
607.086	26.42
607.279	26.43
607.471	26.46
607.664	26.59
607.857	26.59
608.049	26.52
608.242	26.39
608.434	26.35
608.627	26.23
608.819	26.19
609.012	26.21
609.204	26.24
609.397	26.28
609.589	26.49
609.782	26.53
609.974	26.6
610.166	26.92
610.359	27.23
610.551	27.17
610.743	27.15
610.936	27.13
611.128	27.12
611.32	27.12
611.513	27.09
611.705	26.8
611.897	26.77
612.09	26.79
612.282	26.68
612.474	26.47
612.666	26.57
612.858	26.55
613.051	26.53
613.243	26.72
613.435	26.72
613.627	26.92
613.819	27.16
614.011	27.25
614.203	27.13
614.395	27.05
614.588	27.05
614.78	27.11
614.972	27.24
615.164	27.31
615.356	27.23
615.548	27.19
615.74	27
615.932	27.01
616.124	26.82
616.315	26.99
616.507	27.06
616.699	27.18
616.891	27.29
617.083	27.35
617.275	27.32
617.467	27.43
617.659	27.53
617.85	27.63
618.042	27.67
618.234	27.65
618.426	27.71
618.618	27.61
618.809	27.56
619.001	27.43
619.193	27.63
619.384	27.57
619.576	27.49
619.768	27.61
619.959	27.5
620.151	27.3
620.343	27.35
620.534	27.16
620.726	27.18
620.917	27.22
621.109	27.18
621.301	27.02
621.492	27.18
621.684	27.28
621.875	27.18
622.067	27.17
622.258	27.34
622.45	27.35
622.641	27.39
622.832	27.36
623.024	27.45
623.215	27.54
623.407	27.64
623.598	27.72
623.789	27.57
623.981	27.66
624.172	27.72
624.363	27.68
624.555	27.7
624.746	27.87
624.937	27.97
625.129	27.93
625.32	27.86
625.511	27.91
625.702	27.73
625.893	27.84
626.085	27.68
626.276	27.69
626.467	27.87
626.658	27.82
626.849	27.7
627.04	27.76
627.231	27.61
627.422	27.72
627.614	27.63
627.805	27.72
627.996	27.73
628.187	27.89
628.378	27.99
628.569	27.74
628.76	27.84
628.951	27.89
629.142	27.88
629.332	28.1
629.523	28.05
629.714	28.03
629.905	28.18
630.096	28.27
630.287	28.31
630.478	28.33
630.669	28.55
630.859	28.65
631.05	28.55
631.241	28.41
631.432	28.27
631.623	28.27
631.813	28.29
632.004	28.22
632.195	28.1
632.385	28.03
632.576	28.09
632.767	28.09
632.957	27.97
633.148	27.91
633.339	27.98
633.529	27.96
633.72	28.14
633.91	28.03
634.101	28.03
634.292	28.04
634.482	27.92
634.673	27.71
634.863	27.62
635.054	27.81
635.244	27.97
635.435	27.96
635.625	28
635.815	27.85
636.006	28.04
636.196	27.79
636.387	27.89
636.577	28.04
636.767	28.29
636.958	28.16
637.148	27.97
637.338	28.05
637.529	28.13
637.719	28.34
637.909	28.53
638.099	28.54
638.29	28.61
638.48	28.44
638.67	28.49
638.86	28.37
639.05	28.69
639.241	28.6
639.431	28.54
639.621	28.47
639.811	28.42
640.001	28.27
640.191	28.22
640.381	28.32
640.571	28.41
640.761	28.38
640.951	28.38
641.141	28.12
641.331	28.17
641.521	28.16
641.711	28.16
641.901	28.01
642.091	27.95
642.281	27.66
642.471	27.76
642.661	27.79
642.851	27.88
643.041	27.92
643.231	28.19
643.42	28.4
643.61	28.58
643.8	28.53
643.99	28.69
644.18	28.48
644.369	29
644.559	28.92
644.749	28.89
644.939	28.76
645.128	28.71
645.318	28.62
645.508	28.62
645.697	28.41
645.887	28.6
646.076	28.54
646.266	28.89
646.456	28.65
646.645	28.94
646.835	28.89
647.024	28.99
647.214	28.99
647.403	28.97
647.593	28.95
647.782	29.15
647.972	29
648.161	28.99
648.351	28.84
648.54	28.98
648.73	28.88
648.919	29.01
649.108	28.99
649.298	29.15
649.487	29.12
649.677	29.02
649.866	29
650.055	29.15
650.244	29.26
650.434	29.19
650.623	29.1
650.812	29
651.002	28.84
651.191	28.82
651.38	28.72
651.569	28.77
651.758	28.65
651.947	28.55
652.137	28.49
652.326	28.42
652.515	28.64
652.704	28.75
652.893	28.7
653.082	28.74
653.271	28.95
653.46	28.93
653.649	28.93
653.838	29.04
654.027	29.02
654.216	29.1
654.405	29.07
654.594	29.11
654.783	29.08
654.972	29.07
655.161	29.36
655.35	29.16
655.539	29.16
655.728	29.09
655.916	29.17
656.105	29.24
656.294	29.17
656.483	29.27
656.672	29.03
656.86	28.96
657.049	28.98
657.238	28.84
657.427	28.88
657.615	28.98
657.804	28.95
657.993	28.82
658.181	28.97
658.37	28.95
658.559	28.94
658.747	29.15
658.936	29.22
659.125	29.61
659.313	29.56
659.502	29.7
659.69	29.77
659.879	29.87
660.067	30.1
660.256	30.21
660.444	30.31
660.633	30.31
660.821	30.21
661.01	30.2
661.198	29.92
661.387	29.96
661.575	29.7
661.763	29.6
661.952	29.6
662.14	29.61
662.328	29.18
662.517	29.21
662.705	29.11
662.893	29.06
663.082	29.16
663.27	29.1
663.458	29.21
663.646	29.12
663.834	29.17
664.023	29.08
664.211	28.82
664.399	29.09
664.587	28.94
664.775	28.96
664.963	29.04
665.152	28.85
665.34	28.82
665.528	28.59
665.716	28.9
665.904	28.96
666.092	29.26
666.28	29.61
666.468	29.38
666.656	29.68
666.844	29.8
667.032	29.94
667.22	30.22
667.408	30.22
667.596	30.67
667.784	30.57
667.971	30.58
668.159	30.4
668.347	30.23
668.535	30.09
668.723	30
668.911	29.82
669.098	29.8
669.286	29.7
669.474	29.55
669.662	29.36
669.849	29.31
670.037	29.25
670.225	29.24
670.413	29.12
670.6	29.53
670.788	29.45
670.976	29.71
671.163	29.58
671.351	29.34
671.538	29.44
671.726	29.39
671.913	29.41
672.101	29.17
672.289	29.42
672.476	29.49
672.664	29.55
672.851	29.49
673.039	29.5
673.226	29.51
673.413	29.58
673.601	29.45
673.788	29.35
673.976	29.14
674.163	29.41
674.35	28.99
674.538	29.09
674.725	29
674.912	29.16
675.1	29.15
675.287	29.33
675.474	29.59
675.662	29.72
675.849	29.88
676.036	29.98
676.223	29.97
676.411	30.25
676.598	30.24
676.785	30.3
676.972	30.09
677.159	30.16
677.346	30.25
677.533	30.25
677.721	30.24
677.908	30.43
678.095	30.5
678.282	30.53
678.469	30.61
678.656	30.58
678.843	30.52
679.03	30.56
679.217	30.59
679.404	30.68
679.591	30.71
679.778	30.7
679.964	30.61
680.151	30.42
680.338	30.5
680.525	30.52
680.712	30.47
680.899	30.56
681.086	30.65
681.272	30.4
681.459	30.31
681.646	30.38
681.833	30.6
682.02	30.45
682.206	30.57
682.393	30.53
682.58	30.9
682.766	31
682.953	31.08
683.14	31.18
683.326	31.51
683.513	31.43
683.7	31.25
683.886	31.16
684.073	31.16
684.259	31.33
684.446	31.15
684.632	30.74
684.819	30.81
685.005	30.72
685.192	30.68
685.378	30.67
685.565	30.53
685.751	30.49
685.938	30.57
686.124	30.83
686.31	30.91
686.497	30.89
686.683	30.69
686.87	31.16
687.056	30.61
687.242	30.37
687.429	30.28
687.615	30.28
687.801	30.37
687.987	30.35
688.174	30.09
688.36	30.35
688.546	30.34
688.732	30.59
688.918	30.37
689.105	30.77
689.291	30.69
689.477	30.85
689.663	31
689.849	30.96
690.035	30.89
690.221	31.03
690.407	30.8
690.593	30.9
690.779	30.89
690.965	30.49
691.151	30.45
691.337	30.79
691.523	30.72
691.709	30.79
691.895	30.9
692.081	30.84
692.267	31.09
692.453	31.19
692.639	31.37
692.825	31.38
693.011	31.45
693.196	31.73
693.382	31.75
693.568	31.76
693.754	31.72
693.94	31.23
694.125	31.32
694.311	31.1
694.497	31.37
694.682	31.45
694.868	31.21
695.054	31.26
695.239	31.02
695.425	31.1
695.611	31.03
695.796	31.1
695.982	31.5
696.168	31.63
696.353	31.58
696.539	31.53
696.724	31.26
696.91	31.27
697.095	31.19
697.281	31.44
697.466	31.42
697.652	31.4
697.837	31.3
698.023	31.3
698.208	31.16
698.393	31.09
698.579	30.98
698.764	31.11
698.949	31.07
699.135	31.44
699.32	31.19
699.505	31.02
699.691	31.1
699.876	31.14
700.061	31.11
700.246	31.18
700.432	31.29
700.617	31.14
700.802	31.09
700.987	31.17
701.172	30.93
701.358	30.86
701.543	31.08
701.728	30.99
701.913	30.99
702.098	30.91
702.283	30.87
702.468	30.82
702.653	30.76
702.838	30.83
703.023	31.12
703.208	31
703.393	31.21
703.578	31.14
703.763	31.06
703.948	31.31
704.133	31.22
704.318	31.52
704.503	31.36
704.688	31.89
704.873	31.97
705.057	31.86
705.242	31.94
705.427	31.82
705.612	31.4
705.797	31.44
705.981	31.26
706.166	31.71
706.351	31.63
706.536	31.93
706.72	31.52
706.905	31.45
707.09	31.46
707.274	31.29
707.459	31.32
707.644	31.76
707.828	32.3
708.013	32.2
708.197	31.74
708.382	31.77
708.567	31.7
708.751	31.72
708.936	31.71
709.12	31.39
709.305	31.49
709.489	31.5
709.673	31.61
709.858	31.02
710.042	31.26
710.227	31.45
710.411	31.13
710.596	31.01
710.78	30.67
710.964	30.85
711.149	31.26
711.333	31.43
711.517	31.74
711.702	31.79
711.886	31.81
712.07	31.73
712.254	31.89
712.438	32.44
712.623	32.63
712.807	33.22
712.991	32.99
713.175	32.96
713.359	33.15
713.544	32.82
713.728	32.57
713.912	32.69
714.096	32.55
714.28	32.31
714.464	31.74
714.648	31.88
714.832	31.64
715.016	31.73
715.2	31.87
715.384	31.73
715.568	31.95
715.752	32.29
715.936	32.52
716.12	32.63
716.304	33.01
716.488	32.84
716.671	32.54
716.855	32.89
717.039	33.06
717.223	32.87
717.407	32.71
717.59	32.74
717.774	32.6
717.958	32.23
718.142	32.22
718.325	31.7
718.509	32.07
718.693	32.1
718.877	31.63
719.06	31.71
719.244	31.08
719.428	31.33
719.611	30.99
719.795	30.99
719.978	31.11
720.162	31.13
720.345	30.99
720.529	30.95
720.713	31.05
720.896	31.16
721.08	30.69
721.263	31.19
721.446	30.31
721.63	30.61
721.813	30.06
721.997	29.84
722.18	30.07
722.364	30.35
722.547	30.71
722.73	30.28
722.914	30.21
723.097	30.1
723.28	30.01
723.464	30.47
723.647	30.69
723.83	31.02
724.013	31.54
724.197	31.75
724.38	31.9
724.563	31.78
724.746	31.95
724.929	32.14
725.112	32.03
725.296	32.24
725.479	32.75
725.662	32.72
725.845	32.62
726.028	32.16
726.211	31.93
726.394	31.79
726.577	31.75
726.76	31.99
726.943	31.9
727.126	32.36
727.309	32.1
727.492	32.13
727.675	31.63
727.858	31.95
728.041	32.5
728.224	32.07
728.407	31.96
728.589	31.82
728.772	31.43
728.955	31.32
729.138	31.23
729.321	31.05
729.503	30.78
729.686	31.03
729.869	31.04
730.052	30.67
730.234	31.09
730.417	31.29
730.6	31.58
730.782	31.82
730.965	32.07
731.148	32.27
731.33	32.86
731.513	32.8
731.695	32.49
731.878	32.39
732.061	32.35
732.243	32.12
732.426	32.35
732.608	32.17
732.791	32.49
732.973	32.28
733.156	32.02
733.338	31.95
733.52	31.87
733.703	31.96
733.885	31.9
734.068	31.87
734.25	31.83
734.432	31.37
734.615	31.21
734.797	31.54
734.979	31.85
735.162	31.96
735.344	31.96
735.526	31.83
735.708	32.37
735.891	32.52
736.073	32.48
736.255	32.67
736.437	33.35
736.619	33.34
736.802	33.23
736.984	33.05
737.166	32.96
737.348	33.05
737.53	33.07
737.712	32.77
737.894	32.57
738.076	32.61
738.258	32.73
738.44	32.58
738.622	32.65
738.804	32.19
738.986	32.18
739.168	32.28
739.35	32.36
739.532	32.59
739.714	32.48
739.896	32.51
740.078	32.68
740.259	32.54
740.441	32.35
740.623	32.45
740.805	32.23
740.987	32.28
741.168	32.34
741.35	32.35
741.532	32.13
741.714	31.8
741.895	31.59
742.077	31.38
742.259	31.1
742.44	31.1
742.622	31.16
742.804	31.36
742.985	31.58
743.167	31.82
743.348	30.49
743.53	30.46
743.711	30.81
743.893	30.7
744.075	31.03
744.256	30.49
744.438	30.96
744.619	31.33
744.8	32.16
744.982	32.47
745.163	31.72
745.345	33.07
745.526	33.01
745.707	33.53
745.889	33.5
746.07	33.36
746.252	34.74
746.433	34.19
746.614	33.81
746.795	32.76
746.977	32.52
747.158	33.23
747.339	32.88
747.52	33.27
747.702	33.12
747.883	33.07
748.064	33.46
748.245	32.37
748.426	32.22
748.607	32.18
748.788	32
748.97	31.34
749.151	30.84
749.332	30.76
749.513	30.04
749.694	30.17
749.875	31.37
750.056	30.87
750.237	31.32
750.418	31.73
750.599	31.92
750.78	32.5
750.96	32.96
751.141	33.39
751.322	33.73
751.503	34.16
751.684	33.7
751.865	32.66
752.046	32.41
752.226	32.4
752.407	32.21
752.588	32.3
752.769	31.64
752.949	31.41
753.13	31.24
753.311	31.06
753.492	30.77
753.672	31.38
753.853	31.17
754.034	31.41
754.214	31.5
754.395	31.42
754.575	31.28
754.756	32.09
754.937	32.55
755.117	31.89
755.298	32.15
755.478	32.38
755.659	32.37
755.839	33.76
756.02	33.67
756.2	33.96
756.381	33.54
756.561	33.72
756.741	33.16
756.922	32.24
757.102	32.38
757.283	31.38
757.463	31.61
757.643	30.64
757.823	29.61
758.004	30.18
758.184	29.85
758.364	30.31
758.545	29.69
758.725	29.93
758.905	30.36
759.085	30.25
759.265	30.5
759.446	30.19
759.626	31.24
759.806	31
759.986	30.39
760.166	30.18
760.346	30.25
760.526	30.69
760.706	30.97
760.886	30.93
761.066	32.12
761.246	32.6
761.426	33
761.606	32.86
761.786	32.78
761.966	32.98
762.146	33.03
762.326	32.82
762.506	33.01
762.686	32.97
762.866	33.1
763.046	32.53
763.225	32.35
763.405	32.25
763.585	31.78
763.765	32.34
763.945	32.31
764.124	31.91
764.304	32.02
764.484	31.47
764.664	31.22
764.843	31
765.023	30.75
765.203	31.18
765.382	31.33
765.562	31.53
765.741	31.44
765.921	31.57
766.101	32
766.28	32.25
766.46	32.9
766.639	33.4
766.819	33.65
766.998	33.91
767.178	33.45
767.357	33.33
767.537	33.44
767.716	33.3
767.896	33.45
768.075	33.65
768.254	33.25
768.434	33.25
768.613	32.9
768.792	32.75
768.972	33.04
769.151	33.76
769.33	32.81
769.51	32.35
769.689	32.17
769.868	32.53
770.047	33.14
770.226	33.12
770.406	32.93
770.585	33.46
770.764	32.92
770.943	33.21
771.122	32.25
771.301	33.88
771.48	34.45
771.66	34.38
771.839	33.5
772.018	32.41
772.197	32.98
772.376	32.17
772.555	31.71
772.734	33.02
772.913	32.71
773.092	32.59
773.271	30.92
773.449	30.61
773.628	30.81
773.807	31.14
773.986	30.57
774.165	29.52
774.344	30.56
774.523	29.93
774.701	28.95
774.88	29.21
775.059	29.53
775.238	30.39
775.417	30.86
775.595	30.36
775.774	29.89
775.953	30.7
776.131	31.2
776.31	30.43
776.489	30.83
776.667	30.94
776.846	30.32
777.025	30.89
777.203	30.15
777.382	29.84
777.56	29.89
777.739	30.42
777.917	30.55
778.096	30.26
778.274	31.16
778.453	30.96
778.631	31.52
778.81	32.02
778.988	31.84
779.166	32.26
779.345	32.47
779.523	33.32
779.702	33.11
779.88	32.85
780.058	33.99
780.237	32.91
780.415	33.44
780.593	33.71
780.771	33.2
780.95	32.82
781.128	33.64
781.306	33.36
781.484	32.21
781.662	31.98
781.841	32.09
782.019	30.8
782.197	30.78
782.375	31.04
782.553	30.39
782.731	30.88
782.909	30.91
783.087	30.81
783.265	30.54
783.443	30.84
783.621	31.43
783.799	32.11
783.977	32.67
784.155	33.2
784.333	32.44
784.511	32.23
784.689	31.57
784.867	31.49
785.045	30.63
785.223	31.3
785.4	31.61
785.578	30.83
785.756	30.08
785.934	30.43
786.112	30.8
786.289	31.1
786.467	31.43
786.645	31.74
786.823	31.48
787	31.9
787.178	31.56
787.356	31
787.533	31.03
787.711	32.09
787.889	31.91
788.066	31.15
788.244	30.96
788.421	30.74
788.599	30.97
788.776	30.98
788.954	31.56
789.131	31.69
789.309	32.11
789.486	32.63
789.664	31.86
789.841	31.37
790.019	31.5
790.196	31.33
790.373	30.89
790.551	30.62
790.728	30.56
790.906	29.96
791.083	29.09
791.26	29.24
791.437	29.82
791.615	29.57
791.792	29.78
791.969	30.7
792.146	31.58
792.324	32.53
792.501	32.49
792.678	33.17
792.855	33.03
793.032	33.54
793.209	33.78
793.387	33.19
793.564	33.77
793.741	34.04
793.918	32.43
794.095	32.22
794.272	32.45
794.449	32.65
794.626	32.26
794.803	32.98
794.98	33.46
795.157	32.35
795.334	32.35
795.511	31.8
795.688	31.4
795.864	31.96
796.041	31.02
796.218	31
796.395	30.78
796.572	30.85
796.749	30.39
796.925	29.39
797.102	29.96
797.279	29.79
797.456	29.64
797.632	29.06
797.809	29.91
797.986	30.57
798.162	30.14
798.339	30.81
798.516	31.73
798.692	31.7
798.869	33.14
799.046	33.44
799.222	32.99
799.399	34.2
799.575	35.24
799.752	34.97
799.928	35.28
800.105	34.61
800.281	34.42
800.458	34.15
800.634	34.35
800.811	33.88
800.987	33.34
801.163	33.73
801.34	32.27
801.516	31.75
801.692	31.66
801.869	30.9
802.045	32.32
802.221	31.76
802.398	30.29
802.574	28.66
802.75	28.1
802.926	29.76
803.103	30.08
803.279	30.88
803.455	31.13
803.631	31.94
803.807	32.33
803.983	31.56
804.16	32.09
804.336	33.27
804.512	34.52
804.688	35.51
804.864	34.24
805.04	33.76
805.216	32.9
805.392	33.52
805.568	32.97
805.744	33.51
805.92	33.99
806.096	32.77
806.272	32.03
806.448	32.93
806.623	32.87
806.799	32.79
806.975	32.99
807.151	33.95
807.327	33.55
807.503	33.09
807.678	32.4
807.854	32.13
808.03	33.38
808.206	33.11
808.381	31.97
808.557	31.26
808.733	31.92
808.908	31.57
809.084	32.07
809.26	32.5
809.435	32.32
809.611	32.53
809.787	31.85
809.962	32.06
810.138	33.12
810.313	32.84
810.489	32.69
810.664	31.98
810.84	32.13
811.015	31.95
811.191	31.89
811.366	32.48
811.542	31.53
811.717	32.68
811.892	31.96
812.068	32.06
812.243	31.99
812.419	31.63
812.594	32.03
812.769	32.27
812.944	31.06
813.12	30.57
813.295	30.73
813.47	31.27
813.645	31.17
813.821	29.09
813.996	29.44
814.171	29.16
814.346	28.79
814.521	29.53
814.697	30.37
814.872	30.16
815.047	31.53
815.222	31.64
815.397	31.33
815.572	31.23
815.747	34.14
815.922	33.64
816.097	34.04
816.272	34.94
816.447	35.04
816.622	34.78
816.797	35.68
816.972	35.03
817.147	35.48
817.322	36.27
817.496	35.85
817.671	34.89
817.846	34.62
818.021	34.62
818.196	34.51
818.371	33.44
818.545	33.11
818.72	33.31
818.895	33.1
819.069	31.93
819.244	31.26
819.419	31.91
819.594	32.4
819.768	32.27
819.943	32.82
820.117	32.84
820.292	32.61
820.467	32.66
820.641	32.89
820.816	33.17
820.99	33.43
821.165	33.61
821.339	32.97
821.514	32.89
821.688	32.91
821.863	32.68
822.037	32.66
822.212	32.71
822.386	32.67
822.56	32.41
822.735	32.33
822.909	32.46
823.084	32.58
823.258	32.82
823.432	32.86
823.606	32.88
823.781	33.14
823.955	33.26
824.129	33.5
824.303	33.6
824.478	33.85
824.652	33.27
824.826	32.97
825	32.79
825.174	32.78
825.348	32.83
825.523	32.8
825.697	32.6
825.871	32.47
826.045	32.1
826.219	31.97
826.393	32.11
826.567	32.73
826.741	33.18
826.915	32.9
827.089	33
827.263	33.15
827.437	33.82
827.611	33.81
827.784	34.08
827.958	34.61
828.132	34.84
828.306	34.8
828.48	35.01
828.654	34.67
828.827	34.73
829.001	34.48
829.175	34.55
829.349	33.1
829.522	33.09
829.696	33.06
829.87	32.58
830.044	31.76
830.217	31.44
830.391	31.03
830.565	30.02
830.738	30.23
830.912	29.39
831.085	28.32
831.259	28.75
831.432	28.95
831.606	28.94
831.779	28.95
831.953	30.14
832.126	30.05
832.3	29.85
832.473	30.2
832.647	30.06
832.82	30.06
832.994	30.76
833.167	32
833.34	32.12
833.514	31.14
833.687	31.32
833.86	31.78
834.034	31.46
834.207	31.88
834.38	32.58
834.553	33.81
834.727	34.54
834.9	34.39
835.073	34.17
835.246	34.2
835.419	35.9
835.593	36.69
835.766	35.89
835.939	36.21
836.112	35.17
836.285	34.53
836.458	33.77
836.631	34.15
836.804	35.54
836.977	34.87
837.15	34.63
837.323	34.23
837.496	34.54
837.669	36.2
837.842	36.84
838.015	36.44
838.188	37.25
838.361	37.18
838.533	37.11
838.706	35.88
838.879	33.48
839.052	34.36
839.225	35.78
839.398	32.17
839.57	29.53
839.743	28.5
839.916	30.37
840.088	29.96
840.261	30.57
840.434	29.62
840.607	29.62
840.779	31.37
840.952	29.41
841.124	27.47
841.297	29.29
841.47	30.99
841.642	32.77
841.815	32.79
841.987	32.63
842.16	30.97
842.332	32.03
842.505	32.4
842.677	34.22
842.85	35.84
843.022	34.2
843.194	35.02
843.367	32.93
843.539	29.98
843.712	32.24
843.884	28.98
844.056	31.53
844.229	29.92
844.401	24.03
844.573	21.64
844.745	20.65
844.918	22.23
845.09	20.76
845.262	27.02
845.434	29.48
845.606	26.06
845.779	31.05
845.951	30.09
846.123	30.53
846.295	33.89
846.467	32.72
846.639	35.26
846.811	34.93
846.983	37.79
847.155	34.34
847.327	33.16
847.499	33.77
847.671	31.59
847.843	30.51
848.015	32.97
848.187	32.63
848.359	35.52
848.531	34.81
848.703	33.6
848.875	31.43
849.047	33.02
849.218	37.48
849.39	34.85
849.562	33.65
849.734	35.57
849.905	34.49
850.077	35.13
850.249	33.47
850.421	31.21
850.592	33.99
850.764	31.68
850.936	30.62
851.107	27.39
851.279	29.11
851.451	32.97
851.622	30.92
851.794	30.01
851.965	30.04
852.137	30.54
852.308	31.96
852.48	32.93
852.651	35.33
852.823	35.11
852.994	33.82
853.166	36.65
853.337	34.07
853.509	33.59
853.68	34.7
853.851	30.99
854.023	30.53
854.194	28.06
854.365	23.81
854.537	23.24
854.708	27.19
854.879	30.62
855.05	29.51
855.222	32.2
855.393	34.49
855.564	35.6
855.735	37.03
855.906	40.56
856.078	44.09
856.249	48.06
856.42	46.73
856.591	45.71
856.762	39.68
856.933	37.09
857.104	29.95
857.275	28.12
857.446	26.39
857.617	27.15
857.788	22.98
857.959	21.87
858.13	23.48
858.301	22.53
858.472	21.89
858.643	28.97
858.814	29.56
858.985	34.92
859.155	34.48
859.326	38.16
859.497	39.35
859.668	36.08
859.839	34.91
860.009	29.39
860.18	30.54
860.351	29.39
860.522	26.67
860.692	31.2
860.863	29.56
861.034	32.81
861.204	28.4
861.375	24.51
861.546	30.53
861.716	29.03
861.887	32.96
862.057	37.23
862.228	35.66
862.398	36.83
862.569	37.39
862.739	39.62
862.91	37.68
863.08	37.35
863.251	38.98
863.421	34.79
863.592	39.6
863.762	38.43
863.932	35.69
864.103	33.96
864.273	34.12
864.443	32.08
864.614	30.94
864.784	31.82
864.954	34.55
865.125	39.38
865.295	42.09
865.465	39.49
865.635	43.62
865.805	43.23
865.976	46.68
866.146	47.42
866.316	44.4
866.486	43.08
866.656	43.35
866.826	35.5
866.996	31.72
867.166	33.06
867.336	32.77
867.506	27.94
867.676	25.33
867.846	27.48
868.016	26.31
868.186	25.86
868.356	23.22
868.526	22.78
868.696	27.67
868.866	23.46
869.036	20.23
869.206	16.63
869.376	16.9
869.545	25.15
869.715	22.78
869.885	23
870.055	28.79
870.224	28.33
870.394	28.87
870.564	32.47
870.734	39.71
870.903	36.51
871.073	36.31
871.243	37.14
871.412	32.16
871.582	35.41
871.751	34.45
871.921	29.23
872.091	34.42
872.26	34.57
872.43	28.78
872.599	27.31
872.769	31.99
872.938	32.22
873.108	34.83
873.277	33
873.446	31.36
873.616	31.25
873.785	29.77
873.955	27.62
874.124	30.09
874.293	30.57
874.463	30.78
874.632	30.36
874.801	30.75
874.971	28.8
875.14	30.81
875.309	28.95
875.478	27.05
875.647	31.34
875.817	33.32
875.986	31.56
876.155	33.7
876.324	30.46
876.493	32.65
876.662	33.38
876.831	31.98
877	32.03
877.17	36.96
877.339	41.57
877.508	42.28
877.677	41.16
877.846	36.45
878.015	33.27
878.184	34.74
878.352	31.2
878.521	27.97
878.69	28.28
878.859	27.86
879.028	25.06
879.197	23.96
879.366	21.25
879.534	21.29
879.703	24.69
879.872	26.19
880.041	24.8
880.21	26.59
880.378	28.65
880.547	28.9
880.716	29.43
880.884	29.95
881.053	29.63
881.222	31.46
881.39	31.71
881.559	31.16
881.727	31.25
881.896	32.25
882.065	32.17
882.233	32.74
882.402	32.68
882.57	32.63
882.739	32.19
882.907	32.8
883.076	32.71
883.244	32.93
883.412	33.94
883.581	34.27
883.749	34.31
883.918	34.37
884.086	33.81
884.254	34.61
884.423	35.91
884.591	36.73
884.759	35.68
884.927	35.56
885.096	34.89
885.264	35.74
885.432	35.66
885.6	35.83
885.769	35.16
885.937	35.61
886.105	34.46
886.273	33.71
886.441	33.15
886.609	36.3
886.777	35.7
886.945	37.49
887.113	36.25
887.281	35.24
887.449	35.26
887.617	36.7
887.785	37.88
887.953	39.35
888.121	36.6
888.289	34.21
888.457	31.67
888.625	30.64
888.793	28.79
888.961	24.31
889.129	23.59
889.296	21.02
889.464	19.21
889.632	16.02
889.8	10.51
889.967	12.63
890.135	16.64
