Data from 2938535_Reflection_1.txt Node
Date: Mon Jun 15 23:52:20 EDT 2015
User: robert
Spectrometer: USB4E03002
Autoset integration time: false
Trigger mode: 4
Integration Time (sec): 1.000000E-1
Scans to average: 10
Electric dark correction enabled: true
Nonlinearity correction enabled: false
Boxcar width: 6
Stray light correction enabled: false
XAxis mode: Wavelengths
Stop averaging: false
Number of Pixels in Spectrum: 3648
>>>>>Begin Spectral Data<<<<<
177.575	-84.28
177.794	-140.38
178.014	-179.86
178.233	-201.34
178.452	-1477.44
178.672	-577.93
178.891	-60
179.11	-240.32
179.33	-264.52
179.549	-317.62
179.768	-307.27
179.987	-613.66
180.207	-235.59
180.426	-285.02
180.645	-309.02
180.864	-251.3
181.084	-278.56
181.303	-291.99
181.522	-276.99
181.741	-253.05
181.96	-251.19
182.179	-230.67
182.398	-238.56
182.618	-387.23
182.837	-272.54
183.056	-360.47
183.275	-223.88
183.494	-265.39
183.713	-384.6
183.932	-358.27
184.151	-610.08
184.37	-604.71
184.589	-446.22
184.808	-935.29
185.027	-1327.69
185.246	-656.06
185.465	-370.95
185.684	-592.43
185.903	-627.41
186.122	-3897.87
186.341	9395
186.56	2406.17
186.779	4794.87
186.998	-1092.96
187.216	6465.38
187.435	638.02
187.654	1577.67
187.873	8476.19
188.092	1439.84
188.311	1430.95
188.53	7925
188.748	-8960
188.967	-1549.09
189.186	-4639.02
189.405	-2371.43
189.623	3651.92
189.842	1308.07
190.061	17172.73
190.28	-1597.3
190.498	-3105.26
190.717	-2286.49
190.936	-11757.14
191.154	-4221.62
191.373	15833.33
191.592	5455.56
191.81	3864.86
192.029	1870.97
192.248	1811.11
192.466	-4387.5
192.685	-669.86
192.904	-929.75
193.122	2642.86
193.341	4781.48
193.559	600.8
193.778	957.79
193.996	456.61
194.215	509.7
194.433	472.89
194.652	567.55
194.87	984.66
195.089	569.28
195.307	550.58
195.526	400.72
195.744	430.53
195.963	1128.42
196.181	1160.12
196.399	5709.09
196.618	1388.55
196.836	-921.39
197.055	-781.48
197.273	-1551.67
197.491	-490.03
197.71	-879.79
197.928	-323.13
198.146	-357.98
198.365	-371.32
198.583	-681.38
198.801	40750
199.019	1770.53
199.238	2712.07
199.456	5321.88
199.674	931.47
199.892	1179.49
200.111	5900
200.329	561.34
200.547	697.15
200.765	615.63
200.983	697.44
201.202	644.92
201.42	1036.55
201.638	826.92
201.856	2390
202.074	1382.61
202.292	1015.08
202.51	750
202.728	665.88
202.946	441.84
203.165	405.88
203.383	416.48
203.601	408.7
203.819	293
204.037	384.01
204.255	351.91
204.473	548.25
204.691	476.84
204.909	289.83
205.127	332.03
205.345	352.12
205.562	415.24
205.78	972.9
205.998	514.79
206.216	415.52
206.434	354.25
206.652	375.97
206.87	315.03
207.088	275.32
207.306	321.35
207.523	308.31
207.741	461.35
207.959	336.41
208.177	423.48
208.395	354.09
208.612	291.34
208.83	444.52
209.048	482.13
209.266	465.87
209.483	432.13
209.701	644.64
209.919	1586.15
210.136	582.16
210.354	598.12
210.572	539.42
210.79	659.59
211.007	469.02
211.225	488.29
211.442	416.89
211.66	314.93
211.878	190.89
212.095	224.91
212.313	214.7
212.53	186.93
212.748	128.77
212.966	139.82
213.183	113.88
213.401	104.95
213.618	97.01
213.836	106.47
214.053	114.29
214.271	137.42
214.488	224.62
214.705	316.46
214.923	251.12
215.14	258.85
215.358	161.6
215.575	203.87
215.793	199.17
216.01	192.33
216.227	188.63
216.445	172.14
216.662	162.78
216.879	177.01
217.097	149.48
217.314	150.91
217.531	176.59
217.749	197.23
217.966	157.49
218.183	168.48
218.4	153.87
218.618	139.14
218.835	130.43
219.052	126.01
219.269	128.82
219.487	134.6
219.704	120
219.921	106.91
220.138	85.82
220.355	85.96
220.572	81.04
220.79	96.57
221.007	93.27
221.224	94.17
221.441	99.32
221.658	102.35
221.875	95.58
222.092	82.63
222.309	75.87
222.526	73.51
222.743	72.09
222.96	70.43
223.177	63.11
223.394	56.32
223.611	50.29
223.828	54.57
224.045	47.49
224.262	41.17
224.479	34.98
224.696	37.84
224.913	37.72
225.13	35.81
225.347	33.01
225.564	29.64
225.781	27.26
225.997	23.05
226.214	22.44
226.431	21.47
226.648	20.25
226.865	20.97
227.082	21.02
227.298	20.88
227.515	19.33
227.732	18.55
227.949	17.11
228.165	17.16
228.382	17.7
228.599	17.65
228.816	18.1
229.032	18.57
229.249	18.5
229.466	18.45
229.682	17.72
229.899	17.9
230.116	17.66
230.332	18.34
230.549	18.18
230.765	18.69
230.982	18.32
231.199	19.67
231.415	19.75
231.632	21.02
231.848	20.75
232.065	21.71
232.281	22.31
232.498	26.36
232.714	24.79
232.931	25.02
233.147	24.63
233.364	24.89
233.58	27.94
233.797	27.26
234.013	26.18
234.23	25.79
234.446	25.4
234.662	26.29
234.879	25.71
235.095	24.97
235.312	22.96
235.528	21.09
235.744	22.82
235.961	21.63
236.177	24.13
236.393	20.78
236.61	19.96
236.826	20.68
237.042	22.55
237.258	23.27
237.475	22.51
237.691	20.94
237.907	21.52
238.123	20.72
238.339	22.92
238.556	22.5
238.772	22.51
238.988	19.87
239.204	20.22
239.42	20.01
239.636	19.42
239.853	19.39
240.069	18.44
240.285	18.21
240.501	18.92
240.717	18.53
240.933	18.76
241.149	17.83
241.365	17.64
241.581	17.85
241.797	17.54
242.013	17.34
242.229	17.29
242.445	16.85
242.661	15.76
242.877	15.3
243.093	15.27
243.309	14.46
243.525	13.31
243.741	11.96
243.957	11.8
244.173	10.83
244.388	10.31
244.604	10.45
244.82	9.91
245.036	9.58
245.252	9.25
245.468	9.18
245.683	9.3
245.899	9.02
246.115	8.84
246.331	8.79
246.547	8.99
246.762	9.35
246.978	9.4
247.194	9.73
247.409	10.03
247.625	10.41
247.841	11.07
248.057	11.12
248.272	11.35
248.488	11.27
248.703	11.87
248.919	11.53
249.135	11.89
249.35	11.91
249.566	11.36
249.782	11.32
249.997	10.49
250.213	10.13
250.428	10.08
250.644	9.86
250.859	10.65
251.075	10.64
251.29	10.92
251.506	10.7
251.721	11.51
251.937	12.15
252.152	12.56
252.368	13.63
252.583	13.99
252.798	15.26
253.014	15.54
253.229	16.04
253.445	16.14
253.66	15.78
253.875	15.65
254.091	16.16
254.306	15.2
254.521	14.84
254.737	13.02
254.952	12.18
255.167	10.49
255.383	9.92
255.598	9.59
255.813	9.47
256.028	9.05
256.244	8.47
256.459	7.58
256.674	7.43
256.889	6.73
257.104	6.81
257.32	6.68
257.535	7.27
257.75	7.17
257.965	7.1
258.18	7.5
258.395	7.13
258.61	7.05
258.826	7.07
259.041	7
259.256	7.52
259.471	7.75
259.686	8
259.901	8.1
260.116	8.21
260.331	8.27
260.546	8.44
260.761	8.77
260.976	8.28
261.191	8.77
261.406	8.78
261.621	8.74
261.836	9.34
262.05	9.09
262.265	8.6
262.48	8.13
262.695	8.27
262.91	8.21
263.125	7.76
263.34	7.35
263.555	6.96
263.769	6.37
263.984	6.35
264.199	6.65
264.414	7
264.629	6.6
264.843	7.18
265.058	7.51
265.273	7.21
265.488	7.43
265.702	7.36
265.917	7.58
266.132	8.23
266.346	8.68
266.561	9.11
266.776	8.69
266.99	9.13
267.205	8.76
267.42	8.13
267.634	7.93
267.849	8.02
268.063	8.98
268.278	8.55
268.492	8.83
268.707	8.77
268.922	8.22
269.136	8.33
269.351	8.44
269.565	8.27
269.78	8.3
269.994	8.24
270.209	8.14
270.423	7.87
270.637	7.77
270.852	7.61
271.066	8.04
271.281	8
271.495	7.93
271.709	7.94
271.924	7.9
272.138	7.9
272.353	8.48
272.567	8.19
272.781	8.35
272.996	9.04
273.21	9.55
273.424	9.72
273.638	9.46
273.853	9.36
274.067	9.23
274.281	9.29
274.495	9.23
274.71	8.67
274.924	8.58
275.138	8.38
275.352	8.46
275.566	8.56
275.781	8.63
275.995	8.46
276.209	8.36
276.423	8.26
276.637	7.53
276.851	7.62
277.065	7.68
277.279	8.05
277.493	8.33
277.707	8.4
277.921	8.15
278.135	7.63
278.349	7.47
278.563	7.27
278.777	6.85
278.991	6.61
279.205	6.89
279.419	7.63
279.633	7.7
279.847	7.57
280.061	7.79
280.275	7.97
280.489	7.93
280.703	8.05
280.917	8.17
281.131	8.57
281.344	8.6
281.558	8.49
281.772	8.33
281.986	8.51
282.2	8.3
282.414	8.07
282.627	8
282.841	7.57
283.055	7.47
283.269	7.46
283.482	7.2
283.696	7.35
283.91	6.78
284.123	6.86
284.337	6.86
284.551	7.07
284.764	6.66
284.978	6.21
285.192	6.24
285.405	6.41
285.619	6.62
285.833	6.45
286.046	6.39
286.26	6.66
286.473	6.63
286.687	6.93
286.9	6.83
287.114	6.86
287.327	6.8
287.541	6.93
287.754	7.48
287.968	7.34
288.181	7.11
288.395	7.15
288.608	7.3
288.822	7.36
289.035	7.47
289.248	7.22
289.462	7.06
289.675	7.31
289.889	7.27
290.102	7.43
290.315	7.34
290.529	7.17
290.742	7.3
290.955	7.69
291.169	7.69
291.382	7.81
291.595	7.88
291.808	7.44
292.022	7.42
292.235	7.71
292.448	7.3
292.661	7.64
292.875	7.76
293.088	8.46
293.301	8.39
293.514	8.27
293.727	7.98
293.94	7.98
294.153	7.59
294.367	7.21
294.58	7.13
294.793	7.47
295.006	7.45
295.219	7.5
295.432	7.5
295.645	7.28
295.858	6.54
296.071	6.72
296.284	6.97
296.497	6.74
296.71	6.7
296.923	6.89
297.136	7.32
297.349	7.72
297.562	7.8
297.775	7.91
297.988	8.28
298.201	8.37
298.414	8.24
298.626	8.55
298.839	8.44
299.052	8.49
299.265	8.88
299.478	8.85
299.691	8.86
299.903	8.9
300.116	9.08
300.329	8.69
300.542	8.4
300.755	8.29
300.967	7.94
301.18	8.25
301.393	8.31
301.605	8.45
301.818	8.33
302.031	8.22
302.243	8.53
302.456	8.6
302.669	8.94
302.881	8.94
303.094	8.88
303.307	9.01
303.519	8.87
303.732	9.14
303.944	9.06
304.157	9.49
304.37	9.57
304.582	10.02
304.795	10.4
305.007	10.03
305.22	9.73
305.432	9.09
305.645	8.63
305.857	9.14
306.069	9.49
306.282	9.36
306.494	9.47
306.707	9.73
306.919	9.21
307.132	9.03
307.344	8.77
307.556	8.48
307.769	8.08
307.981	8.25
308.193	8.46
308.406	8.64
308.618	8.25
308.83	7.93
309.043	8.2
309.255	8.14
309.467	8.17
309.679	8.48
309.892	8.38
310.104	8.51
310.316	8.63
310.528	8.95
310.74	9.1
310.953	9.28
311.165	9.38
311.377	9.39
311.589	9.44
311.801	9.16
312.013	9.34
312.225	9.24
312.437	9.41
312.649	9.56
312.862	9.51
313.074	9.54
313.286	9.76
313.498	9.61
313.71	9.51
313.922	9.63
314.134	9.92
314.346	10.23
314.558	10.73
314.77	10.37
314.982	10.17
315.193	9.91
315.405	9.65
315.617	9.34
315.829	8.98
316.041	8.69
316.253	8.71
316.465	8.52
316.677	8.47
316.888	8.51
317.1	8.82
317.312	8.48
317.524	9.1
317.736	9.12
317.947	9.41
318.159	9.89
318.371	10.37
318.583	10.55
318.794	10.98
319.006	11.19
319.218	11.16
319.43	11.17
319.641	11.11
319.853	10.72
320.064	11.08
320.276	10.81
320.488	11.32
320.699	11.14
320.911	11.24
321.123	11.21
321.334	11.37
321.546	11.35
321.757	11.14
321.969	11.41
322.18	11.28
322.392	11.56
322.603	11.35
322.815	11.21
323.026	10.64
323.238	10.43
323.449	10.74
323.661	10.73
323.872	10.83
324.083	11
324.295	10.63
324.506	10.59
324.718	10.4
324.929	10.07
325.14	9.92
325.352	10.12
325.563	10.24
325.774	10.75
325.986	10.86
326.197	10.76
326.408	10.97
326.62	10.57
326.831	10.42
327.042	10.9
327.253	11.52
327.464	11.47
327.676	11.96
327.887	11.79
328.098	11.76
328.309	11.41
328.52	11.25
328.732	11.41
328.943	11.21
329.154	11.05
329.365	11.13
329.576	11.42
329.787	11.2
329.998	11.01
330.209	11.29
330.42	11.19
330.631	11.73
330.842	12.1
331.053	11.94
331.264	12.08
331.475	11.92
331.686	12.21
331.897	12.04
332.108	12.3
332.319	12.35
332.53	12.27
332.741	12.33
332.952	11.89
333.163	11.82
333.374	11.45
333.585	11.37
333.795	11.54
334.006	11.56
334.217	11.39
334.428	11.39
334.639	11.35
334.849	11.01
335.06	10.54
335.271	10.91
335.482	10.4
335.692	10.97
335.903	10.95
336.114	11.22
336.325	11.2
336.535	11.43
336.746	11.62
336.957	11.9
337.167	11.69
337.378	12.17
337.589	12.05
337.799	12.49
338.01	12.06
338.22	12.09
338.431	11.74
338.642	11.84
338.852	11.41
339.063	11.4
339.273	11.47
339.484	11.23
339.694	11.19
339.905	10.97
340.115	10.67
340.326	10.79
340.536	10.28
340.746	10.42
340.957	10.76
341.167	10.68
341.378	10.62
341.588	10.67
341.799	10.23
342.009	10.03
342.219	10.08
342.43	9.85
342.64	9.71
342.85	9.56
343.061	9.73
343.271	9.77
343.481	9.71
343.691	9.46
343.902	9.73
344.112	9.68
344.322	9.73
344.532	9.83
344.743	9.4
344.953	9.25
345.163	9.1
345.373	9.41
345.583	9.48
345.793	9.42
346.004	9.52
346.214	9.74
346.424	9.74
346.634	9.74
346.844	9.65
347.054	9.53
347.264	9.56
347.474	9.85
347.684	9.85
347.894	9.96
348.104	9.74
348.314	9.71
348.524	9.51
348.734	9.87
348.944	9.76
349.154	9.65
349.364	9.48
349.574	9.78
349.784	9.66
349.994	9.58
350.204	9.61
350.413	9.33
350.623	9.43
350.833	9.23
351.043	9.22
351.253	9.06
351.463	8.54
351.672	8.45
351.882	8.51
352.092	8.54
352.302	8.34
352.511	8.34
352.721	8.46
352.931	8.53
353.141	9.04
353.35	8.74
353.56	8.91
353.77	8.64
353.979	8.77
354.189	8.66
354.399	8.56
354.608	8.55
354.818	8.77
355.027	8.43
355.237	8.42
355.447	8.36
355.656	7.94
355.866	7.8
356.075	8.09
356.285	8.21
356.494	8.34
356.704	8.51
356.913	8.68
357.123	8.68
357.332	8.73
357.542	8.48
357.751	8.79
357.96	8.77
358.17	8.78
358.379	9.06
358.589	8.82
358.798	8.5
359.007	8.27
359.217	8.22
359.426	8.2
359.635	8.36
359.845	8.51
360.054	8.36
360.263	8.37
360.472	8.3
360.682	8.41
360.891	8.15
361.1	8.17
361.309	8.32
361.519	8.42
361.728	8.57
361.937	8.55
362.146	8.48
362.355	8.4
362.564	8
362.774	7.97
362.983	7.76
363.192	7.58
363.401	7.52
363.61	8.14
363.819	7.92
364.028	7.78
364.237	7.72
364.446	7.42
364.655	7.49
364.864	7.53
365.073	7.42
365.282	7.53
365.491	7.85
365.7	8.05
365.909	8.21
366.118	8.36
366.327	8.13
366.536	8.31
366.745	8.32
366.954	8.52
367.162	8.7
367.371	8.73
367.58	8.53
367.789	8.49
367.998	8.65
368.207	8.38
368.415	8.45
368.624	8.48
368.833	8.32
369.042	8.29
369.25	8.1
369.459	8.05
369.668	7.85
369.877	7.87
370.085	7.68
370.294	7.73
370.503	7.82
370.711	7.76
370.92	8.1
371.129	7.94
371.337	7.85
371.546	7.93
371.754	7.6
371.963	7.55
372.171	7.46
372.38	7.51
372.589	7.43
372.797	7.27
373.006	7.3
373.214	7.32
373.423	7.33
373.631	6.96
373.84	7.17
374.048	6.94
374.256	6.81
374.465	7
374.673	7.09
374.882	7.15
375.09	7.15
375.298	7.22
375.507	7.29
375.715	6.99
375.923	6.63
376.132	6.62
376.34	6.57
376.548	6.44
376.757	6.63
376.965	6.54
377.173	6.56
377.381	6.62
377.59	6.54
377.798	6.17
378.006	5.82
378.214	6
378.423	6.25
378.631	6.43
378.839	6.47
379.047	6.62
379.255	6.39
379.463	6.29
379.671	6.34
379.879	6.29
380.088	6.45
380.296	6.46
380.504	6.95
380.712	7.12
380.92	6.9
381.128	6.65
381.336	6.34
381.544	6.05
381.752	5.96
381.96	6.13
382.168	6.18
382.376	6.3
382.584	6.27
382.791	6.16
382.999	6.08
383.207	5.88
383.415	5.91
383.623	5.86
383.831	6.1
384.039	6.28
384.247	6.54
384.454	6.36
384.662	6.24
384.87	6.03
385.078	5.71
385.285	5.69
385.493	5.44
385.701	5.43
385.909	5.42
386.116	5.27
386.324	5.42
386.532	5.38
386.739	5.49
386.947	5.36
387.155	5.39
387.362	5.39
387.57	5.54
387.778	5.55
387.985	5.49
388.193	5.53
388.4	5.69
388.608	5.76
388.816	5.95
389.023	5.92
389.231	5.74
389.438	5.56
389.646	5.5
389.853	5.34
390.061	5.31
390.268	5.25
390.475	5.26
390.683	5.13
390.89	5.05
391.098	4.92
391.305	4.72
391.512	4.62
391.72	4.42
391.927	4.45
392.135	4.41
392.342	4.49
392.549	4.54
392.756	4.45
392.964	4.54
393.171	4.56
393.378	4.65
393.586	4.76
393.793	4.62
394	4.64
394.207	4.71
394.414	4.68
394.622	4.58
394.829	4.59
395.036	4.55
395.243	4.69
395.45	4.71
395.657	4.63
395.864	4.76
396.072	4.82
396.279	4.61
396.486	4.88
396.693	4.78
396.9	4.83
397.107	5.19
397.314	5.13
397.521	5.17
397.728	5.18
397.935	5.09
398.142	5.07
398.349	4.99
398.556	4.93
398.763	4.81
398.97	5.07
399.177	4.9
399.383	5.08
399.59	4.97
399.797	4.86
400.004	5.13
400.211	5.1
400.418	4.9
400.625	4.95
400.831	5.04
401.038	5.02
401.245	4.91
401.452	4.78
401.658	4.81
401.865	4.89
402.072	4.84
402.279	4.81
402.485	4.71
402.692	4.6
402.899	4.64
403.105	4.57
403.312	4.51
403.519	4.47
403.725	4.53
403.932	4.56
404.138	4.7
404.345	4.47
404.552	4.48
404.758	4.49
404.965	4.38
405.171	4.42
405.378	4.39
405.584	4.37
405.791	4.51
405.997	4.51
406.204	4.54
406.41	4.47
406.617	4.47
406.823	4.28
407.029	4.38
407.236	4.25
407.442	4.24
407.649	4.21
407.855	4.16
408.061	4.11
408.268	4.1
408.474	4.03
408.68	4.17
408.887	4.18
409.093	4.17
409.299	4.1
409.505	4.1
409.712	3.95
409.918	3.86
410.124	3.83
410.33	3.9
410.537	3.93
410.743	3.91
410.949	3.86
411.155	3.91
411.361	3.72
411.567	3.55
411.773	3.42
411.98	3.52
412.186	3.69
412.392	3.72
412.598	3.83
412.804	3.82
413.01	3.88
413.216	3.91
413.422	4.04
413.628	4
413.834	3.92
414.04	3.84
414.246	3.87
414.452	3.94
414.658	3.81
414.864	3.8
415.07	3.87
415.275	3.86
415.481	3.8
415.687	3.67
415.893	3.49
416.099	3.48
416.305	3.53
416.511	3.51
416.716	3.6
416.922	3.64
417.128	3.76
417.334	3.77
417.539	3.73
417.745	3.72
417.951	3.77
418.157	3.7
418.362	3.74
418.568	3.74
418.774	3.57
418.979	3.46
419.185	3.43
419.391	3.43
419.596	3.33
419.802	3.25
420.008	2.82
420.213	2.81
420.419	2.73
420.624	2.59
420.83	2.65
421.035	2.67
421.241	2.7
421.446	2.76
421.652	2.78
421.857	2.74
422.063	2.61
422.268	2.61
422.474	2.52
422.679	2.97
422.885	2.9
423.09	2.87
423.295	2.93
423.501	2.86
423.706	2.78
423.911	2.79
424.117	2.8
424.322	2.8
424.527	2.88
424.733	2.9
424.938	2.89
425.143	2.97
425.349	2.92
425.554	3
425.759	3.08
425.964	3.08
426.169	3.18
426.375	3.16
426.58	3.16
426.785	3.14
426.99	3.16
427.195	3.08
427.4	3.23
427.605	3.43
427.811	3.39
428.016	3.44
428.221	3.3
428.426	3.23
428.631	3.2
428.836	3.14
429.041	3.15
429.246	3.1
429.451	3.11
429.656	3.14
429.861	3.23
430.066	3.17
430.271	3.01
430.476	2.97
430.681	2.96
430.886	3.05
431.09	3.11
431.295	3.15
431.5	3.1
431.705	3.19
431.91	3.18
432.115	3.16
432.32	3.09
432.524	3.1
432.729	3.03
432.934	2.98
433.139	2.97
433.343	2.95
433.548	2.84
433.753	2.93
433.958	2.84
434.162	2.84
434.367	2.9
434.572	2.93
434.776	3
434.981	2.97
435.186	2.99
435.39	3.04
435.595	3.06
435.799	3.14
436.004	3.04
436.209	3.06
436.413	2.86
436.618	2.85
436.822	2.88
437.027	2.72
437.231	2.64
437.436	2.54
437.64	2.66
437.845	2.64
438.049	2.68
438.253	2.72
438.458	2.66
438.662	2.7
438.867	2.79
439.071	2.79
439.275	2.85
439.48	2.83
439.684	2.87
439.888	2.93
440.093	2.93
440.297	2.9
440.501	2.88
440.706	2.95
440.91	2.97
441.114	3
441.318	3.01
441.523	3.01
441.727	3.03
441.931	3.05
442.135	3.04
442.339	3.11
442.543	3.11
442.748	3.17
442.952	3.15
443.156	3.16
443.36	3.09
443.564	2.99
443.768	2.93
443.972	2.97
444.176	2.97
444.38	3.04
444.584	2.94
444.788	2.93
444.992	2.89
445.196	2.92
445.4	2.76
445.604	2.75
445.808	2.72
446.012	2.61
446.216	2.6
446.42	2.62
446.624	2.55
446.828	2.5
447.032	2.47
447.235	2.51
447.439	2.53
447.643	2.51
447.847	2.48
448.051	2.57
448.254	2.59
448.458	2.55
448.662	2.59
448.866	2.7
449.069	2.77
449.273	2.79
449.477	2.71
449.681	2.75
449.884	2.76
450.088	2.78
450.292	2.78
450.495	2.75
450.699	2.79
450.902	2.74
451.106	2.79
451.31	2.84
451.513	2.83
451.717	2.71
451.92	2.77
452.124	2.78
452.327	2.75
452.531	2.84
452.734	2.84
452.938	2.88
453.141	2.86
453.345	2.9
453.548	2.95
453.752	2.95
453.955	2.92
454.158	2.92
454.362	2.97
454.565	2.96
454.769	3.06
454.972	3.05
455.175	2.92
455.379	2.93
455.582	2.84
455.785	2.87
455.988	2.82
456.192	2.73
456.395	2.69
456.598	2.66
456.801	2.66
457.005	2.64
457.208	2.5
457.411	2.46
457.614	2.43
457.817	2.39
458.021	2.36
458.224	2.3
458.427	2.32
458.63	2.34
458.833	2.34
459.036	2.38
459.239	2.39
459.442	2.35
459.645	2.37
459.848	2.48
460.051	2.48
460.254	2.46
460.457	2.58
460.66	2.67
460.863	2.71
461.066	2.63
461.269	2.67
461.472	2.73
461.675	2.7
461.878	2.66
462.081	2.62
462.284	2.55
462.486	2.53
462.689	2.55
462.892	2.56
463.095	2.55
463.298	2.44
463.5	2.52
463.703	2.56
463.906	2.59
464.109	2.55
464.311	2.57
464.514	2.67
464.717	2.71
464.92	2.89
465.122	2.83
465.325	2.89
465.528	2.88
465.73	2.81
465.933	2.78
466.135	2.69
466.338	2.73
466.541	2.64
466.743	2.57
466.946	2.42
467.148	2.41
467.351	2.42
467.553	2.3
467.756	2.29
467.958	2.23
468.161	2.25
468.363	2.35
468.566	2.41
468.768	2.46
468.971	2.41
469.173	2.36
469.375	2.43
469.578	2.57
469.78	2.6
469.983	2.56
470.185	2.64
470.387	2.65
470.59	2.72
470.792	2.75
470.994	2.58
471.196	2.57
471.399	2.54
471.601	2.51
471.803	2.59
472.005	2.67
472.208	2.59
472.41	2.52
472.612	2.55
472.814	2.48
473.016	2.51
473.218	2.46
473.421	2.49
473.623	2.53
473.825	2.53
474.027	2.58
474.229	2.68
474.431	2.72
474.633	2.73
474.835	2.81
475.037	2.88
475.239	2.97
475.441	3
475.643	3.01
475.845	2.99
476.047	2.97
476.249	3.05
476.451	3.08
476.653	3.14
476.855	3.11
477.057	3.04
477.258	3.06
477.46	3.12
477.662	3.04
477.864	2.98
478.066	2.94
478.268	2.93
478.469	2.9
478.671	2.91
478.873	2.9
479.075	2.78
479.276	2.71
479.478	2.63
479.68	2.67
479.882	2.61
480.083	2.51
480.285	2.5
480.487	2.45
480.688	2.49
480.89	2.39
481.091	2.41
481.293	2.39
481.495	2.32
481.696	2.32
481.898	2.3
482.099	2.29
482.301	2.24
482.502	2.2
482.704	2.2
482.905	2.18
483.107	2.16
483.308	2.09
483.51	2.11
483.711	2.11
483.913	2.1
484.114	2.1
484.315	2.1
484.517	2.11
484.718	2.11
484.92	2.15
485.121	2.19
485.322	2.22
485.524	2.23
485.725	2.25
485.926	2.3
486.127	2.31
486.329	2.3
486.53	2.28
486.731	2.29
486.932	2.3
487.134	2.28
487.335	2.28
487.536	2.29
487.737	2.3
487.938	2.27
488.139	2.3
488.341	2.31
488.542	2.29
488.743	2.32
488.944	2.34
489.145	2.38
489.346	2.41
489.547	2.46
489.748	2.49
489.949	2.52
490.15	2.5
490.351	2.48
490.552	2.47
490.753	2.47
490.954	2.48
491.155	2.53
491.356	2.53
491.557	2.48
491.758	2.45
491.959	2.42
492.159	2.37
492.36	2.4
492.561	2.41
492.762	2.43
492.963	2.43
493.164	2.49
493.364	2.49
493.565	2.51
493.766	2.49
493.967	2.43
494.167	2.49
494.368	2.56
494.569	2.6
494.769	2.64
494.97	2.59
495.171	2.59
495.371	2.61
495.572	2.61
495.773	2.61
495.973	2.63
496.174	2.59
496.375	2.6
496.575	2.69
496.776	2.65
496.976	2.69
497.177	2.71
497.377	2.71
497.578	2.67
497.778	2.71
497.979	2.75
498.179	2.78
498.38	2.8
498.58	2.87
498.78	2.94
498.981	2.97
499.181	2.95
499.382	3.04
499.582	3.04
499.782	2.99
499.983	2.96
500.183	3.08
500.383	2.96
500.584	2.93
500.784	3.01
500.984	2.92
501.184	2.92
501.385	2.96
501.585	2.98
501.785	2.96
501.985	3
502.185	3.01
502.386	3.04
502.586	3.14
502.786	3.11
502.986	3.32
503.186	3.29
503.386	3.27
503.586	3.39
503.786	3.41
503.987	3.42
504.187	3.37
504.387	3.43
504.587	3.39
504.787	3.44
504.987	3.49
505.187	3.4
505.387	3.44
505.587	3.41
505.786	3.48
505.986	3.47
506.186	3.47
506.386	3.45
506.586	3.44
506.786	3.52
506.986	3.5
507.186	3.49
507.386	3.46
507.585	3.43
507.785	3.48
507.985	3.51
508.185	3.49
508.384	3.44
508.584	3.46
508.784	3.48
508.984	3.49
509.183	3.5
509.383	3.51
509.583	3.64
509.782	3.74
509.982	3.83
510.182	3.88
510.381	3.88
510.581	3.9
510.781	3.96
510.98	4.09
511.18	4.16
511.379	4.13
511.579	4.22
511.778	4.25
511.978	4.22
512.177	4.19
512.377	4.17
512.576	4.14
512.776	4.11
512.975	4.17
513.175	4.2
513.374	4.28
513.573	4.25
513.773	4.29
513.972	4.37
514.172	4.43
514.371	4.51
514.57	4.63
514.77	4.64
514.969	4.73
515.168	4.77
515.367	4.87
515.567	4.81
515.766	4.84
515.965	4.83
516.164	4.86
516.364	4.82
516.563	4.86
516.762	4.84
516.961	4.86
517.16	4.82
517.359	4.86
517.559	4.82
517.758	4.83
517.957	4.88
518.156	4.98
518.355	5.01
518.554	4.96
518.753	4.95
518.952	5.09
519.151	5.09
519.35	5.08
519.549	5.13
519.748	5.29
519.947	5.33
520.146	5.43
520.345	5.55
520.544	5.64
520.743	5.64
520.942	5.68
521.141	5.83
521.339	5.88
521.538	5.8
521.737	5.89
521.936	6
522.135	6.05
522.333	6
522.532	6.04
522.731	6.09
522.93	6.16
523.129	6.11
523.327	6.13
523.526	6.15
523.725	6.19
523.923	6.22
524.122	6.29
524.321	6.3
524.519	6.32
524.718	6.34
524.917	6.36
525.115	6.4
525.314	6.39
525.512	6.36
525.711	6.41
525.909	6.41
526.108	6.44
526.306	6.47
526.505	6.51
526.703	6.49
526.902	6.5
527.1	6.49
527.299	6.49
527.497	6.49
527.696	6.47
527.894	6.45
528.092	6.45
528.291	6.46
528.489	6.5
528.688	6.48
528.886	6.46
529.084	6.47
529.283	6.49
529.481	6.54
529.679	6.63
529.877	6.68
530.076	6.78
530.274	6.86
530.472	7
530.67	7.08
530.869	7.16
531.067	7.21
531.265	7.28
531.463	7.37
531.661	7.47
531.859	7.54
532.057	7.54
532.255	7.49
532.454	7.48
532.652	7.51
532.85	7.53
533.048	7.49
533.246	7.51
533.444	7.54
533.642	7.61
533.84	7.7
534.038	7.68
534.236	7.71
534.434	7.7
534.632	7.78
534.83	7.86
535.027	7.92
535.225	7.96
535.423	8
535.621	8.12
535.819	8.16
536.017	8.13
536.215	8.13
536.412	8.13
536.61	8.17
536.808	8.11
537.006	8.23
537.203	8.34
537.401	8.41
537.599	8.48
537.797	8.47
537.994	8.59
538.192	8.62
538.39	8.68
538.587	8.78
538.785	8.8
538.983	8.85
539.18	8.85
539.378	8.96
539.575	8.9
539.773	8.85
539.97	8.82
540.168	8.82
540.366	8.82
540.563	8.81
540.761	8.77
540.958	8.8
541.155	8.8
541.353	8.8
541.55	8.79
541.748	8.79
541.945	8.74
542.143	8.79
542.34	8.85
542.537	9
542.735	9.09
542.932	9.17
543.129	9.21
543.327	9.34
543.524	9.37
543.721	9.47
543.919	9.58
544.116	9.72
544.313	9.8
544.51	9.94
544.708	9.95
544.905	9.99
545.102	9.92
545.299	9.96
545.496	9.94
545.693	9.95
545.891	9.91
546.088	9.9
546.285	9.87
546.482	9.88
546.679	9.85
546.876	9.96
547.073	9.96
547.27	10.07
547.467	10.15
547.664	10.26
547.861	10.27
548.058	10.36
548.255	10.5
548.452	10.65
548.649	10.77
548.846	10.8
549.043	10.91
549.24	11.02
549.437	10.99
549.633	11.19
549.83	11.24
550.027	11.28
550.224	11.28
550.421	11.34
550.618	11.43
550.814	11.46
551.011	11.46
551.208	11.55
551.405	11.68
551.601	11.67
551.798	11.68
551.995	11.84
552.191	11.77
552.388	11.76
552.585	11.66
552.781	11.78
552.978	11.79
553.175	11.86
553.371	11.77
553.568	11.98
553.764	11.97
553.961	11.93
554.157	11.96
554.354	12.12
554.55	12.07
554.747	12.12
554.943	12.21
555.14	12.34
555.336	12.28
555.533	12.37
555.729	12.48
555.926	12.67
556.122	12.47
556.318	12.63
556.515	12.72
556.711	12.84
556.907	12.95
557.104	13.1
557.3	13.11
557.496	13.08
557.693	13.18
557.889	13.36
558.085	13.41
558.281	13.27
558.478	13.24
558.674	13.33
558.87	13.4
559.066	13.44
559.262	13.52
559.459	13.36
559.655	13.43
559.851	13.56
560.047	13.61
560.243	13.67
560.439	13.67
560.635	13.76
560.831	13.85
561.027	13.9
561.223	13.98
561.419	14.02
561.615	14.1
561.811	14.13
562.007	14.27
562.203	14.19
562.399	14.13
562.595	14.3
562.791	14.4
562.987	14.4
563.183	14.38
563.379	14.54
563.575	14.59
563.771	14.75
563.966	14.74
564.162	14.83
564.358	14.88
564.554	14.88
564.75	14.9
564.945	14.92
565.141	14.94
565.337	14.92
565.533	14.89
565.728	14.94
565.924	14.88
566.12	14.97
566.315	15.03
566.511	15.12
566.707	15.12
566.902	15.17
567.098	15.19
567.293	15.29
567.489	15.38
567.684	15.43
567.88	15.52
568.076	15.64
568.271	15.63
568.467	15.8
568.662	15.86
568.858	15.72
569.053	15.71
569.248	15.7
569.444	15.74
569.639	15.8
569.835	15.81
570.03	15.86
570.225	15.9
570.421	15.87
570.616	15.94
570.812	15.99
571.007	16.04
571.202	16.03
571.397	16.2
571.593	16.24
571.788	16.27
571.983	16.31
572.178	16.42
572.374	16.45
572.569	16.59
572.764	16.55
572.959	16.56
573.154	16.6
573.35	16.69
573.545	16.58
573.74	16.63
573.935	16.57
574.13	16.55
574.325	16.57
574.52	16.61
574.715	16.41
574.91	16.54
575.105	16.47
575.3	16.47
575.495	16.6
575.69	16.63
575.885	16.63
576.08	16.7
576.275	16.78
576.47	16.73
576.665	16.91
576.86	16.99
577.055	16.97
577.25	17.22
577.444	17.18
577.639	17.11
577.834	17.32
578.029	17.23
578.224	17.23
578.418	17.28
578.613	17.33
578.808	17.26
579.003	17.39
579.197	17.34
579.392	17.4
579.587	17.47
579.781	17.48
579.976	17.53
580.171	17.64
580.365	17.63
580.56	17.8
580.755	17.81
580.949	17.66
581.144	17.65
581.338	17.77
581.533	17.85
581.727	17.83
581.922	17.99
582.116	17.99
582.311	18.09
582.505	18.1
582.7	18.16
582.894	18.14
583.089	18.01
583.283	18.01
583.478	18.23
583.672	18.33
583.866	18.31
584.061	18.4
584.255	18.48
584.449	18.51
584.644	18.48
584.838	18.49
585.032	18.4
585.226	18.29
585.421	18.31
585.615	18.46
585.809	18.64
586.003	18.67
586.198	18.67
586.392	18.63
586.586	18.58
586.78	18.76
586.974	18.64
587.168	18.71
587.363	18.67
587.557	18.74
587.751	18.92
587.945	18.94
588.139	18.95
588.333	18.96
588.527	18.92
588.721	18.93
588.915	19
589.109	19
589.303	18.84
589.497	18.94
589.691	18.93
589.885	19.04
590.079	19.2
590.273	19.13
590.466	19.06
590.66	19.12
590.854	19
591.048	18.98
591.242	19.02
591.436	19.09
591.629	19.27
591.823	19.27
592.017	19.25
592.211	19.33
592.404	19.22
592.598	19.17
592.792	19.32
592.986	19.45
593.179	19.46
593.373	19.62
593.567	19.72
593.76	19.71
593.954	19.71
594.147	19.59
594.341	19.65
594.535	19.69
594.728	19.74
594.922	19.79
595.115	19.78
595.309	19.9
595.502	20.02
595.696	19.95
595.889	19.85
596.083	19.92
596.276	19.97
596.47	19.89
596.663	19.9
596.856	19.98
597.05	20.01
597.243	19.98
597.437	19.98
597.63	20.09
597.823	20.02
598.017	19.98
598.21	20.04
598.403	20.11
598.596	20.06
598.79	20.18
598.983	20.29
599.176	20.39
599.369	20.35
599.563	20.37
599.756	20.44
599.949	20.45
600.142	20.48
600.335	20.44
600.528	20.28
600.722	20.3
600.915	20.45
601.108	20.56
601.301	20.59
601.494	20.68
601.687	20.87
601.88	20.82
602.073	20.76
602.266	20.8
602.459	20.88
602.652	20.85
602.845	20.8
603.038	20.91
603.231	20.93
603.424	20.9
603.617	20.84
603.809	20.69
604.002	20.74
604.195	20.59
604.388	20.64
604.581	20.73
604.774	20.63
604.966	20.54
605.159	20.53
605.352	20.64
605.545	20.63
605.737	20.76
605.93	20.81
606.123	20.9
606.316	21.03
606.508	21.06
606.701	21.06
606.894	21.1
607.086	21.06
607.279	21.16
607.471	21.39
607.664	21.48
607.857	21.49
608.049	21.53
608.242	21.45
608.434	21.39
608.627	21.26
608.819	21.23
609.012	21.19
609.204	21.17
609.397	21.25
609.589	21.33
609.782	21.43
609.974	21.39
610.166	21.34
610.359	21.35
610.551	21.32
610.743	21.47
610.936	21.46
611.128	21.61
611.32	21.63
611.513	21.62
611.705	21.6
611.897	21.68
612.09	21.63
612.282	21.55
612.474	21.66
612.666	21.87
612.858	21.96
613.051	21.78
613.243	21.62
613.435	21.64
613.627	21.52
613.819	22.09
614.011	22.23
614.203	22.38
614.395	22.22
614.588	22.31
614.78	22.48
614.972	22.37
615.164	22.21
615.356	22.16
615.548	22.47
615.74	22.66
615.932	22.66
616.124	23.07
616.315	22.74
616.507	22.75
616.699	22.74
616.891	22.88
617.083	22.98
617.275	22.97
617.467	22.96
617.659	23.05
617.85	23.1
618.042	23.02
618.234	23.05
618.426	23.14
618.618	23.01
618.809	22.91
619.001	22.77
619.193	22.85
619.384	22.72
619.576	22.59
619.768	22.42
619.959	22.45
620.151	22.43
620.343	22.42
620.534	22.48
620.726	22.48
620.917	22.5
621.109	22.35
621.301	22.38
621.492	22.52
621.684	22.52
621.875	22.51
622.067	22.56
622.258	22.83
622.45	22.83
622.641	22.86
622.832	22.81
623.024	22.86
623.215	22.8
623.407	22.86
623.598	22.86
623.789	22.94
623.981	22.99
624.172	22.97
624.363	23.04
624.555	23.05
624.746	22.85
624.937	22.76
625.129	22.73
625.32	22.69
625.511	22.59
625.702	22.6
625.893	22.56
626.085	22.62
626.276	22.6
626.467	22.37
626.658	22.28
626.849	22.4
627.04	22.43
627.231	22.41
627.422	22.53
627.614	22.56
627.805	22.54
627.996	22.55
628.187	22.55
628.378	22.66
628.569	22.73
628.76	22.8
628.951	22.9
629.142	23.17
629.332	23.13
629.523	23.13
629.714	23.3
629.905	23.25
630.096	23.31
630.287	23.37
630.478	23.42
630.669	23.51
630.859	23.42
631.05	23.39
631.241	23.25
631.432	23.32
631.623	23.24
631.813	23.06
632.004	23.05
632.195	22.93
632.385	22.94
632.576	22.82
632.767	22.93
632.957	23.03
633.148	23
633.339	23.02
633.529	22.93
633.72	23.04
633.91	22.92
634.101	22.9
634.292	22.99
634.482	23.12
634.673	23.13
634.863	23.3
635.054	23.26
635.244	23.17
635.435	23.09
635.625	22.83
635.815	22.67
636.006	22.73
636.196	22.82
636.387	23.06
636.577	22.93
636.767	22.94
636.958	22.83
637.148	22.93
637.338	22.64
637.529	22.75
637.719	22.86
637.909	22.93
638.099	23.27
638.29	23.41
638.48	23.62
638.67	23.56
638.86	23.49
639.05	23.77
639.241	23.93
639.431	23.8
639.621	23.93
639.811	24.05
640.001	24.08
640.191	23.91
640.381	23.95
640.571	23.86
640.761	23.91
640.951	23.72
641.141	23.63
641.331	23.6
641.521	23.5
641.711	23.46
641.901	23.67
642.091	23.31
642.281	23.32
642.471	23.56
642.661	23.83
642.851	23.87
643.041	23.91
643.231	23.95
643.42	23.9
643.61	24.06
643.8	24.1
643.99	24.08
644.18	24.07
644.369	24.08
644.559	24.4
644.749	24.37
644.939	24.21
645.128	24
645.318	23.99
645.508	24.08
645.697	24.05
645.887	24.16
646.076	24.26
646.266	24.34
646.456	24.76
646.645	24.77
646.835	24.68
647.024	24.72
647.214	24.93
647.403	24.95
647.593	25.18
647.782	25.2
647.972	25.19
648.161	25.19
648.351	25.28
648.54	25.19
648.73	25.17
648.919	24.62
649.108	24.6
649.298	24.8
649.487	24.86
649.677	24.74
649.866	24.77
650.055	24.83
650.244	24.85
650.434	24.72
650.623	24.74
650.812	24.52
651.002	24.54
651.191	24.69
651.38	24.84
651.569	24.94
651.758	24.86
651.947	24.93
652.137	24.86
652.326	24.67
652.515	24.69
652.704	24.83
652.893	24.89
653.082	24.98
653.271	25.23
653.46	25.18
653.649	25.06
653.838	25.26
654.027	25.43
654.216	25.54
654.405	25.36
654.594	25.49
654.783	25.48
654.972	25.44
655.161	25.19
655.35	25.13
655.539	25.1
655.728	25.23
655.916	25.21
656.105	25.4
656.294	25.06
656.483	24.96
656.672	24.82
656.86	24.91
657.049	24.84
657.238	25.06
657.427	24.97
657.615	25.08
657.804	25.21
657.993	25.09
658.181	24.98
658.37	24.96
658.559	24.76
658.747	24.98
658.936	24.95
659.125	24.87
659.313	24.86
659.502	24.99
659.69	24.92
659.879	25.03
660.067	25
660.256	25.09
660.444	25.28
660.633	25.3
660.821	25.47
661.01	25.46
661.198	25.41
661.387	25.3
661.575	25.61
661.763	25.54
661.952	25.6
662.14	25.52
662.328	25.66
662.517	25.73
662.705	25.67
662.893	25.77
663.082	25.94
663.27	25.94
663.458	26.1
663.646	26.18
663.834	26.19
664.023	26.12
664.211	26.04
664.399	25.92
664.587	25.95
664.775	25.76
664.963	25.8
665.152	26.04
665.34	25.93
665.528	26.08
665.716	26.15
665.904	25.94
666.092	25.95
666.28	26.01
666.468	26.01
666.656	26.36
666.844	26.67
667.032	26.74
667.22	26.84
667.408	26.86
667.596	26.59
667.784	26.79
667.971	26.68
668.159	26.49
668.347	26.69
668.535	26.7
668.723	26.66
668.911	26.49
669.098	26.29
669.286	26.11
669.474	26.23
669.662	26.21
669.849	26.23
670.037	26.31
670.225	26.08
670.413	25.92
670.6	26.21
670.788	26.19
670.976	26.47
671.163	26.49
671.351	26.54
671.538	26.38
671.726	26.3
671.913	26.31
672.101	26.04
672.289	25.78
672.476	25.83
672.664	25.94
672.851	25.78
673.039	25.58
673.226	25.68
673.413	25.54
673.601	25.61
673.788	25.69
673.976	25.93
674.163	26.01
674.35	25.97
674.538	26.05
674.725	26.25
674.912	26.23
675.1	26.26
675.287	26.33
675.474	26.16
675.662	26.31
675.849	26.45
676.036	26.38
676.223	26.22
676.411	26.25
676.598	26.33
676.785	26.32
676.972	26.47
677.159	26.38
677.346	26.33
677.533	26.33
677.721	26.58
677.908	26.81
678.095	26.86
678.282	26.6
678.469	26.55
678.656	26.87
678.843	27.1
679.03	27.04
679.217	26.9
679.404	26.68
679.591	26.87
679.778	26.83
679.964	26.73
680.151	26.53
680.338	26.47
680.525	26.33
680.712	26.53
680.899	26.64
681.086	26.26
681.272	26.07
681.459	26.16
681.646	26.03
681.833	26.27
682.02	26
682.206	26.07
682.393	26.18
682.58	26.38
682.766	26.45
682.953	26.28
683.14	26.49
683.326	26.79
683.513	27.13
683.7	26.95
683.886	26.76
684.073	27.08
684.259	27.15
684.446	27.5
684.632	27.51
684.819	27.56
685.005	27.63
685.192	27.68
685.378	27.8
685.565	27.3
685.751	27.14
685.938	27.24
686.124	27.39
686.31	27.62
686.497	27.62
686.683	27.53
686.87	27.31
687.056	27.29
687.242	27.32
687.429	27.21
687.615	27.22
687.801	27.43
687.987	27.44
688.174	27.45
688.36	27.5
688.546	27.55
688.732	27.2
688.918	27.39
689.105	27.44
689.291	27.81
689.477	28.06
689.663	27.89
689.849	28.01
690.035	28.24
690.221	28.33
690.407	28.25
690.593	28.27
690.779	27.94
690.965	28.07
691.151	28.31
691.337	28.07
691.523	28.29
691.709	28.26
691.895	28.19
692.081	28.18
692.267	28.25
692.453	27.72
692.639	27.31
692.825	27.44
693.011	27.51
693.196	27.39
693.382	27.27
693.568	27.36
693.754	27.44
693.94	27.25
694.125	26.86
694.311	26.62
694.497	27.19
694.682	27.46
694.868	27.67
695.054	28.18
695.239	28.09
695.425	27.94
695.611	28.28
695.796	28.4
695.982	28.47
696.168	28.56
696.353	28.71
696.539	28.99
696.724	28.95
696.91	28.72
697.095	28.27
697.281	28.15
697.466	27.95
697.652	28.03
697.837	27.9
698.023	27.83
698.208	27.75
698.393	27.64
698.579	27.32
698.764	27.2
698.949	27.18
699.135	27.47
699.32	27.37
699.505	27.45
699.691	27.53
699.876	27.5
700.061	27.45
700.246	27.88
700.432	27.68
700.617	27.34
700.802	27.32
700.987	28.19
701.172	28.26
701.358	28.12
701.543	27.84
701.728	27.92
701.913	27.99
702.098	28.08
702.283	28.07
702.468	28.45
702.653	28.3
702.838	28.73
703.023	28.93
703.208	29.18
703.393	28.96
703.578	28.8
703.763	28.66
703.948	28.9
704.133	28.81
704.318	28.94
704.503	29.13
704.688	29.06
704.873	28.91
705.057	28.71
705.242	28.61
705.427	28.93
705.612	28.96
705.797	28.66
705.981	29.16
706.166	29.25
706.351	29.11
706.536	29.33
706.72	29.09
706.905	28.74
707.09	28.99
707.274	29.05
707.459	29.33
707.644	29.42
707.828	28.84
708.013	28.66
708.197	28.97
708.382	28.3
708.567	28.26
708.751	28.18
708.936	28.08
709.12	28.35
709.305	28.11
709.489	27.92
709.673	28.21
709.858	28.18
710.042	28.1
710.227	28.65
710.411	28.98
710.596	28.65
710.78	29.09
710.964	29.75
711.149	29.73
711.333	29.74
711.517	29.79
711.702	30.31
711.886	30.46
712.07	30
712.254	30.14
712.438	30.15
712.623	30.04
712.807	29.81
712.991	29.99
713.175	30
713.359	29.16
713.544	29.52
713.728	29.37
713.912	29.54
714.096	29.24
714.28	29.13
714.464	29.19
714.648	28.72
714.832	28.79
715.016	28.59
715.2	28.57
715.384	28.69
715.568	28.47
715.752	29.03
715.936	28.96
716.12	29.37
716.304	29.17
716.488	29.39
716.671	29.71
716.855	29.91
717.039	30.09
717.223	30.02
717.407	30.18
717.59	30.08
717.774	30.02
717.958	29.86
718.142	29.5
718.325	29.27
718.509	28.6
718.693	28.84
718.877	28.78
719.06	28.45
719.244	28.22
719.428	28.28
719.611	28.38
719.795	28.62
719.978	28.76
720.162	28.72
720.345	29.42
720.529	29.32
720.713	29.1
720.896	29.58
721.08	29.43
721.263	29.73
721.446	29.69
721.63	29.91
721.813	29.81
721.997	29.66
722.18	29.66
722.364	29.64
722.547	29.81
722.73	29.62
722.914	29.69
723.097	30.21
723.28	30.08
723.464	29.82
723.647	29.49
723.83	29.51
724.013	29.36
724.197	29.85
724.38	30.38
724.563	30.73
724.746	31.32
724.929	31.56
725.112	31.2
725.296	31.65
725.479	31.6
725.662	31.52
725.845	31.37
726.028	31.45
726.211	31.54
726.394	31.85
726.577	31.83
726.76	31.46
726.943	31.34
727.126	30.91
727.309	30.44
727.492	30.51
727.675	30.05
727.858	29.92
728.041	29.96
728.224	30.28
728.407	30.56
728.589	30.47
728.772	30.45
728.955	30.26
729.138	30.42
729.321	30.58
729.503	30.37
729.686	30.62
729.869	30.96
730.052	31.31
730.234	31.44
730.417	31.45
730.6	30.98
730.782	31.17
730.965	31.7
731.148	31.53
731.33	31.47
731.513	31.08
731.695	30.76
731.878	31.12
732.061	31.16
732.243	30.83
732.426	30.75
732.608	30.3
732.791	30.55
732.973	30.89
733.156	30.41
733.338	29.92
733.52	29.86
733.703	29.96
733.885	30.47
734.068	30.37
734.25	30.15
734.432	29.73
734.615	29.94
734.797	29.59
734.979	29.71
735.162	29.33
735.344	29.61
735.526	29.83
735.708	30.08
735.891	29.34
736.073	29.13
736.255	28.78
736.437	28.65
736.619	28.76
736.802	28.9
736.984	28.79
737.166	29
737.348	29.39
737.53	29.59
737.712	29.18
737.894	29.2
738.076	28.8
738.258	29.89
738.44	30.27
738.622	30.45
738.804	30.33
738.986	29.84
739.168	29.97
739.35	30.1
739.532	30.52
739.714	30.58
739.896	30.79
740.078	31.1
740.259	31.33
740.441	31.47
740.623	31.45
740.805	31.55
740.987	31.08
741.168	31.72
741.35	32.49
741.532	32.2
741.714	32.02
741.895	32
742.077	31.71
742.259	32.22
742.44	32.31
742.622	31.9
742.804	31.98
742.985	31.43
743.167	30.94
743.348	31.89
743.53	31.56
743.711	31.9
743.893	32.51
744.075	32.53
744.256	32.38
744.438	32.77
744.619	32.12
744.8	31.99
744.982	31.73
745.163	32.24
745.345	32.94
745.526	33.17
745.707	32.72
745.889	33.39
746.07	32.77
746.252	32.25
746.433	31.94
746.614	31.71
746.795	31.7
746.977	31.81
747.158	31.93
747.339	32.02
747.52	31.55
747.702	31.31
747.883	31.65
748.064	31.81
748.245	31.59
748.426	31.5
748.607	32.17
748.788	32.7
748.97	32.37
749.151	32.36
749.332	32.85
749.513	32.93
749.694	33.45
749.875	33.43
750.056	33.02
750.237	33.09
750.418	32.37
750.599	32.56
750.78	32.45
750.96	32.07
751.141	32.1
751.322	32.83
751.503	32.59
751.684	32.09
751.865	32.02
752.046	31.55
752.226	31.81
752.407	31.93
752.588	31.92
752.769	32.15
752.949	32.33
753.13	32.02
753.311	31.37
753.492	31.23
753.672	31.42
753.853	31.85
754.034	31.95
754.214	31.55
754.395	31.68
754.575	31.43
754.756	32.19
754.937	31.47
755.117	31.91
755.298	31.3
755.478	31.33
755.659	31.45
755.839	31.21
756.02	30.84
756.2	30.31
756.381	30.52
756.561	30.92
756.741	31.14
756.922	31.52
757.102	31.65
757.283	31.93
757.463	32.66
757.643	33.33
757.823	33.73
758.004	34.23
758.184	35.19
758.364	35.56
758.545	35.26
758.725	35.06
758.905	34.98
759.085	34.26
759.265	33.63
759.446	32.67
759.626	32.76
759.806	32.1
759.986	31.65
760.166	31.52
760.346	31.2
760.526	30.7
760.706	30.35
760.886	30.8
761.066	30.93
761.246	30.71
761.426	30.85
761.606	30.93
761.786	30.99
761.966	31.04
762.146	31.05
762.326	30.85
762.506	31.07
762.686	31.31
762.866	31.03
763.046	30.91
763.225	30.5
763.405	30.27
763.585	30.29
763.765	30.41
763.945	30.65
764.124	31.21
764.304	31.83
764.484	31.84
764.664	32.04
764.843	31.7
765.023	31.63
765.203	32.08
765.382	32.15
765.562	33.09
765.741	33.14
765.921	33.43
766.101	33.76
766.28	34.03
766.46	33.69
766.639	33.05
766.819	33.58
766.998	32.96
767.178	33.54
767.357	33.57
767.537	33.72
767.716	33.91
767.896	33.58
768.075	33.23
768.254	33.87
768.434	34.67
768.613	34.25
768.792	34.65
768.972	34.26
769.151	33.84
769.33	34.78
769.51	34.49
769.689	34.87
769.868	35.28
770.047	35.11
770.226	35.3
770.406	36.28
770.585	35.46
770.764	34.69
770.943	34.7
771.122	35.09
771.301	35.61
771.48	35.82
771.66	35.49
771.839	35.47
772.018	35.58
772.197	34.58
772.376	34.57
772.555	34.09
772.734	33.16
772.913	33.09
773.092	32.97
773.271	33.79
773.449	33.06
773.628	33.04
773.807	33.17
773.986	33.41
774.165	33.85
774.344	33.12
774.523	33.48
774.701	33.71
774.88	33.5
775.059	33.81
775.238	33.68
775.417	34.94
775.595	33.57
775.774	34.02
775.953	33.4
776.131	32.35
776.31	32.53
776.489	32.77
776.667	33.11
776.846	32.41
777.025	32.26
777.203	33.17
777.382	33.91
777.56	33.99
777.739	32.64
777.917	34.13
778.096	34.34
778.274	34.52
778.453	36.07
778.631	35.5
778.81	35.96
778.988	35.85
779.166	36.75
779.345	36.81
779.523	36.77
779.702	36.72
779.88	37.12
780.058	37.49
780.237	37.19
780.415	37.43
780.593	37.54
780.771	38.33
780.95	38.71
781.128	38.57
781.306	40.06
781.484	39.94
781.662	40.07
781.841	39.85
782.019	39.36
782.197	38.34
782.375	38.14
782.553	37.12
782.731	36.42
782.909	36.98
783.087	35.46
783.265	35.9
783.443	35.17
783.621	34.08
783.799	33.95
783.977	33.34
784.155	34.04
784.333	34.06
784.511	34.46
784.689	35.4
784.867	35.69
785.045	36.36
785.223	36.08
785.4	36.8
785.578	37.13
785.756	36.69
785.934	36.83
786.112	36.54
786.289	36.91
786.467	36.23
786.645	36.1
786.823	36.28
787	35.92
787.178	36.37
787.356	35.6
787.533	35.84
787.711	35.01
787.889	34.08
788.066	33.93
788.244	34.49
788.421	34.47
788.599	34.45
788.776	34.73
788.954	35.08
789.131	35.48
789.309	35.51
789.486	36.17
789.664	36.55
789.841	36.04
790.019	36.8
790.196	36.74
790.373	38.61
790.551	37.94
790.728	39.04
790.906	40.6
791.083	40.87
791.26	40.73
791.437	39.79
791.615	39.32
791.792	39.2
791.969	38.99
792.146	40.45
792.324	40.8
792.501	41.08
792.678	40.4
792.855	39.86
793.032	39.11
793.209	38.43
793.387	37.25
793.564	36.97
793.741	37.28
793.918	38.16
794.095	37.9
794.272	37.85
794.449	37.26
794.626	35.93
794.803	36.63
794.98	36
795.157	36.84
795.334	37.39
795.511	36.54
795.688	36.72
795.864	37.26
796.041	38.09
796.218	37.45
796.395	37.3
796.572	36.98
796.749	35.31
796.925	36.34
797.102	35.75
797.279	35.96
797.456	35.27
797.632	34.5
797.809	35.23
797.986	35.87
798.162	36.17
798.339	35.9
798.516	36.3
798.692	36.55
798.869	37.16
799.046	38.23
799.222	36.88
799.399	37.19
799.575	36.84
799.752	38.32
799.928	38.49
800.105	38.21
800.281	38.58
800.458	37.25
800.634	37.34
800.811	37.16
800.987	37.43
801.163	37.46
801.34	37.78
801.516	38.94
801.692	38.41
801.869	39.11
802.045	38.14
802.221	38.51
802.398	38.98
802.574	38.34
802.75	39.62
802.926	40.27
803.103	39.35
803.279	38.11
803.455	38.07
803.631	38.6
803.807	38.49
803.983	38.31
804.16	38.18
804.336	37.47
804.512	38.38
804.688	38.28
804.864	38.49
805.04	38.58
805.216	38.3
805.392	38.97
805.568	40.16
805.744	39.43
805.92	39.46
806.096	39.6
806.272	40.55
806.448	40.27
806.623	39.93
806.799	39.22
806.975	38.51
807.151	38.56
807.327	38.29
807.503	38.26
807.678	39.78
807.854	38.72
808.03	39.52
808.206	38.85
808.381	38.21
808.557	37.67
808.733	37.81
808.908	39.07
809.084	38.56
809.26	38.49
809.435	38.26
809.611	38.38
809.787	39.07
809.962	37.92
810.138	38.82
810.313	39.18
810.489	38.73
810.664	38.49
810.84	39.24
811.015	41
811.191	42.06
811.366	44.24
811.542	44.51
811.717	45.74
811.892	46.62
812.068	46.43
812.243	47.49
812.419	47.42
812.594	46.2
812.769	47.46
812.944	46.99
813.12	46.93
813.295	44.59
813.47	44.18
813.645	41.15
813.821	42.38
813.996	41.93
814.171	40.7
814.346	40.22
814.521	40.03
814.697	39.82
814.872	41.33
815.047	41.62
815.222	42.13
815.397	41.63
815.572	41.94
815.747	41.18
815.922	42.63
816.097	41.93
816.272	42.05
816.447	43.06
816.622	42.98
816.797	41.6
816.972	41.74
817.147	41.56
817.322	40.1
817.496	41.47
817.671	41.16
817.846	41.26
818.021	40.09
818.196	40.52
818.371	41.11
818.545	40.83
818.72	40.49
818.895	39.13
819.069	39.04
819.244	37.55
819.419	37.09
819.594	37.58
819.768	36.77
819.943	36.03
820.117	35.84
820.292	35.51
820.467	34.97
820.641	34.08
820.816	33.55
820.99	33.22
821.165	33.45
821.339	33.16
821.514	33.42
821.688	32.77
821.863	32.09
822.037	31.81
822.212	31.82
822.386	31.19
822.56	31.3
822.735	31
822.909	31.02
823.084	30.85
823.258	30.51
823.432	30.08
823.606	30.08
823.781	29.71
823.955	29.88
824.129	30.45
824.303	30.62
824.478	30.52
824.652	30.91
824.826	30.82
825	31.33
825.174	31.3
825.348	31.14
825.523	31.59
825.697	31.97
825.871	31.84
826.045	32.45
826.219	32.42
826.393	32.06
826.567	32.74
826.741	32.45
826.915	32.98
827.089	32.73
827.263	32.7
827.437	32.39
827.611	32.97
827.784	33.42
827.958	33.55
828.132	33.72
828.306	33.17
828.48	33.64
828.654	33.43
828.827	32.14
829.001	33.18
829.175	33.5
829.349	33.77
829.522	33.79
829.696	34.8
829.87	35.59
830.044	35.58
830.217	36.01
830.391	35.81
830.565	35.92
830.738	36
830.912	36.81
831.085	37.97
831.259	37.48
831.432	37.28
831.606	37.89
831.779	37.27
831.953	37.42
832.126	36.61
832.3	36.29
832.473	35.79
832.647	36.15
832.82	36.92
832.994	36.81
833.167	37.11
833.34	36.84
833.514	36.38
833.687	36.2
833.86	36.27
834.034	36.15
834.207	35.62
834.38	35.14
834.553	35.95
834.727	35.6
834.9	36.45
835.073	36.04
835.246	36.22
835.419	36.46
835.593	36.33
835.766	37.86
835.939	37.25
836.112	37.35
836.285	38.04
836.458	38.83
836.631	40.51
836.804	39.32
836.977	40.98
837.15	39.9
837.323	40.76
837.496	39.83
837.669	39.36
837.842	38.97
838.015	38.38
838.188	39.22
838.361	39.08
838.533	39.23
838.706	40.4
838.879	39.46
839.052	41.25
839.225	41.06
839.398	41.4
839.57	42.49
839.743	43.73
839.916	42.79
840.088	44.3
840.261	44.42
840.434	43.99
840.607	44.49
840.779	44.94
840.952	44.16
841.124	44.61
841.297	43.29
841.47	44.62
841.642	46.11
841.815	45.46
841.987	44.4
842.16	46.06
842.332	47.01
842.505	45.48
842.677	46.71
842.85	48.55
843.022	48.4
843.194	50.72
843.367	52.25
843.539	50.95
843.712	50.47
843.884	48.82
844.056	49.83
844.229	51.89
844.401	51.38
844.573	51.84
844.745	53.52
844.918	54.28
845.09	53.44
845.262	53.38
845.434	49.73
845.606	49.61
845.779	52.92
845.951	55.47
846.123	55.05
846.295	54.11
846.467	56.18
846.639	58.26
846.811	57.39
846.983	57.64
847.155	57.06
847.327	54.19
847.499	55.28
847.671	56.24
847.843	54.47
848.015	54.27
848.187	52.91
848.359	55.99
848.531	55.75
848.703	54.8
848.875	50.79
849.047	51.79
849.218	52.03
849.39	52.62
849.562	54.9
849.734	56.93
849.905	60.06
850.077	62.46
850.249	66.26
850.421	64.25
850.592	63.03
850.764	64.03
850.936	64.71
851.107	69.97
851.279	71.59
851.451	69.72
851.622	70.64
851.794	73.45
851.965	71.94
852.137	69.93
852.308	70.9
852.48	68.42
852.651	67.72
852.823	63.1
852.994	62.63
853.166	61.93
853.337	63.63
853.509	59.52
853.68	64.02
853.851	61.94
854.023	55.86
854.194	56.89
854.365	56
854.537	55.23
854.708	58.02
854.879	62.51
855.05	69.88
855.222	69.51
855.393	70.51
855.564	69.67
855.735	70.52
855.906	66.97
856.078	73.01
856.249	77.57
856.42	80.47
856.591	80.29
856.762	76.46
856.933	73.24
857.104	73.24
857.275	68.1
857.446	68.83
857.617	68.45
857.788	64.27
857.959	65.65
858.13	72.07
858.301	69.64
858.472	71.78
858.643	67.64
858.814	69.65
858.985	69.73
859.155	71.88
859.326	66.79
859.497	75.81
859.668	74.46
859.839	74
860.009	79.92
860.18	78.15
860.351	75.36
860.522	73.99
860.692	73.68
860.863	76.47
861.034	75.03
861.204	78.29
861.375	76.78
861.546	79.96
861.716	75.63
861.887	76.56
862.057	78.73
862.228	75.99
862.398	78.84
862.569	79.34
862.739	81.01
862.91	75.72
863.08	76.37
863.251	78.91
863.421	78.81
863.592	80.98
863.762	75.22
863.932	76
864.103	76.75
864.273	76.98
864.443	79.94
864.614	74.56
864.784	71.44
864.954	70.77
865.125	78.24
865.295	71.67
865.465	73.02
865.635	72.16
865.805	68.68
865.976	72.17
866.146	68.88
866.316	70.63
866.486	72.17
866.656	67.99
866.826	73.75
866.996	77.96
867.166	77.66
867.336	77.87
867.506	76.46
867.676	74.01
867.846	73.41
868.016	72.05
868.186	70.7
868.356	72
868.526	67.76
868.696	66.18
868.866	65.16
869.036	62.57
869.206	60.51
869.376	58.48
869.545	55.11
869.715	57.45
869.885	58.17
870.055	56.77
870.224	61.9
870.394	68.59
870.564	71.9
870.734	72.64
870.903	68.65
871.073	76.65
871.243	76.92
871.412	76.67
871.582	80.04
871.751	80.84
871.921	79.28
872.091	76.65
872.26	76.44
872.43	71.35
872.599	67.2
872.769	67.76
872.938	72.07
873.108	71.81
873.277	64.47
873.446	67.61
873.616	67.09
873.785	65.47
873.955	60.9
874.124	65.88
874.293	69.18
874.463	70.7
874.632	75.37
874.801	72.86
874.971	70.71
875.14	66.18
875.309	67.75
875.478	73.22
875.647	66.2
875.817	63.7
875.986	67.81
876.155	69.98
876.324	67.12
876.493	63.55
876.662	59.78
876.831	52.52
877	53.09
877.17	54.04
877.339	55.8
877.508	61.96
877.677	59.6
877.846	65.66
878.015	68.29
878.184	66.6
878.352	66.68
878.521	66.89
878.69	71.44
878.859	73.14
879.028	72.15
879.197	70.8
879.366	66.98
879.534	62.29
879.703	57.75
879.872	53.38
880.041	51.16
880.21	48.93
880.378	47.16
880.547	46.26
880.716	45.26
880.884	42.5
881.053	41.58
881.222	42.28
881.39	41.95
881.559	40.48
881.727	40.03
881.896	39.22
882.065	39.74
882.233	39.11
882.402	38.65
882.57	37.9
882.739	38.38
882.907	37.68
883.076	36.94
883.244	36.79
883.412	36.62
883.581	35.91
883.749	36.79
883.918	37.29
884.086	38.34
884.254	38.89
884.423	39.05
884.591	39.28
884.759	40.4
884.927	39.84
885.096	42.45
885.264	46.01
885.432	47.72
885.6	47.85
885.769	50.23
885.937	51.89
886.105	55.38
886.273	54.07
886.441	55.3
886.609	57.13
886.777	61.11
886.945	60.16
887.113	62.4
887.281	61.07
887.449	58.83
887.617	59.37
887.785	61.34
887.953	60.32
888.121	61.28
888.289	60.39
888.457	63.14
888.625	63.51
888.793	65.08
888.961	65.9
889.129	71.2
889.296	71.91
889.464	72.6
889.632	73.43
889.8	74.87
889.967	75.33
890.135	82.69
