Data from 2938472_Reflection_3.txt Node
Date: Wed Jun 17 13:29:36 EDT 2015
User: robert
Spectrometer: USB4E03002
Autoset integration time: false
Trigger mode: 4
Integration Time (sec): 1.000000E-1
Scans to average: 10
Electric dark correction enabled: true
Nonlinearity correction enabled: false
Boxcar width: 5
Stray light correction enabled: false
XAxis mode: Wavelengths
Stop averaging: false
Number of Pixels in Spectrum: 3648
>>>>>Begin Spectral Data<<<<<
177.575	53.47
177.794	43.5
178.014	27.43
178.233	37.69
178.452	47.19
178.672	55.19
178.891	136.68
179.11	73.63
179.33	52.92
179.549	53.75
179.768	41.65
179.987	34.34
180.207	22.55
180.426	6.75
180.645	20.45
180.864	21.56
181.084	43.54
181.303	151.17
181.522	12.09
181.741	11.47
181.96	2.94
182.179	-34.4
182.398	-43.55
182.618	-59.39
182.837	-66.32
183.056	-62.46
183.275	-61.18
183.494	-40.84
183.713	-47.18
183.932	-21.32
184.151	-45.99
184.37	-40.7
184.589	40.45
184.808	48.7
185.027	35.82
185.246	-8.92
185.465	-22.76
185.684	-66.97
185.903	-88.29
186.122	-153.49
186.341	-696.25
186.56	-298.13
186.779	42.19
186.998	-986.83
187.216	186.51
187.435	363.75
187.654	-1487.21
187.873	335.39
188.092	-40.89
188.311	-173.99
188.53	-300.58
188.748	-294.31
188.967	-1605.03
189.186	414.1
189.405	24967.74
189.623	-623.27
189.842	-235.75
190.061	-153.84
190.28	-171.9
190.498	237.43
190.717	1435.94
190.936	-888.58
191.154	-700.14
191.373	-266.22
191.592	-150.8
191.81	-192.89
192.029	-422.33
192.248	-516.51
192.466	498.22
192.685	747.02
192.904	-59.73
193.122	-54.85
193.341	-106.13
193.559	-97.11
193.778	12.05
193.996	3.97
194.215	-126.43
194.433	55.6
194.652	57.97
194.87	33.92
195.089	37.71
195.307	472.19
195.526	267.05
195.744	307.25
195.963	155.68
196.181	111.54
196.399	100.62
196.618	126.93
196.836	201.19
197.055	193.37
197.273	350.68
197.491	200.86
197.71	151.02
197.928	167.12
198.146	159.12
198.365	232.32
198.583	2398.4
198.801	-83.22
199.019	-77.44
199.238	-37.8
199.456	98.62
199.674	156.28
199.892	751.24
200.111	318.32
200.329	27.39
200.547	135.62
200.765	113.04
200.983	195.79
201.202	19.02
201.42	-141.38
201.638	-144.6
201.856	61.85
202.074	109.45
202.292	228.15
202.51	103.47
202.728	48.42
202.946	35.07
203.165	80.74
203.383	95.93
203.601	40.47
203.819	54.23
204.037	55.44
204.255	14.89
204.473	-1821.74
204.691	-34.39
204.909	-257.29
205.127	-216.89
205.345	-392.02
205.562	-138.69
205.78	-268.19
205.998	816.22
206.216	728.6
206.434	642.65
206.652	-69.97
206.87	-89.78
207.088	-154.2
207.306	-89.7
207.523	-44.8
207.741	-3.48
207.959	-12.97
208.177	2.75
208.395	26.05
208.612	19.37
208.83	11.64
209.048	-12.72
209.266	2.87
209.483	-7.22
209.701	-16.13
209.919	-2.17
210.136	-23.84
210.354	-40.32
210.572	-40.77
210.79	-53.42
211.007	-62.3
211.225	-63.78
211.442	-67.78
211.66	-42.8
211.878	-41.05
212.095	-38.95
212.313	-32.81
212.53	-14.69
212.748	-9.32
212.966	-13.07
213.183	-16.4
213.401	-21.49
213.618	-13.96
213.836	-27.09
214.053	-61.16
214.271	-120.98
214.488	-125.85
214.705	-71.96
214.923	-143.17
215.14	-144.84
215.358	-97.34
215.575	-66.06
215.793	-270.19
216.01	-46.42
216.227	-11.6
216.445	4.13
216.662	20.9
216.879	24.15
217.097	9.9
217.314	12.9
217.531	23.33
217.749	26.35
217.966	17.49
218.183	40.87
218.4	38.99
218.618	37.99
218.835	34.46
219.052	38.71
219.269	25.19
219.487	6.25
219.704	1.71
219.921	-8.95
220.138	-1.87
220.355	10.72
220.572	-3.92
220.79	3.15
221.007	0.83
221.224	12.57
221.441	-4.73
221.658	7.23
221.875	16.01
222.092	19.72
222.309	27.1
222.526	20.26
222.743	12
222.96	19.18
223.177	7.73
223.394	6.4
223.611	2.46
223.828	19.24
224.045	21.45
224.262	22.08
224.479	21.22
224.696	18.23
224.913	15.23
225.13	15.5
225.347	15.29
225.564	17.64
225.781	17.19
225.997	14.92
226.214	12.37
226.431	11.82
226.648	11.16
226.865	10.11
227.082	10.83
227.298	12.37
227.515	11.97
227.732	11.63
227.949	10.76
228.165	11.08
228.382	12.23
228.599	12.95
228.816	13.03
229.032	12.49
229.249	12.74
229.466	12.41
229.682	10.07
229.899	10.01
230.116	7.83
230.332	9.14
230.549	9.74
230.765	9.15
230.982	6.92
231.199	5.71
231.415	4.92
231.632	5.17
231.848	5.5
232.065	4.88
232.281	6.06
232.498	6.74
232.714	5.57
232.931	4.54
233.147	4.7
233.364	5.01
233.58	4.91
233.797	5.69
234.013	4.99
234.23	5.93
234.446	7.45
234.662	9.09
234.879	12.41
235.095	14.21
235.312	13.82
235.528	12.64
235.744	13.08
235.961	14.45
236.177	14.36
236.393	13.93
236.61	13.59
236.826	12.94
237.042	11.02
237.258	8.7
237.475	7.77
237.691	9.21
237.907	10.43
238.123	11.84
238.339	10.45
238.556	10.96
238.772	11.38
238.988	9.81
239.204	9.63
239.42	10
239.636	10.47
239.853	10.15
240.069	10.08
240.285	9.42
240.501	9.16
240.717	9.87
240.933	10.08
241.149	10.97
241.365	11.4
241.581	12.29
241.797	11.65
242.013	11.76
242.229	11.8
242.445	11.68
242.661	12.42
242.877	12.86
243.093	12.17
243.309	11.33
243.525	9.91
243.741	10.5
243.957	9.97
244.173	10.63
244.388	10.41
244.604	10.34
244.82	10.3
245.036	10.11
245.252	9.87
245.468	10.12
245.683	10.72
245.899	10.84
246.115	10.63
246.331	10.38
246.547	10.48
246.762	10.28
246.978	10.37
247.194	10.14
247.409	9.69
247.625	9.63
247.841	9.74
248.057	8.92
248.272	8.63
248.488	8.27
248.703	8.31
248.919	7.71
249.135	7.59
249.35	6.93
249.566	7.72
249.782	7.96
249.997	7.58
250.213	7.54
250.428	8.1
250.644	8.16
250.859	8.02
251.075	8.26
251.29	8.35
251.506	8.83
251.721	9.49
251.937	8.36
252.152	8.22
252.368	9.01
252.583	8.02
252.798	8.28
253.014	8.1
253.229	8.02
253.445	8.18
253.66	8.51
253.875	8.43
254.091	6.94
254.306	8.1
254.521	8.93
254.737	7.69
254.952	8.03
255.167	7.28
255.383	8.69
255.598	10.03
255.813	9.49
256.028	9.68
256.244	9.31
256.459	10.12
256.674	10.15
256.889	9.53
257.104	9.49
257.32	10.02
257.535	9.93
257.75	9.38
257.965	9.06
258.18	8.75
258.395	8.51
258.61	8.78
258.826	8.41
259.041	8.18
259.256	7.9
259.471	8.09
259.686	7.37
259.901	7.32
260.116	7.18
260.331	7.15
260.546	7.17
260.761	6.9
260.976	6.44
261.191	6.66
261.406	6.72
261.621	7.04
261.836	6.88
262.05	7.15
262.265	7.47
262.48	7.77
262.695	7.15
262.91	7.74
263.125	8.2
263.34	8.19
263.555	7.95
263.769	7.51
263.984	7.81
264.199	7.87
264.414	8.2
264.629	8.09
264.843	8.08
265.058	7.79
265.273	7.57
265.488	7.53
265.702	7.59
265.917	7.59
266.132	7.07
266.346	6.63
266.561	6.43
266.776	6.39
266.99	6.4
267.205	5.92
267.42	6.7
267.634	6.85
267.849	6.43
268.063	6.25
268.278	6.86
268.492	7.76
268.707	8.4
268.922	8.17
269.136	7
269.351	6.57
269.565	6.97
269.78	6.1
269.994	6.08
270.209	6.66
270.423	6.76
270.637	6.59
270.852	6.5
271.066	6.19
271.281	6.26
271.495	7.36
271.709	7.63
271.924	7.55
272.138	7.67
272.353	7.7
272.567	6.91
272.781	6.49
272.996	6.01
273.21	6.06
273.424	6.36
273.638	7.02
273.853	6.85
274.067	6.59
274.281	6.72
274.495	7.22
274.71	7.25
274.924	7.4
275.138	7.68
275.352	7.88
275.566	7.8
275.781	7.64
275.995	6.29
276.209	6.56
276.423	6.57
276.637	6.13
276.851	5.66
277.065	5.01
277.279	5.63
277.493	5.91
277.707	5.57
277.921	5.11
278.135	5
278.349	5.21
278.563	4.51
278.777	4.23
278.991	4.24
279.205	4.96
279.419	5.31
279.633	4.66
279.847	4.79
280.061	5.45
280.275	5.95
280.489	5.9
280.703	6.76
280.917	7.23
281.131	7.39
281.344	7.28
281.558	6.79
281.772	6.83
281.986	7.29
282.2	6.89
282.414	6.57
282.627	6.31
282.841	6.14
283.055	5.91
283.269	5.66
283.482	5.92
283.696	6.23
283.91	6.34
284.123	6.49
284.337	6.24
284.551	6.51
284.764	6.78
284.978	6.74
285.192	6.7
285.405	6.67
285.619	6.57
285.833	6.55
286.046	6.58
286.26	6.79
286.473	7.07
286.687	7.05
286.9	7.03
287.114	6.96
287.327	7.46
287.541	8.11
287.754	8.16
287.968	8.28
288.181	8.14
288.395	8.28
288.608	8.36
288.822	7.99
289.035	8.61
289.248	8.61
289.462	8.78
289.675	8.54
289.889	8.38
290.102	8.23
290.315	8.49
290.529	8.77
290.742	8.78
290.955	8.61
291.169	8.53
291.382	8.32
291.595	8.76
291.808	9.03
292.022	9.2
292.235	9.35
292.448	9.74
292.661	10.15
292.875	10.32
293.088	10.38
293.301	10.59
293.514	11.16
293.727	10.94
293.94	10.47
294.153	10.23
294.367	10.57
294.58	10.7
294.793	10.72
295.006	10.78
295.219	10.81
295.432	11.05
295.645	11.03
295.858	10.99
296.071	11.33
296.284	11.66
296.497	11.85
296.71	11.76
296.923	11.64
297.136	11.61
297.349	11.68
297.562	11.65
297.775	11.75
297.988	11.94
298.201	11.87
298.414	11.76
298.626	11.93
298.839	12.1
299.052	12.09
299.265	12.41
299.478	12.81
299.691	12.63
299.903	12.73
300.116	12.7
300.329	12.83
300.542	13.1
300.755	13.46
300.967	13.43
301.18	13.84
301.393	14.01
301.605	14.14
301.818	14.04
302.031	14.02
302.243	14.1
302.456	14.16
302.669	13.83
302.881	13.48
303.094	13.24
303.307	13.38
303.519	12.86
303.732	12.93
303.944	12.95
304.157	13.12
304.37	13.62
304.582	13.65
304.795	13.78
305.007	14.11
305.22	14.82
305.432	14.94
305.645	14.58
305.857	14.79
306.069	15.18
306.282	15.09
306.494	15.19
306.707	15.19
306.919	15.35
307.132	15.08
307.344	15.49
307.556	15.39
307.769	15.3
307.981	15.48
308.193	15.21
308.406	15.03
308.618	14.96
308.83	15.08
309.043	14.9
309.255	15.2
309.467	15.25
309.679	15.19
309.892	14.8
310.104	15.08
310.316	15.46
310.528	16.17
310.74	16.1
310.953	16.35
311.165	16.09
311.377	16.48
311.589	16.28
311.801	16.65
312.013	16.51
312.225	16.67
312.437	16.61
312.649	16.35
312.862	16.27
313.074	16.3
313.286	16.31
313.498	16.05
313.71	15.62
313.922	15.65
314.134	15.9
314.346	15.87
314.558	16.22
314.77	15.96
314.982	15.79
315.193	15.48
315.405	15.44
315.617	15.83
315.829	16.29
316.041	16.54
316.253	16.47
316.465	16.01
316.677	16.19
316.888	16.4
317.1	16.89
317.312	17.3
317.524	17.26
317.736	17.29
317.947	16.98
318.159	16.76
318.371	16.62
318.583	16.23
318.794	16.12
319.006	16.18
319.218	16.07
319.43	16.11
319.641	16.22
319.853	16.08
320.064	16.3
320.276	16.19
320.488	16.28
320.699	15.92
320.911	16.41
321.123	16.57
321.334	16.86
321.546	17.11
321.757	16.87
321.969	16.65
322.18	17.21
322.392	17.2
322.603	17.81
322.815	17.64
323.026	18.19
323.238	18.32
323.449	18.92
323.661	18.46
323.872	18.93
324.083	19.72
324.295	19.99
324.506	20.18
324.718	20.34
324.929	20.52
325.14	21.56
325.352	21.97
325.563	22.84
325.774	22.44
325.986	22.93
326.197	22.71
326.408	22.47
326.62	22.5
326.831	22.5
327.042	23.21
327.253	23.33
327.464	23.21
327.676	23.23
327.887	23.32
328.098	24.27
328.309	24.86
328.52	25.34
328.732	25.73
328.943	26.24
329.154	26.72
329.365	26.78
329.576	26.76
329.787	27.13
329.998	27.39
330.209	27.1
330.42	26.82
330.631	26.93
330.842	26.84
331.053	26.71
331.264	27
331.475	27.22
331.686	27.26
331.897	27.64
332.108	27.8
332.319	28.22
332.53	28.53
332.741	28.81
332.952	28.69
333.163	28.81
333.374	29.43
333.585	29.58
333.795	29.78
334.006	30.06
334.217	30.48
334.428	30.82
334.639	30.97
334.849	31.2
335.06	31.23
335.271	31.31
335.482	31.88
335.692	31.86
335.903	31.8
336.114	31.43
336.325	31.2
336.535	31.65
336.746	31.37
336.957	31.4
337.167	31.29
337.378	31.15
337.589	31.25
337.799	31.02
338.01	30.92
338.22	31.63
338.431	31.89
338.642	32.32
338.852	31.86
339.063	32.09
339.273	31.97
339.484	31.97
339.694	32.34
339.905	32.54
340.115	32.46
340.326	32.55
340.536	31.85
340.746	31.61
340.957	31.41
341.167	31.12
341.378	31
341.588	31.04
341.799	31.02
342.009	30.97
342.219	30.89
342.43	31.12
342.64	31.35
342.85	31.55
343.061	31.61
343.271	31.64
343.481	31.82
343.691	31.92
343.902	31.8
344.112	32.05
344.322	32.18
344.532	32
344.743	31.81
344.953	31.44
345.163	31.57
345.373	31.58
345.583	31.36
345.793	31.27
346.004	30.98
346.214	31.05
346.424	30.45
346.634	30.25
346.844	30.5
347.054	30.57
347.264	30.64
347.474	30.72
347.684	30.97
347.894	31.06
348.104	30.89
348.314	31.27
348.524	31.11
348.734	31.56
348.944	31.42
349.154	31.56
349.364	31.58
349.574	31.5
349.784	31.35
349.994	31.32
350.204	31.46
350.413	31.55
350.623	31.35
350.833	31.58
351.043	31.47
351.253	31.86
351.463	31.57
351.672	31.61
351.882	31.63
352.092	31.18
352.302	31.19
352.511	31.13
352.721	31.28
352.931	30.93
353.141	30.71
353.35	30.64
353.56	30.57
353.77	30.49
353.979	30.38
354.189	30.45
354.399	30.93
354.608	30.87
354.818	30.69
355.027	30.57
355.237	30.71
355.447	30.5
355.656	30.51
355.866	30.12
356.075	30.33
356.285	30.33
356.494	30.48
356.704	30.22
356.913	30.22
357.123	30.31
357.332	30.11
357.542	30.12
357.751	30.38
357.96	30.35
358.17	30.6
358.379	30.61
358.589	30.55
358.798	30.44
359.007	30.44
359.217	30.18
359.426	30.31
359.635	30.48
359.845	30.32
360.054	30.36
360.263	30.35
360.472	30.28
360.682	30.15
360.891	30.1
361.1	30.01
361.309	29.86
361.519	29.95
361.728	29.74
361.937	29.66
362.146	29.75
362.355	29.7
362.564	29.85
362.774	29.57
362.983	29.58
363.192	29.53
363.401	29.37
363.61	29.41
363.819	29.51
364.028	29.62
364.237	29.53
364.446	29.7
364.655	29.47
364.864	29.15
365.073	29.2
365.282	29.13
365.491	29.12
365.7	29.06
365.909	28.85
366.118	28.71
366.327	28.51
366.536	28.71
366.745	28.63
366.954	28.53
367.162	28.71
367.371	28.64
367.58	28.45
367.789	28.2
367.998	28.06
368.207	27.91
368.415	27.68
368.624	27.64
368.833	27.57
369.042	27.54
369.25	27.59
369.459	27.23
369.668	27.27
369.877	27.2
370.085	27.36
370.294	27.47
370.503	27.7
370.711	27.94
370.92	27.73
371.129	27.56
371.337	27.21
371.546	26.96
371.754	26.96
371.963	26.79
372.171	26.9
372.38	26.45
372.589	26.28
372.797	26.07
373.006	25.53
373.214	25.94
373.423	25.66
373.631	25.75
373.84	26.06
374.048	26.18
374.256	26.19
374.465	25.92
374.673	26.13
374.882	26.19
375.09	26.35
375.298	26.55
375.507	26.36
375.715	26.41
375.923	26.25
376.132	25.89
376.34	25.85
376.548	25.85
376.757	26.08
376.965	25.84
377.173	25.72
377.381	25.6
377.59	25.56
377.798	25.41
378.006	25.51
378.214	25.61
378.423	25.62
378.631	25.15
378.839	25.03
379.047	24.74
379.255	25
379.463	24.87
379.671	24.92
379.879	24.83
380.088	24.76
380.296	24.36
380.504	24.1
380.712	24.08
380.92	24.22
381.128	24.18
381.336	24.22
381.544	24.11
381.752	24.2
381.96	23.77
382.168	23.79
382.376	23.65
382.584	23.46
382.791	23.39
382.999	23.29
383.207	23.31
383.415	23.29
383.623	23.09
383.831	22.76
384.039	22.56
384.247	22.75
384.454	22.5
384.662	22.44
384.87	22.6
385.078	22.48
385.285	22.33
385.493	22.16
385.701	22.09
385.909	22.12
386.116	22.23
386.324	22.18
386.532	21.98
386.739	21.92
386.947	21.91
387.155	21.84
387.362	22.04
387.57	22.13
387.778	22.23
387.985	22.21
388.193	22.07
388.4	22.03
388.608	21.91
388.816	21.99
389.023	22.1
389.231	21.95
389.438	21.9
389.646	21.7
389.853	21.59
390.061	21.42
390.268	21.14
390.475	21.22
390.683	21.03
390.89	21.06
391.098	21
391.305	20.82
391.512	20.85
391.72	20.79
391.927	20.74
392.135	20.73
392.342	20.62
392.549	20.58
392.756	20.39
392.964	20.59
393.171	20.55
393.378	20.52
393.586	20.7
393.793	20.65
394	20.51
394.207	20.5
394.414	20.46
394.622	20.43
394.829	20.43
395.036	20.52
395.243	20.34
395.45	20.34
395.657	20.1
395.864	19.86
396.072	19.7
396.279	19.87
396.486	19.94
396.693	19.95
396.9	19.99
397.107	20.12
397.314	20.03
397.521	20.05
397.728	19.99
397.935	19.9
398.142	19.71
398.349	19.86
398.556	19.75
398.763	19.65
398.97	19.51
399.177	19.37
399.383	19.26
399.59	19.22
399.797	19.2
400.004	19.2
400.211	19.24
400.418	19.23
400.625	19.15
400.831	19.07
401.038	19.06
401.245	19.07
401.452	19.13
401.658	19.21
401.865	19.24
402.072	19.17
402.279	19.09
402.485	18.97
402.692	18.99
402.899	18.81
403.105	18.77
403.312	18.85
403.519	18.83
403.725	18.91
403.932	18.77
404.138	18.6
404.345	18.62
404.552	18.5
404.758	18.7
404.965	18.73
405.171	18.87
405.378	18.84
405.584	18.71
405.791	18.62
405.997	18.46
406.204	18.5
406.41	18.76
406.617	18.8
406.823	19.04
407.029	18.64
407.236	18.58
407.442	18.44
407.649	18.71
407.855	18.69
408.061	18.66
408.268	18.61
408.474	18.66
408.68	18.55
408.887	18.37
409.093	18.19
409.299	18.46
409.505	18.47
409.712	18.44
409.918	18.2
410.124	18.14
410.33	18.12
410.537	18.11
410.743	18.06
410.949	17.85
411.155	17.8
411.361	17.81
411.567	17.62
411.773	17.62
411.98	17.62
412.186	17.63
412.392	17.62
412.598	17.75
412.804	17.74
413.01	17.62
413.216	17.77
413.422	17.86
413.628	17.86
413.834	17.9
414.04	17.96
414.246	17.98
414.452	18
414.658	17.99
414.864	17.94
415.07	18.02
415.275	17.99
415.481	17.75
415.687	17.75
415.893	17.76
416.099	17.7
416.305	17.65
416.511	17.5
416.716	17.42
416.922	17.3
417.128	17.28
417.334	17.26
417.539	17.18
417.745	17.24
417.951	17.09
418.157	17.04
418.362	17.13
418.568	17
418.774	17.06
418.979	17.04
419.185	17.04
419.391	16.97
419.596	16.83
419.802	16.83
420.008	16.8
420.213	16.79
420.419	16.71
420.624	16.61
420.83	16.56
421.035	16.55
421.241	16.61
421.446	16.62
421.652	16.61
421.857	16.64
422.063	16.58
422.268	16.59
422.474	16.55
422.679	16.54
422.885	16.49
423.09	16.54
423.295	16.5
423.501	16.33
423.706	16.33
423.911	16.23
424.117	16.12
424.322	16.11
424.527	16.04
424.733	16.04
424.938	16.08
425.143	16.14
425.349	16.01
425.554	16.03
425.759	16.07
425.964	16.01
426.169	16.02
426.375	16.11
426.58	16.13
426.785	16.1
426.99	16.01
427.195	15.78
427.4	15.72
427.605	15.83
427.811	15.54
428.016	15.47
428.221	15.58
428.426	15.61
428.631	15.48
428.836	15.44
429.041	15.46
429.246	15.51
429.451	15.64
429.656	15.62
429.861	15.65
430.066	15.77
430.271	15.83
430.476	15.84
430.681	15.85
430.886	16
431.09	16.09
431.295	16.16
431.5	16.12
431.705	16.12
431.91	16.19
432.115	16.18
432.32	16.2
432.524	16.1
432.729	15.93
432.934	15.84
433.139	15.87
433.343	15.78
433.548	15.66
433.753	15.78
433.958	15.86
434.162	15.74
434.367	15.73
434.572	15.73
434.776	15.79
434.981	15.94
435.186	16.02
435.39	15.89
435.595	15.9
435.799	15.92
436.004	15.82
436.209	15.72
436.413	15.77
436.618	15.8
436.822	15.85
437.027	15.93
437.231	15.84
437.436	15.88
437.64	15.79
437.845	15.8
438.049	15.76
438.253	15.89
438.458	15.9
438.662	15.83
438.867	15.84
439.071	15.81
439.275	15.69
439.48	15.66
439.684	15.62
439.888	15.66
440.093	15.62
440.297	15.68
440.501	15.54
440.706	15.61
440.91	15.68
441.114	15.58
441.318	15.59
441.523	15.59
441.727	15.55
441.931	15.55
442.135	15.56
442.339	15.58
442.543	15.47
442.748	15.52
442.952	15.44
443.156	15.39
443.36	15.52
443.564	15.54
443.768	15.61
443.972	15.69
444.176	15.71
444.38	15.71
444.584	15.74
444.788	15.84
444.992	15.87
445.196	15.77
445.4	15.78
445.604	15.58
445.808	15.5
446.012	15.41
446.216	15.34
446.42	15.23
446.624	15.1
446.828	15.03
447.032	14.94
447.235	14.79
447.439	14.87
447.643	14.76
447.847	14.83
448.051	14.81
448.254	14.84
448.458	14.81
448.662	14.77
448.866	14.9
449.069	14.84
449.273	14.85
449.477	14.87
449.681	14.89
449.884	14.99
450.088	14.97
450.292	14.94
450.495	14.91
450.699	15.01
450.902	15.04
451.106	15.04
451.31	15.01
451.513	15.03
451.717	15
451.92	14.82
452.124	14.81
452.327	14.73
452.531	14.72
452.734	14.81
452.938	14.69
453.141	14.61
453.345	14.63
453.548	14.64
453.752	14.63
453.955	14.6
454.158	14.71
454.362	14.62
454.565	14.65
454.769	14.75
454.972	14.58
455.175	14.63
455.379	14.7
455.582	14.66
455.785	14.58
455.988	14.48
456.192	14.52
456.395	14.49
456.598	14.58
456.801	14.74
457.005	14.68
457.208	14.82
457.411	14.83
457.614	14.78
457.817	14.82
458.021	14.92
458.224	14.99
458.427	14.95
458.63	15
458.833	15.05
459.036	14.89
459.239	14.92
459.442	14.84
459.645	14.8
459.848	14.9
460.051	14.86
460.254	14.88
460.457	14.88
460.66	15.02
460.863	14.93
461.066	14.87
461.269	14.94
461.472	14.96
461.675	14.93
461.878	14.91
462.081	14.95
462.284	15.08
462.486	15.09
462.689	15.16
462.892	15.12
463.095	15.23
463.298	15.38
463.5	15.43
463.703	15.49
463.906	15.56
464.109	15.65
464.311	15.71
464.514	15.63
464.717	15.65
464.92	15.68
465.122	15.65
465.325	15.67
465.528	15.62
465.73	15.61
465.933	15.52
466.135	15.53
466.338	15.5
466.541	15.44
466.743	15.45
466.946	15.51
467.148	15.48
467.351	15.69
467.553	15.77
467.756	15.72
467.958	15.8
468.161	15.87
468.363	16.02
468.566	16.05
468.768	16.06
468.971	16.12
469.173	16.07
469.375	16.03
469.578	15.75
469.78	15.63
469.983	15.63
470.185	15.55
470.387	15.52
470.59	15.47
470.792	15.53
470.994	15.49
471.196	15.43
471.399	15.45
471.601	15.48
471.803	15.5
472.005	15.55
472.208	15.52
472.41	15.64
472.612	15.69
472.814	15.6
473.016	15.61
473.218	15.7
473.421	15.79
473.623	15.71
473.825	15.8
474.027	15.84
474.229	15.91
474.431	15.99
474.633	15.93
474.835	15.91
475.037	15.96
475.239	15.96
475.441	15.86
475.643	15.79
475.845	15.83
476.047	15.82
476.249	15.81
476.451	15.73
476.653	15.78
476.855	15.71
477.057	15.72
477.258	15.67
477.46	15.56
477.662	15.54
477.864	15.53
478.066	15.53
478.268	15.53
478.469	15.52
478.671	15.5
478.873	15.48
479.075	15.54
479.276	15.56
479.478	15.53
479.68	15.62
479.882	15.69
480.083	15.72
480.285	15.71
480.487	15.6
480.688	15.69
480.89	15.79
481.091	15.76
481.293	15.74
481.495	15.74
481.696	15.71
481.898	15.68
482.099	15.61
482.301	15.58
482.502	15.54
482.704	15.51
482.905	15.43
483.107	15.35
483.308	15.32
483.51	15.3
483.711	15.23
483.913	15.25
484.114	15.22
484.315	15.21
484.517	15.24
484.718	15.24
484.92	15.31
485.121	15.4
485.322	15.41
485.524	15.42
485.725	15.44
485.926	15.48
486.127	15.43
486.329	15.44
486.53	15.43
486.731	15.4
486.932	15.41
487.134	15.36
487.335	15.3
487.536	15.31
487.737	15.32
487.938	15.3
488.139	15.3
488.341	15.39
488.542	15.43
488.743	15.54
488.944	15.55
489.145	15.64
489.346	15.71
489.547	15.82
489.748	15.88
489.949	15.9
490.15	15.89
490.351	15.88
490.552	15.9
490.753	15.92
490.954	15.9
491.155	15.9
491.356	15.89
491.557	15.92
491.758	15.89
491.959	15.85
492.159	15.83
492.36	15.89
492.561	15.91
492.762	15.9
492.963	15.96
493.164	16.05
493.364	16.12
493.565	16.15
493.766	16.12
493.967	16.24
494.167	16.35
494.368	16.56
494.569	16.65
494.769	16.77
494.97	16.81
495.171	16.76
495.371	16.74
495.572	16.86
495.773	16.92
495.973	17
496.174	16.95
496.375	16.93
496.575	16.89
496.776	16.96
496.976	16.99
497.177	16.99
497.377	17.09
497.578	17.16
497.778	17.12
497.979	17.18
498.179	17.25
498.38	17.32
498.58	17.43
498.78	17.51
498.981	17.54
499.181	17.63
499.382	17.88
499.582	17.97
499.782	18.1
499.983	18.18
500.183	18.3
500.383	18.38
500.584	18.51
500.784	18.64
500.984	18.73
501.184	18.79
501.385	18.81
501.585	18.81
501.785	18.88
501.985	18.96
502.185	19.08
502.386	19.16
502.586	19.18
502.786	19.24
502.986	19.36
503.186	19.53
503.386	19.64
503.586	19.84
503.786	19.85
503.987	19.94
504.187	20.05
504.387	20.13
504.587	20.21
504.787	20.37
504.987	20.49
505.187	20.56
505.387	20.59
505.587	20.68
505.786	20.8
505.986	20.93
506.186	21.04
506.386	21.08
506.586	21.29
506.786	21.33
506.986	21.46
507.186	21.56
507.386	21.62
507.585	21.66
507.785	21.78
507.985	21.83
508.185	21.99
508.384	22.11
508.584	22.28
508.784	22.27
508.984	22.47
509.183	22.49
509.383	22.57
509.583	22.67
509.782	22.85
509.982	22.96
510.182	23.12
510.381	23.23
510.581	23.29
510.781	23.36
510.98	23.48
511.18	23.61
511.379	23.8
511.579	23.96
511.778	24.21
511.978	24.27
512.177	24.35
512.377	24.47
512.576	24.52
512.776	24.63
512.975	24.72
513.175	24.84
513.374	24.91
513.573	24.98
513.773	25.16
513.972	25.22
514.172	25.44
514.371	25.67
514.57	25.68
514.77	25.88
514.969	26.03
515.168	26.24
515.367	26.46
515.567	26.68
515.766	26.9
515.965	27.04
516.164	27.19
516.364	27.23
516.563	27.2
516.762	27.37
516.961	27.57
517.16	27.65
517.359	27.67
517.559	27.69
517.758	27.74
517.957	27.73
518.156	27.76
518.355	27.8
518.554	27.89
518.753	28.03
518.952	28.13
519.151	28.21
519.35	28.3
519.549	28.43
519.748	28.49
519.947	28.61
520.146	28.82
520.345	28.99
520.544	29.04
520.743	29.22
520.942	29.41
521.141	29.56
521.339	29.61
521.538	29.78
521.737	29.98
521.936	30.23
522.135	30.28
522.333	30.39
522.532	30.51
522.731	30.68
522.93	30.83
523.129	30.91
523.327	31.01
523.526	31.11
523.725	31.25
523.923	31.38
524.122	31.47
524.321	31.51
524.519	31.6
524.718	31.67
524.917	31.8
525.115	31.86
525.314	31.98
525.512	32.13
525.711	32.27
525.909	32.37
526.108	32.42
526.306	32.56
526.505	32.73
526.703	32.71
526.902	32.76
527.1	32.75
527.299	32.77
527.497	32.74
527.696	32.68
527.894	32.63
528.092	32.61
528.291	32.62
528.489	32.57
528.688	32.54
528.886	32.61
529.084	32.62
529.283	32.68
529.481	32.73
529.679	32.84
529.877	33.05
530.076	33.26
530.274	33.43
530.472	33.59
530.67	33.74
530.869	33.85
531.067	33.96
531.265	34.01
531.463	34.1
531.661	34.17
531.859	34.21
532.057	34.18
532.255	34.18
532.454	34.14
532.652	34.06
532.85	34.02
533.048	33.98
533.246	33.94
533.444	34.02
533.642	34.06
533.84	34.13
534.038	34.18
534.236	34.31
534.434	34.44
534.632	34.55
534.83	34.72
535.027	34.87
535.225	35
535.423	35.06
535.621	35.06
535.819	35.04
536.017	35.12
536.215	35.1
536.412	35.04
536.61	34.91
536.808	34.92
537.006	34.96
537.203	34.98
537.401	35.01
537.599	35.13
537.797	35.26
537.994	35.46
538.192	35.65
538.39	35.93
538.587	36.27
538.785	36.45
538.983	36.6
539.18	36.61
539.378	36.63
539.575	36.68
539.773	36.74
539.97	36.76
540.168	36.69
540.366	36.6
540.563	36.5
540.761	36.32
540.958	36.26
541.155	36.2
541.353	36.21
541.55	36.14
541.748	36.17
541.945	36.1
542.143	36.06
542.34	36.1
542.537	36.06
542.735	36.1
542.932	36.17
543.129	36.24
543.327	36.23
543.524	36.23
543.721	36.44
543.919	36.47
544.116	36.56
544.313	36.65
544.51	36.72
544.708	36.86
544.905	36.94
545.102	36.97
545.299	37.01
545.496	37.05
545.693	37.07
545.891	36.95
546.088	36.87
546.285	36.86
546.482	36.9
546.679	36.81
546.876	36.68
547.073	36.66
547.27	36.65
547.467	36.74
547.664	36.74
547.861	36.72
548.058	36.86
548.255	37.01
548.452	37.06
548.649	37.01
548.846	37.22
549.043	37.4
549.24	37.45
549.437	37.57
549.633	37.51
549.83	37.55
550.027	37.67
550.224	37.69
550.421	37.75
550.618	37.87
550.814	37.89
551.011	37.87
551.208	37.89
551.405	37.88
551.601	37.83
551.798	37.95
551.995	38.01
552.191	37.97
552.388	37.95
552.585	37.94
552.781	37.94
552.978	37.92
553.175	37.96
553.371	37.95
553.568	37.96
553.764	38.07
553.961	37.94
554.157	37.88
554.354	38.01
554.55	37.99
554.747	37.94
554.943	37.84
555.14	37.83
555.336	37.84
555.533	37.86
555.729	37.99
555.926	37.98
556.122	38.05
556.318	38.22
556.515	38.09
556.711	38.14
556.907	38.29
557.104	38.38
557.3	38.49
557.496	38.5
557.693	38.54
557.889	38.55
558.085	38.53
558.281	38.53
558.478	38.54
558.674	38.76
558.87	38.97
559.066	38.94
559.262	38.94
559.459	38.95
559.655	38.98
559.851	39.17
560.047	39.14
560.243	39.17
560.439	39.34
560.635	39.4
560.831	39.41
561.027	39.37
561.223	39.34
561.419	39.37
561.615	39.37
561.811	39.35
562.007	39.25
562.203	39.43
562.399	39.57
562.595	39.66
562.791	39.66
562.987	39.83
563.183	39.73
563.379	39.83
563.575	40
563.771	40.21
563.966	40.37
564.162	40.44
564.358	40.42
564.554	40.37
564.75	40.29
564.945	40.33
565.141	40.29
565.337	40.42
565.533	40.42
565.728	40.37
565.924	40.25
566.12	40.22
566.315	40.1
566.511	40.15
566.707	40.22
566.902	40.25
567.098	40.26
567.293	40.2
567.489	40.28
567.684	40.3
567.88	40.32
568.076	40.5
568.271	40.58
568.467	40.75
568.662	40.66
568.858	40.74
569.053	40.8
569.248	40.85
569.444	40.96
569.639	41
569.835	41.1
570.03	41.14
570.225	41.06
570.421	41.11
570.616	41.25
570.812	41.35
571.007	41.39
571.202	41.45
571.397	41.54
571.593	41.45
571.788	41.37
571.983	41.36
572.178	41.38
572.374	41.41
572.569	41.42
572.764	41.29
572.959	41.37
573.154	41.37
573.35	41.38
573.545	41.34
573.74	41.5
573.935	41.67
574.13	41.66
574.325	41.66
574.52	41.71
574.715	41.83
574.91	41.85
575.105	41.83
575.3	41.77
575.495	41.71
575.69	41.67
575.885	41.56
576.08	41.46
576.275	41.52
576.47	41.59
576.665	41.66
576.86	41.53
577.055	41.64
577.25	41.54
577.444	41.68
577.639	41.83
577.834	41.96
578.029	42.11
578.224	42.16
578.418	42.27
578.613	42.26
578.808	42.19
579.003	42.22
579.197	42.11
579.392	42.29
579.587	42.21
579.781	42.07
579.976	42.17
580.171	42.24
580.365	42.35
580.56	42.23
580.755	42.29
580.949	42.34
581.144	42.28
581.338	42.4
581.533	42.51
581.727	42.64
581.922	42.87
582.116	42.81
582.311	42.81
582.505	42.8
582.7	42.98
582.894	42.99
583.089	43.06
583.283	43.19
583.478	43.25
583.672	43.29
583.866	43.3
584.061	43.21
584.255	43.12
584.449	43.28
584.644	43.14
584.838	43.11
585.032	43.19
585.226	43.15
585.421	43.2
585.615	43.25
585.809	43.31
586.003	43.34
586.198	43.37
586.392	43.54
586.586	43.35
586.78	43.52
586.974	43.49
587.168	43.55
587.363	43.73
587.557	43.77
587.751	43.77
587.945	43.81
588.139	43.92
588.333	44.02
588.527	44.07
588.721	44.13
588.915	44.18
589.109	44.38
589.303	44.33
589.497	44.27
589.691	44.25
589.885	44.34
590.079	44.27
590.273	44.14
590.466	44.19
590.66	44.31
590.854	44.41
591.048	44.27
591.242	44.23
591.436	44.37
591.629	44.39
591.823	44.52
592.017	44.62
592.211	44.57
592.404	44.77
592.598	44.7
592.792	44.71
592.986	44.78
593.179	45.08
593.373	45.16
593.567	45.18
593.76	45.33
593.954	45.32
594.147	45.3
594.341	45.39
594.535	45.41
594.728	45.5
594.922	45.57
595.115	45.68
595.309	45.6
595.502	45.57
595.696	45.64
595.889	45.56
596.083	45.58
596.276	45.48
596.47	45.44
596.663	45.33
596.856	45.2
597.05	45.02
597.243	44.99
597.437	45.07
597.63	44.97
597.823	44.91
598.017	44.92
598.21	44.92
598.403	44.89
598.596	44.82
598.79	44.87
598.983	44.96
599.176	45
599.369	44.86
599.563	44.79
599.756	44.71
599.949	44.78
600.142	44.72
600.335	44.86
600.528	45.19
600.722	45.37
600.915	45.37
601.108	45.36
601.301	45.54
601.494	45.61
601.687	45.52
601.88	45.69
602.073	45.78
602.266	45.98
602.459	45.9
602.652	45.8
602.845	45.81
603.038	45.88
603.231	46.08
603.424	46.01
603.617	46.05
603.809	46.03
604.002	46.08
604.195	45.89
604.388	45.7
604.581	45.7
604.774	45.75
604.966	45.68
605.159	45.48
605.352	45.3
605.545	45.27
605.737	45.4
605.93	45.57
606.123	45.66
606.316	45.78
606.508	46.09
606.701	46.2
606.894	46.17
607.086	46.29
607.279	46.44
607.471	46.5
607.664	46.64
607.857	46.56
608.049	46.44
608.242	46.32
608.434	46.32
608.627	46.19
608.819	46.18
609.012	46.01
609.204	45.93
609.397	46.19
609.589	46.23
609.782	46.15
609.974	46.09
610.166	46.14
610.359	46.21
610.551	46.28
610.743	46.21
610.936	46.22
611.128	46.28
611.32	46.37
611.513	46.31
611.705	46.36
611.897	46.43
612.09	46.63
612.282	46.76
612.474	46.72
612.666	46.74
612.858	46.82
613.051	46.69
613.243	46.93
613.435	46.78
613.627	46.65
613.819	46.66
614.011	46.73
614.203	46.45
614.395	46.41
614.588	46.33
614.78	46.32
614.972	46.44
615.164	46.55
615.356	46.68
615.548	46.99
615.74	46.82
615.932	47.02
616.124	46.9
616.315	47.07
616.507	47.16
616.699	47.46
616.891	47.63
617.083	47.53
617.275	47.57
617.467	47.44
617.659	47.35
617.85	47.52
618.042	47.33
618.234	47.2
618.426	47.15
618.618	47.14
618.809	47.08
619.001	46.91
619.193	47.1
619.384	47.25
619.576	47.29
619.768	47.22
619.959	47.22
620.151	47.14
620.343	47.47
620.534	47.46
620.726	47.22
620.917	47.19
621.109	47.26
621.301	47.25
621.492	47.14
621.684	47.06
621.875	47.12
622.067	47.2
622.258	47.29
622.45	47.21
622.641	47.13
622.832	47.34
623.024	47.41
623.215	47.48
623.407	47.39
623.598	47.68
623.789	47.78
623.981	48.01
624.172	47.92
624.363	48
624.555	48
624.746	48.23
624.937	48.36
625.129	48.29
625.32	48.31
625.511	48.46
625.702	48.23
625.893	48.39
626.085	48.15
626.276	48.26
626.467	48.29
626.658	48.28
626.849	48.07
627.04	47.88
627.231	47.97
627.422	47.9
627.614	47.85
627.805	47.66
627.996	47.44
628.187	47.52
628.378	47.46
628.569	47.45
628.76	47.48
628.951	47.6
629.142	47.7
629.332	47.64
629.523	47.5
629.714	47.46
629.905	47.79
630.096	47.85
630.287	47.86
630.478	47.99
630.669	47.97
630.859	47.93
631.05	47.77
631.241	47.87
631.432	47.91
631.623	48.18
631.813	48.06
632.004	48
632.195	47.92
632.385	48.04
632.576	48
632.767	47.99
632.957	47.85
633.148	47.85
633.339	47.68
633.529	47.62
633.72	47.46
633.91	47.45
634.101	47.4
634.292	47.32
634.482	47
634.673	46.91
634.863	46.78
635.054	46.89
635.244	47.14
635.435	47.14
635.625	47.05
635.815	46.96
636.006	46.98
636.196	46.85
636.387	47.17
636.577	47.35
636.767	47.48
636.958	47.72
637.148	47.8
637.338	47.77
637.529	47.97
637.719	48.24
637.909	48.45
638.099	48.66
638.29	48.72
638.48	48.46
638.67	48.53
638.86	48.35
639.05	48.31
639.241	48.19
639.431	48.1
639.621	48.07
639.811	48.08
640.001	48.02
640.191	47.86
640.381	48.02
640.571	48.31
640.761	48.42
640.951	48.49
641.141	48.43
641.331	48.78
641.521	48.8
641.711	48.72
641.901	48.61
642.091	48.89
642.281	48.91
642.471	48.8
642.661	48.51
642.851	48.24
643.041	48.55
643.231	48.52
643.42	48.48
643.61	48.43
643.8	48.37
643.99	48.32
644.18	48.14
644.369	48.34
644.559	48.45
644.749	48.72
644.939	48.82
645.128	48.56
645.318	48.51
645.508	48.3
645.697	48.32
645.887	48.46
646.076	48.65
646.266	48.64
646.456	48.36
646.645	48.47
646.835	48.14
647.024	48.21
647.214	48.15
647.403	48.09
647.593	48.24
647.782	48.4
647.972	48.33
648.161	48.36
648.351	48.31
648.54	48.55
648.73	48.52
648.919	48.79
649.108	48.7
649.298	48.95
649.487	49.01
649.677	49.04
649.866	48.87
650.055	49.17
650.244	48.91
650.434	48.94
650.623	48.81
650.812	48.68
651.002	48.69
651.191	48.65
651.38	48.46
651.569	48.62
651.758	48.41
651.947	48.39
652.137	48.12
652.326	48.29
652.515	48.21
652.704	48.21
652.893	48.06
653.082	48.15
653.271	48.47
653.46	48.32
653.649	48.31
653.838	48.37
654.027	48.42
654.216	48.78
654.405	48.61
654.594	48.64
654.783	48.98
654.972	49.42
655.161	49.42
655.35	49.06
655.539	49.36
655.728	49.25
655.916	49.28
656.105	49.29
656.294	49.3
656.483	49.66
656.672	49.78
656.86	49.6
657.049	49.49
657.238	49.28
657.427	49.52
657.615	49.56
657.804	49.58
657.993	49.63
658.181	49.8
658.37	49.46
658.559	49.15
658.747	49.02
658.936	49.11
659.125	49.34
659.313	49.31
659.502	49.31
659.69	49.23
659.879	49.34
660.067	49.22
660.256	49.29
660.444	49.21
660.633	49.46
660.821	49.62
661.01	49.48
661.198	49.12
661.387	49.31
661.575	49.12
661.763	49.03
661.952	48.83
662.14	48.99
662.328	48.72
662.517	49
662.705	48.81
662.893	48.79
663.082	48.71
663.27	48.69
663.458	48.74
663.646	48.75
663.834	48.92
664.023	49.01
664.211	48.89
664.399	48.94
664.587	48.91
664.775	49.06
664.963	48.93
665.152	48.9
665.34	48.69
665.528	48.51
665.716	48.59
665.904	48.48
666.092	48.56
666.28	48.89
666.468	49.08
666.656	49.27
666.844	49.27
667.032	49.55
667.22	49.86
667.408	50.12
667.596	50.42
667.784	50.42
667.971	50.5
668.159	50.75
668.347	50.36
668.535	50.24
668.723	50.08
668.911	49.98
669.098	49.87
669.286	49.58
669.474	49.43
669.662	49.43
669.849	49.47
670.037	49.45
670.225	49.12
670.413	49.3
670.6	49.28
670.788	49.26
670.976	49.12
671.163	49.11
671.351	48.96
671.538	49.24
671.726	48.98
671.913	49.02
672.101	48.96
672.289	48.82
672.476	48.75
672.664	48.9
672.851	48.88
673.039	49.07
673.226	49.14
673.413	49.3
673.601	49.31
673.788	49.47
673.976	49.31
674.163	49.33
674.35	49.52
674.538	49.66
674.725	49.82
674.912	49.89
675.1	50.01
675.287	50.03
675.474	50.07
675.662	49.91
675.849	49.85
676.036	50.04
676.223	50.31
676.411	50.4
676.598	50.17
676.785	50.11
676.972	50.15
677.159	50.47
677.346	50.48
677.533	50.62
677.721	50.65
677.908	50.61
678.095	50.48
678.282	50.24
678.469	50.24
678.656	50.6
678.843	50.57
679.03	50.72
679.217	50.6
679.404	50.58
679.591	50.62
679.778	50.61
679.964	50.64
680.151	50.56
680.338	50.76
680.525	50.79
680.712	50.45
680.899	50.58
681.086	50.41
681.272	50.18
681.459	50.3
681.646	50.41
681.833	50.43
682.02	50.51
682.206	50.7
682.393	50.25
682.58	50.48
682.766	50.63
682.953	50.41
683.14	50.59
683.326	50.59
683.513	50.34
683.7	50.06
683.886	50.1
684.073	49.98
684.259	50.08
684.446	50.34
684.632	50.15
684.819	50.28
685.005	50.14
685.192	50.16
685.378	50.31
685.565	50.54
685.751	50.67
685.938	50.58
686.124	50.53
686.31	50.57
686.497	50.34
686.683	50.14
686.87	50.39
687.056	50.4
687.242	50.28
687.429	50.2
687.615	49.92
687.801	49.91
687.987	50.17
688.174	50.36
688.36	50.38
688.546	50.69
688.732	50.85
688.918	50.84
689.105	50.8
689.291	50.58
689.477	50.8
689.663	51.12
689.849	51.21
690.035	51.19
690.221	50.97
690.407	50.9
690.593	50.86
690.779	50.94
690.965	50.55
691.151	50.5
691.337	50.56
691.523	50.29
691.709	50.38
691.895	50.38
692.081	50.08
692.267	50.12
692.453	50.15
692.639	49.97
692.825	49.86
693.011	50.02
693.196	50.22
693.382	50.32
693.568	50.52
693.754	50.26
693.94	49.95
694.125	49.97
694.311	50.15
694.497	50.24
694.682	50.2
694.868	50.27
695.054	50.12
695.239	50.07
695.425	50.23
695.611	50.38
695.796	50.55
695.982	50.83
696.168	50.98
696.353	50.83
696.539	50.9
696.724	51.09
696.91	51.05
697.095	51.12
697.281	51.47
697.466	51.24
697.652	51.23
697.837	50.91
698.023	50.89
698.208	50.92
698.393	50.83
698.579	50.58
698.764	50.39
698.949	50.07
699.135	50.21
699.32	49.69
699.505	49.46
699.691	49.12
699.876	49.17
700.061	48.88
700.246	48.75
700.432	48.71
700.617	48.85
700.802	48.95
700.987	49.24
701.172	48.81
701.358	49.17
701.543	49.7
701.728	49.85
701.913	50.27
702.098	50.41
702.283	50.57
702.468	50.93
702.653	50.84
702.838	50.79
703.023	51.17
703.208	51.4
703.393	51.45
703.578	51.47
703.763	51.51
703.948	51.57
704.133	51.58
704.318	51.38
704.503	51.06
704.688	51.02
704.873	51.11
705.057	50.9
705.242	50.99
705.427	50.98
705.612	50.97
705.797	50.87
705.981	50.79
706.166	50.97
706.351	50.97
706.536	50.76
706.72	51.04
706.905	51.36
707.09	51.39
707.274	50.99
707.459	50.53
707.644	50.32
707.828	50.15
708.013	50.13
708.197	49.97
708.382	49.95
708.567	50.34
708.751	50.45
708.936	50.41
709.12	49.99
709.305	50.14
709.489	50.09
709.673	50.22
709.858	50.32
710.042	50.62
710.227	50.53
710.411	50.63
710.596	50.69
710.78	50.39
710.964	50.42
711.149	50.95
711.333	51.22
711.517	51.49
711.702	51.64
711.886	51.35
712.07	51.13
712.254	51.36
712.438	51.65
712.623	51.79
712.807	51.79
712.991	51.82
713.175	51.57
713.359	51.33
713.544	51.36
713.728	50.91
713.912	51.01
714.096	50.76
714.28	50.36
714.464	50.14
714.648	50.19
714.832	50.07
715.016	49.83
715.2	49.92
715.384	50.03
715.568	49.76
715.752	50.2
715.936	50.16
716.12	50.36
716.304	50.81
716.488	50.46
716.671	50.36
716.855	50.36
717.039	50.02
717.223	50.24
717.407	49.94
717.59	50.18
717.774	50.01
717.958	50.22
718.142	49.89
718.325	49.34
718.509	49.6
718.693	49.4
718.877	49.32
719.06	49.9
719.244	49.59
719.428	50.05
719.611	49.81
719.795	49.86
719.978	49.83
720.162	49.69
720.345	49.78
720.529	49.86
720.713	49.93
720.896	50.22
721.08	50.12
721.263	50.4
721.446	49.92
721.63	50.8
721.813	50.72
721.997	50.94
722.18	51.32
722.364	51.61
722.547	51.32
722.73	51.31
722.914	51.15
723.097	50.8
723.28	50.45
723.464	50.69
723.647	50.17
723.83	50.08
724.013	50.11
724.197	49.9
724.38	49.98
724.563	50.14
724.746	49.79
724.929	50.23
725.112	50.32
725.296	50.2
725.479	50.35
725.662	50.29
725.845	50.31
726.028	50.47
726.211	50.66
726.394	50.09
726.577	49.75
726.76	50.19
726.943	49.62
727.126	49.96
727.309	49.91
727.492	49.61
727.675	49.39
727.858	49.47
728.041	49.48
728.224	49.42
728.407	50.06
728.589	50.32
728.772	50.08
728.955	50.48
729.138	50.09
729.321	50.16
729.503	50.41
729.686	50.16
729.869	50.27
730.052	49.86
730.234	50.03
730.417	50.07
730.6	50.35
730.782	50.39
730.965	50.24
731.148	50.54
731.33	50.77
731.513	50.96
731.695	51.25
731.878	51.18
732.061	51.54
732.243	51.5
732.426	51.73
732.608	51.61
732.791	51.54
732.973	51.63
733.156	51.47
733.338	51.36
733.52	51.29
733.703	51.14
733.885	50.77
734.068	50.38
734.25	49.99
734.432	49.33
734.615	49.31
734.797	50.11
734.979	50.04
735.162	50.28
735.344	50.38
735.526	50.39
735.708	50.03
735.891	50.55
736.073	50.35
736.255	50.52
736.437	50.48
736.619	50.42
736.802	49.7
736.984	49.83
737.166	49.54
737.348	49.34
737.53	48.85
737.712	49.26
737.894	48.96
738.076	49.16
738.258	49.09
738.44	49.51
738.622	49.4
738.804	49.54
738.986	49.63
739.168	49.7
739.35	49.8
739.532	50.18
739.714	50.54
739.896	50.95
740.078	51.51
740.259	52.05
740.441	51.88
740.623	52.14
740.805	52.36
740.987	52.32
741.168	52.19
741.35	51.98
741.532	52
741.714	51.76
741.895	51.31
742.077	50.83
742.259	50.2
742.44	50.27
742.622	50.19
742.804	49.67
742.985	49.5
743.167	50.11
743.348	49.97
743.53	49.82
743.711	50.28
743.893	50.2
744.075	50.32
744.256	50.12
744.438	50.07
744.619	50.13
744.8	50.21
744.982	50.22
745.163	49.87
745.345	50.21
745.526	50.12
745.707	49.72
745.889	49.15
746.07	49
746.252	49.34
746.433	49.18
746.614	49.45
746.795	49.38
746.977	49.96
747.158	49.58
747.339	49.64
747.52	49.75
747.702	49.77
747.883	50.82
748.064	50.62
748.245	50.61
748.426	50.61
748.607	50.31
748.788	50.3
748.97	49.56
749.151	49.56
749.332	49.3
749.513	49.54
749.694	49.76
749.875	49.46
750.056	50.12
750.237	50.06
750.418	50.11
750.599	50.46
750.78	49.83
750.96	49.73
751.141	50.29
751.322	50.07
751.503	49.91
751.684	49.29
751.865	48.92
752.046	49.06
752.226	48.53
752.407	48.54
752.588	47.82
752.769	48.33
752.949	48.56
753.13	48.27
753.311	49.37
753.492	49.37
753.672	50.08
753.853	50.07
754.034	48.82
754.214	49.55
754.395	50.18
754.575	50.61
754.756	50.59
754.937	50.8
755.117	50.66
755.298	49.96
755.478	49.62
755.659	49.74
755.839	50.19
756.02	50.83
756.2	51.12
756.381	50.39
756.561	50
756.741	49.75
756.922	48.97
757.102	48.63
757.283	48.59
757.463	49.05
757.643	48
757.823	47.52
758.004	48.19
758.184	47.83
758.364	48.1
758.545	48.23
758.725	48.54
758.905	48.99
759.085	49.4
759.265	49.17
759.446	48.51
759.626	49.33
759.806	49.24
759.986	48.51
760.166	48.06
760.346	48.13
760.526	48.1
760.706	48.18
760.886	48.62
761.066	49.26
761.246	49.28
761.426	49.8
761.606	49.48
761.786	49.78
761.966	50.03
762.146	50.44
762.326	50.43
762.506	50.41
762.686	50.39
762.866	50.23
763.046	49.69
763.225	49.66
763.405	49.78
763.585	49.83
763.765	49.91
763.945	49.76
764.124	49.7
764.304	49.55
764.484	49.63
764.664	49.43
764.843	49.25
765.023	49.34
765.203	49.15
765.382	48.55
765.562	48.51
765.741	49.07
765.921	49.38
766.101	49.14
766.28	49.15
766.46	49
766.639	49.55
766.819	49.73
766.998	49.92
767.178	50.31
767.357	50.56
767.537	50.55
767.716	49.37
767.896	49.13
768.075	48.76
768.254	48.73
768.434	48.6
768.613	48.5
768.792	48.23
768.972	48.06
769.151	48.17
769.33	48.16
769.51	48.33
769.689	49.31
769.868	49.35
770.047	50.41
770.226	49.72
770.406	49.73
770.585	49.54
770.764	49.25
770.943	49.45
771.122	48.89
771.301	49.81
771.48	49.83
771.66	49.32
771.839	48.61
772.018	47.75
772.197	48.4
772.376	48.25
772.555	49.13
772.734	49.51
772.913	49.12
773.092	49.37
773.271	48.3
773.449	48.51
773.628	49.12
773.807	50.72
773.986	50.92
774.165	50.99
774.344	51.48
774.523	50.45
774.701	50.19
774.88	50.05
775.059	50.98
775.238	50.79
775.417	49.8
775.595	48.57
775.774	46.85
775.953	47.96
776.131	48.52
776.31	48.3
776.489	47.88
776.667	48.28
776.846	48.41
777.025	47.88
777.203	47.69
777.382	47.91
777.56	47.9
777.739	48.4
777.917	48.22
778.096	47.66
778.274	48
778.453	48.24
778.631	47.7
778.81	48.05
778.988	48.16
779.166	48.75
779.345	49.51
779.523	49.92
779.702	49.41
779.88	47.91
780.058	47.37
780.237	47.63
780.415	48.02
780.593	48.86
780.771	48.38
780.95	49.02
781.128	48.85
781.306	48.97
781.484	48.69
781.662	49.52
781.841	49.79
782.019	49.72
782.197	49.62
782.375	49.86
782.553	49.11
782.731	48.68
782.909	47.23
783.087	48.25
783.265	47.78
783.443	48.02
783.621	49.1
783.799	49.89
783.977	50.24
784.155	49.18
784.333	48.85
784.511	49.39
784.689	50.08
784.867	50.64
785.045	50.43
785.223	51.14
785.4	50.75
785.578	49.84
785.756	48.75
785.934	49.24
786.112	49.98
786.289	49.95
786.467	49.87
786.645	50.01
786.823	50.45
787	50.12
787.178	48.98
787.356	49.4
787.533	48.59
787.711	49.52
787.889	49.51
788.066	49.23
788.244	48.9
788.421	48.53
788.599	48.36
788.776	47.5
788.954	47.47
789.131	48.51
789.309	48.32
789.486	49.07
789.664	48.27
789.841	47.9
790.019	47.78
790.196	48.02
790.373	47.58
790.551	47.84
790.728	48.02
790.906	48.22
791.083	46.93
791.26	46.74
791.437	46.51
791.615	47.82
791.792	48.84
791.969	48.79
792.146	48.57
792.324	50.2
792.501	49.7
792.678	49.25
792.855	48.92
793.032	49.52
793.209	49.84
793.387	49.59
793.564	49.42
793.741	48.1
793.918	47.33
794.095	48.87
794.272	48.08
794.449	47.44
794.626	48.28
794.803	49.08
794.98	48.82
795.157	49.3
795.334	49.2
795.511	49.05
795.688	49.99
795.864	50.78
796.041	48.79
796.218	48.86
796.395	49.59
796.572	49.27
796.749	48.31
796.925	47.84
797.102	47.56
797.279	47.62
797.456	47.61
797.632	46.49
797.809	46.7
797.986	46.98
798.162	46.61
798.339	46.08
798.516	47.04
798.692	47.18
798.869	48.23
799.046	48.32
799.222	48.08
799.399	47.96
799.575	49.13
799.752	49.46
799.928	50.05
800.105	51.59
800.281	52.43
800.458	51.68
800.634	51
800.811	50.93
800.987	50
801.163	51.08
801.34	51.09
801.516	50.85
801.692	50.56
801.869	49.69
802.045	48.35
802.221	48.61
802.398	48.93
802.574	48.91
802.75	47.71
802.926	49.41
803.103	48.34
803.279	48.55
803.455	48.36
803.631	48.78
803.807	49.98
803.983	50.1
804.16	49.7
804.336	49.69
804.512	49.02
804.688	49.82
804.864	49.22
805.04	50.35
805.216	49.78
805.392	49.2
805.568	49.27
805.744	49.29
805.92	49.76
806.096	48.83
806.272	48.5
806.448	50.66
806.623	50.48
806.799	49.68
806.975	48.01
807.151	47.64
807.327	49.77
807.503	48.24
807.678	47.5
807.854	48.46
808.03	48.47
808.206	49.17
808.381	49.08
808.557	49.91
808.733	50.77
808.908	51.55
809.084	52.49
809.26	50.02
809.435	49.82
809.611	49.42
809.787	47.3
809.962	47.19
810.138	46.26
810.313	45.37
810.489	44.37
810.664	44.71
810.84	45.15
811.015	44.5
811.191	44.28
811.366	46.24
811.542	46.83
811.717	47.72
811.892	48.49
812.068	49.08
812.243	48.07
812.419	48.1
812.594	47.27
812.769	48.05
812.944	47.36
813.12	47.98
813.295	47.12
813.47	46.97
813.645	47.43
813.821	46.83
813.996	46.15
814.171	47.24
814.346	48.28
814.521	47.17
814.697	46.06
814.872	45.77
815.047	45.74
815.222	46.64
815.397	45.48
815.572	44.76
815.747	45.2
815.922	45.78
816.097	44.56
816.272	44.45
816.447	45.64
816.622	45.45
816.797	46.23
816.972	47.04
817.147	46.93
817.322	49.82
817.496	49.18
817.671	49.52
817.846	48.97
818.021	49.5
818.196	48.83
818.371	49.61
818.545	50.33
818.72	50.08
818.895	49.8
819.069	48.16
819.244	47.96
819.419	48.52
819.594	48.9
819.768	48.76
819.943	48.94
820.117	48.59
820.292	48.12
820.467	47.75
820.641	48.15
820.816	48.86
820.99	49.53
821.165	49.28
821.339	49.28
821.514	49.12
821.688	49.07
821.863	49.05
822.037	49.33
822.212	49.28
822.386	49.35
822.56	49.32
822.735	49.04
822.909	49.17
823.084	48.97
823.258	48.75
823.432	48.69
823.606	48.51
823.781	48.55
823.955	48.6
824.129	48.27
824.303	47.92
824.478	47.44
824.652	46.75
824.826	46.47
825	46.27
825.174	46.02
825.348	46.1
825.523	46.28
825.697	45.8
825.871	45.4
826.045	45.65
826.219	45.71
826.393	46.11
826.567	46.97
826.741	46.76
826.915	46.33
827.089	46.62
827.263	46.47
827.437	46.88
827.611	47.13
827.784	47.33
827.958	47.6
828.132	47.63
828.306	47.38
828.48	46.96
828.654	47.17
828.827	47.91
829.001	47.98
829.175	47.42
829.349	46.89
829.522	47.21
829.696	46.9
829.87	45.7
830.044	46.29
830.217	46.26
830.391	45.89
830.565	44.71
830.738	44.23
830.912	44.75
831.085	45.74
831.259	45.53
831.432	45.67
831.606	46.52
831.779	47.86
831.953	47.4
832.126	48.49
832.3	49.25
832.473	48.97
832.647	49.65
832.82	48.54
832.994	47.99
833.167	48.46
833.34	48.22
833.514	47.69
833.687	48.01
833.86	48.41
834.034	47.15
834.207	45.96
834.38	46.36
834.553	45.76
834.727	46.09
834.9	46.5
835.073	46.54
835.246	46.33
835.419	46.36
835.593	46.38
835.766	45.54
835.939	46.93
836.112	46.81
836.285	46.48
836.458	46.95
836.631	46.83
836.804	47.58
836.977	47.63
837.15	48.23
837.323	47.92
837.496	46.49
837.669	47.06
837.842	45.92
838.015	46.17
838.188	46.03
838.361	45.95
838.533	46.38
838.706	43.91
838.879	42.57
839.052	41.47
839.225	43.82
839.398	42.81
839.57	42.82
839.743	42.81
839.916	44.65
840.088	45.26
840.261	47.06
840.434	45.96
840.607	47.24
840.779	46.94
840.952	45.35
841.124	42.18
841.297	43.49
841.47	43.43
841.642	44.57
841.815	44.58
841.987	43.19
842.16	43.42
842.332	44.01
842.505	46.47
842.677	47.74
842.85	49.37
843.022	50.9
843.194	53.16
843.367	51.32
843.539	51.31
843.712	50.79
843.884	52.9
844.056	48.91
844.229	48.44
844.401	42.48
844.573	41.79
844.745	43.24
844.918	43.9
845.09	41.05
845.262	46.81
845.434	46.06
845.606	43.72
845.779	40.99
845.951	42.87
846.123	37.98
846.295	38.6
846.467	34.43
846.639	37.04
846.811	36.52
846.983	41.5
847.155	39.05
847.327	38.85
847.499	40.5
847.671	43
847.843	43.04
848.015	52.25
848.187	55.49
848.359	61.33
848.531	59.27
848.703	57.86
848.875	50.14
849.047	50.59
849.218	51.43
849.39	49.89
849.562	51.54
849.734	49.63
849.905	45.83
850.077	44.67
850.249	42.32
850.421	40.46
850.592	40.07
850.764	44.65
850.936	44.82
851.107	44.21
851.279	45.65
851.451	47.56
851.622	47.89
851.794	51.01
851.965	48.22
852.137	49.46
852.308	49.1
852.48	48.82
852.651	48.88
852.823	52.52
852.994	50.08
853.166	50.2
853.337	45.35
853.509	42.32
853.68	43.74
853.851	47.13
854.023	47.19
854.194	49.78
854.365	48.24
854.537	44.5
854.708	44.9
854.879	48.65
855.05	48.29
855.222	50.92
855.393	50.41
855.564	47.8
855.735	46.32
855.906	46.18
856.078	45.19
856.249	48.88
856.42	47.44
856.591	44.27
856.762	43.21
856.933	42.52
857.104	39.23
857.275	41.47
857.446	40.25
857.617	41.11
857.788	43.09
857.959	47.42
858.13	45.52
858.301	49.01
858.472	48.43
858.643	49.31
858.814	49.09
858.985	49.62
859.155	50.51
859.326	47.94
859.497	45.55
859.668	44.2
859.839	41.44
860.009	41.2
860.18	44.54
860.351	40.19
860.522	37.61
860.692	39.88
860.863	42.3
861.034	44.79
861.204	43.95
861.375	44.39
861.546	43.72
861.716	39.99
861.887	37.96
862.057	38.37
862.228	44.34
862.398	40.9
862.569	41.33
862.739	42.56
862.91	36.58
863.08	35.35
863.251	32.95
863.421	32.71
863.592	36.83
863.762	37.49
863.932	31.88
864.103	31
864.273	32.54
864.443	31
864.614	29.77
864.784	35.24
864.954	38.14
865.125	47.44
865.295	50.3
865.465	51.25
865.635	49.27
865.805	56.16
865.976	51.06
866.146	55.84
866.316	52.15
866.486	50.91
866.656	51.06
866.826	46.36
866.996	38.86
867.166	37.88
867.336	35.56
867.506	35.84
867.676	30.04
867.846	34.44
868.016	33.7
868.186	32.56
868.356	34.16
868.526	37.34
868.696	41.86
868.866	40.36
869.036	41.38
869.206	38.03
869.376	39.53
869.545	41.63
869.715	41.68
869.885	40.05
870.055	46.94
870.224	44.73
870.394	39.28
870.564	40.47
870.734	43.23
870.903	35.01
871.073	39.51
871.243	42.94
871.412	39.6
871.582	41
871.751	44.11
871.921	40.04
872.091	41.27
872.26	42.67
872.43	35.95
872.599	38.03
872.769	42.18
872.938	40.86
873.108	39.05
873.277	41.33
873.446	40.66
873.616	35.58
873.785	35.57
873.955	36.2
874.124	34.97
874.293	40.76
874.463	37.38
874.632	41.21
874.801	43.2
874.971	43.02
875.14	43.7
875.309	40.39
875.478	41.56
875.647	41.12
875.817	41.55
875.986	42.36
876.155	42.81
876.324	44.53
876.493	43.01
876.662	43.38
876.831	46.31
877	46.44
877.17	49.61
877.339	50.87
877.508	49.48
877.677	49.84
877.846	49.84
878.015	47.1
878.184	44.16
878.352	40.51
878.521	38.61
878.69	36.29
878.859	35.53
879.028	34.72
879.197	34.56
879.366	35.18
879.534	34.91
879.703	36.7
879.872	39.26
880.041	40.05
880.21	41.29
880.378	42.63
880.547	42.8
880.716	44.67
880.884	44.35
881.053	43.49
881.222	44.87
881.39	44.9
881.559	44.18
881.727	42.97
881.896	43.34
882.065	44.32
882.233	44.67
882.402	44.53
882.57	43.67
882.739	44.33
882.907	45.21
883.076	45.08
883.244	45.35
883.412	44.85
883.581	46.23
883.749	46.51
883.918	46.53
884.086	45.64
884.254	45.65
884.423	47.02
884.591	47.21
884.759	47.15
884.927	46.86
885.096	45.78
885.264	47.69
885.432	46.8
885.6	47.38
885.769	46.49
885.937	47.1
886.105	48.36
886.273	46.55
886.441	47.51
886.609	45.37
886.777	44.95
886.945	47.58
887.113	47.82
887.281	47.73
887.449	46.82
887.617	48.73
887.785	49.05
887.953	49.44
888.121	51.41
888.289	48.87
888.457	51.23
888.625	52.53
888.793	50.83
888.961	49.72
889.129	52.32
889.296	51.78
889.464	50.42
889.632	50.24
889.8	49.45
889.967	47.31
890.135	48.66
