Data from 2938441_Reflection_3.txt Node
Date: Fri Jun 19 18:22:06 EDT 2015
User: robert
Spectrometer: USB4E03002
Autoset integration time: false
Trigger mode: 4
Integration Time (sec): 1.000000E-1
Scans to average: 10
Electric dark correction enabled: true
Nonlinearity correction enabled: false
Boxcar width: 5
Stray light correction enabled: false
XAxis mode: Wavelengths
Stop averaging: false
Number of Pixels in Spectrum: 3648
>>>>>Begin Spectral Data<<<<<
177.575	71.97
177.794	74.35
178.014	66.78
178.233	26.34
178.452	47.7
178.672	57.25
178.891	16.53
179.11	73.73
179.33	81.69
179.549	58.12
179.768	87.58
179.987	80.22
180.207	90.11
180.426	82.18
180.645	66.24
180.864	71.58
181.084	73.54
181.303	77.9
181.522	80.38
181.741	66.59
181.96	68.04
182.179	56.01
182.398	53.39
182.618	50.32
182.837	43.73
183.056	52.16
183.275	54.68
183.494	59.92
183.713	60.19
183.932	62.64
184.151	62.94
184.37	72.77
184.589	72.51
184.808	71.55
185.027	79.48
185.246	95.02
185.465	84.28
185.684	64.96
185.903	56.68
186.122	52.42
186.341	41.82
186.56	48.99
186.779	41.92
186.998	33.97
187.216	48.6
187.435	49.71
187.654	49.82
187.873	53.84
188.092	56.77
188.311	62.33
188.53	62.29
188.748	68.4
188.967	69.21
189.186	82.7
189.405	83.04
189.623	86.49
189.842	84.7
190.061	71.07
190.28	63.58
190.498	95.03
190.717	114.52
190.936	108.8
191.154	122.13
191.373	124.28
191.592	113.85
191.81	103.68
192.029	109.41
192.248	123.33
192.466	172.31
192.685	168.36
192.904	105.85
193.122	83.49
193.341	90.66
193.559	86.56
193.778	144.38
193.996	155.68
194.215	192.96
194.433	135.73
194.652	103.24
194.87	122.63
195.089	138.85
195.307	97.85
195.526	81.73
195.744	75.22
195.963	69.69
196.181	62.73
196.399	56.24
196.618	51.02
196.836	52.47
197.055	65.63
197.273	57.03
197.491	48.05
197.71	75.15
197.928	85.13
198.146	75.98
198.365	78.02
198.583	63.3
198.801	68.89
199.019	69.82
199.238	67.97
199.456	50.56
199.674	40.83
199.892	36.87
200.111	31.81
200.329	38.06
200.547	33.43
200.765	16.4
200.983	13.33
201.202	28.42
201.42	36.08
201.638	25.11
201.856	36.39
202.074	43.77
202.292	43.5
202.51	53.7
202.728	43.29
202.946	62.62
203.165	72.66
203.383	50.05
203.601	41.61
203.819	38.16
204.037	57.57
204.255	44.39
204.473	40.11
204.691	50.86
204.909	49.75
205.127	48.81
205.345	45.12
205.562	40.91
205.78	61.36
205.998	50.1
206.216	51.78
206.434	50.15
206.652	45.22
206.87	56.8
207.088	49.9
207.306	48.27
207.523	53.47
207.741	48.99
207.959	56.91
208.177	43.89
208.395	53.56
208.612	42.98
208.83	33.92
209.048	47.74
209.266	39.2
209.483	36.23
209.701	34.17
209.919	39.53
210.136	45.31
210.354	49.59
210.572	55.6
210.79	54.93
211.007	59.24
211.225	53.25
211.442	48.99
211.66	52.31
211.878	58.53
212.095	69.17
212.313	65.02
212.53	66.41
212.748	69.63
212.966	47.51
213.183	55.78
213.401	56.22
213.618	74.57
213.836	84.17
214.053	67.52
214.271	70.19
214.488	54.05
214.705	49.2
214.923	37.27
215.14	41.21
215.358	46.44
215.575	50.35
215.793	50.77
216.01	45.78
216.227	47.8
216.445	48.76
216.662	50.69
216.879	56.11
217.097	60.43
217.314	60.8
217.531	53.27
217.749	47.91
217.966	37.38
218.183	28.06
218.4	27.55
218.618	18.95
218.835	23.56
219.052	9.65
219.269	6.81
219.487	-3.42
219.704	-3.64
219.921	-1.14
220.138	5.72
220.355	20.9
220.572	34.99
220.79	41.58
221.007	40.86
221.224	38.75
221.441	44.43
221.658	48.5
221.875	48.77
222.092	55.09
222.309	60.75
222.526	56.05
222.743	45.23
222.96	35.78
223.177	27.65
223.394	30.98
223.611	31.38
223.828	28.42
224.045	27.53
224.262	28.95
224.479	22.3
224.696	20.77
224.913	16.93
225.13	17.79
225.347	17.14
225.564	18.46
225.781	17.61
225.997	16.82
226.214	16.53
226.431	15.62
226.648	14.92
226.865	14.55
227.082	13.3
227.298	14.28
227.515	13.9
227.732	12.48
227.949	12.75
228.165	12.51
228.382	11.44
228.599	12.42
228.816	12.28
229.032	12.42
229.249	14.31
229.466	12.88
229.682	11.48
229.899	12.06
230.116	13.84
230.332	15.84
230.549	14.7
230.765	17.74
230.982	14.33
231.199	14.04
231.415	13.15
231.632	11.32
231.848	9.93
232.065	13.9
232.281	9.19
232.498	8.41
232.714	6.73
232.931	9.9
233.147	10.18
233.364	12.22
233.58	13.08
233.797	16.07
234.013	15.98
234.23	18.05
234.446	15.98
234.662	19.74
234.879	20.79
235.095	20.16
235.312	18.61
235.528	16.3
235.744	14.79
235.961	13.95
236.177	12.11
236.393	10.86
236.61	11.59
236.826	12.52
237.042	8.68
237.258	11.45
237.475	12.48
237.691	12.04
237.907	13.88
238.123	14.74
238.339	13.1
238.556	13.88
238.772	14.85
238.988	15.36
239.204	13.43
239.42	14.29
239.636	12.29
239.853	10.6
240.069	10.46
240.285	9.22
240.501	8.41
240.717	8.1
240.933	7.76
241.149	7.45
241.365	6.02
241.581	6.5
241.797	6.38
242.013	7.37
242.229	8.25
242.445	8.37
242.661	8.44
242.877	9.8
243.093	11.27
243.309	10.32
243.525	10.67
243.741	11.44
243.957	9.99
244.173	9.14
244.388	7.98
244.604	7.24
244.82	6.82
245.036	6.53
245.252	5.96
245.468	5.48
245.683	4.9
245.899	4.58
246.115	3.74
246.331	4.08
246.547	4.59
246.762	4.69
246.978	4.7
247.194	5.14
247.409	5.41
247.625	5.78
247.841	5.15
248.057	5.93
248.272	6.68
248.488	8.38
248.703	9.06
248.919	8.53
249.135	7.93
249.35	8.24
249.566	8.18
249.782	8.47
249.997	8.1
250.213	7.48
250.428	7.14
250.644	6.21
250.859	5.13
251.075	4.7
251.29	5.41
251.506	5.58
251.721	5.26
251.937	5.23
252.152	4.51
252.368	4
252.583	5.11
252.798	4.84
253.014	4.41
253.229	4.12
253.445	4.59
253.66	3.93
253.875	5.76
254.091	5.32
254.306	5.25
254.521	5.83
254.737	6.31
254.952	5.65
255.167	5.12
255.383	6.58
255.598	6.49
255.813	6.26
256.028	6.41
256.244	5.3
256.459	5.8
256.674	5.13
256.889	5.2
257.104	4.94
257.32	4.8
257.535	5.32
257.75	4.54
257.965	4.52
258.18	4.23
258.395	3.97
258.61	3.24
258.826	2.95
259.041	2.97
259.256	2.8
259.471	2.96
259.686	3.41
259.901	3.42
260.116	3.53
260.331	3.38
260.546	3.84
260.761	4.37
260.976	5.63
261.191	6.56
261.406	6.97
261.621	7.01
261.836	6.61
262.05	5.56
262.265	5.52
262.48	5.65
262.695	6.38
262.91	6.58
263.125	5.83
263.34	5.4
263.555	4.42
263.769	4.4
263.984	5.01
264.199	6.07
264.414	6.16
264.629	6.41
264.843	7.29
265.058	7.56
265.273	7.01
265.488	6.86
265.702	7.08
265.917	7.04
266.132	7.5
266.346	7.29
266.561	7.45
266.776	7.61
266.99	7.79
267.205	6.68
267.42	6.51
267.634	6.48
267.849	6.56
268.063	6.98
268.278	7.51
268.492	6.71
268.707	6.45
268.922	6.5
269.136	7.16
269.351	7.07
269.565	7.63
269.78	6.98
269.994	7.02
270.209	7.02
270.423	6.74
270.637	6.42
270.852	7.19
271.066	7.64
271.281	7.54
271.495	7.16
271.709	6.78
271.924	6.58
272.138	7.25
272.353	6.86
272.567	7.75
272.781	8.06
272.996	8.47
273.21	7.64
273.424	7.11
273.638	7.66
273.853	8.19
274.067	8.83
274.281	8.31
274.495	7.93
274.71	7.78
274.924	7.09
275.138	6.07
275.352	6.17
275.566	6.21
275.781	6.51
275.995	6.22
276.209	5.95
276.423	6.57
276.637	7.12
276.851	6.62
277.065	7.32
277.279	7.84
277.493	7.74
277.707	7.79
277.921	8.33
278.135	8.64
278.349	7.63
278.563	7.96
278.777	7.28
278.991	7.17
279.205	7.59
279.419	7.14
279.633	6
279.847	6.56
280.061	6.09
280.275	6.47
280.489	6.87
280.703	7.92
280.917	7.23
281.131	6.6
281.344	6.86
281.558	7.01
281.772	7.26
281.986	7.8
282.2	8.48
282.414	8.08
282.627	7.45
282.841	6.43
283.055	5.66
283.269	5.63
283.482	5.74
283.696	5.94
283.91	5.92
284.123	5.84
284.337	5.45
284.551	4.71
284.764	4.78
284.978	4.69
285.192	5.07
285.405	4.7
285.619	4.51
285.833	4.7
286.046	4.25
286.26	4.33
286.473	4.19
286.687	4.6
286.9	4.78
287.114	5.26
287.327	5.81
287.541	5.73
287.754	6.06
287.968	6.27
288.181	6.48
288.395	6.88
288.608	7.02
288.822	7.71
289.035	7.74
289.248	7.75
289.462	8.28
289.675	8.21
289.889	8.85
290.102	9.04
290.315	9.31
290.529	9.03
290.742	8.33
290.955	8.05
291.169	7.93
291.382	7.95
291.595	8.4
291.808	7.73
292.022	8.06
292.235	7.35
292.448	7.91
292.661	7.87
292.875	7.62
293.088	8.68
293.301	9.39
293.514	9.23
293.727	9.51
293.94	9.14
294.153	9.11
294.367	8.49
294.58	8.53
294.793	7.8
295.006	7.98
295.219	8.33
295.432	7.74
295.645	7.02
295.858	7.09
296.071	6.45
296.284	6.49
296.497	5.95
296.71	6.17
296.923	6.46
297.136	7.27
297.349	7.07
297.562	7.27
297.775	7.68
297.988	7.93
298.201	7.37
298.414	7.61
298.626	7.19
298.839	7.5
299.052	7.71
299.265	6.72
299.478	5.49
299.691	5.95
299.903	5.11
300.116	4.4
300.329	4.17
300.542	4.62
300.755	5.47
300.967	6.18
301.18	7.28
301.393	7.1
301.605	7.46
301.818	7.09
302.031	7.15
302.243	7.81
302.456	9.09
302.669	9.4
302.881	9.83
303.094	9.41
303.307	9.14
303.519	8.64
303.732	8.23
303.944	8.82
304.157	9.63
304.37	9.96
304.582	10.39
304.795	9.66
305.007	10.19
305.22	10.02
305.432	9.89
305.645	10.13
305.857	9.58
306.069	10.12
306.282	10.26
306.494	11.16
306.707	10.39
306.919	9.7
307.132	10.32
307.344	10.56
307.556	10.73
307.769	10.95
307.981	11.03
308.193	11.4
308.406	11.46
308.618	11.15
308.83	10.48
309.043	10.68
309.255	10.8
309.467	10.33
309.679	10.3
309.892	9.64
310.104	9.95
310.316	10.46
310.528	10.05
310.74	10.57
310.953	10.6
311.165	10.72
311.377	11.1
311.589	11.84
311.801	11.73
312.013	10.99
312.225	11.41
312.437	11.23
312.649	9.97
312.862	10.72
313.074	10.18
313.286	10.45
313.498	11.32
313.71	10.28
313.922	9.71
314.134	9.3
314.346	10.12
314.558	10.7
314.77	10.48
314.982	12.15
315.193	11.69
315.405	11.2
315.617	11.11
315.829	9.9
316.041	10.38
316.253	10.17
316.465	11.64
316.677	11.57
316.888	11.65
317.1	12.13
317.312	11.24
317.524	11.45
317.736	11.62
317.947	12.32
318.159	12.33
318.371	12.64
318.583	13.58
318.794	13.2
319.006	13.12
319.218	12.54
319.43	12.88
319.641	12.09
319.853	11.69
320.064	12.15
320.276	11.65
320.488	13.1
320.699	12.75
320.911	11.5
321.123	10.77
321.334	10.56
321.546	11.04
321.757	10.53
321.969	10.88
322.18	11.77
322.392	11.62
322.603	11.37
322.815	11.1
323.026	11.19
323.238	11.96
323.449	12.67
323.661	12.8
323.872	12.65
324.083	13.3
324.295	13.91
324.506	13.77
324.718	13.8
324.929	14.82
325.14	15.14
325.352	16.16
325.563	16.28
325.774	16.56
325.986	16.92
326.197	17.8
326.408	18.19
326.62	19.03
326.831	19.51
327.042	20.21
327.253	20.18
327.464	19.51
327.676	19.15
327.887	19.54
328.098	20.06
328.309	20.31
328.52	20.65
328.732	21.05
328.943	20.1
329.154	20.26
329.365	20.31
329.576	20.66
329.787	21.68
329.998	22.07
330.209	22.21
330.42	21.97
330.631	22.09
330.842	21.8
331.053	21.94
331.264	22.66
331.475	23
331.686	23.28
331.897	23.8
332.108	23.8
332.319	23.8
332.53	24.29
332.741	24.72
332.952	25.28
333.163	24.93
333.374	24.53
333.585	25.54
333.795	25.71
334.006	25.9
334.217	25.73
334.428	25.36
334.639	25.48
334.849	25.41
335.06	25.2
335.271	25.07
335.482	25.69
335.692	25.89
335.903	25.41
336.114	25.46
336.325	25.42
336.535	25.63
336.746	25.88
336.957	26.2
337.167	25.96
337.378	26.46
337.589	26.51
337.799	26.99
338.01	27.55
338.22	27.25
338.431	27.58
338.642	27.15
338.852	26.87
339.063	27.1
339.273	27.2
339.484	27.86
339.694	28.17
339.905	28.9
340.115	29.2
340.326	28.28
340.536	28.47
340.746	28.34
340.957	28.9
341.167	29.42
341.378	29.64
341.588	29.98
341.799	29.32
342.009	28.47
342.219	27.88
342.43	27.41
342.64	28.06
342.85	28.19
343.061	28.57
343.271	28.3
343.481	28.26
343.691	28.24
343.902	28.03
344.112	28.45
344.322	28.86
344.532	28.76
344.743	29.42
344.953	29.11
345.163	28.97
345.373	28.25
345.583	28.32
345.793	28.18
346.004	28.31
346.214	28.22
346.424	28.52
346.634	28.03
346.844	27.8
347.054	27.18
347.264	27.29
347.474	28
347.684	28.38
347.894	28.21
348.104	28.43
348.314	28.76
348.524	29.06
348.734	28.72
348.944	29.43
349.154	29.61
349.364	29.75
349.574	30.13
349.784	29.7
349.994	30.14
350.204	30.49
350.413	30.61
350.623	30
350.833	30.01
351.043	30.27
351.253	30.13
351.463	30.53
351.672	30.12
351.882	29.66
352.092	29.93
352.302	29.71
352.511	29.88
352.721	28.85
352.931	29.34
353.141	29.25
353.35	29.02
353.56	28.79
353.77	28.9
353.979	29.04
354.189	29.35
354.399	29.75
354.608	29.76
354.818	29.38
355.027	30.06
355.237	30.45
355.447	30.46
355.656	30.7
355.866	30.86
356.075	30.65
356.285	30.76
356.494	30.27
356.704	29.53
356.913	29.49
357.123	29.9
357.332	30.11
357.542	29.17
357.751	28.96
357.96	28.55
358.17	28.48
358.379	28.81
358.589	28.74
358.798	29.14
359.007	29.24
359.217	29.56
359.426	29.35
359.635	29.04
359.845	29.39
360.054	29.41
360.263	29.77
360.472	29.8
360.682	29.83
360.891	30.04
361.1	30.12
361.309	30
361.519	29.84
361.728	29.89
361.937	29.87
362.146	29.67
362.355	29.47
362.564	29.43
362.774	29.54
362.983	29.11
363.192	28.63
363.401	28.46
363.61	28.6
363.819	28.54
364.028	28.7
364.237	28.61
364.446	29.33
364.655	29.74
364.864	29.39
365.073	28.88
365.282	28.81
365.491	28.85
365.7	28.67
365.909	28.72
366.118	28.79
366.327	28.61
366.536	28.66
366.745	28.02
366.954	28.15
367.162	28.42
367.371	28.62
367.58	28.5
367.789	28.72
367.998	28.7
368.207	28.6
368.415	28.77
368.624	28.81
368.833	28.75
369.042	29.05
369.25	28.97
369.459	29.18
369.668	29.19
369.877	29.38
370.085	29.27
370.294	29.39
370.503	29.28
370.711	28.86
370.92	28.89
371.129	28.69
371.337	28.35
371.546	28.19
371.754	28.03
371.963	28
372.171	28.21
372.38	28.32
372.589	28.19
372.797	28.27
373.006	28.03
373.214	28
373.423	28.24
373.631	28.08
373.84	28.01
374.048	27.87
374.256	27.76
374.465	27.67
374.673	27.58
374.882	27.8
375.09	27.63
375.298	27.71
375.507	27.45
375.715	27.32
375.923	27.38
376.132	27.33
376.34	27.2
376.548	27.08
376.757	27.11
376.965	27.22
377.173	27.09
377.381	27.05
377.59	26.87
377.798	27.23
378.006	26.94
378.214	26.93
378.423	26.9
378.631	26.96
378.839	27.07
379.047	26.79
379.255	26.95
379.463	27.05
379.671	27.14
379.879	27.59
380.088	27.36
380.296	27.87
380.504	28.17
380.712	28.45
380.92	28.56
381.128	28.8
381.336	28.79
381.544	28.13
381.752	27.7
381.96	27.66
382.168	27.53
382.376	27.57
382.584	27.41
382.791	27.31
382.999	27.08
383.207	26.94
383.415	26.94
383.623	26.94
383.831	27.17
384.039	27.17
384.247	27.04
384.454	26.77
384.662	26.44
384.87	26.32
385.078	25.92
385.285	25.63
385.493	25.37
385.701	24.87
385.909	24.79
386.116	24.67
386.324	24.81
386.532	24.81
386.739	24.93
386.947	24.9
387.155	24.82
387.362	24.85
387.57	24.84
387.778	24.88
387.985	25.12
388.193	24.92
388.4	24.88
388.608	24.72
388.816	24.73
389.023	24.59
389.231	24.49
389.438	24.35
389.646	24.38
389.853	24.42
390.061	24.34
390.268	24.33
390.475	24.33
390.683	24.27
390.89	24.28
391.098	24.27
391.305	24.19
391.512	24.21
391.72	24.35
391.927	24.37
392.135	24.35
392.342	24.35
392.549	24.16
392.756	24.46
392.964	24.49
393.171	24.65
393.378	24.57
393.586	24.76
393.793	24.99
394	25.02
394.207	25.06
394.414	25.22
394.622	25.32
394.829	25.46
395.036	25.36
395.243	25.45
395.45	25.26
395.657	25.18
395.864	25.1
396.072	25.17
396.279	25.21
396.486	25.23
396.693	25.02
396.9	25.07
397.107	25.09
397.314	25.12
397.521	25.15
397.728	25.36
397.935	25.43
398.142	25.41
398.349	25.32
398.556	25.43
398.763	25.49
398.97	25.6
399.177	25.59
399.383	25.69
399.59	25.84
399.797	25.84
400.004	25.63
400.211	25.78
400.418	25.77
400.625	25.85
400.831	25.93
401.038	25.92
401.245	26.01
401.452	26.02
401.658	26.09
401.865	26.01
402.072	25.95
402.279	26.03
402.485	26.08
402.692	26.06
402.899	26.13
403.105	26.11
403.312	26.03
403.519	26.01
403.725	26
403.932	25.94
404.138	25.93
404.345	25.94
404.552	26.07
404.758	25.97
404.965	26.04
405.171	25.94
405.378	25.75
405.584	25.94
405.791	25.87
405.997	25.95
406.204	25.93
406.41	25.9
406.617	25.86
406.823	25.88
407.029	25.81
407.236	25.91
407.442	26.02
407.649	26.1
407.855	26.03
408.061	26.12
408.268	26.1
408.474	26.03
408.68	25.96
408.887	26
409.093	25.84
409.299	25.98
409.505	25.85
409.712	25.78
409.918	25.73
410.124	25.65
410.33	25.51
410.537	25.48
410.743	25.61
410.949	25.57
411.155	25.65
411.361	25.64
411.567	25.58
411.773	25.63
411.98	25.52
412.186	25.58
412.392	25.75
412.598	25.82
412.804	25.79
413.01	25.72
413.216	25.88
413.422	25.92
413.628	26.03
413.834	26.11
414.04	26.11
414.246	26.18
414.452	26.14
414.658	25.98
414.864	25.83
415.07	25.83
415.275	25.8
415.481	25.69
415.687	25.57
415.893	25.54
416.099	25.45
416.305	25.46
416.511	25.37
416.716	25.26
416.922	25.14
417.128	25.27
417.334	25.18
417.539	25.17
417.745	25.15
417.951	25
418.157	24.88
418.362	24.7
418.568	24.61
418.774	24.56
418.979	24.52
419.185	24.52
419.391	24.42
419.596	24.35
419.802	24.32
420.008	24.31
420.213	24.43
420.419	24.43
420.624	24.54
420.83	24.51
421.035	24.52
421.241	24.55
421.446	24.51
421.652	24.48
421.857	24.49
422.063	24.42
422.268	24.36
422.474	24.38
422.679	24.32
422.885	24.21
423.09	24.16
423.295	24.13
423.501	24.12
423.706	24.12
423.911	24.15
424.117	24.14
424.322	24.2
424.527	24.17
424.733	24.01
424.938	24
425.143	24.13
425.349	24.07
425.554	24.1
425.759	24.19
425.964	24.23
426.169	24.1
426.375	24.11
426.58	24.07
426.785	24.04
426.99	24.04
427.195	24.05
427.4	24.02
427.605	24.22
427.811	24.19
428.016	24.08
428.221	24.06
428.426	24.15
428.631	24.2
428.836	24.25
429.041	24.31
429.246	24.48
429.451	24.47
429.656	24.4
429.861	24.38
430.066	24.43
430.271	24.49
430.476	24.61
430.681	24.61
430.886	24.55
431.09	24.45
431.295	24.41
431.5	24.2
431.705	24.24
431.91	24.43
432.115	24.38
432.32	24.35
432.524	24.22
432.729	24.07
432.934	24.03
433.139	23.97
433.343	23.9
433.548	23.86
433.753	23.99
433.958	24.03
434.162	23.88
434.367	23.85
434.572	23.84
434.776	23.88
434.981	23.92
435.186	24.01
435.39	24.18
435.595	24.34
435.799	24.38
436.004	24.43
436.209	24.56
436.413	24.58
436.618	24.53
436.822	24.46
437.027	24.47
437.231	24.4
437.436	24.33
437.64	24.26
437.845	24.13
438.049	24.11
438.253	24.01
438.458	23.89
438.662	23.82
438.867	23.86
439.071	23.86
439.275	23.81
439.48	23.81
439.684	23.82
439.888	23.79
440.093	23.83
440.297	23.81
440.501	23.79
440.706	23.75
440.91	23.78
441.114	23.74
441.318	23.76
441.523	23.77
441.727	23.81
441.931	23.81
442.135	23.77
442.339	23.85
442.543	23.84
442.748	23.88
442.952	23.86
443.156	23.81
443.36	23.82
443.564	23.78
443.768	23.77
443.972	23.72
444.176	23.72
444.38	23.64
444.584	23.63
444.788	23.59
444.992	23.54
445.196	23.62
445.4	23.54
445.604	23.49
445.808	23.45
446.012	23.41
446.216	23.35
446.42	23.32
446.624	23.36
446.828	23.31
447.032	23.38
447.235	23.37
447.439	23.27
447.643	23.31
447.847	23.32
448.051	23.38
448.254	23.39
448.458	23.51
448.662	23.5
448.866	23.61
449.069	23.6
449.273	23.52
449.477	23.47
449.681	23.43
449.884	23.39
450.088	23.43
450.292	23.49
450.495	23.51
450.699	23.45
450.902	23.45
451.106	23.29
451.31	23.19
451.513	23.29
451.717	23.35
451.92	23.36
452.124	23.43
452.327	23.41
452.531	23.29
452.734	23.36
452.938	23.39
453.141	23.36
453.345	23.42
453.548	23.57
453.752	23.49
453.955	23.53
454.158	23.52
454.362	23.59
454.565	23.63
454.769	23.66
454.972	23.53
455.175	23.6
455.379	23.55
455.582	23.58
455.785	23.53
455.988	23.51
456.192	23.44
456.395	23.49
456.598	23.47
456.801	23.36
457.005	23.26
457.208	23.29
457.411	23.16
457.614	23.25
457.817	23.19
458.021	23.23
458.224	23.26
458.427	23.28
458.63	23.29
458.833	23.25
459.036	23.27
459.239	23.4
459.442	23.39
459.645	23.44
459.848	23.45
460.051	23.6
460.254	23.53
460.457	23.62
460.66	23.67
460.863	23.73
461.066	23.8
461.269	23.87
461.472	23.88
461.675	23.97
461.878	24.05
462.081	24.14
462.284	24.01
462.486	24.18
462.689	24.17
462.892	24.11
463.095	24.14
463.298	24.18
463.5	24.2
463.703	24.24
463.906	24.26
464.109	24.21
464.311	24.17
464.514	24.25
464.717	24.12
464.92	24.1
465.122	24.18
465.325	24.1
465.528	24.1
465.73	24.14
465.933	24.12
466.135	24.21
466.338	24.28
466.541	24.22
466.743	24.26
466.946	24.24
467.148	24.15
467.351	24.27
467.553	24.31
467.756	24.33
467.958	24.31
468.161	24.36
468.363	24.36
468.566	24.36
468.768	24.38
468.971	24.34
469.173	24.47
469.375	24.63
469.578	24.5
469.78	24.5
469.983	24.45
470.185	24.58
470.387	24.51
470.59	24.55
470.792	24.48
470.994	24.54
471.196	24.53
471.399	24.51
471.601	24.41
471.803	24.33
472.005	24.4
472.208	24.54
472.41	24.41
472.612	24.52
472.814	24.3
473.016	24.38
473.218	24.43
473.421	24.47
473.623	24.57
473.825	24.66
474.027	24.83
474.229	24.85
474.431	24.82
474.633	24.91
474.835	24.84
475.037	24.89
475.239	24.85
475.441	24.81
475.643	24.77
475.845	24.66
476.047	24.57
476.249	24.59
476.451	24.45
476.653	24.43
476.855	24.43
477.057	24.39
477.258	24.45
477.46	24.52
477.662	24.49
477.864	24.49
478.066	24.48
478.268	24.54
478.469	24.47
478.671	24.53
478.873	24.49
479.075	24.49
479.276	24.56
479.478	24.61
479.68	24.57
479.882	24.53
480.083	24.56
480.285	24.62
480.487	24.58
480.688	24.58
480.89	24.47
481.091	24.47
481.293	24.41
481.495	24.36
481.696	24.28
481.898	24.24
482.099	24.19
482.301	24.16
482.502	24.12
482.704	24.08
482.905	24.05
483.107	24.07
483.308	24.02
483.51	23.97
483.711	23.95
483.913	23.96
484.114	23.95
484.315	24.01
484.517	24.05
484.718	24.05
484.92	24.08
485.121	24.09
485.322	24.13
485.524	24.18
485.725	24.25
485.926	24.28
486.127	24.29
486.329	24.26
486.53	24.21
486.731	24.13
486.932	24.11
487.134	24.14
487.335	24.13
487.536	24.13
487.737	24.12
487.938	24.13
488.139	24.12
488.341	24.13
488.542	24.21
488.743	24.3
488.944	24.39
489.145	24.49
489.346	24.52
489.547	24.52
489.748	24.52
489.949	24.5
490.15	24.47
490.351	24.45
490.552	24.43
490.753	24.4
490.954	24.37
491.155	24.35
491.356	24.31
491.557	24.28
491.758	24.26
491.959	24.31
492.159	24.31
492.36	24.35
492.561	24.39
492.762	24.49
492.963	24.57
493.164	24.71
493.364	24.82
493.565	24.94
493.766	25.03
493.967	25.14
494.167	25.1
494.368	25.15
494.569	25.15
494.769	25.2
494.97	25.17
495.171	25.12
495.371	25.1
495.572	25.07
495.773	25.03
495.973	24.99
496.174	24.96
496.375	25.02
496.575	25.03
496.776	25.09
496.976	25.08
497.177	25.08
497.377	25.17
497.578	25.16
497.778	25.24
497.979	25.27
498.179	25.32
498.38	25.38
498.58	25.4
498.78	25.42
498.981	25.49
499.181	25.57
499.382	25.62
499.582	25.66
499.782	25.68
499.983	25.71
500.183	25.77
500.383	25.79
500.584	25.79
500.784	25.8
500.984	25.86
501.184	25.91
501.385	25.94
501.585	26.03
501.785	25.99
501.985	26.09
502.185	26.14
502.386	26.18
502.586	26.29
502.786	26.35
502.986	26.47
503.186	26.5
503.386	26.5
503.586	26.51
503.786	26.6
503.987	26.68
504.187	26.63
504.387	26.68
504.587	26.78
504.787	26.84
504.987	26.9
505.187	26.96
505.387	27.12
505.587	27.19
505.786	27.25
505.986	27.19
506.186	27.29
506.386	27.46
506.586	27.4
506.786	27.42
506.986	27.44
507.186	27.48
507.386	27.46
507.585	27.43
507.785	27.52
507.985	27.63
508.185	27.7
508.384	27.73
508.584	27.76
508.784	27.89
508.984	27.95
509.183	27.98
509.383	28.06
509.583	28.18
509.782	28.26
509.982	28.26
510.182	28.24
510.381	28.3
510.581	28.41
510.781	28.4
510.98	28.52
511.18	28.54
511.379	28.68
511.579	28.75
511.778	28.79
511.978	28.9
512.177	28.95
512.377	29.06
512.576	29.16
512.776	29.24
512.975	29.35
513.175	29.31
513.374	29.4
513.573	29.46
513.773	29.44
513.972	29.5
514.172	29.45
514.371	29.53
514.57	29.59
514.77	29.67
514.969	29.67
515.168	29.71
515.367	29.85
515.567	29.97
515.766	30
515.965	30.11
516.164	30.13
516.364	30.2
516.563	30.17
516.762	30.2
516.961	30.2
517.16	30.22
517.359	30.28
517.559	30.3
517.758	30.32
517.957	30.36
518.156	30.36
518.355	30.43
518.554	30.49
518.753	30.6
518.952	30.61
519.151	30.68
519.35	30.77
519.549	30.77
519.748	30.83
519.947	30.88
520.146	30.92
520.345	31.03
520.544	31.12
520.743	31.19
520.942	31.25
521.141	31.34
521.339	31.42
521.538	31.47
521.737	31.58
521.936	31.6
522.135	31.6
522.333	31.57
522.532	31.59
522.731	31.6
522.93	31.63
523.129	31.68
523.327	31.76
523.526	31.73
523.725	31.81
523.923	31.76
524.122	31.78
524.321	31.79
524.519	31.85
524.718	31.87
524.917	31.92
525.115	31.91
525.314	31.93
525.512	31.93
525.711	31.94
525.909	31.94
526.108	31.99
526.306	31.92
526.505	31.92
526.703	31.91
526.902	31.91
527.1	31.83
527.299	31.81
527.497	31.85
527.696	31.84
527.894	31.9
528.092	31.86
528.291	31.88
528.489	31.95
528.688	31.96
528.886	31.99
529.084	32.02
529.283	32.09
529.481	32.18
529.679	32.21
529.877	32.22
530.076	32.14
530.274	32.19
530.472	32.22
530.67	32.27
530.869	32.33
531.067	32.43
531.265	32.42
531.463	32.43
531.661	32.44
531.859	32.38
532.057	32.44
532.255	32.5
532.454	32.49
532.652	32.47
532.85	32.5
533.048	32.47
533.246	32.39
533.444	32.38
533.642	32.36
533.84	32.33
534.038	32.39
534.236	32.38
534.434	32.41
534.632	32.45
534.83	32.47
535.027	32.48
535.225	32.47
535.423	32.53
535.621	32.51
535.819	32.58
536.017	32.61
536.215	32.61
536.412	32.64
536.61	32.59
536.808	32.7
537.006	32.75
537.203	32.75
537.401	32.83
537.599	32.79
537.797	32.89
537.994	32.82
538.192	32.83
538.39	32.85
538.587	32.8
538.785	32.84
538.983	32.78
539.18	32.73
539.378	32.73
539.575	32.75
539.773	32.76
539.97	32.69
540.168	32.67
540.366	32.71
540.563	32.63
540.761	32.63
540.958	32.6
541.155	32.59
541.353	32.62
541.55	32.67
541.748	32.67
541.945	32.67
542.143	32.71
542.34	32.77
542.537	32.71
542.735	32.75
542.932	32.76
543.129	32.81
543.327	32.79
543.524	32.82
543.721	32.74
543.919	32.74
544.116	32.68
544.313	32.72
544.51	32.68
544.708	32.71
544.905	32.72
545.102	32.76
545.299	32.72
545.496	32.77
545.693	32.68
545.891	32.67
546.088	32.7
546.285	32.77
546.482	32.81
546.679	32.91
546.876	32.86
547.073	32.96
547.27	32.98
547.467	32.94
547.664	32.91
547.861	32.89
548.058	33
548.255	33.06
548.452	33.1
548.649	33.11
548.846	33.03
549.043	33.27
549.24	33.17
549.437	33.21
549.633	33.37
549.83	33.37
550.027	33.4
550.224	33.28
550.421	33.18
550.618	33.24
550.814	33.19
551.011	33.31
551.208	33.2
551.405	33.25
551.601	33.28
551.798	33.2
551.995	33.18
552.191	33.25
552.388	33.23
552.585	33.25
552.781	33.2
552.978	33.22
553.175	33.18
553.371	33.12
553.568	33.26
553.764	33.26
553.961	33.31
554.157	33.34
554.354	33.42
554.55	33.52
554.747	33.62
554.943	33.55
555.14	33.56
555.336	33.6
555.533	33.69
555.729	33.67
555.926	33.64
556.122	33.74
556.318	33.72
556.515	33.69
556.711	33.71
556.907	33.65
557.104	33.67
557.3	33.77
557.496	33.82
557.693	33.69
557.889	33.5
558.085	33.58
558.281	33.49
558.478	33.57
558.674	33.64
558.87	33.61
559.066	33.66
559.262	33.78
559.459	33.72
559.655	33.74
559.851	33.81
560.047	33.89
560.243	33.8
560.439	33.77
560.635	33.74
560.831	33.71
561.027	33.69
561.223	33.64
561.419	33.39
561.615	33.37
561.811	33.39
562.007	33.41
562.203	33.37
562.399	33.4
562.595	33.46
562.791	33.61
562.987	33.56
563.183	33.57
563.379	33.55
563.575	33.69
563.771	33.73
563.966	33.75
564.162	33.75
564.358	33.85
564.554	33.88
564.75	33.83
564.945	33.73
565.141	33.7
565.337	33.77
565.533	33.81
565.728	33.79
565.924	33.78
566.12	33.7
566.315	33.64
566.511	33.63
566.707	33.53
566.902	33.6
567.098	33.66
567.293	33.67
567.489	33.62
567.684	33.58
567.88	33.69
568.076	33.61
568.271	33.61
568.467	33.66
568.662	33.63
568.858	33.67
569.053	33.61
569.248	33.57
569.444	33.61
569.639	33.62
569.835	33.77
570.03	33.69
570.225	33.73
570.421	33.63
570.616	33.68
570.812	33.7
571.007	33.7
571.202	33.75
571.397	33.71
571.593	33.59
571.788	33.56
571.983	33.45
572.178	33.55
572.374	33.61
572.569	33.75
572.764	33.73
572.959	33.67
573.154	33.76
573.35	33.85
573.545	33.79
573.74	33.92
573.935	33.87
574.13	33.9
574.325	33.83
574.52	33.76
574.715	33.64
574.91	33.64
575.105	33.62
575.3	33.51
575.495	33.36
575.69	33.35
575.885	33.25
576.08	33.32
576.275	33.32
576.47	33.35
576.665	33.33
576.86	33.41
577.055	33.51
577.25	33.55
577.444	33.64
577.639	33.77
577.834	33.92
578.029	34.13
578.224	34.11
578.418	34.14
578.613	34.08
578.808	34.21
579.003	34.18
579.197	34.16
579.392	34.16
579.587	34.15
579.781	34.12
579.976	34.11
580.171	34.08
580.365	34.09
580.56	34.07
580.755	34.19
580.949	34.16
581.144	34.3
581.338	34.26
581.533	34.28
581.727	34.36
581.922	34.46
582.116	34.49
582.311	34.61
582.505	34.75
582.7	34.84
582.894	34.84
583.089	34.84
583.283	34.79
583.478	34.83
583.672	34.97
583.866	34.89
584.061	34.93
584.255	34.94
584.449	34.78
584.644	34.72
584.838	34.67
585.032	34.83
585.226	34.85
585.421	34.98
585.615	35.18
585.809	35.06
586.003	35.06
586.198	34.95
586.392	35.06
586.586	35.18
586.78	35.28
586.974	35.39
587.168	35.27
587.363	35.38
587.557	35.45
587.751	35.32
587.945	35.32
588.139	35.42
588.333	35.41
588.527	35.45
588.721	35.47
588.915	35.5
589.109	35.61
589.303	35.6
589.497	35.67
589.691	35.66
589.885	35.52
590.079	35.7
590.273	35.78
590.466	35.92
590.66	35.71
590.854	35.66
591.048	35.6
591.242	35.39
591.436	35.49
591.629	35.54
591.823	35.48
592.017	35.61
592.211	35.7
592.404	35.63
592.598	35.71
592.792	35.94
592.986	35.94
593.179	36.05
593.373	36.25
593.567	36.31
593.76	36.33
593.954	36.44
594.147	36.46
594.341	36.43
594.535	36.49
594.728	36.43
594.922	36.43
595.115	36.55
595.309	36.58
595.502	36.49
595.696	36.55
595.889	36.61
596.083	36.57
596.276	36.64
596.47	36.72
596.663	36.88
596.856	36.93
597.05	36.98
597.243	37
597.437	37.01
597.63	37
597.823	37.03
598.017	37
598.21	37.07
598.403	37.22
598.596	37.16
598.79	37.01
598.983	37.02
599.176	37.12
599.369	37.06
599.563	37
599.756	37.21
599.949	37.21
600.142	37.1
600.335	37.1
600.528	37.09
600.722	37.17
600.915	37.23
601.108	37.25
601.301	37.25
601.494	37.36
601.687	37.55
601.88	37.54
602.073	37.44
602.266	37.54
602.459	37.58
602.652	37.55
602.845	37.5
603.038	37.55
603.231	37.57
603.424	37.56
603.617	37.59
603.809	37.53
604.002	37.54
604.195	37.56
604.388	37.53
604.581	37.61
604.774	37.68
604.966	37.78
605.159	37.9
605.352	38
605.545	38
605.737	37.97
605.93	38.03
606.123	38.12
606.316	38.28
606.508	38.34
606.701	38.27
606.894	38.11
607.086	38.3
607.279	38.22
607.471	38.15
607.664	38.1
607.857	38.23
608.049	38.28
608.242	38.4
608.434	38.41
608.627	38.43
608.819	38.57
609.012	38.79
609.204	38.69
609.397	38.68
609.589	38.83
609.782	38.96
609.974	38.97
610.166	39.02
610.359	38.9
610.551	38.91
610.743	38.94
610.936	38.75
611.128	38.74
611.32	38.68
611.513	38.67
611.705	38.59
611.897	38.52
612.09	38.39
612.282	38.46
612.474	38.45
612.666	38.5
612.858	38.52
613.051	38.6
613.243	38.41
613.435	38.54
613.627	38.51
613.819	38.45
614.011	38.67
614.203	38.82
614.395	38.45
614.588	38.51
614.78	38.54
614.972	38.68
615.164	38.59
615.356	38.84
615.548	38.59
615.74	38.76
615.932	38.87
616.124	38.61
616.315	38.5
616.507	38.67
616.699	38.57
616.891	38.58
617.083	38.41
617.275	38.59
617.467	38.38
617.659	38.57
617.85	38.49
618.042	38.48
618.234	38.61
618.426	38.62
618.618	38.62
618.809	38.76
619.001	38.61
619.193	38.64
619.384	38.5
619.576	38.67
619.768	38.67
619.959	38.8
620.151	38.85
620.343	39.01
620.534	39.18
620.726	39.26
620.917	39.13
621.109	39.4
621.301	39.49
621.492	39.51
621.684	39.46
621.875	39.32
622.067	39.17
622.258	39.05
622.45	38.95
622.641	38.89
622.832	38.96
623.024	39.03
623.215	39
623.407	39.14
623.598	39.25
623.789	39.28
623.981	39.36
624.172	39.37
624.363	39.41
624.555	39.37
624.746	39.42
624.937	39.35
625.129	39.18
625.32	38.95
625.511	38.83
625.702	38.84
625.893	38.92
626.085	38.89
626.276	39.04
626.467	39.17
626.658	39.41
626.849	39.2
627.04	39.25
627.231	39.51
627.422	39.63
627.614	39.63
627.805	39.66
627.996	39.56
628.187	39.57
628.378	39.61
628.569	39.46
628.76	39.36
628.951	39.46
629.142	39.4
629.332	39.35
629.523	39.45
629.714	39.32
629.905	39.24
630.096	39.27
630.287	39.44
630.478	39.31
630.669	39.36
630.859	39.23
631.05	39.38
631.241	39.5
631.432	39.32
631.623	39.25
631.813	39.52
632.004	39.77
632.195	39.81
632.385	39.7
632.576	39.74
632.767	39.77
632.957	39.66
633.148	39.58
633.339	39.36
633.529	39.57
633.72	39.48
633.91	39.24
634.101	39.1
634.292	39.01
634.482	39.03
634.673	38.93
634.863	39.01
635.054	39.03
635.244	39.21
635.435	39.58
635.625	39.67
635.815	39.76
636.006	39.77
636.196	39.87
636.387	39.91
636.577	39.81
636.767	39.97
636.958	39.96
637.148	40.14
637.338	40
637.529	39.87
637.719	39.58
637.909	39.85
638.099	40.22
638.29	40.18
638.48	40.26
638.67	40.35
638.86	40.44
639.05	40.32
639.241	40.18
639.431	40.16
639.621	40.01
639.811	40.18
640.001	39.96
640.191	39.87
640.381	39.64
640.571	39.52
640.761	39.53
640.951	39.39
641.141	39.45
641.331	39.51
641.521	39.62
641.711	39.84
641.901	39.7
642.091	39.62
642.281	39.43
642.471	39.42
642.661	39.51
642.851	39.53
643.041	39.36
643.231	39.33
643.42	39.28
643.61	39.19
643.8	38.87
643.99	38.94
644.18	39.03
644.369	39.13
644.559	39.08
644.749	39.04
644.939	39.11
645.128	39.14
645.318	39.19
645.508	39.27
645.697	39.15
645.887	39.27
646.076	39.35
646.266	39.09
646.456	38.84
646.645	39.02
646.835	38.91
647.024	38.69
647.214	38.85
647.403	38.79
647.593	38.75
647.782	38.98
647.972	38.97
648.161	39.14
648.351	39.45
648.54	39.62
648.73	39.66
648.919	39.77
649.108	39.93
649.298	39.71
649.487	39.67
649.677	39.93
649.866	39.84
650.055	39.77
650.244	39.47
650.434	39.43
650.623	39.58
650.812	39.55
651.002	39.7
651.191	39.7
651.38	39.92
651.569	40.02
651.758	39.94
651.947	39.94
652.137	40.2
652.326	40.3
652.515	40.42
652.704	40.14
652.893	40.09
653.082	40.01
653.271	39.93
653.46	39.96
653.649	40.03
653.838	39.88
654.027	39.94
654.216	39.97
654.405	40.05
654.594	39.95
654.783	40.02
654.972	40.21
655.161	40.21
655.35	40.36
655.539	40.25
655.728	40.25
655.916	40.29
656.105	40.21
656.294	39.95
656.483	40.05
656.672	39.87
656.86	39.91
657.049	39.69
657.238	39.56
657.427	39.7
657.615	39.69
657.804	39.6
657.993	39.64
658.181	39.51
658.37	39.68
658.559	39.48
658.747	39.6
658.936	39.64
659.125	39.8
659.313	39.83
659.502	39.74
659.69	39.82
659.879	39.99
660.067	39.86
660.256	40.15
660.444	40.17
660.633	40.19
660.821	40.38
661.01	40.53
661.198	40.54
661.387	40.5
661.575	40.51
661.763	40.54
661.952	40.32
662.14	40.28
662.328	40.11
662.517	40.03
662.705	40.19
662.893	40.05
663.082	39.86
663.27	39.78
663.458	39.92
663.646	39.8
663.834	39.61
664.023	39.56
664.211	39.74
664.399	39.69
664.587	39.65
664.775	39.93
664.963	39.57
665.152	39.65
665.34	39.67
665.528	39.83
665.716	39.81
665.904	39.84
666.092	40.16
666.28	39.93
666.468	39.96
666.656	40.11
666.844	39.84
667.032	40.28
667.22	40.06
667.408	39.98
667.596	39.72
667.784	39.73
667.971	39.71
668.159	39.47
668.347	39.63
668.535	39.65
668.723	39.76
668.911	39.43
669.098	39.13
669.286	39.36
669.474	39.53
669.662	39.6
669.849	39.63
670.037	39.86
670.225	39.84
670.413	39.79
670.6	39.72
670.788	39.67
670.976	40.09
671.163	40.27
671.351	40.32
671.538	40.17
671.726	40.11
671.913	40.24
672.101	40.16
672.289	40.16
672.476	40.16
672.664	40.14
672.851	40.13
673.039	40.2
673.226	40.3
673.413	40.15
673.601	40.4
673.788	40.52
673.976	40.51
674.163	40.47
674.35	40.59
674.538	40.83
674.725	41.25
674.912	40.96
675.1	40.81
675.287	40.86
675.474	41.17
675.662	40.85
675.849	41.07
676.036	41.03
676.223	41.1
676.411	41.02
676.598	41.03
676.785	40.55
676.972	40.71
677.159	40.79
677.346	40.7
677.533	40.33
677.721	40.47
677.908	40.41
678.095	40.38
678.282	40.35
678.469	40.38
678.656	40.22
678.843	40.49
679.03	40.59
679.217	40.61
679.404	40.54
679.591	40.65
679.778	40.5
679.964	40.38
680.151	40.17
680.338	40.19
680.525	40.43
680.712	40.44
680.899	40.24
681.086	39.87
681.272	39.74
681.459	39.63
681.646	39.73
681.833	39.91
682.02	39.73
682.206	39.87
682.393	40.04
682.58	40.05
682.766	40.14
682.953	40.37
683.14	40.58
683.326	40.68
683.513	40.72
683.7	41.03
683.886	40.82
684.073	40.91
684.259	40.81
684.446	40.68
684.632	40.35
684.819	40.36
685.005	40.43
685.192	40.48
685.378	40.41
685.565	40.25
685.751	39.92
685.938	40.17
686.124	40.13
686.31	40.46
686.497	40.54
686.683	40.5
686.87	40.55
687.056	40.18
687.242	40.09
687.429	39.99
687.615	40.03
687.801	39.89
687.987	39.87
688.174	40.22
688.36	40.19
688.546	39.97
688.732	40.04
688.918	39.91
689.105	40.21
689.291	40.14
689.477	40.13
689.663	40.39
689.849	40.63
690.035	40.6
690.221	40.46
690.407	40.7
690.593	40.6
690.779	40.6
690.965	40.42
691.151	40.24
691.337	40.41
691.523	40.51
691.709	40.5
691.895	40.26
692.081	40.04
692.267	39.72
692.453	39.32
692.639	39.7
692.825	39.83
693.011	39.69
693.196	39.7
693.382	39.44
693.568	39.31
693.754	39.38
693.94	39.19
694.125	39.4
694.311	39.46
694.497	39.41
694.682	39.09
694.868	39.08
695.054	39.38
695.239	39.49
695.425	39.78
695.611	39.87
695.796	39.65
695.982	39.78
696.168	39.56
696.353	39.71
696.539	39.84
696.724	39.8
696.91	39.52
697.095	39.53
697.281	39.58
697.466	39.66
697.652	39.53
697.837	39.68
698.023	39.61
698.208	39.93
698.393	39.99
698.579	40.15
698.764	40.05
698.949	40.18
699.135	40.28
699.32	40.18
699.505	39.93
699.691	40.02
699.876	40.02
700.061	40.12
700.246	39.94
700.432	39.64
700.617	39.23
700.802	39.28
700.987	39.24
701.172	39.12
701.358	39.38
701.543	39.55
701.728	39.36
701.913	39.22
702.098	39.24
702.283	39.05
702.468	39.49
702.653	39.46
702.838	39.64
703.023	39.76
703.208	39.73
703.393	39.46
703.578	39.6
703.763	39.98
703.948	40.07
704.133	40.8
704.318	40.97
704.503	40.59
704.688	41.06
704.873	41.04
705.057	41.47
705.242	41.62
705.427	41.67
705.612	41.43
705.797	41.23
705.981	40.98
706.166	40.32
706.351	40.49
706.536	40.53
706.72	40.48
706.905	40.83
707.09	40.34
707.274	40.05
707.459	39.92
707.644	39.97
707.828	40
708.013	40.13
708.197	39.98
708.382	40.03
708.567	40.08
708.751	39.93
708.936	39.47
709.12	39.7
709.305	39.68
709.489	39.25
709.673	39.57
709.858	39.8
710.042	39.77
710.227	39.91
710.411	39.41
710.596	39.44
710.78	39.21
710.964	39.29
711.149	39.27
711.333	39.36
711.517	39.89
711.702	39.53
711.886	39.42
712.07	39.64
712.254	39.67
712.438	39.8
712.623	39.76
712.807	39.6
712.991	39.85
713.175	39.64
713.359	39.64
713.544	39.69
713.728	39.69
713.912	39.44
714.096	39.13
714.28	39.3
714.464	39.57
714.648	39.48
714.832	39.76
715.016	39.63
715.2	39.88
715.384	39.85
715.568	39.83
715.752	39.89
715.936	40.39
716.12	40.29
716.304	40.45
716.488	40.22
716.671	40.19
716.855	40.17
717.039	40.16
717.223	39.63
717.407	39.53
717.59	39.17
717.774	39.18
717.958	38.69
718.142	39.05
718.325	38.31
718.509	38.28
718.693	38.45
718.877	38.55
719.06	38.63
719.244	39.26
719.428	39.74
719.611	40.24
719.795	40.39
719.978	40.59
720.162	40.3
720.345	40.8
720.529	41.39
720.713	41.81
720.896	41.52
721.08	41.54
721.263	41.15
721.446	40.79
721.63	40.85
721.813	40.72
721.997	40.35
722.18	40.55
722.364	40.34
722.547	39.63
722.73	39.29
722.914	39.62
723.097	39.25
723.28	39.34
723.464	39.29
723.647	38.92
723.83	38.98
724.013	39.8
724.197	39.75
724.38	39.56
724.563	39.77
724.746	39.82
724.929	39.76
725.112	39.81
725.296	39.45
725.479	39.62
725.662	39.4
725.845	39.24
726.028	38.7
726.211	38.73
726.394	39
726.577	38.64
726.76	38.68
726.943	38.42
727.126	38.46
727.309	38.58
727.492	38.41
727.675	38.51
727.858	38.45
728.041	38.41
728.224	38.68
728.407	38.49
728.589	38.95
728.772	38.81
728.955	39.03
729.138	39.1
729.321	39.22
729.503	39.51
729.686	39.69
729.869	40.26
730.052	40.52
730.234	40.4
730.417	40.79
730.6	40.73
730.782	40.93
730.965	40.5
731.148	40.52
731.33	40.77
731.513	40.81
731.695	40.62
731.878	40.11
732.061	40.05
732.243	40.02
732.426	39.66
732.608	40
732.791	39.56
732.973	40.08
733.156	40.33
733.338	40.08
733.52	40.09
733.703	40.27
733.885	40.78
734.068	40.64
734.25	40.75
734.432	40.75
734.615	40.15
734.797	40.55
734.979	40.69
735.162	40.38
735.344	40.35
735.526	39.82
735.708	39.78
735.891	39.49
736.073	39.11
736.255	38.86
736.437	39.22
736.619	39.69
736.802	40.02
736.984	39.86
737.166	39.44
737.348	39.62
737.53	39.67
737.712	40
737.894	39.96
738.076	40.22
738.258	40.39
738.44	40.2
738.622	39.85
738.804	39.88
738.986	39.62
739.168	40.54
739.35	40.6
739.532	40.63
739.714	40.34
739.896	39.79
740.078	40.32
740.259	40.27
740.441	40.34
740.623	40.1
740.805	40.14
740.987	40.54
741.168	39.79
741.35	40.23
741.532	40.27
741.714	39.76
741.895	40.15
742.077	40.22
742.259	40.26
742.44	40.22
742.622	40.25
742.804	39.47
742.985	39.31
743.167	39.62
743.348	39.32
743.53	39.34
743.711	40.01
743.893	39.82
744.075	39.38
744.256	39.3
744.438	39.58
744.619	39.7
744.8	39.46
744.982	38.92
745.163	39.07
745.345	38.69
745.526	38.87
745.707	38.27
745.889	38.74
746.07	38.49
746.252	39.3
746.433	39.46
746.614	40.05
746.795	40.93
746.977	41.21
747.158	40.77
747.339	40.93
747.52	41.18
747.702	41.75
747.883	41.4
748.064	41.35
748.245	40.1
748.426	39.94
748.607	39.77
748.788	39.12
748.97	39.12
749.151	39.75
749.332	39.14
749.513	39.15
749.694	39.11
749.875	39.19
750.056	39.62
750.237	40.62
750.418	40.02
750.599	39.88
750.78	40.18
750.96	39.96
751.141	39.83
751.322	40.48
751.503	40.35
751.684	40.94
751.865	40.86
752.046	40.96
752.226	40.26
752.407	40.52
752.588	40.4
752.769	40.54
752.949	40.42
753.13	40.49
753.311	40.13
753.492	40.24
753.672	39.16
753.853	39.31
754.034	39.14
754.214	39.85
754.395	39.8
754.575	40.01
754.756	39.79
754.937	40.56
755.117	40.17
755.298	40.56
755.478	40.36
755.659	40.54
755.839	40.55
756.02	40.34
756.2	39.78
756.381	39.54
756.561	39.26
756.741	39.23
756.922	38.79
757.102	38.79
757.283	39.33
757.463	39.03
757.643	39.43
757.823	39.41
758.004	39
758.184	39.46
758.364	39.65
758.545	39.82
758.725	39.77
758.905	40.1
759.085	39.69
759.265	39.05
759.446	39.02
759.626	39.09
759.806	38.82
759.986	39.01
760.166	38.68
760.346	39.1
760.526	39.02
760.706	39.35
760.886	38.94
761.066	39.08
761.246	39.48
761.426	40.41
761.606	40.01
761.786	40.45
761.966	40.62
762.146	40.48
762.326	40.14
762.506	40.35
762.686	39.87
762.866	39.9
763.046	39.84
763.225	39.45
763.405	39.03
763.585	39.36
763.765	38.87
763.945	38.95
764.124	39.05
764.304	38.82
764.484	38.36
764.664	38.71
764.843	38.46
765.023	39.09
765.203	39.3
765.382	39.09
765.562	38.77
765.741	38.98
765.921	38.96
766.101	39.15
766.28	39.31
766.46	39.31
766.639	39.33
766.819	39.64
766.998	39.21
767.178	39.27
767.357	39.6
767.537	39.87
767.716	40.08
767.896	39.89
768.075	39.06
768.254	39.14
768.434	39.44
768.613	39.97
768.792	39.67
768.972	40.17
769.151	40.11
769.33	40.47
769.51	40.49
769.689	40.83
769.868	41.52
770.047	41.88
770.226	42.13
770.406	41.96
770.585	41.2
770.764	41.18
770.943	40.15
771.122	40.2
771.301	39.75
771.48	39.11
771.66	38.42
771.839	37.75
772.018	37.92
772.197	37.68
772.376	37.67
772.555	37.66
772.734	38.36
772.913	38.62
773.092	38.58
773.271	38.51
773.449	38.37
773.628	38.97
773.807	39.04
773.986	39.09
774.165	39.58
774.344	39.55
774.523	40.32
774.701	40.29
774.88	40.93
775.059	41.13
775.238	41.61
775.417	42.31
775.595	42.24
775.774	42.95
775.953	43.29
776.131	43.22
776.31	43.16
776.489	43.11
776.667	42.77
776.846	43.01
777.025	42.86
777.203	42.32
777.382	42.75
777.56	42.13
777.739	41.46
777.917	40.51
778.096	40
778.274	40.31
778.453	40
778.631	39.91
778.81	38.71
778.988	38.75
779.166	39.51
779.345	39.25
779.523	39.54
779.702	39.19
779.88	39.88
780.058	40.31
780.237	40.09
780.415	40.4
780.593	40.91
780.771	41.08
780.95	40.73
781.128	40.04
781.306	39.42
781.484	39.58
781.662	40.62
781.841	40.69
782.019	40.1
782.197	40.73
782.375	40.04
782.553	39.91
782.731	40.01
782.909	40.19
783.087	40.55
783.265	41.3
783.443	41.26
783.621	40.26
783.799	40.44
783.977	41.16
784.155	41.15
784.333	41.33
784.511	41.07
784.689	41.11
784.867	41.17
785.045	40.77
785.223	40.74
785.4	40.83
785.578	41.23
785.756	41.56
785.934	41.3
786.112	41.51
786.289	41.57
786.467	40.68
786.645	40.96
786.823	40.71
787	40.36
787.178	40.16
787.356	40.5
787.533	40.07
787.711	39.49
787.889	39.33
788.066	39.3
788.244	39.11
788.421	40.16
788.599	40.9
788.776	40.78
788.954	40.48
789.131	40.72
789.309	40.28
789.486	41.57
789.664	41.55
789.841	42.13
790.019	41.17
790.196	40.73
790.373	40.97
790.551	40.37
790.728	40.31
790.906	40.44
791.083	39.97
791.26	39.42
791.437	38.1
791.615	39.19
791.792	38.69
791.969	38.8
792.146	39.44
792.324	39.05
792.501	39.67
792.678	40.2
792.855	41.02
793.032	40.61
793.209	40.83
793.387	41.52
793.564	40.35
793.741	40.88
793.918	41.69
794.095	42.58
794.272	42.07
794.449	40.84
794.626	40.79
794.803	40.16
794.98	39.92
795.157	40.86
795.334	39.79
795.511	40.14
795.688	39.72
795.864	38.93
796.041	37.6
796.218	38.47
796.395	38.31
796.572	38.98
796.749	39.37
796.925	39.99
797.102	39.08
797.279	39.33
797.456	39.65
797.632	39.16
797.809	38.67
797.986	39.62
798.162	39.31
798.339	39.34
798.516	39
798.692	38.8
798.869	38.26
799.046	38.22
799.222	38.78
799.399	38.33
799.575	38.85
799.752	39.18
799.928	38.98
800.105	38.66
800.281	38.94
800.458	38.3
800.634	39.36
800.811	39.02
800.987	38.33
801.163	39.01
801.34	38.43
801.516	37.96
801.692	39.02
801.869	38.77
802.045	39.89
802.221	40.07
802.398	39.73
802.574	39.59
802.75	40.39
802.926	41.5
803.103	40.98
803.279	41.13
803.455	41.05
803.631	41.21
803.807	41.26
803.983	40.57
804.16	40.32
804.336	41.38
804.512	41.41
804.688	42.5
804.864	42.4
805.04	41.91
805.216	42.31
805.392	42.5
805.568	41.05
805.744	41.21
805.92	40.14
806.096	40.36
806.272	39.65
806.448	39.76
806.623	38.61
806.799	39.57
806.975	39.86
807.151	40.51
807.327	40.49
807.503	41.94
807.678	41.54
807.854	41.81
808.03	43.17
808.206	43.52
808.381	42.09
808.557	42.84
808.733	41.69
808.908	43
809.084	41.69
809.26	42.06
809.435	41.24
809.611	41.9
809.787	42.41
809.962	40.21
810.138	39.9
810.313	40.72
810.489	39.59
810.664	39.92
810.84	39.09
811.015	39.88
811.191	39.89
811.366	40.42
811.542	40.59
811.717	38.77
811.892	40.36
812.068	41.22
812.243	40.38
812.419	40.77
812.594	40.19
812.769	39.38
812.944	38.91
813.12	39
813.295	38.29
813.47	37.6
813.645	40.12
813.821	39.02
813.996	38.23
814.171	38.04
814.346	37.35
814.521	38.22
814.697	37.87
814.872	37.11
815.047	36.95
815.222	37.08
815.397	37.14
815.572	36.46
815.747	36.87
815.922	37.76
816.097	38.5
816.272	39.32
816.447	38.24
816.622	38.17
816.797	40.29
816.972	40.84
817.147	41.42
817.322	41
817.496	41.09
817.671	40.44
817.846	40.32
818.021	40.16
818.196	40.49
818.371	41.04
818.545	41.66
818.72	40.89
818.895	40.87
819.069	40.1
819.244	40.85
819.419	40.4
819.594	40.95
819.768	40.53
819.943	40.12
820.117	38.87
820.292	39.23
820.467	38.75
820.641	38.55
820.816	38.06
820.99	37.83
821.165	37.57
821.339	37.49
821.514	37.25
821.688	37.19
821.863	37.15
822.037	37.58
822.212	37.22
822.386	37.17
822.56	37.2
822.735	37.23
822.909	37.45
823.084	37.58
823.258	37.76
823.432	37.67
823.606	37.62
823.781	37.65
823.955	37.64
824.129	37.91
824.303	38.15
824.478	37.98
824.652	37.88
824.826	37.67
825	37.56
825.174	37.57
825.348	38.04
825.523	38.13
825.697	38.44
825.871	38.17
826.045	38.25
826.219	38.15
826.393	38.41
826.567	38.39
826.741	38.32
826.915	38.07
827.089	37.93
827.263	38
827.437	37.87
827.611	38.13
827.784	38.67
827.958	38.47
828.132	38.66
828.306	38.45
828.48	38.59
828.654	39.19
828.827	39.67
829.001	39.49
829.175	39.54
829.349	39.81
829.522	38.81
829.696	38.7
829.87	38.47
830.044	38.5
830.217	39.02
830.391	38.74
830.565	38.94
830.738	38.29
830.912	38.22
831.085	37.36
831.259	37.66
831.432	37.96
831.606	37.28
831.779	37.05
831.953	37.18
832.126	36.62
832.3	37.58
832.473	37.37
832.647	37.05
832.82	37.97
832.994	38.02
833.167	37.52
833.34	37.7
833.514	37.81
833.687	38.09
833.86	37.95
834.034	38.28
834.207	37.77
834.38	38.14
834.553	38.62
834.727	38.84
834.9	39.03
835.073	39.14
835.246	39.39
835.419	38.91
835.593	39.37
835.766	39.54
835.939	39.12
836.112	39.75
836.285	39.34
836.458	39.45
836.631	37.86
836.804	38.62
836.977	38.5
837.15	38.09
837.323	38.29
837.496	38.28
837.669	37.15
837.842	37.73
838.015	37.49
838.188	37.57
838.361	38.51
838.533	40.52
838.706	39.71
838.879	39.47
839.052	40.03
839.225	40.27
839.398	40.98
839.57	41.99
839.743	41.99
839.916	44.17
840.088	44.52
840.261	43.63
840.434	43.07
840.607	43.77
840.779	44.95
840.952	43.24
841.124	42.02
841.297	40.98
841.47	39.54
841.642	39.34
841.815	37.68
841.987	36.93
842.16	38.08
842.332	37.21
842.505	36.11
842.677	36.28
842.85	37.46
843.022	41.97
843.194	41.92
843.367	45.83
843.539	44.86
843.712	44.89
843.884	46.15
844.056	46.52
844.229	46.52
844.401	47.72
844.573	46.98
844.745	46.47
844.918	42.83
845.09	41.71
845.262	38.59
845.434	38.9
845.606	38.15
845.779	35.52
845.951	36.15
846.123	35.8
846.295	34.68
846.467	33.17
846.639	34.53
846.811	34.9
846.983	36.89
847.155	37.7
847.327	39.39
847.499	37.81
847.671	40.51
847.843	34.88
848.015	35.48
848.187	33.48
848.359	34.78
848.531	34.52
848.703	36.08
848.875	35.13
849.047	36.28
849.218	35.41
849.39	37.17
849.562	34.28
849.734	35.47
849.905	37.11
850.077	38.09
850.249	34.38
850.421	36.17
850.592	35.14
850.764	35.4
850.936	34.22
851.107	34.45
851.279	30.09
851.451	33.52
851.622	37.38
851.794	35.62
851.965	38.03
852.137	41.96
852.308	40.39
852.48	43.1
852.651	45.64
852.823	45.68
852.994	43.74
853.166	46.18
853.337	44.1
853.509	43.25
853.68	44.17
853.851	41.08
854.023	44.39
854.194	46.24
854.365	44.76
854.537	43.21
854.708	40.86
854.879	45.51
855.05	46.26
855.222	46.64
855.393	49.01
855.564	49.18
855.735	51.25
855.906	48.08
856.078	47.68
856.249	48.25
856.42	46.01
856.591	47.8
856.762	44.14
856.933	44.76
857.104	43.32
857.275	42.61
857.446	39.5
857.617	43.37
857.788	43.12
857.959	40.73
858.13	40.8
858.301	41.89
858.472	42.99
858.643	43.56
858.814	46.83
858.985	48.11
859.155	47.48
859.326	52.74
859.497	49.13
859.668	45.99
859.839	47.21
860.009	46.27
860.18	48.93
860.351	48.15
860.522	46.14
860.692	43.3
860.863	43.43
861.034	42.46
861.204	36.63
861.375	37.74
861.546	41.7
861.716	36.82
861.887	35.71
862.057	35.04
862.228	33.02
862.398	36.58
862.569	35.49
862.739	34.76
862.91	34.45
863.08	37.13
863.251	35.38
863.421	32.5
863.592	40.15
863.762	42.68
863.932	42.19
864.103	43.96
864.273	43.97
864.443	44.53
864.614	46.74
864.784	46.42
864.954	43.53
865.125	42.93
865.295	43.75
865.465	42.78
865.635	40.6
865.805	37.31
865.976	34.15
866.146	30.99
866.316	33.06
866.486	30.12
866.656	32.02
866.826	37.57
866.996	37.37
867.166	40.24
867.336	40.17
867.506	42.84
867.676	44.64
867.846	49.02
868.016	52.16
868.186	50.71
868.356	53.65
868.526	52.17
868.696	49.48
868.866	47.69
869.036	47.99
869.206	44.84
869.376	42.91
869.545	43.95
869.715	44.96
869.885	47.46
870.055	46.89
870.224	42.05
870.394	42.12
870.564	40.48
870.734	44.49
870.903	40.48
871.073	43.15
871.243	43.4
871.412	46.58
871.582	41.68
871.751	39.85
871.921	39.55
872.091	41.84
872.26	43.67
872.43	44.87
872.599	42.39
872.769	43.71
872.938	48.04
873.108	48.22
873.277	44.55
873.446	46.87
873.616	45.01
873.785	45.77
873.955	44.41
874.124	41.33
874.293	42.25
874.463	44.17
874.632	42.92
874.801	39.49
874.971	40.34
875.14	39.38
875.309	40.95
875.478	40.7
875.647	41.36
875.817	43.49
875.986	45.53
876.155	44.31
876.324	45.06
876.493	49.55
876.662	49.93
876.831	47.93
877	46.77
877.17	45.15
877.339	48.26
877.508	46.53
877.677	41.92
877.846	40.22
878.015	39.26
878.184	38.06
878.352	38.47
878.521	35.65
878.69	37.47
878.859	37.24
879.028	35.82
879.197	35.05
879.366	37.36
879.534	40.89
879.703	41.77
879.872	42.76
880.041	40.96
880.21	39.29
880.378	39.44
880.547	38.39
880.716	39.6
880.884	39.11
881.053	39.03
881.222	37.69
881.39	35.98
881.559	35.92
881.727	36.22
881.896	36.39
882.065	36.36
882.233	36.9
882.402	36.44
882.57	36.23
882.739	36.33
882.907	36.02
883.076	35.71
883.244	36.09
883.412	35.28
883.581	35.36
883.749	35.39
883.918	35.75
884.086	36.34
884.254	38.09
884.423	38.08
884.591	38.98
884.759	39.67
884.927	40.08
885.096	39.93
885.264	40.95
885.432	40.48
885.6	41.4
885.769	41.98
885.937	40.49
886.105	39.71
886.273	39.77
886.441	39.48
886.609	39.67
886.777	40.17
886.945	42.24
887.113	41.35
887.281	42.08
887.449	41.58
887.617	40.44
887.785	41.55
887.953	40.9
888.121	41.88
888.289	42.74
888.457	41.32
888.625	43.3
888.793	41.34
888.961	44.31
889.129	45.67
889.296	47.75
889.464	48.27
889.632	48.63
889.8	48.11
889.967	48.58
890.135	46.88
