Data from 2938478_Reflection_3.txt Node
Date: Wed Jun 17 01:23:16 EDT 2015
User: robert
Spectrometer: USB4E03002
Autoset integration time: false
Trigger mode: 4
Integration Time (sec): 1.000000E-1
Scans to average: 10
Electric dark correction enabled: true
Nonlinearity correction enabled: false
Boxcar width: 5
Stray light correction enabled: false
XAxis mode: Wavelengths
Stop averaging: false
Number of Pixels in Spectrum: 3648
>>>>>Begin Spectral Data<<<<<
177.575	-154.13
177.794	-171.36
178.014	-70.23
178.233	-98.66
178.452	-42.93
178.672	56.14
178.891	163.57
179.11	-111.7
179.33	-252.68
179.549	-229.63
179.768	-153.49
179.987	-155.99
180.207	-156.22
180.426	-61.17
180.645	-43.35
180.864	-25.17
181.084	18.3
181.303	21.55
181.522	37.18
181.741	68.76
181.96	94.26
182.179	115.54
182.398	144.5
182.618	159.86
182.837	2861.72
183.056	-49733.33
183.275	-171.11
183.494	-71.56
183.713	-109.26
183.932	-46.1
184.151	-34.64
184.37	-55.5
184.589	-40.69
184.808	-68.41
185.027	-77.65
185.246	-137.52
185.465	-123.48
185.684	-333.33
185.903	2768.15
186.122	-447.98
186.341	-619.31
186.56	977.5
186.779	13572.73
186.998	707.24
187.216	618.24
187.435	642.73
187.654	287.49
187.873	663.24
188.092	709.32
188.311	3186.81
188.53	333.41
188.748	1310.14
188.967	1917.68
189.186	-1095.11
189.405	-1060.71
189.623	-395.5
189.842	-627.78
190.061	-196.76
190.28	-242.52
190.498	-236.23
190.717	936.16
190.936	-193.43
191.154	-151.75
191.373	-143.32
191.592	33.76
191.81	-790.22
192.029	92.51
192.248	-65.64
192.466	-123.77
192.685	30.08
192.904	33.31
193.122	25.4
193.341	37.94
193.559	42.89
193.778	18.17
193.996	26.21
194.215	31.42
194.433	26.83
194.652	38.98
194.87	40.33
195.089	28.84
195.307	14.54
195.526	22.31
195.744	-3.68
195.963	10.75
196.181	35.55
196.399	10.91
196.618	-9.22
196.836	-6.66
197.055	-86.28
197.273	-440.71
197.491	-293.86
197.71	-84.04
197.928	-429.02
198.146	-302.9
198.365	-14302.63
198.583	-2276.26
198.801	3659.02
199.019	-1324.12
199.238	-691.88
199.456	-157.85
199.674	-83.44
199.892	-51.44
200.111	-56.25
200.329	-61.68
200.547	43.2
200.765	54.37
200.983	8.59
201.202	-40.74
201.42	62.78
201.638	62.64
201.856	-16.79
202.074	-80.61
202.292	-84.23
202.51	-21.13
202.728	0.34
202.946	-23.51
203.165	-17.17
203.383	-33.95
203.601	-57.95
203.819	-72.09
204.037	-192.3
204.255	-346.32
204.473	-3330.93
204.691	654.29
204.909	216.69
205.127	195.56
205.345	185.35
205.562	180.61
205.78	192.66
205.998	316.44
206.216	367.27
206.434	254.15
206.652	113.48
206.87	151.77
207.088	116.86
207.306	178.6
207.523	153.26
207.741	112.68
207.959	137.61
208.177	217.67
208.395	276.2
208.612	373.05
208.83	5471.7
209.048	-299.2
209.266	-179.87
209.483	-85.33
209.701	-59.45
209.919	-114.48
210.136	-90.27
210.354	3055.19
210.572	-679.64
210.79	423.57
211.007	228.5
211.225	257.01
211.442	331.42
211.66	242.4
211.878	230.64
212.095	516.95
212.313	-97.74
212.53	-249.11
212.748	-83.84
212.966	-188.46
213.183	-220.22
213.401	-1006.34
213.618	-614.41
213.836	-289.18
214.053	-418.39
214.271	-877.11
214.488	-255.52
214.705	-212.09
214.923	-111.86
215.14	-155.02
215.358	-151.1
215.575	-125.22
215.793	-23.13
216.01	-28.31
216.227	-126.54
216.445	-118.32
216.662	-50.57
216.879	-78.72
217.097	-72.63
217.314	-37.06
217.531	-8.19
217.749	16.44
217.966	16.5
218.183	-33.04
218.4	4.69
218.618	18.2
218.835	31.79
219.052	30.46
219.269	29.82
219.487	23.02
219.704	9.32
219.921	4.94
220.138	3.27
220.355	0.17
220.572	-0.01
220.79	-13.62
221.007	-5.29
221.224	8.75
221.441	3.04
221.658	8.07
221.875	-0.14
222.092	-4.45
222.309	-12.02
222.526	4.72
222.743	16.57
222.96	14.75
223.177	20.47
223.394	23.19
223.611	19.27
223.828	21.45
224.045	15.41
224.262	19.07
224.479	22.2
224.696	19.26
224.913	14.88
225.13	11.58
225.347	12.3
225.564	9.89
225.781	9.43
225.997	7.7
226.214	7.82
226.431	7.88
226.648	6.7
226.865	6
227.082	7.52
227.298	6.94
227.515	5.33
227.732	6.47
227.949	6.91
228.165	5.33
228.382	5.72
228.599	4.2
228.816	4.35
229.032	4.64
229.249	5.52
229.466	5.83
229.682	7.12
229.899	8.86
230.116	8.75
230.332	10.04
230.549	12.52
230.765	15.05
230.982	17.94
231.199	18.49
231.415	18.58
231.632	17.67
231.848	16.61
232.065	15.04
232.281	12.61
232.498	10.28
232.714	9.22
232.931	6.6
233.147	3.99
233.364	2.06
233.58	1.56
233.797	1.88
234.013	1.42
234.23	0.62
234.446	1.13
234.662	2.01
234.879	3.01
235.095	2.53
235.312	4.04
235.528	3.39
235.744	2.4
235.961	3.7
236.177	2.94
236.393	5.24
236.61	6.76
236.826	7.02
237.042	9.31
237.258	9.41
237.475	9.42
237.691	9.1
237.907	7.86
238.123	8.5
238.339	7.97
238.556	6.75
238.772	5.38
238.988	4.88
239.204	5.9
239.42	6.17
239.636	5.87
239.853	6.05
240.069	6.62
240.285	6.87
240.501	6.87
240.717	7.4
240.933	7.48
241.149	7.56
241.365	7.34
241.581	7.45
241.797	7.18
242.013	7.86
242.229	8.75
242.445	8.4
242.661	8.84
242.877	8.99
243.093	9
243.309	9.07
243.525	9.6
243.741	10.99
243.957	10.2
244.173	10.69
244.388	9.99
244.604	9.38
244.82	8.91
245.036	9.16
245.252	9.02
245.468	8.72
245.683	8.54
245.899	8.47
246.115	7.74
246.331	7.99
246.547	7.71
246.762	8.06
246.978	8.06
247.194	8.5
247.409	7.96
247.625	7.94
247.841	8.12
248.057	8.98
248.272	7.98
248.488	6.71
248.703	5.53
248.919	5.41
249.135	6.21
249.35	5.41
249.566	5.52
249.782	6.45
249.997	6.73
250.213	6.45
250.428	6.18
250.644	6.47
250.859	7.71
251.075	8.29
251.29	8.22
251.506	6.7
251.721	7.45
251.937	7.22
252.152	6.81
252.368	6.35
252.583	6.9
252.798	7.36
253.014	8.14
253.229	8.49
253.445	7.16
253.66	6.66
253.875	7.71
254.091	7.27
254.306	7.41
254.521	7.33
254.737	7.53
254.952	7.69
255.167	6.04
255.383	6.98
255.598	7.42
255.813	7.34
256.028	7.21
256.244	6.34
256.459	6.08
256.674	6.17
256.889	6.18
257.104	6.12
257.32	5.85
257.535	6.12
257.75	5.69
257.965	5.29
258.18	5.92
258.395	5.8
258.61	5.8
258.826	5.47
259.041	5.24
259.256	5.25
259.471	5.25
259.686	4.92
259.901	4.77
260.116	4.38
260.331	4.53
260.546	4.25
260.761	4.36
260.976	4.07
261.191	4.47
261.406	4.14
261.621	4.07
261.836	3.53
262.05	3.66
262.265	4.6
262.48	5.58
262.695	5.61
262.91	5.01
263.125	4.77
263.34	5.53
263.555	5.95
263.769	6.43
263.984	6.28
264.199	6.71
264.414	6.53
264.629	6
264.843	5.53
265.058	5.79
265.273	5.6
265.488	5.68
265.702	5.56
265.917	5.28
266.132	4.82
266.346	5.17
266.561	4.72
266.776	4.72
266.99	4.86
267.205	4.49
267.42	4.19
267.634	4.36
267.849	4.52
268.063	4.35
268.278	4.14
268.492	4.63
268.707	4.03
268.922	3.96
269.136	3.86
269.351	3.66
269.565	4.44
269.78	4.3
269.994	4.11
270.209	4.17
270.423	4.09
270.637	4.29
270.852	3.75
271.066	4.18
271.281	4.84
271.495	5.5
271.709	5.51
271.924	5.18
272.138	5.39
272.353	6.09
272.567	6.11
272.781	6.16
272.996	5.75
273.21	6.57
273.424	5.58
273.638	5.57
273.853	4.58
274.067	4.55
274.281	4.3
274.495	4.22
274.71	3.82
274.924	3.57
275.138	4
275.352	4.37
275.566	3.77
275.781	3.96
275.995	3.42
276.209	3.55
276.423	3.88
276.637	4.19
276.851	3.96
277.065	3.87
277.279	3.55
277.493	3.24
277.707	3.54
277.921	3.31
278.135	3.66
278.349	3.82
278.563	4.33
278.777	3.72
278.991	3.19
279.205	2.97
279.419	3.34
279.633	3.45
279.847	3.26
280.061	3.18
280.275	3.99
280.489	3.8
280.703	3.81
280.917	4.25
281.131	4.21
281.344	4.37
281.558	5.15
281.772	5.2
281.986	5.98
282.2	5.77
282.414	5.88
282.627	5.22
282.841	5.51
283.055	5.41
283.269	5.12
283.482	5.4
283.696	5.38
283.91	5.04
284.123	4.9
284.337	4.62
284.551	5
284.764	4.82
284.978	4.84
285.192	4.88
285.405	4.88
285.619	4.71
285.833	4.34
286.046	4.78
286.26	5.04
286.473	4.76
286.687	4.32
286.9	4.41
287.114	4.14
287.327	4.48
287.541	4.62
287.754	4.52
287.968	4.06
288.181	4.3
288.395	4.27
288.608	4.15
288.822	4.29
289.035	4.68
289.248	4.2
289.462	4.17
289.675	4.02
289.889	3.8
290.102	4.16
290.315	4.91
290.529	4.62
290.742	4.05
290.955	3.91
291.169	4.23
291.382	4.22
291.595	4.82
291.808	5.12
292.022	4.65
292.235	4.37
292.448	4.51
292.661	4.22
292.875	4.52
293.088	5.3
293.301	5.37
293.514	5.08
293.727	5.29
293.94	4.98
294.153	5.28
294.367	5.84
294.58	6.32
294.793	6.07
295.006	5.85
295.219	5.83
295.432	5.44
295.645	5.68
295.858	5.65
296.071	5.42
296.284	5.31
296.497	5.04
296.71	4.76
296.923	4.42
297.136	4.09
297.349	4.17
297.562	4.16
297.775	3.94
297.988	3.84
298.201	3.68
298.414	3.47
298.626	3.96
298.839	3.63
299.052	3.55
299.265	3.93
299.478	4.52
299.691	4.95
299.903	5.1
300.116	5.22
300.329	4.97
300.542	5.47
300.755	5.62
300.967	5.75
301.18	6.67
301.393	7.06
301.605	7.17
301.818	6.49
302.031	6.23
302.243	5.72
302.456	5.88
302.669	6.06
302.881	5.35
303.094	6.09
303.307	5.96
303.519	5.36
303.732	5.09
303.944	4.38
304.157	4.73
304.37	4.66
304.582	5.09
304.795	5.48
305.007	5.19
305.22	5.94
305.432	5.2
305.645	5.12
305.857	5.17
306.069	5.68
306.282	6.54
306.494	6.58
306.707	6.58
306.919	6.54
307.132	6.36
307.344	5.9
307.556	5.7
307.769	5.69
307.981	5.25
308.193	5.51
308.406	5.59
308.618	5.27
308.83	5.2
309.043	5.57
309.255	5.75
309.467	5.75
309.679	6.17
309.892	6.32
310.104	6.66
310.316	7.03
310.528	6.83
310.74	6.96
310.953	6.67
311.165	7
311.377	6.81
311.589	6.56
311.801	6.42
312.013	6.16
312.225	6.16
312.437	5.59
312.649	4.82
312.862	5.23
313.074	4.92
313.286	5.55
313.498	4.96
313.71	4.92
313.922	5.59
314.134	5.9
314.346	6.73
314.558	6.92
314.77	7.24
314.982	7.94
315.193	7.69
315.405	7.25
315.617	6.9
315.829	7.24
316.041	7.43
316.253	7.13
316.465	6.86
316.677	6.58
316.888	6.41
317.1	6.36
317.312	6.37
317.524	6.39
317.736	6.36
317.947	7.02
318.159	7.47
318.371	7.02
318.583	7.22
318.794	7.71
319.006	7.8
319.218	7.71
319.43	7.92
319.641	8.25
319.853	7.98
320.064	8.68
320.276	8.65
320.488	8.02
320.699	8.46
320.911	8.33
321.123	7.8
321.334	7.82
321.546	7.56
321.757	7.51
321.969	7.01
322.18	7.73
322.392	7.95
322.603	7.48
322.815	7.95
323.026	7.75
323.238	8.31
323.449	9.28
323.661	9.17
323.872	9.51
324.083	9.73
324.295	10.55
324.506	9.93
324.718	9.62
324.929	9.91
325.14	9.69
325.352	9.78
325.563	9.47
325.774	8.93
325.986	9.09
326.197	8.97
326.408	8.99
326.62	8.62
326.831	9.47
327.042	9.9
327.253	10
327.464	10.74
327.676	11.16
327.887	11.14
328.098	11.29
328.309	11.8
328.52	12.04
328.732	12.06
328.943	12.19
329.154	12
329.365	12.1
329.576	12.2
329.787	11.87
329.998	12.18
330.209	12.35
330.42	12.53
330.631	12.42
330.842	12.61
331.053	12.95
331.264	12.84
331.475	13.02
331.686	12.95
331.897	12.65
332.108	12.78
332.319	12.8
332.53	12.82
332.741	12.5
332.952	12.29
333.163	12.09
333.374	12.02
333.585	12.33
333.795	12.26
334.006	12.35
334.217	12.84
334.428	13.24
334.639	13.06
334.849	12.84
335.06	13.22
335.271	13.6
335.482	14.33
335.692	14.49
335.903	14.26
336.114	14.54
336.325	14.69
336.535	14.54
336.746	14.14
336.957	14.28
337.167	14.57
337.378	14.76
337.589	14.55
337.799	13.99
338.01	13.74
338.22	13.88
338.431	13.56
338.642	13.1
338.852	13.27
339.063	13.58
339.273	13.62
339.484	13.74
339.694	13.55
339.905	13.47
340.115	13.31
340.326	13.51
340.536	13.52
340.746	13.63
340.957	13.8
341.167	13.6
341.378	13.34
341.588	12.83
341.799	12.52
342.009	11.96
342.219	12.13
342.43	12.51
342.64	12.39
342.85	12.24
343.061	12.34
343.271	12.6
343.481	12.73
343.691	12.88
343.902	13.03
344.112	13.32
344.322	13.62
344.532	13.68
344.743	13.85
344.953	13.73
345.163	13.79
345.373	13.83
345.583	13.42
345.793	13.25
346.004	13.27
346.214	13.69
346.424	13.35
346.634	13.44
346.844	13.18
347.054	12.86
347.264	12.99
347.474	12.96
347.684	13.2
347.894	13.71
348.104	13.88
348.314	13.6
348.524	13.02
348.734	13.3
348.944	13.27
349.154	13.52
349.364	13.73
349.574	13.64
349.784	13.73
349.994	13.21
350.204	13.09
350.413	12.87
350.623	13.1
350.833	13.36
351.043	13.18
351.253	13.01
351.463	12.88
351.672	12.42
351.882	12.22
352.092	12.3
352.302	12.24
352.511	11.89
352.721	12.14
352.931	12.34
353.141	12.34
353.35	12.4
353.56	12.19
353.77	12.19
353.979	12.62
354.189	12.99
354.399	13.09
354.608	13
354.818	13.06
355.027	12.91
355.237	12.83
355.447	12.87
355.656	12.89
355.866	13.29
356.075	13.11
356.285	13.02
356.494	12.81
356.704	12.61
356.913	13.03
357.123	13.04
357.332	13
357.542	12.82
357.751	12.67
357.96	12.56
358.17	12.54
358.379	12.73
358.589	12.77
358.798	12.93
359.007	12.95
359.217	12.61
359.426	12.47
359.635	12.71
359.845	12.54
360.054	12.75
360.263	12.67
360.472	12.58
360.682	12.42
360.891	12.24
361.1	12.26
361.309	12.38
361.519	12.56
361.728	12.82
361.937	12.5
362.146	12.56
362.355	12.42
362.564	12.46
362.774	12.56
362.983	12.65
363.192	12.77
363.401	12.87
363.61	12.66
363.819	12.19
364.028	12.03
364.237	12.14
364.446	12.13
364.655	11.91
364.864	12.24
365.073	12.14
365.282	12.07
365.491	12
365.7	11.69
365.909	11.76
366.118	12.1
366.327	12.07
366.536	11.73
366.745	11.9
366.954	12.23
367.162	11.64
367.371	11.84
367.58	11.9
367.789	12.13
367.998	12.14
368.207	12.21
368.415	12.17
368.624	12.09
368.833	12.62
369.042	12.46
369.25	12.27
369.459	12.88
369.668	12.62
369.877	12.46
370.085	12.13
370.294	12
370.503	11.59
370.711	11.39
370.92	11.25
371.129	11.29
371.337	11.4
371.546	11.51
371.754	11.28
371.963	11.32
372.171	11.4
372.38	11.22
372.589	11.28
372.797	11.54
373.006	11.75
373.214	11.89
373.423	11.44
373.631	11.44
373.84	11.04
374.048	11.01
374.256	10.86
374.465	11.02
374.673	11.25
374.882	11.27
375.09	10.97
375.298	10.86
375.507	10.66
375.715	10.76
375.923	10.56
376.132	10.74
376.34	10.57
376.548	10.72
376.757	10.46
376.965	10.29
377.173	10.17
377.381	10.33
377.59	10.39
377.798	10.38
378.006	10.18
378.214	10.31
378.423	10.24
378.631	10.37
378.839	10.25
379.047	10.38
379.255	10.32
379.463	10.32
379.671	10.52
379.879	10.55
380.088	10.8
380.296	10.98
380.504	10.69
380.712	10.73
380.92	10.55
381.128	10.22
381.336	10.05
381.544	9.97
381.752	10
381.96	9.84
382.168	9.86
382.376	9.74
382.584	9.62
382.791	9.85
382.999	9.89
383.207	9.98
383.415	10.16
383.623	10.17
383.831	10.38
384.039	10.3
384.247	10.26
384.454	10.12
384.662	10.19
384.87	10.2
385.078	10.18
385.285	10.07
385.493	9.82
385.701	9.81
385.909	9.81
386.116	9.72
386.324	9.95
386.532	9.89
386.739	9.86
386.947	9.68
387.155	9.59
387.362	9.52
387.57	9.37
387.778	9.51
387.985	9.32
388.193	9.24
388.4	9.11
388.608	8.77
388.816	8.67
389.023	8.68
389.231	8.7
389.438	8.75
389.646	8.53
389.853	8.72
390.061	8.63
390.268	8.88
390.475	9.08
390.683	9.1
390.89	9.09
391.098	9.17
391.305	9.23
391.512	9.1
391.72	9.19
391.927	9.41
392.135	9.35
392.342	9.26
392.549	9.19
392.756	8.87
392.964	8.94
393.171	8.89
393.378	8.75
393.586	8.58
393.793	8.62
394	8.36
394.207	8.4
394.414	8.41
394.622	8.36
394.829	7.97
395.036	8.14
395.243	8.17
395.45	8.41
395.657	8.52
395.864	8.44
396.072	8.5
396.279	8.67
396.486	8.33
396.693	8.17
396.9	8.26
397.107	8.51
397.314	8.48
397.521	8.4
397.728	8.22
397.935	8.29
398.142	8.33
398.349	8.16
398.556	7.98
398.763	8.09
398.97	8.22
399.177	8.26
399.383	8.37
399.59	8.11
399.797	8.14
400.004	8.02
400.211	7.9
400.418	8
400.625	8.03
400.831	8.01
401.038	8.03
401.245	7.91
401.452	7.75
401.658	7.59
401.865	7.85
402.072	7.58
402.279	7.51
402.485	7.61
402.692	7.6
402.899	7.74
403.105	7.99
403.312	7.9
403.519	7.87
403.725	7.86
403.932	8.06
404.138	7.84
404.345	7.95
404.552	8.04
404.758	7.94
404.965	7.88
405.171	7.72
405.378	7.55
405.584	7.46
405.791	7.6
405.997	7.59
406.204	7.39
406.41	7.37
406.617	7.32
406.823	7.31
407.029	7.29
407.236	7.23
407.442	7.17
407.649	7.04
407.855	7.05
408.061	6.94
408.268	6.91
408.474	6.91
408.68	6.88
408.887	6.87
409.093	6.8
409.299	6.63
409.505	6.6
409.712	6.54
409.918	6.69
410.124	6.7
410.33	6.59
410.537	6.68
410.743	6.52
410.949	6.47
411.155	6.45
411.361	6.57
411.567	6.57
411.773	6.63
411.98	6.74
412.186	6.48
412.392	6.52
412.598	6.49
412.804	6.54
413.01	6.7
413.216	6.82
413.422	6.92
413.628	6.86
413.834	6.87
414.04	6.83
414.246	6.74
414.452	6.76
414.658	6.7
414.864	6.66
415.07	6.61
415.275	6.54
415.481	6.59
415.687	6.52
415.893	6.5
416.099	6.55
416.305	6.55
416.511	6.67
416.716	6.74
416.922	6.83
417.128	6.82
417.334	6.8
417.539	6.76
417.745	6.67
417.951	6.67
418.157	6.66
418.362	6.64
418.568	6.59
418.774	6.63
418.979	6.61
419.185	6.53
419.391	6.5
419.596	6.43
419.802	6.52
420.008	6.55
420.213	6.55
420.419	6.49
420.624	6.43
420.83	6.41
421.035	6.3
421.241	6.28
421.446	6.23
421.652	6.28
421.857	6.27
422.063	6.24
422.268	6.2
422.474	6.18
422.679	6.22
422.885	6.24
423.09	6.16
423.295	6.11
423.501	6.18
423.706	6.23
423.911	6.2
424.117	6.24
424.322	6.15
424.527	6.09
424.733	6.02
424.938	6.02
425.143	6.09
425.349	6.07
425.554	5.99
425.759	6
425.964	5.94
426.169	5.98
426.375	5.93
426.58	6.01
426.785	6
426.99	6.07
427.195	5.96
427.4	5.84
427.605	5.93
427.811	6.07
428.016	5.8
428.221	5.79
428.426	5.67
428.631	5.77
428.836	5.77
429.041	5.88
429.246	5.79
429.451	5.89
429.656	5.87
429.861	5.93
430.066	5.85
430.271	5.98
430.476	5.98
430.681	6.05
430.886	5.95
431.09	5.83
431.295	5.73
431.5	5.74
431.705	5.72
431.91	5.77
432.115	5.74
432.32	5.75
432.524	5.76
432.729	5.75
432.934	5.72
433.139	5.77
433.343	5.83
433.548	5.95
433.753	6
433.958	6.04
434.162	6.14
434.367	6.2
434.572	6.25
434.776	6.11
434.981	6.17
435.186	6.11
435.39	6.1
435.595	6.03
435.799	6.03
436.004	5.97
436.209	5.93
436.413	5.73
436.618	5.75
436.822	5.84
437.027	5.87
437.231	5.79
437.436	5.81
437.64	5.75
437.845	5.76
438.049	5.7
438.253	5.67
438.458	5.63
438.662	5.64
438.867	5.6
439.071	5.56
439.275	5.6
439.48	5.55
439.684	5.51
439.888	5.47
440.093	5.49
440.297	5.47
440.501	5.55
440.706	5.56
440.91	5.58
441.114	5.62
441.318	5.55
441.523	5.47
441.727	5.59
441.931	5.67
442.135	5.71
442.339	5.66
442.543	5.69
442.748	5.72
442.952	5.73
443.156	5.75
443.36	5.69
443.564	5.75
443.768	5.84
443.972	5.87
444.176	5.93
444.38	5.95
444.584	6.03
444.788	5.97
444.992	5.89
445.196	5.91
445.4	5.88
445.604	5.86
445.808	5.86
446.012	5.86
446.216	5.79
446.42	5.79
446.624	5.79
446.828	5.76
447.032	5.73
447.235	5.74
447.439	5.68
447.643	5.71
447.847	5.76
448.051	5.67
448.254	5.57
448.458	5.55
448.662	5.47
448.866	5.47
449.069	5.52
449.273	5.6
449.477	5.62
449.681	5.68
449.884	5.62
450.088	5.6
450.292	5.67
450.495	5.69
450.699	5.72
450.902	5.75
451.106	5.69
451.31	5.63
451.513	5.51
451.717	5.52
451.92	5.54
452.124	5.58
452.327	5.57
452.531	5.53
452.734	5.65
452.938	5.65
453.141	5.61
453.345	5.65
453.548	5.58
453.752	5.71
453.955	5.69
454.158	5.63
454.362	5.58
454.565	5.43
454.769	5.41
454.972	5.34
455.175	5.4
455.379	5.51
455.582	5.56
455.785	5.63
455.988	5.69
456.192	5.67
456.395	5.67
456.598	5.69
456.801	5.74
457.005	5.82
457.208	5.79
457.411	5.71
457.614	5.66
457.817	5.66
458.021	5.6
458.224	5.53
458.427	5.49
458.63	5.49
458.833	5.48
459.036	5.48
459.239	5.43
459.442	5.41
459.645	5.44
459.848	5.43
460.051	5.36
460.254	5.39
460.457	5.43
460.66	5.46
460.863	5.51
461.066	5.51
461.269	5.6
461.472	5.58
461.675	5.65
461.878	5.66
462.081	5.61
462.284	5.61
462.486	5.55
462.689	5.52
462.892	5.56
463.095	5.44
463.298	5.52
463.5	5.56
463.703	5.57
463.906	5.53
464.109	5.54
464.311	5.52
464.514	5.59
464.717	5.66
464.92	5.6
465.122	5.59
465.325	5.6
465.528	5.65
465.73	5.59
465.933	5.61
466.135	5.7
466.338	5.69
466.541	5.77
466.743	5.72
466.946	5.72
467.148	5.67
467.351	5.68
467.553	5.75
467.756	5.73
467.958	5.82
468.161	5.88
468.363	5.76
468.566	5.75
468.768	5.73
468.971	5.76
469.173	5.82
469.375	5.97
469.578	5.91
469.78	5.92
469.983	5.88
470.185	5.76
470.387	5.63
470.59	5.75
470.792	5.79
470.994	5.83
471.196	5.96
471.399	5.84
471.601	5.86
471.803	5.91
472.005	5.93
472.208	6.06
472.41	6.05
472.612	6.25
472.814	6.17
473.016	6.11
473.218	6.15
473.421	6.05
473.623	6.08
473.825	6.06
474.027	6.07
474.229	6.09
474.431	6.1
474.633	6.05
474.835	5.96
475.037	5.98
475.239	5.98
475.441	5.95
475.643	5.93
475.845	5.99
476.047	6.13
476.249	6.23
476.451	6.18
476.653	6.07
476.855	6.17
477.057	6.15
477.258	6.21
477.46	6.21
477.662	6.27
477.864	6.22
478.066	6.31
478.268	6.16
478.469	6.05
478.671	6.08
478.873	6.16
479.075	6.07
479.276	6.03
479.478	5.97
479.68	5.93
479.882	5.86
480.083	5.85
480.285	5.84
480.487	5.84
480.688	5.87
480.89	5.83
481.091	5.76
481.293	5.8
481.495	5.78
481.696	5.77
481.898	5.74
482.099	5.74
482.301	5.75
482.502	5.72
482.704	5.7
482.905	5.67
483.107	5.67
483.308	5.65
483.51	5.64
483.711	5.66
483.913	5.71
484.114	5.74
484.315	5.76
484.517	5.75
484.718	5.73
484.92	5.76
485.121	5.79
485.322	5.78
485.524	5.84
485.725	5.82
485.926	5.79
486.127	5.74
486.329	5.74
486.53	5.69
486.731	5.67
486.932	5.7
487.134	5.68
487.335	5.66
487.536	5.66
487.737	5.64
487.938	5.7
488.139	5.73
488.341	5.75
488.542	5.77
488.743	5.83
488.944	5.87
489.145	5.85
489.346	5.92
489.547	5.94
489.748	5.94
489.949	5.89
490.15	5.85
490.351	5.85
490.552	5.83
490.753	5.79
490.954	5.79
491.155	5.8
491.356	5.87
491.557	5.87
491.758	5.88
491.959	5.91
492.159	5.98
492.36	5.97
492.561	6.01
492.762	6.05
492.963	6.13
493.164	6.13
493.364	6.12
493.565	6.07
493.766	6.04
493.967	5.96
494.167	5.92
494.368	5.94
494.569	6.05
494.769	6.05
494.97	6.04
495.171	6.07
495.371	6.09
495.572	6.06
495.773	6.1
495.973	6.05
496.174	6.13
496.375	6.19
496.575	6.19
496.776	6.13
496.976	6.09
497.177	6.11
497.377	6.17
497.578	6.22
497.778	6.34
497.979	6.42
498.179	6.5
498.38	6.57
498.58	6.61
498.78	6.66
498.981	6.7
499.181	6.81
499.382	6.86
499.582	6.81
499.782	6.78
499.983	6.72
500.183	6.7
500.383	6.73
500.584	6.69
500.784	6.66
500.984	6.6
501.184	6.65
501.385	6.66
501.585	6.75
501.785	6.75
501.985	6.8
502.185	6.87
502.386	6.89
502.586	6.89
502.786	6.86
502.986	6.97
503.186	7.02
503.386	7
503.586	6.98
503.786	6.92
503.987	6.93
504.187	6.97
504.387	7.01
504.587	6.96
504.787	7.02
504.987	7.13
505.187	7.13
505.387	7.18
505.587	7.27
505.786	7.25
505.986	7.36
506.186	7.47
506.386	7.45
506.586	7.43
506.786	7.52
506.986	7.48
507.186	7.53
507.386	7.54
507.585	7.6
507.785	7.57
507.985	7.68
508.185	7.65
508.384	7.66
508.584	7.68
508.784	7.72
508.984	7.74
509.183	7.83
509.383	7.8
509.583	7.85
509.782	7.91
509.982	8.01
510.182	8.1
510.381	8.12
510.581	8.19
510.781	8.27
510.98	8.33
511.18	8.35
511.379	8.39
511.579	8.42
511.778	8.44
511.978	8.44
512.177	8.47
512.377	8.41
512.576	8.53
512.776	8.54
512.975	8.58
513.175	8.69
513.374	8.81
513.573	8.88
513.773	8.96
513.972	9.03
514.172	9.08
514.371	9.11
514.57	9.16
514.77	9.22
514.969	9.25
515.168	9.32
515.367	9.25
515.567	9.24
515.766	9.3
515.965	9.31
516.164	9.41
516.364	9.42
516.563	9.49
516.762	9.57
516.961	9.58
517.16	9.65
517.359	9.64
517.559	9.65
517.758	9.64
517.957	9.65
518.156	9.73
518.355	9.7
518.554	9.79
518.753	9.79
518.952	9.83
519.151	9.79
519.35	9.86
519.549	9.95
519.748	10.16
519.947	10.22
520.146	10.27
520.345	10.37
520.544	10.43
520.743	10.42
520.942	10.53
521.141	10.54
521.339	10.72
521.538	10.64
521.737	10.72
521.936	10.64
522.135	10.7
522.333	10.68
522.532	10.68
522.731	10.7
522.93	10.71
523.129	10.72
523.327	10.76
523.526	10.8
523.725	10.88
523.923	10.82
524.122	10.88
524.321	10.91
524.519	10.93
524.718	10.92
524.917	10.97
525.115	11.04
525.314	11.08
525.512	11.12
525.711	11.15
525.909	11.18
526.108	11.19
526.306	11.17
526.505	11.21
526.703	11.24
526.902	11.3
527.1	11.32
527.299	11.35
527.497	11.39
527.696	11.43
527.894	11.44
528.092	11.49
528.291	11.58
528.489	11.66
528.688	11.74
528.886	11.82
529.084	11.88
529.283	11.95
529.481	12.04
529.679	12.14
529.877	12.19
530.076	12.26
530.274	12.29
530.472	12.29
530.67	12.31
530.869	12.31
531.067	12.31
531.265	12.32
531.463	12.31
531.661	12.29
531.859	12.27
532.057	12.28
532.255	12.3
532.454	12.29
532.652	12.37
532.85	12.41
533.048	12.47
533.246	12.49
533.444	12.55
533.642	12.64
533.84	12.74
534.038	12.79
534.236	12.83
534.434	12.87
534.632	12.95
534.83	12.94
535.027	13
535.225	13.04
535.423	13.16
535.621	13.15
535.819	13.15
536.017	13.14
536.215	13.19
536.412	13.23
536.61	13.27
536.808	13.38
537.006	13.38
537.203	13.44
537.401	13.45
537.599	13.43
537.797	13.49
537.994	13.51
538.192	13.59
538.39	13.63
538.587	13.59
538.785	13.58
538.983	13.54
539.18	13.56
539.378	13.53
539.575	13.55
539.773	13.57
539.97	13.57
540.168	13.58
540.366	13.59
540.563	13.61
540.761	13.63
540.958	13.72
541.155	13.78
541.353	13.86
541.55	13.93
541.748	13.98
541.945	14.09
542.143	14.14
542.34	14.22
542.537	14.29
542.735	14.39
542.932	14.5
543.129	14.5
543.327	14.64
543.524	14.67
543.721	14.66
543.919	14.68
544.116	14.68
544.313	14.77
544.51	14.78
544.708	14.78
544.905	14.74
545.102	14.75
545.299	14.82
545.496	14.8
545.693	14.9
545.891	14.96
546.088	15.08
546.285	15.03
546.482	15.13
546.679	15.23
546.876	15.28
547.073	15.39
547.27	15.51
547.467	15.47
547.664	15.45
547.861	15.49
548.058	15.54
548.255	15.62
548.452	15.85
548.649	15.8
548.846	15.85
549.043	16.02
549.24	16.1
549.437	16.18
549.633	16.4
549.83	16.45
550.027	16.47
550.224	16.63
550.421	16.6
550.618	16.56
550.814	16.64
551.011	16.56
551.208	16.55
551.405	16.54
551.601	16.5
551.798	16.47
551.995	16.57
552.191	16.59
552.388	16.64
552.585	16.6
552.781	16.58
552.978	16.69
553.175	16.82
553.371	16.84
553.568	16.95
553.764	16.99
553.961	17.02
554.157	16.97
554.354	17.14
554.55	17.08
554.747	17.18
554.943	17.42
555.14	17.35
555.336	17.3
555.533	17.33
555.729	17.23
555.926	17.25
556.122	17.27
556.318	17.42
556.515	17.36
556.711	17.49
556.907	17.62
557.104	17.57
557.3	17.71
557.496	17.83
557.693	17.94
557.889	18.16
558.085	18.28
558.281	18.35
558.478	18.36
558.674	18.39
558.87	18.46
559.066	18.47
559.262	18.5
559.459	18.58
559.655	18.68
559.851	18.66
560.047	18.59
560.243	18.56
560.439	18.59
560.635	18.71
560.831	18.8
561.027	18.76
561.223	18.79
561.419	18.8
561.615	18.84
561.811	18.88
562.007	18.96
562.203	19.15
562.399	19.32
562.595	19.37
562.791	19.42
562.987	19.41
563.183	19.44
563.379	19.49
563.575	19.49
563.771	19.5
563.966	19.54
564.162	19.66
564.358	19.57
564.554	19.57
564.75	19.67
564.945	19.72
565.141	19.83
565.337	19.87
565.533	19.86
565.728	19.96
565.924	20.06
566.12	20.18
566.315	20.15
566.511	20.28
566.707	20.38
566.902	20.37
567.098	20.4
567.293	20.38
567.489	20.48
567.684	20.63
567.88	20.69
568.076	20.65
568.271	20.71
568.467	20.7
568.662	20.75
568.858	20.74
569.053	20.76
569.248	20.82
569.444	20.84
569.639	20.87
569.835	20.85
570.03	20.89
570.225	20.94
570.421	20.91
570.616	20.95
570.812	21
571.007	21.09
571.202	21.12
571.397	21.1
571.593	21.27
571.788	21.36
571.983	21.42
572.178	21.45
572.374	21.55
572.569	21.65
572.764	21.73
572.959	21.76
573.154	21.75
573.35	21.85
573.545	21.97
573.74	22.01
573.935	22.07
574.13	22.15
574.325	22.28
574.52	22.29
574.715	22.27
574.91	22.36
575.105	22.4
575.3	22.5
575.495	22.52
575.69	22.55
575.885	22.61
576.08	22.64
576.275	22.75
576.47	22.84
576.665	22.97
576.86	23.13
577.055	23.19
577.25	23.31
577.444	23.39
577.639	23.4
577.834	23.44
578.029	23.47
578.224	23.54
578.418	23.47
578.613	23.41
578.808	23.37
579.003	23.5
579.197	23.57
579.392	23.54
579.587	23.67
579.781	23.93
579.976	24.05
580.171	24.15
580.365	24.29
580.56	24.48
580.755	24.6
580.949	24.78
581.144	24.66
581.338	24.66
581.533	24.69
581.727	24.82
581.922	24.73
582.116	24.7
582.311	24.6
582.505	24.46
582.7	24.42
582.894	24.45
583.089	24.34
583.283	24.34
583.478	24.34
583.672	24.42
583.866	24.31
584.061	24.5
584.255	24.6
584.449	24.68
584.644	24.68
584.838	24.71
585.032	24.72
585.226	24.76
585.421	24.95
585.615	25.09
585.809	25.22
586.003	25.41
586.198	25.37
586.392	25.36
586.586	25.49
586.78	25.8
586.974	25.84
587.168	25.75
587.363	25.82
587.557	25.86
587.751	25.9
587.945	25.94
588.139	25.75
588.333	25.81
588.527	25.96
588.721	26.15
588.915	26.08
589.109	26.15
589.303	26.26
589.497	26.48
589.691	26.31
589.885	26.32
590.079	26.24
590.273	26.38
590.466	26.48
590.66	26.4
590.854	26.3
591.048	26.35
591.242	26.47
591.436	26.48
591.629	26.34
591.823	26.61
592.017	26.63
592.211	26.61
592.404	26.55
592.598	26.55
592.792	26.54
592.986	26.57
593.179	26.55
593.373	26.55
593.567	26.62
593.76	26.77
593.954	26.7
594.147	26.85
594.341	27.01
594.535	27.23
594.728	27.29
594.922	27.36
595.115	27.31
595.309	27.36
595.502	27.34
595.696	27.33
595.889	27.34
596.083	27.38
596.276	27.36
596.47	27.41
596.663	27.31
596.856	27.35
597.05	27.29
597.243	27.4
597.437	27.49
597.63	27.59
597.823	27.59
598.017	27.61
598.21	27.65
598.403	27.7
598.596	27.69
598.79	27.81
598.983	27.8
599.176	27.9
599.369	27.85
599.563	27.87
599.756	27.94
599.949	28.04
600.142	27.88
600.335	28.02
600.528	27.94
600.722	27.92
600.915	27.76
601.108	27.78
601.301	27.7
601.494	27.64
601.687	27.6
601.88	27.6
602.073	27.73
602.266	27.87
602.459	27.74
602.652	27.88
602.845	27.94
603.038	27.93
603.231	27.96
603.424	28.14
603.617	28.13
603.809	28.06
604.002	28.1
604.195	28.02
604.388	28.02
604.581	28.09
604.774	28.03
604.966	28.1
605.159	28.31
605.352	28.36
605.545	28.39
605.737	28.57
605.93	28.67
606.123	28.6
606.316	28.67
606.508	28.63
606.701	28.77
606.894	28.83
607.086	28.61
607.279	28.52
607.471	28.5
607.664	28.52
607.857	28.49
608.049	28.51
608.242	28.51
608.434	28.54
608.627	28.74
608.819	28.68
609.012	28.65
609.204	28.83
609.397	28.88
609.589	28.88
609.782	28.84
609.974	28.98
610.166	29.07
610.359	29.03
610.551	28.99
610.743	28.99
610.936	29.12
611.128	29.17
611.32	29.24
611.513	29.46
611.705	29.51
611.897	29.62
612.09	29.7
612.282	29.73
612.474	29.99
612.666	30.05
612.858	30.11
613.051	30.26
613.243	30.42
613.435	30.36
613.627	30.3
613.819	30.3
614.011	30.29
614.203	30.13
614.395	30.17
614.588	30.06
614.78	30.13
614.972	29.91
615.164	29.66
615.356	29.49
615.548	29.52
615.74	29.42
615.932	29.54
616.124	29.59
616.315	29.55
616.507	29.45
616.699	29.58
616.891	29.69
617.083	29.87
617.275	30
617.467	30.11
617.659	30.35
617.85	30.33
618.042	30.22
618.234	30.29
618.426	30.49
618.618	30.55
618.809	30.46
619.001	30.28
619.193	30.29
619.384	30.23
619.576	30.18
619.768	29.94
619.959	30.15
620.151	30.29
620.343	30.32
620.534	30.19
620.726	30.25
620.917	30.38
621.109	30.36
621.301	30.37
621.492	30.36
621.684	30.43
621.875	30.61
622.067	30.43
622.258	30.44
622.45	30.35
622.641	30.27
622.832	30.4
623.024	30.38
623.215	30.49
623.407	30.49
623.598	30.68
623.789	30.86
623.981	30.72
624.172	30.94
624.363	30.82
624.555	30.9
624.746	31.16
624.937	30.98
625.129	30.87
625.32	30.87
625.511	30.87
625.702	30.77
625.893	30.63
626.085	30.64
626.276	30.64
626.467	30.57
626.658	30.6
626.849	30.44
627.04	30.46
627.231	30.49
627.422	30.4
627.614	30.44
627.805	30.46
627.996	30.49
628.187	30.5
628.378	30.29
628.569	30.42
628.76	30.45
628.951	30.34
629.142	30.41
629.332	30.4
629.523	30.73
629.714	30.8
629.905	30.57
630.096	30.58
630.287	30.74
630.478	30.94
630.669	31.03
630.859	30.93
631.05	31.14
631.241	31.15
631.432	31.19
631.623	31.04
631.813	31.02
632.004	31.36
632.195	31.35
632.385	31.34
632.576	31.38
632.767	31.41
632.957	31.45
633.148	31.7
633.339	31.69
633.529	31.75
633.72	32.01
633.91	31.96
634.101	31.99
634.292	31.99
634.482	31.84
634.673	31.72
634.863	31.69
635.054	31.68
635.244	31.44
635.435	31.46
635.625	31.57
635.815	31.36
636.006	31.26
636.196	30.98
636.387	30.95
636.577	31.12
636.767	31.13
636.958	31.37
637.148	31.28
637.338	31.37
637.529	31.27
637.719	31.22
637.909	31.32
638.099	31.45
638.29	31.62
638.48	31.86
638.67	31.79
638.86	31.83
639.05	31.54
639.241	31.62
639.431	31.48
639.621	31.71
639.811	31.69
640.001	31.56
640.191	31.64
640.381	31.93
640.571	31.94
640.761	32.09
640.951	31.99
641.141	32.23
641.331	32.09
641.521	32.15
641.711	32.11
641.901	32.1
642.091	32.22
642.281	31.98
642.471	31.68
642.661	31.6
642.851	31.6
643.041	31.98
643.231	31.77
643.42	31.99
643.61	31.94
643.8	31.93
643.99	32.06
644.18	31.94
644.369	32.26
644.559	32.34
644.749	32.3
644.939	32.11
645.128	31.97
645.318	31.79
645.508	31.86
645.697	31.99
645.887	32
646.076	31.98
646.266	32.09
646.456	31.95
646.645	31.84
646.835	31.87
647.024	31.94
647.214	31.94
647.403	32.28
647.593	32.08
647.782	32.07
647.972	31.96
648.161	32.06
648.351	31.96
648.54	32.01
648.73	32.1
648.919	32.16
649.108	32.11
649.298	32.14
649.487	32.01
649.677	32.16
649.866	32.19
650.055	32.3
650.244	32.34
650.434	32.45
650.623	32.35
650.812	32.3
651.002	32.26
651.191	32.54
651.38	32.51
651.569	32.66
651.758	32.66
651.947	32.59
652.137	32.74
652.326	32.7
652.515	32.6
652.704	32.84
652.893	33.2
653.082	33.22
653.271	33.01
653.46	33.15
653.649	33.32
653.838	33.39
654.027	33.51
654.216	33.21
654.405	33.1
654.594	33.21
654.783	33
654.972	32.77
655.161	32.96
655.35	33.08
655.539	33.03
655.728	32.71
655.916	32.67
656.105	32.49
656.294	32.5
656.483	32.39
656.672	32.47
656.86	32.46
657.049	32.55
657.238	32.45
657.427	32.46
657.615	32.41
657.804	32.43
657.993	32.55
658.181	32.6
658.37	32.72
658.559	32.95
658.747	32.78
658.936	32.75
659.125	32.16
659.313	32.24
659.502	32.18
659.69	32.26
659.879	32.31
660.067	32.2
660.256	32.34
660.444	32.34
660.633	32.14
660.821	32.23
661.01	32.45
661.198	33.08
661.387	33
661.575	32.96
661.763	32.73
661.952	32.7
662.14	32.68
662.328	32.57
662.517	32.62
662.705	32.55
662.893	32.59
663.082	32.73
663.27	32.86
663.458	32.84
663.646	32.83
663.834	33.17
664.023	33.31
664.211	33.32
664.399	33.3
664.587	33.26
664.775	33.53
664.963	33.79
665.152	33.53
665.34	33.72
665.528	33.91
665.716	34.01
665.904	33.9
666.092	33.92
666.28	33.79
666.468	33.92
666.656	34.13
666.844	34.06
667.032	33.85
667.22	33.91
667.408	33.85
667.596	33.47
667.784	33.44
667.971	33.4
668.159	33.49
668.347	33.56
668.535	33.34
668.723	33.07
668.911	32.98
669.098	32.91
669.286	32.89
669.474	32.73
669.662	33.03
669.849	33.28
670.037	33.46
670.225	32.99
670.413	33
670.6	33.38
670.788	33.74
670.976	33.97
671.163	33.84
671.351	33.79
671.538	33.9
671.726	33.96
671.913	33.77
672.101	33.52
672.289	33.66
672.476	33.61
672.664	33.65
672.851	33.62
673.039	33.41
673.226	33.59
673.413	33.79
673.601	33.61
673.788	33.44
673.976	33.53
674.163	33.49
674.35	33.9
674.538	34.01
674.725	33.82
674.912	33.72
675.1	33.93
675.287	33.95
675.474	33.95
675.662	33.78
675.849	33.82
676.036	33.66
676.223	33.92
676.411	33.82
676.598	33.88
676.785	33.82
676.972	33.77
677.159	33.64
677.346	33.65
677.533	33.74
677.721	33.97
677.908	34.09
678.095	34.29
678.282	34.38
678.469	34.22
678.656	34.14
678.843	34.27
679.03	34.2
679.217	34.19
679.404	34.13
679.591	34.05
679.778	34.09
679.964	33.84
680.151	33.71
680.338	33.53
680.525	33.51
680.712	33.47
680.899	33.66
681.086	33.73
681.272	33.86
681.459	34.17
681.646	34.06
681.833	34.17
682.02	34.42
682.206	34.44
682.393	34.42
682.58	34.66
682.766	34.96
682.953	34.92
683.14	34.87
683.326	34.96
683.513	34.89
683.7	35.18
683.886	35.04
684.073	35.14
684.259	35.28
684.446	35.21
684.632	34.96
684.819	34.72
685.005	34.42
685.192	34.51
685.378	34.3
685.565	34.15
685.751	34.02
685.938	33.95
686.124	33.77
686.31	33.59
686.497	33.79
686.683	33.96
686.87	34.11
687.056	34.12
687.242	34.05
687.429	34.39
687.615	34.33
687.801	34.19
687.987	34.19
688.174	33.93
688.36	34.04
688.546	34.15
688.732	34.11
688.918	33.89
689.105	33.83
689.291	33.93
689.477	33.6
689.663	33.74
689.849	33.87
690.035	34.13
690.221	34.5
690.407	34.48
690.593	34.15
690.779	34.06
690.965	34.17
691.151	34.17
691.337	34.16
691.523	34.3
691.709	34.08
691.895	33.92
692.081	33.74
692.267	33.6
692.453	33.48
692.639	33.35
692.825	33.62
693.011	33.61
693.196	34.09
693.382	34.05
693.568	34.27
693.754	34.38
693.94	34.41
694.125	34.2
694.311	34.51
694.497	34.72
694.682	34.97
694.868	34.83
695.054	34.81
695.239	34.59
695.425	34.79
695.611	34.62
695.796	34.65
695.982	34.6
696.168	34.76
696.353	34.67
696.539	34.54
696.724	34.42
696.91	34.22
697.095	34.36
697.281	34.39
697.466	34.37
697.652	34.2
697.837	34.26
698.023	34.28
698.208	34.23
698.393	34.03
698.579	34.12
698.764	34.21
698.949	34.4
699.135	34.46
699.32	34.58
699.505	34.32
699.691	34.23
699.876	34.29
700.061	34.39
700.246	34.35
700.432	34.66
700.617	34.47
700.802	34.31
700.987	34.18
701.172	34.07
701.358	33.85
701.543	33.99
701.728	34.6
701.913	34.69
702.098	34.58
702.283	34.63
702.468	34.47
702.653	34.63
702.838	35
703.023	35.01
703.208	35.07
703.393	34.73
703.578	34.99
703.763	34.73
703.948	34.45
704.133	34.24
704.318	34.21
704.503	34.27
704.688	33.91
704.873	33.75
705.057	33.96
705.242	33.99
705.427	34.11
705.612	33.79
705.797	33.68
705.981	33.89
706.166	34.39
706.351	34.39
706.536	34.13
706.72	34.56
706.905	34.76
707.09	34.87
707.274	34.75
707.459	34.65
707.644	34.69
707.828	34.81
708.013	34.7
708.197	34.45
708.382	34.7
708.567	35.01
708.751	34.69
708.936	34.45
709.12	34.28
709.305	34.31
709.489	34.59
709.673	34.72
709.858	34.61
710.042	34.92
710.227	35.18
710.411	35.23
710.596	35.2
710.78	35.34
710.964	35.62
711.149	35.65
711.333	35.71
711.517	35.26
711.702	35.19
711.886	35.05
712.07	34.57
712.254	34.46
712.438	34.34
712.623	34.53
712.807	34.81
712.991	34.44
713.175	34.28
713.359	34.12
713.544	34.36
713.728	34.48
713.912	34.58
714.096	34.86
714.28	34.73
714.464	34.51
714.648	34.27
714.832	34.49
715.016	34.58
715.2	34.82
715.384	34.72
715.568	34.57
715.752	34.37
715.936	34.43
716.12	34.28
716.304	34.5
716.488	34.17
716.671	34.29
716.855	34.01
717.039	34.01
717.223	34.14
717.407	34.13
717.59	34.1
717.774	34.03
717.958	33.9
718.142	33.77
718.325	33.8
718.509	34.34
718.693	34.07
718.877	33.75
719.06	33.76
719.244	33.4
719.428	33.64
719.611	33.68
719.795	34.23
719.978	34.33
720.162	34.51
720.345	34.23
720.529	34.18
720.713	34.24
720.896	34.48
721.08	34.41
721.263	34.33
721.446	33.86
721.63	34.34
721.813	33.91
721.997	34.37
722.18	34.25
722.364	34.3
722.547	34.18
722.73	34.37
722.914	33.99
723.097	33.63
723.28	33.97
723.464	34.12
723.647	34.39
723.83	34.27
724.013	33.58
724.197	33.72
724.38	33.82
724.563	33.93
724.746	33.95
724.929	33.98
725.112	34.24
725.296	33.88
725.479	34.09
725.662	33.94
725.845	34.2
726.028	34.34
726.211	34.58
726.394	34.81
726.577	34.53
726.76	34.46
726.943	34.56
727.126	34.25
727.309	34.41
727.492	34.44
727.675	34.11
727.858	34.09
728.041	34.29
728.224	34.01
728.407	33.6
728.589	34.3
728.772	34.38
728.955	34.8
729.138	35.5
729.321	35.33
729.503	35.5
729.686	36.1
729.869	36.27
730.052	36.3
730.234	36.62
730.417	37.02
730.6	36.82
730.782	36.6
730.965	36.58
731.148	36.2
731.33	36.38
731.513	36.55
731.695	36.24
731.878	36.09
732.061	36.01
732.243	35.86
732.426	35.74
732.608	35.71
732.791	36.16
732.973	36.11
733.156	36.22
733.338	36.24
733.52	36.12
733.703	36.1
733.885	35.57
734.068	35.49
734.25	35.57
734.432	35.55
734.615	35.07
734.797	34.94
734.979	34.62
735.162	34.61
735.344	34.16
735.526	34.46
735.708	34.45
735.891	34.95
736.073	35.26
736.255	34.52
736.437	34.26
736.619	35.01
736.802	35
736.984	35.13
737.166	35.24
737.348	35.84
737.53	35.28
737.712	35.25
737.894	35.5
738.076	35.09
738.258	35.7
738.44	35.66
738.622	35.42
738.804	35.09
738.986	34.46
739.168	34.47
739.35	34.37
739.532	34.69
739.714	34.41
739.896	34.59
740.078	34.98
740.259	34.37
740.441	34.45
740.623	34.48
740.805	34.73
740.987	35.3
741.168	35.26
741.35	35.39
741.532	35.3
741.714	35.57
741.895	35.02
742.077	34.86
742.259	35.56
742.44	35.41
742.622	35.66
742.804	35.48
742.985	35.64
743.167	35.63
743.348	35.19
743.53	34.93
743.711	34.13
743.893	34.11
744.075	33.76
744.256	33.07
744.438	33.17
744.619	32.9
744.8	33.02
744.982	32.91
745.163	33.32
745.345	33.12
745.526	33.23
745.707	33.73
745.889	33.88
746.07	33.71
746.252	34.18
746.433	34.8
746.614	34.2
746.795	33.76
746.977	33.7
747.158	33.14
747.339	33.83
747.52	34.01
747.702	34.2
747.883	34.23
748.064	34.41
748.245	34.7
748.426	34.79
748.607	35.12
748.788	35.37
748.97	35.5
749.151	35.78
749.332	35.32
749.513	34.7
749.694	34.96
749.875	34.32
750.056	34.26
750.237	33.08
750.418	32.11
750.599	31.92
750.78	31.88
750.96	31.74
751.141	32.06
751.322	31.99
751.503	31.75
751.684	31.08
751.865	31.09
752.046	30.82
752.226	31.13
752.407	30.34
752.588	30.53
752.769	30.12
752.949	30.05
753.13	29.73
753.311	29.59
753.492	30.53
753.672	31.4
753.853	32.35
754.034	32.99
754.214	33.67
754.395	34.98
754.575	35.19
754.756	35.5
754.937	35.42
755.117	35.17
755.298	35.52
755.478	34.81
755.659	33.73
755.839	33.82
756.02	33.43
756.2	32.72
756.381	31.98
756.561	32.03
756.741	31.57
756.922	31.74
757.102	32.09
757.283	31.64
757.463	32.14
757.643	33.17
757.823	33.3
758.004	33.97
758.184	34.14
758.364	34.76
758.545	34.2
758.725	34.13
758.905	34.42
759.085	34.38
759.265	34.62
759.446	34.36
759.626	33.98
759.806	33.75
759.986	33.36
760.166	33.26
760.346	33.42
760.526	33.52
760.706	34.1
760.886	33.49
761.066	33.58
761.246	33.66
761.426	33.84
761.606	33.92
761.786	33.98
761.966	33.93
762.146	33.91
762.326	34.22
762.506	34.63
762.686	34.56
762.866	35.19
763.046	35.13
763.225	35.46
763.405	35.65
763.585	35.35
763.765	35.28
763.945	35.35
764.124	36.04
764.304	35.71
764.484	35.95
764.664	35.88
764.843	35.61
765.023	35.19
765.203	35.07
765.382	35.04
765.562	35.21
765.741	35.12
765.921	34.75
766.101	33.86
766.28	33.74
766.46	33.21
766.639	33.92
766.819	33.63
766.998	34.22
767.178	33.79
767.357	33.97
767.537	33.9
767.716	33.79
767.896	34
768.075	34.56
768.254	33.96
768.434	34.48
768.613	33.82
768.792	34.02
768.972	33.47
769.151	33.3
769.33	32.63
769.51	33.09
769.689	32.69
769.868	33.45
770.047	33.11
770.226	33.89
770.406	32.6
770.585	32.89
770.764	32.99
770.943	32.86
771.122	32.61
771.301	33.61
771.48	32.99
771.66	33.18
771.839	32.86
772.018	33.55
772.197	32.85
772.376	33.6
772.555	33.9
772.734	33.66
772.913	33.24
773.092	34.28
773.271	33.19
773.449	33.51
773.628	33.96
773.807	33.19
773.986	33.14
774.165	33.44
774.344	33.77
774.523	33.12
774.701	33.39
774.88	34.83
775.059	34.53
775.238	34.25
775.417	34.89
775.595	35.08
775.774	36.09
775.953	35.24
776.131	35.43
776.31	34.4
776.489	34.47
776.667	34.06
776.846	33.56
777.025	33.22
777.203	32.69
777.382	32.26
777.56	31.84
777.739	31.06
777.917	30.97
778.096	30.58
778.274	31
778.453	30.51
778.631	30.24
778.81	29.83
778.988	30.13
779.166	30.51
779.345	31.19
779.523	31.45
779.702	32.05
779.88	32.44
780.058	33.21
780.237	32.8
780.415	33.26
780.593	33.73
780.771	34.79
780.95	34.26
781.128	35.23
781.306	34.83
781.484	34.51
781.662	34.4
781.841	33.93
782.019	33.55
782.197	34.09
782.375	33.87
782.553	34.15
782.731	33.03
782.909	33.49
783.087	33.25
783.265	32.33
783.443	32.83
783.621	32.52
783.799	34.09
783.977	34.38
784.155	33.97
784.333	33.86
784.511	33.25
784.689	34.05
784.867	33.24
785.045	33.16
785.223	34.05
785.4	33.86
785.578	34.17
785.756	32.57
785.934	31.99
786.112	31.96
786.289	31.25
786.467	31.35
786.645	31.05
786.823	31.69
787	31.34
787.178	30.67
787.356	30.8
787.533	30.18
787.711	30.92
787.889	30.78
788.066	31.06
788.244	31.55
788.421	31.33
788.599	31.55
788.776	31.12
788.954	31.01
789.131	31.49
789.309	31.03
789.486	31.35
789.664	31.36
789.841	31.91
790.019	31.98
790.196	33.15
790.373	33.85
790.551	33.16
790.728	33.79
790.906	34.91
791.083	36.07
791.26	36.67
791.437	36.33
791.615	35.87
791.792	35.21
791.969	35.62
792.146	34.95
792.324	35.52
792.501	36.35
792.678	36.1
792.855	35.62
793.032	34.83
793.209	33.51
793.387	33.38
793.564	33.92
793.741	34.26
793.918	34.9
794.095	33.84
794.272	33.16
794.449	32.71
794.626	33.36
794.803	32.97
794.98	31.98
795.157	32.72
795.334	33.38
795.511	33.14
795.688	33.78
795.864	33.12
796.041	33.81
796.218	33.27
796.395	32.92
796.572	31.91
796.749	31.07
796.925	31.37
797.102	31.76
797.279	31.45
797.456	31.21
797.632	30.88
797.809	30.95
797.986	30.23
798.162	30.43
798.339	30.58
798.516	31.07
798.692	32.04
798.869	31.43
799.046	30.74
799.222	31.13
799.399	31.31
799.575	31.52
799.752	31.43
799.928	32.34
800.105	32.17
800.281	31.91
800.458	31.08
800.634	30.47
800.811	30.76
800.987	30.66
801.163	30.9
801.34	30.45
801.516	30.31
801.692	31.21
801.869	31.54
802.045	32.77
802.221	33.44
802.398	34.42
802.574	34.45
802.75	33.9
802.926	34.12
803.103	31.88
803.279	32.75
803.455	32.48
803.631	31.84
803.807	31.36
803.983	32.02
804.16	31.87
804.336	31.27
804.512	31.37
804.688	32.47
804.864	33.41
805.04	34.87
805.216	34.08
805.392	34.84
805.568	33.8
805.744	33.41
805.92	32.73
806.096	33.05
806.272	32.87
806.448	33.31
806.623	33.62
806.799	33.26
806.975	33.02
807.151	33.17
807.327	30.05
807.503	30.03
807.678	30.42
807.854	30.07
808.03	29.19
808.206	29.47
808.381	30.16
808.557	29.66
808.733	30.48
808.908	30.32
809.084	30.38
809.26	33.23
809.435	33.77
809.611	33.74
809.787	33.66
809.962	34.16
810.138	35.61
810.313	34.16
810.489	33.41
810.664	30.89
810.84	31.58
811.015	32.84
811.191	32.69
811.366	33.25
811.542	33.73
811.717	33.62
811.892	34.1
812.068	32.89
812.243	33.7
812.419	34.77
812.594	35.86
812.769	35.36
812.944	34.92
813.12	34.49
813.295	34.25
813.47	34.16
813.645	33.27
813.821	32.76
813.996	31.68
814.171	31.04
814.346	30.16
814.521	30.43
814.697	32.57
814.872	31.83
815.047	30.98
815.222	30.08
815.397	29.64
815.572	30.23
815.747	30.81
815.922	32.8
816.097	34.21
816.272	35.27
816.447	36.23
816.622	35.09
816.797	35.55
816.972	35.34
817.147	35.6
817.322	34.52
817.496	33.57
817.671	33.5
817.846	32.39
818.021	32.26
818.196	31.57
818.371	31.5
818.545	31.87
818.72	31.31
818.895	30.91
819.069	30.66
819.244	32.39
819.419	33.46
819.594	33.28
819.768	34.46
819.943	34.05
820.117	34.03
820.292	33.54
820.467	33.03
820.641	33.75
820.816	34.48
820.99	34.39
821.165	34.02
821.339	34.07
821.514	34.07
821.688	34.16
821.863	34.07
822.037	34.17
822.212	34.14
822.386	34.27
822.56	33.96
822.735	33.86
822.909	34.01
823.084	34.1
823.258	33.91
823.432	34.03
823.606	33.5
823.781	33.69
823.955	33.78
824.129	34.1
824.303	34.46
824.478	34.45
824.652	34.18
824.826	34.55
825	34.36
825.174	34.24
825.348	33.92
825.523	33.92
825.697	33.47
825.871	33.19
826.045	32.87
826.219	32.28
826.393	32.68
826.567	33
826.741	32.72
826.915	32.73
827.089	32.9
827.263	33.07
827.437	33.56
827.611	33.5
827.784	33.52
827.958	33.57
828.132	33.4
828.306	33.45
828.48	33.4
828.654	33.6
828.827	33.89
829.001	33.92
829.175	33.44
829.349	32.95
829.522	33.59
829.696	33.67
829.87	33.49
830.044	33.87
830.217	33.06
830.391	32.97
830.565	31.94
830.738	31.95
830.912	31.82
831.085	32.15
831.259	31.83
831.432	30.88
831.606	30.68
831.779	31.16
831.953	30.37
832.126	29.97
832.3	29.56
832.473	29.36
832.647	29.34
832.82	29.19
832.994	29.67
833.167	30.71
833.34	31.58
833.514	31.48
833.687	31.63
833.86	31.35
834.034	32.05
834.207	32.09
834.38	32.81
834.553	32.46
834.727	32.42
834.9	32.55
835.073	31.79
835.246	30.74
835.419	31.15
835.593	30.41
835.766	30.95
835.939	30.3
836.112	30.92
836.285	30.75
836.458	32.06
836.631	32.75
836.804	32.43
836.977	32.5
837.15	32.96
837.323	32.54
837.496	32.38
837.669	32.21
837.842	32.01
838.015	31.6
838.188	30.08
838.361	27.03
838.533	25.91
838.706	24.96
838.879	24.37
839.052	25.61
839.225	25.39
839.398	27.21
839.57	28.64
839.743	28.75
839.916	28.6
840.088	28.87
840.261	30.34
840.434	30.28
840.607	30.55
840.779	32.3
840.952	30.41
841.124	29.09
841.297	27.21
841.47	26.89
841.642	27.46
841.815	26.91
841.987	25.4
842.16	25.71
842.332	25.98
842.505	26.19
842.677	25.02
842.85	25.67
843.022	25.41
843.194	26
843.367	24.08
843.539	23.71
843.712	26.69
843.884	30.53
844.056	28.32
844.229	30.3
844.401	30.91
844.573	29.13
844.745	32.23
844.918	35.6
845.09	34.37
845.262	34.8
845.434	35.47
845.606	31.63
845.779	31.48
845.951	33.23
846.123	30.45
846.295	27.51
846.467	26.97
846.639	23.14
846.811	22.31
846.983	20.58
847.155	22.51
847.327	23.13
847.499	25.44
847.671	24.49
847.843	26.86
848.015	26.35
848.187	24.51
848.359	26.08
848.531	26.19
848.703	21.72
848.875	23.84
849.047	22.69
849.218	23.57
849.39	20.04
849.562	19.54
849.734	16.46
849.905	18.42
850.077	21.9
850.249	18.48
850.421	21.27
850.592	22.56
850.764	25.8
850.936	26.08
851.107	19.72
851.279	21.91
851.451	21.33
851.622	18.37
851.794	18.83
851.965	21.42
852.137	27.03
852.308	28.91
852.48	31.69
852.651	30.42
852.823	28.94
852.994	35.2
853.166	33.07
853.337	37.11
853.509	39.39
853.68	40.28
853.851	39.56
854.023	36.32
854.194	30.04
854.365	28.31
854.537	24.63
854.708	25.3
854.879	20.1
855.05	19.43
855.222	17.79
855.393	16.75
855.564	15.91
855.735	15.23
855.906	16.83
856.078	16.22
856.249	14.41
856.42	13.07
856.591	14.2
856.762	18.36
856.933	19.35
857.104	16.75
857.275	18.18
857.446	17.16
857.617	14.82
857.788	18.89
857.959	23.8
858.13	23.62
858.301	27.93
858.472	29.19
858.643	30.38
858.814	32.1
858.985	29.39
859.155	29.29
859.326	32
859.497	31.56
859.668	24.08
859.839	21.61
860.009	23.45
860.18	21.83
860.351	17.28
860.522	10.58
860.692	10.24
860.863	16.21
861.034	19.46
861.204	17.16
861.375	19.91
861.546	21.6
861.716	22.96
861.887	25.05
862.057	25.89
862.228	29.03
862.398	31.63
862.569	28.07
862.739	23.23
862.91	23.72
863.08	24.49
863.251	23.12
863.421	24.94
863.592	25.63
863.762	28.02
863.932	28.43
864.103	28.26
864.273	27.21
864.443	31.48
864.614	33.82
864.784	29.04
864.954	26.74
865.125	28.84
865.295	28.56
865.465	26.98
865.635	20.5
865.805	21.98
865.976	24.29
866.146	24.86
866.316	23.98
866.486	23.48
866.656	26.58
866.826	29.61
866.996	28
867.166	31.74
867.336	34.95
867.506	36.79
867.676	30.84
867.846	27.9
868.016	31.35
868.186	28.12
868.356	26.01
868.526	21.97
868.696	20.77
868.866	20.59
869.036	13.16
869.206	12.94
869.376	12.59
869.545	14.9
869.715	15.81
869.885	13.3
870.055	14.03
870.224	16.49
870.394	17.36
870.564	14.59
870.734	18.36
870.903	23.31
871.073	21.26
871.243	21.15
871.412	20.78
871.582	21.7
871.751	20.71
871.921	23.2
872.091	22.78
872.26	22.23
872.43	23.17
872.599	22.29
872.769	19.1
872.938	17.01
873.108	20.89
873.277	20.33
873.446	18.64
873.616	19.77
873.785	20.49
873.955	20.28
874.124	24.37
874.293	22.94
874.463	21.79
874.632	21.6
874.801	24.52
874.971	23.84
875.14	26.04
875.309	26.11
875.478	28.17
875.647	27.49
875.817	29.12
875.986	27.13
876.155	29.9
876.324	31.8
876.493	34.42
876.662	33.05
876.831	33.2
877	35.91
877.17	35.19
877.339	32.99
877.508	31.84
877.677	30.6
877.846	31.7
878.015	30.66
878.184	30.95
878.352	27.49
878.521	31.34
878.69	31.9
878.859	32.24
879.028	34.31
879.197	34.01
879.366	33.75
879.534	32.17
879.703	33.83
879.872	36.14
880.041	32.83
880.21	34.67
880.378	32.64
880.547	32.1
880.716	30.68
880.884	29.45
881.053	28.35
881.222	29.04
881.39	29.59
881.559	29.36
881.727	29.03
881.896	30.03
882.065	30.96
882.233	31.8
882.402	32.31
882.57	33.08
882.739	33.73
882.907	34.69
883.076	34.76
883.244	35.21
883.412	35.01
883.581	34.43
883.749	34.31
883.918	33.61
884.086	33.13
884.254	32.57
884.423	32.14
884.591	32.32
884.759	32.29
884.927	32.49
885.096	31.8
885.264	31.17
885.432	30.8
885.6	31.27
885.769	30.4
885.937	30.18
886.105	28.8
886.273	26.47
886.441	25.78
886.609	25.17
886.777	25.82
886.945	25.91
887.113	26.52
887.281	26.8
887.449	25.14
887.617	25.33
887.785	25.22
887.953	26.26
888.121	29.15
888.289	28.88
888.457	30.71
888.625	28.71
888.793	29.02
888.961	27.26
889.129	27.48
889.296	25.19
889.464	24.82
889.632	22.84
889.8	23.29
889.967	21.57
890.135	19.1
