Data from 2938571_Reflection_1.txt Node
Date: Sun Jun 14 22:03:36 EDT 2015
User: robert
Spectrometer: USB4E03002
Autoset integration time: false
Trigger mode: 4
Integration Time (sec): 1.000000E-1
Scans to average: 10
Electric dark correction enabled: true
Nonlinearity correction enabled: false
Boxcar width: 5
Stray light correction enabled: false
XAxis mode: Wavelengths
Stop averaging: false
Number of Pixels in Spectrum: 3648
>>>>>Begin Spectral Data<<<<<
177.575	123.17
177.794	39.98
178.014	-52.76
178.233	-86.77
178.452	-357.91
178.672	-59350
178.891	13.04
179.11	41.39
179.33	45.83
179.549	34.28
179.768	180.79
179.987	261.73
180.207	36.46
180.426	10.22
180.645	24.11
180.864	29.21
181.084	100.41
181.303	193.8
181.522	863.42
181.741	299.02
181.96	26863.64
182.179	-9657.97
182.398	-1888.59
182.618	-303.04
182.837	-51.43
183.056	-7.26
183.275	-2.3
183.494	55.41
183.713	54.99
183.932	57.99
184.151	40.47
184.37	58.45
184.589	79.23
184.808	91.48
185.027	96.47
185.246	99.29
185.465	128.43
185.684	157.72
185.903	259.13
186.122	-31.74
186.341	-628.14
186.56	-137.15
186.779	-797.72
186.998	3813.04
187.216	1376.25
187.435	274.52
187.654	408.08
187.873	209.89
188.092	94.24
188.311	86.7
188.53	102.08
188.748	124.95
188.967	114.17
189.186	89.32
189.405	133.33
189.623	99.74
189.842	72.8
190.061	1.38
190.28	-27.66
190.498	13.06
190.717	494.24
190.936	-29.57
191.154	-7.46
191.373	25.59
191.592	6.59
191.81	27.69
192.029	57.74
192.248	32.22
192.466	54.11
192.685	48.18
192.904	18.53
193.122	40.95
193.341	72.02
193.559	61.05
193.778	56.65
193.996	43.35
194.215	36.04
194.433	44.58
194.652	45.71
194.87	45.29
195.089	43.04
195.307	38.42
195.526	31.75
195.744	17.13
195.963	53.5
196.181	2.3
196.399	10.56
196.618	-1.05
196.836	-194.66
197.055	-97.29
197.273	348.01
197.491	231.29
197.71	46.53
197.928	-1347.35
198.146	869.97
198.365	370.98
198.583	152.72
198.801	-72.86
199.019	-54.65
199.238	7.42
199.456	-36.11
199.674	-57.37
199.892	-34.8
200.111	-128.33
200.329	-26.32
200.547	-35.82
200.765	-49.61
200.983	-60.63
201.202	-54.98
201.42	-34.73
201.638	-69.18
201.856	-15.91
202.074	-21.37
202.292	-258.71
202.51	-81.19
202.728	-20.08
202.946	-168.58
203.165	-262.72
203.383	-45.64
203.601	-180.18
203.819	-126.99
204.037	-41.98
204.255	63.64
204.473	-221.41
204.691	107.1
204.909	114.41
205.127	110.8
205.345	101.46
205.562	115.66
205.78	121.53
205.998	129.34
206.216	115.02
206.434	114.42
206.652	93.11
206.87	101.36
207.088	128.65
207.306	128.72
207.523	72.15
207.741	92.53
207.959	126.68
208.177	155.98
208.395	114.88
208.612	34.28
208.83	3.42
209.048	20.81
209.266	14.38
209.483	-1
209.701	12.97
209.919	27.39
210.136	-16.55
210.354	-24.53
210.572	-65.82
210.79	-8.71
211.007	-0.29
211.225	9.68
211.442	-0.43
211.66	-17.61
211.878	-51.06
212.095	51.93
212.313	51.11
212.53	57.48
212.748	54.92
212.966	57.45
213.183	57.44
213.401	60.12
213.618	55.52
213.836	77.34
214.053	81.87
214.271	83.79
214.488	45.02
214.705	54.99
214.923	44.51
215.14	45.3
215.358	17.06
215.575	39.77
215.793	48.39
216.01	50.26
216.227	31.92
216.445	32.61
216.662	49.72
216.879	33.25
217.097	30.74
217.314	31.99
217.531	42.62
217.749	47.63
217.966	47.96
218.183	48.8
218.4	60.09
218.618	53.38
218.835	43.42
219.052	32.06
219.269	39.98
219.487	39.1
219.704	42.44
219.921	29.47
220.138	37.43
220.355	32.81
220.572	21.13
220.79	11.69
221.007	16.24
221.224	18.51
221.441	20.98
221.658	14.12
221.875	20.07
222.092	19.37
222.309	15.98
222.526	16.22
222.743	11.88
222.96	11.45
223.177	8.41
223.394	1.65
223.611	6.97
223.828	7.16
224.045	7.11
224.262	8.36
224.479	6.48
224.696	10.01
224.913	5.87
225.13	10.54
225.347	10.93
225.564	11.52
225.781	12.53
225.997	11.84
226.214	12.48
226.431	10.45
226.648	10.26
226.865	11.06
227.082	10.67
227.298	10.57
227.515	9.69
227.732	10.19
227.949	9.67
228.165	11.16
228.382	10.81
228.599	10.78
228.816	13.1
229.032	12.82
229.249	12.89
229.466	12.8
229.682	13.78
229.899	13.17
230.116	12.81
230.332	14.65
230.549	12.98
230.765	12.64
230.982	12.11
231.199	9.85
231.415	7.78
231.632	8.38
231.848	7.69
232.065	6.38
232.281	8.64
232.498	8.27
232.714	6.75
232.931	7.32
233.147	7.29
233.364	4.82
233.58	5.89
233.797	7.99
234.013	5.51
234.23	7.28
234.446	8.64
234.662	7.69
234.879	9.37
235.095	13.7
235.312	13.18
235.528	14.75
235.744	15.73
235.961	14.74
236.177	15.56
236.393	16.82
236.61	16.05
236.826	15.4
237.042	14.56
237.258	14.56
237.475	11.57
237.691	10.51
237.907	10.91
238.123	12.47
238.339	13.78
238.556	12.29
238.772	11.41
238.988	11.71
239.204	10.5
239.42	10.55
239.636	9.57
239.853	9.55
240.069	9.73
240.285	9.03
240.501	8.09
240.717	8.35
240.933	8.61
241.149	9.17
241.365	8.63
241.581	9.19
241.797	9.65
242.013	9.55
242.229	8.88
242.445	9.15
242.661	9.11
242.877	10.31
243.093	9.9
243.309	9.22
243.525	8.7
243.741	9.46
243.957	9.49
244.173	8.69
244.388	9.54
244.604	9.48
244.82	9.18
245.036	8.97
245.252	8.61
245.468	8.13
245.683	8.01
245.899	8.22
246.115	8.01
246.331	7.93
246.547	8.23
246.762	7.91
246.978	7.74
247.194	7.62
247.409	8.04
247.625	8.23
247.841	8.71
248.057	9.09
248.272	8.6
248.488	9.03
248.703	8.44
248.919	7.06
249.135	6.36
249.35	6.85
249.566	7.39
249.782	6.44
249.997	6.2
250.213	6.04
250.428	6.44
250.644	6.51
250.859	5.87
251.075	6.13
251.29	6.58
251.506	7.15
251.721	7.9
251.937	7.94
252.152	8.4
252.368	7.96
252.583	8.03
252.798	8.04
253.014	8.48
253.229	8.58
253.445	9.54
253.66	10.82
253.875	10.22
254.091	9.48
254.306	9.02
254.521	8.17
254.737	8.24
254.952	8.23
255.167	7.63
255.383	8.91
255.598	9.1
255.813	8.33
256.028	7.72
256.244	8.42
256.459	8.6
256.674	8.7
256.889	8.44
257.104	8.42
257.32	8.62
257.535	8.39
257.75	7.79
257.965	7.59
258.18	7.91
258.395	8.08
258.61	7.72
258.826	7.17
259.041	7.33
259.256	7.71
259.471	7.67
259.686	7.41
259.901	7.92
260.116	8.23
260.331	8.42
260.546	8.02
260.761	7.79
260.976	7.92
261.191	8.41
261.406	7.28
261.621	7.12
261.836	7.15
262.05	7.22
262.265	6.43
262.48	5.98
262.695	5.68
262.91	5.86
263.125	5.64
263.34	6.44
263.555	6.43
263.769	7.48
263.984	7.15
264.199	7.27
264.414	7
264.629	7.03
264.843	7.04
265.058	7.06
265.273	7.32
265.488	7.27
265.702	6.47
265.917	6.31
266.132	6.19
266.346	6.39
266.561	6.41
266.776	6.12
266.99	6.11
267.205	6.28
267.42	6.37
267.634	5.62
267.849	5.77
268.063	6.04
268.278	6.23
268.492	6.41
268.707	6.14
268.922	5.95
269.136	6.23
269.351	6.03
269.565	5.84
269.78	5.8
269.994	5.97
270.209	6.28
270.423	6.16
270.637	5.94
270.852	5.79
271.066	5.99
271.281	6.12
271.495	5.87
271.709	5.88
271.924	5.63
272.138	5.91
272.353	5.87
272.567	5.52
272.781	5.49
272.996	5.41
273.21	5.35
273.424	4.78
273.638	4.61
273.853	4.46
274.067	4.52
274.281	5.29
274.495	5.14
274.71	5.33
274.924	5.42
275.138	5.79
275.352	6.29
275.566	5.88
275.781	6.52
275.995	6.65
276.209	7.29
276.423	7.2
276.637	6.65
276.851	6.77
277.065	7.51
277.279	7.79
277.493	7.68
277.707	7.35
277.921	7.56
278.135	7.72
278.349	7.58
278.563	6.97
278.777	6.74
278.991	6.8
279.205	6.65
279.419	6.15
279.633	6.56
279.847	6.53
280.061	6.47
280.275	6.37
280.489	5.97
280.703	6.12
280.917	6.32
281.131	6.65
281.344	6.63
281.558	7
281.772	6.8
281.986	5.74
282.2	5.46
282.414	5.61
282.627	5.92
282.841	5.75
283.055	5.54
283.269	5.54
283.482	5.32
283.696	5.23
283.91	4.79
284.123	4.93
284.337	5.37
284.551	5.62
284.764	5.48
284.978	5.26
285.192	5.34
285.405	5.2
285.619	5.06
285.833	5.64
286.046	5.94
286.26	6.09
286.473	5.83
286.687	5.96
286.9	5.94
287.114	6.39
287.327	6.54
287.541	6.46
287.754	6.48
287.968	6.79
288.181	6.45
288.395	6.35
288.608	6.38
288.822	6.53
289.035	6
289.248	5.6
289.462	5.56
289.675	5.46
289.889	5.58
290.102	5.83
290.315	5.97
290.529	5.81
290.742	5.59
290.955	5.45
291.169	5.48
291.382	6.15
291.595	6.39
291.808	6.34
292.022	6.45
292.235	6.49
292.448	6.48
292.661	6.07
292.875	6.16
293.088	6.26
293.301	6.12
293.514	6.35
293.727	6.19
293.94	6.2
294.153	5.78
294.367	5.89
294.58	6.19
294.793	5.76
295.006	5.89
295.219	6.17
295.432	6.41
295.645	6.72
295.858	6.57
296.071	6.24
296.284	6.35
296.497	6.62
296.71	6.61
296.923	6.38
297.136	6.32
297.349	6.59
297.562	6.34
297.775	6.44
297.988	6.56
298.201	6.58
298.414	6.98
298.626	7.06
298.839	6.99
299.052	7.09
299.265	7.53
299.478	8.31
299.691	7.79
299.903	7.68
300.116	7.2
300.329	6.85
300.542	7.17
300.755	7.1
300.967	7.4
301.18	7.35
301.393	7.2
301.605	6.8
301.818	6.85
302.031	7.51
302.243	7.58
302.456	7.61
302.669	8.01
302.881	7.83
303.094	7.86
303.307	7.9
303.519	7.65
303.732	7.76
303.944	8.3
304.157	7.88
304.37	7.8
304.582	7.54
304.795	7.56
305.007	7.01
305.22	6.88
305.432	6.72
305.645	6.71
305.857	6.95
306.069	7.16
306.282	6.81
306.494	6.95
306.707	6.83
306.919	6.97
307.132	7.16
307.344	7.16
307.556	7.07
307.769	7.36
307.981	7.04
308.193	7.02
308.406	6.73
308.618	6.6
308.83	6.59
309.043	6.34
309.255	6.31
309.467	6.45
309.679	6.99
309.892	7.24
310.104	7.04
310.316	6.79
310.528	7.12
310.74	7.22
310.953	7.54
311.165	7.71
311.377	7.99
311.589	8.39
311.801	8.23
312.013	7.69
312.225	8.01
312.437	8.38
312.649	8.8
312.862	8.83
313.074	8.95
313.286	9.09
313.498	9.04
313.71	8.97
313.922	8.6
314.134	8.43
314.346	8.83
314.558	8.5
314.77	8.58
314.982	8.24
315.193	8.05
315.405	7.98
315.617	7.53
315.829	7.82
316.041	7.78
316.253	8.29
316.465	8.09
316.677	7.57
316.888	7.75
317.1	7.45
317.312	8.22
317.524	8.36
317.736	8.59
317.947	8.63
318.159	8.49
318.371	8.2
318.583	8.28
318.794	8.62
319.006	9.12
319.218	9.03
319.43	9.35
319.641	8.68
319.853	8.9
320.064	8.25
320.276	8.46
320.488	8.4
320.699	8.43
320.911	8.11
321.123	8.17
321.334	7.66
321.546	7.72
321.757	7.16
321.969	7.53
322.18	7.16
322.392	7.22
322.603	6.84
322.815	6.95
323.026	7.64
323.238	7.36
323.449	7.45
323.661	7.63
323.872	7.21
324.083	7.43
324.295	7.39
324.506	7.53
324.718	7.97
324.929	8.31
325.14	8.43
325.352	8.13
325.563	8.44
325.774	8.7
325.986	9.18
326.197	9.44
326.408	9.25
326.62	9.07
326.831	9.35
327.042	9.28
327.253	8.92
327.464	8.61
327.676	8.86
327.887	8.83
328.098	8.4
328.309	8.13
328.52	8.05
328.732	8.37
328.943	8.86
329.154	8.78
329.365	8.41
329.576	8.46
329.787	8.72
329.998	8.44
330.209	8.54
330.42	8.74
330.631	8.54
330.842	8.59
331.053	8.63
331.264	8.23
331.475	8.53
331.686	8.95
331.897	9.3
332.108	9.65
332.319	9.51
332.53	9.34
332.741	9.12
332.952	9.13
333.163	9.08
333.374	8.72
333.585	8.27
333.795	7.86
334.006	7.75
334.217	7.88
334.428	7.48
334.639	7.8
334.849	8.08
335.06	8.29
335.271	8.42
335.482	8.41
335.692	8.64
335.903	8.93
336.114	8.67
336.325	8.58
336.535	8.71
336.746	8.35
336.957	7.9
337.167	7.61
337.378	7.53
337.589	7.1
337.799	6.73
338.01	6.9
338.22	7.02
338.431	7.14
338.642	7.01
338.852	6.54
339.063	6.37
339.273	6.62
339.484	6.76
339.694	6.55
339.905	6.91
340.115	7.49
340.326	7.05
340.536	7.58
340.746	7.69
340.957	8.01
341.167	8.39
341.378	8.71
341.588	8.48
341.799	8.82
342.009	8.98
342.219	8.78
342.43	8.62
342.64	8.57
342.85	7.99
343.061	7.87
343.271	7.65
343.481	7.11
343.691	7.19
343.902	7.32
344.112	6.8
344.322	6.66
344.532	6.75
344.743	6.87
344.953	7.03
345.163	7.24
345.373	7.47
345.583	7.62
345.793	7.92
346.004	7.8
346.214	7.77
346.424	7.73
346.634	8.29
346.844	8.02
347.054	7.9
347.264	8.07
347.474	7.89
347.684	7.51
347.894	7.22
348.104	7.12
348.314	7.13
348.524	6.88
348.734	7.23
348.944	6.48
349.154	6.59
349.364	6.47
349.574	6.59
349.784	6.53
349.994	6.86
350.204	7.04
350.413	7.17
350.623	7.29
350.833	7.19
351.043	6.62
351.253	6.88
351.463	7.38
351.672	7.36
351.882	7.13
352.092	7.19
352.302	7.09
352.511	7.13
352.721	7.16
352.931	6.93
353.141	6.97
353.35	7.29
353.56	7.26
353.77	6.55
353.979	6.61
354.189	6.67
354.399	6.63
354.608	6.72
354.818	6.62
355.027	6.58
355.237	6.78
355.447	7.07
355.656	6.95
355.866	6.88
356.075	7.32
356.285	7.33
356.494	7.15
356.704	7.19
356.913	7.1
357.123	6.97
357.332	6.61
357.542	6.4
357.751	6.24
357.96	6.41
358.17	6.44
358.379	6.51
358.589	6.52
358.798	6.88
359.007	6.71
359.217	6.77
359.426	6.91
359.635	7.08
359.845	7.18
360.054	7.27
360.263	7.1
360.472	7.08
360.682	6.92
360.891	6.87
361.1	6.51
361.309	6.71
361.519	6.64
361.728	6.69
361.937	6.74
362.146	6.73
362.355	6.64
362.564	6.67
362.774	6.73
362.983	6.76
363.192	6.82
363.401	6.86
363.61	6.61
363.819	6.55
364.028	6.36
364.237	6.39
364.446	6.34
364.655	6.35
364.864	6.43
365.073	6.4
365.282	6.35
365.491	5.92
365.7	6.02
365.909	6.03
366.118	5.96
366.327	6.08
366.536	6.1
366.745	6.22
366.954	6.33
367.162	6.35
367.371	6.21
367.58	6.25
367.789	6.37
367.998	6.21
368.207	6.28
368.415	6.15
368.624	6.01
368.833	5.61
369.042	5.24
369.25	5.19
369.459	4.98
369.668	4.94
369.877	5.05
370.085	5.31
370.294	5.28
370.503	5.25
370.711	5.31
370.92	5.48
371.129	5.79
371.337	5.88
371.546	5.71
371.754	5.76
371.963	5.93
372.171	5.89
372.38	5.62
372.589	5.59
372.797	5.61
373.006	5.69
373.214	5.44
373.423	5.41
373.631	5.53
373.84	5.71
374.048	5.81
374.256	5.69
374.465	5.67
374.673	5.95
374.882	6.04
375.09	5.97
375.298	5.65
375.507	5.72
375.715	5.59
375.923	5.27
376.132	5.39
376.34	5.38
376.548	5.39
376.757	5.45
376.965	5.21
377.173	5.11
377.381	5.18
377.59	5.44
377.798	5.4
378.006	5.35
378.214	5.37
378.423	4.93
378.631	4.88
378.839	5.14
379.047	5.2
379.255	5.37
379.463	5.47
379.671	5.45
379.879	5.28
380.088	5.33
380.296	5.41
380.504	5.3
380.712	5.61
380.92	5.44
381.128	5.22
381.336	4.91
381.544	4.58
381.752	4.61
381.96	4.61
382.168	4.74
382.376	4.79
382.584	4.93
382.791	5.44
382.999	5.23
383.207	5.33
383.415	5.44
383.623	5.5
383.831	5.91
384.039	5.92
384.247	5.82
384.454	5.88
384.662	5.81
384.87	5.76
385.078	5.46
385.285	5.56
385.493	5.59
385.701	5.62
385.909	5.39
386.116	5.26
386.324	5.37
386.532	5.4
386.739	5.31
386.947	5.44
387.155	5.42
387.362	5.66
387.57	5.93
387.778	5.99
387.985	6.05
388.193	6.03
388.4	6.13
388.608	6.06
388.816	6.04
389.023	6.02
389.231	5.67
389.438	5.6
389.646	5.49
389.853	5.19
390.061	5.07
390.268	4.97
390.475	5.17
390.683	5.13
390.89	5.04
391.098	5.15
391.305	5.09
391.512	5.24
391.72	5.34
391.927	5.34
392.135	5.45
392.342	5.41
392.549	5.2
392.756	5.27
392.964	5.21
393.171	5.22
393.378	5.2
393.586	5.25
393.793	5.23
394	5.07
394.207	5.01
394.414	4.98
394.622	4.93
394.829	5.04
395.036	4.67
395.243	4.58
395.45	4.64
395.657	4.54
395.864	4.37
396.072	4.43
396.279	4.37
396.486	4.31
396.693	4.29
396.9	4.55
397.107	4.71
397.314	5.11
397.521	5.22
397.728	5.13
397.935	5.17
398.142	5.26
398.349	5.22
398.556	5.2
398.763	5.34
398.97	5.24
399.177	5.09
399.383	4.61
399.59	4.34
399.797	3.97
400.004	3.95
400.211	3.98
400.418	3.92
400.625	3.88
400.831	3.87
401.038	3.56
401.245	3.4
401.452	3.61
401.658	3.99
401.865	3.99
402.072	4.09
402.279	4.06
402.485	4
402.692	4.15
402.899	4.27
403.105	4.3
403.312	4.39
403.519	4.51
403.725	4.35
403.932	4.15
404.138	4.35
404.345	4.4
404.552	4.48
404.758	4.53
404.965	4.61
405.171	4.52
405.378	4.45
405.584	4.62
405.791	4.63
405.997	4.57
406.204	4.68
406.41	4.52
406.617	4.65
406.823	4.44
407.029	4.47
407.236	4.27
407.442	4.28
407.649	4.38
407.855	4.52
408.061	4.71
408.268	4.36
408.474	4.45
408.68	4.43
408.887	4.5
409.093	4.62
409.299	4.5
409.505	4.6
409.712	4.6
409.918	4.57
410.124	4.24
410.33	4.26
410.537	4.6
410.743	4.53
410.949	4.44
411.155	4.21
411.361	4.2
411.567	4.32
411.773	4.23
411.98	4.2
412.186	3.98
412.392	4.04
412.598	3.88
412.804	3.93
413.01	3.96
413.216	3.99
413.422	4.16
413.628	4.19
413.834	4.16
414.04	4.18
414.246	4.21
414.452	4.39
414.658	4.38
414.864	4.29
415.07	4.27
415.275	4.33
415.481	4.38
415.687	4.38
415.893	4.45
416.099	4.32
416.305	4.32
416.511	4.3
416.716	4.18
416.922	4.11
417.128	4.17
417.334	4.2
417.539	4
417.745	3.94
417.951	3.89
418.157	3.77
418.362	3.85
418.568	3.77
418.774	3.78
418.979	3.82
419.185	3.89
419.391	3.84
419.596	3.77
419.802	3.82
420.008	3.85
420.213	4.49
420.419	4.6
420.624	4.58
420.83	4.62
421.035	4.53
421.241	4.58
421.446	4.54
421.652	4.59
421.857	4.63
422.063	4.64
422.268	4.64
422.474	3.97
422.679	3.96
422.885	3.88
423.09	3.86
423.295	3.93
423.501	3.97
423.706	4.02
423.911	3.96
424.117	3.93
424.322	3.97
424.527	4.02
424.733	4.02
424.938	3.98
425.143	4.05
425.349	4.05
425.554	3.97
425.759	3.88
425.964	3.91
426.169	3.91
426.375	3.95
426.58	3.9
426.785	3.93
426.99	3.85
427.195	3.73
427.4	3.72
427.605	3.74
427.811	3.88
428.016	3.93
428.221	3.76
428.426	3.68
428.631	3.53
428.836	3.57
429.041	3.4
429.246	3.54
429.451	3.53
429.656	3.54
429.861	3.54
430.066	3.45
430.271	3.46
430.476	3.5
430.681	3.54
430.886	3.69
431.09	3.67
431.295	3.75
431.5	3.73
431.705	3.7
431.91	3.69
432.115	3.72
432.32	3.75
432.524	3.68
432.729	3.72
432.934	3.71
433.139	3.71
433.343	3.7
433.548	3.58
433.753	3.52
433.958	3.58
434.162	3.58
434.367	3.59
434.572	3.57
434.776	3.65
434.981	3.71
435.186	3.84
435.39	3.8
435.595	3.84
435.799	3.96
436.004	3.93
436.209	3.93
436.413	3.85
436.618	3.79
436.822	3.81
437.027	3.77
437.231	3.76
437.436	3.74
437.64	3.77
437.845	3.74
438.049	3.77
438.253	3.74
438.458	3.8
438.662	3.85
438.867	3.89
439.071	3.89
439.275	3.88
439.48	3.86
439.684	3.81
439.888	3.81
440.093	3.83
440.297	3.77
440.501	3.78
440.706	3.79
440.91	3.76
441.114	3.76
441.318	3.66
441.523	3.6
441.727	3.52
441.931	3.53
442.135	3.57
442.339	3.49
442.543	3.53
442.748	3.64
442.952	3.61
443.156	3.57
443.36	3.48
443.564	3.58
443.768	3.62
443.972	3.55
444.176	3.57
444.38	3.56
444.584	3.59
444.788	3.56
444.992	3.53
445.196	3.51
445.4	3.59
445.604	3.67
445.808	3.64
446.012	3.65
446.216	3.76
446.42	3.76
446.624	3.76
446.828	3.78
447.032	3.8
447.235	3.83
447.439	3.75
447.643	3.68
447.847	3.67
448.051	3.67
448.254	3.68
448.458	3.67
448.662	3.64
448.866	3.58
449.069	3.56
449.273	3.54
449.477	3.48
449.681	3.65
449.884	3.68
450.088	3.58
450.292	3.5
450.495	3.61
450.699	3.61
450.902	3.65
451.106	3.62
451.31	3.68
451.513	3.65
451.717	3.71
451.92	3.66
452.124	3.8
452.327	3.86
452.531	3.92
452.734	3.78
452.938	3.81
453.141	3.73
453.345	3.8
453.548	3.75
453.752	3.79
453.955	3.73
454.158	3.64
454.362	3.56
454.565	3.5
454.769	3.51
454.972	3.51
455.175	3.62
455.379	3.64
455.582	3.57
455.785	3.59
455.988	3.57
456.192	3.52
456.395	3.54
456.598	3.54
456.801	3.63
457.005	3.61
457.208	3.65
457.411	3.53
457.614	3.58
457.817	3.54
458.021	3.52
458.224	3.5
458.427	3.5
458.63	3.46
458.833	3.4
459.036	3.4
459.239	3.35
459.442	3.35
459.645	3.32
459.848	3.34
460.051	3.39
460.254	3.41
460.457	3.48
460.66	3.56
460.863	3.6
461.066	3.7
461.269	3.68
461.472	3.86
461.675	3.87
461.878	3.87
462.081	3.8
462.284	3.76
462.486	3.73
462.689	3.59
462.892	3.6
463.095	3.65
463.298	3.63
463.5	3.57
463.703	3.54
463.906	3.41
464.109	3.49
464.311	3.49
464.514	3.62
464.717	3.64
464.92	3.73
465.122	3.76
465.325	3.8
465.528	3.76
465.73	3.72
465.933	3.74
466.135	3.82
466.338	3.77
466.541	3.74
466.743	3.61
466.946	3.63
467.148	3.57
467.351	3.53
467.553	3.51
467.756	3.61
467.958	3.8
468.161	3.75
468.363	3.74
468.566	3.73
468.768	3.81
468.971	3.77
469.173	3.85
469.375	3.88
469.578	3.84
469.78	3.89
469.983	3.83
470.185	3.68
470.387	3.61
470.59	3.62
470.792	3.66
470.994	3.64
471.196	3.78
471.399	3.7
471.601	3.74
471.803	3.73
472.005	3.72
472.208	3.63
472.41	3.67
472.612	3.81
472.814	3.84
473.016	3.82
473.218	3.66
473.421	3.59
473.623	3.53
473.825	3.42
474.027	3.51
474.229	3.43
474.431	3.48
474.633	3.55
474.835	3.44
475.037	3.4
475.239	3.45
475.441	3.6
475.643	3.68
475.845	3.73
476.047	3.83
476.249	3.78
476.451	3.81
476.653	3.77
476.855	3.62
477.057	3.6
477.258	3.63
477.46	3.62
477.662	3.6
477.864	3.42
478.066	3.49
478.268	3.49
478.469	3.5
478.671	3.4
478.873	3.45
479.075	3.5
479.276	3.5
479.478	3.5
479.68	3.54
479.882	3.55
480.083	3.62
480.285	3.55
480.487	3.52
480.688	3.55
480.89	3.56
481.091	3.58
481.293	3.61
481.495	3.62
481.696	3.59
481.898	3.56
482.099	3.57
482.301	3.58
482.502	3.57
482.704	3.57
482.905	3.57
483.107	3.58
483.308	3.56
483.51	3.54
483.711	3.53
483.913	3.54
484.114	3.57
484.315	3.56
484.517	3.55
484.718	3.56
484.92	3.57
485.121	3.56
485.322	3.55
485.524	3.55
485.725	3.55
485.926	3.56
486.127	3.57
486.329	3.54
486.53	3.55
486.731	3.55
486.932	3.54
487.134	3.53
487.335	3.53
487.536	3.56
487.737	3.58
487.938	3.62
488.139	3.66
488.341	3.66
488.542	3.7
488.743	3.68
488.944	3.68
489.145	3.67
489.346	3.7
489.547	3.7
489.748	3.69
489.949	3.68
490.15	3.62
490.351	3.63
490.552	3.59
490.753	3.57
490.954	3.57
491.155	3.56
491.356	3.6
491.557	3.6
491.758	3.59
491.959	3.61
492.159	3.64
492.36	3.65
492.561	3.6
492.762	3.69
492.963	3.71
493.164	3.75
493.364	3.86
493.565	3.83
493.766	3.82
493.967	3.84
494.167	3.81
494.368	3.79
494.569	3.81
494.769	3.81
494.97	3.8
495.171	3.84
495.371	3.8
495.572	3.75
495.773	3.79
495.973	3.72
496.174	3.74
496.375	3.79
496.575	3.78
496.776	3.72
496.976	3.69
497.177	3.7
497.377	3.66
497.578	3.67
497.778	3.62
497.979	3.65
498.179	3.7
498.38	3.69
498.58	3.73
498.78	3.72
498.981	3.8
499.181	3.79
499.382	3.75
499.582	3.74
499.782	3.81
499.983	3.88
500.183	3.76
500.383	3.79
500.584	3.78
500.784	3.67
500.984	3.71
501.184	3.68
501.385	3.8
501.585	3.86
501.785	3.88
501.985	3.79
502.185	3.75
502.386	3.85
502.586	3.87
502.786	3.89
502.986	3.96
503.186	3.98
503.386	4.04
503.586	4.01
503.786	4.01
503.987	4
504.187	3.97
504.387	4.05
504.587	4.06
504.787	4
504.987	3.94
505.187	3.94
505.387	3.93
505.587	3.93
505.786	3.95
505.986	3.92
506.186	4.03
506.386	4.09
506.586	4.09
506.786	4.1
506.986	4.17
507.186	4.25
507.386	4.26
507.585	4.28
507.785	4.37
507.985	4.35
508.185	4.37
508.384	4.28
508.584	4.32
508.784	4.25
508.984	4.21
509.183	4.17
509.383	4.13
509.583	4.09
509.782	4.13
509.982	4.13
510.182	4.2
510.381	4.17
510.581	4.19
510.781	4.18
510.98	4.23
511.18	4.27
511.379	4.29
511.579	4.32
511.778	4.35
511.978	4.27
512.177	4.22
512.377	4.25
512.576	4.3
512.776	4.36
512.975	4.4
513.175	4.48
513.374	4.59
513.573	4.7
513.773	4.68
513.972	4.73
514.172	4.8
514.371	4.79
514.57	4.75
514.77	4.74
514.969	4.74
515.168	4.74
515.367	4.75
515.567	4.68
515.766	4.64
515.965	4.69
516.164	4.72
516.364	4.68
516.563	4.67
516.762	4.73
516.961	4.82
517.16	4.85
517.359	4.87
517.559	4.89
517.758	4.9
517.957	4.95
518.156	4.94
518.355	4.93
518.554	5.01
518.753	5.07
518.952	5.06
519.151	5.03
519.35	5.03
519.549	4.97
519.748	4.9
519.947	4.94
520.146	4.92
520.345	4.94
520.544	4.93
520.743	4.92
520.942	4.89
521.141	4.81
521.339	4.84
521.538	4.89
521.737	4.97
521.936	4.98
522.135	4.93
522.333	4.96
522.532	4.97
522.731	5.05
522.93	5.05
523.129	5.21
523.327	5.29
523.526	5.33
523.725	5.33
523.923	5.39
524.122	5.48
524.321	5.54
524.519	5.54
524.718	5.56
524.917	5.49
525.115	5.53
525.314	5.52
525.512	5.53
525.711	5.56
525.909	5.6
526.108	5.61
526.306	5.6
526.505	5.64
526.703	5.65
526.902	5.67
527.1	5.73
527.299	5.73
527.497	5.72
527.696	5.72
527.894	5.71
528.092	5.68
528.291	5.66
528.489	5.65
528.688	5.63
528.886	5.64
529.084	5.62
529.283	5.61
529.481	5.57
529.679	5.58
529.877	5.6
530.076	5.63
530.274	5.67
530.472	5.72
530.67	5.75
530.869	5.78
531.067	5.82
531.265	5.91
531.463	5.92
531.661	5.98
531.859	5.98
532.057	5.99
532.255	6.02
532.454	6.01
532.652	6.04
532.85	6.06
533.048	6.08
533.246	6.1
533.444	6.11
533.642	6.14
533.84	6.14
534.038	6.15
534.236	6.18
534.434	6.15
534.632	6.2
534.83	6.23
535.027	6.25
535.225	6.24
535.423	6.29
535.621	6.3
535.819	6.34
536.017	6.38
536.215	6.38
536.412	6.41
536.61	6.51
536.808	6.5
537.006	6.56
537.203	6.59
537.401	6.57
537.599	6.58
537.797	6.61
537.994	6.58
538.192	6.6
538.39	6.66
538.587	6.76
538.785	6.73
538.983	6.83
539.18	6.84
539.378	6.84
539.575	6.9
539.773	6.89
539.97	6.92
540.168	6.98
540.366	7.02
540.563	7.04
540.761	7.03
540.958	7.06
541.155	7.04
541.353	7.06
541.55	7.1
541.748	7.11
541.945	7.14
542.143	7.15
542.34	7.16
542.537	7.19
542.735	7.27
542.932	7.29
543.129	7.4
543.327	7.47
543.524	7.52
543.721	7.58
543.919	7.69
544.116	7.78
544.313	7.8
544.51	7.83
544.708	7.85
544.905	7.86
545.102	7.98
545.299	7.98
545.496	7.94
545.693	7.94
545.891	7.98
546.088	8.01
546.285	8.03
546.482	8.11
546.679	8.2
546.876	8.25
547.073	8.25
547.27	8.2
547.467	8.24
547.664	8.35
547.861	8.43
548.058	8.46
548.255	8.51
548.452	8.53
548.649	8.55
548.846	8.45
549.043	8.52
549.24	8.62
549.437	8.69
549.633	8.71
549.83	8.87
550.027	8.94
550.224	9.01
550.421	9.01
550.618	9.17
550.814	9.25
551.011	9.32
551.208	9.31
551.405	9.31
551.601	9.35
551.798	9.39
551.995	9.33
552.191	9.32
552.388	9.39
552.585	9.46
552.781	9.41
552.978	9.45
553.175	9.59
553.371	9.66
553.568	9.7
553.764	9.85
553.961	9.86
554.157	9.96
554.354	9.98
554.55	10.08
554.747	10.07
554.943	10.14
555.14	10.18
555.336	10.09
555.533	10.28
555.729	10.53
555.926	10.53
556.122	10.56
556.318	10.5
556.515	10.58
556.711	10.51
556.907	10.57
557.104	10.55
557.3	10.66
557.496	10.86
557.693	10.85
557.889	10.76
558.085	10.77
558.281	10.87
558.478	11.1
558.674	11.19
558.87	11.4
559.066	11.5
559.262	11.58
559.459	11.5
559.655	11.48
559.851	11.56
560.047	11.59
560.243	11.67
560.439	11.79
560.635	11.73
560.831	11.83
561.027	11.82
561.223	11.86
561.419	11.93
561.615	12.02
561.811	12.22
562.007	12.38
562.203	12.48
562.399	12.61
562.595	12.61
562.791	12.77
562.987	12.75
563.183	12.74
563.379	12.86
563.575	12.96
563.771	13.04
563.966	12.99
564.162	12.96
564.358	13.04
564.554	13.03
564.75	13.16
564.945	13.16
565.141	13.29
565.337	13.42
565.533	13.48
565.728	13.52
565.924	13.57
566.12	13.69
566.315	13.7
566.511	13.81
566.707	13.89
566.902	14.02
567.098	14.15
567.293	14.18
567.489	14.31
567.684	14.35
567.88	14.42
568.076	14.55
568.271	14.56
568.467	14.57
568.662	14.59
568.858	14.69
569.053	14.65
569.248	14.74
569.444	14.73
569.639	14.84
569.835	14.91
570.03	14.87
570.225	14.91
570.421	15.01
570.616	15.15
570.812	15.17
571.007	15.17
571.202	15.23
571.397	15.24
571.593	15.41
571.788	15.43
571.983	15.57
572.178	15.77
572.374	15.89
572.569	16
572.764	15.92
572.959	16.02
573.154	16.13
573.35	16.19
573.545	16.27
573.74	16.17
573.935	16.23
574.13	16.13
574.325	16.15
574.52	16.14
574.715	16.14
574.91	16.3
575.105	16.3
575.3	16.53
575.495	16.6
575.69	16.69
575.885	16.91
576.08	16.97
576.275	17.11
576.47	17.17
576.665	17.15
576.86	17.26
577.055	17.29
577.25	17.39
577.444	17.19
577.639	17.3
577.834	17.34
578.029	17.35
578.224	17.38
578.418	17.33
578.613	17.42
578.808	17.58
579.003	17.49
579.197	17.62
579.392	17.53
579.587	17.6
579.781	17.52
579.976	17.61
580.171	17.84
580.365	17.86
580.56	18.02
580.755	17.9
580.949	18.05
581.144	18.19
581.338	18.18
581.533	18.39
581.727	18.4
581.922	18.56
582.116	18.45
582.311	18.34
582.505	18.3
582.7	18.39
582.894	18.64
583.089	18.52
583.283	18.38
583.478	18.5
583.672	18.38
583.866	18.38
584.061	18.4
584.255	18.57
584.449	18.5
584.644	18.68
584.838	18.54
585.032	18.46
585.226	18.48
585.421	18.58
585.615	18.66
585.809	18.76
586.003	18.85
586.198	18.85
586.392	18.84
586.586	19.07
586.78	19.11
586.974	19.36
587.168	19.4
587.363	19.5
587.557	19.69
587.751	19.65
587.945	19.74
588.139	19.81
588.333	19.89
588.527	19.87
588.721	19.81
588.915	19.81
589.109	19.78
589.303	19.87
589.497	19.92
589.691	19.92
589.885	19.95
590.079	19.91
590.273	19.91
590.466	19.75
590.66	19.8
590.854	19.77
591.048	19.84
591.242	19.79
591.436	19.81
591.629	19.86
591.823	19.81
592.017	19.79
592.211	19.91
592.404	19.94
592.598	20.07
592.792	20.18
592.986	20.25
593.179	20.13
593.373	20.16
593.567	20.03
593.76	20.03
593.954	20.07
594.147	20.15
594.341	20.21
594.535	20.37
594.728	20.43
594.922	20.36
595.115	20.42
595.309	20.52
595.502	20.53
595.696	20.54
595.889	20.66
596.083	20.6
596.276	20.51
596.47	20.46
596.663	20.48
596.856	20.44
597.05	20.5
597.243	20.47
597.437	20.43
597.63	20.54
597.823	20.69
598.017	20.57
598.21	20.73
598.403	20.93
598.596	21.02
598.79	20.83
598.983	20.88
599.176	20.95
599.369	20.94
599.563	21.1
599.756	20.98
599.949	21.09
600.142	21.07
600.335	21.2
600.528	21.15
600.722	21.23
600.915	21.36
601.108	21.33
601.301	21.21
601.494	21.27
601.687	21.1
601.88	21.18
602.073	21.13
602.266	21.19
602.459	21.11
602.652	21.06
602.845	21.06
603.038	21.13
603.231	21.08
603.424	21.14
603.617	21.04
603.809	21.08
604.002	21.07
604.195	21.12
604.388	21.14
604.581	21.18
604.774	21.19
604.966	21.07
605.159	21.06
605.352	21.17
605.545	21.2
605.737	21.25
605.93	21.45
606.123	21.44
606.316	21.4
606.508	21.34
606.701	21.28
606.894	21.32
607.086	21.43
607.279	21.32
607.471	21.3
607.664	21.3
607.857	21.28
608.049	21.25
608.242	21.4
608.434	21.51
608.627	21.56
608.819	21.66
609.012	21.77
609.204	21.66
609.397	21.8
609.589	21.81
609.782	21.85
609.974	21.94
610.166	21.87
610.359	21.82
610.551	21.62
610.743	21.5
610.936	21.42
611.128	21.38
611.32	21.43
611.513	21.35
611.705	21.44
611.897	21.38
612.09	21.29
612.282	21.39
612.474	21.52
612.666	21.64
612.858	21.72
613.051	21.73
613.243	21.58
613.435	21.69
613.627	21.65
613.819	21.68
614.011	21.9
614.203	21.92
614.395	21.9
614.588	21.68
614.78	21.72
614.972	21.77
615.164	21.81
615.356	22.04
615.548	22.14
615.74	22.17
615.932	22.12
616.124	21.96
616.315	22.15
616.507	22.14
616.699	22.22
616.891	22.06
617.083	22.03
617.275	22.25
617.467	22.16
617.659	22.26
617.85	22.31
618.042	22.25
618.234	22.29
618.426	22.22
618.618	22.26
618.809	22.32
619.001	22.43
619.193	22.42
619.384	22.15
619.576	22.21
619.768	22.1
619.959	22.05
620.151	22.22
620.343	22.24
620.534	22.07
620.726	22.01
620.917	22.06
621.109	22.16
621.301	22.27
621.492	22.31
621.684	22.32
621.875	22.14
622.067	22.2
622.258	22.07
622.45	22.1
622.641	22.31
622.832	22.32
623.024	22.09
623.215	22.05
623.407	21.92
623.598	21.84
623.789	21.79
623.981	21.96
624.172	21.96
624.363	21.94
624.555	21.84
624.746	21.83
624.937	21.87
625.129	21.97
625.32	22.18
625.511	22.28
625.702	22.47
625.893	22.61
626.085	22.56
626.276	22.66
626.467	22.72
626.658	22.92
626.849	22.74
627.04	22.72
627.231	22.64
627.422	22.38
627.614	22.31
627.805	22.23
627.996	22.17
628.187	22.03
628.378	21.97
628.569	21.98
628.76	21.91
628.951	22.02
629.142	22.13
629.332	22.22
629.523	22.3
629.714	22.57
629.905	22.69
630.096	22.85
630.287	23.11
630.478	23.13
630.669	23.04
630.859	23
631.05	23.27
631.241	23.27
631.432	23.31
631.623	23.41
631.813	23.29
632.004	23.26
632.195	23.15
632.385	23.18
632.576	23.37
632.767	23.53
632.957	23.64
633.148	23.58
633.339	23.58
633.529	23.55
633.72	23.45
633.91	23.44
634.101	23.27
634.292	23.27
634.482	23.22
634.673	23.12
634.863	23.06
635.054	23.02
635.244	22.91
635.435	22.91
635.625	22.93
635.815	23.03
636.006	23.06
636.196	22.98
636.387	22.98
636.577	22.88
636.767	22.81
636.958	22.94
637.148	22.8
637.338	22.77
637.529	22.74
637.719	22.65
637.909	22.57
638.099	22.76
638.29	23.03
638.48	23.06
638.67	23.24
638.86	23.12
639.05	22.87
639.241	23.17
639.431	23.41
639.621	23.42
639.811	23.61
640.001	23.74
640.191	23.65
640.381	23.79
640.571	23.86
640.761	23.89
640.951	24.22
641.141	24.39
641.331	24.18
641.521	24.07
641.711	24.23
641.901	24.25
642.091	24.24
642.281	24.19
642.471	24.05
642.661	24.09
642.851	23.77
643.041	23.44
643.231	23.41
643.42	23.56
643.61	23.44
643.8	23.28
643.99	23.26
644.18	23.07
644.369	23.04
644.559	22.98
644.749	22.65
644.939	22.63
645.128	22.56
645.318	22.6
645.508	22.44
645.697	22.61
645.887	22.57
646.076	22.63
646.266	22.77
646.456	22.74
646.645	22.89
646.835	23.3
647.024	23.53
647.214	23.56
647.403	23.69
647.593	23.79
647.782	23.8
647.972	23.85
648.161	23.65
648.351	23.61
648.54	23.65
648.73	23.55
648.919	23.38
649.108	23.33
649.298	23.65
649.487	23.45
649.677	23.42
649.866	23.5
650.055	23.58
650.244	23.89
650.434	23.86
650.623	23.91
650.812	23.88
651.002	23.73
651.191	23.78
651.38	23.57
651.569	23.87
651.758	23.94
651.947	23.92
652.137	23.92
652.326	23.65
652.515	23.9
652.704	23.91
652.893	23.76
653.082	23.74
653.271	23.82
653.46	24.01
653.649	23.89
653.838	23.83
654.027	23.79
654.216	23.58
654.405	23.98
654.594	23.95
654.783	24.13
654.972	24.32
655.161	24.38
655.35	24.28
655.539	24.33
655.728	24.26
655.916	24.57
656.105	24.46
656.294	24.57
656.483	24.39
656.672	24.3
656.86	24.01
657.049	23.94
657.238	24.18
657.427	24.16
657.615	24.28
657.804	24.39
657.993	24.15
658.181	24.24
658.37	24.28
658.559	24.18
658.747	24.25
658.936	24.41
659.125	24.7
659.313	24.61
659.502	24.76
659.69	24.87
659.879	24.75
660.067	24.76
660.256	24.68
660.444	24.77
660.633	24.94
660.821	24.79
661.01	24.9
661.198	24.71
661.387	24.83
661.575	24.78
661.763	24.41
661.952	24.39
662.14	24.39
662.328	24.4
662.517	24.43
662.705	24.34
662.893	24.31
663.082	24.05
663.27	23.89
663.458	23.63
663.646	23.51
663.834	23.62
664.023	23.48
664.211	23.46
664.399	23.57
664.587	23.33
664.775	23.22
664.963	23.44
665.152	23.5
665.34	23.53
665.528	23.61
665.716	24.13
665.904	23.99
666.092	24.35
666.28	24.4
666.468	24.32
666.656	24.52
666.844	24.71
667.032	24.74
667.22	24.63
667.408	24.95
667.596	24.9
667.784	24.7
667.971	24.73
668.159	24.68
668.347	24.61
668.535	24.63
668.723	24.7
668.911	24.61
669.098	24.54
669.286	24.65
669.474	24.49
669.662	24.57
669.849	24.46
670.037	24.46
670.225	24.28
670.413	24.58
670.6	24.82
670.788	24.7
670.976	24.79
671.163	24.73
671.351	24.85
671.538	24.75
671.726	24.85
671.913	24.61
672.101	24.62
672.289	24.82
672.476	24.83
672.664	24.37
672.851	24.27
673.039	24.18
673.226	24.2
673.413	24.17
673.601	24.45
673.788	24.51
673.976	24.73
674.163	24.76
674.35	24.82
674.538	24.79
674.725	25.29
674.912	25.39
675.1	25.5
675.287	25.61
675.474	25.52
675.662	25.43
675.849	25.38
676.036	25.43
676.223	25.43
676.411	25.4
676.598	25.2
676.785	25.05
676.972	25.02
677.159	25.14
677.346	25.16
677.533	25.25
677.721	25.33
677.908	25.39
678.095	25.42
678.282	25.22
678.469	25.23
678.656	25.27
678.843	25.24
679.03	25.27
679.217	25.32
679.404	25.45
679.591	25.25
679.778	25.04
679.964	24.79
680.151	24.66
680.338	24.67
680.525	24.5
680.712	24.59
680.899	24.56
681.086	24.6
681.272	24.44
681.459	24.14
681.646	24.24
681.833	24.36
682.02	24.48
682.206	24.46
682.393	24.47
682.58	24.35
682.766	24.24
682.953	24.26
683.14	24.24
683.326	24.25
683.513	24.69
683.7	24.58
683.886	24.63
684.073	24.57
684.259	24.92
684.446	25.16
684.632	25.52
684.819	25.39
685.005	25.4
685.192	25.38
685.378	25.46
685.565	24.9
685.751	25.27
685.938	25.23
686.124	25.59
686.31	25.32
686.497	25.47
686.683	25.31
686.87	25.64
687.056	25.89
687.242	25.9
687.429	25.88
687.615	26.06
687.801	25.8
687.987	25.81
688.174	25.34
688.36	25.33
688.546	25.16
688.732	25.21
688.918	24.89
689.105	24.64
689.291	24.56
689.477	24.37
689.663	24.51
689.849	24.46
690.035	24.43
690.221	24.5
690.407	24.66
690.593	24.52
690.779	24.42
690.965	24.82
691.151	25.19
691.337	25.32
691.523	25.5
691.709	25.53
691.895	25.85
692.081	25.93
692.267	26.2
692.453	25.84
692.639	26.21
692.825	26.36
693.011	26.17
693.196	26.09
693.382	26.22
693.568	26.4
693.754	26.1
693.94	25.8
694.125	25.52
694.311	25.64
694.497	26
694.682	26.06
694.868	25.96
695.054	25.94
695.239	25.55
695.425	25.59
695.611	25.38
695.796	25.5
695.982	25.62
696.168	25.65
696.353	25.59
696.539	25.47
696.724	25.26
696.91	25.25
697.095	25.26
697.281	25.24
697.466	25.15
697.652	25.06
697.837	25.17
698.023	25.2
698.208	25.37
698.393	25.27
698.579	25.27
698.764	25.29
698.949	25.25
699.135	25.38
699.32	25.81
699.505	25.79
699.691	26.13
699.876	26.09
700.061	26.1
700.246	26.22
700.432	26.1
700.617	26.36
700.802	26.73
700.987	26.83
701.172	26.04
701.358	25.64
701.543	25.64
701.728	25.6
701.913	26.09
702.098	26.13
702.283	26.13
702.468	26.39
702.653	26.06
702.838	25.55
703.023	26
703.208	26.56
703.393	26.34
703.578	26.41
703.763	26.16
703.948	25.57
704.133	25.68
704.318	25.33
704.503	25.42
704.688	25.45
704.873	25.45
705.057	25.28
705.242	25.32
705.427	25.74
705.612	25.81
705.797	25.7
705.981	25.74
706.166	25.45
706.351	25.34
706.536	25.38
706.72	25.76
706.905	25.74
707.09	25.42
707.274	25.31
707.459	25.19
707.644	24.95
707.828	25.11
708.013	25
708.197	25.1
708.382	25.52
708.567	25.36
708.751	24.78
708.936	24.74
709.12	24.81
709.305	24.9
709.489	24.61
709.673	24.46
709.858	24.19
710.042	24.15
710.227	24.25
710.411	23.93
710.596	24.13
710.78	24.37
710.964	24.48
711.149	24.43
711.333	24.86
711.517	25.4
711.702	25.75
711.886	25.9
712.07	25.73
712.254	25.91
712.438	26.1
712.623	25.97
712.807	25.7
712.991	25.9
713.175	25.75
713.359	25.74
713.544	25.46
713.728	25.47
713.912	25.6
714.096	25.78
714.28	25.63
714.464	25.67
714.648	25.62
714.832	25.86
715.016	25.78
715.2	26.32
715.384	25.99
715.568	26.06
715.752	26.01
715.936	26.09
716.12	26.33
716.304	26.36
716.488	26.45
716.671	26.63
716.855	26.79
717.039	26.67
717.223	26.13
717.407	26.03
717.59	26.07
717.774	25.83
717.958	26
718.142	26.02
718.325	26.04
718.509	25.91
718.693	25.93
718.877	26.03
719.06	26.14
719.244	26.35
719.428	26.63
719.611	26.77
719.795	26.92
719.978	27.05
720.162	27.11
720.345	27.04
720.529	27.01
720.713	26.73
720.896	26.45
721.08	26.74
721.263	26.86
721.446	26.88
721.63	26.58
721.813	26.24
721.997	25.99
722.18	25.71
722.364	25.49
722.547	25.11
722.73	25.24
722.914	25.06
723.097	24.97
723.28	24.95
723.464	24.82
723.647	25.36
723.83	25.63
724.013	25.43
724.197	25.74
724.38	25.79
724.563	25.66
724.746	25.86
724.929	26.45
725.112	26.08
725.296	25.33
725.479	25.56
725.662	24.81
725.845	24.85
726.028	24.77
726.211	24.51
726.394	24.86
726.577	24.83
726.76	25.03
726.943	24.65
727.126	24.78
727.309	25.26
727.492	25.23
727.675	25.48
727.858	25.66
728.041	25.51
728.224	25.41
728.407	25.2
728.589	25.45
728.772	24.61
728.955	24.68
729.138	24.46
729.321	24.49
729.503	24.15
729.686	24.43
729.869	24.3
730.052	24.35
730.234	24.42
730.417	24.52
730.6	24.64
730.782	24.61
730.965	24.63
731.148	24.71
731.33	24.71
731.513	24.88
731.695	24.62
731.878	24.82
732.061	25.18
732.243	25.15
732.426	25.1
732.608	25.39
732.791	25.59
732.973	25.82
733.156	25.87
733.338	26.16
733.52	26.14
733.703	26.02
733.885	26.04
734.068	25.67
734.25	25.72
734.432	25.73
734.615	25.66
734.797	25.82
734.979	25.5
735.162	25.98
735.344	25.99
735.526	25.49
735.708	25.62
735.891	25.31
736.073	25.24
736.255	25.12
736.437	25.03
736.619	25.06
736.802	25.49
736.984	25.51
737.166	25.22
737.348	25.46
737.53	26.56
737.712	26.53
737.894	26.59
738.076	26.73
738.258	27.05
738.44	27.3
738.622	27.29
738.804	27.19
738.986	27.02
739.168	26.93
739.35	26.2
739.532	25.73
739.714	25.66
739.896	25.92
740.078	26.26
740.259	26.18
740.441	26.12
740.623	26.12
740.805	26.17
740.987	25.79
741.168	25.58
741.35	26.32
741.532	25.96
741.714	25.89
741.895	25.48
742.077	25.41
742.259	25.37
742.44	25.64
742.622	25.68
742.804	25.3
742.985	26.26
743.167	26.81
743.348	26.12
743.53	26.68
743.711	27.11
743.893	27.38
744.075	27.02
744.256	26.4
744.438	25.96
744.619	25.67
744.8	26.34
744.982	26.16
745.163	26.14
745.345	26.65
745.526	26.55
745.707	26.42
745.889	26.72
746.07	27.31
746.252	27.64
746.433	27.82
746.614	27.25
746.795	26.84
746.977	26.64
747.158	26.04
747.339	25.97
747.52	25.76
747.702	25.94
747.883	26.01
748.064	25.83
748.245	25.64
748.426	25.45
748.607	25.46
748.788	25.19
748.97	25.29
749.151	25.52
749.332	25.58
749.513	25.8
749.694	25.68
749.875	25.18
750.056	25.11
750.237	25.1
750.418	24.94
750.599	25.87
750.78	25.86
750.96	25.72
751.141	25.6
751.322	25.25
751.503	25.38
751.684	25.6
751.865	25.85
752.046	26.2
752.226	27.1
752.407	27.16
752.588	26.51
752.769	27.02
752.949	27.15
753.13	27.45
753.311	28.47
753.492	27.84
753.672	27.08
753.853	27.45
754.034	26.86
754.214	26.04
754.395	25.81
754.575	26.35
754.756	26.22
754.937	26.64
755.117	26.73
755.298	25.75
755.478	25.82
755.659	26.2
755.839	25.97
756.02	26.24
756.2	26.56
756.381	26.87
756.561	26.65
756.741	26.54
756.922	26.25
757.102	25.69
757.283	25.2
757.463	25.44
757.643	25.87
757.823	25.34
758.004	25.68
758.184	25.92
758.364	26.05
758.545	26.15
758.725	26.22
758.905	25.82
759.085	26.74
759.265	27.72
759.446	27.71
759.626	27.6
759.806	27.88
759.986	27.52
760.166	27.52
760.346	27.21
760.526	27.18
760.706	27.42
760.886	27.75
761.066	27.41
761.246	27.19
761.426	27.09
761.606	26.9
761.786	26.57
761.966	26.75
762.146	26.71
762.326	27.23
762.506	27.15
762.686	26.68
762.866	26.44
763.046	26.52
763.225	26.43
763.405	26.32
763.585	26.59
763.765	26.92
763.945	26.59
764.124	26.85
764.304	26.61
764.484	26.86
764.664	27
764.843	27.01
765.023	25.71
765.203	25.89
765.382	26.07
765.562	25.71
765.741	25.29
765.921	25.19
766.101	24.66
766.28	24.33
766.46	24.35
766.639	24.22
766.819	24.34
766.998	25.69
767.178	25.57
767.357	25.89
767.537	25.94
767.716	26.04
767.896	26.75
768.075	26.72
768.254	26.83
768.434	25.99
768.613	26.1
768.792	26.16
768.972	26.69
769.151	26.32
769.33	26.09
769.51	25.6
769.689	26.04
769.868	26.28
770.047	26.61
770.226	26.47
770.406	26.55
770.585	26.71
770.764	26.26
770.943	25.7
771.122	25.77
771.301	25.49
771.48	25.29
771.66	24.95
771.839	23.81
772.018	24.35
772.197	24.4
772.376	24.99
772.555	24.74
772.734	25.51
772.913	25.4
773.092	25.1
773.271	25.58
773.449	26.62
773.628	27.54
773.807	27.84
773.986	27.54
774.165	27.23
774.344	26.24
774.523	25.71
774.701	25.02
774.88	24.98
775.059	24.73
775.238	24.92
775.417	24.44
775.595	23.38
775.774	23.29
775.953	22.19
776.131	22.67
776.31	23.06
776.489	24.42
776.667	24.67
776.846	25.09
777.025	24.64
777.203	24.33
777.382	24.48
777.56	24.83
777.739	25.53
777.917	25.57
778.096	25.68
778.274	25.53
778.453	24.56
778.631	24.6
778.81	24.96
778.988	26.32
779.166	26.04
779.345	25.54
779.523	24.89
779.702	24.52
779.88	25.24
780.058	25.9
780.237	26.45
780.415	27.62
780.593	27.69
780.771	27.32
780.95	27.09
781.128	27.34
781.306	28.06
781.484	28.65
781.662	28.34
781.841	28.47
782.019	27.75
782.197	27.68
782.375	26.92
782.553	26.46
782.731	27.37
782.909	27.38
783.087	26.35
783.265	26.52
783.443	26.2
783.621	26.24
783.799	25.85
783.977	26.77
784.155	26.93
784.333	26.95
784.511	27.12
784.689	26.12
784.867	25.98
785.045	26.69
785.223	26.65
785.4	26.66
785.578	26.23
785.756	25.8
785.934	24.86
786.112	25.16
786.289	25.27
786.467	26.16
786.645	26.54
786.823	26.89
787	27.33
787.178	26.73
787.356	27.02
787.533	27.7
787.711	28.22
787.889	29.11
788.066	28.85
788.244	29.22
788.421	28.45
788.599	28.85
788.776	28.94
788.954	28.87
789.131	29.28
789.309	30.13
789.486	29.39
789.664	30.33
789.841	28.74
790.019	28.64
790.196	27.17
790.373	27.45
790.551	26.46
790.728	25.98
790.906	24.99
791.083	25.16
791.26	24.83
791.437	26.76
791.615	25.9
791.792	27.47
791.969	27.77
792.146	28.11
792.324	28.73
792.501	28.8
792.678	29.21
792.855	29.99
793.032	29.14
793.209	28.67
793.387	28.51
793.564	28.17
793.741	28.02
793.918	27.65
794.095	28.9
794.272	27.83
794.449	27.52
794.626	27.42
794.803	27.02
794.98	28.13
795.157	27.43
795.334	27.11
795.511	27.42
795.688	26.87
795.864	27.67
796.041	26.57
796.218	26.76
796.395	26.78
796.572	25.99
796.749	25.77
796.925	25.65
797.102	26.89
797.279	26.99
797.456	26.44
797.632	26.99
797.809	26.14
797.986	26.6
798.162	27.16
798.339	27.63
798.516	28.86
798.692	29.54
798.869	28.73
799.046	27.43
799.222	26.98
799.399	27.71
799.575	27.68
799.752	27.96
799.928	27.87
800.105	26.74
800.281	26.57
800.458	25.8
800.634	26.22
800.811	26.82
800.987	27.45
801.163	26.93
801.34	26.86
801.516	26.48
801.692	27.11
801.869	27.15
802.045	27.8
802.221	27.65
802.398	27.36
802.574	26.03
802.75	26.17
802.926	26.4
803.103	25.82
803.279	26.52
803.455	25.62
803.631	24.5
803.807	23.52
803.983	22.56
804.16	22.63
804.336	22.71
804.512	23.81
804.688	23.14
804.864	22.97
805.04	23.27
805.216	22.56
805.392	24.23
805.568	24.35
805.744	25
805.92	26.71
806.096	26.85
806.272	27.19
806.448	27.25
806.623	27.48
806.799	27.34
806.975	26.88
807.151	27.09
807.327	26.77
807.503	27.44
807.678	28.36
807.854	28.66
808.03	28.59
808.206	29.33
808.381	29.11
808.557	29.19
808.733	30.34
808.908	30.37
809.084	30.35
809.26	30
809.435	30.27
809.611	29.97
809.787	29.95
809.962	30.43
810.138	30.61
810.313	30.88
810.489	30.97
810.664	29.55
810.84	30.24
811.015	30.78
811.191	30.85
811.366	29.55
811.542	29.72
811.717	30.07
811.892	29.99
812.068	29.84
812.243	30.34
812.419	30.14
812.594	29.86
812.769	32.06
812.944	30.6
813.12	31.75
813.295	32.71
813.47	33.86
813.645	32.35
813.821	31.67
813.996	30.73
814.171	29.55
814.346	29.44
814.521	30.6
814.697	27.79
814.872	27.88
815.047	26.25
815.222	25.9
815.397	24.11
815.572	24.33
815.747	24.92
815.922	24.49
816.097	26.05
816.272	25.51
816.447	24.85
816.622	25.35
816.797	25
816.972	24.79
817.147	25.6
817.322	24.93
817.496	24.54
817.671	24.04
817.846	23.5
818.021	22.46
818.196	23.62
818.371	24.65
818.545	24.72
818.72	24.87
818.895	24.56
819.069	24.41
819.244	25.24
819.419	25.18
819.594	25.84
819.768	27.3
819.943	27.67
820.117	26.92
820.292	26.54
820.467	26.79
820.641	27.08
820.816	27.43
820.99	27.38
821.165	27.44
821.339	27.58
821.514	27.15
821.688	26.82
821.863	26.84
822.037	26.74
822.212	26.67
822.386	26.59
822.56	26.36
822.735	26.23
822.909	25.96
823.084	26.11
823.258	25.83
823.432	25.96
823.606	26
823.781	25.76
823.955	25.87
824.129	25.62
824.303	25.59
824.478	25.96
824.652	26.01
824.826	26.22
825	26.17
825.174	26.21
825.348	25.73
825.523	25.67
825.697	25.75
825.871	25.87
826.045	26.35
826.219	26.18
826.393	26.03
826.567	26.11
826.741	26.19
826.915	25.69
827.089	25.92
827.263	26.39
827.437	26.25
827.611	26.01
827.784	26.1
827.958	26.41
828.132	26.79
828.306	26.71
828.48	26.73
828.654	26.93
828.827	27.12
829.001	27.53
829.175	27.34
829.349	27.67
829.522	27.62
829.696	27.16
829.87	26.26
830.044	26.15
830.217	26.05
830.391	25.5
830.565	25.15
830.738	24.46
830.912	24.52
831.085	24.4
831.259	24.32
831.432	24.13
831.606	25.09
831.779	25.28
831.953	25.37
832.126	26.61
832.3	26.63
832.473	27.24
832.647	27.37
832.82	26.82
832.994	27.58
833.167	27.7
833.34	28.5
833.514	28.33
833.687	28.21
833.86	28.01
834.034	27.88
834.207	28.27
834.38	27.69
834.553	27.79
834.727	27.83
834.9	27.16
835.073	27.59
835.246	27.13
835.419	27.09
835.593	26.41
835.766	26.3
835.939	25.58
836.112	24.99
836.285	25.73
836.458	27.07
836.631	27.57
836.804	28.3
836.977	28.68
837.15	29.22
837.323	28.61
837.496	30.43
837.669	31.89
837.842	31.9
838.015	32.18
838.188	30.76
838.361	28.61
838.533	28.75
838.706	30.19
838.879	28.96
839.052	28.66
839.225	30.35
839.398	29.41
839.57	28
839.743	28.67
839.916	29.07
840.088	30.13
840.261	30.6
840.434	30.58
840.607	29.87
840.779	30.2
840.952	29.08
841.124	28.02
841.297	28.63
841.47	30.32
841.642	30.25
841.815	31.25
841.987	29.43
842.16	30.15
842.332	28.32
842.505	25.27
842.677	22.76
842.85	23.85
843.022	22.34
843.194	23.78
843.367	22.22
843.539	21.48
843.712	21.48
843.884	23.23
844.056	22.73
844.229	22.58
844.401	26.39
844.573	28.49
844.745	27.78
844.918	30.25
845.09	30.47
845.262	32.11
845.434	31.48
845.606	28.55
845.779	28.38
845.951	29.77
846.123	29.51
846.295	28.9
846.467	29.15
846.639	32.39
846.811	30.62
846.983	30.01
847.155	26.85
847.327	27.74
847.499	26.53
847.671	25.65
847.843	21.37
848.015	24.62
848.187	23.29
848.359	22.29
848.531	23.02
848.703	23
848.875	20.17
849.047	17.52
849.218	16.67
849.39	21.81
849.562	23.65
849.734	28.05
849.905	26.82
850.077	28.6
850.249	27.82
850.421	29.75
850.592	29.94
850.764	32.24
850.936	36.84
851.107	37.07
851.279	37.52
851.451	36.27
851.622	31.7
851.794	32.26
851.965	28.26
852.137	30.99
852.308	27.26
852.48	29.13
852.651	29.91
852.823	27.42
852.994	27.49
853.166	25.09
853.337	26.87
853.509	30.22
853.68	29.05
853.851	31.16
854.023	29.24
854.194	29.04
854.365	23.69
854.537	22.29
854.708	24.71
854.879	24.03
855.05	26.63
855.222	25.02
855.393	22.99
855.564	24.83
855.735	28.12
855.906	31.32
856.078	29.87
856.249	33.23
856.42	34.01
856.591	30.19
856.762	34.95
856.933	28.92
857.104	29.83
857.275	30.74
857.446	30.83
857.617	30.32
857.788	25.18
857.959	26.98
858.13	29.95
858.301	31.27
858.472	33.19
858.643	30.19
858.814	26.55
858.985	22.51
859.155	28.17
859.326	29.93
859.497	24.65
859.668	27.72
859.839	23.68
860.009	19.31
860.18	19.93
860.351	22.19
860.522	21.05
860.692	27.96
860.863	32.19
861.034	26.06
861.204	22.34
861.375	26.16
861.546	23.61
861.716	28.26
861.887	30.21
862.057	27.5
862.228	22.09
862.398	18.86
862.569	21.39
862.739	25.05
862.91	26.52
863.08	27.92
863.251	28.7
863.421	28.98
863.592	27.34
863.762	23.91
863.932	20.55
864.103	22.19
864.273	28.83
864.443	28.88
864.614	21.27
864.784	21.2
864.954	22.26
865.125	21.56
865.295	24.95
865.465	29.15
865.635	33.06
865.805	37.35
865.976	40.48
866.146	39.43
866.316	38.73
866.486	41.99
866.656	44.24
866.826	43.76
866.996	45.06
867.166	42
867.336	36.87
867.506	27.93
867.676	27.41
867.846	22.89
868.016	25.74
868.186	25.89
868.356	23.67
868.526	20.6
868.696	15.67
868.866	10.78
869.036	20.36
869.206	16.87
869.376	31.11
869.545	25.32
869.715	25.65
869.885	26.4
870.055	25.51
870.224	27.76
870.394	25.03
870.564	26.67
870.734	29.92
870.903	27.71
871.073	34.12
871.243	31.47
871.412	37.18
871.582	38.57
871.751	37.32
871.921	39.19
872.091	36.29
872.26	38.02
872.43	36.99
872.599	36.12
872.769	33.86
872.938	27.81
873.108	24.89
873.277	23.58
873.446	24.68
873.616	24.64
873.785	23.08
873.955	24.87
874.124	27.65
874.293	31.3
874.463	28.71
874.632	27.17
874.801	32.76
874.971	36.71
875.14	37.53
875.309	39.2
875.478	39.7
875.647	39.87
875.817	38.83
875.986	38.83
876.155	32.95
876.324	37.24
876.493	38.18
876.662	32.32
876.831	33.81
877	31.94
877.17	28.33
877.339	30.45
877.508	32.06
877.677	27.84
877.846	23.9
878.015	27.25
878.184	28.47
878.352	28.78
878.521	29.47
878.69	25.11
878.859	25.48
879.028	26.5
879.197	20.69
879.366	20.05
879.534	21.56
879.703	23.12
879.872	20.84
880.041	20.44
880.21	21.09
880.378	23.03
880.547	23.48
880.716	22.54
880.884	22.2
881.053	23.82
881.222	24.99
881.39	25.92
881.559	26.67
881.727	27.79
881.896	28.05
882.065	27.86
882.233	28.07
882.402	28.5
882.57	29.19
882.739	30.15
882.907	29.92
883.076	29.39
883.244	29.44
883.412	29.4
883.581	29.88
883.749	29.76
883.918	29.84
884.086	29.15
884.254	29.38
884.423	29.72
884.591	28.68
884.759	29.31
884.927	29.72
885.096	29.67
885.264	29.71
885.432	29.04
885.6	28.28
885.769	29.73
885.937	30.42
886.105	29.73
886.273	30.38
886.441	30.25
886.609	29.35
886.777	27.93
886.945	29.36
887.113	30.23
887.281	30.4
887.449	32.73
887.617	30.74
887.785	32.59
887.953	34.1
888.121	35.31
888.289	39.22
888.457	41.16
888.625	40.24
888.793	41.38
888.961	39.32
889.129	42.22
889.296	37.61
889.464	38.77
889.632	37.31
889.8	35.7
889.967	33
890.135	29.92
