Data from 2938480_Reflection_3.txt Node
Date: Wed Jun 17 01:14:54 EDT 2015
User: robert
Spectrometer: USB4E03002
Autoset integration time: false
Trigger mode: 4
Integration Time (sec): 1.000000E-1
Scans to average: 10
Electric dark correction enabled: true
Nonlinearity correction enabled: false
Boxcar width: 5
Stray light correction enabled: false
XAxis mode: Wavelengths
Stop averaging: false
Number of Pixels in Spectrum: 3648
>>>>>Begin Spectral Data<<<<<
177.575	-14
177.794	9.22
178.014	-6.69
178.233	-30.62
178.452	-59.97
178.672	9.48
178.891	184.72
179.11	-76.38
179.33	-98.19
179.549	-48.42
179.768	-27.79
179.987	-48.56
180.207	-29.09
180.426	-18.32
180.645	-25.14
180.864	-28.07
181.084	16.09
181.303	45.43
181.522	27.65
181.741	22.25
181.96	38.13
182.179	25.46
182.398	65.86
182.618	98.36
182.837	1827.27
183.056	-41250
183.275	-133.01
183.494	-30.85
183.713	-49.71
183.932	-48.91
184.151	-44.9
184.37	-80.01
184.589	-81.74
184.808	-40.76
185.027	-21.14
185.246	-59.31
185.465	-83.21
185.684	-199.93
185.903	1812.5
186.122	-324.38
186.341	-312.32
186.56	558.93
186.779	4072.73
186.998	242.87
187.216	347.8
187.435	249.59
187.654	106.49
187.873	154.23
188.092	190.82
188.311	142.55
188.53	-20.3
188.748	111.37
188.967	189.82
189.186	-363.57
189.405	-334.82
189.623	-188.38
189.842	-543.68
190.061	-162.15
190.28	-199.39
190.498	-353.09
190.717	1438.88
190.936	-403.71
191.154	-257.8
191.373	-573.74
191.592	3583.44
191.81	4038.04
192.029	359.37
192.248	-1037.84
192.466	-444.92
192.685	-6.87
192.904	112.71
193.122	87.07
193.341	109.59
193.559	167.86
193.778	119.69
193.996	101.56
194.215	84.68
194.433	78.9
194.652	86.55
194.87	70.14
195.089	63.02
195.307	44.91
195.526	30.99
195.744	17.26
195.963	10.53
196.181	12.43
196.399	-3.61
196.618	-26.14
196.836	-23.23
197.055	-75.18
197.273	-400.09
197.491	-429.45
197.71	-167.06
197.928	-464.97
198.146	-443.08
198.365	-14189.47
198.583	-2001.19
198.801	2406.56
199.019	-953.27
199.238	-468.27
199.456	-138.2
199.674	-98.93
199.892	-21.6
200.111	-86.3
200.329	-131.79
200.547	-101.66
200.765	-183.93
200.983	-29.88
201.202	-316.68
201.42	-584.9
201.638	-767.7
201.856	-254.17
202.074	-364.32
202.292	-323.99
202.51	-76.85
202.728	-57.89
202.946	-70.64
203.165	-54.17
203.383	-139.79
203.601	-108.03
203.819	-53.67
204.037	-108.47
204.255	-256.61
204.473	-2357.22
204.691	374.19
204.909	175.34
205.127	129.13
205.345	115.14
205.562	106.72
205.78	113.72
205.998	159.93
206.216	255.92
206.434	187.63
206.652	81.46
206.87	112.24
207.088	104.78
207.306	126.63
207.523	135.75
207.741	155.52
207.959	279.15
208.177	435.77
208.395	622.89
208.612	539.14
208.83	8554.72
209.048	-612.92
209.266	-298.6
209.483	-116.9
209.701	-141.8
209.919	-222.46
210.136	-150.43
210.354	3422.4
210.572	-412.65
210.79	289.79
211.007	211.86
211.225	366.47
211.442	267.16
211.66	297.17
211.878	565.81
212.095	942.93
212.313	-282.93
212.53	-470.6
212.748	-189.93
212.966	-461.12
213.183	-571.1
213.401	-1829.28
213.618	-780.18
213.836	-351.12
214.053	-475.26
214.271	-964.1
214.488	-334.68
214.705	-239.1
214.923	-125.27
215.14	-148.13
215.358	-95.45
215.575	-102.24
215.793	-30.25
216.01	-37.95
216.227	-130.88
216.445	-126.14
216.662	-29.02
216.879	-44.22
217.097	-32.3
217.314	25.25
217.531	32.54
217.749	29.11
217.966	14.28
218.183	-6.53
218.4	-22.66
218.618	-18.18
218.835	-2.94
219.052	-27.08
219.269	-17.27
219.487	-20.91
219.704	-28.98
219.921	-25.07
220.138	-22.02
220.355	-11.8
220.572	-19.88
220.79	-17.53
221.007	-3.44
221.224	9.7
221.441	10.73
221.658	6.6
221.875	-3.82
222.092	-7.31
222.309	-6.94
222.526	3.37
222.743	16.27
222.96	20.79
223.177	18.25
223.394	13.23
223.611	9.9
223.828	14.43
224.045	12.52
224.262	16.26
224.479	15.15
224.696	11.37
224.913	6.74
225.13	3.11
225.347	4.09
225.564	3.72
225.781	5.74
225.997	5.01
226.214	5.17
226.431	5.89
226.648	5.87
226.865	5.87
227.082	6.24
227.298	6.52
227.515	5.86
227.732	5.69
227.949	7.68
228.165	6.89
228.382	6.91
228.599	5.93
228.816	6.01
229.032	5.55
229.249	6.24
229.466	7.11
229.682	6.43
229.899	6.85
230.116	9.3
230.332	7.74
230.549	9.43
230.765	12.19
230.982	14.78
231.199	13.92
231.415	16.87
231.632	15.3
231.848	13.57
232.065	15.66
232.281	14.17
232.498	8.94
232.714	8.76
232.931	6.28
233.147	2.8
233.364	0.51
233.58	0.89
233.797	-1.82
234.013	-1.39
234.23	-0.85
234.446	-1.84
234.662	-1.09
234.879	1.9
235.095	0.33
235.312	1.77
235.528	3.72
235.744	4.63
235.961	5.26
236.177	9.01
236.393	10.94
236.61	12.21
236.826	11.95
237.042	11.97
237.258	11.74
237.475	12.35
237.691	11.73
237.907	8.74
238.123	6.7
238.339	7.04
238.556	4.3
238.772	5.11
238.988	4.5
239.204	5.55
239.42	5.55
239.636	5.33
239.853	7.12
240.069	7.52
240.285	8.62
240.501	9.3
240.717	9.7
240.933	9.29
241.149	9.12
241.365	9.48
241.581	9.95
241.797	10.23
242.013	10.84
242.229	10.19
242.445	10.25
242.661	9.42
242.877	10.1
243.093	10.09
243.309	10.53
243.525	10.47
243.741	10.2
243.957	9.13
244.173	9.49
244.388	8.7
244.604	8.35
244.82	8.01
245.036	8.31
245.252	8.32
245.468	7.9
245.683	7.64
245.899	7.52
246.115	7.25
246.331	7.32
246.547	7.04
246.762	7.53
246.978	7.92
247.194	7.87
247.409	7.97
247.625	7.64
247.841	8.02
248.057	8.03
248.272	7.95
248.488	6.51
248.703	6.37
248.919	7.16
249.135	7.47
249.35	6.94
249.566	6.89
249.782	7.16
249.997	7.09
250.213	6.77
250.428	7.89
250.644	7.63
250.859	8.95
251.075	8.34
251.29	7.96
251.506	6.45
251.721	6.83
251.937	6.78
252.152	6.46
252.368	6.28
252.583	6.09
252.798	6.07
253.014	6.74
253.229	6.6
253.445	7.09
253.66	5.65
253.875	7.95
254.091	7.55
254.306	7.65
254.521	8.24
254.737	8.16
254.952	8.9
255.167	7.1
255.383	7.96
255.598	8.22
255.813	7.75
256.028	7.71
256.244	5.92
256.459	5.91
256.674	6.09
256.889	5.69
257.104	5.6
257.32	5.5
257.535	5.78
257.75	5.39
257.965	5.57
258.18	5.93
258.395	5.95
258.61	6.26
258.826	5.9
259.041	6.17
259.256	6.23
259.471	6.2
259.686	6.11
259.901	5.87
260.116	5.03
260.331	4.92
260.546	4.73
260.761	4.53
260.976	4.38
261.191	4.35
261.406	4.01
261.621	4.26
261.836	3.74
262.05	3.41
262.265	4.28
262.48	5.31
262.695	5.29
262.91	4.46
263.125	4.86
263.34	5.01
263.555	5.05
263.769	4.17
263.984	3.82
264.199	4.25
264.414	3.87
264.629	3.56
264.843	3.94
265.058	4.11
265.273	4.45
265.488	4.63
265.702	4.89
265.917	4.58
266.132	4.99
266.346	5.43
266.561	5.71
266.776	6.12
266.99	6.84
267.205	6.86
267.42	6.69
267.634	7.25
267.849	7.32
268.063	6.56
268.278	6.45
268.492	6.29
268.707	5.39
268.922	5.41
269.136	5.32
269.351	4.8
269.565	4.86
269.78	4.89
269.994	4.39
270.209	4.63
270.423	4.91
270.637	5.36
270.852	5.24
271.066	5.56
271.281	5.86
271.495	6.3
271.709	6.04
271.924	5.71
272.138	5.57
272.353	5.78
272.567	5.53
272.781	5.83
272.996	5.22
273.21	5.8
273.424	5.44
273.638	4.98
273.853	4.09
274.067	4.15
274.281	4.23
274.495	4.6
274.71	4.52
274.924	4.02
275.138	3.86
275.352	4.55
275.566	4.54
275.781	4.5
275.995	5.04
276.209	5.49
276.423	5.82
276.637	5.85
276.851	5.6
277.065	5.91
277.279	6.44
277.493	6.4
277.707	6.77
277.921	5.81
278.135	6.03
278.349	5.11
278.563	5.35
278.777	5.14
278.991	5.02
279.205	4.32
279.419	4.52
279.633	4.27
279.847	4.02
280.061	3.99
280.275	4.66
280.489	4.6
280.703	4.96
280.917	5.16
281.131	5
281.344	5.13
281.558	5.95
281.772	5.8
281.986	6.44
282.2	6.57
282.414	6.1
282.627	5.97
282.841	6.28
283.055	6.33
283.269	6.08
283.482	6.26
283.696	6.1
283.91	5.78
284.123	5.62
284.337	5
284.551	4.81
284.764	5.02
284.978	5.02
285.192	4.86
285.405	4.5
285.619	4.39
285.833	3.95
286.046	4.2
286.26	4.16
286.473	4.17
286.687	4.29
286.9	4.48
287.114	4.92
287.327	4.71
287.541	5.04
287.754	5.14
287.968	4.39
288.181	4.64
288.395	4.32
288.608	4.29
288.822	4.3
289.035	4.55
289.248	4.36
289.462	3.65
289.675	3.72
289.889	3.28
290.102	3.2
290.315	4.49
290.529	4.57
290.742	4.75
290.955	5.02
291.169	5.53
291.382	5.7
291.595	6.54
291.808	7.17
292.022	7.35
292.235	7.2
292.448	7.7
292.661	6.91
292.875	7.4
293.088	7.74
293.301	7.51
293.514	6.93
293.727	6.84
293.94	6.96
294.153	6.66
294.367	6.58
294.58	6.88
294.793	6.74
295.006	6.9
295.219	6.63
295.432	6.42
295.645	6.86
295.858	6.91
296.071	6.93
296.284	6.3
296.497	6.3
296.71	6.16
296.923	6.16
297.136	6.1
297.349	5.62
297.562	5.42
297.775	5.11
297.988	5
298.201	5.02
298.414	4.61
298.626	5.1
298.839	4.79
299.052	4.8
299.265	4.68
299.478	4.77
299.691	5.52
299.903	5.61
300.116	5.7
300.329	5.35
300.542	5.66
300.755	5.95
300.967	5.73
301.18	6.31
301.393	6.3
301.605	6.27
301.818	5.8
302.031	5.69
302.243	5.33
302.456	5.69
302.669	5.79
302.881	5.17
303.094	5.19
303.307	5.21
303.519	4.88
303.732	5.08
303.944	5.11
304.157	5.47
304.37	5.27
304.582	6.02
304.795	6.08
305.007	5.75
305.22	6.26
305.432	5.9
305.645	6.03
305.857	6.43
306.069	6.65
306.282	7.31
306.494	7.55
306.707	7.79
306.919	7.3
307.132	7.14
307.344	7.08
307.556	7.04
307.769	7.03
307.981	6.88
308.193	6.94
308.406	7.1
308.618	6.52
308.83	6.34
309.043	6.33
309.255	6.85
309.467	6.92
309.679	7.36
309.892	7.47
310.104	7.88
310.316	7.98
310.528	7.62
310.74	7.73
310.953	7.86
311.165	8.26
311.377	8.2
311.589	7.88
311.801	7.8
312.013	7.49
312.225	7.64
312.437	7.63
312.649	7.26
312.862	7.59
313.074	7.34
313.286	7.45
313.498	6.88
313.71	7.33
313.922	7.55
314.134	7.91
314.346	8.72
314.558	8.88
314.77	9.2
314.982	9.09
315.193	9.17
315.405	8.79
315.617	8.76
315.829	9
316.041	8.65
316.253	8.7
316.465	8.68
316.677	8.37
316.888	8.38
317.1	7.96
317.312	8.77
317.524	8.76
317.736	9.39
317.947	10.01
318.159	10.43
318.371	10.77
318.583	10.93
318.794	10.83
319.006	10.96
319.218	10.6
319.43	11.03
319.641	11.29
319.853	11.44
320.064	11.67
320.276	11.4
320.488	10.76
320.699	10.86
320.911	10.82
321.123	10.87
321.334	10.38
321.546	10.53
321.757	10.4
321.969	9.73
322.18	9.94
322.392	9.8
322.603	9.5
322.815	9.9
323.026	10.35
323.238	10.84
323.449	11.33
323.661	12.33
323.872	12.68
324.083	12.71
324.295	13.49
324.506	13.33
324.718	13.6
324.929	14.03
325.14	14.41
325.352	14.09
325.563	14.11
325.774	14.39
325.986	13.81
326.197	14.1
326.408	14.58
326.62	14.82
326.831	15.26
327.042	15.73
327.253	15.92
327.464	16.1
327.676	16.89
327.887	16.83
328.098	17.18
328.309	18.35
328.52	18.91
328.732	19
328.943	19.14
329.154	19.04
329.365	19.12
329.576	19.5
329.787	19.87
329.998	20.04
330.209	20.59
330.42	20.86
330.631	20.63
330.842	20.24
331.053	20.84
331.264	20.81
331.475	21.21
331.686	21.39
331.897	21.26
332.108	21.46
332.319	21.31
332.53	21.28
332.741	21.24
332.952	21.1
333.163	21.02
333.374	20.95
333.585	21.17
333.795	21.54
334.006	21.32
334.217	21.76
334.428	21.53
334.639	21.61
334.849	21.51
335.06	21.44
335.271	21.85
335.482	22.18
335.692	21.96
335.903	22.26
336.114	22.2
336.325	22.46
336.535	22.72
336.746	23.08
336.957	23.37
337.167	23.7
337.378	23.5
337.589	23.03
337.799	23.36
338.01	23.38
338.22	23.23
338.431	23.54
338.642	23.4
338.852	22.93
339.063	22.67
339.273	22.74
339.484	22.61
339.694	22.54
339.905	22.87
340.115	22.84
340.326	23.07
340.536	22.83
340.746	22.44
340.957	22.41
341.167	22.67
341.378	22.91
341.588	22.54
341.799	22.67
342.009	22.98
342.219	23.07
342.43	22.91
342.64	22.51
342.85	22.48
343.061	22.67
343.271	22.89
343.481	22.79
343.691	22.3
343.902	22.41
344.112	22.25
344.322	22.11
344.532	21.66
344.743	21.49
344.953	21.75
345.163	21.72
345.373	21.41
345.583	21.16
345.793	20.99
346.004	21.55
346.214	21.69
346.424	21.87
346.634	21.66
346.844	22.02
347.054	22.46
347.264	22.36
347.474	22.11
347.684	22.42
347.894	22.56
348.104	22.83
348.314	22.73
348.524	22.35
348.734	22.01
348.944	22.15
349.154	21.85
349.364	21.51
349.574	21.65
349.784	22.05
349.994	22.04
350.204	21.93
350.413	21.89
350.623	21.9
350.833	22.27
351.043	22.4
351.253	22.5
351.463	23.04
351.672	22.66
351.882	22.58
352.092	22.57
352.302	22.49
352.511	22.15
352.721	22.13
352.931	22.06
353.141	21.83
353.35	22.01
353.56	21.76
353.77	21.48
353.979	21.95
354.189	22.02
354.399	22.02
354.608	21.77
354.818	22.14
355.027	21.82
355.237	21.97
355.447	21.87
355.656	21.75
355.866	21.75
356.075	21.71
356.285	21.49
356.494	21.37
356.704	21.37
356.913	21.62
357.123	21.57
357.332	21.86
357.542	21.81
357.751	21.74
357.96	21.79
358.17	22.02
358.379	21.99
358.589	22.14
358.798	22.04
359.007	21.86
359.217	21.7
359.426	21.38
359.635	21.36
359.845	21.2
360.054	21.51
360.263	21.36
360.472	21.29
360.682	21.24
360.891	20.97
361.1	21.25
361.309	21.38
361.519	21.55
361.728	21.71
361.937	21.57
362.146	21.55
362.355	21.19
362.564	21.32
362.774	21.38
362.983	21.34
363.192	21.58
363.401	21.25
363.61	21.29
363.819	20.98
364.028	21.06
364.237	21.19
364.446	21.14
364.655	21.3
364.864	21.24
365.073	21.03
365.282	21.19
365.491	21.22
365.7	21.21
365.909	21.2
366.118	21.25
366.327	21.2
366.536	20.84
366.745	21.01
366.954	20.96
367.162	20.76
367.371	20.88
367.58	20.83
367.789	20.88
367.998	20.97
368.207	20.99
368.415	20.87
368.624	20.97
368.833	21.21
369.042	20.97
369.25	20.97
369.459	21.12
369.668	20.86
369.877	20.61
370.085	20.49
370.294	20.46
370.503	20.02
370.711	20.28
370.92	19.97
371.129	19.93
371.337	19.69
371.546	19.55
371.754	19.71
371.963	19.94
372.171	19.99
372.38	19.68
372.589	19.53
372.797	19.66
373.006	19.42
373.214	19.61
373.423	19.46
373.631	19.7
373.84	19.85
374.048	19.51
374.256	19.32
374.465	19.45
374.673	19.56
374.882	19.66
375.09	19.54
375.298	19.62
375.507	19.52
375.715	19.51
375.923	19.54
376.132	19.38
376.34	19.22
376.548	19.16
376.757	18.84
376.965	18.7
377.173	18.63
377.381	18.77
377.59	18.71
377.798	18.65
378.006	18.71
378.214	18.56
378.423	18.41
378.631	18.59
378.839	18.5
379.047	18.57
379.255	18.44
379.463	17.93
379.671	17.89
379.879	17.86
380.088	17.69
380.296	17.5
380.504	17.38
380.712	17.32
380.92	17.35
381.128	17.08
381.336	17.23
381.544	17.33
381.752	17.69
381.96	17.51
382.168	17.41
382.376	17.57
382.584	17.64
382.791	17.91
382.999	17.94
383.207	17.81
383.415	18
383.623	17.81
383.831	17.95
384.039	17.76
384.247	17.7
384.454	17.7
384.662	17.78
384.87	17.48
385.078	17.2
385.285	17.26
385.493	17.12
385.701	17.09
385.909	16.99
386.116	16.84
386.324	17.04
386.532	16.98
386.739	16.82
386.947	16.74
387.155	16.75
387.362	16.78
387.57	16.62
387.778	16.74
387.985	16.64
388.193	16.71
388.4	16.69
388.608	16.59
388.816	16.54
389.023	16.6
389.231	16.43
389.438	16.53
389.646	16.39
389.853	16.33
390.061	15.96
390.268	15.95
390.475	15.9
390.683	15.7
390.89	15.5
391.098	15.54
391.305	15.4
391.512	15.52
391.72	15.53
391.927	15.51
392.135	15.38
392.342	15.41
392.549	15.33
392.756	15.3
392.964	15.35
393.171	15.41
393.378	15.34
393.586	15.38
393.793	15.15
394	14.99
394.207	14.92
394.414	15
394.622	15.21
394.829	15.02
395.036	14.91
395.243	14.78
395.45	14.71
395.657	14.84
395.864	14.68
396.072	14.75
396.279	14.96
396.486	14.84
396.693	14.69
396.9	14.59
397.107	14.77
397.314	14.72
397.521	14.78
397.728	14.86
397.935	14.78
398.142	14.77
398.349	14.66
398.556	14.44
398.763	14.48
398.97	14.5
399.177	14.6
399.383	14.53
399.59	14.46
399.797	14.5
400.004	14.19
400.211	14.17
400.418	14.31
400.625	14.33
400.831	14.39
401.038	14.57
401.245	14.41
401.452	14.2
401.658	14.28
401.865	14.45
402.072	14.32
402.279	14.42
402.485	14.47
402.692	14.34
402.899	14.24
403.105	14.23
403.312	14.04
403.519	14.28
403.725	14.3
403.932	14.38
404.138	14.09
404.345	14.24
404.552	14.15
404.758	14
404.965	13.96
405.171	13.92
405.378	13.75
405.584	13.63
405.791	13.66
405.997	13.66
406.204	13.48
406.41	13.44
406.617	13.07
406.823	13.1
407.029	13.13
407.236	13.13
407.442	13.08
407.649	13.13
407.855	13.15
408.061	12.95
408.268	12.91
408.474	13.04
408.68	13.12
408.887	13.28
409.093	13.29
409.299	13.17
409.505	13.16
409.712	13.11
409.918	12.92
410.124	12.93
410.33	12.91
410.537	12.9
410.743	12.62
410.949	12.59
411.155	12.61
411.361	12.72
411.567	12.72
411.773	12.8
411.98	12.92
412.186	13
412.392	13.01
412.598	12.91
412.804	12.92
413.01	13.01
413.216	12.99
413.422	13.09
413.628	13.03
413.834	12.92
414.04	12.8
414.246	12.74
414.452	12.64
414.658	12.49
414.864	12.58
415.07	12.5
415.275	12.32
415.481	12.27
415.687	12.12
415.893	11.91
416.099	11.82
416.305	11.75
416.511	11.76
416.716	11.79
416.922	11.86
417.128	11.88
417.334	11.89
417.539	11.92
417.745	11.93
417.951	11.86
418.157	11.93
418.362	11.95
418.568	11.93
418.774	11.91
418.979	11.9
419.185	11.89
419.391	11.78
419.596	11.73
419.802	11.81
420.008	11.75
420.213	11.77
420.419	11.69
420.624	11.61
420.83	11.49
421.035	11.45
421.241	11.43
421.446	11.3
421.652	11.28
421.857	11.25
422.063	11.16
422.268	11.17
422.474	11.11
422.679	11.08
422.885	11.09
423.09	11.13
423.295	11
423.501	11.01
423.706	11.04
423.911	10.89
424.117	10.86
424.322	10.77
424.527	10.7
424.733	10.57
424.938	10.56
425.143	10.61
425.349	10.54
425.554	10.43
425.759	10.35
425.964	10.34
426.169	10.5
426.375	10.47
426.58	10.54
426.785	10.5
426.99	10.55
427.195	10.51
427.4	10.46
427.605	10.48
427.811	10.72
428.016	10.67
428.221	10.69
428.426	10.62
428.631	10.55
428.836	10.45
429.041	10.57
429.246	10.6
429.451	10.55
429.656	10.48
429.861	10.61
430.066	10.55
430.271	10.61
430.476	10.61
430.681	10.58
430.886	10.52
431.09	10.47
431.295	10.37
431.5	10.27
431.705	10.42
431.91	10.41
432.115	10.4
432.32	10.43
432.524	10.41
432.729	10.3
432.934	10.26
433.139	10.36
433.343	10.49
433.548	10.54
433.753	10.63
433.958	10.51
434.162	10.56
434.367	10.49
434.572	10.45
434.776	10.43
434.981	10.53
435.186	10.59
435.39	10.5
435.595	10.43
435.799	10.47
436.004	10.42
436.209	10.42
436.413	10.41
436.618	10.42
436.822	10.4
437.027	10.36
437.231	10.33
437.436	10.31
437.64	10.31
437.845	10.22
438.049	10.22
438.253	10.13
438.458	10.08
438.662	10.04
438.867	10.03
439.071	10.1
439.275	10.08
439.48	10.05
439.684	10
439.888	9.95
440.093	9.98
440.297	9.91
440.501	10.05
440.706	10.05
440.91	10
441.114	9.99
441.318	9.95
441.523	9.91
441.727	9.88
441.931	9.95
442.135	10.03
442.339	10.03
442.543	10.06
442.748	10.06
442.952	10.17
443.156	10.23
443.36	10.1
443.564	10.02
443.768	9.97
443.972	9.98
444.176	9.97
444.38	9.94
444.584	9.96
444.788	9.95
444.992	9.9
445.196	9.89
445.4	9.91
445.604	9.93
445.808	9.96
446.012	10.03
446.216	9.98
446.42	9.94
446.624	9.94
446.828	9.87
447.032	9.81
447.235	9.81
447.439	9.72
447.643	9.62
447.847	9.74
448.051	9.7
448.254	9.61
448.458	9.53
448.662	9.53
448.866	9.48
449.069	9.6
449.273	9.63
449.477	9.6
449.681	9.59
449.884	9.55
450.088	9.48
450.292	9.48
450.495	9.48
450.699	9.69
450.902	9.56
451.106	9.56
451.31	9.44
451.513	9.34
451.717	9.37
451.92	9.37
452.124	9.42
452.327	9.42
452.531	9.49
452.734	9.55
452.938	9.55
453.141	9.57
453.345	9.7
453.548	9.67
453.752	9.82
453.955	9.71
454.158	9.63
454.362	9.58
454.565	9.5
454.769	9.38
454.972	9.35
455.175	9.36
455.379	9.44
455.582	9.25
455.785	9.32
455.988	9.2
456.192	9.31
456.395	9.39
456.598	9.35
456.801	9.48
457.005	9.5
457.208	9.45
457.411	9.38
457.614	9.36
457.817	9.42
458.021	9.4
458.224	9.42
458.427	9.36
458.63	9.35
458.833	9.37
459.036	9.25
459.239	9.26
459.442	9.3
459.645	9.29
459.848	9.32
460.051	9.23
460.254	9.25
460.457	9.33
460.66	9.42
460.863	9.41
461.066	9.39
461.269	9.48
461.472	9.54
461.675	9.61
461.878	9.61
462.081	9.59
462.284	9.61
462.486	9.61
462.689	9.52
462.892	9.38
463.095	9.34
463.298	9.48
463.5	9.53
463.703	9.47
463.906	9.38
464.109	9.39
464.311	9.41
464.514	9.58
464.717	9.61
464.92	9.61
465.122	9.69
465.325	9.74
465.528	9.7
465.73	9.63
465.933	9.59
466.135	9.66
466.338	9.71
466.541	9.76
466.743	9.68
466.946	9.76
467.148	9.78
467.351	9.77
467.553	9.87
467.756	9.88
467.958	10
468.161	10.07
468.363	10.05
468.566	10.02
468.768	9.93
468.971	9.94
469.173	9.85
469.375	9.91
469.578	9.96
469.78	9.93
469.983	9.96
470.185	9.93
470.387	9.87
470.59	9.86
470.792	9.89
470.994	9.92
471.196	10.06
471.399	10.03
471.601	10.07
471.803	10.09
472.005	10.06
472.208	10.17
472.41	10.13
472.612	10.2
472.814	10.23
473.016	10.19
473.218	10.23
473.421	10.22
473.623	10.2
473.825	10.07
474.027	9.99
474.229	10.02
474.431	9.99
474.633	9.98
474.835	9.91
475.037	9.93
475.239	9.88
475.441	9.81
475.643	9.72
475.845	9.77
476.047	9.92
476.249	10.02
476.451	10.06
476.653	10.07
476.855	10.14
477.057	10.23
477.258	10.21
477.46	10.24
477.662	10.26
477.864	10.25
478.066	10.3
478.268	10.16
478.469	10.12
478.671	10.15
478.873	10.05
479.075	10
479.276	9.97
479.478	9.95
479.68	9.92
479.882	9.98
480.083	9.99
480.285	9.99
480.487	10.06
480.688	10.07
480.89	10.02
481.091	10.03
481.293	10.05
481.495	10
481.696	9.99
481.898	9.97
482.099	9.97
482.301	9.96
482.502	9.95
482.704	9.93
482.905	9.89
483.107	9.86
483.308	9.83
483.51	9.8
483.711	9.81
483.913	9.85
484.114	9.85
484.315	9.83
484.517	9.83
484.718	9.81
484.92	9.84
485.121	9.9
485.322	9.97
485.524	9.98
485.725	10
485.926	9.98
486.127	9.95
486.329	9.96
486.53	9.95
486.731	9.93
486.932	9.93
487.134	9.89
487.335	9.84
487.536	9.78
487.737	9.78
487.938	9.76
488.139	9.84
488.341	9.85
488.542	9.89
488.743	9.95
488.944	10.02
489.145	10.05
489.346	10.15
489.547	10.24
489.748	10.3
489.949	10.31
490.15	10.34
490.351	10.29
490.552	10.24
490.753	10.2
490.954	10.16
491.155	10.12
491.356	10.12
491.557	10.07
491.758	10.06
491.959	10.05
492.159	10.07
492.36	10.08
492.561	10.12
492.762	10.23
492.963	10.35
493.164	10.46
493.364	10.5
493.565	10.53
493.766	10.54
493.967	10.58
494.167	10.66
494.368	10.72
494.569	10.76
494.769	10.77
494.97	10.75
495.171	10.83
495.371	10.8
495.572	10.83
495.773	10.83
495.973	10.86
496.174	10.9
496.375	10.85
496.575	10.83
496.776	10.84
496.976	10.83
497.177	10.92
497.377	10.86
497.578	10.95
497.778	11.03
497.979	11.11
498.179	11.21
498.38	11.19
498.58	11.28
498.78	11.38
498.981	11.49
499.181	11.56
499.382	11.61
499.582	11.63
499.782	11.61
499.983	11.63
500.183	11.69
500.383	11.7
500.584	11.74
500.784	11.73
500.984	11.71
501.184	11.77
501.385	11.9
501.585	11.97
501.785	12.01
501.985	12.14
502.185	12.18
502.386	12.3
502.586	12.35
502.786	12.33
502.986	12.37
503.186	12.44
503.386	12.47
503.586	12.45
503.786	12.34
503.987	12.38
504.187	12.41
504.387	12.46
504.587	12.41
504.787	12.49
504.987	12.55
505.187	12.57
505.387	12.61
505.587	12.69
505.786	12.66
505.986	12.87
506.186	12.96
506.386	12.93
506.586	12.96
506.786	13.06
506.986	13.03
507.186	13.18
507.386	13.26
507.585	13.31
507.785	13.33
507.985	13.48
508.185	13.49
508.384	13.6
508.584	13.69
508.784	13.8
508.984	13.77
509.183	13.88
509.383	13.87
509.583	13.98
509.782	14.09
509.982	14.11
510.182	14.17
510.381	14.26
510.581	14.29
510.781	14.4
510.98	14.44
511.18	14.49
511.379	14.53
511.579	14.63
511.778	14.61
511.978	14.65
512.177	14.71
512.377	14.76
512.576	14.82
512.776	14.87
512.975	14.86
513.175	14.97
513.374	15.12
513.573	15.19
513.773	15.18
513.972	15.35
514.172	15.37
514.371	15.44
514.57	15.49
514.77	15.58
514.969	15.66
515.168	15.79
515.367	15.85
515.567	15.99
515.766	16.09
515.965	16.21
516.164	16.24
516.364	16.32
516.563	16.41
516.762	16.47
516.961	16.47
517.16	16.56
517.359	16.61
517.559	16.58
517.758	16.58
517.957	16.59
518.156	16.61
518.355	16.71
518.554	16.73
518.753	16.73
518.952	16.79
519.151	16.85
519.35	16.89
519.549	17.01
519.748	17.16
519.947	17.25
520.146	17.31
520.345	17.48
520.544	17.51
520.743	17.64
520.942	17.77
521.141	17.87
521.339	18.09
521.538	18.15
521.737	18.19
521.936	18.22
522.135	18.34
522.333	18.38
522.532	18.43
522.731	18.47
522.93	18.49
523.129	18.57
523.327	18.6
523.526	18.63
523.725	18.64
523.923	18.67
524.122	18.74
524.321	18.7
524.519	18.74
524.718	18.77
524.917	18.87
525.115	18.96
525.314	19.01
525.512	19.07
525.711	19.11
525.909	19.21
526.108	19.33
526.306	19.35
526.505	19.44
526.703	19.49
526.902	19.52
527.1	19.55
527.299	19.56
527.497	19.57
527.696	19.6
527.894	19.62
528.092	19.63
528.291	19.63
528.489	19.67
528.688	19.72
528.886	19.77
529.084	19.81
529.283	19.88
529.481	19.96
529.679	20.07
529.877	20.17
530.076	20.27
530.274	20.35
530.472	20.44
530.67	20.56
530.869	20.59
531.067	20.65
531.265	20.71
531.463	20.77
531.661	20.81
531.859	20.84
532.057	20.85
532.255	20.87
532.454	20.88
532.652	20.96
532.85	20.95
533.048	21
533.246	21.08
533.444	21.14
533.642	21.15
533.84	21.21
534.038	21.24
534.236	21.37
534.434	21.43
534.632	21.55
534.83	21.56
535.027	21.61
535.225	21.7
535.423	21.76
535.621	21.79
535.819	21.82
536.017	21.83
536.215	21.87
536.412	21.83
536.61	21.91
536.808	21.95
537.006	21.98
537.203	22.01
537.401	22.04
537.599	22.06
537.797	22.17
537.994	22.21
538.192	22.31
538.39	22.38
538.587	22.44
538.785	22.45
538.983	22.46
539.18	22.47
539.378	22.51
539.575	22.53
539.773	22.55
539.97	22.51
540.168	22.6
540.366	22.56
540.563	22.55
540.761	22.57
540.958	22.6
541.155	22.61
541.353	22.66
541.55	22.69
541.748	22.72
541.945	22.75
542.143	22.79
542.34	22.77
542.537	22.93
542.735	23.06
542.932	23.11
543.129	23.19
543.327	23.28
543.524	23.31
543.721	23.32
543.919	23.42
544.116	23.47
544.313	23.54
544.51	23.6
544.708	23.6
544.905	23.65
545.102	23.69
545.299	23.74
545.496	23.77
545.693	23.86
545.891	23.92
546.088	23.93
546.285	23.94
546.482	24.02
546.679	24.08
546.876	24.04
547.073	24.01
547.27	24.1
547.467	23.96
547.664	23.98
547.861	24.05
548.058	24.05
548.255	24.03
548.452	24.18
548.649	24.28
548.846	24.39
549.043	24.5
549.24	24.58
549.437	24.65
549.633	24.82
549.83	24.9
550.027	24.88
550.224	25.08
550.421	25.14
550.618	25.13
550.814	25.09
551.011	25.16
551.208	25.28
551.405	25.35
551.601	25.39
551.798	25.55
551.995	25.64
552.191	25.72
552.388	25.75
552.585	25.75
552.781	25.71
552.978	25.79
553.175	25.83
553.371	25.75
553.568	25.83
553.764	25.88
553.961	25.68
554.157	25.7
554.354	25.78
554.55	25.65
554.747	25.81
554.943	25.93
555.14	25.93
555.336	25.93
555.533	25.99
555.729	25.97
555.926	25.89
556.122	25.98
556.318	26.01
556.515	26.06
556.711	26.22
556.907	26.28
557.104	26.35
557.3	26.46
557.496	26.48
557.693	26.52
557.889	26.52
558.085	26.67
558.281	26.86
558.478	26.97
558.674	27.03
558.87	27.2
559.066	27.28
559.262	27.33
559.459	27.34
559.655	27.54
559.851	27.61
560.047	27.72
560.243	27.71
560.439	27.73
560.635	27.7
560.831	27.7
561.027	27.5
561.223	27.49
561.419	27.57
561.615	27.7
561.811	27.6
562.007	27.67
562.203	27.81
562.399	27.9
562.595	27.94
562.791	27.93
562.987	27.93
563.183	28.13
563.379	28.19
563.575	28.09
563.771	28.13
563.966	28.26
564.162	28.35
564.358	28.25
564.554	28.37
564.75	28.35
564.945	28.46
565.141	28.46
565.337	28.51
565.533	28.49
565.728	28.61
565.924	28.64
566.12	28.7
566.315	28.65
566.511	28.82
566.707	28.88
566.902	29.01
567.098	29
567.293	29.12
567.489	29.15
567.684	29.25
567.88	29.25
568.076	29.11
568.271	29.18
568.467	29.25
568.662	29.18
568.858	29.19
569.053	29.11
569.248	29.14
569.444	29.12
569.639	29.18
569.835	29.17
570.03	29.2
570.225	29.41
570.421	29.39
570.616	29.41
570.812	29.43
571.007	29.41
571.202	29.47
571.397	29.54
571.593	29.59
571.788	29.59
571.983	29.65
572.178	29.71
572.374	29.61
572.569	29.64
572.764	29.85
572.959	29.86
573.154	29.92
573.35	30.1
573.545	30.16
573.74	30.26
573.935	30.43
574.13	30.49
574.325	30.58
574.52	30.73
574.715	30.8
574.91	30.63
575.105	30.74
575.3	30.84
575.495	30.72
575.69	30.68
575.885	30.77
576.08	30.73
576.275	30.79
576.47	30.83
576.665	30.86
576.86	30.95
577.055	31.09
577.25	31.06
577.444	31.05
577.639	31.22
577.834	31.37
578.029	31.26
578.224	31.27
578.418	31.22
578.613	31.27
578.808	31.17
579.003	31.14
579.197	31.09
579.392	31.1
579.587	31.21
579.781	31.06
579.976	31.09
580.171	31.2
580.365	31.2
580.56	31.28
580.755	31.29
580.949	31.45
581.144	31.55
581.338	31.74
581.533	31.9
581.727	31.87
581.922	32.09
582.116	32
582.311	32.06
582.505	32.16
582.7	32.23
582.894	32.3
583.089	32.23
583.283	32.11
583.478	32.12
583.672	32.19
583.866	32.26
584.061	32.29
584.255	32.48
584.449	32.53
584.644	32.5
584.838	32.52
585.032	32.55
585.226	32.77
585.421	32.96
585.615	32.99
585.809	33.07
586.003	33.14
586.198	33.12
586.392	32.97
586.586	33.01
586.78	33.15
586.974	33.11
587.168	33.21
587.363	33.23
587.557	33.28
587.751	33.3
587.945	33.24
588.139	33.23
588.333	33.34
588.527	33.64
588.721	33.69
588.915	33.72
589.109	33.73
589.303	33.78
589.497	33.91
589.691	33.71
589.885	33.71
590.079	33.7
590.273	33.85
590.466	33.84
590.66	33.67
590.854	33.66
591.048	33.6
591.242	33.84
591.436	33.79
591.629	33.67
591.823	33.97
592.017	33.97
592.211	34.06
592.404	33.93
592.598	33.97
592.792	34.07
592.986	34.19
593.179	34.16
593.373	34.15
593.567	34.13
593.76	34.04
593.954	34.07
594.147	34.11
594.341	34.16
594.535	34.36
594.728	34.35
594.922	34.39
595.115	34.34
595.309	34.31
595.502	34.37
595.696	34.42
595.889	34.51
596.083	34.37
596.276	34.42
596.47	34.5
596.663	34.34
596.856	34.34
597.05	34.33
597.243	34.47
597.437	34.73
597.63	34.72
597.823	34.68
598.017	34.67
598.21	34.73
598.403	34.72
598.596	34.69
598.79	34.71
598.983	34.73
599.176	34.68
599.369	34.56
599.563	34.44
599.756	34.47
599.949	34.71
600.142	34.65
600.335	34.82
600.528	34.79
600.722	34.74
600.915	34.76
601.108	34.94
601.301	35.17
601.494	35.16
601.687	35.27
601.88	35.33
602.073	35.35
602.266	35.51
602.459	35.38
602.652	35.53
602.845	35.58
603.038	35.53
603.231	35.53
603.424	35.58
603.617	35.57
603.809	35.5
604.002	35.44
604.195	35.43
604.388	35.28
604.581	35.37
604.774	35.35
604.966	35.44
605.159	35.53
605.352	35.63
605.545	35.53
605.737	35.6
605.93	35.58
606.123	35.7
606.316	35.69
606.508	35.84
606.701	36.01
606.894	35.97
607.086	35.84
607.279	35.79
607.471	35.81
607.664	35.81
607.857	35.86
608.049	36.03
608.242	35.95
608.434	35.82
608.627	35.94
608.819	35.99
609.012	35.99
609.204	35.96
609.397	36.1
609.589	36.07
609.782	36
609.974	36.07
610.166	36.01
610.359	35.98
610.551	36.07
610.743	36.1
610.936	36.02
611.128	36.05
611.32	36.18
611.513	36.37
611.705	36.31
611.897	36.45
612.09	36.44
612.282	36.48
612.474	36.57
612.666	36.38
612.858	36.29
613.051	36.41
613.243	36.47
613.435	36.44
613.627	36.39
613.819	36.36
614.011	36.67
614.203	36.54
614.395	36.55
614.588	36.66
614.78	36.93
614.972	36.99
615.164	36.8
615.356	36.71
615.548	36.8
615.74	36.72
615.932	36.69
616.124	36.6
616.315	36.78
616.507	36.73
616.699	36.79
616.891	36.7
617.083	36.59
617.275	36.75
617.467	36.77
617.659	36.74
617.85	36.72
618.042	36.67
618.234	36.44
618.426	36.32
618.618	36.29
618.809	36.1
619.001	36.27
619.193	36.36
619.384	36.29
619.576	36.11
619.768	35.99
619.959	36.01
620.151	36.29
620.343	36.22
620.534	36.09
620.726	36.19
620.917	36.28
621.109	36.24
621.301	36.26
621.492	36.4
621.684	36.75
621.875	36.92
622.067	37.03
622.258	37
622.45	37.04
622.641	37.08
622.832	37.13
623.024	37.15
623.215	37.14
623.407	37.24
623.598	37.23
623.789	37.32
623.981	37.31
624.172	37.36
624.363	37.3
624.555	37.47
624.746	37.44
624.937	37.35
625.129	37.23
625.32	37.24
625.511	37.15
625.702	37.01
625.893	36.82
626.085	36.89
626.276	36.88
626.467	36.66
626.658	36.63
626.849	36.73
627.04	36.72
627.231	36.88
627.422	36.73
627.614	36.76
627.805	36.66
627.996	36.78
628.187	36.67
628.378	36.49
628.569	36.74
628.76	36.7
628.951	36.53
629.142	36.41
629.332	36.46
629.523	36.67
629.714	36.7
629.905	36.84
630.096	36.74
630.287	36.82
630.478	36.91
630.669	36.87
630.859	36.88
631.05	37.02
631.241	37.25
631.432	37.1
631.623	36.98
631.813	36.88
632.004	36.93
632.195	37.04
632.385	37.08
632.576	37.17
632.767	37.08
632.957	37.11
633.148	37.31
633.339	37.18
633.529	37.18
633.72	37.28
633.91	37.38
634.101	37.42
634.292	37.37
634.482	37.28
634.673	37.17
634.863	37.25
635.054	37.17
635.244	36.96
635.435	37
635.625	37.13
635.815	37.05
636.006	36.93
636.196	36.74
636.387	36.94
636.577	37.07
636.767	37.3
636.958	37.41
637.148	37.43
637.338	37.55
637.529	37.6
637.719	37.64
637.909	38.03
638.099	38.13
638.29	38.2
638.48	37.94
638.67	37.81
638.86	37.59
639.05	37.44
639.241	37.53
639.431	37.48
639.621	37.54
639.811	37.43
640.001	37.16
640.191	37.22
640.381	37.37
640.571	37.55
640.761	37.44
640.951	37.35
641.141	37.46
641.331	37.21
641.521	37.31
641.711	37.27
641.901	37.32
642.091	37.32
642.281	37.23
642.471	37.11
642.661	37.09
642.851	37.31
643.041	37.38
643.231	37.36
643.42	37.61
643.61	37.53
643.8	37.51
643.99	37.45
644.18	37.41
644.369	37.46
644.559	37.52
644.749	37.43
644.939	37.42
645.128	37.53
645.318	37.51
645.508	37.41
645.697	37.44
645.887	37.53
646.076	37.66
646.266	37.66
646.456	37.73
646.645	37.72
646.835	37.73
647.024	37.66
647.214	37.64
647.403	37.8
647.593	37.91
647.782	37.98
647.972	37.83
648.161	37.79
648.351	37.81
648.54	37.74
648.73	37.66
648.919	37.72
649.108	37.68
649.298	37.71
649.487	37.59
649.677	37.55
649.866	37.62
650.055	37.78
650.244	37.85
650.434	37.82
650.623	37.87
650.812	37.81
651.002	37.82
651.191	37.82
651.38	37.72
651.569	37.79
651.758	37.98
651.947	37.93
652.137	37.84
652.326	37.77
652.515	37.78
652.704	37.69
652.893	37.89
653.082	37.83
653.271	37.89
653.46	37.9
653.649	37.87
653.838	37.84
654.027	37.65
654.216	37.38
654.405	37.35
654.594	37.31
654.783	37.43
654.972	37.23
655.161	37.36
655.35	37.44
655.539	37.44
655.728	37.4
655.916	37.4
656.105	37.43
656.294	37.65
656.483	37.38
656.672	37.47
656.86	37.49
657.049	37.78
657.238	37.68
657.427	37.62
657.615	37.7
657.804	37.65
657.993	37.66
658.181	37.89
658.37	37.97
658.559	38.29
658.747	38.16
658.936	38
659.125	37.48
659.313	37.48
659.502	37.64
659.69	37.56
659.879	37.75
660.067	37.56
660.256	37.56
660.444	37.42
660.633	37.39
660.821	37.53
661.01	37.74
661.198	38.23
661.387	38.25
661.575	38.07
661.763	38.03
661.952	37.9
662.14	37.92
662.328	37.75
662.517	37.82
662.705	37.75
662.893	37.9
663.082	38.06
663.27	38.23
663.458	38.46
663.646	38.21
663.834	38.39
664.023	38.56
664.211	38.8
664.399	38.85
664.587	38.83
664.775	38.98
664.963	38.85
665.152	38.49
665.34	38.36
665.528	38.28
665.716	38.71
665.904	38.64
666.092	38.51
666.28	38.19
666.468	38.21
666.656	38.41
666.844	38.39
667.032	38.31
667.22	38.6
667.408	38.5
667.596	38.34
667.784	38.07
667.971	38.18
668.159	38.11
668.347	38.26
668.535	38.27
668.723	38.08
668.911	38.04
669.098	38.1
669.286	37.97
669.474	38.04
669.662	38.37
669.849	38.71
670.037	38.7
670.225	38.59
670.413	38.51
670.6	38.56
670.788	38.76
670.976	38.74
671.163	38.6
671.351	38.36
671.538	38.37
671.726	38.16
671.913	37.9
672.101	37.94
672.289	37.94
672.476	38.18
672.664	37.99
672.851	38.12
673.039	37.79
673.226	37.77
673.413	37.95
673.601	37.99
673.788	38.03
673.976	38.06
674.163	38.11
674.35	38.23
674.538	38.24
674.725	38.51
674.912	38.26
675.1	38.68
675.287	38.66
675.474	38.57
675.662	38.45
675.849	37.98
676.036	37.78
676.223	37.81
676.411	37.82
676.598	37.76
676.785	37.78
676.972	37.69
677.159	37.6
677.346	37.56
677.533	37.79
677.721	37.87
677.908	38.29
678.095	38.58
678.282	38.67
678.469	38.66
678.656	38.54
678.843	38.54
679.03	38.59
679.217	38.69
679.404	38.86
679.591	38.76
679.778	38.95
679.964	39.02
680.151	38.89
680.338	38.65
680.525	38.68
680.712	38.9
680.899	38.7
681.086	38.59
681.272	38.59
681.459	38.73
681.646	38.68
681.833	38.47
682.02	38.5
682.206	38.48
682.393	38.46
682.58	38.62
682.766	38.26
682.953	38.33
683.14	38.37
683.326	38.51
683.513	38.46
683.7	38.47
683.886	38.49
684.073	38.48
684.259	38.52
684.446	38.61
684.632	38.43
684.819	38.38
685.005	38.44
685.192	38.56
685.378	38.28
685.565	38.44
685.751	38.59
685.938	38.59
686.124	38.54
686.31	38.67
686.497	38.48
686.683	38.59
686.87	38.74
687.056	38.69
687.242	38.48
687.429	38.44
687.615	37.94
687.801	38.03
687.987	38.14
688.174	37.84
688.36	37.55
688.546	37.46
688.732	37.49
688.918	37.59
689.105	37.32
689.291	37.57
689.477	37.7
689.663	38.03
689.849	38.01
690.035	38.24
690.221	38.48
690.407	38.93
690.593	39.25
690.779	39.15
690.965	39.07
691.151	39.36
691.337	39.34
691.523	39.11
691.709	39.17
691.895	38.87
692.081	38.34
692.267	38.23
692.453	37.93
692.639	37.72
692.825	37.61
693.011	37.6
693.196	37.55
693.382	37.85
693.568	37.98
693.754	37.82
693.94	37.88
694.125	38.17
694.311	38.03
694.497	38.06
694.682	38.01
694.868	38.11
695.054	37.99
695.239	37.73
695.425	37.42
695.611	37.46
695.796	37.47
695.982	37.45
696.168	37.22
696.353	37.33
696.539	37.39
696.724	37.58
696.91	37.47
697.095	37.78
697.281	37.91
697.466	38.02
697.652	37.86
697.837	38.05
698.023	38.07
698.208	38.29
698.393	38.27
698.579	38.46
698.764	38.37
698.949	38.43
699.135	38.54
699.32	38.74
699.505	38.65
699.691	38.8
699.876	38.55
700.061	38.52
700.246	38.13
700.432	38
700.617	37.52
700.802	37.45
700.987	37.32
701.172	37.18
701.358	37.15
701.543	37.14
701.728	37.31
701.913	37.64
702.098	37.59
702.283	37.88
702.468	38.01
702.653	38.14
702.838	37.98
703.023	38.26
703.208	38.09
703.393	38.08
703.578	38.17
703.763	37.81
703.948	37.63
704.133	37.77
704.318	37.7
704.503	37.84
704.688	37.59
704.873	37.9
705.057	37.77
705.242	37.78
705.427	37.68
705.612	37.64
705.797	37.82
705.981	38.13
706.166	37.98
706.351	37.95
706.536	38.35
706.72	38.75
706.905	38.68
707.09	38.89
707.274	38.94
707.459	38.95
707.644	38.83
707.828	38.91
708.013	38.4
708.197	38.32
708.382	38.62
708.567	38.24
708.751	37.78
708.936	37.72
709.12	37.48
709.305	37.47
709.489	37.18
709.673	37.23
709.858	36.94
710.042	37.14
710.227	37.53
710.411	37.62
710.596	37.74
710.78	37.77
710.964	38.08
711.149	38.02
711.333	37.6
711.517	37.9
711.702	38.1
711.886	38.4
712.07	38.34
712.254	38.19
712.438	37.86
712.623	37.73
712.807	38.2
712.991	37.96
713.175	38.01
713.359	38.4
713.544	38.16
713.728	38.12
713.912	37.93
714.096	38.11
714.28	38.25
714.464	38.39
714.648	38.37
714.832	38.54
715.016	38.53
715.2	38.39
715.384	38.32
715.568	38.41
715.752	38.36
715.936	38.68
716.12	38.53
716.304	38.68
716.488	38.36
716.671	38.47
716.855	37.95
717.039	38.01
717.223	38.26
717.407	38.44
717.59	38.57
717.774	38.74
717.958	38.51
718.142	38.3
718.325	38.23
718.509	38.49
718.693	38.44
718.877	38.43
719.06	38.48
719.244	38.18
719.428	38.02
719.611	37.77
719.795	37.43
719.978	37.05
720.162	37.14
720.345	37.45
720.529	37.01
720.713	37.04
720.896	37.08
721.08	36.58
721.263	36.72
721.446	36.45
721.63	36.82
721.813	36.69
721.997	37.48
722.18	37.64
722.364	36.83
722.547	37.17
722.73	37.26
722.914	36.81
723.097	37.79
723.28	37.93
723.464	38.3
723.647	38.17
723.83	38.15
724.013	37.72
724.197	37.5
724.38	37.89
724.563	37.9
724.746	37.7
724.929	38.16
725.112	37.21
725.296	37.03
725.479	36.71
725.662	36.88
725.845	37.08
726.028	37.53
726.211	37.69
726.394	37.96
726.577	38.12
726.76	38.08
726.943	37.99
727.126	38.22
727.309	38.36
727.492	38.3
727.675	38.29
727.858	38.22
728.041	37.76
728.224	37.63
728.407	36.82
728.589	37.25
728.772	37.04
728.955	37.48
729.138	37.63
729.321	37.53
729.503	37.92
729.686	38
729.869	38.13
730.052	38.02
730.234	37.9
730.417	38.47
730.6	37.89
730.782	38.51
730.965	38.21
731.148	38.08
731.33	37.78
731.513	37.57
731.695	37.45
731.878	37.55
732.061	37.86
732.243	38.15
732.426	37.8
732.608	37.93
732.791	37.7
732.973	37.9
733.156	37.99
733.338	38.52
733.52	38.85
733.703	38.5
733.885	38.41
734.068	38.48
734.25	38.49
734.432	38.73
734.615	38.83
734.797	38.63
734.979	38.47
735.162	38.65
735.344	38.69
735.526	38.47
735.708	38.77
735.891	38.75
736.073	38.85
736.255	38.61
736.437	38.1
736.619	38.1
736.802	37.58
736.984	37.8
737.166	37.62
737.348	37.74
737.53	37.85
737.712	37.78
737.894	37.95
738.076	37.43
738.258	37.35
738.44	37.54
738.622	37.72
738.804	38.55
738.986	38.02
739.168	38.07
739.35	37.63
739.532	37.16
739.714	37.24
739.896	37.14
740.078	37.16
740.259	37.16
740.441	37.39
740.623	37.06
740.805	36.87
740.987	37.45
741.168	37.57
741.35	37.68
741.532	38.26
741.714	37.95
741.895	37.3
742.077	37.51
742.259	37.91
742.44	37.81
742.622	38.24
742.804	38.26
742.985	38.03
743.167	37.69
743.348	37.92
743.53	37.16
743.711	37.01
743.893	37.25
744.075	37.03
744.256	36.01
744.438	35.99
744.619	35.12
744.8	35.26
744.982	35.04
745.163	35.8
745.345	35.27
745.526	36.06
745.707	36.61
745.889	37.15
746.07	37.31
746.252	37.86
746.433	38.6
746.614	38.87
746.795	39.42
746.977	38.61
747.158	38.16
747.339	38.64
747.52	37.55
747.702	37.72
747.883	37.54
748.064	37.8
748.245	38.24
748.426	37.98
748.607	37.95
748.788	37.02
748.97	37.74
749.151	38.02
749.332	37.56
749.513	38.26
749.694	38.27
749.875	38.16
750.056	37.86
750.237	37.29
750.418	36.76
750.599	36.42
750.78	36.9
750.96	37.57
751.141	37.4
751.322	37.43
751.503	37.17
751.684	36.3
751.865	35.97
752.046	35.96
752.226	36.37
752.407	35.54
752.588	36.09
752.769	36.09
752.949	35.99
753.13	36.16
753.311	35.96
753.492	36.4
753.672	36.68
753.853	37.04
754.034	37.27
754.214	37.16
754.395	38.15
754.575	37.68
754.756	36.87
754.937	36.29
755.117	36.32
755.298	36.96
755.478	36.69
755.659	36.74
755.839	36.68
756.02	36.15
756.2	35.88
756.381	35.32
756.561	35.67
756.741	35.64
756.922	35.71
757.102	34.82
757.283	33.98
757.463	33.84
757.643	34.09
757.823	34.51
758.004	35.01
758.184	35.07
758.364	35.55
758.545	34.83
758.725	34.98
758.905	35.53
759.085	36.46
759.265	37.27
759.446	37.41
759.626	37.34
759.806	36.64
759.986	36.39
760.166	35.79
760.346	35.68
760.526	36.09
760.706	36.49
760.886	36.22
761.066	35.74
761.246	35.65
761.426	35.71
761.606	35.62
761.786	35.92
761.966	35.83
762.146	35.95
762.326	36.4
762.506	36.72
762.686	36.63
762.866	37.04
763.046	36.82
763.225	36.84
763.405	37.12
763.585	37.09
763.765	37.37
763.945	37.26
764.124	37.9
764.304	37.72
764.484	37.79
764.664	37.9
764.843	37.56
765.023	37.47
765.203	37.31
765.382	36.94
765.562	37.12
765.741	36.57
765.921	37
766.101	36.7
766.28	36.55
766.46	36.48
766.639	36.68
766.819	36.32
766.998	36.8
767.178	36.64
767.357	37.06
767.537	37.12
767.716	37.01
767.896	36.79
768.075	37.07
768.254	36.37
768.434	36.13
768.613	35.84
768.792	35.99
768.972	35.93
769.151	35.57
769.33	34.78
769.51	34.19
769.689	34.03
769.868	34.33
770.047	34.06
770.226	34.72
770.406	33.77
770.585	33.47
770.764	33.35
770.943	33.59
771.122	33.74
771.301	34
771.48	34.21
771.66	34.3
771.839	34.73
772.018	34.95
772.197	34.65
772.376	36.1
772.555	36.18
772.734	36.44
772.913	35.76
773.092	36.32
773.271	36.09
773.449	36.38
773.628	37.04
773.807	36.51
773.986	36.91
774.165	37.79
774.344	37.57
774.523	37.66
774.701	36.83
774.88	37.47
775.059	37.08
775.238	36.63
775.417	37.13
775.595	37.23
775.774	36.83
775.953	35.85
776.131	34.68
776.31	34.23
776.489	34.59
776.667	35.03
776.846	34.35
777.025	34.09
777.203	34.32
777.382	34.11
777.56	34.45
777.739	34.85
777.917	34.93
778.096	36.02
778.274	36.07
778.453	35.71
778.631	35.7
778.81	36.03
778.988	36.51
779.166	36.81
779.345	36.71
779.523	36.05
779.702	35.52
779.88	35.66
780.058	34.51
780.237	33.54
780.415	33.73
780.593	33.85
780.771	35.19
780.95	35.46
781.128	36.07
781.306	36.02
781.484	35.76
781.662	35.77
781.841	35.62
782.019	36.38
782.197	37.43
782.375	37.58
782.553	37.01
782.731	35.64
782.909	35.08
783.087	35.19
783.265	34.9
783.443	35.99
783.621	36.42
783.799	36.96
783.977	36.23
784.155	36.54
784.333	35.45
784.511	37.04
784.689	37.9
784.867	37.75
785.045	36.99
785.223	37.04
785.4	36.6
785.578	36.58
785.756	36.85
785.934	36.67
786.112	36.19
786.289	36.04
786.467	34.79
786.645	34.05
786.823	34.48
787	34.81
787.178	34.48
787.356	34.19
787.533	34.12
787.711	34.34
787.889	34.39
788.066	34.59
788.244	34.61
788.421	35.27
788.599	35.48
788.776	35.6
788.954	34.69
789.131	35.88
789.309	36.02
789.486	36.97
789.664	36.34
789.841	37.25
790.019	36.6
790.196	37.45
790.373	37.03
790.551	36.37
790.728	36.24
790.906	37.47
791.083	36.12
791.26	36.32
791.437	34.62
791.615	34.58
791.792	34.41
791.969	35.23
792.146	35.27
792.324	35.46
792.501	36
792.678	36.06
792.855	35.94
793.032	36.79
793.209	35.79
793.387	36.34
793.564	36.07
793.741	35.94
793.918	36.54
794.095	35.8
794.272	35.7
794.449	35.13
794.626	34.69
794.803	34.43
794.98	33.7
795.157	33.93
795.334	33.89
795.511	34.04
795.688	34.74
795.864	33.55
796.041	34.03
796.218	33.13
796.395	33.09
796.572	32.92
796.749	32.27
796.925	32.56
797.102	32.38
797.279	32.29
797.456	32.42
797.632	32.35
797.809	32.8
797.986	31.86
798.162	32.35
798.339	32.59
798.516	32.79
798.692	34.49
798.869	33.7
799.046	34.59
799.222	34.55
799.399	34.25
799.575	33.75
799.752	34.15
799.928	34.79
800.105	35.15
800.281	35.26
800.458	35.92
800.634	34.51
800.811	34.55
800.987	33.97
801.163	34.86
801.34	34.44
801.516	34.39
801.692	34.76
801.869	35.43
802.045	35.82
802.221	35.87
802.398	35.31
802.574	35.71
802.75	36.36
802.926	36.98
803.103	35.3
803.279	35.85
803.455	36.29
803.631	36.57
803.807	35.75
803.983	36.03
804.16	36.07
804.336	34.78
804.512	34.67
804.688	35.31
804.864	34.47
805.04	35.15
805.216	35.66
805.392	35.45
805.568	34.3
805.744	34.45
805.92	33.52
806.096	33.56
806.272	34.4
806.448	33.66
806.623	33.22
806.799	33.3
806.975	33.34
807.151	33.69
807.327	31.93
807.503	30.95
807.678	31.01
807.854	31.25
808.03	31.41
808.206	32.37
808.381	33.16
808.557	32.58
808.733	33.54
808.908	33.61
809.084	32.51
809.26	34.26
809.435	35.58
809.611	36.27
809.787	37.26
809.962	36.44
810.138	36.46
810.313	35.75
810.489	36.21
810.664	35.16
810.84	34.51
811.015	33.93
811.191	33.97
811.366	33.99
811.542	33.06
811.717	30.53
811.892	30.59
812.068	29.77
812.243	29.44
812.419	29.26
812.594	29.29
812.769	29.89
812.944	31.53
813.12	32.03
813.295	32.67
813.47	34.34
813.645	35.17
813.821	36.34
813.996	36.67
814.171	37.25
814.346	36.85
814.521	36.66
814.697	36.5
814.872	34.93
815.047	34.35
815.222	33.32
815.397	31.33
815.572	31.8
815.747	31.51
815.922	33.44
816.097	32.95
816.272	33.14
816.447	34.35
816.622	34.13
816.797	34.93
816.972	34.38
817.147	34.22
817.322	34.48
817.496	34.67
817.671	35
817.846	34.31
818.021	35.8
818.196	35.83
818.371	35.59
818.545	36.47
818.72	36.3
818.895	36.34
819.069	36.07
819.244	36.34
819.419	36.74
819.594	35.4
819.768	34.62
819.943	34.04
820.117	34.16
820.292	34.38
820.467	34.55
820.641	35.17
820.816	35.39
820.99	35.28
821.165	35.09
821.339	35.11
821.514	35.27
821.688	35.5
821.863	35.65
822.037	35.82
822.212	35.69
822.386	35.53
822.56	35.4
822.735	35.45
822.909	35.59
823.084	35.8
823.258	35.72
823.432	36.09
823.606	35.9
823.781	35.86
823.955	35.47
824.129	35.24
824.303	35.54
824.478	35.33
824.652	35
824.826	35.33
825	35.06
825.174	35.03
825.348	35.05
825.523	35.29
825.697	34.84
825.871	34.9
826.045	34.95
826.219	34.47
826.393	34.75
826.567	35.13
826.741	35.14
826.915	35.11
827.089	34.96
827.263	34.4
827.437	34.98
827.611	35.17
827.784	35.11
827.958	35.8
828.132	36.02
828.306	36.09
828.48	35.51
828.654	35.29
828.827	35.89
829.001	36.36
829.175	36.74
829.349	35.17
829.522	35.08
829.696	35.82
829.87	35.24
830.044	35.13
830.217	34.89
830.391	34.64
830.565	34.09
830.738	33.42
830.912	32.48
831.085	31.5
831.259	31.39
831.432	31.64
831.606	30.91
831.779	30.07
831.953	29.15
832.126	28.8
832.3	29.74
832.473	29.38
832.647	28.37
832.82	28.83
832.994	29.88
833.167	30.92
833.34	31.25
833.514	31.38
833.687	31.78
833.86	32.09
834.034	32.32
834.207	32.36
834.38	33.09
834.553	33.69
834.727	34.45
834.9	34.07
835.073	34.26
835.246	33.78
835.419	33.7
835.593	33.33
835.766	33.37
835.939	32.7
836.112	32.53
836.285	33.14
836.458	33.79
836.631	33.03
836.804	33.07
836.977	32.24
837.15	32.18
837.323	32.53
837.496	32.13
837.669	33.2
837.842	35.43
838.015	36.15
838.188	34
838.361	33.56
838.533	34.45
838.706	34.43
838.879	35.43
839.052	35.87
839.225	35.18
839.398	37.16
839.57	36.64
839.743	36.91
839.916	36.36
840.088	36.19
840.261	36.77
840.434	34.66
840.607	33.94
840.779	33.31
840.952	33.6
841.124	34.86
841.297	35.28
841.47	35.32
841.642	34.7
841.815	35.18
841.987	34.69
842.16	34.21
842.332	34.34
842.505	35.15
842.677	35.79
842.85	35.2
843.022	35.93
843.194	37.19
843.367	35.96
843.539	33.63
843.712	34.42
843.884	38.16
844.056	37.76
844.229	37.77
844.401	38.31
844.573	35.03
844.745	38.39
844.918	37.96
845.09	35.36
845.262	36.42
845.434	36.96
845.606	33.86
845.779	29.72
845.951	30.18
846.123	31.54
846.295	29.62
846.467	29.26
846.639	28.69
846.811	29.34
846.983	27.15
847.155	27.16
847.327	29.01
847.499	33.02
847.671	35.05
847.843	35.92
848.015	38.08
848.187	40.47
848.359	40.85
848.531	38.88
848.703	36.37
848.875	38.35
849.047	38.76
849.218	36.28
849.39	30.79
849.562	31.77
849.734	29.9
849.905	25.41
850.077	22.2
850.249	23.91
850.421	24.82
850.592	24.14
850.764	25.76
850.936	27.11
851.107	25.84
851.279	27.54
851.451	24.85
851.622	24.52
851.794	26.36
851.965	31.24
852.137	32.51
852.308	31.24
852.48	33.69
852.651	35.15
852.823	31.91
852.994	33.5
853.166	34.18
853.337	37.38
853.509	37.63
853.68	37.95
853.851	37.05
854.023	31.97
854.194	31.12
854.365	30.89
854.537	28.32
854.708	30.86
854.879	30.13
855.05	30.77
855.222	29.28
855.393	29.34
855.564	29.82
855.735	28.45
855.906	31
856.078	30.53
856.249	26.98
856.42	24.01
856.591	25.66
856.762	28.26
856.933	27.57
857.104	23.94
857.275	25.81
857.446	26.42
857.617	28.16
857.788	32.54
857.959	35.96
858.13	38.11
858.301	39.04
858.472	34.35
858.643	33.18
858.814	32.01
858.985	32.92
859.155	32.52
859.326	29.07
859.497	27.75
859.668	24.7
859.839	23.62
860.009	22.72
860.18	24.97
860.351	27.05
860.522	25.05
860.692	24.82
860.863	26.93
861.034	26.55
861.204	28.27
861.375	26.63
861.546	23.7
861.716	26.14
861.887	32.07
862.057	31.11
862.228	31.79
862.398	32.84
862.569	32.92
862.739	31.43
862.91	33.17
863.08	32.19
863.251	33.44
863.421	34.06
863.592	30.87
863.762	28.15
863.932	26.37
864.103	24.72
864.273	26.46
864.443	28.94
864.614	29.75
864.784	26.81
864.954	27.17
865.125	27.17
865.295	30.88
865.465	31.78
865.635	28.27
865.805	24.67
865.976	25.76
866.146	26.48
866.316	24.99
866.486	25.47
866.656	24.92
866.826	26.03
866.996	24.74
867.166	25.59
867.336	25.06
867.506	24.32
867.676	30.27
867.846	29.73
868.016	28.43
868.186	26.54
868.356	26.12
868.526	26.47
868.696	24.25
868.866	24.09
869.036	17.56
869.206	18.22
869.376	20.93
869.545	19.78
869.715	17.92
869.885	18.06
870.055	17.89
870.224	17.02
870.394	12.41
870.564	12.64
870.734	15.43
870.903	23.37
871.073	24.64
871.243	20.7
871.412	22.4
871.582	26.77
871.751	26.11
871.921	25.34
872.091	25.48
872.26	26.55
872.43	29.1
872.599	25.56
872.769	19.59
872.938	17.66
873.108	17.52
873.277	15.18
873.446	11.11
873.616	11.28
873.785	15.41
873.955	12.59
874.124	14.25
874.293	16.68
874.463	19.07
874.632	21.55
874.801	19.3
874.971	23.09
875.14	18.34
875.309	18.91
875.478	21.29
875.647	18.29
875.817	23.48
875.986	23.78
876.155	22.6
876.324	23.87
876.493	23.04
876.662	23
876.831	24.91
877	26.11
877.17	28.59
877.339	26.32
877.508	26.29
877.677	25.17
877.846	28.06
878.015	28.26
878.184	30.94
878.352	26.83
878.521	30.12
878.69	28.15
878.859	32.79
879.028	31.42
879.197	34.1
879.366	36.03
879.534	37.38
879.703	37.65
879.872	36.46
880.041	32.53
880.21	33.65
880.378	33.91
880.547	34.9
880.716	33.61
880.884	32.87
881.053	32.26
881.222	32.57
881.39	32.19
881.559	32.22
881.727	33.57
881.896	34.05
882.065	35.72
882.233	35.43
882.402	35.64
882.57	36.21
882.739	36.69
882.907	36.25
883.076	35.87
883.244	35.65
883.412	34.81
883.581	33.63
883.749	33.73
883.918	32.66
884.086	31.71
884.254	30.72
884.423	30.08
884.591	30.52
884.759	31.02
884.927	30.01
885.096	30.67
885.264	30.95
885.432	31.65
885.6	32.39
885.769	32.76
885.937	33.67
886.105	34.92
886.273	34.63
886.441	33.68
886.609	32.13
886.777	34.29
886.945	32.85
887.113	33.48
887.281	33.11
887.449	30.11
887.617	28.43
887.785	27.77
887.953	25.08
888.121	25.95
888.289	25.37
888.457	27.52
888.625	29.85
888.793	31.16
888.961	33.31
889.129	33.78
889.296	35.37
889.464	36.86
889.632	39
889.8	40.85
889.967	42.04
890.135	43.74
