Data from 2938530_Reflection_3.txt Node
Date: Tue Jun 16 00:13:22 EDT 2015
User: robert
Spectrometer: USB4E03002
Autoset integration time: false
Trigger mode: 4
Integration Time (sec): 1.000000E-1
Scans to average: 10
Electric dark correction enabled: true
Nonlinearity correction enabled: false
Boxcar width: 6
Stray light correction enabled: false
XAxis mode: Wavelengths
Stop averaging: false
Number of Pixels in Spectrum: 3648
>>>>>Begin Spectral Data<<<<<
177.575	-309.37
177.794	-170.81
178.014	-40.19
178.233	-8.42
178.452	-2.44
178.672	35.71
178.891	-14.29
179.11	-51.85
179.33	5.7
179.549	-9.92
179.768	-10.52
179.987	-75.55
180.207	-93.36
180.426	-135.28
180.645	-117.82
180.864	-45.12
181.084	-60.51
181.303	-157.81
181.522	-150.22
181.741	-154.04
181.96	-115.91
182.179	-87.05
182.398	-102.34
182.618	-28.91
182.837	232.1
183.056	-1142.86
183.275	150
183.494	66.25
183.713	203.53
183.932	17.13
184.151	98.36
184.37	81.73
184.589	157.21
184.808	166.45
185.027	152.73
185.246	129.38
185.465	137.33
185.684	174.01
185.903	171.17
186.122	207.61
186.341	161.62
186.56	124.46
186.779	148.24
186.998	181.36
187.216	173.71
187.435	147.93
187.654	84.71
187.873	70.76
188.092	84.7
188.311	43.06
188.53	8.68
188.748	-20.26
188.967	-11.52
189.186	95.45
189.405	133.71
189.623	226
189.842	142.79
190.061	131.23
190.28	131.28
190.498	179.21
190.717	212.61
190.936	192.44
191.154	167.68
191.373	233.42
191.592	247.35
191.81	391.35
192.029	274.33
192.248	423.23
192.466	-2610
192.685	-1397.44
192.904	469.17
193.122	1067.27
193.341	332.52
193.559	496.51
193.778	226.28
193.996	564.52
194.215	124.45
194.433	122.03
194.652	118.41
194.87	49.41
195.089	78.17
195.307	69.45
195.526	122.38
195.744	311.49
195.963	171.76
196.181	253.23
196.399	205.26
196.618	294.84
196.836	337.34
197.055	436.36
197.273	1103.95
197.491	758.2
197.71	835.71
197.928	719.35
198.146	1161.33
198.365	-694.57
198.583	-541.38
198.801	-205.56
199.019	-51.75
199.238	-32.97
199.456	-100
199.674	-193.02
199.892	-179.65
200.111	-864.52
200.329	597.92
200.547	147.29
200.765	167.62
200.983	211.41
201.202	189.45
201.42	120.53
201.638	200
201.856	153.01
202.074	166.26
202.292	216.18
202.51	286.3
202.728	379.63
202.946	666.36
203.165	342.21
203.383	686.29
203.601	505.13
203.819	3555.56
204.037	480.75
204.255	676.53
204.473	180.08
204.691	-692.5
204.909	6.9
205.127	66.8
205.345	-20.22
205.562	290.48
205.78	88.6
205.998	92.88
206.216	72.49
206.434	85.93
206.652	43.88
206.87	100.39
207.088	56.94
207.306	4.85
207.523	-104.85
207.741	-777.14
207.959	486.71
208.177	348.48
208.395	278.1
208.612	180.11
208.83	214.14
209.048	156.14
209.266	165.1
209.483	146.09
209.701	179.44
209.919	136.8
210.136	160.19
210.354	93.37
210.572	34
210.79	11.11
211.007	19.94
211.225	40.89
211.442	-59.52
211.66	-50.27
211.878	-183.33
212.095	-157.04
212.313	-88.92
212.53	-130.18
212.748	-150.46
212.966	-115.15
213.183	-166.08
213.401	-142.57
213.618	-137.45
213.836	-125.44
214.053	-114.16
214.271	-111.6
214.488	-114.98
214.705	57.11
214.923	43.08
215.14	25.93
215.358	33.9
215.575	55.82
215.793	47.66
216.01	68.64
216.227	79.56
216.445	79.93
216.662	72.63
216.879	71.76
217.097	66.14
217.314	68.97
217.531	79.04
217.749	96.94
217.966	75.4
218.183	73.76
218.4	57.16
218.618	54.89
218.835	43.79
219.052	44.6
219.269	45.61
219.487	48.63
219.704	36.7
219.921	31.18
220.138	18.43
220.355	11.37
220.572	18.69
220.79	26.82
221.007	25.59
221.224	17.54
221.441	30.08
221.658	37.85
221.875	28.25
222.092	25.85
222.309	25.07
222.526	37.38
222.743	43.04
222.96	44.16
223.177	36.42
223.394	28.07
223.611	23.89
223.828	20.28
224.045	27.56
224.262	19.4
224.479	13.22
224.696	16.45
224.913	17.82
225.13	18.26
225.347	15.51
225.564	12.37
225.781	12.49
225.997	15.41
226.214	15.63
226.431	15.73
226.648	15.07
226.865	12.92
227.082	13.41
227.298	12.77
227.515	12.6
227.732	11.8
227.949	10.99
228.165	10.89
228.382	11.34
228.599	11.99
228.816	10.75
229.032	11.03
229.249	9.93
229.466	10.24
229.682	11.13
229.899	11.11
230.116	11.16
230.332	10.3
230.549	11.47
230.765	11.87
230.982	11.59
231.199	10.86
231.415	12.19
231.632	10.49
231.848	10.04
232.065	11.43
232.281	12.34
232.498	13.37
232.714	14.22
232.931	15.49
233.147	15.65
233.364	16.14
233.58	16.43
233.797	16.31
234.013	15.88
234.23	14.45
234.446	16.42
234.662	14.78
234.879	13.79
235.095	13.08
235.312	12.12
235.528	11.3
235.744	10.56
235.961	10.01
236.177	8.61
236.393	7.77
236.61	6.54
236.826	9.89
237.042	8.35
237.258	8.76
237.475	11.78
237.691	11.01
237.907	11.28
238.123	11.14
238.339	10.14
238.556	10.67
238.772	11.34
238.988	11.45
239.204	11.27
239.42	11.34
239.636	10.15
239.853	10.16
240.069	9.32
240.285	8.05
240.501	8.47
240.717	7.53
240.933	8.05
241.149	8.67
241.365	8.08
241.581	8.06
241.797	7.59
242.013	7.85
242.229	8.52
242.445	8.79
242.661	8.44
242.877	9.08
243.093	9.52
243.309	9.46
243.525	9.97
243.741	9.41
243.957	8.44
244.173	8.65
244.388	8.09
244.604	8.53
244.82	8.32
245.036	7.67
245.252	7.2
245.468	7.25
245.683	7.1
245.899	6.84
246.115	6.74
246.331	6.69
246.547	6.61
246.762	7.19
246.978	7.51
247.194	7.58
247.409	7.36
247.625	7.32
247.841	6.94
248.057	7.57
248.272	7.5
248.488	7.44
248.703	7.43
248.919	7.25
249.135	7.28
249.35	7.53
249.566	6.63
249.782	6.35
249.997	6.17
250.213	6.38
250.428	6.59
250.644	7.54
250.859	7.2
251.075	7.6
251.29	7.44
251.506	7.64
251.721	8.5
251.937	8.01
252.152	7.54
252.368	8.65
252.583	8.25
252.798	8.81
253.014	8.55
253.229	8.41
253.445	8.12
253.66	7.4
253.875	7.45
254.091	7.73
254.306	7.69
254.521	7.2
254.737	7.65
254.952	8.4
255.167	7.34
255.383	6.95
255.598	6.49
255.813	6.4
256.028	5.9
256.244	5.75
256.459	6.19
256.674	6.09
256.889	5.82
257.104	6.6
257.32	5.91
257.535	5.82
257.75	5.25
257.965	5.22
258.18	5.58
258.395	5.41
258.61	5.18
258.826	5.31
259.041	5.24
259.256	5.15
259.471	5.37
259.686	5.48
259.901	5.22
260.116	5.49
260.331	5.45
260.546	5.39
260.761	5.37
260.976	5.38
261.191	5.77
261.406	5.8
261.621	5.82
261.836	5.98
262.05	5.83
262.265	5.49
262.48	5.2
262.695	4.99
262.91	5.15
263.125	5.88
263.34	6
263.555	6.35
263.769	5.65
263.984	6.56
264.199	7.06
264.414	6.55
264.629	6.64
264.843	7.05
265.058	6.47
265.273	6.55
265.488	6.24
265.702	6.69
265.917	6.76
266.132	7.27
266.346	7
266.561	6.85
266.776	6.24
266.99	6.52
267.205	6.59
267.42	6.12
267.634	5.37
267.849	5.82
268.063	6.26
268.278	6.19
268.492	6.02
268.707	5.23
268.922	4.42
269.136	4.21
269.351	4.32
269.565	3.8
269.78	3.67
269.994	4.17
270.209	4.52
270.423	4.76
270.637	4.45
270.852	4.39
271.066	4.43
271.281	4.31
271.495	4.69
271.709	5.06
271.924	5.7
272.138	6.18
272.353	6.98
272.567	6.92
272.781	6.72
272.996	7.17
273.21	7.13
273.424	7.84
273.638	7.86
273.853	8.29
274.067	8.53
274.281	8.65
274.495	9.49
274.71	8.33
274.924	7.62
275.138	7.41
275.352	7.19
275.566	7.61
275.781	7.17
275.995	7.5
276.209	7.05
276.423	6.72
276.637	6.18
276.851	5.07
277.065	5.18
277.279	4.41
277.493	4.95
277.707	5.54
277.921	4.76
278.135	4.93
278.349	4.25
278.563	4.47
278.777	4.45
278.991	4.52
279.205	4.4
279.419	4.41
279.633	5.02
279.847	5.04
280.061	4.93
280.275	5.6
280.489	5.25
280.703	5.52
280.917	5.41
281.131	5.85
281.344	5.36
281.558	5.27
281.772	5.2
281.986	5.41
282.2	5.32
282.414	5.26
282.627	4.92
282.841	4.71
283.055	4.11
283.269	4.17
283.482	4.07
283.696	4.16
283.91	3.7
284.123	3.94
284.337	4.21
284.551	4.55
284.764	4.76
284.978	5.12
285.192	5.54
285.405	5.57
285.619	5.65
285.833	5.74
286.046	5.37
286.26	5.67
286.473	5.56
286.687	5.62
286.9	5.76
287.114	6.04
287.327	5.87
287.541	5.76
287.754	5.75
287.968	5.08
288.181	5.14
288.395	5.4
288.608	5.34
288.822	5.79
289.035	6.22
289.248	6.47
289.462	6.8
289.675	7.08
289.889	6.86
290.102	6.66
290.315	6.54
290.529	6.55
290.742	6.88
290.955	7.11
291.169	7.7
291.382	7.84
291.595	8.2
291.808	7.83
292.022	7.8
292.235	7.71
292.448	7.32
292.661	7.58
292.875	7.9
293.088	7.93
293.301	7.65
293.514	7.72
293.727	7.48
293.94	7.19
294.153	7.56
294.367	7.25
294.58	7.19
294.793	7.21
295.006	7.25
295.219	7.29
295.432	7.05
295.645	7.02
295.858	7.09
296.071	7.46
296.284	7.59
296.497	7.93
296.71	8.11
296.923	7.85
297.136	8.04
297.349	8.29
297.562	8.38
297.775	8.79
297.988	8.87
298.201	8.66
298.414	8.96
298.626	9.07
298.839	9.12
299.052	8.76
299.265	8.48
299.478	8.58
299.691	8.68
299.903	8.67
300.116	8.92
300.329	8.71
300.542	8.44
300.755	8.7
300.967	8.95
301.18	8.99
301.393	9.02
301.605	8.78
301.818	9.24
302.031	9.11
302.243	8.66
302.456	8.71
302.669	9.34
302.881	9.56
303.094	9.67
303.307	9.9
303.519	9.88
303.732	9.97
303.944	9.62
304.157	10.05
304.37	9.96
304.582	10.35
304.795	10.74
305.007	10.87
305.22	11.3
305.432	10.81
305.645	10.31
305.857	10.44
306.069	10.22
306.282	10.24
306.494	10.47
306.707	10.56
306.919	10.2
307.132	10.22
307.344	9.83
307.556	10.15
307.769	10.22
307.981	9.73
308.193	9.89
308.406	9.98
308.618	9.86
308.83	9.98
309.043	10.02
309.255	10.2
309.467	10.24
309.679	10.54
309.892	10.72
310.104	10.73
310.316	10.52
310.528	10.65
310.74	10.99
310.953	10.77
311.165	10.73
311.377	11.02
311.589	11.31
311.801	11.77
312.013	11.71
312.225	11.95
312.437	12.07
312.649	12.09
312.862	12.16
313.074	12.32
313.286	12.26
313.498	12.34
313.71	12.48
313.922	12.76
314.134	13.02
314.346	12.67
314.558	12.2
314.77	12.03
314.982	12.11
315.193	12.01
315.405	12.22
315.617	12.67
315.829	12.82
316.041	12.81
316.253	13.1
316.465	13.44
316.677	13.44
316.888	13.49
317.1	13.48
317.312	14.15
317.524	14.34
317.736	14.64
317.947	14.4
318.159	14.19
318.371	13.92
318.583	13.66
318.794	14.02
319.006	13.9
319.218	13.84
319.43	14.1
319.641	13.8
319.853	14.7
320.064	13.81
320.276	13.74
320.488	13.57
320.699	13.68
320.911	13.98
321.123	14.47
321.334	14.91
321.546	15.08
321.757	15.45
321.969	15.88
322.18	15.81
322.392	16.38
322.603	16.11
322.815	16.63
323.026	16.83
323.238	16.82
323.449	17.44
323.661	18.19
323.872	18.16
324.083	18.67
324.295	18.59
324.506	18.64
324.718	18.76
324.929	19.14
325.14	19.14
325.352	19.28
325.563	19.64
325.774	20.21
325.986	20.33
326.197	20.32
326.408	20.19
326.62	20.22
326.831	20.13
327.042	20.39
327.253	20.53
327.464	20.81
327.676	21.08
327.887	21.58
328.098	21.99
328.309	22.43
328.52	22.91
328.732	23.65
328.943	24.27
329.154	24.55
329.365	25.05
329.576	25.45
329.787	26.77
329.998	27.31
330.209	27.76
330.42	27.87
330.631	28
330.842	28.35
331.053	28.3
331.264	28.33
331.475	28.6
331.686	29.18
331.897	29.49
332.108	29.68
332.319	30.03
332.53	29.55
332.741	29.46
332.952	29.6
333.163	29.76
333.374	30
333.585	30.27
333.795	30.57
334.006	30.59
334.217	30.71
334.428	30.47
334.639	30.7
334.849	30.93
335.06	30.78
335.271	31.02
335.482	31.16
335.692	30.92
335.903	30.92
336.114	31.26
336.325	31.34
336.535	31.35
336.746	31.75
336.957	31.62
337.167	31.55
337.378	31.71
337.589	31.72
337.799	31.86
338.01	31.93
338.22	31.88
338.431	32.31
338.642	32.38
338.852	32.03
339.063	31.77
339.273	32.09
339.484	32.09
339.694	32.06
339.905	32.08
340.115	32.02
340.326	32.15
340.536	32.3
340.746	32.28
340.957	32.45
341.167	32.23
341.378	32.37
341.588	32.54
341.799	32.78
342.009	32.27
342.219	31.82
342.43	31.76
342.64	31.65
342.85	31.66
343.061	31.62
343.271	31.66
343.481	31.53
343.691	31.73
343.902	31.73
344.112	31.51
344.322	31.45
344.532	31.06
344.743	31.41
344.953	31.34
345.163	31.7
345.373	32.07
345.583	32.48
345.793	32.27
346.004	32.06
346.214	31.96
346.424	31.84
346.634	31.92
346.844	31.89
347.054	31.85
347.264	32.2
347.474	32.06
347.684	32.32
347.894	32.43
348.104	32.2
348.314	31.8
348.524	31.87
348.734	31.77
348.944	32.01
349.154	31.8
349.364	31.7
349.574	31.81
349.784	31.92
349.994	31.83
350.204	31.83
350.413	31.87
350.623	31.48
350.833	31.64
351.043	31.51
351.253	31.71
351.463	32
351.672	31.76
351.882	31.81
352.092	31.94
352.302	31.99
352.511	31.99
352.721	31.76
352.931	31.76
353.141	31.76
353.35	31.77
353.56	31.68
353.77	31.75
353.979	31.42
354.189	31.39
354.399	31.59
354.608	31.61
354.818	31.56
355.027	31.4
355.237	31.35
355.447	31.45
355.656	31.54
355.866	31.45
356.075	31.49
356.285	31.35
356.494	31.13
356.704	31.07
356.913	30.93
357.123	30.78
357.332	30.76
357.542	30.67
357.751	30.85
357.96	30.74
358.17	30.78
358.379	30.69
358.589	30.53
358.798	30.59
359.007	30.53
359.217	30.84
359.426	31.11
359.635	31.16
359.845	31.06
360.054	31.15
360.263	31.11
360.472	31.17
360.682	31.15
360.891	31.02
361.1	30.98
361.309	30.88
361.519	30.52
361.728	30.71
361.937	30.3
362.146	30.02
362.355	29.84
362.564	29.81
362.774	29.61
362.983	29.63
363.192	29.48
363.401	29.5
363.61	29.59
363.819	29.52
364.028	29.65
364.237	30
364.446	29.66
364.655	29.83
364.864	30.11
365.073	30.1
365.282	30.01
365.491	29.88
365.7	29.61
365.909	29.48
366.118	29.33
366.327	29.15
366.536	29.09
366.745	29.2
366.954	29.09
367.162	28.94
367.371	28.99
367.58	28.73
367.789	28.59
367.998	28.67
368.207	28.65
368.415	28.6
368.624	28.33
368.833	28.29
369.042	28.42
369.25	28.56
369.459	28.35
369.668	28.09
369.877	27.99
370.085	27.89
370.294	27.84
370.503	27.89
370.711	27.61
370.92	27.5
371.129	27.58
371.337	27.57
371.546	27.54
371.754	27.3
371.963	27.2
372.171	27.02
372.38	27.22
372.589	27.18
372.797	27.07
373.006	26.85
373.214	26.58
373.423	26.51
373.631	26.2
373.84	26.2
374.048	26.14
374.256	26.05
374.465	25.95
374.673	25.91
374.882	25.92
375.09	25.65
375.298	25.7
375.507	25.5
375.715	25.33
375.923	25.37
376.132	25.34
376.34	25.39
376.548	25.14
376.757	25.06
376.965	24.88
377.173	24.84
377.381	24.6
377.59	24.4
377.798	24.11
378.006	23.97
378.214	23.88
378.423	23.94
378.631	23.54
378.839	23.56
379.047	23.49
379.255	23.48
379.463	23.38
379.671	23.64
379.879	23.61
380.088	23.66
380.296	23.82
380.504	23.97
380.712	23.71
380.92	23.54
381.128	23.41
381.336	23.68
381.544	23.64
381.752	23.66
381.96	23.52
382.168	23.42
382.376	23.17
382.584	23.17
382.791	23.01
382.999	22.91
383.207	22.77
383.415	22.89
383.623	22.9
383.831	22.9
384.039	22.83
384.247	22.68
384.454	22.5
384.662	22.54
384.87	22.56
385.078	22.35
385.285	22.11
385.493	21.91
385.701	21.79
385.909	21.81
386.116	21.73
386.324	21.66
386.532	21.37
386.739	21.25
386.947	21.32
387.155	21.38
387.362	21.36
387.57	21.47
387.778	21.61
387.985	21.62
388.193	21.8
388.4	21.98
388.608	21.92
388.816	22.04
389.023	22.26
389.231	22.52
389.438	22.54
389.646	22.39
389.853	22.44
390.061	22.43
390.268	22.36
390.475	22.28
390.683	22.18
390.89	22.05
391.098	21.95
391.305	21.97
391.512	21.8
391.72	21.61
391.927	21.59
392.135	21.53
392.342	21.52
392.549	21.45
392.756	21.37
392.964	21.25
393.171	21.2
393.378	21.39
393.586	21.23
393.793	20.94
394	20.83
394.207	20.84
394.414	20.81
394.622	20.61
394.829	20.43
395.036	20.31
395.243	20.26
395.45	20.4
395.657	20.39
395.864	20.34
396.072	19.99
396.279	20.14
396.486	20.25
396.693	20.42
396.9	20.34
397.107	20.38
397.314	20.48
397.521	20.56
397.728	20.54
397.935	20.44
398.142	20.17
398.349	20.11
398.556	20.04
398.763	20.37
398.97	20.29
399.177	20.19
399.383	19.97
399.59	19.92
399.797	19.84
400.004	19.87
400.211	19.98
400.418	19.96
400.625	20.12
400.831	20.07
401.038	20.04
401.245	19.96
401.452	19.74
401.658	19.81
401.865	19.71
402.072	19.75
402.279	19.77
402.485	19.75
402.692	19.78
402.899	19.54
403.105	19.49
403.312	19.43
403.519	19.44
403.725	19.37
403.932	19.47
404.138	19.44
404.345	19.35
404.552	19.51
404.758	19.49
404.965	19.34
405.171	19.38
405.378	19.15
405.584	19.14
405.791	19.21
405.997	19.24
406.204	19.16
406.41	18.94
406.617	18.87
406.823	18.91
407.029	18.91
407.236	18.8
407.442	18.93
407.649	18.87
407.855	18.79
408.061	18.79
408.268	18.87
408.474	18.78
408.68	18.59
408.887	18.68
409.093	18.9
409.299	18.86
409.505	18.77
409.712	18.68
409.918	18.79
410.124	18.68
410.33	18.63
410.537	18.56
410.743	18.59
410.949	18.52
411.155	18.57
411.361	18.51
411.567	18.41
411.773	18.44
411.98	18.56
412.186	18.6
412.392	18.6
412.598	18.34
412.804	18.19
413.01	18.33
413.216	18.38
413.422	18.32
413.628	18.24
413.834	18.13
414.04	18.11
414.246	18.14
414.452	17.96
414.658	17.75
414.864	17.56
415.07	17.5
415.275	17.49
415.481	17.5
415.687	17.37
415.893	17.3
416.099	17.26
416.305	17.32
416.511	17.34
416.716	17.31
416.922	17.24
417.128	17.25
417.334	17.4
417.539	17.42
417.745	17.38
417.951	17.39
418.157	17.31
418.362	17.26
418.568	17.14
418.774	17.12
418.979	17.07
419.185	17.05
419.391	17.02
419.596	17.02
419.802	17.04
420.008	16.87
420.213	16.84
420.419	16.81
420.624	16.77
420.83	16.76
421.035	16.65
421.241	16.67
421.446	16.59
421.652	16.55
421.857	16.54
422.063	16.47
422.268	16.37
422.474	16.21
422.679	16.17
422.885	16.07
423.09	15.99
423.295	15.99
423.501	15.95
423.706	16.08
423.911	16.05
424.117	16.1
424.322	16
424.527	15.86
424.733	15.85
424.938	15.85
425.143	15.85
425.349	15.84
425.554	15.89
425.759	15.97
425.964	15.95
426.169	15.95
426.375	15.91
426.58	15.9
426.785	15.77
426.99	15.81
427.195	15.76
427.4	15.78
427.605	15.68
427.811	15.74
428.016	15.68
428.221	15.68
428.426	15.58
428.631	15.62
428.836	15.6
429.041	15.5
429.246	15.48
429.451	15.53
429.656	15.47
429.861	15.58
430.066	15.56
430.271	15.7
430.476	15.77
430.681	15.78
430.886	15.84
431.09	15.87
431.295	15.84
431.5	15.79
431.705	15.82
431.91	15.86
432.115	15.92
432.32	15.97
432.524	15.92
432.729	15.83
432.934	15.83
433.139	15.71
433.343	15.73
433.548	15.67
433.753	15.69
433.958	15.58
434.162	15.6
434.367	15.58
434.572	15.54
434.776	15.5
434.981	15.48
435.186	15.52
435.39	15.53
435.595	15.37
435.799	15.42
436.004	15.46
436.209	15.38
436.413	15.38
436.618	15.51
436.822	15.48
437.027	15.46
437.231	15.43
437.436	15.36
437.64	15.37
437.845	15.37
438.049	15.46
438.253	15.53
438.458	15.51
438.662	15.45
438.867	15.47
439.071	15.32
439.275	15.25
439.48	15.28
439.684	15.23
439.888	15.26
440.093	15.26
440.297	15.26
440.501	15.22
440.706	15.16
440.91	15.07
441.114	15.04
441.318	15.04
441.523	15.07
441.727	15.18
441.931	15.17
442.135	15.1
442.339	15.18
442.543	15.15
442.748	15.17
442.952	15.18
443.156	15.23
443.36	15.21
443.564	15.25
443.768	15.29
443.972	15.26
444.176	15.23
444.38	15.14
444.584	15.13
444.788	15.14
444.992	15.11
445.196	15.08
445.4	15.04
445.604	14.94
445.808	14.82
446.012	14.81
446.216	14.8
446.42	14.79
446.624	14.75
446.828	14.72
447.032	14.71
447.235	14.69
447.439	14.67
447.643	14.67
447.847	14.67
448.051	14.69
448.254	14.77
448.458	14.84
448.662	14.84
448.866	14.77
449.069	14.67
449.273	14.68
449.477	14.62
449.681	14.65
449.884	14.69
450.088	14.72
450.292	14.61
450.495	14.62
450.699	14.5
450.902	14.38
451.106	14.33
451.31	14.28
451.513	14.37
451.717	14.37
451.92	14.32
452.124	14.51
452.327	14.43
452.531	14.27
452.734	14.21
452.938	14.19
453.141	14.11
453.345	14.04
453.548	14.07
453.752	14.13
453.955	14.14
454.158	14.06
454.362	14.09
454.565	14.16
454.769	13.92
454.972	14
455.175	14.07
455.379	14.03
455.582	14.1
455.785	14.06
455.988	14.14
456.192	14.14
456.395	14.12
456.598	14.13
456.801	14.22
457.005	14.23
457.208	14.26
457.411	14.38
457.614	14.42
457.817	14.44
458.021	14.48
458.224	14.48
458.427	14.46
458.63	14.5
458.833	14.57
459.036	14.59
459.239	14.53
459.442	14.48
459.645	14.45
459.848	14.46
460.051	14.42
460.254	14.44
460.457	14.46
460.66	14.53
460.863	14.54
461.066	14.69
461.269	14.62
461.472	14.57
461.675	14.56
461.878	14.69
462.081	14.65
462.284	14.66
462.486	14.59
462.689	14.57
462.892	14.56
463.095	14.55
463.298	14.5
463.5	14.49
463.703	14.53
463.906	14.52
464.109	14.62
464.311	14.6
464.514	14.66
464.717	14.77
464.92	14.79
465.122	14.84
465.325	14.95
465.528	15
465.73	15
465.933	15.07
466.135	15.09
466.338	15.02
466.541	15.08
466.743	15.08
466.946	15.18
467.148	15.18
467.351	15.23
467.553	15.27
467.756	15.21
467.958	15.29
468.161	15.24
468.363	15.25
468.566	15.15
468.768	15.17
468.971	15.22
469.173	15.21
469.375	15.24
469.578	15.2
469.78	15.3
469.983	15.29
470.185	15.39
470.387	15.5
470.59	15.41
470.792	15.48
470.994	15.51
471.196	15.6
471.399	15.63
471.601	15.63
471.803	15.74
472.005	15.69
472.208	15.77
472.41	15.77
472.612	15.8
472.814	15.72
473.016	15.72
473.218	15.78
473.421	15.75
473.623	15.83
473.825	15.84
474.027	15.8
474.229	15.87
474.431	15.76
474.633	15.84
474.835	15.82
475.037	15.77
475.239	15.74
475.441	15.78
475.643	15.7
475.845	15.69
476.047	15.77
476.249	15.63
476.451	15.6
476.653	15.53
476.855	15.44
477.057	15.51
477.258	15.45
477.46	15.38
477.662	15.29
477.864	15.26
478.066	15.23
478.268	15.31
478.469	15.33
478.671	15.23
478.873	15.3
479.075	15.28
479.276	15.33
479.478	15.32
479.68	15.29
479.882	15.34
480.083	15.38
480.285	15.48
480.487	15.49
480.688	15.54
480.89	15.55
481.091	15.5
481.293	15.44
481.495	15.42
481.696	15.41
481.898	15.41
482.099	15.38
482.301	15.33
482.502	15.26
482.704	15.21
482.905	15.13
483.107	15.07
483.308	14.99
483.51	14.92
483.711	14.88
483.913	14.87
484.114	14.83
484.315	14.83
484.517	14.78
484.718	14.8
484.92	14.84
485.121	14.88
485.322	14.89
485.524	14.95
485.725	14.96
485.926	14.99
486.127	15
486.329	14.99
486.53	14.99
486.731	14.99
486.932	14.92
487.134	14.92
487.335	14.89
487.536	14.88
487.737	14.86
487.938	14.91
488.139	14.94
488.341	15.02
488.542	15.11
488.743	15.19
488.944	15.28
489.145	15.34
489.346	15.43
489.547	15.51
489.748	15.59
489.949	15.63
490.15	15.61
490.351	15.6
490.552	15.51
490.753	15.48
490.954	15.46
491.155	15.42
491.356	15.36
491.557	15.37
491.758	15.35
491.959	15.34
492.159	15.34
492.36	15.28
492.561	15.31
492.762	15.38
492.963	15.48
493.164	15.63
493.364	15.73
493.565	15.86
493.766	15.93
493.967	16.04
494.167	16.14
494.368	16.18
494.569	16.18
494.769	16.26
494.97	16.43
495.171	16.5
495.371	16.53
495.572	16.59
495.773	16.65
495.973	16.65
496.174	16.68
496.375	16.74
496.575	16.79
496.776	16.8
496.976	16.91
497.177	17.01
497.377	16.99
497.578	17
497.778	17.07
497.979	17.1
498.179	17.15
498.38	17.25
498.58	17.31
498.78	17.31
498.981	17.44
499.181	17.51
499.382	17.48
499.582	17.54
499.782	17.59
499.983	17.72
500.183	17.77
500.383	17.81
500.584	18.04
500.784	18.16
500.984	18.19
501.184	18.35
501.385	18.43
501.585	18.45
501.785	18.54
501.985	18.65
502.185	18.65
502.386	18.75
502.586	18.91
502.786	19.03
502.986	19.18
503.186	19.13
503.386	19.2
503.586	19.27
503.786	19.28
503.987	19.42
504.187	19.54
504.387	19.66
504.587	19.81
504.787	19.89
504.987	20.02
505.187	20.06
505.387	20.11
505.587	20.28
505.786	20.48
505.986	20.51
506.186	20.67
506.386	20.87
506.586	21
506.786	21.15
506.986	21.27
507.186	21.37
507.386	21.56
507.585	21.66
507.785	21.82
507.985	22.03
508.185	22.07
508.384	22.12
508.584	22.27
508.784	22.37
508.984	22.47
509.183	22.57
509.383	22.69
509.583	22.81
509.782	22.96
509.982	23.18
510.182	23.37
510.381	23.42
510.581	23.55
510.781	23.6
510.98	23.78
511.18	23.95
511.379	24.1
511.579	24.15
511.778	24.18
511.978	24.2
512.177	24.34
512.377	24.42
512.576	24.44
512.776	24.61
512.975	24.82
513.175	24.94
513.374	25.11
513.573	25.31
513.773	25.48
513.972	25.69
514.172	26
514.371	26.34
514.57	26.6
514.77	26.85
514.969	27.21
515.168	27.41
515.367	27.5
515.567	27.68
515.766	27.84
515.965	28.12
516.164	28.22
516.364	28.38
516.563	28.48
516.762	28.53
516.961	28.61
517.16	28.76
517.359	28.74
517.559	28.75
517.758	28.88
517.957	29
518.156	29.09
518.355	29.23
518.554	29.29
518.753	29.4
518.952	29.49
519.151	29.67
519.35	29.85
519.549	30.02
519.748	30.16
519.947	30.41
520.146	30.58
520.345	30.72
520.544	30.85
520.743	31.1
520.942	31.33
521.141	31.6
521.339	31.85
521.538	31.99
521.737	32.22
521.936	32.45
522.135	32.79
522.333	33.06
522.532	33.35
522.731	33.68
522.93	33.94
523.129	34.22
523.327	34.41
523.526	34.6
523.725	34.76
523.923	34.93
524.122	35.15
524.321	35.24
524.519	35.34
524.718	35.45
524.917	35.67
525.115	35.89
525.314	36.1
525.512	36.38
525.711	36.63
525.909	36.84
526.108	37.03
526.306	37.23
526.505	37.33
526.703	37.43
526.902	37.51
527.1	37.58
527.299	37.55
527.497	37.52
527.696	37.47
527.894	37.38
528.092	37.28
528.291	37.23
528.489	37.2
528.688	37.16
528.886	37.11
529.084	37.16
529.283	37.23
529.481	37.33
529.679	37.5
529.877	37.81
530.076	38.11
530.274	38.46
530.472	38.9
530.67	39.28
530.869	39.58
531.067	39.81
531.265	39.97
531.463	40.17
531.661	40.32
531.859	40.36
532.057	40.42
532.255	40.38
532.454	40.36
532.652	40.33
532.85	40.31
533.048	40.3
533.246	40.3
533.444	40.36
533.642	40.43
533.84	40.7
534.038	40.85
534.236	41
534.434	41.25
534.632	41.52
534.83	41.8
535.027	41.98
535.225	42.07
535.423	42.15
535.621	42.2
535.819	42.32
536.017	42.37
536.215	42.35
536.412	42.25
536.61	42.26
536.808	42.32
537.006	42.43
537.203	42.53
537.401	42.71
537.599	42.99
537.797	43.38
537.994	43.8
538.192	44.14
538.39	44.51
538.587	44.79
538.785	45.16
538.983	45.43
539.18	45.57
539.378	45.66
539.575	45.72
539.773	45.74
539.97	45.72
540.168	45.62
540.366	45.54
540.563	45.36
540.761	45.32
540.958	45.16
541.155	45.11
541.353	44.97
541.55	44.8
541.748	44.77
541.945	44.75
542.143	44.77
542.34	44.84
542.537	44.9
542.735	45.04
542.932	45.17
543.129	45.38
543.327	45.48
543.524	45.66
543.721	45.77
543.919	46.04
544.116	46.36
544.313	46.5
544.51	46.66
544.708	46.7
544.905	46.72
545.102	46.79
545.299	46.87
545.496	46.91
545.693	46.92
545.891	46.99
546.088	47.04
546.285	46.98
546.482	46.97
546.679	46.88
546.876	46.83
547.073	46.79
547.27	46.73
547.467	46.64
547.664	46.66
547.861	46.64
548.058	46.7
548.255	46.82
548.452	46.91
548.649	46.98
548.846	47.21
549.043	47.2
549.24	47.34
549.437	47.51
549.633	47.7
549.83	47.87
550.027	48.15
550.224	48.25
550.421	48.28
550.618	48.42
550.814	48.44
551.011	48.49
551.208	48.59
551.405	48.7
551.601	48.83
551.798	48.82
551.995	48.9
552.191	48.84
552.388	48.8
552.585	48.74
552.781	48.79
552.978	48.88
553.175	48.88
553.371	49.01
553.568	48.96
553.764	48.99
553.961	48.99
554.157	48.99
554.354	49.16
554.55	49.05
554.747	49.2
554.943	49.31
555.14	49.33
555.336	49.36
555.533	49.57
555.729	49.59
555.926	49.57
556.122	49.55
556.318	49.57
556.515	49.62
556.711	49.73
556.907	49.76
557.104	49.81
557.3	49.72
557.496	49.84
557.693	49.86
557.889	49.98
558.085	49.83
558.281	49.89
558.478	49.95
558.674	50.05
558.87	50.16
559.066	50.1
559.262	50.21
559.459	50.2
559.655	50.36
559.851	50.54
560.047	50.62
560.243	50.7
560.439	50.55
560.635	50.66
560.831	50.66
561.027	50.67
561.223	50.67
561.419	50.68
561.615	50.82
561.811	50.81
562.007	50.85
562.203	50.79
562.399	50.76
562.595	50.9
562.791	51.04
562.987	51.23
563.183	51.37
563.379	51.6
563.575	51.89
563.771	52.08
563.966	52.11
564.162	52.2
564.358	52.12
564.554	52.12
564.75	52.3
564.945	52.38
565.141	52.26
565.337	52.15
565.533	52.11
565.728	52.07
565.924	51.93
566.12	51.75
566.315	51.67
566.511	51.77
566.707	51.75
566.902	51.75
567.098	51.75
567.293	51.7
567.489	51.75
567.684	51.88
567.88	52.06
568.076	52.1
568.271	52.05
568.467	52.23
568.662	52.38
568.858	52.45
569.053	52.46
569.248	52.47
569.444	52.61
569.639	52.78
569.835	52.76
570.03	52.8
570.225	52.8
570.421	52.79
570.616	52.87
570.812	52.94
571.007	52.8
571.202	52.79
571.397	52.75
571.593	52.67
571.788	52.65
571.983	52.66
572.178	52.67
572.374	52.78
572.569	52.77
572.764	52.64
572.959	52.67
573.154	52.68
573.35	52.65
573.545	52.67
573.74	52.55
573.935	52.53
574.13	52.61
574.325	52.54
574.52	52.5
574.715	52.48
574.91	52.39
575.105	52.36
575.3	52.4
575.495	52.37
575.69	52.25
575.885	52.15
576.08	52.19
576.275	52.2
576.47	52.29
576.665	52.27
576.86	52.28
577.055	52.3
577.25	52.32
577.444	52.32
577.639	52.23
577.834	52.28
578.029	52.19
578.224	52.36
578.418	52.45
578.613	52.39
578.808	52.39
579.003	52.42
579.197	52.37
579.392	52.56
579.587	52.62
579.781	52.58
579.976	52.69
580.171	52.73
580.365	52.86
580.56	52.97
580.755	52.86
580.949	53.01
581.144	53.1
581.338	53.29
581.533	53.44
581.727	53.45
581.922	53.43
582.116	53.29
582.311	53.26
582.505	53.25
582.7	53.32
582.894	53.19
583.089	53.15
583.283	53.36
583.478	53.37
583.672	53.32
583.866	53.27
584.061	53.17
584.255	53.16
584.449	53.17
584.644	53.41
584.838	53.41
585.032	53.46
585.226	53.5
585.421	53.42
585.615	53.44
585.809	53.45
586.003	53.48
586.198	53.79
586.392	53.76
586.586	53.87
586.78	53.99
586.974	54.14
587.168	54.05
587.363	54.14
587.557	54.22
587.751	54.24
587.945	54.45
588.139	54.55
588.333	54.67
588.527	54.65
588.721	54.55
588.915	54.71
589.109	54.63
589.303	54.63
589.497	54.51
589.691	54.55
589.885	54.57
590.079	54.61
590.273	54.71
590.466	54.54
590.66	54.61
590.854	54.65
591.048	54.69
591.242	54.57
591.436	54.7
591.629	54.86
591.823	54.96
592.017	55.03
592.211	55.01
592.404	54.94
592.598	54.85
592.792	54.82
592.986	55.05
593.179	55.02
593.373	54.98
593.567	55.14
593.76	55.35
593.954	55.36
594.147	55.33
594.341	55.51
594.535	55.55
594.728	55.7
594.922	55.79
595.115	55.76
595.309	55.88
595.502	55.84
595.696	55.82
595.889	55.68
596.083	55.55
596.276	55.35
596.47	55.25
596.663	55.2
596.856	54.92
597.05	54.95
597.243	54.85
597.437	54.86
597.63	55.03
597.823	54.86
598.017	54.8
598.21	54.92
598.403	54.97
598.596	54.98
598.79	55.29
598.983	55.39
599.176	55.4
599.369	55.55
599.563	55.63
599.756	55.6
599.949	55.67
600.142	55.72
600.335	55.9
600.528	56.17
600.722	56.28
600.915	56.42
601.108	56.48
601.301	56.41
601.494	56.59
601.687	56.76
601.88	56.95
602.073	56.96
602.266	57.02
602.459	57.02
602.652	56.95
602.845	57.06
603.038	56.98
603.231	56.82
603.424	56.72
603.617	56.65
603.809	56.47
604.002	56.35
604.195	56.18
604.388	55.9
604.581	55.86
604.774	55.68
604.966	55.66
605.159	55.52
605.352	55.3
605.545	55.15
605.737	55.23
605.93	55.22
606.123	55.38
606.316	55.72
606.508	55.76
606.701	55.89
606.894	56.18
607.086	56.2
607.279	56.44
607.471	56.58
607.664	56.7
607.857	56.72
608.049	56.77
608.242	56.72
608.434	56.84
608.627	56.75
608.819	56.55
609.012	56.42
609.204	56.28
609.397	56.13
609.589	56.14
609.782	56.14
609.974	56.08
610.166	56.19
610.359	56.19
610.551	56.23
610.743	56.26
610.936	56.15
611.128	56.21
611.32	56.27
611.513	56.29
611.705	56.43
611.897	56.48
612.09	56.32
612.282	56.27
612.474	56.17
612.666	56.02
612.858	56.14
613.051	56.06
613.243	56.04
613.435	56.16
613.627	56.19
613.819	56.55
614.011	56.54
614.203	56.51
614.395	56.45
614.588	56.39
614.78	56.51
614.972	56.48
615.164	56.44
615.356	56.26
615.548	56.35
615.74	56.23
615.932	56.07
616.124	56.09
616.315	55.88
616.507	55.95
616.699	55.89
616.891	55.95
617.083	56.05
617.275	55.89
617.467	56.08
617.659	56.2
617.85	56.3
618.042	56.3
618.234	56.44
618.426	56.72
618.618	56.65
618.809	56.45
619.001	56.72
619.193	57.03
619.384	56.99
619.576	57.18
619.768	57.29
619.959	57.17
620.151	57.01
620.343	57.04
620.534	57.05
620.726	57.15
620.917	56.8
621.109	56.99
621.301	57.03
621.492	56.75
621.684	56.54
621.875	56.6
622.067	56.44
622.258	56.49
622.45	56.47
622.641	56.47
622.832	56.36
623.024	56.31
623.215	56.29
623.407	56.56
623.598	56.41
623.789	56.63
623.981	56.76
624.172	56.84
624.363	56.89
624.555	56.92
624.746	57.01
624.937	57
625.129	56.94
625.32	57.13
625.511	57.19
625.702	57.1
625.893	56.96
626.085	56.97
626.276	56.9
626.467	56.89
626.658	56.76
626.849	56.67
627.04	56.84
627.231	56.79
627.422	56.8
627.614	56.91
627.805	56.75
627.996	56.62
628.187	56.67
628.378	56.79
628.569	56.89
628.76	56.82
628.951	56.85
629.142	56.99
629.332	57.12
629.523	56.79
629.714	56.91
629.905	56.83
630.096	56.97
630.287	57.05
630.478	57.28
630.669	57.35
630.859	57.44
631.05	57.3
631.241	57.28
631.432	57.3
631.623	57.26
631.813	57.31
632.004	57.53
632.195	57.43
632.385	57.63
632.576	57.69
632.767	57.58
632.957	57.6
633.148	57.51
633.339	57.34
633.529	57.3
633.72	57.38
633.91	57.32
634.101	57.27
634.292	57.2
634.482	57.2
634.673	57.34
634.863	57.27
635.054	57.14
635.244	57.15
635.435	57.11
635.625	57.1
635.815	57.23
636.006	57.26
636.196	57.25
636.387	57.38
636.577	57.33
636.767	57.29
636.958	57.24
637.148	56.85
637.338	56.71
637.529	56.69
637.719	56.73
637.909	56.56
638.099	56.61
638.29	56.53
638.48	56.49
638.67	56.7
638.86	56.45
639.05	56.51
639.241	56.68
639.431	56.57
639.621	56.79
639.811	56.87
640.001	56.79
640.191	56.69
640.381	56.78
640.571	56.82
640.761	56.81
640.951	56.96
641.141	56.88
641.331	57.01
641.521	57.18
641.711	56.93
641.901	57.11
642.091	56.99
642.281	57.13
642.471	57.23
642.661	57.48
642.851	57.57
643.041	57.34
643.231	57.52
643.42	57.51
643.61	57.43
643.8	57.59
643.99	57.41
644.18	57.64
644.369	57.69
644.559	57.71
644.749	57.47
644.939	57.42
645.128	57.33
645.318	57.26
645.508	57.59
645.697	57.45
645.887	57.57
646.076	57.55
646.266	57.36
646.456	57.47
646.645	57.49
646.835	57.26
647.024	57.14
647.214	57.4
647.403	57.72
647.593	57.86
647.782	57.94
647.972	57.86
648.161	57.82
648.351	57.66
648.54	57.78
648.73	57.63
648.919	57.75
649.108	57.55
649.298	57.95
649.487	58.14
649.677	58.01
649.866	57.75
650.055	57.65
650.244	57.64
650.434	57.8
650.623	57.96
650.812	57.98
651.002	57.94
651.191	58.1
651.38	58.08
651.569	58.16
651.758	57.87
651.947	57.8
652.137	57.79
652.326	57.72
652.515	57.83
652.704	57.96
652.893	57.77
653.082	57.67
653.271	57.62
653.46	57.5
653.649	57.45
653.838	57.34
654.027	57.43
654.216	57.56
654.405	57.7
654.594	57.8
654.783	57.98
654.972	58.07
655.161	57.77
655.35	57.79
655.539	57.98
655.728	58.24
655.916	58.37
656.105	58.55
656.294	58.63
656.483	58.53
656.672	58.57
656.86	58.8
657.049	58.79
657.238	58.79
657.427	58.67
657.615	58.77
657.804	58.71
657.993	58.64
658.181	58.48
658.37	58.33
658.559	58.28
658.747	58.15
658.936	58.32
659.125	58.08
659.313	57.7
659.502	57.61
659.69	57.28
659.879	57.27
660.067	57.35
660.256	57.3
660.444	57.21
660.633	57.06
660.821	57.2
661.01	56.96
661.198	57.17
661.387	56.98
661.575	57.22
661.763	57.39
661.952	57.34
662.14	57.58
662.328	57.57
662.517	57.5
662.705	57.71
662.893	57.89
663.082	57.99
663.27	58.05
663.458	58.23
663.646	57.87
663.834	58.06
664.023	58.1
664.211	58.16
664.399	58.17
664.587	58.05
664.775	57.98
664.963	58.11
665.152	57.88
665.34	57.61
665.528	57.75
665.716	57.67
665.904	57.52
666.092	57.56
666.28	57.32
666.468	57.17
666.656	57.14
666.844	57.43
667.032	57.76
667.22	57.61
667.408	57.56
667.596	57.69
667.784	57.85
667.971	57.9
668.159	58.04
668.347	58.28
668.535	58.6
668.723	58.46
668.911	58.59
669.098	58.5
669.286	58.35
669.474	57.89
669.662	58.35
669.849	58.54
670.037	58.58
670.225	58.53
670.413	58.23
670.6	58.06
670.788	57.98
670.976	57.9
671.163	58.05
671.351	57.86
671.538	58.09
671.726	57.93
671.913	58.19
672.101	57.84
672.289	57.42
672.476	57.51
672.664	57.42
672.851	57.6
673.039	57.59
673.226	57.64
673.413	57.55
673.601	57.51
673.788	57.73
673.976	57.32
674.163	57.56
674.35	57.71
674.538	57.67
674.725	57.71
674.912	57.27
675.1	57.65
675.287	57.43
675.474	57.66
675.662	57.68
675.849	57.9
676.036	57.96
676.223	57.75
676.411	58
676.598	58.07
676.785	58.12
676.972	58.35
677.159	58.58
677.346	58.72
677.533	58.43
677.721	58.87
677.908	58.94
678.095	58.73
678.282	58.81
678.469	59.13
678.656	59.21
678.843	59.31
679.03	59.12
679.217	59.07
679.404	58.91
679.591	59.06
679.778	59.26
679.964	59.28
680.151	59.08
680.338	58.84
680.525	58.95
680.712	58.63
680.899	58.38
681.086	58.55
681.272	58.3
681.459	58.32
681.646	58.28
681.833	58.27
682.02	57.99
682.206	57.98
682.393	57.98
682.58	58.07
682.766	58.17
682.953	58.13
683.14	58.19
683.326	58.16
683.513	58.26
683.7	58.6
683.886	58.63
684.073	58.61
684.259	58.49
684.446	58.53
684.632	58.52
684.819	58.4
685.005	58.48
685.192	58.58
685.378	58.52
685.565	58.64
685.751	58.63
685.938	58.39
686.124	58.13
686.31	57.95
686.497	57.88
686.683	58.23
686.87	58.01
687.056	57.7
687.242	58.05
687.429	57.94
687.615	57.75
687.801	57.83
687.987	57.63
688.174	57.52
688.36	57.66
688.546	58.05
688.732	58.12
688.918	58.19
689.105	57.78
689.291	57.89
689.477	58.15
689.663	58.13
689.849	58.39
690.035	58.45
690.221	58.62
690.407	58.87
690.593	59
690.779	58.88
690.965	58.45
691.151	58.61
691.337	58.57
691.523	58.94
691.709	59
691.895	58.92
692.081	58.68
692.267	58.35
692.453	58.02
692.639	58.07
692.825	57.89
693.011	57.91
693.196	57.84
693.382	57.98
693.568	58.28
693.754	58.37
693.94	58.27
694.125	58.6
694.311	58.58
694.497	58.7
694.682	58.87
694.868	59.08
695.054	58.8
695.239	58.83
695.425	59.05
695.611	59.36
695.796	59.48
695.982	59.31
696.168	59.39
696.353	59.49
696.539	59.37
696.724	59.49
696.91	59.77
697.095	59.62
697.281	59.61
697.466	59.52
697.652	59.65
697.837	59.41
698.023	59.18
698.208	58.76
698.393	58.6
698.579	58.51
698.764	58.48
698.949	58.22
699.135	58.11
699.32	57.68
699.505	57.51
699.691	57.49
699.876	57.41
700.061	57.16
700.246	57.2
700.432	57.05
700.617	57.27
700.802	57.04
700.987	57.34
701.172	57.06
701.358	57.24
701.543	57.07
701.728	57.13
701.913	57.57
702.098	57.74
702.283	57.9
702.468	57.79
702.653	57.84
702.838	57.97
703.023	58.04
703.208	58.4
703.393	58.13
703.578	58.28
703.763	58.35
703.948	58.48
704.133	58.88
704.318	58.55
704.503	58.52
704.688	58.77
704.873	58.95
705.057	58.82
705.242	58.69
705.427	58.92
705.612	59.09
705.797	58.99
705.981	59.07
706.166	58.81
706.351	58.89
706.536	58.66
706.72	58.91
706.905	58.75
707.09	58.44
707.274	58.38
707.459	58.75
707.644	58.74
707.828	58.74
708.013	58.72
708.197	58.98
708.382	58.75
708.567	58.6
708.751	58.37
708.936	58.32
709.12	57.7
709.305	57.86
709.489	58.22
709.673	58.18
709.858	57.59
710.042	57.8
710.227	57.68
710.411	57.45
710.596	57.13
710.78	57.37
710.964	57.6
711.149	57.76
711.333	57.88
711.517	58.44
711.702	58.3
711.886	58.09
712.07	58.13
712.254	58.3
712.438	58.07
712.623	57.97
712.807	58.04
712.991	58.24
713.175	58.19
713.359	58.46
713.544	58.56
713.728	58.32
713.912	58.11
714.096	58.35
714.28	58.58
714.464	58.82
714.648	58.83
714.832	59.08
715.016	58.76
715.2	58.66
715.384	58.52
715.568	58.27
715.752	57.88
715.936	57.44
716.12	57.25
716.304	57.08
716.488	57.09
716.671	56.99
716.855	56.76
717.039	56.82
717.223	56.69
717.407	57.18
717.59	57.11
717.774	56.51
717.958	56.38
718.142	56.65
718.325	56.78
718.509	56.73
718.693	56.97
718.877	56.57
719.06	56.34
719.244	56.42
719.428	56.5
719.611	56.56
719.795	56.55
719.978	56.55
720.162	57.43
720.345	58.22
720.529	58.21
720.713	58.43
720.896	58.94
721.08	58.65
721.263	58.76
721.446	58.89
721.63	58.72
721.813	58.6
721.997	58.62
722.18	58.37
722.364	58.59
722.547	57.8
722.73	57.54
722.914	57.36
723.097	57.46
723.28	56.95
723.464	56.79
723.647	56.84
723.83	56.58
724.013	56.46
724.197	56.53
724.38	56.35
724.563	56.86
724.746	57.17
724.929	57.86
725.112	57.75
725.296	57.79
725.479	57.78
725.662	57.73
725.845	58.05
726.028	57.99
726.211	57.99
726.394	58.37
726.577	58.5
726.76	58.59
726.943	58.14
727.126	57.84
727.309	57.65
727.492	57.58
727.675	57.61
727.858	57.79
728.041	58.42
728.224	58.42
728.407	58.4
728.589	58.77
728.772	59.12
728.955	58.91
729.138	59.03
729.321	59.46
729.503	59.47
729.686	59.54
729.869	59.51
730.052	59.84
730.234	59.62
730.417	59
730.6	58.97
730.782	59.09
730.965	58.93
731.148	58.25
731.33	58.61
731.513	58.59
731.695	58.01
731.878	57.76
732.061	58.03
732.243	57.98
732.426	57.68
732.608	57.7
732.791	57.67
732.973	57.82
733.156	57.41
733.338	57.4
733.52	57.15
733.703	56.78
733.885	56.81
734.068	56.99
734.25	57
734.432	56.49
734.615	56.42
734.797	56.27
734.979	56.13
735.162	56.46
735.344	56.2
735.526	56.41
735.708	56.34
735.891	56.49
736.073	56.33
736.255	55.9
736.437	56.05
736.619	56.47
736.802	56.37
736.984	56.81
737.166	57.04
737.348	57.24
737.53	57.35
737.712	57
737.894	57.24
738.076	56.92
738.258	56.99
738.44	57.29
738.622	57.68
738.804	57.16
738.986	56.33
739.168	56.66
739.35	55.96
739.532	55.4
739.714	55.37
739.896	55.42
740.078	56.02
740.259	56.03
740.441	56.44
740.623	56.94
740.805	57.38
740.987	57.49
741.168	58.03
741.35	58.59
741.532	58.15
741.714	58.14
741.895	58.85
742.077	58.85
742.259	58.55
742.44	58.31
742.622	58.2
742.804	57.9
742.985	57.28
743.167	56.88
743.348	56.27
743.53	56.41
743.711	56.67
743.893	57.43
744.075	57.72
744.256	57.97
744.438	57.45
744.619	57.41
744.8	58.09
744.982	58.16
745.163	58.19
745.345	58.16
745.526	57.75
745.707	57.72
745.889	57.43
746.07	57.47
746.252	57.01
746.433	56.94
746.614	56.33
746.795	56.52
746.977	56.61
747.158	56.59
747.339	56.61
747.52	56.41
747.702	57.08
747.883	57.31
748.064	57.2
748.245	57.81
748.426	57.17
748.607	57.39
748.788	57.99
748.97	58.39
749.151	58.94
749.332	59.06
749.513	58.15
749.694	58.47
749.875	58.99
750.056	58.18
750.237	58.02
750.418	57.99
750.599	57.39
750.78	58.11
750.96	58.16
751.141	57.82
751.322	57.72
751.503	57.55
751.684	57.45
751.865	57.71
752.046	56.52
752.226	56.17
752.407	56.03
752.588	55.97
752.769	56.37
752.949	56.64
753.13	56.75
753.311	56.06
753.492	55.76
753.672	55.58
753.853	55.57
754.034	55.99
754.214	56.04
754.395	56.34
754.575	56.64
754.756	57.44
754.937	58.17
755.117	58.97
755.298	59.24
755.478	58.71
755.659	59
755.839	58.5
756.02	58.41
756.2	58.2
756.381	57.86
756.561	57.97
756.741	58.75
756.922	58.37
757.102	58.47
757.283	58.07
757.463	57.73
757.643	57.65
757.823	57.59
758.004	57.28
758.184	58.47
758.364	58.38
758.545	58.35
758.725	58.05
758.905	58.72
759.085	58.16
759.265	58.45
759.446	57.6
759.626	56.94
759.806	56.44
759.986	56.33
760.166	56.48
760.346	57.38
760.526	57.26
760.706	57.1
760.886	57.23
761.066	57.48
761.246	56.61
761.426	56.58
761.606	56.59
761.786	57.16
761.966	57.4
762.146	57.34
762.326	57.42
762.506	57.77
762.686	57.23
762.866	57.01
763.046	57.61
763.225	57.86
763.405	57.48
763.585	57.43
763.765	57.46
763.945	57.31
764.124	57.16
764.304	57.37
764.484	57.42
764.664	56.92
764.843	56.83
765.023	57.05
765.203	57.2
765.382	56.8
765.562	56.67
765.741	57.22
765.921	57.48
766.101	58.06
766.28	58.51
766.46	58.2
766.639	57.85
766.819	58.04
766.998	58.82
767.178	58.28
767.357	58.28
767.537	58.17
767.716	58
767.896	57.73
768.075	57.33
768.254	57.67
768.434	57.36
768.613	56.62
768.792	57.56
768.972	58.32
769.151	57.52
769.33	56.44
769.51	56.78
769.689	56.72
769.868	56.95
770.047	56.85
770.226	56.98
770.406	57.57
770.585	56.77
770.764	56.61
770.943	56.85
771.122	56.21
771.301	55.78
771.48	56.35
771.66	56.2
771.839	56.24
772.018	56.17
772.197	56.41
772.376	56.92
772.555	56.29
772.734	55.78
772.913	55.49
773.092	55.48
773.271	55.43
773.449	56.09
773.628	55.96
773.807	55.68
773.986	56.18
774.165	56.7
774.344	56.96
774.523	56.36
774.701	56.06
774.88	55.99
775.059	55.8
775.238	56.09
775.417	56.39
775.595	56.72
775.774	55.71
775.953	55.88
776.131	56.99
776.31	57.31
776.489	56.48
776.667	55.91
776.846	56.8
777.025	56.4
777.203	56.73
777.382	56.89
777.56	57.27
777.739	57.06
777.917	57.95
778.096	58.19
778.274	57.07
778.453	57.26
778.631	57.2
778.81	57.3
778.988	57.72
779.166	56.96
779.345	56.94
779.523	57.75
779.702	57.98
779.88	57.78
780.058	57.33
780.237	55.57
780.415	56.56
780.593	58.03
780.771	58.58
780.95	58.61
781.128	58.89
781.306	58.43
781.484	58.64
781.662	58.77
781.841	57.26
782.019	57.21
782.197	57.25
782.375	57.37
782.553	57.73
782.731	57.6
782.909	56.49
783.087	55.77
783.265	56.21
783.443	55.46
783.621	56.2
783.799	55.62
783.977	55.36
784.155	56.03
784.333	55.54
784.511	55.49
784.689	56.16
784.867	56.76
785.045	56.45
785.223	57.36
785.4	56.59
785.578	56.6
785.756	56.83
785.934	56.04
786.112	55.86
786.289	56.94
786.467	56.78
786.645	57.56
786.823	57.91
787	57.77
787.178	58.11
787.356	57.55
787.533	57.45
787.711	57.77
787.889	56.92
788.066	56.88
788.244	56.82
788.421	57.26
788.599	57
788.776	57.51
788.954	57.61
789.131	57.88
789.309	57.74
789.486	56.77
789.664	58.17
789.841	58.06
790.019	57.55
790.196	58.34
790.373	59.45
790.551	59.28
790.728	59.52
790.906	60.68
791.083	60.7
791.26	60.46
791.437	59.38
791.615	59.08
791.792	60.61
791.969	59.28
792.146	59.37
792.324	59.95
792.501	59.4
792.678	57.83
792.855	58.68
793.032	57.85
793.209	57.5
793.387	57.07
793.564	57.18
793.741	57.6
793.918	57.62
794.095	56.44
794.272	56.76
794.449	56.79
794.626	56.46
794.803	56.7
794.98	56.4
795.157	56.34
795.334	57.19
795.511	56.41
795.688	56.34
795.864	56.66
796.041	56.88
796.218	57.42
796.395	57.33
796.572	56.96
796.749	55.51
796.925	55.82
797.102	55.5
797.279	56.28
797.456	56.17
797.632	55.37
797.809	54.89
797.986	54.89
798.162	54.77
798.339	54.78
798.516	54.66
798.692	55.22
798.869	55.01
799.046	56.06
799.222	55.87
799.399	55.55
799.575	55.93
799.752	55.93
799.928	56.66
800.105	56.88
800.281	58.25
800.458	57.86
800.634	58.1
800.811	57.95
800.987	57.82
801.163	58.08
801.34	58.12
801.516	57.55
801.692	58.56
801.869	59.35
802.045	59.6
802.221	59.5
802.398	59.89
802.574	59.42
802.75	59.57
802.926	59.95
803.103	60.1
803.279	60.09
803.455	59.62
803.631	60.61
803.807	60.71
803.983	59.68
804.16	58.3
804.336	58.17
804.512	58.08
804.688	57.79
804.864	57.85
805.04	57.83
805.216	56.59
805.392	56.12
805.568	55.39
805.744	55.45
805.92	54.17
806.096	54.56
806.272	56.65
806.448	57.75
806.623	57.27
806.799	57.34
806.975	56.72
807.151	55.01
807.327	53.86
807.503	54.87
807.678	54.71
807.854	54.7
808.03	55.25
808.206	56.04
808.381	56.16
808.557	55.27
808.733	54.56
808.908	54.01
809.084	53.18
809.26	54.06
809.435	55.03
809.611	56.05
809.787	55.08
809.962	55.91
810.138	56.14
810.313	56.15
810.489	55.63
810.664	56.03
810.84	55.33
811.015	55.88
811.191	57.09
811.366	58.64
811.542	58.16
811.717	58.36
811.892	58.68
812.068	58.58
812.243	58.99
812.419	59.26
812.594	59.48
812.769	59.21
812.944	58.52
813.12	58.79
813.295	58.35
813.47	58.75
813.645	57.81
813.821	57.78
813.996	57.69
814.171	57.22
814.346	58.96
814.521	58.5
814.697	59.05
814.872	59.23
815.047	59.82
815.222	60.43
815.397	60.92
815.572	61.16
815.747	59.57
815.922	59.06
816.097	60.59
816.272	61.07
816.447	61.43
816.622	61.41
816.797	60.91
816.972	60.81
817.147	61.06
817.322	61.23
817.496	61.8
817.671	62.78
817.846	61.77
818.021	61.16
818.196	61.95
818.371	60.76
818.545	60.41
818.72	59.61
818.895	58.44
819.069	58.95
819.244	58.08
819.419	56.83
819.594	56.78
819.768	56.62
819.943	55.86
820.117	56.86
820.292	57.67
820.467	57.18
820.641	57.43
820.816	57.6
820.99	57.44
821.165	57.61
821.339	57.84
821.514	58.07
821.688	58.12
821.863	57.82
822.037	57.45
822.212	57.15
822.386	56.9
822.56	56.9
822.735	56.82
822.909	56.44
823.084	56.16
823.258	56.08
823.432	55.64
823.606	55.25
823.781	54.66
823.955	54.48
824.129	54.28
824.303	54.38
824.478	54.54
824.652	54.23
824.826	53.78
825	53.79
825.174	53.54
825.348	53.61
825.523	53.91
825.697	54.05
825.871	53.47
826.045	53.45
826.219	54.02
826.393	54.25
826.567	54.41
826.741	54.1
826.915	54.23
827.089	54.37
827.263	54.2
827.437	54.47
827.611	54.29
827.784	54.04
827.958	54.41
828.132	54.91
828.306	55.1
828.48	54.68
828.654	54.54
828.827	54.31
829.001	54.39
829.175	54.64
829.349	54.94
829.522	55.22
829.696	56.48
829.87	56.14
830.044	55.95
830.217	55.95
830.391	55.8
830.565	56.72
830.738	55.84
830.912	56.22
831.085	56.16
831.259	56.75
831.432	56.33
831.606	56.13
831.779	55.58
831.953	54.59
832.126	55.36
832.3	55.54
832.473	55.47
832.647	56.02
832.82	55.78
832.994	56.82
833.167	56.8
833.34	56.86
833.514	56.35
833.687	56.44
833.86	55.72
834.034	56.66
834.207	56.56
834.38	56.52
834.553	56.74
834.727	56.47
834.9	56.42
835.073	56.15
835.246	55.5
835.419	55.03
835.593	54.72
835.766	54.85
835.939	54.49
836.112	54.96
836.285	54.28
836.458	53.7
836.631	53.36
836.804	53.17
836.977	53.2
837.15	52.52
837.323	52.2
837.496	50.95
837.669	52.03
837.842	52.55
838.015	52.38
838.188	51.26
838.361	51.13
838.533	50.07
838.706	50.39
838.879	50.86
839.052	51.56
839.225	51.36
839.398	51.59
839.57	52.45
839.743	54.22
839.916	54.17
840.088	54.37
840.261	54.97
840.434	55.39
840.607	55.4
840.779	57.28
840.952	57.12
841.124	56.59
841.297	55.47
841.47	56.48
841.642	57.6
841.815	58.6
841.987	57.82
842.16	56.79
842.332	55.74
842.505	55.91
842.677	57.46
842.85	58.25
843.022	58.02
843.194	59.62
843.367	59.91
843.539	60.47
843.712	59.77
843.884	56.89
844.056	56.66
844.229	57.02
844.401	58.17
844.573	58.59
844.745	58.72
844.918	56.06
845.09	56.43
845.262	55.16
845.434	54.61
845.606	58.21
845.779	59.92
845.951	62.07
846.123	61.9
846.295	63.2
846.467	64.88
846.639	65.28
846.811	63.92
846.983	61.73
847.155	63.26
847.327	64.52
847.499	64.16
847.671	63.65
847.843	62.34
848.015	59.28
848.187	57.27
848.359	59.33
848.531	56.56
848.703	55.63
848.875	50.87
849.047	51.98
849.218	51.12
849.39	54.49
849.562	55.28
849.734	58.73
849.905	59.11
850.077	57.09
850.249	61.9
850.421	61.89
850.592	64.48
850.764	64.86
850.936	66.27
851.107	71.4
851.279	69.93
851.451	72.25
851.622	69.06
851.794	66.75
851.965	64.84
852.137	66.64
852.308	68.55
852.48	64.49
852.651	65.69
852.823	60.53
852.994	59.49
853.166	60.2
853.337	54.9
853.509	56.74
853.68	54.59
853.851	56.83
854.023	55.45
854.194	53.64
854.365	51.53
854.537	50.36
854.708	52.45
854.879	50.75
855.05	54.08
855.222	54.86
855.393	54.63
855.564	60.58
855.735	60.85
855.906	61.34
856.078	59.74
856.249	61.82
856.42	62.68
856.591	62.49
856.762	60.66
856.933	59.01
857.104	61.65
857.275	60.51
857.446	63.63
857.617	62.38
857.788	55.59
857.959	54.33
858.13	52.9
858.301	53.27
858.472	50.3
858.643	50.03
858.814	49.99
858.985	52.04
859.155	54.89
859.326	55.54
859.497	54.48
859.668	52.45
859.839	50.71
860.009	58.26
860.18	55.06
860.351	58.28
860.522	58.43
860.692	58.77
860.863	55.32
861.034	55.72
861.204	55.41
861.375	54.27
861.546	52.62
861.716	55.95
861.887	58.81
862.057	59.54
862.228	58.93
862.398	59.92
862.569	61.95
862.739	63.44
862.91	64.42
863.08	67.06
863.251	70.12
863.421	71.03
863.592	72.7
863.762	72.29
863.932	71.22
864.103	69.71
864.273	72.37
864.443	69.2
864.614	66.51
864.784	63.37
864.954	60.72
865.125	61.01
865.295	65.12
865.465	62.22
865.635	63.33
865.805	60.93
865.976	61.53
866.146	61.84
866.316	58.52
866.486	63.66
866.656	62.43
866.826	66.56
866.996	67.48
867.166	72.06
867.336	73.3
867.506	72.95
867.676	79.04
867.846	69.9
868.016	71.32
868.186	72.24
868.356	72.17
868.526	73.06
868.696	66.9
868.866	66.89
869.036	68.24
869.206	66.6
869.376	65.37
869.545	61.56
869.715	58.66
869.885	53.33
870.055	60.14
870.224	62.06
870.394	65.67
870.564	65.2
870.734	62.2
870.903	62.11
871.073	67.26
871.243	66.34
871.412	69.36
871.582	69.41
871.751	72.3
871.921	77.32
872.091	76.75
872.26	72.72
872.43	72.22
872.599	69.22
872.769	70.79
872.938	73.71
873.108	71.28
873.277	68.28
873.446	66.33
873.616	66.41
873.785	63.85
873.955	64.3
874.124	57.74
874.293	56.96
874.463	63.66
874.632	59.15
874.801	57.23
874.971	55.52
875.14	56.14
875.309	58.18
875.478	56.52
875.647	55.88
875.817	52.71
875.986	54.62
876.155	55.2
876.324	58.81
876.493	56.72
876.662	50.65
876.831	54.18
877	53.11
877.17	50.13
877.339	47.73
877.508	50.39
877.677	54.09
877.846	58.4
878.015	60.03
878.184	60.12
878.352	58.53
878.521	61.47
878.69	64.49
878.859	65.99
879.028	63.22
879.197	62.75
879.366	65.52
879.534	65.22
879.703	62.94
879.872	59.21
880.041	55.97
880.21	54.88
880.378	54.1
880.547	54.04
880.716	52.18
880.884	52.7
881.053	51.96
881.222	52.92
881.39	52.95
881.559	52.62
881.727	52.56
881.896	52.2
882.065	53.15
882.233	53.45
882.402	53.52
882.57	53.2
882.739	53.36
882.907	53.51
883.076	52.49
883.244	53.04
883.412	52.23
883.581	53
883.749	52.8
883.918	52.51
884.086	52.77
884.254	52.19
884.423	51.68
884.591	51.34
884.759	52.6
884.927	51.53
885.096	52.54
885.264	52.73
885.432	52.72
885.6	52.43
885.769	51.84
885.937	50.94
886.105	51.9
886.273	52.64
886.441	53.67
886.609	54.26
886.777	55.51
886.945	53.82
887.113	54.91
887.281	52.32
887.449	51.77
887.617	50.2
887.785	50.86
887.953	46.58
888.121	46.66
888.289	47.75
888.457	44.3
888.625	40.51
888.793	41.58
888.961	39.85
889.129	39.36
889.296	39.03
889.464	38.24
889.632	39.1
889.8	40
889.967	43.4
890.135	50.54
