Data from 2938555_Reflection_1.txt Node
Date: Sun Jun 14 23:46:09 EDT 2015
User: robert
Spectrometer: USB4E03002
Autoset integration time: false
Trigger mode: 4
Integration Time (sec): 1.000000E-1
Scans to average: 10
Electric dark correction enabled: true
Nonlinearity correction enabled: false
Boxcar width: 5
Stray light correction enabled: false
XAxis mode: Wavelengths
Stop averaging: false
Number of Pixels in Spectrum: 3648
>>>>>Begin Spectral Data<<<<<
177.575	296.83
177.794	-192.28
178.014	-41.53
178.233	113.23
178.452	81.04
178.672	-162.1
178.891	-67.8
179.11	194.05
179.33	88.28
179.549	90.53
179.768	107.74
179.987	122.52
180.207	103.69
180.426	92.31
180.645	117.48
180.864	96.73
181.084	59.27
181.303	89.82
181.522	124.02
181.741	198.93
181.96	283.59
182.179	264.55
182.398	398.95
182.618	1024.59
182.837	373.79
183.056	169.13
183.275	209.35
183.494	170.54
183.713	156.54
183.932	132.1
184.151	139.54
184.37	179.19
184.589	256.43
184.808	224.57
185.027	113.48
185.246	-77.85
185.465	-138.1
185.684	-356.61
185.903	-225.22
186.122	1203.82
186.341	400.71
186.56	281.4
186.779	288.13
186.998	164.19
187.216	120.65
187.435	154.11
187.654	142.21
187.873	135.26
188.092	133.72
188.311	262.77
188.53	246.01
188.748	-191.24
188.967	-81.25
189.186	-394.54
189.405	-548.96
189.623	-245.53
189.842	-2469.84
190.061	-195.89
190.28	86.16
190.498	48.88
190.717	42.34
190.936	21.42
191.154	59.96
191.373	89.02
191.592	104.99
191.81	70.04
192.029	131.36
192.248	83.81
192.466	129.91
192.685	149.25
192.904	327.29
193.122	-565.31
193.341	3525.61
193.559	-45.99
193.778	-33.1
193.996	-49.59
194.215	28.8
194.433	59.53
194.652	88.74
194.87	66.54
195.089	77.43
195.307	59.47
195.526	29.92
195.744	64
195.963	88.44
196.181	73.13
196.399	72.54
196.618	147.42
196.836	94.94
197.055	114.37
197.273	162.91
197.491	368.81
197.71	290.57
197.928	189.9
198.146	244.58
198.365	293.65
198.583	475.77
198.801	493.2
199.019	321.76
199.238	859
199.456	277.37
199.674	285.53
199.892	237.11
200.111	235.72
200.329	479.16
200.547	333.86
200.765	220.46
200.983	170.82
201.202	171.43
201.42	161.33
201.638	124.62
201.856	130.8
202.074	105.38
202.292	56.97
202.51	6.95
202.728	59.36
202.946	85.13
203.165	101.16
203.383	68.21
203.601	267.27
203.819	23.94
204.037	-922.22
204.255	-124.43
204.473	-53.63
204.691	-5.6
204.909	-109.05
205.127	-94.07
205.345	-174.51
205.562	-139.09
205.78	-474.76
205.998	782.44
206.216	-5429.89
206.434	-5758.62
206.652	-333.01
206.87	-402.46
207.088	4398.35
207.306	-2696
207.523	-98.48
207.741	-18.51
207.959	-7.25
208.177	-2.82
208.395	-3.07
208.612	-45.37
208.83	-20.79
209.048	-35.98
209.266	-52.56
209.483	-47.06
209.701	-37.03
209.919	-53.73
210.136	-80.88
210.354	-85.55
210.572	-205.27
210.79	-320.95
211.007	-560.1
211.225	-3570.37
211.442	584.74
211.66	198.53
211.878	133.32
212.095	-81.65
212.313	-100.9
212.53	-109.2
212.748	-94.66
212.966	-43.4
213.183	-10.42
213.401	-11.7
213.618	-4.89
213.836	5.61
214.053	6.53
214.271	5.04
214.488	-20.95
214.705	11.21
214.923	45.55
215.14	39.07
215.358	14.98
215.575	2.64
215.793	22.5
216.01	28.61
216.227	-9.9
216.445	-6.51
216.662	-97.46
216.879	-66.75
217.097	-135.43
217.314	-155.36
217.531	-141.03
217.749	-129.55
217.966	-147.04
218.183	-244.38
218.4	-97.95
218.618	-126.09
218.835	-104
219.052	-69.34
219.269	-66.21
219.487	-63.61
219.704	-51.09
219.921	-67.56
220.138	-50.95
220.355	-51.6
220.572	-43.07
220.79	-55.68
221.007	-22.62
221.224	-27.91
221.441	-27.41
221.658	-15.96
221.875	-14.5
222.092	-19.76
222.309	-5.33
222.526	-14.49
222.743	-6.78
222.96	-10.78
223.177	-8.21
223.394	-17.06
223.611	-13.58
223.828	-13.36
224.045	-11.19
224.262	-11.08
224.479	-5.03
224.696	-7.99
224.913	-7.26
225.13	-9.95
225.347	-7.14
225.564	-3.36
225.781	-1.47
225.997	0.49
226.214	2.07
226.431	0.72
226.648	1.89
226.865	2.71
227.082	3.85
227.298	5.52
227.515	6.94
227.732	8.33
227.949	7.76
228.165	7.02
228.382	5.88
228.599	4.71
228.816	7.19
229.032	6.85
229.249	7.47
229.466	8.14
229.682	7.58
229.899	6.85
230.116	5.46
230.332	5.41
230.549	6.99
230.765	6.82
230.982	6.19
231.199	3.98
231.415	4.5
231.632	2.28
231.848	2.12
232.065	0.56
232.281	-0.81
232.498	-0.57
232.714	-1.54
232.931	-2.17
233.147	1
233.364	3.31
233.58	2.12
233.797	3.1
234.013	2.27
234.23	1.63
234.446	1.43
234.662	1.93
234.879	1.41
235.095	2.12
235.312	1.51
235.528	-0.16
235.744	-1.24
235.961	-0.41
236.177	0.51
236.393	1.3
236.61	-0.63
236.826	-0.08
237.042	-0.68
237.258	-1.14
237.475	-1.03
237.691	0.42
237.907	-0.39
238.123	-0.2
238.339	-0.02
238.556	-1.89
238.772	-2.89
238.988	-1.08
239.204	0.57
239.42	1.17
239.636	2.13
239.853	2.66
240.069	2.32
240.285	2.76
240.501	3.44
240.717	4.15
240.933	4.61
241.149	5.85
241.365	6.24
241.581	5.88
241.797	6.65
242.013	6.72
242.229	6.16
242.445	6.44
242.661	6.52
242.877	6.89
243.093	6.9
243.309	7.12
243.525	6.71
243.741	5.9
243.957	5.37
244.173	4.87
244.388	5
244.604	5.33
244.82	5.65
245.036	6.06
245.252	5.56
245.468	5.62
245.683	5.34
245.899	5.06
246.115	5.22
246.331	5.38
246.547	5.28
246.762	5.41
246.978	5.75
247.194	5.57
247.409	5.25
247.625	5.59
247.841	4.84
248.057	4.54
248.272	5.36
248.488	5.29
248.703	5.67
248.919	5.63
249.135	5.28
249.35	5.07
249.566	4.81
249.782	5.02
249.997	4.72
250.213	5.21
250.428	6.05
250.644	4.99
250.859	5.19
251.075	4.45
251.29	4.88
251.506	4.75
251.721	3.43
251.937	3.84
252.152	3.91
252.368	3.56
252.583	4.08
252.798	3.23
253.014	3.61
253.229	3.53
253.445	3.8
253.66	4.28
253.875	2.48
254.091	2.42
254.306	2.75
254.521	1.37
254.737	1.79
254.952	1.82
255.167	1.76
255.383	1.68
255.598	1.35
255.813	1.98
256.028	0.84
256.244	2.41
256.459	3.09
256.674	2.56
256.889	3.45
257.104	3.8
257.32	3.7
257.535	4.07
257.75	4.36
257.965	4.49
258.18	4.35
258.395	4.31
258.61	4.18
258.826	4.23
259.041	4.16
259.256	4.01
259.471	3.43
259.686	3.23
259.901	3.37
260.116	3.14
260.331	3.15
260.546	3.52
260.761	4.13
260.976	4.37
261.191	4.14
261.406	4.32
261.621	3.98
261.836	4.29
262.05	4.56
262.265	3.9
262.48	3.81
262.695	3.54
262.91	2.61
263.125	1.73
263.34	0.72
263.555	0.78
263.769	0.74
263.984	1.37
264.199	1.51
264.414	1.42
264.629	1.89
264.843	1.93
265.058	1.73
265.273	2.15
265.488	2.14
265.702	2.48
265.917	2.86
266.132	2.69
266.346	2.51
266.561	2.74
266.776	2.5
266.99	2.1
267.205	2.23
267.42	2.87
267.634	2.73
267.849	3.17
268.063	3.84
268.278	3.83
268.492	3.78
268.707	3.63
268.922	3.39
269.136	3.45
269.351	3.55
269.565	3.47
269.78	3.59
269.994	3.51
270.209	2.91
270.423	2.73
270.637	2.77
270.852	2.99
271.066	3.24
271.281	3.35
271.495	3.68
271.709	3.54
271.924	3.51
272.138	2.71
272.353	2.59
272.567	3.42
272.781	3.04
272.996	2.55
273.21	2.71
273.424	2.65
273.638	2.58
273.853	2.45
274.067	2.83
274.281	2.99
274.495	3.3
274.71	3.92
274.924	3.37
275.138	3.37
275.352	3.42
275.566	3.03
275.781	2.96
275.995	3.12
276.209	2.78
276.423	2.67
276.637	2.07
276.851	2.12
277.065	2.06
277.279	2.42
277.493	2.75
277.707	2.33
277.921	2.5
278.135	2.53
278.349	2.48
278.563	2.82
278.777	3.07
278.991	3.7
279.205	4.01
279.419	4.03
279.633	3.82
279.847	4.24
280.061	4.58
280.275	4.69
280.489	4.67
280.703	5.27
280.917	5.08
281.131	4.83
281.344	4.68
281.558	4.76
281.772	4.65
281.986	4.57
282.2	4.02
282.414	4.28
282.627	3.81
282.841	3.89
283.055	3.24
283.269	3.05
283.482	3.08
283.696	2.89
283.91	2.47
284.123	2.46
284.337	2.49
284.551	2.83
284.764	2.96
284.978	3.32
285.192	3.14
285.405	3.2
285.619	3.55
285.833	3.7
286.046	3.7
286.26	3.79
286.473	3.56
286.687	3.68
286.9	3.64
287.114	3.53
287.327	3.33
287.541	3.16
287.754	3.17
287.968	2.68
288.181	2.72
288.395	3.01
288.608	2.75
288.822	2.87
289.035	2.7
289.248	2.19
289.462	2.08
289.675	1.93
289.889	2.4
290.102	2.71
290.315	2.74
290.529	2.52
290.742	2.31
290.955	2.72
291.169	2.73
291.382	2.97
291.595	3.44
291.808	3.31
292.022	3.61
292.235	3.23
292.448	2.93
292.661	3.08
292.875	3.2
293.088	3.6
293.301	3.78
293.514	3.97
293.727	3.66
293.94	3.57
294.153	3.59
294.367	3.64
294.58	3.75
294.793	3.88
295.006	3.78
295.219	3.56
295.432	3.09
295.645	3.06
295.858	2.99
296.071	3.34
296.284	3.21
296.497	3.06
296.71	3.22
296.923	2.96
297.136	2.72
297.349	2.69
297.562	2.83
297.775	3
297.988	2.93
298.201	2.68
298.414	2.65
298.626	2.66
298.839	3.26
299.052	2.87
299.265	3.55
299.478	3.62
299.691	4.31
299.903	4.14
300.116	3.94
300.329	4.16
300.542	4.14
300.755	3.7
300.967	3.59
301.18	3.51
301.393	3.41
301.605	3.02
301.818	3.4
302.031	2.83
302.243	3.1
302.456	3.57
302.669	3.34
302.881	3.66
303.094	4.14
303.307	4.34
303.519	4.26
303.732	4.65
303.944	4.36
304.157	4.1
304.37	4.18
304.582	4.06
304.795	3.75
305.007	3.71
305.22	3.78
305.432	4.07
305.645	4.33
305.857	3.98
306.069	3.65
306.282	3.65
306.494	3.2
306.707	3.27
306.919	3.53
307.132	3.71
307.344	3.81
307.556	3.5
307.769	3.11
307.981	2.78
308.193	2.9
308.406	3.15
308.618	3.31
308.83	3.8
309.043	3.73
309.255	3.46
309.467	3.28
309.679	3.18
309.892	3.65
310.104	3.84
310.316	3.79
310.528	3.76
310.74	3.73
310.953	3.76
311.165	3.69
311.377	3.51
311.589	3.73
311.801	4.17
312.013	4.44
312.225	3.9
312.437	3.48
312.649	4.13
312.862	4.16
313.074	3.87
313.286	3.9
313.498	3.76
313.71	3.61
313.922	3.1
314.134	2.82
314.346	2.61
314.558	2.73
314.77	2.8
314.982	2.6
315.193	2.8
315.405	3.46
315.617	3.67
315.829	3.69
316.041	4.18
316.253	4.49
316.465	4
316.677	3.93
316.888	4.05
317.1	4.49
317.312	3.97
317.524	3.86
317.736	2.96
317.947	3.08
318.159	3.34
318.371	3.04
318.583	3.31
318.794	3.86
319.006	3.84
319.218	3.99
319.43	3.98
319.641	4
319.853	3.81
320.064	4.48
320.276	4.35
320.488	4.12
320.699	4.15
320.911	4.14
321.123	3.81
321.334	4.39
321.546	4.19
321.757	3.98
321.969	4.06
322.18	4.03
322.392	3.77
322.603	3.48
322.815	3.65
323.026	3.64
323.238	3.92
323.449	3.61
323.661	3.35
323.872	3.27
324.083	3.2
324.295	3.21
324.506	3.24
324.718	3.16
324.929	2.95
325.14	3
325.352	3.66
325.563	3.25
325.774	3.68
325.986	3.39
326.197	3.69
326.408	3.61
326.62	3.94
326.831	4.28
327.042	4.3
327.253	4.68
327.464	4.22
327.676	3.6
327.887	3.44
328.098	3.33
328.309	3.62
328.52	3.37
328.732	3.25
328.943	3.02
329.154	2.79
329.365	2.83
329.576	2.88
329.787	2.96
329.998	3.4
330.209	3.46
330.42	3.68
330.631	3.44
330.842	3.53
331.053	3.46
331.264	3.51
331.475	3.57
331.686	3.47
331.897	3.57
332.108	3.7
332.319	3.72
332.53	3.69
332.741	3.4
332.952	3.69
333.163	3.39
333.374	3.55
333.585	3.39
333.795	3.44
334.006	3.74
334.217	3.6
334.428	3.99
334.639	3.36
334.849	3.46
335.06	3.6
335.271	3.51
335.482	3.97
335.692	3.95
335.903	3.66
336.114	3.64
336.325	3.46
336.535	3.46
336.746	3.18
336.957	3.6
337.167	3.69
337.378	3.66
337.589	3.39
337.799	3.16
338.01	3.68
338.22	4.05
338.431	4.2
338.642	4.11
338.852	4.09
339.063	3.74
339.273	4.15
339.484	3.82
339.694	3.23
339.905	3.29
340.115	3.17
340.326	2.71
340.536	2.72
340.746	2.39
340.957	2.68
341.167	2.44
341.378	2.62
341.588	2.59
341.799	2.75
342.009	3.11
342.219	3
342.43	3.11
342.64	3.06
342.85	2.81
343.061	2.88
343.271	2.57
343.481	3.05
343.691	3.46
343.902	3.09
344.112	3.11
344.322	3.5
344.532	3.51
344.743	3.44
344.953	3.22
345.163	3.41
345.373	3.29
345.583	3.54
345.793	3.17
346.004	2.55
346.214	2.61
346.424	2.47
346.634	2.29
346.844	2.19
347.054	2.11
347.264	2.19
347.474	2.47
347.684	3.04
347.894	2.93
348.104	2.82
348.314	2.91
348.524	2.46
348.734	2.85
348.944	3.04
349.154	3.46
349.364	3.66
349.574	3.55
349.784	3.2
349.994	3.02
350.204	3.18
350.413	3.4
350.623	3.64
350.833	4.12
351.043	3.99
351.253	4.14
351.463	3.85
351.672	3.87
351.882	3.89
352.092	4.16
352.302	3.75
352.511	3.54
352.721	3.61
352.931	3.37
353.141	3.35
353.35	3.23
353.56	2.85
353.77	2.98
353.979	2.74
354.189	3.05
354.399	3.04
354.608	3.23
354.818	3
355.027	2.96
355.237	3.1
355.447	3.07
355.656	3.45
355.866	3.57
356.075	3.5
356.285	3.49
356.494	3.51
356.704	3.44
356.913	3.49
357.123	3.44
357.332	3.55
357.542	3.38
357.751	3.35
357.96	3.14
358.17	3.01
358.379	2.98
358.589	3.06
358.798	3.11
359.007	3.14
359.217	3.11
359.426	3.3
359.635	3.15
359.845	3.29
360.054	3.21
360.263	3.22
360.472	3.38
360.682	3.57
360.891	3.46
361.1	3.29
361.309	3.24
361.519	3.29
361.728	3.19
361.937	3.35
362.146	3.24
362.355	3.26
362.564	3.22
362.774	3.07
362.983	2.74
363.192	2.75
363.401	2.74
363.61	2.91
363.819	2.9
364.028	2.97
364.237	2.54
364.446	2.61
364.655	2.54
364.864	2.37
365.073	2.38
365.282	2.41
365.491	2.45
365.7	2.62
365.909	2.2
366.118	1.96
366.327	1.95
366.536	1.97
366.745	2.18
366.954	2.45
367.162	2.59
367.371	2.56
367.58	2.57
367.789	2.53
367.998	2.37
368.207	2.68
368.415	2.88
368.624	2.84
368.833	2.9
369.042	2.81
369.25	2.56
369.459	2.67
369.668	2.55
369.877	2.64
370.085	3.19
370.294	3.29
370.503	3.06
370.711	2.88
370.92	3
371.129	3.03
371.337	2.71
371.546	2.73
371.754	2.43
371.963	2.55
372.171	2.61
372.38	2.43
372.589	2.26
372.797	2.26
373.006	2.31
373.214	2.36
373.423	2.32
373.631	2.58
373.84	2.4
374.048	2.43
374.256	2.43
374.465	2.04
374.673	1.92
374.882	1.95
375.09	2.06
375.298	2.11
375.507	2.06
375.715	2.18
375.923	2.08
376.132	2.44
376.34	2.5
376.548	2.47
376.757	2.75
376.965	2.68
377.173	2.63
377.381	2.61
377.59	2.71
377.798	2.81
378.006	2.73
378.214	2.76
378.423	2.7
378.631	2.9
378.839	2.83
379.047	2.71
379.255	2.53
379.463	2.46
379.671	2.49
379.879	2.19
380.088	2.07
380.296	2.2
380.504	2.17
380.712	2.21
380.92	2.29
381.128	2.26
381.336	2.21
381.544	2.29
381.752	2.43
381.96	2.29
382.168	2.25
382.376	2.01
382.584	1.89
382.791	1.87
382.999	1.72
383.207	1.56
383.415	1.74
383.623	1.87
383.831	1.81
384.039	1.74
384.247	1.82
384.454	2.07
384.662	2.4
384.87	2.41
385.078	2.43
385.285	2.37
385.493	2.31
385.701	2.51
385.909	2.6
386.116	2.56
386.324	2.66
386.532	2.64
386.739	2.74
386.947	2.5
387.155	2.48
387.362	2.73
387.57	2.94
387.778	2.83
387.985	2.51
388.193	2.53
388.4	2.68
388.608	2.78
388.816	2.71
389.023	2.48
389.231	2.68
389.438	2.72
389.646	2.62
389.853	2.53
390.061	2.65
390.268	2.61
390.475	2.57
390.683	2.65
390.89	2.39
391.098	2.48
391.305	2.65
391.512	2.31
391.72	2.5
391.927	2.52
392.135	2.44
392.342	2.4
392.549	2.32
392.756	2.34
392.964	2.05
393.171	2.25
393.378	2.24
393.586	2.13
393.793	2.41
394	2.22
394.207	2.15
394.414	2.1
394.622	2.16
394.829	2.41
395.036	2.26
395.243	2.56
395.45	2.47
395.657	2.51
395.864	2.6
396.072	2.73
396.279	2.8
396.486	2.65
396.693	2.73
396.9	2.5
397.107	2.3
397.314	2.41
397.521	2.25
397.728	2.32
397.935	2.23
398.142	2.1
398.349	1.89
398.556	1.9
398.763	1.91
398.97	2.02
399.177	2.11
399.383	2.36
399.59	2.65
399.797	2.93
400.004	2.81
400.211	2.84
400.418	2.85
400.625	2.74
400.831	2.6
401.038	2.56
401.245	2.5
401.452	2.55
401.658	2.24
401.865	1.86
402.072	1.48
402.279	1.48
402.485	1.58
402.692	1.59
402.899	1.65
403.105	1.61
403.312	1.77
403.519	1.74
403.725	1.75
403.932	1.75
404.138	1.48
404.345	1.48
404.552	1.57
404.758	1.43
404.965	1.44
405.171	1.46
405.378	1.58
405.584	1.57
405.791	1.61
405.997	1.54
406.204	1.84
406.41	2.2
406.617	2.46
406.823	2.29
407.029	2.36
407.236	2.39
407.442	2.38
407.649	2.14
407.855	2.09
408.061	1.97
408.268	2.06
408.474	1.74
408.68	1.77
408.887	1.67
409.093	1.81
409.299	1.96
409.505	1.94
409.712	2.02
409.918	2.06
410.124	2.03
410.33	2.03
410.537	2.03
410.743	2.25
410.949	2.22
411.155	2.14
411.361	2.18
411.567	1.92
411.773	1.86
411.98	1.92
412.186	2
412.392	1.97
412.598	1.8
412.804	1.65
413.01	1.41
413.216	1.43
413.422	1.43
413.628	1.43
413.834	1.51
414.04	1.46
414.246	1.46
414.452	1.31
414.658	1.28
414.864	1.59
415.07	1.59
415.275	1.63
415.481	1.53
415.687	1.53
415.893	1.51
416.099	1.47
416.305	1.47
416.511	1.33
416.716	1.51
416.922	1.62
417.128	1.53
417.334	1.59
417.539	1.64
417.745	1.67
417.951	1.72
418.157	1.76
418.362	1.83
418.568	1.83
418.774	1.96
418.979	1.95
419.185	1.94
419.391	1.95
419.596	1.99
419.802	2.04
420.008	2.04
420.213	1.97
420.419	1.88
420.624	1.82
420.83	1.85
421.035	1.77
421.241	1.75
421.446	1.7
421.652	1.7
421.857	1.67
422.063	1.62
422.268	1.61
422.474	1.73
422.679	1.8
422.885	1.76
423.09	1.76
423.295	1.77
423.501	1.79
423.706	1.87
423.911	1.82
424.117	1.74
424.322	1.74
424.527	1.76
424.733	1.67
424.938	1.61
425.143	1.7
425.349	1.7
425.554	1.72
425.759	1.59
425.964	1.4
426.169	1.38
426.375	1.51
426.58	1.47
426.785	1.52
426.99	1.56
427.195	1.68
427.4	1.58
427.605	1.66
427.811	1.72
428.016	1.84
428.221	1.96
428.426	2.07
428.631	2.06
428.836	2.15
429.041	2.17
429.246	2.08
429.451	1.98
429.656	2.02
429.861	2.08
430.066	1.94
430.271	1.9
430.476	1.84
430.681	1.81
430.886	1.79
431.09	1.74
431.295	1.58
431.5	1.65
431.705	1.84
431.91	1.84
432.115	1.69
432.32	1.7
432.524	1.83
432.729	1.91
432.934	1.81
433.139	1.7
433.343	1.7
433.548	1.73
433.753	1.74
433.958	1.54
434.162	1.48
434.367	1.54
434.572	1.53
434.776	1.52
434.981	1.55
435.186	1.72
435.39	1.82
435.595	1.98
435.799	2.05
436.004	2.07
436.209	1.99
436.413	2.05
436.618	2.06
436.822	2.18
437.027	2.01
437.231	1.86
437.436	1.83
437.64	1.86
437.845	1.78
438.049	1.75
438.253	1.71
438.458	1.74
438.662	1.73
438.867	1.66
439.071	1.55
439.275	1.55
439.48	1.6
439.684	1.57
439.888	1.48
440.093	1.44
440.297	1.43
440.501	1.4
440.706	1.38
440.91	1.36
441.114	1.39
441.318	1.41
441.523	1.47
441.727	1.47
441.931	1.53
442.135	1.6
442.339	1.62
442.543	1.67
442.748	1.64
442.952	1.73
443.156	1.79
443.36	1.79
443.564	1.7
443.768	1.63
443.972	1.56
444.176	1.51
444.38	1.46
444.584	1.44
444.788	1.39
444.992	1.44
445.196	1.42
445.4	1.38
445.604	1.32
445.808	1.37
446.012	1.39
446.216	1.52
446.42	1.52
446.624	1.5
446.828	1.55
447.032	1.5
447.235	1.55
447.439	1.53
447.643	1.53
447.847	1.58
448.051	1.57
448.254	1.46
448.458	1.3
448.662	1.34
448.866	1.33
449.069	1.16
449.273	1.28
449.477	1.14
449.681	1.15
449.884	1.09
450.088	1.03
450.292	0.98
450.495	1.1
450.699	1.13
450.902	1.12
451.106	1.15
451.31	1.22
451.513	1.18
451.717	1.25
451.92	1.18
452.124	1.24
452.327	1.21
452.531	1.24
452.734	1.3
452.938	1.26
453.141	1.14
453.345	1.05
453.548	1.19
453.752	1.12
453.955	1.14
454.158	1.17
454.362	1.13
454.565	1.23
454.769	1.31
454.972	1.27
455.175	1.29
455.379	1.43
455.582	1.59
455.785	1.37
455.988	1.5
456.192	1.47
456.395	1.5
456.598	1.58
456.801	1.55
457.005	1.5
457.208	1.5
457.411	1.58
457.614	1.52
457.817	1.44
458.021	1.49
458.224	1.35
458.427	1.41
458.63	1.35
458.833	1.31
459.036	1.28
459.239	1.28
459.442	1.29
459.645	1.28
459.848	1.27
460.051	1.39
460.254	1.43
460.457	1.46
460.66	1.39
460.863	1.46
461.066	1.6
461.269	1.6
461.472	1.57
461.675	1.55
461.878	1.39
462.081	1.36
462.284	1.24
462.486	1.17
462.689	1.21
462.892	1.3
463.095	1.25
463.298	1.1
463.5	1.19
463.703	1.27
463.906	1.26
464.109	1.43
464.311	1.46
464.514	1.48
464.717	1.54
464.92	1.5
465.122	1.35
465.325	1.31
465.528	1.28
465.73	1.3
465.933	1.26
466.135	1.25
466.338	1.26
466.541	1.22
466.743	1.23
466.946	1.22
467.148	1.22
467.351	1.29
467.553	1.43
467.756	1.48
467.958	1.46
468.161	1.48
468.363	1.43
468.566	1.32
468.768	1.38
468.971	1.34
469.173	1.28
469.375	1.29
469.578	1.15
469.78	1.15
469.983	1.04
470.185	0.97
470.387	0.95
470.59	0.98
470.792	1.01
470.994	1.01
471.196	1.1
471.399	1.09
471.601	1.11
471.803	1.11
472.005	1.09
472.208	1.11
472.41	1.12
472.612	1.14
472.814	1.22
473.016	1.21
473.218	1.13
473.421	1.15
473.623	1.23
473.825	1.32
474.027	1.42
474.229	1.38
474.431	1.48
474.633	1.51
474.835	1.46
475.037	1.39
475.239	1.32
475.441	1.3
475.643	1.26
475.845	1.15
476.047	1.1
476.249	1.23
476.451	1.16
476.653	1.08
476.855	1.1
477.057	1.14
477.258	1.19
477.46	1.32
477.662	1.44
477.864	1.4
478.066	1.43
478.268	1.36
478.469	1.22
478.671	1.29
478.873	1.32
479.075	1.33
479.276	1.23
479.478	1.15
479.68	1.17
479.882	1.18
480.083	1.18
480.285	1.24
480.487	1.37
480.688	1.4
480.89	1.39
481.091	1.36
481.293	1.33
481.495	1.36
481.696	1.38
481.898	1.36
482.099	1.34
482.301	1.34
482.502	1.35
482.704	1.32
482.905	1.3
483.107	1.29
483.308	1.29
483.51	1.33
483.711	1.34
483.913	1.32
484.114	1.3
484.315	1.31
484.517	1.31
484.718	1.33
484.92	1.34
485.121	1.35
485.322	1.37
485.524	1.4
485.725	1.37
485.926	1.36
486.127	1.38
486.329	1.38
486.53	1.39
486.731	1.37
486.932	1.3
487.134	1.3
487.335	1.32
487.536	1.32
487.737	1.29
487.938	1.29
488.139	1.35
488.341	1.37
488.542	1.37
488.743	1.35
488.944	1.4
489.145	1.43
489.346	1.42
489.547	1.41
489.748	1.39
489.949	1.47
490.15	1.45
490.351	1.36
490.552	1.38
490.753	1.37
490.954	1.38
491.155	1.4
491.356	1.39
491.557	1.4
491.758	1.35
491.959	1.35
492.159	1.28
492.36	1.24
492.561	1.21
492.762	1.12
492.963	1.16
493.164	1.1
493.364	1.06
493.565	1.01
493.766	1.01
493.967	1.1
494.167	1.08
494.368	1.1
494.569	1.13
494.769	1.25
494.97	1.3
495.171	1.23
495.371	1.21
495.572	1.19
495.773	1.26
495.973	1.27
496.174	1.22
496.375	1.27
496.575	1.33
496.776	1.37
496.976	1.3
497.177	1.29
497.377	1.36
497.578	1.42
497.778	1.31
497.979	1.31
498.179	1.3
498.38	1.32
498.58	1.2
498.78	1.17
498.981	1.11
499.181	1.24
499.382	1.21
499.582	1.21
499.782	1.2
499.983	1.25
500.183	1.27
500.383	1.21
500.584	1.36
500.784	1.43
500.984	1.43
501.184	1.45
501.385	1.36
501.585	1.27
501.785	1.26
501.985	1.26
502.185	1.38
502.386	1.34
502.586	1.33
502.786	1.18
502.986	1.23
503.186	1.22
503.386	1.21
503.586	1.24
503.786	1.4
503.987	1.41
504.187	1.4
504.387	1.32
504.587	1.31
504.787	1.38
504.987	1.36
505.187	1.28
505.387	1.25
505.587	1.31
505.786	1.29
505.986	1.25
506.186	1.23
506.386	1.27
506.586	1.32
506.786	1.32
506.986	1.3
507.186	1.32
507.386	1.31
507.585	1.36
507.785	1.32
507.985	1.31
508.185	1.29
508.384	1.33
508.584	1.26
508.784	1.23
508.984	1.28
509.183	1.29
509.383	1.36
509.583	1.43
509.782	1.41
509.982	1.4
510.182	1.49
510.381	1.56
510.581	1.58
510.781	1.66
510.98	1.65
511.18	1.61
511.379	1.62
511.579	1.61
511.778	1.59
511.978	1.59
512.177	1.6
512.377	1.55
512.576	1.53
512.776	1.44
512.975	1.41
513.175	1.43
513.374	1.47
513.573	1.49
513.773	1.46
513.972	1.44
514.172	1.45
514.371	1.47
514.57	1.43
514.77	1.32
514.969	1.39
515.168	1.36
515.367	1.4
515.567	1.3
515.766	1.3
515.965	1.39
516.164	1.5
516.364	1.54
516.563	1.51
516.762	1.55
516.961	1.67
517.16	1.66
517.359	1.71
517.559	1.66
517.758	1.73
517.957	1.71
518.156	1.7
518.355	1.61
518.554	1.55
518.753	1.62
518.952	1.62
519.151	1.59
519.35	1.61
519.549	1.53
519.748	1.58
519.947	1.58
520.146	1.54
520.345	1.5
520.544	1.49
520.743	1.44
520.942	1.4
521.141	1.48
521.339	1.51
521.538	1.53
521.737	1.62
521.936	1.53
522.135	1.53
522.333	1.62
522.532	1.63
522.731	1.7
522.93	1.79
523.129	1.78
523.327	1.78
523.526	1.77
523.725	1.75
523.923	1.83
524.122	1.95
524.321	1.97
524.519	1.91
524.718	1.92
524.917	1.92
525.115	1.92
525.314	1.93
525.512	1.91
525.711	1.93
525.909	1.92
526.108	1.9
526.306	1.87
526.505	1.87
526.703	1.89
526.902	1.93
527.1	1.94
527.299	1.95
527.497	2
527.696	1.98
527.894	1.97
528.092	1.99
528.291	1.99
528.489	2.03
528.688	2.02
528.886	2.04
529.084	2.05
529.283	2.08
529.481	2.1
529.679	2.03
529.877	2.08
530.076	2.11
530.274	2.16
530.472	2.16
530.67	2.17
530.869	2.24
531.067	2.26
531.265	2.25
531.463	2.22
531.661	2.21
531.859	2.28
532.057	2.3
532.255	2.35
532.454	2.3
532.652	2.35
532.85	2.38
533.048	2.39
533.246	2.39
533.444	2.36
533.642	2.39
533.84	2.42
534.038	2.4
534.236	2.37
534.434	2.31
534.632	2.38
534.83	2.36
535.027	2.36
535.225	2.37
535.423	2.38
535.621	2.47
535.819	2.5
536.017	2.54
536.215	2.53
536.412	2.58
536.61	2.64
536.808	2.63
537.006	2.66
537.203	2.7
537.401	2.72
537.599	2.76
537.797	2.79
537.994	2.8
538.192	2.79
538.39	2.89
538.587	2.87
538.785	2.83
538.983	2.84
539.18	2.79
539.378	2.79
539.575	2.78
539.773	2.81
539.97	2.81
540.168	2.8
540.366	2.86
540.563	2.85
540.761	2.87
540.958	2.91
541.155	2.96
541.353	2.99
541.55	3.01
541.748	3.05
541.945	3.1
542.143	3.14
542.34	3.23
542.537	3.22
542.735	3.21
542.932	3.32
543.129	3.29
543.327	3.3
543.524	3.36
543.721	3.4
543.919	3.42
544.116	3.37
544.313	3.39
544.51	3.4
544.708	3.48
544.905	3.5
545.102	3.52
545.299	3.66
545.496	3.66
545.693	3.73
545.891	3.81
546.088	3.88
546.285	3.96
546.482	4.04
546.679	4.05
546.876	4.05
547.073	4.09
547.27	4.09
547.467	4.11
547.664	4.11
547.861	4.14
548.058	4.08
548.255	4.03
548.452	4
548.649	3.9
548.846	3.97
549.043	3.98
549.24	4
549.437	4.07
549.633	4.07
549.83	4.24
550.027	4.23
550.224	4.38
550.421	4.44
550.618	4.63
550.814	4.74
551.011	4.86
551.208	4.88
551.405	4.91
551.601	4.89
551.798	5
551.995	5.03
552.191	5.1
552.388	5.08
552.585	5.09
552.781	5.04
552.978	5.07
553.175	4.96
553.371	5.07
553.568	5.22
553.764	5.32
553.961	5.14
554.157	5.11
554.354	5.22
554.55	5.21
554.747	5.32
554.943	5.45
555.14	5.51
555.336	5.49
555.533	5.6
555.729	5.64
555.926	5.65
556.122	5.79
556.318	5.9
556.515	5.86
556.711	5.87
556.907	5.86
557.104	5.8
557.3	5.95
557.496	6.1
557.693	6.1
557.889	6.08
558.085	6.03
558.281	6.04
558.478	6.04
558.674	6.08
558.87	6.2
559.066	6.35
559.262	6.44
559.459	6.36
559.655	6.38
559.851	6.4
560.047	6.5
560.243	6.65
560.439	6.84
560.635	6.9
560.831	6.99
561.027	7.11
561.223	7.17
561.419	7.31
561.615	7.44
561.811	7.6
562.007	7.61
562.203	7.65
562.399	7.69
562.595	7.75
562.791	7.83
562.987	7.83
563.183	7.96
563.379	8.05
563.575	8.01
563.771	8
563.966	7.97
564.162	8.11
564.358	8.21
564.554	8.31
564.75	8.32
564.945	8.38
565.141	8.42
565.337	8.41
565.533	8.37
565.728	8.43
565.924	8.43
566.12	8.52
566.315	8.58
566.511	8.56
566.707	8.54
566.902	8.44
567.098	8.53
567.293	8.54
567.489	8.47
567.684	8.37
567.88	8.39
568.076	8.6
568.271	8.62
568.467	8.59
568.662	8.66
568.858	8.7
569.053	8.96
569.248	9.01
569.444	9.13
569.639	9.18
569.835	9.39
570.03	9.37
570.225	9.38
570.421	9.41
570.616	9.51
570.812	9.54
571.007	9.58
571.202	9.61
571.397	9.58
571.593	9.6
571.788	9.76
571.983	9.76
572.178	9.92
572.374	9.97
572.569	9.96
572.764	9.95
572.959	10.02
573.154	10.14
573.35	10.12
573.545	10.12
573.74	10.21
573.935	10.19
574.13	10.22
574.325	10.28
574.52	10.23
574.715	10.36
574.91	10.43
575.105	10.41
575.3	10.46
575.495	10.58
575.69	10.68
575.885	10.71
576.08	10.75
576.275	10.78
576.47	10.75
576.665	10.83
576.86	10.83
577.055	10.65
577.25	10.79
577.444	10.68
577.639	10.59
577.834	10.53
578.029	10.55
578.224	10.54
578.418	10.65
578.613	10.51
578.808	10.59
579.003	10.43
579.197	10.65
579.392	10.72
579.587	10.74
579.781	10.67
579.976	10.67
580.171	10.7
580.365	10.71
580.56	10.65
580.755	10.79
580.949	10.77
581.144	10.93
581.338	11.01
581.533	11.03
581.727	11.09
581.922	11.23
582.116	11.45
582.311	11.54
582.505	11.62
582.7	11.67
582.894	11.76
583.089	11.76
583.283	11.65
583.478	11.7
583.672	11.64
583.866	11.6
584.061	11.54
584.255	11.32
584.449	11.25
584.644	11.18
584.838	11.11
585.032	11.2
585.226	11.14
585.421	11.21
585.615	11.27
585.809	11.2
586.003	11.23
586.198	11.43
586.392	11.62
586.586	11.65
586.78	11.7
586.974	11.86
587.168	11.74
587.363	11.95
587.557	12.11
587.751	11.88
587.945	11.99
588.139	12.23
588.333	12.22
588.527	12.25
588.721	12.32
588.915	12.52
589.109	12.6
589.303	12.63
589.497	12.61
589.691	12.58
589.885	12.77
590.079	12.71
590.273	12.59
590.466	12.65
590.66	12.7
590.854	12.68
591.048	12.61
591.242	12.57
591.436	12.7
591.629	12.67
591.823	12.74
592.017	12.77
592.211	12.89
592.404	12.91
592.598	12.9
592.792	12.94
592.986	13.08
593.179	13.16
593.373	13.04
593.567	13.04
593.76	12.98
593.954	12.98
594.147	12.91
594.341	13.05
594.535	13.02
594.728	13.01
594.922	12.97
595.115	12.97
595.309	12.79
595.502	12.82
595.696	12.85
595.889	12.94
596.083	12.81
596.276	12.81
596.47	12.65
596.663	12.63
596.856	12.59
597.05	12.54
597.243	12.33
597.437	12.43
597.63	12.43
597.823	12.37
598.017	12.37
598.21	12.41
598.403	12.47
598.596	12.49
598.79	12.62
598.983	12.63
599.176	12.74
599.369	12.7
599.563	12.73
599.756	12.81
599.949	12.83
600.142	12.78
600.335	12.9
600.528	12.87
600.722	12.9
600.915	12.79
601.108	12.71
601.301	12.68
601.494	12.94
601.687	12.87
601.88	12.83
602.073	12.87
602.266	13.08
602.459	13.11
602.652	13.19
602.845	13.19
603.038	13.35
603.231	13.37
603.424	13.4
603.617	13.28
603.809	13.37
604.002	13.32
604.195	13.35
604.388	13.24
604.581	13.3
604.774	13.32
604.966	13.35
605.159	13.24
605.352	13.32
605.545	13.25
605.737	13.35
605.93	13.28
606.123	13.39
606.316	13.19
606.508	13.17
606.701	13.08
606.894	12.98
607.086	13.13
607.279	13.19
607.471	13.18
607.664	13.2
607.857	13.19
608.049	13.34
608.242	13.51
608.434	13.71
608.627	13.71
608.819	13.64
609.012	13.78
609.204	13.63
609.397	13.6
609.589	13.72
609.782	13.72
609.974	13.84
610.166	13.7
610.359	13.64
610.551	13.62
610.743	13.68
610.936	13.77
611.128	13.76
611.32	14.08
611.513	14.04
611.705	13.95
611.897	13.98
612.09	13.94
612.282	14.04
612.474	13.85
612.666	13.92
612.858	13.79
613.051	13.92
613.243	13.87
613.435	13.48
613.627	13.52
613.819	13.6
614.011	13.69
614.203	13.58
614.395	13.45
614.588	13.52
614.78	13.52
614.972	13.69
615.164	13.61
615.356	13.47
615.548	13.54
615.74	13.82
615.932	13.63
616.124	13.6
616.315	13.72
616.507	13.93
616.699	13.9
616.891	13.85
617.083	13.77
617.275	13.76
617.467	13.89
617.659	13.88
617.85	13.76
618.042	13.86
618.234	13.65
618.426	13.67
618.618	13.65
618.809	13.76
619.001	13.82
619.193	13.86
619.384	13.82
619.576	13.73
619.768	13.86
619.959	13.8
620.151	13.6
620.343	13.81
620.534	13.87
620.726	13.8
620.917	13.82
621.109	13.81
621.301	13.65
621.492	13.85
621.684	14.07
621.875	13.87
622.067	13.89
622.258	14.14
622.45	14.3
622.641	14.16
622.832	14.2
623.024	14.33
623.215	14.14
623.407	14.26
623.598	14.03
623.789	13.85
623.981	13.85
624.172	13.89
624.363	13.86
624.555	13.84
624.746	13.98
624.937	13.9
625.129	13.84
625.32	13.95
625.511	14.03
625.702	14.09
625.893	14.1
626.085	14.2
626.276	14
626.467	14.18
626.658	14.11
626.849	13.97
627.04	14.08
627.231	14.12
627.422	14.05
627.614	13.98
627.805	14.02
627.996	14.09
628.187	14.28
628.378	14.36
628.569	14.23
628.76	14.14
628.951	14.29
629.142	14.24
629.332	14.05
629.523	14.13
629.714	14.16
629.905	14.24
630.096	14.2
630.287	14.06
630.478	14.18
630.669	14.26
630.859	14.39
631.05	14.27
631.241	14.36
631.432	14.47
631.623	14.57
631.813	14.4
632.004	14.39
632.195	14.59
632.385	14.59
632.576	14.54
632.767	14.46
632.957	14.49
633.148	14.49
633.339	14.39
633.529	14.42
633.72	14.38
633.91	14.61
634.101	14.45
634.292	14.36
634.482	14.35
634.673	14.3
634.863	14.21
635.054	14.14
635.244	14.21
635.435	14.26
635.625	14.32
635.815	14.36
636.006	14.1
636.196	14.07
636.387	13.93
636.577	13.82
636.767	13.66
636.958	13.77
637.148	13.84
637.338	13.78
637.529	13.87
637.719	13.72
637.909	13.75
638.099	14.06
638.29	14.29
638.48	14.39
638.67	14.63
638.86	14.8
639.05	14.8
639.241	14.51
639.431	14.6
639.621	14.35
639.811	14.42
640.001	14.24
640.191	14.23
640.381	14.16
640.571	14.27
640.761	14.03
640.951	14.08
641.141	14.06
641.331	14.16
641.521	14.01
641.711	13.85
641.901	13.83
642.091	13.92
642.281	13.67
642.471	13.75
642.661	13.77
642.851	13.72
643.041	13.78
643.231	13.63
643.42	13.82
643.61	13.9
643.8	14.29
643.99	14.19
644.18	14.2
644.369	14.29
644.559	14.11
644.749	13.82
644.939	13.92
645.128	14.24
645.318	14.29
645.508	14.21
645.697	14.18
645.887	14.12
646.076	14.22
646.266	14.19
646.456	14.3
646.645	14.5
646.835	14.84
647.024	15.02
647.214	14.57
647.403	14.69
647.593	14.65
647.782	14.59
647.972	14.65
648.161	14.54
648.351	14.52
648.54	14.56
648.73	14.38
648.919	14.12
649.108	14.11
649.298	13.96
649.487	13.99
649.677	14.01
649.866	14.12
650.055	14.24
650.244	14.44
650.434	14.67
650.623	14.6
650.812	14.75
651.002	14.81
651.191	14.66
651.38	14.83
651.569	14.73
651.758	14.78
651.947	14.96
652.137	14.64
652.326	14.56
652.515	14.27
652.704	14.37
652.893	14.48
653.082	14.54
653.271	14.59
653.46	14.92
653.649	14.96
653.838	14.85
654.027	14.85
654.216	14.86
654.405	14.78
654.594	14.92
654.783	14.89
654.972	14.55
655.161	14.64
655.35	14.55
655.539	14.37
655.728	14.43
655.916	14.34
656.105	14.02
656.294	14.21
656.483	14.49
656.672	14.48
656.86	14.43
657.049	14.67
657.238	14.67
657.427	14.76
657.615	14.81
657.804	14.76
657.993	14.92
658.181	15.1
658.37	15
658.559	14.81
658.747	14.99
658.936	15.06
659.125	15
659.313	14.97
659.502	14.97
659.69	14.86
659.879	14.91
660.067	14.99
660.256	14.93
660.444	14.95
660.633	14.9
660.821	14.68
661.01	14.57
661.198	14.47
661.387	14.42
661.575	14.59
661.763	14.51
661.952	14.53
662.14	14.53
662.328	14.49
662.517	14.59
662.705	14.79
662.893	14.86
663.082	15.05
663.27	15.13
663.458	14.97
663.646	14.71
663.834	14.87
664.023	14.97
664.211	14.8
664.399	14.86
664.587	14.74
664.775	14.53
664.963	14.3
665.152	13.96
665.34	13.76
665.528	13.98
665.716	14.13
665.904	14.18
666.092	13.96
666.28	14.11
666.468	14.22
666.656	14.31
666.844	14.46
667.032	14.53
667.22	14.72
667.408	15
667.596	15.02
667.784	14.84
667.971	14.78
668.159	14.87
668.347	14.89
668.535	14.82
668.723	14.64
668.911	14.57
669.098	14.88
669.286	14.92
669.474	14.8
669.662	14.7
669.849	15.17
670.037	15.37
670.225	15.57
670.413	15.39
670.6	15.5
670.788	15.57
670.976	15.33
671.163	15.13
671.351	15.15
671.538	15.29
671.726	15.37
671.913	15.01
672.101	14.8
672.289	14.59
672.476	14.69
672.664	14.63
672.851	14.74
673.039	14.98
673.226	14.98
673.413	15.09
673.601	15.01
673.788	15.15
673.976	15.39
674.163	15.19
674.35	15.37
674.538	15.36
674.725	15.22
674.912	15.35
675.1	15.49
675.287	15.6
675.474	15.53
675.662	15.47
675.849	15.29
676.036	15.34
676.223	15.73
676.411	15.64
676.598	15.77
676.785	15.79
676.972	16.07
677.159	16.04
677.346	16.01
677.533	15.96
677.721	15.92
677.908	15.84
678.095	15.57
678.282	15.68
678.469	15.63
678.656	15.53
678.843	15.56
679.03	15.24
679.217	15.23
679.404	15.15
679.591	15.07
679.778	15.27
679.964	15.35
680.151	15.47
680.338	15.31
680.525	15.01
680.712	15.05
680.899	15.04
681.086	15.07
681.272	14.9
681.459	14.89
681.646	14.67
681.833	14.67
682.02	14.75
682.206	14.61
682.393	14.76
682.58	15.32
682.766	15.22
682.953	15.05
683.14	15.09
683.326	15.35
683.513	15.22
683.7	15.51
683.886	15.41
684.073	15.47
684.259	15.47
684.446	15.21
684.632	15.09
684.819	15.13
685.005	15.44
685.192	15.33
685.378	15.24
685.565	15.43
685.751	15.44
685.938	15.17
686.124	14.97
686.31	15.26
686.497	15.42
686.683	15.32
686.87	15.31
687.056	15.05
687.242	15.06
687.429	15.05
687.615	14.91
687.801	14.93
687.987	15
688.174	14.98
688.36	14.63
688.546	14.52
688.732	14.34
688.918	14.18
689.105	14.42
689.291	14.51
689.477	14.28
689.663	14.17
689.849	14.09
690.035	14.36
690.221	14.1
690.407	14.19
690.593	14.26
690.779	14.61
690.965	14.75
691.151	14.41
691.337	13.99
691.523	14.16
691.709	14.12
691.895	14.2
692.081	14.26
692.267	14.53
692.453	14.46
692.639	14.46
692.825	14.01
693.011	13.99
693.196	14.44
693.382	14.69
693.568	14.72
693.754	14.87
693.94	14.96
694.125	14.77
694.311	14.44
694.497	14.55
694.682	14.49
694.868	14.87
695.054	15.01
695.239	14.75
695.425	15.04
695.611	14.82
695.796	14.98
695.982	14.97
696.168	15.25
696.353	15.67
696.539	15.58
696.724	15.57
696.91	15.74
697.095	15.56
697.281	15.67
697.466	15.67
697.652	15.91
697.837	15.96
698.023	15.86
698.208	15.61
698.393	15.58
698.579	15.57
698.764	15.54
698.949	15.19
699.135	15.33
699.32	15.31
699.505	15
699.691	15.03
699.876	14.92
700.061	15.18
700.246	14.87
700.432	15.09
700.617	14.94
700.802	14.59
700.987	14.65
701.172	14.6
701.358	14.49
701.543	15
701.728	15.03
701.913	15.01
702.098	14.62
702.283	15.14
702.468	15.02
702.653	15.42
702.838	16.01
703.023	15.94
703.208	15.68
703.393	15.92
703.578	15.88
703.763	15.69
703.948	15.68
704.133	15.68
704.318	15.68
704.503	15.18
704.688	15.22
704.873	15.27
705.057	15.34
705.242	15.84
705.427	16.03
705.612	15.93
705.797	15.76
705.981	15.6
706.166	15.69
706.351	15.6
706.536	15.95
706.72	15.95
706.905	15.67
707.09	15.93
707.274	15.97
707.459	15.96
707.644	16.01
707.828	15.84
708.013	16.02
708.197	16.27
708.382	16.3
708.567	16.3
708.751	16.21
708.936	16.47
709.12	16.39
709.305	16.16
709.489	16.01
709.673	15.79
709.858	15.73
710.042	15.71
710.227	15.58
710.411	15.46
710.596	15.31
710.78	15.34
710.964	14.81
711.149	14.67
711.333	14.58
711.517	14.5
711.702	14.77
711.886	15.14
712.07	15.19
712.254	15.29
712.438	15.34
712.623	15.65
712.807	15.49
712.991	15.88
713.175	16.07
713.359	16.25
713.544	16.11
713.728	16.18
713.912	16.28
714.096	16.31
714.28	15.76
714.464	15.93
714.648	15.77
714.832	16.04
715.016	16.27
715.2	16.26
715.384	16.37
715.568	16.73
715.752	16.35
715.936	16.47
716.12	16.52
716.304	17.36
716.488	17.61
716.671	17.8
716.855	18.01
717.039	17.64
717.223	17.54
717.407	17.11
717.59	16.72
717.774	17.22
717.958	17.05
718.142	17.15
718.325	16.21
718.509	16.02
718.693	15.6
718.877	15.28
719.06	15.53
719.244	15.66
719.428	15.82
719.611	15.99
719.795	15.62
719.978	15.3
720.162	15.07
720.345	15.96
720.529	15.76
720.713	16.08
720.896	16.02
721.08	15.63
721.263	15.63
721.446	15.86
721.63	16.32
721.813	16.82
721.997	17
722.18	17.39
722.364	17.24
722.547	17.46
722.73	17.47
722.914	17.75
723.097	17.92
723.28	17.94
723.464	17.8
723.647	17.43
723.83	17.19
724.013	17.02
724.197	16.2
724.38	15.69
724.563	15.18
724.746	14.93
724.929	14.78
725.112	14.87
725.296	14.84
725.479	14.92
725.662	15.09
725.845	14.72
726.028	14.62
726.211	14.84
726.394	15.2
726.577	15.4
726.76	15.56
726.943	15.09
727.126	15.12
727.309	15.25
727.492	15.3
727.675	15.01
727.858	15.31
728.041	15.83
728.224	15.91
728.407	15.81
728.589	15.9
728.772	15.8
728.955	16.14
729.138	15.95
729.321	15.63
729.503	15.39
729.686	14.87
729.869	14.84
730.052	14.26
730.234	13.98
730.417	14.07
730.6	14.08
730.782	13.82
730.965	13.97
731.148	14.32
731.33	14.82
731.513	14.91
731.695	15.37
731.878	15.35
732.061	15.59
732.243	16.08
732.426	15.82
732.608	15.32
732.791	15.66
732.973	15.61
733.156	15.07
733.338	14.48
733.52	14.16
733.703	14.01
733.885	13.92
734.068	14.11
734.25	13.79
734.432	13.76
734.615	14.28
734.797	14.25
734.979	13.53
735.162	14.14
735.344	14.45
735.526	14.9
735.708	15.05
735.891	15.41
736.073	15.26
736.255	15.96
736.437	16.24
736.619	15.97
736.802	15.53
736.984	16.72
737.166	16.35
737.348	16.9
737.53	16.82
737.712	16.64
737.894	16.29
738.076	16.49
738.258	15.65
738.44	15.52
738.622	15.95
738.804	16.21
738.986	15.33
739.168	15.08
739.35	14.7
739.532	14.78
739.714	14.77
739.896	14.57
740.078	14.33
740.259	15.05
740.441	14.34
740.623	14.23
740.805	14.51
740.987	14.83
741.168	15.12
741.35	14.47
741.532	14.38
741.714	14.5
741.895	14.49
742.077	14.32
742.259	14.04
742.44	14.74
742.622	14.74
742.804	14.52
742.985	14.94
743.167	15.1
743.348	15.52
743.53	15.28
743.711	15.41
743.893	15.82
744.075	15.98
744.256	15.36
744.438	15.62
744.619	15.33
744.8	14.6
744.982	14.09
745.163	13.65
745.345	12.97
745.526	13.3
745.707	13.41
745.889	12.94
746.07	12.51
746.252	13.34
746.433	13.19
746.614	13.77
746.795	14.26
746.977	14.84
747.158	15.24
747.339	16.15
747.52	16.57
747.702	16.5
747.883	16.45
748.064	17.28
748.245	17.38
748.426	17.43
748.607	17.54
748.788	17.57
748.97	17.58
749.151	17.7
749.332	17.59
749.513	17.37
749.694	17.71
749.875	17.76
750.056	18.13
750.237	17.49
750.418	17.03
750.599	16.7
750.78	16.31
750.96	15.25
751.141	15.39
751.322	15.4
751.503	14.75
751.684	14.15
751.865	14.02
752.046	13.43
752.226	13.82
752.407	13.44
752.588	13.59
752.769	14.44
752.949	14.67
753.13	14.31
753.311	13.45
753.492	13.76
753.672	14.14
753.853	14.25
754.034	13.73
754.214	13.86
754.395	14.26
754.575	13.8
754.756	13.47
754.937	13.52
755.117	13.66
755.298	14.27
755.478	14.14
755.659	14.53
755.839	14.44
756.02	14.24
756.2	13.64
756.381	13.75
756.561	14.11
756.741	14.48
756.922	15.04
757.102	15
757.283	16.06
757.463	16
757.643	15.47
757.823	15.46
758.004	15.18
758.184	15.94
758.364	16.46
758.545	16.54
758.725	16.64
758.905	16.64
759.085	16.73
759.265	15.74
759.446	15.8
759.626	15.47
759.806	16.4
759.986	17.16
760.166	16.2
760.346	16.07
760.526	15.82
760.706	15.87
760.886	15.56
761.066	15.39
761.246	15.48
761.426	15.62
761.606	16.04
761.786	15.95
761.966	15.99
762.146	16.32
762.326	16.78
762.506	16.82
762.686	16.65
762.866	16.59
763.046	16.43
763.225	16.28
763.405	16.4
763.585	16.37
763.765	16.12
763.945	16.12
764.124	16.36
764.304	15.98
764.484	15.87
764.664	16.24
764.843	16.25
765.023	16.37
765.203	16.97
765.382	17.16
765.562	17.01
765.741	16.93
765.921	17.26
766.101	17.16
766.28	16.41
766.46	16.76
766.639	16.48
766.819	16.55
766.998	15.73
767.178	15.17
767.357	14.65
767.537	14.76
767.716	15.03
767.896	14.56
768.075	14.74
768.254	15.41
768.434	15.15
768.613	14.7
768.792	14.81
768.972	15.52
769.151	16.22
769.33	16.04
769.51	15.87
769.689	16.14
769.868	15.35
770.047	15.55
770.226	15.56
770.406	15.45
770.585	15.23
770.764	14.86
770.943	14.86
771.122	12.66
771.301	12.85
771.48	13.22
771.66	12.72
771.839	14.02
772.018	13.27
772.197	13.82
772.376	15.01
772.555	15.15
772.734	15.23
772.913	16.15
773.092	17.43
773.271	18
773.449	17.66
773.628	16.99
773.807	17.29
773.986	17.52
774.165	16.17
774.344	15.05
774.523	14.5
774.701	15.24
774.88	15.78
775.059	15.78
775.238	15.99
775.417	16.21
775.595	17.05
775.774	16.04
775.953	15.87
776.131	16.2
776.31	16.2
776.489	16.91
776.667	16.66
776.846	14.95
777.025	14.76
777.203	14.89
777.382	14.67
777.56	14.53
777.739	14.58
777.917	15.32
778.096	15.99
778.274	15.69
778.453	15.16
778.631	14.5
778.81	15.64
778.988	16.2
779.166	14.74
779.345	14.21
779.523	14.34
779.702	14.63
779.88	14.23
780.058	15.16
780.237	15.2
780.415	15.13
780.593	15.71
780.771	15.62
780.95	14.39
781.128	15.27
781.306	15.76
781.484	15.33
781.662	16.15
781.841	15.87
782.019	14.77
782.197	15.17
782.375	15.65
782.553	15.58
782.731	14.65
782.909	15.84
783.087	14.54
783.265	14.11
783.443	13.77
783.621	12.57
783.799	13.27
783.977	13.89
784.155	13.83
784.333	14.26
784.511	13.88
784.689	13.95
784.867	14.29
785.045	15.16
785.223	15.64
785.4	16.5
785.578	16.52
785.756	16.47
785.934	15.63
786.112	15.7
786.289	15.77
786.467	16
786.645	17.13
786.823	17
787	17.46
787.178	17.85
787.356	17.82
787.533	17.92
787.711	18.2
787.889	19.25
788.066	19.16
788.244	18.06
788.421	17.93
788.599	17.01
788.776	16.46
788.954	15.88
789.131	15.04
789.309	13.71
789.486	13.71
789.664	12.05
789.841	11.54
790.019	11.4
790.196	12.22
790.373	11.53
790.551	11.5
790.728	11.52
790.906	11.81
791.083	13.22
791.26	13.33
791.437	12.47
791.615	14.28
791.792	13.15
791.969	13.59
792.146	14.01
792.324	15.17
792.501	15.3
792.678	15.44
792.855	16.05
793.032	14.87
793.209	15.48
793.387	16.47
793.564	16.39
793.741	16.83
793.918	16.93
794.095	17.19
794.272	17.18
794.449	17.92
794.626	19.12
794.803	18.72
794.98	19.46
795.157	19.79
795.334	20.2
795.511	18.98
795.688	18.75
795.864	18.05
796.041	17.28
796.218	16.93
796.395	15.57
796.572	14.24
796.749	13.96
796.925	13.54
797.102	14.05
797.279	13.83
797.456	14.75
797.632	15.8
797.809	17.33
797.986	17.64
798.162	18.06
798.339	18.04
798.516	18.78
798.692	17.72
798.869	17.27
799.046	15.93
799.222	15.24
799.399	14.9
799.575	14.14
799.752	12.89
799.928	12.41
800.105	11.62
800.281	11.83
800.458	11
800.634	11.9
800.811	13.1
800.987	14.35
801.163	14.23
801.34	13.9
801.516	14.08
801.692	14.03
801.869	14.01
802.045	14.64
802.221	15.71
802.398	17.4
802.574	18.26
802.75	17.52
802.926	17.34
803.103	17.31
803.279	18.43
803.455	19.01
803.631	18.25
803.807	18.15
803.983	17.14
804.16	16.61
804.336	14.37
804.512	14.26
804.688	15.25
804.864	14.91
805.04	15.78
805.216	14.97
805.392	14.41
805.568	15.41
805.744	14.99
805.92	15.72
806.096	15.11
806.272	16.52
806.448	16.74
806.623	15.73
806.799	16.14
806.975	15.36
807.151	15.26
807.327	15.33
807.503	15.35
807.678	16.53
807.854	16.51
808.03	17.86
808.206	17.86
808.381	17.58
808.557	18.18
808.733	18.67
808.908	19.87
809.084	20.34
809.26	20.2
809.435	18.63
809.611	17.42
809.787	17.37
809.962	16.49
810.138	16.1
810.313	16.03
810.489	15.74
810.664	15.65
810.84	14.85
811.015	14.08
811.191	14.53
811.366	14.11
811.542	15.18
811.717	15.73
811.892	15.5
812.068	15.96
812.243	17.02
812.419	16.82
812.594	15.54
812.769	14.05
812.944	14.22
813.12	13.19
813.295	15.46
813.47	13.63
813.645	12.19
813.821	12.47
813.996	11.89
814.171	9.7
814.346	9.56
814.521	10.02
814.697	12.33
814.872	11.53
815.047	11.53
815.222	12.13
815.397	14.02
815.572	14.47
815.747	14.08
815.922	13.38
816.097	13.96
816.272	14.2
816.447	12.93
816.622	13.04
816.797	14.15
816.972	14.18
817.147	12.48
817.322	13.63
817.496	13.25
817.671	14.71
817.846	16.04
818.021	16.42
818.196	15.43
818.371	16.88
818.545	15.66
818.72	16.65
818.895	16.7
819.069	18.01
819.244	17.63
819.419	19.18
819.594	18.83
819.768	18.92
819.943	19.05
820.117	19.51
820.292	19.12
820.467	19.61
820.641	19.38
820.816	19.7
820.99	19.5
821.165	19.01
821.339	18.91
821.514	18.73
821.688	18.54
821.863	18.48
822.037	18.73
822.212	18.69
822.386	18.59
822.56	18.32
822.735	18.2
822.909	18.08
823.084	18.37
823.258	18.05
823.432	18.04
823.606	17.89
823.781	17.93
823.955	17.33
824.129	17.3
824.303	17.22
824.478	17.71
824.652	17.83
824.826	18.13
825	17.73
825.174	17.98
825.348	18.05
825.523	18.78
825.697	18.87
825.871	19.2
826.045	19.14
826.219	19.34
826.393	18.61
826.567	18.11
826.741	17.68
826.915	17.45
827.089	17.23
827.263	17.8
827.437	16.9
827.611	16.35
827.784	16.37
827.958	16.58
828.132	16.5
828.306	16.79
828.48	17.15
828.654	17.7
828.827	17.92
829.001	18.14
829.175	17.8
829.349	18.4
829.522	18.85
829.696	19.09
829.87	18.6
830.044	17.87
830.217	17.59
830.391	17.73
830.565	17.28
830.738	17.31
830.912	17.08
831.085	16.02
831.259	16.48
831.432	16.98
831.606	16.94
831.779	17.04
831.953	16.57
832.126	16.56
832.3	15.73
832.473	16.34
832.647	16.93
832.82	16.93
832.994	16.83
833.167	16.75
833.34	17.09
833.514	17.02
833.687	17.49
833.86	18.17
834.034	18.48
834.207	18.87
834.38	18.17
834.553	17.53
834.727	16.92
834.9	16.39
835.073	16.64
835.246	16.23
835.419	15.99
835.593	16.24
835.766	16.35
835.939	16.89
836.112	16.47
836.285	16.83
836.458	17.6
836.631	17.65
836.804	18.69
836.977	18.3
837.15	18
837.323	18.43
837.496	18.47
837.669	17
837.842	15.08
838.015	16.66
838.188	16.27
838.361	14.95
838.533	17.12
838.706	18.7
838.879	17.48
839.052	17.66
839.225	18.13
839.398	18.16
839.57	19.14
839.743	17.87
839.916	18.81
840.088	17.83
840.261	18.3
840.434	17.93
840.607	18.2
840.779	19.5
840.952	19.99
841.124	20.96
841.297	17.81
841.47	18.87
841.642	20
841.815	19.22
841.987	18.86
842.16	18.99
842.332	18.13
842.505	14.65
842.677	15.08
842.85	13.38
843.022	10.93
843.194	11.91
843.367	5.55
843.539	6.07
843.712	3.99
843.884	4.98
844.056	3.35
844.229	3.78
844.401	5.6
844.573	2.82
844.745	2.67
844.918	4.28
845.09	7.41
845.262	12.34
845.434	12.17
845.606	10.59
845.779	12.16
845.951	16.26
846.123	16.32
846.295	16.4
846.467	17.25
846.639	16.07
846.811	11.78
846.983	8.92
847.155	7.14
847.327	4.33
847.499	9.04
847.671	7.25
847.843	5.02
848.015	4.17
848.187	6.98
848.359	5.61
848.531	7.1
848.703	12.01
848.875	13.77
849.047	16.52
849.218	19.75
849.39	16.8
849.562	18
849.734	19.8
849.905	21.03
850.077	21.68
850.249	20.69
850.421	18.09
850.592	14.68
850.764	16.07
850.936	17.36
851.107	20.62
851.279	22.3
851.451	24.24
851.622	23.58
851.794	22.75
851.965	15.58
852.137	12.87
852.308	17
852.48	17.13
852.651	14.08
852.823	7.14
852.994	5.74
853.166	9.5
853.337	8.53
853.509	9.65
853.68	9.77
853.851	13.97
854.023	18.7
854.194	17.01
854.365	15.6
854.537	17.92
854.708	21.89
854.879	16.99
855.05	13.2
855.222	8.36
855.393	5.12
855.564	3.02
855.735	0.24
855.906	1.54
856.078	-1.94
856.249	3.56
856.42	2.87
856.591	4.3
856.762	5.71
856.933	6.37
857.104	7.68
857.275	4.25
857.446	5.71
857.617	9.1
857.788	10.9
857.959	13.65
858.13	14.65
858.301	16.83
858.472	17.44
858.643	16.16
858.814	13.8
858.985	12.49
859.155	14.08
859.326	16.28
859.497	14.72
859.668	9.25
859.839	8.67
860.009	3.73
860.18	0.9
860.351	-3.19
860.522	0.72
860.692	2.36
860.863	3.42
861.034	0.69
861.204	0.08
861.375	-5.99
861.546	-5.73
861.716	-9.26
861.887	-9.25
862.057	-8.77
862.228	-10.98
862.398	-10.58
862.569	-11.03
862.739	-11.14
862.91	-11.17
863.08	-10.27
863.251	-2.98
863.421	0.92
863.592	5.48
863.762	4.45
863.932	4.26
864.103	6.58
864.273	8.35
864.443	10.93
864.614	13.23
864.784	17.01
864.954	13.72
865.125	10.95
865.295	8.92
865.465	4.07
865.635	7.94
865.805	10.54
865.976	7.26
866.146	4.29
866.316	-2.58
866.486	-0.77
866.656	-3.7
866.826	0.4
866.996	2.87
867.166	1.05
867.336	6.75
867.506	4.25
867.676	1.43
867.846	3.61
868.016	5.24
868.186	5.65
868.356	8.03
868.526	12.5
868.696	16.58
868.866	18.24
869.036	16.74
869.206	16.18
869.376	23.19
869.545	29.07
869.715	30.17
869.885	27.83
870.055	32.23
870.224	31.43
870.394	30.94
870.564	24.65
870.734	23.15
870.903	25.31
871.073	24.98
871.243	20.43
871.412	16.48
871.582	15.53
871.751	19.18
871.921	13.77
872.091	12.1
872.26	13.59
872.43	12.79
872.599	13.74
872.769	16.67
872.938	16.73
873.108	13.78
873.277	9.34
873.446	8.6
873.616	7.28
873.785	8.17
873.955	8.69
874.124	5.82
874.293	11.06
874.463	8.73
874.632	1.75
874.801	-2.33
874.971	-2.56
875.14	-1.01
875.309	-0.02
875.478	1.6
875.647	2.05
875.817	0.24
875.986	-1.99
876.155	-6.02
876.324	-13.86
876.493	-12.76
876.662	-9.23
876.831	-2.76
877	-0.38
877.17	2.39
877.339	0.25
877.508	1.66
877.677	5.99
877.846	9.51
878.015	8.92
878.184	13.62
878.352	14.55
878.521	9.78
878.69	12.96
878.859	12.98
879.028	12.4
879.197	13.28
879.366	11.36
879.534	7.03
879.703	8.34
879.872	12.23
880.041	14.24
880.21	15.78
880.378	17.98
880.547	16.13
880.716	15.79
880.884	15.39
881.053	15.41
881.222	16.81
881.39	18.58
881.559	18.04
881.727	17.43
881.896	17.85
882.065	18.13
882.233	17.9
882.402	18.23
882.57	18.73
882.739	19.46
882.907	19.25
883.076	19.36
883.244	18.54
883.412	19.01
883.581	19
883.749	18.58
883.918	17.95
884.086	17.94
884.254	16.07
884.423	15.16
884.591	13.16
884.759	13.83
884.927	12.59
885.096	13.21
885.264	12.38
885.432	11.44
885.6	10.61
885.769	11.17
885.937	11
886.105	13.42
886.273	14.32
886.441	15.93
886.609	16.77
886.777	17.72
886.945	18.39
887.113	17.5
887.281	19.9
887.449	22.89
887.617	23.62
887.785	23.19
887.953	23.61
888.121	22.42
888.289	21.63
888.457	20.87
888.625	20.18
888.793	17.25
888.961	20.11
889.129	19.39
889.296	16.61
889.464	14.33
889.632	16.06
889.8	15.36
889.967	17.17
890.135	23.77
