Data from 2938528_Reflection_2.txt Node
Date: Tue Jun 16 21:56:20 EDT 2015
User: robert
Spectrometer: USB4E03002
Autoset integration time: false
Trigger mode: 4
Integration Time (sec): 1.000000E-1
Scans to average: 10
Electric dark correction enabled: true
Nonlinearity correction enabled: false
Boxcar width: 5
Stray light correction enabled: false
XAxis mode: Wavelengths
Stop averaging: false
Number of Pixels in Spectrum: 3648
>>>>>Begin Spectral Data<<<<<
177.575	-22.32
177.794	-21.73
178.014	19.8
178.233	19.66
178.452	5.67
178.672	13.69
178.891	59.24
179.11	833.06
179.33	1609.04
179.549	559.09
179.768	305.11
179.987	414.75
180.207	449.43
180.426	177.02
180.645	116.04
180.864	110.5
181.084	96.46
181.303	65.06
181.522	62.11
181.741	70.3
181.96	56.38
182.179	60.54
182.398	53.62
182.618	41.38
182.837	29.03
183.056	37.54
183.275	41.29
183.494	41.44
183.713	53.91
183.932	54.37
184.151	46.19
184.37	49.49
184.589	56.27
184.808	60.14
185.027	73.64
185.246	99.55
185.465	102.04
185.684	130.98
185.903	131.82
186.122	132.33
186.341	117.2
186.56	148.76
186.779	140.54
186.998	105.52
187.216	112.2
187.435	113.84
187.654	174.67
187.873	277.45
188.092	278.69
188.311	-193.4
188.53	-63.02
188.748	-173.04
188.967	-3102.08
189.186	284.11
189.405	117.25
189.623	90.52
189.842	108.74
190.061	76.29
190.28	69.87
190.498	49.55
190.717	60.39
190.936	56.37
191.154	50.64
191.373	62.84
191.592	44.39
191.81	50.03
192.029	59.21
192.248	58.98
192.466	59.87
192.685	37.77
192.904	61.07
193.122	57.57
193.341	78.55
193.559	67.28
193.778	61.73
193.996	112.46
194.215	109.99
194.433	108.34
194.652	114.89
194.87	101.85
195.089	102.33
195.307	101.17
195.526	131.05
195.744	98.72
195.963	102.78
196.181	97.19
196.399	87.59
196.618	85.5
196.836	57.8
197.055	55.9
197.273	64.82
197.491	66.01
197.71	79.79
197.928	53.76
198.146	77.67
198.365	75.62
198.583	79.57
198.801	79.42
199.019	87.07
199.238	126.42
199.456	121.84
199.674	108.71
199.892	108.16
200.111	78.58
200.329	77.01
200.547	58.99
200.765	50.9
200.983	42.42
201.202	34.65
201.42	21.08
201.638	14.3
201.856	21.62
202.074	19.19
202.292	-23.38
202.51	14.38
202.728	23.33
202.946	33.24
203.165	26.84
203.383	18.04
203.601	59.95
203.819	48.93
204.037	21.85
204.255	19.94
204.473	28.01
204.691	54.38
204.909	31.62
205.127	31.07
205.345	38.11
205.562	60.46
205.78	65.34
205.998	52.1
206.216	61.2
206.434	72.67
206.652	73.63
206.87	87.35
207.088	86.24
207.306	89.02
207.523	90.61
207.741	80.52
207.959	80.55
208.177	76.26
208.395	73.48
208.612	73.93
208.83	67.5
209.048	68.81
209.266	58.07
209.483	48.05
209.701	43.61
209.919	38.24
210.136	43.11
210.354	34.79
210.572	45.67
210.79	43.85
211.007	39.22
211.225	39.96
211.442	31.57
211.66	37.87
211.878	50.22
212.095	125.29
212.313	126.35
212.53	149.41
212.748	134.88
212.966	118.89
213.183	116.63
213.401	136.82
213.618	121.67
213.836	147.96
214.053	136.25
214.271	131.37
214.488	43.09
214.705	53.5
214.923	42.54
215.14	43.32
215.358	46.79
215.575	47.71
215.793	43.4
216.01	45.47
216.227	42.44
216.445	43.05
216.662	46.11
216.879	48.82
217.097	41.55
217.314	36.54
217.531	32.89
217.749	32.56
217.966	35.49
218.183	30.4
218.4	38.25
218.618	40.84
218.835	35.26
219.052	38.27
219.269	47.25
219.487	48
219.704	59.88
219.921	57.32
220.138	49.69
220.355	48.32
220.572	52.82
220.79	47.6
221.007	41.73
221.224	38.12
221.441	33.16
221.658	24.91
221.875	29.76
222.092	15.41
222.309	22
222.526	24.11
222.743	26.15
222.96	23.42
223.177	22.86
223.394	20.44
223.611	23.48
223.828	28.22
224.045	27.24
224.262	25.91
224.479	24.79
224.696	21.9
224.913	22.33
225.13	19.43
225.347	18.82
225.564	17.46
225.781	17.97
225.997	16.36
226.214	14.14
226.431	12.99
226.648	12.56
226.865	13.76
227.082	12.44
227.298	11.39
227.515	11.25
227.732	11.78
227.949	11.07
228.165	10.47
228.382	10.33
228.599	10.52
228.816	11.19
229.032	10.97
229.249	9.29
229.466	9.41
229.682	10.38
229.899	11.67
230.116	10.55
230.332	12.11
230.549	12.71
230.765	12.76
230.982	15.01
231.199	15.38
231.415	15.92
231.632	16.96
231.848	18.35
232.065	16.24
232.281	15.55
232.498	15.58
232.714	15.05
232.931	15.58
233.147	16.89
233.364	15.46
233.58	15.05
233.797	13.43
234.013	16.2
234.23	16.5
234.446	15.18
234.662	13.7
234.879	13.55
235.095	13.54
235.312	11.99
235.528	12.11
235.744	10.81
235.961	8.94
236.177	9.63
236.393	8.67
236.61	8.46
236.826	11.69
237.042	14.03
237.258	15.15
237.475	15.7
237.691	16.93
237.907	16.65
238.123	16.35
238.339	17.44
238.556	16.53
238.772	15.88
238.988	15.78
239.204	14.55
239.42	13.22
239.636	12.16
239.853	11.32
240.069	10.79
240.285	10.32
240.501	9.53
240.717	8.81
240.933	8.44
241.149	8.28
241.365	8.03
241.581	8.31
241.797	8.68
242.013	8.79
242.229	9.27
242.445	9.3
242.661	9.03
242.877	10.11
243.093	10.07
243.309	10.97
243.525	10.19
243.741	9.06
243.957	8.22
244.173	7.32
244.388	7.51
244.604	6.4
244.82	5.91
245.036	6.18
245.252	6.04
245.468	6.47
245.683	6.4
245.899	6.44
246.115	7.11
246.331	7.16
246.547	7.5
246.762	7.82
246.978	8.67
247.194	8.73
247.409	8.77
247.625	9.36
247.841	8.78
248.057	8.84
248.272	9.38
248.488	9.19
248.703	9.11
248.919	8.62
249.135	7.11
249.35	6.02
249.566	6.73
249.782	6.98
249.997	6.45
250.213	7.07
250.428	6.96
250.644	6.61
250.859	7.09
251.075	8.12
251.29	8.56
251.506	9.13
251.721	9.46
251.937	9.74
252.152	9.48
252.368	9.16
252.583	8.88
252.798	9.82
253.014	10.79
253.229	9.82
253.445	9.33
253.66	9.43
253.875	9.28
254.091	10.07
254.306	9.43
254.521	9.53
254.737	9.07
254.952	8.43
255.167	6.91
255.383	6.65
255.598	6.6
255.813	6.4
256.028	6.14
256.244	6.62
256.459	6
256.674	6.3
256.889	6.14
257.104	6.34
257.32	6.73
257.535	6.46
257.75	6.17
257.965	6.15
258.18	6.27
258.395	6.23
258.61	5.93
258.826	6.08
259.041	6.07
259.256	6.33
259.471	6.37
259.686	6.16
259.901	6.25
260.116	6.08
260.331	6.02
260.546	5.72
260.761	5.46
260.976	5.84
261.191	5.81
261.406	5.99
261.621	5.11
261.836	4.4
262.05	5.2
262.265	5.15
262.48	6.35
262.695	6.38
262.91	6.34
263.125	7
263.34	6.44
263.555	5.83
263.769	5.58
263.984	6.26
264.199	6.84
264.414	6.35
264.629	6.76
264.843	6.29
265.058	6.42
265.273	6.15
265.488	5.99
265.702	6.49
265.917	7.52
266.132	7.29
266.346	6.97
266.561	6.87
266.776	6.45
266.99	6.27
267.205	5.87
267.42	5.82
267.634	5.98
267.849	6.29
268.063	6.04
268.278	4.99
268.492	5.06
268.707	5.28
268.922	5.43
269.136	5.5
269.351	5.15
269.565	5.1
269.78	4.74
269.994	4.96
270.209	4.75
270.423	4.83
270.637	5
270.852	4.81
271.066	4.84
271.281	4.76
271.495	4.97
271.709	5.8
271.924	5.52
272.138	5.87
272.353	5.92
272.567	5.73
272.781	5.32
272.996	5.62
273.21	5.85
273.424	5.79
273.638	5.65
273.853	5.68
274.067	5.13
274.281	5.72
274.495	5.57
274.71	5.59
274.924	5.84
275.138	6.08
275.352	5.65
275.566	5.5
275.781	5.92
275.995	5.86
276.209	5.76
276.423	5.67
276.637	6.24
276.851	6.22
277.065	6.23
277.279	6.19
277.493	6.51
277.707	6.6
277.921	6.74
278.135	5.91
278.349	6.83
278.563	6.89
278.777	7.05
278.991	6.23
279.205	6.24
279.419	6.06
279.633	6.27
279.847	5.59
280.061	5.59
280.275	5.52
280.489	5.67
280.703	5.42
280.917	5.59
281.131	5.21
281.344	5.42
281.558	5.31
281.772	5.58
281.986	5.1
282.2	5.6
282.414	5.65
282.627	5.8
282.841	6.07
283.055	5.84
283.269	5.74
283.482	5.9
283.696	5.76
283.91	6.27
284.123	5.72
284.337	5.74
284.551	5.49
284.764	5.56
284.978	5.44
285.192	5.19
285.405	5.11
285.619	5
285.833	5.27
286.046	5.43
286.26	4.91
286.473	5.38
286.687	5.94
286.9	5.99
287.114	5.61
287.327	5.71
287.541	5.73
287.754	6.01
287.968	6.1
288.181	6.02
288.395	6.01
288.608	6.54
288.822	6.5
289.035	6.19
289.248	6.13
289.462	6.64
289.675	6.3
289.889	6.56
290.102	6.25
290.315	6.48
290.529	6.28
290.742	6.02
290.955	5.78
291.169	5.87
291.382	6.26
291.595	6.64
291.808	6.67
292.022	7.45
292.235	7.21
292.448	7.71
292.661	7.54
292.875	7.75
293.088	8.11
293.301	7.52
293.514	7.18
293.727	6.97
293.94	7.1
294.153	6.8
294.367	6.35
294.58	6.07
294.793	5.88
295.006	5.74
295.219	5.88
295.432	6.02
295.645	6.26
295.858	6.34
296.071	6.14
296.284	6.04
296.497	6.28
296.71	6.41
296.923	6.82
297.136	6.71
297.349	7.05
297.562	6.99
297.775	6.91
297.988	7.21
298.201	7.52
298.414	7.69
298.626	7.58
298.839	7.44
299.052	7.26
299.265	7.32
299.478	7.55
299.691	7.63
299.903	7.65
300.116	7.47
300.329	7.57
300.542	7.79
300.755	7.74
300.967	7.85
301.18	7.88
301.393	8.16
301.605	7.8
301.818	7.69
302.031	7.67
302.243	7.4
302.456	7.55
302.669	7.51
302.881	7.52
303.094	7.52
303.307	7.59
303.519	7.61
303.732	7.87
303.944	8.03
304.157	8.18
304.37	8
304.582	8.37
304.795	8.45
305.007	8.34
305.22	8.04
305.432	8.16
305.645	8.03
305.857	8.55
306.069	8.27
306.282	8.17
306.494	7.89
306.707	7.85
306.919	7.91
307.132	8.03
307.344	8.06
307.556	8.15
307.769	8.23
307.981	8.39
308.193	8.19
308.406	8.08
308.618	8.49
308.83	8.42
309.043	8.04
309.255	7.89
309.467	7.74
309.679	7.72
309.892	7.5
310.104	7.53
310.316	7.73
310.528	7.49
310.74	7.77
310.953	7.64
311.165	7.91
311.377	8.01
311.589	7.99
311.801	7.79
312.013	7.97
312.225	8.36
312.437	7.91
312.649	7.77
312.862	7.97
313.074	7.57
313.286	7.04
313.498	7.03
313.71	7.45
313.922	7.51
314.134	7.33
314.346	7.57
314.558	7.08
314.77	7.7
314.982	7.56
315.193	7.53
315.405	7.79
315.617	8.27
315.829	8.26
316.041	8.16
316.253	8.34
316.465	8.86
316.677	8.03
316.888	8
317.1	7.84
317.312	8.1
317.524	8.39
317.736	9.03
317.947	9.6
318.159	9.24
318.371	9.13
318.583	9.25
318.794	9.07
319.006	9.36
319.218	9.74
319.43	9.69
319.641	9.32
319.853	8.91
320.064	8.63
320.276	8.08
320.488	8.27
320.699	8.57
320.911	8.43
321.123	8.25
321.334	8.7
321.546	9.14
321.757	8.61
321.969	9.09
322.18	9.21
322.392	9.04
322.603	9.01
322.815	9.22
323.026	9.35
323.238	9.68
323.449	9.79
323.661	9.42
323.872	9.1
324.083	9.32
324.295	8.92
324.506	8.81
324.718	8.74
324.929	8.97
325.14	9.2
325.352	9.27
325.563	9.25
325.774	9.32
325.986	9.55
326.197	9.7
326.408	9.95
326.62	10.13
326.831	10.42
327.042	10.66
327.253	10.55
327.464	10.62
327.676	10.35
327.887	10.28
328.098	10.34
328.309	10.56
328.52	10.58
328.732	11.03
328.943	11.17
329.154	11.5
329.365	11.49
329.576	11.5
329.787	11.28
329.998	11.69
330.209	11.38
330.42	11.69
330.631	11.4
330.842	11.16
331.053	11.08
331.264	10.94
331.475	10.54
331.686	10.51
331.897	10.69
332.108	10.81
332.319	10.85
332.53	10.8
332.741	10.34
332.952	10.32
333.163	10.43
333.374	10.36
333.585	10.25
333.795	9.71
334.006	9.95
334.217	9.6
334.428	9.39
334.639	9.34
334.849	9.46
335.06	9.78
335.271	10.22
335.482	10.1
335.692	10.26
335.903	10.36
336.114	10.56
336.325	10.21
336.535	10.88
336.746	11.15
336.957	10.92
337.167	11.33
337.378	11.34
337.589	11.31
337.799	11.11
338.01	10.9
338.22	10.92
338.431	11.84
338.642	11.72
338.852	11.51
339.063	11.25
339.273	11.06
339.484	10.76
339.694	10.49
339.905	10.21
340.115	10.55
340.326	10.23
340.536	10.23
340.746	9.48
340.957	9.73
341.167	9.74
341.378	9.97
341.588	9.93
341.799	9.87
342.009	10.19
342.219	10.33
342.43	10.44
342.64	10.63
342.85	10.65
343.061	10.84
343.271	10.51
343.481	9.78
343.691	9.42
343.902	9.64
344.112	9.81
344.322	9.7
344.532	9.69
344.743	9.55
344.953	9.34
345.163	8.99
345.373	8.77
345.583	9.05
345.793	9.27
346.004	9.43
346.214	9.22
346.424	8.94
346.634	8.9
346.844	8.99
347.054	8.89
347.264	8.96
347.474	9.14
347.684	9.05
347.894	8.76
348.104	9.23
348.314	9.5
348.524	9.72
348.734	9.3
348.944	9.64
349.154	9.77
349.364	9.77
349.574	9.59
349.784	9.62
349.994	9.91
350.204	9.81
350.413	9.51
350.623	9.28
350.833	9.29
351.043	9.92
351.253	9.49
351.463	8.91
351.672	9.07
351.882	9.33
352.092	9.52
352.302	9.22
352.511	9.32
352.721	9.41
352.931	9.7
353.141	9.48
353.35	9.55
353.56	9.73
353.77	9.95
353.979	10.19
354.189	10.12
354.399	10.05
354.608	10.39
354.818	10.65
355.027	10.78
355.237	10.49
355.447	10.48
355.656	10.34
355.866	10.08
356.075	9.81
356.285	9.46
356.494	9.43
356.704	9.38
356.913	9.32
357.123	9.15
357.332	8.9
357.542	8.86
357.751	9.21
357.96	8.92
358.17	9.27
358.379	9.53
358.589	9.68
358.798	9.4
359.007	9.16
359.217	8.9
359.426	8.87
359.635	9.03
359.845	9.08
360.054	8.8
360.263	8.95
360.472	8.66
360.682	8.43
360.891	8.36
361.1	8.64
361.309	8.93
361.519	9.05
361.728	9.1
361.937	8.92
362.146	8.91
362.355	8.96
362.564	8.85
362.774	8.94
362.983	9.04
363.192	8.96
363.401	9.01
363.61	8.76
363.819	8.82
364.028	8.64
364.237	8.48
364.446	8.54
364.655	8.35
364.864	8.51
365.073	8.44
365.282	8.47
365.491	8.37
365.7	8.33
365.909	8.41
366.118	8.09
366.327	8.21
366.536	8.08
366.745	7.92
366.954	8.15
367.162	8.14
367.371	8.23
367.58	8.21
367.789	8.05
367.998	7.93
368.207	7.66
368.415	7.84
368.624	7.69
368.833	8
369.042	8
369.25	7.98
369.459	7.87
369.668	7.83
369.877	7.7
370.085	7.99
370.294	8.17
370.503	8.21
370.711	8.32
370.92	8.22
371.129	8.17
371.337	7.96
371.546	7.68
371.754	7.7
371.963	7.63
372.171	7.56
372.38	7.37
372.589	7.12
372.797	7.24
373.006	7.13
373.214	7.32
373.423	7.27
373.631	7.45
373.84	7.7
374.048	7.55
374.256	7.53
374.465	7.67
374.673	7.86
374.882	7.94
375.09	7.8
375.298	7.86
375.507	7.84
375.715	7.9
375.923	8.1
376.132	8.05
376.34	8.1
376.548	8.09
376.757	8
376.965	7.72
377.173	7.64
377.381	7.93
377.59	7.78
377.798	7.69
378.006	7.83
378.214	7.49
378.423	7.19
378.631	7.23
378.839	7.35
379.047	7.16
379.255	7.25
379.463	7.26
379.671	6.74
379.879	6.85
380.088	6.91
380.296	6.61
380.504	6.71
380.712	6.89
380.92	6.83
381.128	6.77
381.336	7.01
381.544	6.76
381.752	6.63
381.96	6.94
382.168	6.78
382.376	6.66
382.584	6.96
382.791	6.8
382.999	6.77
383.207	6.83
383.415	6.59
383.623	6.54
383.831	6.67
384.039	6.65
384.247	6.42
384.454	6.46
384.662	6.34
384.87	5.92
385.078	6.08
385.285	6.04
385.493	5.8
385.701	5.93
385.909	5.83
386.116	5.78
386.324	5.71
386.532	5.94
386.739	5.94
386.947	6.01
387.155	6
387.362	5.67
387.57	5.72
387.778	5.7
387.985	5.53
388.193	5.5
388.4	5.35
388.608	5.5
388.816	5.28
389.023	5.21
389.231	5.2
389.438	5.48
389.646	5.73
389.853	5.89
390.061	5.84
390.268	5.88
390.475	5.91
390.683	5.99
390.89	5.75
391.098	5.75
391.305	5.74
391.512	5.79
391.72	5.57
391.927	5.29
392.135	4.97
392.342	5.13
392.549	5.15
392.756	5.07
392.964	4.97
393.171	4.97
393.378	5.07
393.586	5.14
393.793	4.91
394	5
394.207	5.18
394.414	5.25
394.622	5.22
394.829	5.16
395.036	5.12
395.243	5.21
395.45	5.28
395.657	5.1
395.864	5.04
396.072	5.36
396.279	5.28
396.486	5.26
396.693	5.12
396.9	5.04
397.107	4.85
397.314	4.93
397.521	4.97
397.728	4.94
397.935	5.11
398.142	4.96
398.349	4.87
398.556	4.75
398.763	4.83
398.97	5.02
399.177	4.89
399.383	4.96
399.59	4.84
399.797	4.91
400.004	4.8
400.211	4.72
400.418	4.75
400.625	4.64
400.831	4.79
401.038	4.65
401.245	4.62
401.452	4.7
401.658	4.7
401.865	4.86
402.072	4.79
402.279	4.83
402.485	4.78
402.692	4.91
402.899	4.84
403.105	4.65
403.312	4.75
403.519	4.67
403.725	4.6
403.932	4.6
404.138	4.47
404.345	4.37
404.552	4.48
404.758	4.5
404.965	4.42
405.171	4.49
405.378	4.56
405.584	4.64
405.791	4.65
405.997	4.79
406.204	4.8
406.41	4.82
406.617	4.86
406.823	4.81
407.029	4.84
407.236	4.9
407.442	4.96
407.649	4.94
407.855	4.68
408.061	4.83
408.268	4.8
408.474	4.77
408.68	4.86
408.887	4.93
409.093	4.91
409.299	4.77
409.505	4.72
409.712	4.54
409.918	4.7
410.124	4.63
410.33	4.45
410.537	4.38
410.743	4.45
410.949	4.23
411.155	4.19
411.361	4.11
411.567	4.22
411.773	4
411.98	4.1
412.186	4.03
412.392	4.16
412.598	4
412.804	4.08
413.01	4.12
413.216	4.22
413.422	4.24
413.628	4.27
413.834	4.12
414.04	4.16
414.246	4.03
414.452	3.89
414.658	3.92
414.864	4.17
415.07	4.1
415.275	4.14
415.481	4.09
415.687	4.12
415.893	4.08
416.099	4.16
416.305	4.24
416.511	4.27
416.716	4.25
416.922	4.21
417.128	4.19
417.334	4.15
417.539	4.02
417.745	3.99
417.951	3.92
418.157	3.97
418.362	3.99
418.568	3.94
418.774	3.96
418.979	3.96
419.185	3.9
419.391	3.75
419.596	3.73
419.802	3.73
420.008	3.72
420.213	4.03
420.419	4.03
420.624	3.94
420.83	3.89
421.035	3.89
421.241	3.92
421.446	3.91
421.652	3.99
421.857	3.99
422.063	4.02
422.268	4.07
422.474	3.76
422.679	3.74
422.885	3.71
423.09	3.74
423.295	3.71
423.501	3.72
423.706	3.75
423.911	3.72
424.117	3.77
424.322	3.78
424.527	3.77
424.733	3.73
424.938	3.68
425.143	3.81
425.349	3.86
425.554	3.8
425.759	3.77
425.964	3.73
426.169	3.77
426.375	3.66
426.58	3.64
426.785	3.53
426.99	3.59
427.195	3.6
427.4	3.64
427.605	3.59
427.811	3.62
428.016	3.55
428.221	3.64
428.426	3.66
428.631	3.72
428.836	3.74
429.041	3.89
429.246	3.84
429.451	3.78
429.656	3.54
429.861	3.59
430.066	3.7
430.271	3.73
430.476	3.67
430.681	3.61
430.886	3.64
431.09	3.57
431.295	3.45
431.5	3.37
431.705	3.38
431.91	3.54
432.115	3.47
432.32	3.38
432.524	3.37
432.729	3.41
432.934	3.41
433.139	3.39
433.343	3.35
433.548	3.46
433.753	3.54
433.958	3.52
434.162	3.53
434.367	3.59
434.572	3.73
434.776	3.71
434.981	3.73
435.186	3.65
435.39	3.6
435.595	3.59
435.799	3.46
436.004	3.41
436.209	3.5
436.413	3.4
436.618	3.37
436.822	3.28
437.027	3.35
437.231	3.23
437.436	3.27
437.64	3.26
437.845	3.31
438.049	3.31
438.253	3.36
438.458	3.33
438.662	3.33
438.867	3.33
439.071	3.25
439.275	3.22
439.48	3.3
439.684	3.31
439.888	3.36
440.093	3.31
440.297	3.32
440.501	3.31
440.706	3.34
440.91	3.33
441.114	3.29
441.318	3.36
441.523	3.4
441.727	3.4
441.931	3.43
442.135	3.48
442.339	3.46
442.543	3.47
442.748	3.4
442.952	3.32
443.156	3.32
443.36	3.4
443.564	3.34
443.768	3.27
443.972	3.31
444.176	3.27
444.38	3.22
444.584	3.21
444.788	3.28
444.992	3.33
445.196	3.32
445.4	3.31
445.604	3.26
445.808	3.27
446.012	3.29
446.216	3.16
446.42	3.23
446.624	3.18
446.828	3.27
447.032	3.18
447.235	3.15
447.439	3.15
447.643	3.14
447.847	3.11
448.051	3.09
448.254	3.08
448.458	3.17
448.662	3.06
448.866	3.1
449.069	3.06
449.273	3.08
449.477	3.09
449.681	3.1
449.884	3.18
450.088	3.2
450.292	3.24
450.495	3.31
450.699	3.37
450.902	3.38
451.106	3.32
451.31	3.23
451.513	3.22
451.717	3.3
451.92	3.37
452.124	3.33
452.327	3.33
452.531	3.37
452.734	3.27
452.938	3.18
453.141	3.33
453.345	3.32
453.548	3.31
453.752	3.34
453.955	3.27
454.158	3.1
454.362	3.04
454.565	3.08
454.769	3.02
454.972	3.13
455.175	3.07
455.379	3.03
455.582	3.09
455.785	3.2
455.988	3.23
456.192	3.31
456.395	3.42
456.598	3.5
456.801	3.41
457.005	3.41
457.208	3.37
457.411	3.4
457.614	3.34
457.817	3.36
458.021	3.35
458.224	3.29
458.427	3.25
458.63	3.21
458.833	3.23
459.036	3.18
459.239	3.19
459.442	3.2
459.645	3.19
459.848	3.09
460.051	3.08
460.254	3.04
460.457	3.1
460.66	3.06
460.863	3.12
461.066	3.14
461.269	3.28
461.472	3.33
461.675	3.31
461.878	3.41
462.081	3.54
462.284	3.55
462.486	3.47
462.689	3.46
462.892	3.51
463.095	3.49
463.298	3.35
463.5	3.38
463.703	3.24
463.906	3.33
464.109	3.31
464.311	3.23
464.514	3.24
464.717	3.35
464.92	3.35
465.122	3.36
465.325	3.31
465.528	3.47
465.73	3.35
465.933	3.45
466.135	3.45
466.338	3.44
466.541	3.52
466.743	3.57
466.946	3.64
467.148	3.54
467.351	3.41
467.553	3.52
467.756	3.52
467.958	3.54
468.161	3.5
468.363	3.44
468.566	3.46
468.768	3.49
468.971	3.42
469.173	3.47
469.375	3.57
469.578	3.75
469.78	3.61
469.983	3.43
470.185	3.38
470.387	3.39
470.59	3.38
470.792	3.34
470.994	3.33
471.196	3.35
471.399	3.25
471.601	3.3
471.803	3.12
472.005	3.33
472.208	3.43
472.41	3.5
472.612	3.55
472.814	3.57
473.016	3.67
473.218	3.75
473.421	3.64
473.623	3.66
473.825	3.57
474.027	3.61
474.229	3.53
474.431	3.58
474.633	3.52
474.835	3.5
475.037	3.44
475.239	3.27
475.441	3.14
475.643	3.3
475.845	3.26
476.047	3.34
476.249	3.42
476.451	3.35
476.653	3.36
476.855	3.35
477.057	3.3
477.258	3.33
477.46	3.37
477.662	3.4
477.864	3.31
478.066	3.32
478.268	3.29
478.469	3.23
478.671	3.23
478.873	3.2
479.075	3.27
479.276	3.32
479.478	3.24
479.68	3.26
479.882	3.22
480.083	3.24
480.285	3.25
480.487	3.26
480.688	3.23
480.89	3.25
481.091	3.2
481.293	3.17
481.495	3.14
481.696	3.16
481.898	3.14
482.099	3.12
482.301	3.1
482.502	3.1
482.704	3.09
482.905	3.11
483.107	3.12
483.308	3.12
483.51	3.11
483.711	3.09
483.913	3.08
484.114	3.08
484.315	3.12
484.517	3.14
484.718	3.09
484.92	3.12
485.121	3.09
485.322	3.06
485.524	3.07
485.725	3.07
485.926	3.09
486.127	3.11
486.329	3.1
486.53	3.12
486.731	3.11
486.932	3.14
487.134	3.1
487.335	3.12
487.536	3.13
487.737	3.15
487.938	3.13
488.139	3.16
488.341	3.16
488.542	3.17
488.743	3.18
488.944	3.2
489.145	3.22
489.346	3.21
489.547	3.21
489.748	3.17
489.949	3.23
490.15	3.21
490.351	3.18
490.552	3.18
490.753	3.18
490.954	3.18
491.155	3.19
491.356	3.18
491.557	3.2
491.758	3.24
491.959	3.24
492.159	3.18
492.36	3.25
492.561	3.32
492.762	3.36
492.963	3.4
493.164	3.35
493.364	3.35
493.565	3.33
493.766	3.35
493.967	3.33
494.167	3.4
494.368	3.43
494.569	3.48
494.769	3.48
494.97	3.49
495.171	3.52
495.371	3.56
495.572	3.57
495.773	3.59
495.973	3.65
496.174	3.66
496.375	3.65
496.575	3.68
496.776	3.69
496.976	3.72
497.177	3.72
497.377	3.76
497.578	3.82
497.778	3.8
497.979	3.82
498.179	3.75
498.38	3.77
498.58	3.83
498.78	3.84
498.981	3.89
499.181	3.87
499.382	3.89
499.582	3.86
499.782	3.87
499.983	3.92
500.183	4
500.383	4.14
500.584	4.16
500.784	4.11
500.984	4.15
501.184	4.13
501.385	4.09
501.585	4.14
501.785	4.11
501.985	4.07
502.185	4.16
502.386	4.13
502.586	4.01
502.786	4.05
502.986	4.16
503.186	4.15
503.386	4.18
503.586	4.28
503.786	4.28
503.987	4.33
504.187	4.42
504.387	4.45
504.587	4.52
504.787	4.58
504.987	4.71
505.187	4.72
505.387	4.82
505.587	4.83
505.786	4.92
505.986	4.93
506.186	4.98
506.386	4.91
506.586	4.88
506.786	4.9
506.986	4.93
507.186	4.82
507.386	4.76
507.585	4.73
507.785	4.73
507.985	4.7
508.185	4.71
508.384	4.74
508.584	4.77
508.784	4.8
508.984	4.79
509.183	4.79
509.383	4.87
509.583	4.96
509.782	4.92
509.982	4.99
510.182	5.02
510.381	5.09
510.581	5.12
510.781	5.25
510.98	5.29
511.18	5.41
511.379	5.54
511.579	5.54
511.778	5.58
511.978	5.66
512.177	5.62
512.377	5.64
512.576	5.69
512.776	5.72
512.975	5.72
513.175	5.72
513.374	5.66
513.573	5.69
513.773	5.76
513.972	5.75
514.172	5.85
514.371	5.99
514.57	6.04
514.77	6.1
514.969	6.19
515.168	6.19
515.367	6.31
515.567	6.34
515.766	6.32
515.965	6.42
516.164	6.45
516.364	6.46
516.563	6.47
516.762	6.47
516.961	6.42
517.16	6.38
517.359	6.41
517.559	6.46
517.758	6.47
517.957	6.46
518.156	6.42
518.355	6.48
518.554	6.47
518.753	6.44
518.952	6.52
519.151	6.55
519.35	6.57
519.549	6.59
519.748	6.5
519.947	6.59
520.146	6.65
520.345	6.68
520.544	6.71
520.743	6.8
520.942	6.83
521.141	6.84
521.339	6.95
521.538	6.98
521.737	7.1
521.936	7.23
522.135	7.23
522.333	7.31
522.532	7.31
522.731	7.35
522.93	7.38
523.129	7.44
523.327	7.47
523.526	7.45
523.725	7.59
523.923	7.65
524.122	7.72
524.321	7.74
524.519	7.77
524.718	7.88
524.917	7.89
525.115	7.96
525.314	8.05
525.512	8.1
525.711	8.13
525.909	8.1
526.108	8.08
526.306	8.08
526.505	8.12
526.703	8.16
526.902	8.13
527.1	8.2
527.299	8.16
527.497	8.17
527.696	8.19
527.894	8.26
528.092	8.3
528.291	8.32
528.489	8.34
528.688	8.34
528.886	8.36
529.084	8.41
529.283	8.41
529.481	8.5
529.679	8.5
529.877	8.59
530.076	8.6
530.274	8.68
530.472	8.71
530.67	8.81
530.869	8.89
531.067	8.95
531.265	9
531.463	9.04
531.661	9.07
531.859	9.07
532.057	9.06
532.255	9.05
532.454	9.02
532.652	9.08
532.85	9.14
533.048	9.15
533.246	9.15
533.444	9.14
533.642	9.16
533.84	9.2
534.038	9.29
534.236	9.32
534.434	9.34
534.632	9.4
534.83	9.48
535.027	9.49
535.225	9.59
535.423	9.63
535.621	9.71
535.819	9.73
536.017	9.73
536.215	9.76
536.412	9.82
536.61	9.92
536.808	9.98
537.006	9.93
537.203	9.98
537.401	10.05
537.599	10.11
537.797	10.16
537.994	10.25
538.192	10.33
538.39	10.39
538.587	10.48
538.785	10.56
538.983	10.58
539.18	10.63
539.378	10.63
539.575	10.6
539.773	10.55
539.97	10.6
540.168	10.61
540.366	10.67
540.563	10.69
540.761	10.69
540.958	10.67
541.155	10.69
541.353	10.72
541.55	10.71
541.748	10.72
541.945	10.86
542.143	10.85
542.34	10.84
542.537	10.88
542.735	10.88
542.932	10.84
543.129	10.91
543.327	10.92
543.524	11.06
543.721	11.15
543.919	11.25
544.116	11.31
544.313	11.41
544.51	11.56
544.708	11.61
544.905	11.69
545.102	11.84
545.299	11.85
545.496	11.86
545.693	11.81
545.891	11.88
546.088	11.9
546.285	11.93
546.482	11.96
546.679	11.95
546.876	11.98
547.073	12.07
547.27	12.16
547.467	12.16
547.664	12.27
547.861	12.38
548.058	12.39
548.255	12.52
548.452	12.57
548.649	12.68
548.846	12.75
549.043	12.78
549.24	12.78
549.437	12.81
549.633	13.02
549.83	12.99
550.027	13.02
550.224	13.05
550.421	13.1
550.618	13.03
550.814	13.06
551.011	13.06
551.208	13.14
551.405	13.18
551.601	13.17
551.798	13.11
551.995	13.23
552.191	13.3
552.388	13.44
552.585	13.43
552.781	13.55
552.978	13.48
553.175	13.55
553.371	13.54
553.568	13.52
553.764	13.61
553.961	13.77
554.157	13.87
554.354	13.89
554.55	13.95
554.747	14.03
554.943	14.07
555.14	14.35
555.336	14.51
555.533	14.58
555.729	14.73
555.926	14.74
556.122	14.77
556.318	14.89
556.515	14.98
556.711	14.92
556.907	14.99
557.104	15.1
557.3	15.08
557.496	15.15
557.693	15.27
557.889	15.43
558.085	15.58
558.281	15.73
558.478	15.73
558.674	15.82
558.87	15.91
559.066	16.02
559.262	16.12
559.459	16.11
559.655	16.13
559.851	16.09
560.047	16.09
560.243	16.12
560.439	16.09
560.635	16.13
560.831	16.07
561.027	16.16
561.223	16.17
561.419	16.17
561.615	16.18
561.811	16.25
562.007	16.36
562.203	16.41
562.399	16.48
562.595	16.54
562.791	16.67
562.987	16.84
563.183	17.02
563.379	17.12
563.575	17.25
563.771	17.32
563.966	17.38
564.162	17.44
564.358	17.61
564.554	17.66
564.75	17.67
564.945	17.71
565.141	17.71
565.337	17.67
565.533	17.64
565.728	17.6
565.924	17.73
566.12	17.88
566.315	17.98
566.511	17.9
566.707	17.9
566.902	18.02
567.098	18.18
567.293	18.26
567.489	18.25
567.684	18.24
567.88	18.31
568.076	18.26
568.271	18.28
568.467	18.35
568.662	18.47
568.858	18.6
569.053	18.59
569.248	18.55
569.444	18.66
569.639	18.74
569.835	18.98
570.03	19.14
570.225	19.33
570.421	19.45
570.616	19.45
570.812	19.49
571.007	19.57
571.202	19.66
571.397	19.71
571.593	19.68
571.788	19.72
571.983	19.76
572.178	19.68
572.374	19.67
572.569	19.63
572.764	19.74
572.959	19.75
573.154	19.73
573.35	19.77
573.545	19.81
573.74	19.92
573.935	20.02
574.13	20
574.325	20.08
574.52	20.18
574.715	20.22
574.91	20.16
575.105	20.33
575.3	20.47
575.495	20.55
575.69	20.54
575.885	20.61
576.08	20.67
576.275	20.71
576.47	20.73
576.665	20.69
576.86	20.7
577.055	20.91
577.25	20.95
577.444	20.93
577.639	21.05
577.834	21.05
578.029	20.94
578.224	20.99
578.418	21.01
578.613	21.12
578.808	21.18
579.003	21.18
579.197	21.17
579.392	21.23
579.587	21.38
579.781	21.27
579.976	21.4
580.171	21.57
580.365	21.6
580.56	21.75
580.755	21.76
580.949	21.77
581.144	21.91
581.338	21.99
581.533	21.98
581.727	21.88
581.922	21.93
582.116	22.05
582.311	21.99
582.505	22.04
582.7	22.02
582.894	22.13
583.089	22.11
583.283	21.99
583.478	21.95
583.672	21.96
583.866	22.09
584.061	22.07
584.255	21.92
584.449	22.16
584.644	22.12
584.838	22.23
585.032	22.24
585.226	22.34
585.421	22.46
585.615	22.64
585.809	22.59
586.003	22.6
586.198	22.86
586.392	23.02
586.586	22.87
586.78	22.94
586.974	22.94
587.168	23.1
587.363	23.17
587.557	23.27
587.751	23.1
587.945	23.09
588.139	23.15
588.333	23.02
588.527	23
588.721	23.09
588.915	23.05
589.109	23.14
589.303	22.96
589.497	22.86
589.691	22.67
589.885	22.73
590.079	22.93
590.273	22.9
590.466	22.91
590.66	22.89
590.854	22.82
591.048	22.9
591.242	22.79
591.436	22.77
591.629	22.98
591.823	23.21
592.017	23.35
592.211	23.23
592.404	23.25
592.598	23.31
592.792	23.48
592.986	23.57
593.179	23.64
593.373	23.71
593.567	23.94
593.76	23.96
593.954	24.04
594.147	24.02
594.341	24.14
594.535	24.19
594.728	24.2
594.922	24.15
595.115	24.19
595.309	24.02
595.502	24.07
595.696	24.02
595.889	23.97
596.083	23.87
596.276	23.95
596.47	24.02
596.663	23.96
596.856	23.94
597.05	23.99
597.243	23.93
597.437	24.11
597.63	24.02
597.823	23.96
598.017	23.94
598.21	24.01
598.403	23.81
598.596	23.73
598.79	23.8
598.983	23.82
599.176	23.82
599.369	24.08
599.563	24.14
599.756	24.24
599.949	24.38
600.142	24.41
600.335	24.35
600.528	24.53
600.722	24.65
600.915	24.72
601.108	24.82
601.301	24.9
601.494	24.74
601.687	24.78
601.88	24.75
602.073	24.59
602.266	24.63
602.459	24.7
602.652	24.67
602.845	24.67
603.038	24.62
603.231	24.78
603.424	24.77
603.617	24.9
603.809	24.8
604.002	24.8
604.195	24.98
604.388	25.07
604.581	25.06
604.774	25.2
604.966	25.13
605.159	25.16
605.352	25.04
605.545	25.04
605.737	24.9
605.93	25.07
606.123	25.16
606.316	25.18
606.508	25.24
606.701	25.39
606.894	25.3
607.086	25.39
607.279	25.34
607.471	25.36
607.664	25.44
607.857	25.43
608.049	25.41
608.242	25.36
608.434	25.43
608.627	25.43
608.819	25.28
609.012	25.3
609.204	25.29
609.397	25.38
609.589	25.35
609.782	25.28
609.974	25.38
610.166	25.41
610.359	25.5
610.551	25.36
610.743	25.38
610.936	25.44
611.128	25.6
611.32	25.42
611.513	25.54
611.705	25.57
611.897	25.46
612.09	25.51
612.282	25.61
612.474	25.48
612.666	25.55
612.858	25.44
613.051	25.54
613.243	25.22
613.435	25.58
613.627	25.62
613.819	25.61
614.011	26.06
614.203	26.05
614.395	25.98
614.588	26.13
614.78	26.23
614.972	26.27
615.164	26.25
615.356	26.24
615.548	26.08
615.74	26.06
615.932	26.07
616.124	25.74
616.315	25.84
616.507	25.95
616.699	26.12
616.891	26.11
617.083	26.21
617.275	26.39
617.467	26.47
617.659	26.62
617.85	26.76
618.042	26.8
618.234	26.84
618.426	26.97
618.618	26.82
618.809	26.61
619.001	26.5
619.193	26.59
619.384	26.47
619.576	26.61
619.768	26.46
619.959	26.18
620.151	26.51
620.343	26.46
620.534	26.46
620.726	26.52
620.917	26.84
621.109	26.71
621.301	26.61
621.492	26.57
621.684	26.63
621.875	26.83
622.067	27.01
622.258	26.82
622.45	26.94
622.641	26.91
622.832	26.93
623.024	26.82
623.215	27.03
623.407	27.18
623.598	27.34
623.789	27.34
623.981	27.37
624.172	27.33
624.363	27.34
624.555	27.37
624.746	27.26
624.937	27.31
625.129	27.48
625.32	27.65
625.511	27.53
625.702	27.45
625.893	27.45
626.085	27.3
626.276	27.26
626.467	27.29
626.658	27.12
626.849	27.19
627.04	27.07
627.231	26.92
627.422	26.81
627.614	26.96
627.805	26.93
627.996	26.93
628.187	27.2
628.378	27.2
628.569	27.12
628.76	27.5
628.951	27.57
629.142	27.57
629.332	27.67
629.523	27.63
629.714	27.6
629.905	27.73
630.096	27.65
630.287	27.69
630.478	27.75
630.669	27.82
630.859	27.62
631.05	27.58
631.241	27.84
631.432	27.69
631.623	27.8
631.813	27.84
632.004	27.83
632.195	27.86
632.385	27.71
632.576	27.71
632.767	27.83
632.957	28.05
633.148	28.07
633.339	28.03
633.529	28.03
633.72	28.02
633.91	27.99
634.101	27.85
634.292	27.89
634.482	27.7
634.673	27.87
634.863	27.76
635.054	27.78
635.244	27.82
635.435	27.76
635.625	27.8
635.815	27.93
636.006	27.74
636.196	27.96
636.387	28.04
636.577	28.17
636.767	28.11
636.958	28.22
637.148	28.16
637.338	28.04
637.529	28.11
637.719	28.28
637.909	28.19
638.099	28.34
638.29	28.33
638.48	28.49
638.67	28.57
638.86	28.69
639.05	28.55
639.241	28.24
639.431	28.07
639.621	28.24
639.811	28.22
640.001	28.1
640.191	28.14
640.381	27.93
640.571	27.81
640.761	27.79
640.951	27.59
641.141	27.66
641.331	27.67
641.521	27.98
641.711	27.92
641.901	28.01
642.091	28.07
642.281	27.95
642.471	28.16
642.661	28.25
642.851	28.35
643.041	28.35
643.231	28.33
643.42	28.46
643.61	28.41
643.8	28.27
643.99	28.26
644.18	28.27
644.369	28.49
644.559	28.4
644.749	28.39
644.939	28.19
645.128	28.27
645.318	28.36
645.508	28.46
645.697	28.46
645.887	28.46
646.076	28.25
646.266	28.21
646.456	28.11
646.645	28.3
646.835	27.93
647.024	28.11
647.214	28.11
647.403	28.16
647.593	28.27
647.782	28.26
647.972	28.41
648.161	28.41
648.351	28.49
648.54	28.51
648.73	28.44
648.919	29.01
649.108	29.07
649.298	28.93
649.487	28.87
649.677	28.71
649.866	28.64
650.055	28.46
650.244	28.4
650.434	28.53
650.623	28.64
650.812	28.72
651.002	28.32
651.191	28.27
651.38	28.47
651.569	28.35
651.758	28.33
651.947	28.66
652.137	28.7
652.326	29.14
652.515	29.13
652.704	28.97
652.893	28.64
653.082	28.94
653.271	28.97
653.46	29
653.649	29.25
653.838	29.55
654.027	29.28
654.216	29.26
654.405	28.95
654.594	28.72
654.783	28.87
654.972	29.01
655.161	29.04
655.35	28.94
655.539	29.03
655.728	29.13
655.916	28.82
656.105	28.74
656.294	29.08
656.483	29.13
656.672	29.27
656.86	29.31
657.049	29.41
657.238	29.36
657.427	29.47
657.615	29.39
657.804	29.23
657.993	29.29
658.181	29.48
658.37	29.4
658.559	29.39
658.747	29.25
658.936	29.43
659.125	29.38
659.313	29.42
659.502	29.55
659.69	29.46
659.879	29.46
660.067	29.59
660.256	29.64
660.444	29.59
660.633	29.64
660.821	29.87
661.01	29.56
661.198	29.56
661.387	29.42
661.575	29.28
661.763	29.44
661.952	29.53
662.14	29.48
662.328	29.26
662.517	29.01
662.705	29.09
662.893	29.08
663.082	29.37
663.27	29.42
663.458	29.5
663.646	29.42
663.834	29.39
664.023	29.4
664.211	29.37
664.399	29.64
664.587	29.67
664.775	29.44
664.963	29.48
665.152	29.36
665.34	29.37
665.528	29.34
665.716	29.35
665.904	29.41
666.092	29.39
666.28	29.32
666.468	29.44
666.656	29.67
666.844	30.16
667.032	30.1
667.22	29.94
667.408	29.68
667.596	29.93
667.784	29.96
667.971	29.82
668.159	29.6
668.347	29.73
668.535	29.44
668.723	29.31
668.911	29.02
669.098	29.03
669.286	29.12
669.474	29.33
669.662	29.19
669.849	29.27
670.037	29.46
670.225	29.78
670.413	29.73
670.6	29.97
670.788	30.15
670.976	30.33
671.163	30.37
671.351	30.3
671.538	30.31
671.726	30.41
671.913	30.18
672.101	30.13
672.289	29.92
672.476	30.1
672.664	29.91
672.851	30.01
673.039	29.76
673.226	29.83
673.413	30.02
673.601	30.25
673.788	30.07
673.976	30.2
674.163	30.12
674.35	30.37
674.538	30.36
674.725	30.54
674.912	30.19
675.1	30.26
675.287	30.26
675.474	30.17
675.662	30.15
675.849	30.4
676.036	30.56
676.223	30.67
676.411	30.25
676.598	30.15
676.785	30.02
676.972	30.15
677.159	30.09
677.346	30
677.533	30.09
677.721	30.08
677.908	30.02
678.095	30.08
678.282	30.11
678.469	30.33
678.656	30.12
678.843	30.23
679.03	30.33
679.217	30.66
679.404	30.64
679.591	30.54
679.778	30.55
679.964	30.55
680.151	30.51
680.338	30.45
680.525	30.31
680.712	30.68
680.899	30.69
681.086	30.65
681.272	30.55
681.459	30.78
681.646	30.99
681.833	30.92
682.02	30.85
682.206	30.73
682.393	30.82
682.58	31.09
682.766	30.92
682.953	30.86
683.14	30.87
683.326	30.94
683.513	31.11
683.7	31.26
683.886	31.38
684.073	31.26
684.259	31.5
684.446	31.56
684.632	31.54
684.819	31.58
685.005	31.69
685.192	31.96
685.378	31.98
685.565	31.74
685.751	31.45
685.938	31.66
686.124	31.61
686.31	31.34
686.497	31.01
686.683	31.16
686.87	31.06
687.056	30.85
687.242	30.81
687.429	30.5
687.615	30.46
687.801	30.33
687.987	30.15
688.174	30.43
688.36	30.91
688.546	31.18
688.732	30.96
688.918	30.82
689.105	30.96
689.291	30.97
689.477	30.77
689.663	31
689.849	30.79
690.035	30.67
690.221	30.6
690.407	30.53
690.593	30.68
690.779	30.72
690.965	31.23
691.151	31.5
691.337	31.44
691.523	31.82
691.709	31.64
691.895	32.44
692.081	32.42
692.267	32.55
692.453	32.19
692.639	32.06
692.825	32.3
693.011	32.19
693.196	32.04
693.382	32.25
693.568	32.01
693.754	31.98
693.94	31.64
694.125	31.94
694.311	31.58
694.497	31.44
694.682	31.42
694.868	31.36
695.054	31.14
695.239	31.15
695.425	30.85
695.611	31.16
695.796	31.2
695.982	31.07
696.168	30.8
696.353	30.69
696.539	31.03
696.724	31.31
696.91	31.22
697.095	31.32
697.281	31
697.466	30.9
697.652	30.69
697.837	30.77
698.023	30.71
698.208	30.82
698.393	31.28
698.579	30.93
698.764	30.75
698.949	30.84
699.135	30.76
699.32	30.97
699.505	31.13
699.691	31.13
699.876	31.16
700.061	31.36
700.246	31.26
700.432	30.81
700.617	31.25
700.802	30.83
700.987	30.77
701.172	31.1
701.358	31.35
701.543	31.27
701.728	31.49
701.913	31.53
702.098	31.36
702.283	31.89
702.468	32.31
702.653	32.35
702.838	32.85
703.023	32.42
703.208	32.05
703.393	31.95
703.578	32.17
703.763	32.13
703.948	31.9
704.133	32.28
704.318	31.68
704.503	31.75
704.688	31.95
704.873	31.68
705.057	32.01
705.242	32.09
705.427	32.23
705.612	32.07
705.797	32.18
705.981	32.27
706.166	32.13
706.351	32.31
706.536	31.47
706.72	30.84
706.905	31.23
707.09	30.91
707.274	30.75
707.459	30.61
707.644	30.65
707.828	30.65
708.013	30.53
708.197	30.33
708.382	30.05
708.567	30.5
708.751	30.72
708.936	30.41
709.12	30.97
709.305	31.19
709.489	31.22
709.673	31.34
709.858	31.4
710.042	31.61
710.227	31.94
710.411	32.29
710.596	32.15
710.78	32.03
710.964	32.28
711.149	32.4
711.333	32.62
711.517	32.63
711.702	32.54
711.886	32.7
712.07	32.44
712.254	32.2
712.438	32.12
712.623	32.4
712.807	32.57
712.991	32.6
713.175	32.29
713.359	32.05
713.544	31.9
713.728	31.82
713.912	31.65
714.096	31.74
714.28	31.63
714.464	31.85
714.648	31.48
714.832	31.53
715.016	31.46
715.2	31.41
715.384	31.33
715.568	31.77
715.752	31.54
715.936	31.57
716.12	31.44
716.304	32.06
716.488	31.79
716.671	32.1
716.855	32.43
717.039	32.41
717.223	32.46
717.407	32.26
717.59	32.06
717.774	32.4
717.958	32.42
718.142	32.44
718.325	32.07
718.509	31.7
718.693	31.85
718.877	31.17
719.06	31.11
719.244	31.43
719.428	31.45
719.611	30.9
719.795	30.91
719.978	31.43
720.162	31.46
720.345	31.54
720.529	32.01
720.713	31.81
720.896	32.29
721.08	32.37
721.263	31.61
721.446	31.7
721.63	32.04
721.813	31.86
721.997	30.89
722.18	31.36
722.364	31.01
722.547	30.8
722.73	30.99
722.914	30.9
723.097	30.95
723.28	31.26
723.464	31.3
723.647	31.39
723.83	31.74
724.013	32.17
724.197	31.82
724.38	31.75
724.563	31.68
724.746	31.67
724.929	31.14
725.112	31.58
725.296	31.59
725.479	31.88
725.662	31.45
725.845	31.43
726.028	31.5
726.211	31.19
726.394	31.35
726.577	31.83
726.76	31.59
726.943	31.97
727.126	31.83
727.309	31.71
727.492	31.87
727.675	32.58
727.858	32.13
728.041	31.94
728.224	32.53
728.407	33.02
728.589	32.69
728.772	32.61
728.955	32.31
729.138	31.89
729.321	32.48
729.503	32.23
729.686	31.82
729.869	32.32
730.052	32.35
730.234	32.2
730.417	31.52
730.6	31.76
730.782	32.01
730.965	31.88
731.148	31.82
731.33	31.8
731.513	31.97
731.695	31.98
731.878	31.44
732.061	31.54
732.243	31.38
732.426	31.04
732.608	30.97
732.791	31.28
732.973	31.6
733.156	31.68
733.338	31.4
733.52	31.27
733.703	31.23
733.885	31.84
734.068	31.86
734.25	32.34
734.432	32.83
734.615	32.66
734.797	32.55
734.979	32.83
735.162	32.74
735.344	32.59
735.526	32.92
735.708	33.19
735.891	33.11
736.073	33.13
736.255	32.65
736.437	32.48
736.619	32.67
736.802	32.15
736.984	32.15
737.166	32.21
737.348	32.29
737.53	31.92
737.712	31.39
737.894	31.49
738.076	31.66
738.258	31.59
738.44	31.63
738.622	31.25
738.804	31.35
738.986	31.31
739.168	30.96
739.35	31.41
739.532	31.25
739.714	31.71
739.896	31.06
740.078	30.73
740.259	30.33
740.441	30.88
740.623	31.15
740.805	31.36
740.987	31.3
741.168	31.9
741.35	31.26
741.532	31.43
741.714	30.96
741.895	31.25
742.077	31.49
742.259	31.74
742.44	31.66
742.622	31.55
742.804	31.57
742.985	31.37
743.167	31.07
743.348	31.48
743.53	31.58
743.711	31.96
743.893	32.11
744.075	31.76
744.256	32.06
744.438	31.89
744.619	32.13
744.8	32.07
744.982	32.68
745.163	33.1
745.345	32.47
745.526	31.88
745.707	31.87
745.889	31.77
746.07	31.19
746.252	31.09
746.433	31.32
746.614	31.33
746.795	31.81
746.977	30.28
747.158	30.32
747.339	31.2
747.52	32.02
747.702	31.99
747.883	32.11
748.064	32.19
748.245	32.12
748.426	31.33
748.607	31.7
748.788	30.81
748.97	32.1
749.151	31.82
749.332	31.58
749.513	31.58
749.694	31.6
749.875	31.77
750.056	32.21
750.237	32.29
750.418	32.8
750.599	32.61
750.78	32.83
750.96	32.69
751.141	32.72
751.322	32.1
751.503	32.16
751.684	32.29
751.865	32.64
752.046	32.19
752.226	32.3
752.407	31.99
752.588	31.73
752.769	32.67
752.949	32.39
753.13	32.53
753.311	32.27
753.492	32.16
753.672	31.64
753.853	31.32
754.034	32.33
754.214	31.99
754.395	32.15
754.575	32.04
754.756	30.83
754.937	31.17
755.117	30.88
755.298	31.58
755.478	31.5
755.659	31.63
755.839	31.29
756.02	30.65
756.2	31.2
756.381	31.25
756.561	31.83
756.741	32.62
756.922	32.11
757.102	32.33
757.283	32.05
757.463	31.84
757.643	32.48
757.823	32.88
758.004	32.96
758.184	32.89
758.364	32.62
758.545	32.31
758.725	31.95
758.905	32.42
759.085	32.22
759.265	32.6
759.446	32.16
759.626	32.36
759.806	31.63
759.986	32.41
760.166	31.82
760.346	31.97
760.526	32.23
760.706	32.08
760.886	31.83
761.066	32.08
761.246	32.36
761.426	32.05
761.606	31.43
761.786	31.88
761.966	31.08
762.146	31.6
762.326	32.09
762.506	31.55
762.686	31.78
762.866	31.4
763.046	31.17
763.225	30.92
763.405	31.34
763.585	31.11
763.765	31.35
763.945	31.35
764.124	31.52
764.304	31.35
764.484	31.94
764.664	31.84
764.843	32.59
765.023	32.86
765.203	32.65
765.382	32.96
765.562	33.59
765.741	33.18
765.921	33.47
766.101	33.51
766.28	33.63
766.46	33.31
766.639	32.92
766.819	32.75
766.998	32.74
767.178	32.9
767.357	32.68
767.537	32.5
767.716	32.97
767.896	32.14
768.075	32.08
768.254	31.34
768.434	31.62
768.613	32.18
768.792	31.87
768.972	31.4
769.151	31.18
769.33	30.84
769.51	30.93
769.689	30.84
769.868	31.94
770.047	31.99
770.226	32.18
770.406	32.26
770.585	32.18
770.764	32.28
770.943	33
771.122	33.66
771.301	33.61
771.48	33.68
771.66	33.5
771.839	33.56
772.018	33.35
772.197	33.13
772.376	32.79
772.555	33.03
772.734	33.15
772.913	32.55
773.092	31.73
773.271	32.55
773.449	32.99
773.628	32.3
773.807	32.41
773.986	32.4
774.165	33.76
774.344	33.61
774.523	33.99
774.701	34.21
774.88	34.64
775.059	35.49
775.238	35.9
775.417	35.81
775.595	36.92
775.774	37.14
775.953	37.22
776.131	35.66
776.31	35.72
776.489	34.75
776.667	34.83
776.846	35.18
777.025	35.46
777.203	34.5
777.382	34.03
777.56	33.36
777.739	33.06
777.917	32.4
778.096	33.02
778.274	32.9
778.453	33.38
778.631	33.22
778.81	32.78
778.988	31.98
779.166	31.82
779.345	31.59
779.523	32.16
779.702	31.77
779.88	31.92
780.058	31.82
780.237	32.51
780.415	32.28
780.593	32.66
780.771	32.63
780.95	33.01
781.128	33.73
781.306	33.68
781.484	33.61
781.662	34.09
781.841	34.38
782.019	33.64
782.197	33.24
782.375	33.03
782.553	32.85
782.731	33.38
782.909	33.01
783.087	33.73
783.265	33.83
783.443	32.72
783.621	32.43
783.799	31.74
783.977	33.05
784.155	32.83
784.333	33.22
784.511	31.97
784.689	31.26
784.867	31.12
785.045	30.46
785.223	31.46
785.4	32.68
785.578	33.12
785.756	33.81
785.934	33.44
786.112	32.87
786.289	33.25
786.467	34.02
786.645	34.12
786.823	34.92
787	34.95
787.178	34.07
787.356	33.91
787.533	32.7
787.711	33.71
787.889	34.07
788.066	34.63
788.244	34.96
788.421	35.98
788.599	36.41
788.776	35.73
788.954	35.15
789.131	35.87
789.309	36.15
789.486	36.35
789.664	36.08
789.841	36.12
790.019	35.46
790.196	35.71
790.373	35.14
790.551	34.56
790.728	34.52
790.906	34.77
791.083	33.74
791.26	33.79
791.437	34.93
791.615	34.05
791.792	33.41
791.969	34.99
792.146	33.3
792.324	34.1
792.501	35.23
792.678	35.33
792.855	35.46
793.032	35.5
793.209	35.84
793.387	36.04
793.564	36.01
793.741	36.2
793.918	35.55
794.095	36.51
794.272	34.75
794.449	33.59
794.626	34.04
794.803	33.8
794.98	34.23
795.157	33.1
795.334	33.01
795.511	33.02
795.688	33.69
795.864	34.07
796.041	33.72
796.218	34.06
796.395	34.8
796.572	34.24
796.749	34.72
796.925	34.68
797.102	33.7
797.279	33.21
797.456	33.22
797.632	32.93
797.809	32.4
797.986	32.72
798.162	33.23
798.339	33.16
798.516	34.74
798.692	33.06
798.869	32.44
799.046	33.47
799.222	33.7
799.399	33.34
799.575	33.18
799.752	32.44
799.928	32.37
800.105	31.33
800.281	31.28
800.458	31.15
800.634	32.74
800.811	33.84
800.987	33.33
801.163	33.26
801.34	34.15
801.516	34.17
801.692	34.19
801.869	33.76
802.045	34.61
802.221	33.75
802.398	32.35
802.574	32.84
802.75	31.35
802.926	31.4
803.103	31.67
803.279	30.83
803.455	29.9
803.631	30.91
803.807	32.34
803.983	32.46
804.16	32.04
804.336	32.31
804.512	30.52
804.688	31.5
804.864	33.05
805.04	31.8
805.216	33.38
805.392	34.19
805.568	33.09
805.744	31.95
805.92	31.94
806.096	33.46
806.272	33.69
806.448	35.83
806.623	35.58
806.799	35.8
806.975	36.04
807.151	34.79
807.327	33.38
807.503	33.7
807.678	33.68
807.854	34.34
808.03	34.34
808.206	34.16
808.381	33.71
808.557	33.46
808.733	31.36
808.908	32.23
809.084	32.39
809.26	33.2
809.435	34.24
809.611	34.54
809.787	32.8
809.962	31.67
810.138	30.59
810.313	30.24
810.489	30.16
810.664	30.75
810.84	30.55
811.015	29.57
811.191	31.14
811.366	31.04
811.542	30.29
811.717	31.22
811.892	31.2
812.068	32.39
812.243	31.79
812.419	31.62
812.594	32.5
812.769	32.42
812.944	33.7
813.12	33.42
813.295	33.67
813.47	34.23
813.645	33.16
813.821	33.96
813.996	34.91
814.171	35.61
814.346	36.68
814.521	35.14
814.697	35.41
814.872	34.98
815.047	34.56
815.222	34.92
815.397	34.21
815.572	35.13
815.747	33.63
815.922	30.85
816.097	29.92
816.272	31.21
816.447	32.29
816.622	32.52
816.797	32.26
816.972	32.14
817.147	30.52
817.322	32.05
817.496	32.5
817.671	32.87
817.846	33.66
818.021	33.85
818.196	32.55
818.371	32.8
818.545	31.98
818.72	32.5
818.895	31.68
819.069	32.21
819.244	31.84
819.419	31.74
819.594	32.01
819.768	31.96
819.943	32.09
820.117	32.81
820.292	32.49
820.467	32.46
820.641	32.12
820.816	32.16
820.99	31.78
821.165	31.49
821.339	31.42
821.514	31.66
821.688	31.82
821.863	31.6
822.037	31.31
822.212	31.4
822.386	31.42
822.56	31.59
822.735	31.64
822.909	31.74
823.084	31.8
823.258	31.51
823.432	31.1
823.606	31.05
823.781	31.1
823.955	30.96
824.129	31.12
824.303	31.05
824.478	30.75
824.652	30.94
824.826	31.14
825	31.12
825.174	31.73
825.348	32.02
825.523	32.19
825.697	32.18
825.871	32.34
826.045	31.92
826.219	31.81
826.393	32.32
826.567	32.2
826.741	32.07
826.915	31.98
827.089	32.02
827.263	31.95
827.437	31.81
827.611	32.06
827.784	32.6
827.958	32.85
828.132	33.1
828.306	32.93
828.48	33.06
828.654	33.27
828.827	33.35
829.001	32.87
829.175	33.08
829.349	33.13
829.522	33.11
829.696	33.33
829.87	33.34
830.044	33.78
830.217	33.32
830.391	33.08
830.565	33.31
830.738	33
830.912	33.74
831.085	34.3
831.259	34.56
831.432	33.98
831.606	33.3
831.779	32.51
831.953	32.54
832.126	32.27
832.3	33.19
832.473	33.16
832.647	33.76
832.82	33.62
832.994	33.75
833.167	33.54
833.34	33.65
833.514	33.54
833.687	33.86
833.86	33.88
834.034	33.47
834.207	33.17
834.38	32.64
834.553	32.21
834.727	32.19
834.9	31.72
835.073	30.94
835.246	31.82
835.419	31.62
835.593	32.18
835.766	31.26
835.939	32.19
836.112	31.45
836.285	32.05
836.458	33.46
836.631	32.91
836.804	34.03
836.977	35.6
837.15	35.08
837.323	35.66
837.496	35.21
837.669	36.61
837.842	36.81
838.015	37.46
838.188	36.11
838.361	33.77
838.533	33.91
838.706	33.22
838.879	33.13
839.052	32.75
839.225	31.86
839.398	31.52
839.57	31.71
839.743	32.52
839.916	32.97
840.088	34.26
840.261	36.14
840.434	37.92
840.607	38.23
840.779	38.47
840.952	39.68
841.124	39.26
841.297	40.07
841.47	40.01
841.642	39.92
841.815	39.55
841.987	40.43
842.16	39.52
842.332	39.18
842.505	38.82
842.677	39.71
842.85	39.48
843.022	42.44
843.194	41.24
843.367	42.04
843.539	41.73
843.712	41.53
843.884	40.83
844.056	41.73
844.229	40.3
844.401	40.32
844.573	38.26
844.745	35.65
844.918	33.05
845.09	34.53
845.262	34.11
845.434	35.03
845.606	36.67
845.779	37.17
845.951	37.35
846.123	36.26
846.295	36.41
846.467	37.57
846.639	38.24
846.811	37.92
846.983	39.68
847.155	38.27
847.327	38.33
847.499	37.9
847.671	39.72
847.843	37.94
848.015	40.59
848.187	42.36
848.359	43.23
848.531	44.02
848.703	45.5
848.875	44.16
849.047	43.45
849.218	41.92
849.39	43.63
849.562	38.96
849.734	40.32
849.905	41.96
850.077	38.79
850.249	37.95
850.421	40.01
850.592	40.53
850.764	41.23
850.936	44.99
851.107	45.02
851.279	43.12
851.451	48.12
851.622	47.62
851.794	43.27
851.965	44.86
852.137	44.24
852.308	44.25
852.48	45.24
852.651	44.62
852.823	43.36
852.994	44.06
853.166	41.76
853.337	40.03
853.509	39.01
853.68	41.56
853.851	40.39
854.023	42.29
854.194	36.93
854.365	34.78
854.537	33.16
854.708	33.61
854.879	33.06
855.05	34.68
855.222	33.11
855.393	35.93
855.564	33.83
855.735	35.27
855.906	31.12
856.078	33.04
856.249	33.95
856.42	33.12
856.591	33.25
856.762	35.31
856.933	36.44
857.104	37.93
857.275	35.43
857.446	37.22
857.617	38.82
857.788	43.12
857.959	46.57
858.13	48.83
858.301	49.63
858.472	45.92
858.643	43.68
858.814	42.31
858.985	44.76
859.155	46.13
859.326	47.34
859.497	43.73
859.668	42.07
859.839	39.81
860.009	37.68
860.18	41.77
860.351	41.97
860.522	42.64
860.692	42.33
860.863	37.64
861.034	37.76
861.204	36.25
861.375	37.94
861.546	38.57
861.716	38.14
861.887	34.97
862.057	31.05
862.228	33.79
862.398	34.6
862.569	38.9
862.739	41.22
862.91	40.13
863.08	42.61
863.251	45.11
863.421	45.99
863.592	46.79
863.762	50.31
863.932	50.25
864.103	47.93
864.273	50.38
864.443	46.47
864.614	45.62
864.784	48.38
864.954	48.84
865.125	48.01
865.295	47.8
865.465	46.79
865.635	44.86
865.805	50.36
865.976	53
866.146	51.99
866.316	54.73
866.486	57.62
866.656	55.67
866.826	51.2
866.996	50.83
867.166	50.95
867.336	52.94
867.506	52.17
867.676	44.14
867.846	45.31
868.016	44.17
868.186	44.01
868.356	44.81
868.526	44.37
868.696	47.06
868.866	46.2
869.036	42.62
869.206	45.78
869.376	44.31
869.545	45.87
869.715	46.01
869.885	42.96
870.055	44.6
870.224	40.8
870.394	39.19
870.564	38.42
870.734	34.74
870.903	39.78
871.073	36.71
871.243	37.78
871.412	40.81
871.582	38.14
871.751	38.79
871.921	34.61
872.091	34.11
872.26	32.04
872.43	33.58
872.599	38.48
872.769	37
872.938	36.54
873.108	40.96
873.277	36.24
873.446	34.12
873.616	33.21
873.785	36.99
873.955	39.84
874.124	43.55
874.293	48.37
874.463	47.9
874.632	47.95
874.801	45.89
874.971	42.53
875.14	49.84
875.309	49.83
875.478	49.86
875.647	48.48
875.817	46.61
875.986	47.03
876.155	43.15
876.324	45.78
876.493	47.2
876.662	50.27
876.831	51.37
877	47.63
877.17	50.65
877.339	51.85
877.508	52.81
877.677	52.61
877.846	51.4
878.015	49.08
878.184	43.78
878.352	41.4
878.521	38.83
878.69	35.58
878.859	37.44
879.028	37.51
879.197	37.39
879.366	33.71
879.534	33.2
879.703	34.26
879.872	33.2
880.041	34
880.21	33.31
880.378	34.76
880.547	34.41
880.716	33.74
880.884	33.6
881.053	33.3
881.222	33.89
881.39	34
881.559	33.53
881.727	33.3
881.896	32.57
882.065	32.56
882.233	31.48
882.402	31.37
882.57	30.8
882.739	30.42
882.907	30.02
883.076	30.15
883.244	30.04
883.412	29.26
883.581	30.46
883.749	31.38
883.918	30.88
884.086	31.83
884.254	32.14
884.423	32.7
884.591	33
884.759	33.38
884.927	32.85
885.096	31.64
885.264	33.69
885.432	33.23
885.6	34.12
885.769	34.27
885.937	33.63
886.105	35.51
886.273	35.17
886.441	35.96
886.609	36.93
886.777	36.17
886.945	39.04
887.113	37.6
887.281	37.56
887.449	36.91
887.617	39.56
887.785	40.1
887.953	38.27
888.121	40.27
888.289	38.71
888.457	41.45
888.625	44.26
888.793	45.14
888.961	46.07
889.129	46.84
889.296	42.86
889.464	43.03
889.632	43.04
889.8	45.34
889.967	44.2
890.135	47.12
