Data from 2938487_Reflection_2.txt Node
Date: Wed Jun 17 00:55:12 EDT 2015
User: robert
Spectrometer: USB4E03002
Autoset integration time: false
Trigger mode: 4
Integration Time (sec): 1.000000E-1
Scans to average: 10
Electric dark correction enabled: true
Nonlinearity correction enabled: false
Boxcar width: 5
Stray light correction enabled: false
XAxis mode: Wavelengths
Stop averaging: false
Number of Pixels in Spectrum: 3648
>>>>>Begin Spectral Data<<<<<
177.575	-530.55
177.794	1688.65
178.014	-69.68
178.233	-59.34
178.452	-45.05
178.672	3.45
178.891	102.27
179.11	126.7
179.33	125.56
179.549	190.85
179.768	58.37
179.987	107.22
180.207	99
180.426	171.27
180.645	196.16
180.864	343.44
181.084	112.04
181.303	82.17
181.522	91.21
181.741	92.44
181.96	136.16
182.179	1035.17
182.398	-2945.33
182.618	-184.62
182.837	-1.16
183.056	26.5
183.275	-117.93
183.494	-50.08
183.713	-408.89
183.932	-69.01
184.151	66.99
184.37	-321.8
184.589	-1925.35
184.808	494.2
185.027	235.66
185.246	-1488.1
185.465	351.34
185.684	146.51
185.903	89.12
186.122	129.87
186.341	104.73
186.56	99.13
186.779	166.75
186.998	263.16
187.216	262.3
187.435	239.73
187.654	749.07
187.873	-396.71
188.092	-527.65
188.311	5615.29
188.53	-423.38
188.748	-95.74
188.967	-161.02
189.186	-137.16
189.405	4.58
189.623	713.14
189.842	-170.25
190.061	-917.05
190.28	285.84
190.498	-1339.91
190.717	-396.56
190.936	282.59
191.154	277.49
191.373	239.7
191.592	478
191.81	733.64
192.029	371.7
192.248	442.78
192.466	295.35
192.685	395.17
192.904	3062.9
193.122	516.44
193.341	-24.43
193.559	-84.85
193.778	-295.13
193.996	-81.75
194.215	-22.6
194.433	24.11
194.652	52.78
194.87	30.27
195.089	48.07
195.307	26.01
195.526	90.98
195.744	197.57
195.963	135.2
196.181	152.29
196.399	160.58
196.618	123.46
196.836	134.25
197.055	181.02
197.273	121.24
197.491	92.38
197.71	91.61
197.928	252.41
198.146	-1220.55
198.365	-216.86
198.583	-254.23
198.801	201.51
199.019	289.71
199.238	-84.94
199.456	526.39
199.674	275.77
199.892	26.9
200.111	10.95
200.329	35.41
200.547	212.92
200.765	166.39
200.983	141.51
201.202	150.55
201.42	229.75
201.638	4950
201.856	267.03
202.074	103.48
202.292	86.75
202.51	72.71
202.728	-108.7
202.946	396.83
203.165	-1621.59
203.383	-358.99
203.601	-925.83
203.819	-755.79
204.037	-372.94
204.255	601.66
204.473	150.98
204.691	131.02
204.909	92.3
205.127	216.65
205.345	-140.31
205.562	-530.48
205.78	-19.26
205.998	56.74
206.216	212.48
206.434	103.29
206.652	62.46
206.87	69.15
207.088	80.88
207.306	92.99
207.523	192.33
207.741	-845.5
207.959	470.84
208.177	-1475.52
208.395	-1483.43
208.612	2878.5
208.83	-195.91
209.048	-184.87
209.266	-136.65
209.483	-85.35
209.701	-130.22
209.919	-36.85
210.136	-50.24
210.354	-11.51
210.572	35.89
210.79	21.84
211.007	34.38
211.225	53.22
211.442	62.8
211.66	73.56
211.878	87.09
212.095	156.07
212.313	150.15
212.53	162.1
212.748	142.82
212.966	121.41
213.183	126.16
213.401	123.73
213.618	149.35
213.836	129.8
214.053	142.06
214.271	146.95
214.488	29.91
214.705	25.99
214.923	13.59
215.14	41.96
215.358	38.02
215.575	51.61
215.793	48.76
216.01	31.36
216.227	20.34
216.445	18.75
216.662	-11.5
216.879	-10.36
217.097	-7.29
217.314	-15.09
217.531	-23.73
217.749	5.4
217.966	3.9
218.183	32
218.4	40.66
218.618	39.94
218.835	46.39
219.052	48.13
219.269	42.76
219.487	41.85
219.704	65.83
219.921	43.41
220.138	27.83
220.355	26.67
220.572	17.37
220.79	6.63
221.007	-3.72
221.224	11.17
221.441	18.29
221.658	17.56
221.875	17.52
222.092	23.99
222.309	18.9
222.526	19.6
222.743	20.15
222.96	15.67
223.177	19.15
223.394	25.75
223.611	11.41
223.828	8.38
224.045	4.78
224.262	7.59
224.479	-0.37
224.696	5.86
224.913	10.68
225.13	9.16
225.347	7.1
225.564	8.77
225.781	8.82
225.997	10.44
226.214	12.23
226.431	11.02
226.648	11.19
226.865	11.12
227.082	11.48
227.298	9.17
227.515	8.73
227.732	9.59
227.949	8.65
228.165	9.18
228.382	8.56
228.599	7.34
228.816	9.61
229.032	9.63
229.249	9.82
229.466	8.64
229.682	8.96
229.899	9.09
230.116	9.16
230.332	10.52
230.549	10.01
230.765	9.39
230.982	6.73
231.199	6.45
231.415	4.15
231.632	3.98
231.848	6.54
232.065	10.22
232.281	11.63
232.498	11.61
232.714	11.09
232.931	11.55
233.147	13.74
233.364	17.09
233.58	14.18
233.797	15.18
234.013	15.76
234.23	13.67
234.446	9.68
234.662	8.93
234.879	10.66
235.095	9.47
235.312	9.97
235.528	10.97
235.744	9.65
235.961	11.44
236.177	11.04
236.393	10.71
236.61	11.47
236.826	12.8
237.042	13.2
237.258	13.14
237.475	16.86
237.691	15.85
237.907	15.15
238.123	13.75
238.339	12.99
238.556	13.81
238.772	13.4
238.988	13.73
239.204	12.22
239.42	12.36
239.636	11.43
239.853	10.38
240.069	10.52
240.285	9.85
240.501	10.3
240.717	10.76
240.933	10.34
241.149	9.81
241.365	8.59
241.581	8.72
241.797	8.2
242.013	8.23
242.229	7.19
242.445	7.4
242.661	8.32
242.877	8.16
243.093	7.56
243.309	6.77
243.525	7.37
243.741	7.94
243.957	8.52
244.173	8.65
244.388	8.79
244.604	9.34
244.82	8.64
245.036	8.14
245.252	8.66
245.468	8.98
245.683	9.22
245.899	9.29
246.115	9.68
246.331	9.58
246.547	9.38
246.762	9.82
246.978	9.81
247.194	10.08
247.409	10.25
247.625	9.99
247.841	9.63
248.057	10.08
248.272	10.57
248.488	10.56
248.703	11.68
248.919	12.34
249.135	10.89
249.35	10.5
249.566	10.41
249.782	9.35
249.997	9.25
250.213	8.69
250.428	8
250.644	7.46
250.859	6.51
251.075	5.54
251.29	5.77
251.506	6.07
251.721	6.6
251.937	6.71
252.152	8.3
252.368	8.6
252.583	9.95
252.798	11.74
253.014	11.52
253.229	12.87
253.445	13.51
253.66	13.31
253.875	13.15
254.091	12.49
254.306	11.95
254.521	11.48
254.737	10.31
254.952	9.34
255.167	6.86
255.383	6.44
255.598	6.39
255.813	6.25
256.028	6.3
256.244	6.74
256.459	6.75
256.674	6.66
256.889	6.26
257.104	6.06
257.32	6.16
257.535	6.43
257.75	6.59
257.965	6.48
258.18	6.47
258.395	6.57
258.61	6.35
258.826	6.25
259.041	5.98
259.256	6
259.471	6.28
259.686	6.05
259.901	5.95
260.116	6.01
260.331	5.82
260.546	5.65
260.761	5.29
260.976	5.05
261.191	5.03
261.406	5.83
261.621	5.65
261.836	4.72
262.05	4.95
262.265	6.05
262.48	6.68
262.695	7.3
262.91	7.16
263.125	7.18
263.34	7.3
263.555	7.75
263.769	7.34
263.984	7.61
264.199	8.65
264.414	8.51
264.629	7.63
264.843	6.78
265.058	6.4
265.273	6.79
265.488	6.78
265.702	6.83
265.917	6.56
266.132	6.95
266.346	7.38
266.561	7.47
266.776	7.77
266.99	7.7
267.205	7.98
267.42	8.27
267.634	7.52
267.849	7.52
268.063	7.79
268.278	8.07
268.492	7.05
268.707	6.42
268.922	6.22
269.136	5.87
269.351	6.09
269.565	5.98
269.78	5.44
269.994	5.73
270.209	5.94
270.423	5.86
270.637	5.83
270.852	6.14
271.066	6.6
271.281	6.89
271.495	6.91
271.709	6.48
271.924	6.45
272.138	6.92
272.353	7.09
272.567	6.67
272.781	6.15
272.996	5.93
273.21	6.15
273.424	5.47
273.638	5.09
273.853	5.15
274.067	5.15
274.281	5.12
274.495	4.73
274.71	4.82
274.924	5.07
275.138	5.92
275.352	5.81
275.566	5.28
275.781	5.46
275.995	5.3
276.209	5.82
276.423	5.97
276.637	5.78
276.851	5.71
277.065	5.72
277.279	5.21
277.493	5.36
277.707	5.65
277.921	5.83
278.135	5.12
278.349	5.12
278.563	5.08
278.777	5.41
278.991	5.87
279.205	5.66
279.419	5.54
279.633	6.05
279.847	5.5
280.061	5.58
280.275	5.72
280.489	6.33
280.703	6.44
280.917	6.25
281.131	6.46
281.344	6.35
281.558	6.77
281.772	6.29
281.986	6.27
282.2	6.39
282.414	6.2
282.627	5.88
282.841	5.65
283.055	5.45
283.269	5.53
283.482	5.39
283.696	5.46
283.91	5.52
284.123	5.78
284.337	5.68
284.551	5.51
284.764	5.75
284.978	5.96
285.192	6.06
285.405	5.9
285.619	5.79
285.833	6.16
286.046	5.89
286.26	5.91
286.473	5.83
286.687	6.29
286.9	6.92
287.114	6.75
287.327	6.84
287.541	6.74
287.754	7.16
287.968	7.14
288.181	6.54
288.395	6.74
288.608	6.65
288.822	7.01
289.035	6.44
289.248	5.79
289.462	5.79
289.675	5.96
289.889	6.24
290.102	6.25
290.315	6.3
290.529	6.3
290.742	6.04
290.955	6.04
291.169	6.04
291.382	6.58
291.595	6.86
291.808	7
292.022	6.65
292.235	6.32
292.448	5.97
292.661	5.98
292.875	6.37
293.088	6.81
293.301	6.61
293.514	6.04
293.727	5.38
293.94	5.31
294.153	5.25
294.367	5.53
294.58	5.54
294.793	5.83
295.006	5.76
295.219	5.65
295.432	5.52
295.645	5.27
295.858	5.4
296.071	5.44
296.284	5.91
296.497	5.59
296.71	5.41
296.923	5.58
297.136	5.42
297.349	5.37
297.562	4.99
297.775	4.86
297.988	5.46
298.201	5.53
298.414	5.47
298.626	5.15
298.839	5.39
299.052	5.78
299.265	5.64
299.478	5.53
299.691	5.56
299.903	6.11
300.116	6.02
300.329	5.74
300.542	5.72
300.755	6.1
300.967	6.14
301.18	6.08
301.393	5.81
301.605	5.84
301.818	6.07
302.031	6.06
302.243	5.58
302.456	5.98
302.669	6.2
302.881	6.26
303.094	6.26
303.307	5.98
303.519	5.84
303.732	5.82
303.944	6
304.157	6.15
304.37	6.1
304.582	6.74
304.795	7.03
305.007	6.33
305.22	6.57
305.432	6.83
305.645	7.1
305.857	7.34
306.069	6.97
306.282	6.64
306.494	6.25
306.707	6.09
306.919	6.05
307.132	5.55
307.344	6.08
307.556	5.9
307.769	5.95
307.981	5.95
308.193	5.94
308.406	6.45
308.618	6.64
308.83	6.92
309.043	7.27
309.255	7.23
309.467	7.36
309.679	7.25
309.892	7.43
310.104	7.26
310.316	7.29
310.528	7.21
310.74	7.2
310.953	7.37
311.165	7.42
311.377	6.97
311.589	7.21
311.801	7.26
312.013	7.9
312.225	8.28
312.437	8.59
312.649	8.43
312.862	9.15
313.074	9.07
313.286	8.58
313.498	8.63
313.71	9.18
313.922	8.71
314.134	8.68
314.346	8.12
314.558	7.39
314.77	7.18
314.982	7.61
315.193	7.1
315.405	6.68
315.617	7.34
315.829	7.69
316.041	7.77
316.253	8
316.465	8.78
316.677	8.7
316.888	9.15
317.1	9.17
317.312	8.47
317.524	8.38
317.736	8.87
317.947	8.63
318.159	7.81
318.371	7.73
318.583	8.01
318.794	7.19
319.006	7.12
319.218	6.52
319.43	6.75
319.641	7.07
319.853	7.46
320.064	6.75
320.276	6.87
320.488	6.92
320.699	7.05
320.911	6.78
321.123	7.29
321.334	7.23
321.546	7.44
321.757	6.66
321.969	7.15
322.18	7.09
322.392	7.86
322.603	8.22
322.815	8.85
323.026	8.78
323.238	8.72
323.449	8.14
323.661	8.44
323.872	8.62
324.083	9.37
324.295	9.15
324.506	9.35
324.718	9.26
324.929	8.65
325.14	8.4
325.352	8.49
325.563	8.45
325.774	8.7
325.986	9.09
326.197	9.15
326.408	9.22
326.62	9.37
326.831	9.32
327.042	10.02
327.253	10.32
327.464	10.85
327.676	11.1
327.887	11.32
328.098	11.36
328.309	11.52
328.52	11.41
328.732	11.39
328.943	11.24
329.154	10.83
329.365	10.4
329.576	10.63
329.787	10.23
329.998	10.12
330.209	9.92
330.42	10.35
330.631	10.52
330.842	10.97
331.053	10.57
331.264	11.14
331.475	11.63
331.686	11.3
331.897	11.61
332.108	11.64
332.319	11.41
332.53	11.81
332.741	11.99
332.952	11.57
333.163	11.71
333.374	11.62
333.585	11.36
333.795	10.87
334.006	10.86
334.217	10.45
334.428	10.43
334.639	10.82
334.849	10.76
335.06	10.31
335.271	10.45
335.482	10.2
335.692	10.19
335.903	10.22
336.114	10.38
336.325	10.9
336.535	11.22
336.746	11.45
336.957	11.15
337.167	11
337.378	11.15
337.589	10.96
337.799	10.92
338.01	11.69
338.22	11.58
338.431	11.95
338.642	11.59
338.852	11.41
339.063	11.26
339.273	11.64
339.484	11.71
339.694	11.53
339.905	11.85
340.115	11.7
340.326	11.13
340.536	11.27
340.746	11.03
340.957	10.96
341.167	11.19
341.378	11.24
341.588	10.86
341.799	10.69
342.009	10.84
342.219	10.22
342.43	10.45
342.64	10.89
342.85	10.68
343.061	10.52
343.271	11.13
343.481	10.83
343.691	10.84
343.902	10.85
344.112	11.07
344.322	11.07
344.532	11.52
344.743	11.49
344.953	11.31
345.163	11.43
345.373	11.35
345.583	10.78
345.793	10.61
346.004	10.16
346.214	10.11
346.424	10.21
346.634	9.96
346.844	10.01
347.054	9.98
347.264	9.6
347.474	9.59
347.684	9.86
347.894	9.63
348.104	9.91
348.314	10.26
348.524	10.09
348.734	10.3
348.944	10.67
349.154	10.33
349.364	10.34
349.574	10.64
349.784	10.57
349.994	10.56
350.204	10.89
350.413	10.88
350.623	10.78
350.833	10.76
351.043	9.9
351.253	9.59
351.463	9.98
351.672	9.97
351.882	10.19
352.092	10.25
352.302	10.18
352.511	10.48
352.721	10.39
352.931	10.08
353.141	9.98
353.35	10.56
353.56	10.33
353.77	9.98
353.979	9.83
354.189	9.55
354.399	9.28
354.608	9.23
354.818	9.26
355.027	9.14
355.237	9.38
355.447	9.61
355.656	9.58
355.866	9.72
356.075	9.69
356.285	9.92
356.494	10.03
356.704	10.15
356.913	10.29
357.123	9.88
357.332	9.92
357.542	9.97
357.751	9.84
357.96	9.66
358.17	9.66
358.379	9.71
358.589	9.73
358.798	9.51
359.007	9.35
359.217	9.23
359.426	9.2
359.635	9.18
359.845	9.06
360.054	9.31
360.263	9.22
360.472	9.24
360.682	9.11
360.891	8.87
361.1	8.94
361.309	9.23
361.519	9.42
361.728	9.56
361.937	9.49
362.146	9.84
362.355	9.81
362.564	9.91
362.774	9.97
362.983	10.07
363.192	10.07
363.401	9.99
363.61	9.74
363.819	9.5
364.028	9.65
364.237	9.51
364.446	8.92
364.655	8.89
364.864	8.89
365.073	8.75
365.282	8.66
365.491	8.78
365.7	8.8
365.909	8.82
366.118	8.92
366.327	8.86
366.536	9.09
366.745	9.24
366.954	9.15
367.162	9.04
367.371	9.03
367.58	9.17
367.789	9.14
367.998	9.05
368.207	8.93
368.415	8.8
368.624	8.64
368.833	8.42
369.042	8.33
369.25	8.46
369.459	8.43
369.668	8.6
369.877	8.49
370.085	8.56
370.294	8.82
370.503	9.09
370.711	9.44
370.92	9.49
371.129	9.61
371.337	9.86
371.546	9.59
371.754	9.45
371.963	9.25
372.171	9.13
372.38	8.81
372.589	8.71
372.797	8.76
373.006	8.61
373.214	8.67
373.423	8.72
373.631	8.69
373.84	8.81
374.048	8.98
374.256	9.12
374.465	9.29
374.673	9.38
374.882	9.22
375.09	8.92
375.298	8.63
375.507	8.26
375.715	8.34
375.923	8.05
376.132	8.09
376.34	8.22
376.548	8.3
376.757	8.22
376.965	8.3
377.173	8.32
377.381	8.71
377.59	9.04
377.798	9.18
378.006	8.94
378.214	9.09
378.423	8.84
378.631	8.79
378.839	8.67
379.047	8.76
379.255	8.66
379.463	8.82
379.671	8.56
379.879	8.28
380.088	8.32
380.296	8.48
380.504	8.7
380.712	8.92
380.92	8.92
381.128	8.84
381.336	8.52
381.544	8.55
381.752	8.58
381.96	8.54
382.168	8.49
382.376	8.54
382.584	8.38
382.791	8.37
382.999	8.28
383.207	8.03
383.415	8.22
383.623	8.45
383.831	8.39
384.039	8.11
384.247	8.08
384.454	8.04
384.662	7.85
384.87	8.01
385.078	7.64
385.285	7.66
385.493	7.76
385.701	7.46
385.909	7.58
386.116	7.64
386.324	7.69
386.532	7.91
386.739	8.15
386.947	8.3
387.155	8.32
387.362	8.31
387.57	8.32
387.778	8.23
387.985	8.33
388.193	8.14
388.4	8.09
388.608	8.07
388.816	7.75
389.023	7.45
389.231	7.57
389.438	7.56
389.646	7.75
389.853	7.7
390.061	7.89
390.268	7.73
390.475	7.76
390.683	7.85
390.89	8.02
391.098	8.21
391.305	8.33
391.512	8.22
391.72	8.05
391.927	8.04
392.135	8.05
392.342	8.01
392.549	8.09
392.756	8
392.964	7.91
393.171	7.73
393.378	7.32
393.586	7.28
393.793	7.17
394	7.09
394.207	7.22
394.414	7.05
394.622	6.99
394.829	7.08
395.036	7.27
395.243	7.46
395.45	7.16
395.657	7.3
395.864	7.25
396.072	7.45
396.279	7.6
396.486	7.45
396.693	7.58
396.9	7.56
397.107	7.4
397.314	7.37
397.521	7.05
397.728	7.4
397.935	7.64
398.142	7.62
398.349	7.54
398.556	7.51
398.763	7.34
398.97	7.2
399.177	7.06
399.383	7.04
399.59	7.01
399.797	7.16
400.004	7.01
400.211	6.85
400.418	6.85
400.625	6.69
400.831	6.67
401.038	6.69
401.245	6.65
401.452	6.75
401.658	6.83
401.865	6.66
402.072	6.76
402.279	6.87
402.485	6.81
402.692	6.83
402.899	6.92
403.105	6.81
403.312	6.84
403.519	6.85
403.725	6.94
403.932	6.99
404.138	6.93
404.345	6.76
404.552	6.62
404.758	6.75
404.965	6.69
405.171	6.52
405.378	6.71
405.584	6.84
405.791	6.83
405.997	6.74
406.204	6.69
406.41	6.81
406.617	6.97
406.823	7.1
407.029	6.87
407.236	6.88
407.442	7
407.649	7.09
407.855	7
408.061	6.95
408.268	6.78
408.474	6.76
408.68	6.71
408.887	6.4
409.093	6.23
409.299	6.31
409.505	6.29
409.712	6.29
409.918	6.27
410.124	6.25
410.33	6.45
410.537	6.66
410.743	6.69
410.949	6.59
411.155	6.78
411.361	6.87
411.567	6.79
411.773	6.76
411.98	6.68
412.186	6.33
412.392	6.27
412.598	6.14
412.804	6.09
413.01	6
413.216	6.3
413.422	6.37
413.628	6.29
413.834	6.17
414.04	6.07
414.246	5.93
414.452	6.1
414.658	6.13
414.864	6.11
415.07	6.01
415.275	6.11
415.481	6.09
415.687	5.94
415.893	5.92
416.099	5.95
416.305	6.03
416.511	6.11
416.716	5.97
416.922	5.96
417.128	5.9
417.334	5.94
417.539	5.81
417.745	5.75
417.951	5.76
418.157	5.77
418.362	5.79
418.568	5.82
418.774	5.73
418.979	5.8
419.185	5.76
419.391	5.79
419.596	5.73
419.802	5.67
420.008	5.61
420.213	6.23
420.419	6.25
420.624	6.24
420.83	6.27
421.035	6.4
421.241	6.34
421.446	6.27
421.652	6.27
421.857	6.25
422.063	6.42
422.268	6.45
422.474	5.8
422.679	5.76
422.885	5.77
423.09	5.69
423.295	5.69
423.501	5.66
423.706	5.68
423.911	5.71
424.117	5.84
424.322	5.7
424.527	5.63
424.733	5.67
424.938	5.74
425.143	5.74
425.349	5.71
425.554	5.72
425.759	5.85
425.964	5.99
426.169	5.96
426.375	5.86
426.58	5.93
426.785	5.96
426.99	5.87
427.195	5.69
427.4	5.64
427.605	5.74
427.811	5.64
428.016	5.55
428.221	5.47
428.426	5.39
428.631	5.34
428.836	5.3
429.041	5.36
429.246	5.44
429.451	5.52
429.656	5.59
429.861	5.54
430.066	5.47
430.271	5.59
430.476	5.55
430.681	5.52
430.886	5.53
431.09	5.5
431.295	5.5
431.5	5.56
431.705	5.51
431.91	5.42
432.115	5.33
432.32	5.28
432.524	5.14
432.729	4.95
432.934	4.97
433.139	4.88
433.343	4.91
433.548	4.82
433.753	4.77
433.958	4.87
434.162	4.85
434.367	4.79
434.572	4.82
434.776	4.8
434.981	4.93
435.186	4.99
435.39	5.07
435.595	5.06
435.799	5.13
436.004	5.1
436.209	4.95
436.413	4.96
436.618	5.06
436.822	5.12
437.027	5.11
437.231	5.13
437.436	5.04
437.64	5.03
437.845	4.94
438.049	4.92
438.253	4.89
438.458	5
438.662	4.97
438.867	4.95
439.071	4.87
439.275	4.87
439.48	4.91
439.684	4.92
439.888	4.9
440.093	4.93
440.297	4.96
440.501	4.93
440.706	4.87
440.91	4.89
441.114	4.92
441.318	4.93
441.523	4.95
441.727	4.92
441.931	4.98
442.135	4.97
442.339	4.93
442.543	4.88
442.748	4.95
442.952	4.93
443.156	5.04
443.36	5.04
443.564	5.03
443.768	5.01
443.972	4.92
444.176	4.9
444.38	4.96
444.584	4.96
444.788	5.05
444.992	4.98
445.196	4.99
445.4	4.89
445.604	4.86
445.808	4.92
446.012	4.93
446.216	5.07
446.42	5.01
446.624	4.94
446.828	4.9
447.032	4.85
447.235	4.94
447.439	4.92
447.643	4.97
447.847	4.99
448.051	5.04
448.254	5.02
448.458	4.92
448.662	5.01
448.866	4.99
449.069	5.06
449.273	4.98
449.477	4.98
449.681	4.97
449.884	4.91
450.088	4.9
450.292	4.72
450.495	4.78
450.699	4.79
450.902	4.84
451.106	4.96
451.31	4.82
451.513	4.81
451.717	4.71
451.92	4.73
452.124	4.72
452.327	4.81
452.531	4.79
452.734	4.77
452.938	4.89
453.141	4.85
453.345	4.75
453.548	4.94
453.752	5.03
453.955	5.04
454.158	4.99
454.362	5
454.565	4.92
454.769	4.96
454.972	4.93
455.175	4.78
455.379	4.67
455.582	4.72
455.785	4.63
455.988	4.53
456.192	4.57
456.395	4.66
456.598	4.68
456.801	4.65
457.005	4.7
457.208	4.66
457.411	4.6
457.614	4.63
457.817	4.54
458.021	4.54
458.224	4.58
458.427	4.51
458.63	4.52
458.833	4.47
459.036	4.49
459.239	4.5
459.442	4.49
459.645	4.57
459.848	4.54
460.051	4.61
460.254	4.65
460.457	4.64
460.66	4.73
460.863	4.78
461.066	4.94
461.269	4.9
461.472	4.88
461.675	4.94
461.878	4.93
462.081	4.99
462.284	4.96
462.486	4.88
462.689	4.82
462.892	4.87
463.095	4.73
463.298	4.56
463.5	4.64
463.703	4.68
463.906	4.65
464.109	4.57
464.311	4.55
464.514	4.49
464.717	4.6
464.92	4.66
465.122	4.56
465.325	4.68
465.528	4.75
465.73	4.7
465.933	4.69
466.135	4.7
466.338	4.76
466.541	4.81
466.743	4.9
466.946	4.88
467.148	4.87
467.351	4.89
467.553	4.86
467.756	4.88
467.958	4.93
468.161	4.86
468.363	4.83
468.566	4.9
468.768	4.93
468.971	4.93
469.173	4.92
469.375	4.97
469.578	4.96
469.78	4.83
469.983	4.91
470.185	4.93
470.387	5.01
470.59	5.12
470.792	5
470.994	5
471.196	4.98
471.399	5
471.601	4.92
471.803	4.92
472.005	4.99
472.208	4.89
472.41	4.89
472.612	4.84
472.814	4.77
473.016	4.93
473.218	4.9
473.421	4.82
473.623	4.83
473.825	4.82
474.027	4.8
474.229	4.93
474.431	4.96
474.633	4.93
474.835	4.9
475.037	4.92
475.239	4.83
475.441	4.83
475.643	4.93
475.845	4.96
476.047	4.93
476.249	4.97
476.451	4.85
476.653	4.9
476.855	4.91
477.057	4.98
477.258	4.96
477.46	4.95
477.662	4.81
477.864	4.78
478.066	4.78
478.268	4.84
478.469	4.74
478.671	4.71
478.873	4.64
479.075	4.62
479.276	4.58
479.478	4.65
479.68	4.62
479.882	4.69
480.083	4.61
480.285	4.61
480.487	4.6
480.688	4.62
480.89	4.64
481.091	4.59
481.293	4.6
481.495	4.59
481.696	4.58
481.898	4.6
482.099	4.63
482.301	4.66
482.502	4.67
482.704	4.67
482.905	4.7
483.107	4.69
483.308	4.77
483.51	4.76
483.711	4.78
483.913	4.79
484.114	4.78
484.315	4.76
484.517	4.78
484.718	4.72
484.92	4.72
485.121	4.7
485.322	4.71
485.524	4.69
485.725	4.71
485.926	4.68
486.127	4.68
486.329	4.71
486.53	4.73
486.731	4.75
486.932	4.83
487.134	4.84
487.335	4.87
487.536	4.88
487.737	4.85
487.938	4.83
488.139	4.88
488.341	4.86
488.542	4.84
488.743	4.82
488.944	4.73
489.145	4.65
489.346	4.63
489.547	4.59
489.748	4.63
489.949	4.63
490.15	4.63
490.351	4.66
490.552	4.67
490.753	4.74
490.954	4.74
491.155	4.79
491.356	4.81
491.557	4.82
491.758	4.86
491.959	4.82
492.159	4.8
492.36	4.89
492.561	4.83
492.762	4.85
492.963	4.81
493.164	4.88
493.364	4.86
493.565	4.89
493.766	4.89
493.967	4.91
494.167	4.94
494.368	4.97
494.569	4.9
494.769	4.92
494.97	4.95
495.171	4.93
495.371	4.98
495.572	4.99
495.773	5.04
495.973	5.03
496.174	4.99
496.375	4.97
496.575	5
496.776	5.06
496.976	5.05
497.177	5
497.377	4.97
497.578	4.9
497.778	4.92
497.979	4.91
498.179	4.97
498.38	5
498.58	4.98
498.78	4.92
498.981	4.94
499.181	4.93
499.382	5.04
499.582	5.05
499.782	5.08
499.983	5.07
500.183	5.14
500.383	5.16
500.584	5.19
500.784	5.16
500.984	5.21
501.184	5.16
501.385	5.19
501.585	5.13
501.785	5.17
501.985	5.18
502.185	5.26
502.386	5.21
502.586	5.22
502.786	5.16
502.986	5.27
503.186	5.3
503.386	5.36
503.586	5.38
503.786	5.42
503.987	5.41
504.187	5.44
504.387	5.47
504.587	5.52
504.787	5.53
504.987	5.65
505.187	5.65
505.387	5.68
505.587	5.73
505.786	5.79
505.986	5.78
506.186	5.77
506.386	5.79
506.586	5.87
506.786	5.82
506.986	5.83
507.186	5.8
507.386	5.88
507.585	5.85
507.785	5.83
507.985	5.82
508.185	5.88
508.384	5.89
508.584	5.85
508.784	5.76
508.984	5.75
509.183	5.79
509.383	5.82
509.583	5.75
509.782	5.82
509.982	5.86
510.182	5.96
510.381	5.99
510.581	6.02
510.781	6.1
510.98	6.11
511.18	6.2
511.379	6.22
511.579	6.25
511.778	6.37
511.978	6.3
512.177	6.27
512.377	6.18
512.576	6.13
512.776	6.19
512.975	6.18
513.175	6.25
513.374	6.21
513.573	6.13
513.773	6.09
513.972	6.11
514.172	6.19
514.371	6.3
514.57	6.36
514.77	6.4
514.969	6.45
515.168	6.42
515.367	6.35
515.567	6.41
515.766	6.49
515.965	6.52
516.164	6.47
516.364	6.51
516.563	6.48
516.762	6.52
516.961	6.59
517.16	6.63
517.359	6.63
517.559	6.72
517.758	6.76
517.957	6.78
518.156	6.81
518.355	6.86
518.554	6.81
518.753	6.81
518.952	6.82
519.151	6.79
519.35	6.75
519.549	6.8
519.748	6.74
519.947	6.73
520.146	6.72
520.345	6.68
520.544	6.67
520.743	6.65
520.942	6.74
521.141	6.76
521.339	6.77
521.538	6.86
521.737	7.01
521.936	7.13
522.135	7.17
522.333	7.25
522.532	7.36
522.731	7.4
522.93	7.47
523.129	7.45
523.327	7.45
523.526	7.44
523.725	7.39
523.923	7.32
524.122	7.23
524.321	7.19
524.519	7.17
524.718	7.19
524.917	7.19
525.115	7.2
525.314	7.22
525.512	7.22
525.711	7.26
525.909	7.27
526.108	7.29
526.306	7.34
526.505	7.38
526.703	7.4
526.902	7.42
527.1	7.42
527.299	7.46
527.497	7.5
527.696	7.5
527.894	7.53
528.092	7.61
528.291	7.66
528.489	7.69
528.688	7.73
528.886	7.77
529.084	7.8
529.283	7.86
529.481	7.89
529.679	7.86
529.877	7.95
530.076	7.94
530.274	7.91
530.472	7.87
530.67	7.9
530.869	7.89
531.067	7.9
531.265	7.92
531.463	7.93
531.661	7.96
531.859	8.05
532.057	8.03
532.255	8.09
532.454	8.12
532.652	8.19
532.85	8.21
533.048	8.32
533.246	8.36
533.444	8.41
533.642	8.43
533.84	8.43
534.038	8.42
534.236	8.47
534.434	8.47
534.632	8.49
534.83	8.52
535.027	8.58
535.225	8.56
535.423	8.59
535.621	8.57
535.819	8.63
536.017	8.76
536.215	8.76
536.412	8.81
536.61	8.9
536.808	8.88
537.006	8.89
537.203	8.9
537.401	8.87
537.599	8.93
537.797	8.96
537.994	8.95
538.192	8.9
538.39	9
538.587	8.95
538.785	9
538.983	9.02
539.18	9.05
539.378	9.11
539.575	9.17
539.773	9.16
539.97	9.25
540.168	9.31
540.366	9.41
540.563	9.39
540.761	9.49
540.958	9.53
541.155	9.65
541.353	9.72
541.55	9.72
541.748	9.76
541.945	9.85
542.143	9.86
542.34	9.93
542.537	9.91
542.735	10.02
542.932	10.12
543.129	10.15
543.327	10.18
543.524	10.2
543.721	10.33
543.919	10.4
544.116	10.39
544.313	10.41
544.51	10.46
544.708	10.49
544.905	10.48
545.102	10.45
545.299	10.48
545.496	10.53
545.693	10.62
545.891	10.62
546.088	10.67
546.285	10.76
546.482	10.86
546.679	10.84
546.876	10.91
547.073	11.08
547.27	11.12
547.467	11.12
547.664	11.09
547.861	11.07
548.058	11.21
548.255	11.21
548.452	11.29
548.649	11.28
548.846	11.36
549.043	11.3
549.24	11.23
549.437	11.31
549.633	11.23
549.83	11.24
550.027	11.24
550.224	11.22
550.421	11.24
550.618	11.26
550.814	11.36
551.011	11.42
551.208	11.55
551.405	11.7
551.601	11.8
551.798	11.98
551.995	12.03
552.191	12.15
552.388	12.21
552.585	12.31
552.781	12.27
552.978	12.32
553.175	12.48
553.371	12.54
553.568	12.58
553.764	12.56
553.961	12.72
554.157	12.89
554.354	12.94
554.55	13.02
554.747	13.05
554.943	13.17
555.14	13.15
555.336	13.12
555.533	13.19
555.729	13.21
555.926	13.21
556.122	13.13
556.318	13.15
556.515	13.18
556.711	13.2
556.907	13.33
557.104	13.4
557.3	13.51
557.496	13.5
557.693	13.46
557.889	13.45
558.085	13.54
558.281	13.69
558.478	13.76
558.674	13.74
558.87	13.78
559.066	13.8
559.262	13.95
559.459	14.01
559.655	14.17
559.851	14.38
560.047	14.55
560.243	14.74
560.439	14.75
560.635	14.82
560.831	14.98
561.027	15.12
561.223	15.23
561.419	15.13
561.615	15.19
561.811	15.19
562.007	15.2
562.203	15.22
562.399	15.2
562.595	15.3
562.791	15.4
562.987	15.3
563.183	15.37
563.379	15.51
563.575	15.69
563.771	15.79
563.966	15.8
564.162	15.89
564.358	15.98
564.554	16
564.75	16.17
564.945	16.19
565.141	16.39
565.337	16.37
565.533	16.36
565.728	16.43
565.924	16.47
566.12	16.64
566.315	16.68
566.511	16.79
566.707	16.79
566.902	16.8
567.098	16.87
567.293	16.88
567.489	17.09
567.684	17.14
567.88	17.2
568.076	17.21
568.271	17.23
568.467	17.24
568.662	17.31
568.858	17.5
569.053	17.46
569.248	17.52
569.444	17.6
569.639	17.56
569.835	17.7
570.03	17.71
570.225	17.79
570.421	17.94
570.616	18.15
570.812	18.16
571.007	18.25
571.202	18.36
571.397	18.46
571.593	18.64
571.788	18.76
571.983	18.77
572.178	18.9
572.374	19.1
572.569	19.14
572.764	19.21
572.959	19.2
573.154	19.18
573.35	19.26
573.545	19.33
573.74	19.31
573.935	19.36
574.13	19.37
574.325	19.33
574.52	19.24
574.715	19.13
574.91	19.1
575.105	19.23
575.3	19.34
575.495	19.36
575.69	19.4
575.885	19.4
576.08	19.4
576.275	19.46
576.47	19.51
576.665	19.47
576.86	19.51
577.055	19.51
577.25	19.6
577.444	19.54
577.639	19.53
577.834	19.48
578.029	19.61
578.224	19.58
578.418	19.74
578.613	19.89
578.808	20.09
579.003	20.27
579.197	20.49
579.392	20.48
579.587	20.61
579.781	20.72
579.976	20.82
580.171	20.76
580.365	20.86
580.56	20.85
580.755	20.88
580.949	20.91
581.144	20.91
581.338	20.81
581.533	20.86
581.727	20.91
581.922	20.84
582.116	20.89
582.311	20.97
582.505	21.11
582.7	21.19
582.894	21.2
583.089	21.19
583.283	21.17
583.478	21.19
583.672	21.33
583.866	21.35
584.061	21.59
584.255	21.68
584.449	21.78
584.644	21.76
584.838	21.79
585.032	21.92
585.226	22.02
585.421	22.23
585.615	22.25
585.809	22.12
586.003	22.17
586.198	22.03
586.392	22.06
586.586	22
586.78	22.06
586.974	22.2
587.168	22.12
587.363	22.19
587.557	22.15
587.751	22.22
587.945	22.3
588.139	22.42
588.333	22.52
588.527	22.51
588.721	22.62
588.915	22.56
589.109	22.5
589.303	22.62
589.497	22.63
589.691	22.65
589.885	22.73
590.079	22.73
590.273	22.66
590.466	22.71
590.66	22.66
590.854	22.57
591.048	22.73
591.242	22.87
591.436	22.92
591.629	23.05
591.823	23.1
592.017	23.12
592.211	23.34
592.404	23.3
592.598	23.29
592.792	23.34
592.986	23.41
593.179	23.27
593.373	23.21
593.567	23.2
593.76	23.1
593.954	23.22
594.147	23.31
594.341	23.17
594.535	23.31
594.728	23.46
594.922	23.52
595.115	23.55
595.309	23.69
595.502	23.72
595.696	23.69
595.889	23.78
596.083	23.55
596.276	23.51
596.47	23.5
596.663	23.37
596.856	23.36
597.05	23.38
597.243	23.43
597.437	23.43
597.63	23.42
597.823	23.47
598.017	23.32
598.21	23.53
598.403	23.52
598.596	23.66
598.79	23.81
598.983	23.72
599.176	23.76
599.369	23.78
599.563	23.68
599.756	23.72
599.949	23.74
600.142	23.8
600.335	23.77
600.528	23.84
600.722	23.78
600.915	23.77
601.108	23.9
601.301	23.8
601.494	23.86
601.687	24.1
601.88	24.15
602.073	24.23
602.266	24.33
602.459	24.39
602.652	24.41
602.845	24.39
603.038	24.37
603.231	24.24
603.424	24.33
603.617	24.3
603.809	24.23
604.002	24.15
604.195	24.13
604.388	24.12
604.581	24.16
604.774	24.09
604.966	24.03
605.159	23.96
605.352	24.09
605.545	24.18
605.737	24.17
605.93	24.11
606.123	24.12
606.316	24.13
606.508	24.25
606.701	24.21
606.894	24.22
607.086	24.42
607.279	24.52
607.471	24.51
607.664	24.55
607.857	24.61
608.049	24.58
608.242	24.69
608.434	24.76
608.627	24.66
608.819	24.66
609.012	24.76
609.204	24.76
609.397	24.93
609.589	25.05
609.782	25.06
609.974	25.06
610.166	25.2
610.359	25.21
610.551	25.27
610.743	25.42
610.936	25.47
611.128	25.37
611.32	25.46
611.513	25.34
611.705	25.41
611.897	25.34
612.09	25.29
612.282	25.32
612.474	25.35
612.666	25.32
612.858	25.34
613.051	25.29
613.243	25.37
613.435	25.23
613.627	25.38
613.819	25.12
614.011	25.13
614.203	25.45
614.395	25.34
614.588	25.39
614.78	25.28
614.972	25.21
615.164	25.43
615.356	25.74
615.548	25.72
615.74	25.7
615.932	25.97
616.124	26.04
616.315	25.98
616.507	26.12
616.699	26.05
616.891	26.05
617.083	26.03
617.275	25.94
617.467	25.79
617.659	25.95
617.85	25.96
618.042	25.85
618.234	25.9
618.426	25.83
618.618	25.92
618.809	26.07
619.001	26.12
619.193	26.23
619.384	26.12
619.576	26.17
619.768	26.23
619.959	26.19
620.151	25.91
620.343	25.96
620.534	26.13
620.726	26.12
620.917	26.01
621.109	26
621.301	25.99
621.492	26.2
621.684	26.2
621.875	26.23
622.067	26.29
622.258	26.61
622.45	26.49
622.641	26.18
622.832	26.14
623.024	26.07
623.215	26.22
623.407	26.02
623.598	26.07
623.789	25.89
623.981	25.81
624.172	25.87
624.363	25.77
624.555	25.72
624.746	25.94
624.937	25.9
625.129	25.84
625.32	25.65
625.511	25.81
625.702	25.7
625.893	25.82
626.085	25.81
626.276	25.71
626.467	25.75
626.658	25.8
626.849	25.63
627.04	25.61
627.231	25.91
627.422	26
627.614	25.88
627.805	25.87
627.996	25.84
628.187	25.9
628.378	25.79
628.569	25.78
628.76	25.92
628.951	26.08
629.142	26.02
629.332	25.93
629.523	25.96
629.714	26.13
629.905	26.25
630.096	26.32
630.287	26.39
630.478	26.52
630.669	26.59
630.859	26.37
631.05	26.29
631.241	26.39
631.432	26.21
631.623	26.29
631.813	26.23
632.004	26.22
632.195	26.21
632.385	26.1
632.576	26.23
632.767	26.17
632.957	26.33
633.148	26.42
633.339	26.5
633.529	26.73
633.72	26.67
633.91	26.73
634.101	26.57
634.292	26.6
634.482	26.61
634.673	26.78
634.863	26.79
635.054	26.95
635.244	26.97
635.435	27.02
635.625	26.92
635.815	26.96
636.006	27.02
636.196	27.27
636.387	27.36
636.577	27.35
636.767	27.17
636.958	27.44
637.148	27.09
637.338	26.97
637.529	26.94
637.719	26.7
637.909	26.72
638.099	26.84
638.29	26.77
638.48	26.64
638.67	26.7
638.86	26.89
639.05	26.74
639.241	26.85
639.431	26.97
639.621	26.97
639.811	27.37
640.001	27.46
640.191	27.46
640.381	27.55
640.571	27.6
640.761	27.62
640.951	27.59
641.141	27.7
641.331	27.85
641.521	27.74
641.711	27.86
641.901	27.82
642.091	27.86
642.281	27.57
642.471	27.33
642.661	27.32
642.851	27.34
643.041	27.19
643.231	27
643.42	26.87
643.61	27.04
643.8	26.96
643.99	26.94
644.18	26.94
644.369	27.17
644.559	27.4
644.749	27.4
644.939	27.41
645.128	27.37
645.318	27.39
645.508	27.51
645.697	27.48
645.887	27.43
646.076	27.32
646.266	27.16
646.456	26.83
646.645	26.79
646.835	26.93
647.024	26.83
647.214	26.89
647.403	26.91
647.593	26.86
647.782	26.87
647.972	26.84
648.161	26.89
648.351	27
648.54	27.4
648.73	27.32
648.919	27.42
649.108	27.67
649.298	27.56
649.487	27.51
649.677	27.75
649.866	27.79
650.055	27.97
650.244	28.03
650.434	27.93
650.623	27.79
650.812	27.9
651.002	27.85
651.191	27.72
651.38	27.99
651.569	28.03
651.758	27.7
651.947	27.6
652.137	27.52
652.326	27.51
652.515	27.68
652.704	27.63
652.893	27.73
653.082	27.79
653.271	27.84
653.46	27.59
653.649	27.87
653.838	28.17
654.027	28.32
654.216	28.25
654.405	28.18
654.594	28.08
654.783	28.27
654.972	28.16
655.161	27.92
655.35	27.84
655.539	27.78
655.728	27.77
655.916	27.92
656.105	27.88
656.294	27.99
656.483	28.18
656.672	28.14
656.86	28.06
657.049	28.08
657.238	28.13
657.427	28.25
657.615	28.35
657.804	28.24
657.993	28.28
658.181	28.16
658.37	28.31
658.559	28.22
658.747	28.29
658.936	28.3
659.125	28.26
659.313	28.29
659.502	28.42
659.69	28.44
659.879	28.46
660.067	28.2
660.256	28.43
660.444	28.33
660.633	28.38
660.821	28.44
661.01	28.3
661.198	28.48
661.387	28.48
661.575	28.3
661.763	28.39
661.952	28.27
662.14	28.4
662.328	28.24
662.517	28.07
662.705	28.21
662.893	28.21
663.082	28.61
663.27	28.45
663.458	28.29
663.646	28.35
663.834	28.44
664.023	28.59
664.211	28.6
664.399	28.68
664.587	28.67
664.775	28.42
664.963	28.13
665.152	27.98
665.34	27.99
665.528	28.12
665.716	28.3
665.904	28.06
666.092	28.27
666.28	28.25
666.468	28.06
666.656	28.1
666.844	28.33
667.032	28.43
667.22	28.43
667.408	28.55
667.596	28.61
667.784	28.4
667.971	28.57
668.159	28.49
668.347	28.61
668.535	28.7
668.723	28.88
668.911	28.8
669.098	28.67
669.286	28.44
669.474	28.42
669.662	28.57
669.849	28.65
670.037	28.67
670.225	28.59
670.413	28.45
670.6	28.89
670.788	29.01
670.976	29
671.163	29.08
671.351	29.36
671.538	29.28
671.726	29.15
671.913	29.18
672.101	29.04
672.289	29.1
672.476	29.05
672.664	28.68
672.851	28.49
673.039	28.51
673.226	28.67
673.413	28.69
673.601	28.71
673.788	28.66
673.976	28.38
674.163	28.37
674.35	28.08
674.538	27.75
674.725	27.83
674.912	27.79
675.1	27.83
675.287	28.12
675.474	28.11
675.662	28.13
675.849	28.26
676.036	28.29
676.223	28.28
676.411	28.48
676.598	28.58
676.785	28.77
676.972	28.82
677.159	28.6
677.346	28.41
677.533	28.35
677.721	28.47
677.908	28.45
678.095	28.53
678.282	28.78
678.469	28.83
678.656	29.06
678.843	29.01
679.03	28.95
679.217	29.23
679.404	29.32
679.591	29.11
679.778	29.1
679.964	28.89
680.151	28.84
680.338	28.62
680.525	28.48
680.712	28.46
680.899	28.31
681.086	28.21
681.272	27.91
681.459	27.59
681.646	27.73
681.833	27.75
682.02	27.91
682.206	28.02
682.393	28.08
682.58	28.31
682.766	28.37
682.953	28.36
683.14	28.56
683.326	28.88
683.513	29.15
683.7	29.34
683.886	29.2
684.073	29.32
684.259	29.26
684.446	29.35
684.632	29.18
684.819	29.03
685.005	29.29
685.192	29.13
685.378	28.96
685.565	28.87
685.751	28.73
685.938	28.78
686.124	28.82
686.31	28.89
686.497	28.76
686.683	28.82
686.87	28.84
687.056	28.64
687.242	28.79
687.429	29.09
687.615	29.01
687.801	29.38
687.987	29.53
688.174	29.27
688.36	29.58
688.546	29.88
688.732	29.95
688.918	30.3
689.105	30.43
689.291	30.47
689.477	30.13
689.663	30.46
689.849	30.24
690.035	29.92
690.221	29.86
690.407	29.59
690.593	29.58
690.779	29.5
690.965	29.25
691.151	29.15
691.337	28.97
691.523	29.16
691.709	28.72
691.895	28.97
692.081	29.14
692.267	29.7
692.453	29.61
692.639	29.63
692.825	29.51
693.011	29.55
693.196	29.53
693.382	29.88
693.568	29.78
693.754	30.01
693.94	29.78
694.125	29.97
694.311	29.85
694.497	29.81
694.682	29.54
694.868	29.41
695.054	29.48
695.239	29.47
695.425	29.23
695.611	29.39
695.796	29.52
695.982	29.47
696.168	29.21
696.353	28.95
696.539	29.12
696.724	28.92
696.91	28.93
697.095	28.95
697.281	29.17
697.466	29.15
697.652	29.01
697.837	28.87
698.023	28.93
698.208	28.96
698.393	29.15
698.579	29.1
698.764	29.31
698.949	29.39
699.135	29.39
699.32	29.29
699.505	29.29
699.691	29.4
699.876	29.51
700.061	29.35
700.246	29.61
700.432	29.25
700.617	29.31
700.802	29.1
700.987	29.34
701.172	29.71
701.358	29.41
701.543	29.54
701.728	29.45
701.913	29.72
702.098	29.93
702.283	29.79
702.468	30.41
702.653	30.44
702.838	30.57
703.023	30.8
703.208	30.43
703.393	31.02
703.578	30.92
703.763	31.11
703.948	30.82
704.133	31.08
704.318	31.12
704.503	30.77
704.688	30.68
704.873	30.94
705.057	30.37
705.242	30.09
705.427	29.92
705.612	30.04
705.797	29.56
705.981	29.67
706.166	29.46
706.351	29.21
706.536	29.4
706.72	29.7
706.905	29.64
707.09	30.01
707.274	30.02
707.459	29.9
707.644	29.9
707.828	30.06
708.013	30.11
708.197	30.3
708.382	30.33
708.567	30.04
708.751	29.89
708.936	30
709.12	29.94
709.305	30.16
709.489	30.1
709.673	29.92
709.858	29.99
710.042	29.93
710.227	29.51
710.411	30.04
710.596	30.18
710.78	30.19
710.964	29.84
711.149	30.14
711.333	29.97
711.517	30.11
711.702	30.07
711.886	30.02
712.07	30.02
712.254	30.08
712.438	29.36
712.623	29.41
712.807	28.9
712.991	29.31
713.175	28.82
713.359	28.95
713.544	29.08
713.728	29.34
713.912	29.37
714.096	29.12
714.28	29.16
714.464	29.48
714.648	29.55
714.832	30.07
715.016	30.01
715.2	30.33
715.384	30.27
715.568	29.94
715.752	29.77
715.936	29.52
716.12	29.93
716.304	29.88
716.488	29.99
716.671	30.1
716.855	30.14
717.039	29.97
717.223	29.76
717.407	30.07
717.59	30.49
717.774	30.5
717.958	31.14
718.142	31.03
718.325	30.77
718.509	30.66
718.693	30.84
718.877	30.75
719.06	31.02
719.244	31.31
719.428	30.97
719.611	30.54
719.795	30.82
719.978	30.41
720.162	30.48
720.345	30.85
720.529	31.06
720.713	30.73
720.896	30.69
721.08	30.17
721.263	29.71
721.446	29.34
721.63	29.71
721.813	29.34
721.997	29.13
722.18	29.11
722.364	29.24
722.547	29.11
722.73	28.8
722.914	28.82
723.097	29.04
723.28	29.68
723.464	29.96
723.647	29.44
723.83	29.51
724.013	30.21
724.197	29.76
724.38	29.73
724.563	29.44
724.746	29.7
724.929	29.7
725.112	30.05
725.296	29.77
725.479	30.06
725.662	30.2
725.845	30.25
726.028	29.9
726.211	30.06
726.394	30.29
726.577	30.81
726.76	30.74
726.943	30.98
727.126	30.58
727.309	30.83
727.492	30.58
727.675	30.97
727.858	30.68
728.041	30.79
728.224	30.9
728.407	30.81
728.589	30.39
728.772	30.5
728.955	30.16
729.138	30.17
729.321	30.06
729.503	29.92
729.686	29.6
729.869	30
730.052	29.99
730.234	29.84
730.417	29.53
730.6	29.84
730.782	29.79
730.965	30.01
731.148	30.67
731.33	30.88
731.513	31.04
731.695	30.9
731.878	30.78
732.061	31.02
732.243	31.34
732.426	31.31
732.608	31.18
732.791	31.34
732.973	31.3
733.156	31.06
733.338	30.97
733.52	30.66
733.703	31.48
733.885	31.52
734.068	30.96
734.25	30.77
734.432	31.01
734.615	30.83
734.797	30.63
734.979	30.72
735.162	30.24
735.344	29.61
735.526	29.88
735.708	29.49
735.891	30.11
736.073	30.47
736.255	30.56
736.437	30.42
736.619	30.54
736.802	30.65
736.984	30.59
737.166	30.65
737.348	31.18
737.53	31.39
737.712	31.31
737.894	30.98
738.076	30.74
738.258	31.02
738.44	31
738.622	31.22
738.804	31.52
738.986	31.31
739.168	32.19
739.35	32.01
739.532	31.82
739.714	31.64
739.896	31.15
740.078	31.27
740.259	30.6
740.441	30.89
740.623	30.93
740.805	30.59
740.987	30.88
741.168	30
741.35	29.21
741.532	29.64
741.714	29.78
741.895	29.98
742.077	30.03
742.259	30.9
742.44	30.65
742.622	29.41
742.804	29.4
742.985	29.56
743.167	29.75
743.348	30.64
743.53	30.13
743.711	29.69
743.893	30.05
744.075	30.49
744.256	30.13
744.438	30.23
744.619	31.17
744.8	30.98
744.982	30.73
745.163	30.24
745.345	30.41
745.526	30.38
745.707	30.96
745.889	30.9
746.07	30.36
746.252	30.39
746.433	29.94
746.614	29.59
746.795	29.9
746.977	30.14
747.158	30.73
747.339	30.16
747.52	30.34
747.702	30.18
747.883	29.96
748.064	29.48
748.245	28.67
748.426	29.11
748.607	29.57
748.788	29.73
748.97	29.3
749.151	29.03
749.332	29.51
749.513	29.55
749.694	28.75
749.875	29.32
750.056	30.04
750.237	30.04
750.418	30.66
750.599	30.24
750.78	29.15
750.96	29.71
751.141	29.93
751.322	29.7
751.503	29.88
751.684	30.74
751.865	30.03
752.046	29.7
752.226	30.01
752.407	29.42
752.588	30.39
752.769	30.76
752.949	29.6
753.13	28.47
753.311	28.97
753.492	28.68
753.672	28.61
753.853	28.65
754.034	29.72
754.214	30.1
754.395	29.67
754.575	28.99
754.756	29.67
754.937	30.55
755.117	31.48
755.298	30.73
755.478	30.66
755.659	30.62
755.839	30.13
756.02	29.05
756.2	28.82
756.381	29.18
756.561	29.04
756.741	28.69
756.922	27.98
757.102	28.28
757.283	28.44
757.463	28.36
757.643	28.05
757.823	28.94
758.004	29.11
758.184	29.58
758.364	30.02
758.545	30.15
758.725	30.09
758.905	31.42
759.085	30.6
759.265	30.91
759.446	31.64
759.626	31.75
759.806	31.76
759.986	31.92
760.166	32.01
760.346	31.66
760.526	31.54
760.706	32.01
760.886	30.62
761.066	31.43
761.246	31.56
761.426	31.23
761.606	30.98
761.786	31.15
761.966	30.69
762.146	30.44
762.326	30.51
762.506	30.73
762.686	30.32
762.866	30.64
763.046	30.38
763.225	30.05
763.405	30.19
763.585	30.44
763.765	30.31
763.945	30.78
764.124	30.64
764.304	30.41
764.484	30
764.664	30.05
764.843	30.16
765.023	30.3
765.203	30.32
765.382	29.64
765.562	29.8
765.741	29.4
765.921	28.74
766.101	29.32
766.28	29.33
766.46	29.9
766.639	30.18
766.819	30.5
766.998	30.42
767.178	30.78
767.357	31
767.537	30.5
767.716	31.02
767.896	32.25
768.075	31.61
768.254	32.12
768.434	32.44
768.613	32.5
768.792	31.74
768.972	32.29
769.151	32.11
769.33	32.59
769.51	33.26
769.689	32.36
769.868	31.61
770.047	32.13
770.226	31.63
770.406	31.19
770.585	31.13
770.764	31.65
770.943	30.5
771.122	30.58
771.301	30.2
771.48	30.02
771.66	30.23
771.839	30.42
772.018	30.15
772.197	30.71
772.376	30.33
772.555	29.82
772.734	29.71
772.913	30.72
773.092	30.46
773.271	30.45
773.449	30.29
773.628	29.8
773.807	29.51
773.986	29.26
774.165	28.91
774.344	28.99
774.523	29.2
774.701	29.06
774.88	29
775.059	28.61
775.238	28.24
775.417	28.72
775.595	29.53
775.774	29.73
775.953	29.94
776.131	30.27
776.31	30.67
776.489	30.48
776.667	30.98
776.846	30.76
777.025	31.27
777.203	31.68
777.382	31.45
777.56	31.02
777.739	31.67
777.917	31.98
778.096	31.37
778.274	31.07
778.453	31.35
778.631	31.03
778.81	29.95
778.988	29.82
779.166	29.56
779.345	29.75
779.523	29.87
779.702	28.71
779.88	27.87
780.058	28.67
780.237	28.76
780.415	28.49
780.593	28.72
780.771	28.62
780.95	28.96
781.128	29.19
781.306	28.83
781.484	29.4
781.662	30.08
781.841	30.99
782.019	30.72
782.197	31.21
782.375	31.7
782.553	31.72
782.731	32.55
782.909	32.25
783.087	32.57
783.265	31.57
783.443	31.7
783.621	31.35
783.799	31.03
783.977	30.92
784.155	31.04
784.333	30.78
784.511	30.3
784.689	30.37
784.867	30.64
785.045	30.28
785.223	31.18
785.4	30.27
785.578	30.12
785.756	29.79
785.934	29.85
786.112	28.65
786.289	28.77
786.467	28.71
786.645	28.8
786.823	29.13
787	29.66
787.178	29.72
787.356	29.4
787.533	30.04
787.711	30.55
787.889	30.13
788.066	30.85
788.244	31.39
788.421	31.07
788.599	31.61
788.776	31.75
788.954	31.4
789.131	31.33
789.309	32.07
789.486	30.47
789.664	30.31
789.841	31.05
790.019	31.2
790.196	30.48
790.373	31.87
790.551	31.95
790.728	30.96
790.906	31.69
791.083	31
791.26	30.82
791.437	31.65
791.615	32.23
791.792	31.17
791.969	30.55
792.146	32.05
792.324	31.04
792.501	29.92
792.678	30.1
792.855	30.13
793.032	30.3
793.209	30.22
793.387	30.04
793.564	29.29
793.741	29.8
793.918	30.22
794.095	29.07
794.272	30
794.449	30.61
794.626	30.86
794.803	30.14
794.98	30.92
795.157	30.61
795.334	32.33
795.511	32.76
795.688	33.74
795.864	33.26
796.041	32.9
796.218	31.69
796.395	31.76
796.572	31.6
796.749	31.18
796.925	31.81
797.102	32.92
797.279	32.62
797.456	32.67
797.632	31.81
797.809	32.34
797.986	32.86
798.162	33.86
798.339	32.91
798.516	32.38
798.692	32.69
798.869	32.34
799.046	30.66
799.222	29.26
799.399	28.88
799.575	28.94
799.752	28.23
799.928	27.47
800.105	26.84
800.281	27.55
800.458	27.88
800.634	27.16
800.811	27.33
800.987	28.76
801.163	28.84
801.34	28.47
801.516	28.3
801.692	28.28
801.869	28.05
802.045	28.03
802.221	28.09
802.398	29.23
802.574	30.85
802.75	30.62
802.926	30.38
803.103	31.37
803.279	31.07
803.455	31.44
803.631	32.44
803.807	32.17
803.983	33.23
804.16	33.82
804.336	32.09
804.512	31.97
804.688	31.22
804.864	30.23
805.04	29.58
805.216	29.23
805.392	28.96
805.568	27.49
805.744	28.62
805.92	27.46
806.096	27.43
806.272	27.63
806.448	28.41
806.623	28.54
806.799	29.27
806.975	30.81
807.151	32.01
807.327	31.82
807.503	33.64
807.678	32.08
807.854	31.88
808.03	30.57
808.206	31.4
808.381	29.53
808.557	29.66
808.733	29.18
808.908	27.18
809.084	26.4
809.26	26.8
809.435	25.59
809.611	26.84
809.787	27.02
809.962	27.61
810.138	27.35
810.313	27.89
810.489	27.24
810.664	27.57
810.84	28.29
811.015	28.42
811.191	28.39
811.366	29.06
811.542	29.16
811.717	29.57
811.892	31.01
812.068	30.88
812.243	31.3
812.419	30.82
812.594	31.42
812.769	30.91
812.944	31.72
813.12	31.55
813.295	30.79
813.47	29.9
813.645	29.59
813.821	27.54
813.996	26.54
814.171	26.71
814.346	27.76
814.521	28.24
814.697	28.54
814.872	28.08
815.047	28.26
815.222	29.41
815.397	30.97
815.572	31.4
815.747	31.09
815.922	31.63
816.097	30.35
816.272	30.87
816.447	29.57
816.622	29.83
816.797	30.39
816.972	30.4
817.147	28.11
817.322	27.74
817.496	27.26
817.671	28.07
817.846	29.09
818.021	29.49
818.196	28.8
818.371	29.67
818.545	27.3
818.72	27.38
818.895	27.36
819.069	27.48
819.244	27.99
819.419	28.72
819.594	28.6
819.768	28.64
819.943	29.03
820.117	29.27
820.292	29.15
820.467	29.36
820.641	29.33
820.816	29.8
820.99	30.21
821.165	29.79
821.339	29.59
821.514	29.4
821.688	29.49
821.863	29.34
822.037	29.52
822.212	29.55
822.386	29.81
822.56	29.93
822.735	29.54
822.909	29.64
823.084	29.84
823.258	29.85
823.432	30.14
823.606	29.87
823.781	29.94
823.955	29.84
824.129	29.69
824.303	30
824.478	29.63
824.652	29.99
824.826	29.66
825	29.43
825.174	29.35
825.348	29.42
825.523	29.37
825.697	29.39
825.871	29.25
826.045	29.38
826.219	29.33
826.393	29.35
826.567	29.33
826.741	29.7
826.915	29.96
827.089	30.21
827.263	30.05
827.437	30.39
827.611	30.33
827.784	30.49
827.958	30.92
828.132	30.69
828.306	30.97
828.48	30.89
828.654	30.64
828.827	30.33
829.001	30.54
829.175	30.6
829.349	30.47
829.522	30.78
829.696	30.93
829.87	30.02
830.044	29.58
830.217	29.9
830.391	29.63
830.565	30.28
830.738	30.76
830.912	29.74
831.085	29.74
831.259	29.75
831.432	29.37
831.606	28.83
831.779	29.64
831.953	29.43
832.126	28.87
832.3	29.7
832.473	29.08
832.647	28.57
832.82	28.96
832.994	28.54
833.167	28.5
833.34	28.5
833.514	29.02
833.687	29.15
833.86	29.47
834.034	29.62
834.207	29.21
834.38	29.22
834.553	29.15
834.727	28.93
834.9	29.44
835.073	29.72
835.246	30.04
835.419	29.38
835.593	28.29
835.766	29.29
835.939	29.5
836.112	29.17
836.285	30.04
836.458	30.86
836.631	31.08
836.804	30.84
836.977	31.77
837.15	32.22
837.323	33.61
837.496	35.2
837.669	33.52
837.842	32.61
838.015	32.05
838.188	32.42
838.361	31.68
838.533	31.56
838.706	30.49
838.879	28.25
839.052	28.31
839.225	27.54
839.398	27.96
839.57	28.48
839.743	28.98
839.916	31.22
840.088	30.62
840.261	31.17
840.434	30.35
840.607	30.13
840.779	31.67
840.952	30.46
841.124	31.06
841.297	28.01
841.47	30.35
841.642	30.86
841.815	29.02
841.987	27.83
842.16	26.55
842.332	28.04
842.505	30.1
842.677	29.6
842.85	29.64
843.022	29.13
843.194	31.05
843.367	26.69
843.539	26.88
843.712	28.45
843.884	27.39
844.056	29.64
844.229	29.3
844.401	26.85
844.573	26.97
844.745	29.6
844.918	26.62
845.09	30.42
845.262	30.32
845.434	27.43
845.606	21.86
845.779	23.79
845.951	20.15
846.123	19.03
846.295	24.56
846.467	24.71
846.639	26.46
846.811	30.52
846.983	27.54
847.155	28.8
847.327	29.09
847.499	34.72
847.671	38.33
847.843	37.54
848.015	40.66
848.187	37.14
848.359	36.59
848.531	29.93
848.703	29.25
848.875	32.61
849.047	38.29
849.218	39.97
849.39	37.4
849.562	31.94
849.734	34.54
849.905	34.56
850.077	40.81
850.249	36.95
850.421	41.27
850.592	35.96
850.764	36.14
850.936	34.12
851.107	35.43
851.279	37.34
851.451	39.85
851.622	40.4
851.794	39.74
851.965	37.24
852.137	41.4
852.308	38.19
852.48	39.95
852.651	38.1
852.823	36.7
852.994	34.74
853.166	31.79
853.337	34.41
853.509	31.85
853.68	29.49
853.851	30.01
854.023	30.02
854.194	34.4
854.365	39.23
854.537	37.25
854.708	36.22
854.879	34.58
855.05	33.97
855.222	30.47
855.393	33.42
855.564	30.76
855.735	29.52
855.906	28.74
856.078	28.66
856.249	25.25
856.42	27.72
856.591	25.07
856.762	24.84
856.933	24.64
857.104	27.1
857.275	24.22
857.446	25.58
857.617	27.47
857.788	26.24
857.959	21.58
858.13	24.2
858.301	20.02
858.472	20.22
858.643	25.72
858.814	27.57
858.985	25.78
859.155	30.04
859.326	34.7
859.497	33.41
859.668	36.43
859.839	38.84
860.009	37.73
860.18	41.69
860.351	41.98
860.522	37.67
860.692	33.87
860.863	35.64
861.034	33.2
861.204	31.39
861.375	32.98
861.546	34.98
861.716	35.79
861.887	34.58
862.057	32.29
862.228	37.2
862.398	34.99
862.569	40.4
862.739	38.94
862.91	39.55
863.08	38.05
863.251	36.29
863.421	31.61
863.592	35.54
863.762	34.94
863.932	39.77
864.103	36.47
864.273	38.48
864.443	35.83
864.614	39.29
864.784	38.86
864.954	36.33
865.125	35.67
865.295	35.66
865.465	32.16
865.635	34.25
865.805	34.97
865.976	35.44
866.146	36.6
866.316	37.52
866.486	33.14
866.656	30.65
866.826	38.4
866.996	41.46
867.166	44.18
867.336	46.65
867.506	46.73
867.676	41.01
867.846	41.43
868.016	40.36
868.186	42.65
868.356	43.65
868.526	46.58
868.696	40.43
868.866	40.05
869.036	37.76
869.206	37.42
869.376	33.11
869.545	33.86
869.715	35.21
869.885	39.48
870.055	36.44
870.224	37.72
870.394	35.91
870.564	38.31
870.734	33.6
870.903	37.61
871.073	40.03
871.243	39.59
871.412	41.29
871.582	38.38
871.751	35.82
871.921	41.84
872.091	38.76
872.26	42.24
872.43	43.3
872.599	42.25
872.769	38.24
872.938	35.32
873.108	34.6
873.277	34.51
873.446	33.93
873.616	30.83
873.785	24.51
873.955	28.72
874.124	28.65
874.293	27.37
874.463	30.82
874.632	33.28
874.801	36.47
874.971	40.99
875.14	36.8
875.309	35.96
875.478	38.35
875.647	43.55
875.817	45
875.986	43.45
876.155	44.2
876.324	43.51
876.493	44.83
876.662	42.42
876.831	37.99
877	40.25
877.17	41.03
877.339	43.46
877.508	40.81
877.677	38.19
877.846	39.96
878.015	37.71
878.184	35.18
878.352	33.78
878.521	33.62
878.69	35.51
878.859	37.33
879.028	38.89
879.197	35.32
879.366	33.31
879.534	33.95
879.703	33.87
879.872	33.62
880.041	34.45
880.21	33.99
880.378	32.07
880.547	31.59
880.716	31.49
880.884	31.69
881.053	31.89
881.222	31.74
881.39	31.56
881.559	30.7
881.727	30.43
881.896	29.62
882.065	29.31
882.233	28.86
882.402	29.4
882.57	29.28
882.739	29.26
882.907	29.44
883.076	30.31
883.244	29.8
883.412	30.05
883.581	30.2
883.749	30.25
883.918	29.86
884.086	31.48
884.254	31.04
884.423	30.22
884.591	30.44
884.759	31.15
884.927	30.61
885.096	30.41
885.264	30.77
885.432	31.59
885.6	31.82
885.769	33.12
885.937	32.75
886.105	32.35
886.273	33.29
886.441	31.86
886.609	31.21
886.777	29.73
886.945	30.32
887.113	30.69
887.281	31.6
887.449	33.13
887.617	33.83
887.785	36.47
887.953	36.31
888.121	40.3
888.289	41.61
888.457	40.36
888.625	42.77
888.793	42.47
888.961	40.08
889.129	37.72
889.296	38.94
889.464	38.82
889.632	35.36
889.8	39.32
889.967	34.75
890.135	34.02
