Data from 2938482_Reflection_1.txt Node
Date: Wed Jun 17 01:07:28 EDT 2015
User: robert
Spectrometer: USB4E03002
Autoset integration time: false
Trigger mode: 4
Integration Time (sec): 1.000000E-1
Scans to average: 10
Electric dark correction enabled: true
Nonlinearity correction enabled: false
Boxcar width: 5
Stray light correction enabled: false
XAxis mode: Wavelengths
Stop averaging: false
Number of Pixels in Spectrum: 3648
>>>>>Begin Spectral Data<<<<<
177.575	-1075.56
177.794	246.11
178.014	149.38
178.233	98.35
178.452	615.85
178.672	-834.48
178.891	-70.31
179.11	12.37
179.33	8.46
179.549	17.34
179.768	315.89
179.987	-182.62
180.207	-10.7
180.426	-75.89
180.645	-110.09
180.864	-59.43
181.084	-54.47
181.303	-968.25
181.522	-126.05
181.741	-0.77
181.96	-5.08
182.179	19.75
182.398	55.67
182.618	-150.08
182.837	39.08
183.056	65.26
183.275	89.26
183.494	155.14
183.713	-72.56
183.932	-128.79
184.151	224.99
184.37	75.74
184.589	51.96
184.808	66.58
185.027	85.96
185.246	88.35
185.465	85.18
185.684	86.3
185.903	82.05
186.122	83.7
186.341	88.02
186.56	75.07
186.779	119.3
186.998	173.48
187.216	208.09
187.435	129.92
187.654	87.16
187.873	62.23
188.092	88.53
188.311	78.59
188.53	167.08
188.748	118.73
188.967	24.06
189.186	2550
189.405	-39.49
189.623	2.57
189.842	-35.9
190.061	-0.37
190.28	49.73
190.498	25.55
190.717	11.17
190.936	-53.35
191.154	-34.88
191.373	12.76
191.592	39.21
191.81	62.7
192.029	68.65
192.248	77.08
192.466	63.65
192.685	82.67
192.904	80.46
193.122	101.32
193.341	308.86
193.559	342.01
193.778	195.17
193.996	38.33
194.215	-65.18
194.433	125.92
194.652	102.82
194.87	-13.62
195.089	-1.91
195.307	42.36
195.526	39.93
195.744	61.33
195.963	58.84
196.181	65.22
196.399	76.12
196.618	80.13
196.836	57.21
197.055	-51.8
197.273	-18.68
197.491	81.19
197.71	83.84
197.928	81.35
198.146	98.31
198.365	149.96
198.583	81.86
198.801	80
199.019	54.32
199.238	43.18
199.456	68.09
199.674	70.2
199.892	118.38
200.111	82.75
200.329	120.56
200.547	64.12
200.765	75.62
200.983	86.34
201.202	87.65
201.42	113.73
201.638	122.55
201.856	169.78
202.074	195.58
202.292	130.86
202.51	114.54
202.728	111.74
202.946	123.94
203.165	141.92
203.383	93.11
203.601	88.27
203.819	66.31
204.037	53.71
204.255	49.96
204.473	44.46
204.691	41.55
204.909	36.07
205.127	28.66
205.345	37.82
205.562	38.79
205.78	53.3
205.998	49.71
206.216	44.37
206.434	66.13
206.652	54.85
206.87	65.24
207.088	59.04
207.306	71.14
207.523	71.72
207.741	84.25
207.959	83.55
208.177	74.74
208.395	218.76
208.612	-250.75
208.83	26.08
209.048	1482.14
209.266	9.63
209.483	106.23
209.701	189.47
209.919	-27.33
210.136	71.46
210.354	269.03
210.572	249.83
210.79	137.05
211.007	125.43
211.225	137
211.442	105.36
211.66	104.82
211.878	97.23
212.095	100.27
212.313	99.63
212.53	82.67
212.748	79.89
212.966	64.07
213.183	76.69
213.401	85.73
213.618	84.71
213.836	117.37
214.053	112.53
214.271	123.13
214.488	101.9
214.705	102.59
214.923	116.17
215.14	90.43
215.358	82.46
215.575	72.36
215.793	58.24
216.01	52.61
216.227	46.64
216.445	51.1
216.662	23.09
216.879	9.39
217.097	-0.04
217.314	-25.61
217.531	26.89
217.749	38.12
217.966	49.31
218.183	54.73
218.4	53.36
218.618	48.57
218.835	41.71
219.052	43.72
219.269	33.79
219.487	43.7
219.704	49.02
219.921	26.31
220.138	32.3
220.355	21.24
220.572	1.15
220.79	-6.11
221.007	6.36
221.224	3.67
221.441	1.86
221.658	20.79
221.875	17.03
222.092	20.65
222.309	21.67
222.526	13.54
222.743	15.81
222.96	25.37
223.177	30.05
223.394	25.03
223.611	25.64
223.828	23.68
224.045	17.76
224.262	20.37
224.479	15.35
224.696	14.94
224.913	10.81
225.13	8.53
225.347	8.28
225.564	10.07
225.781	8
225.997	8.9
226.214	10.33
226.431	9.99
226.648	7.91
226.865	8.32
227.082	9
227.298	9.94
227.515	8.9
227.732	8.53
227.949	6.83
228.165	7.63
228.382	6.71
228.599	7.19
228.816	7.15
229.032	6.4
229.249	6.02
229.466	6.6
229.682	7.3
229.899	8.21
230.116	9.45
230.332	12.42
230.549	12.17
230.765	11.75
230.982	11.85
231.199	12.18
231.415	14.14
231.632	15.95
231.848	14.94
232.065	13.96
232.281	16.33
232.498	15.39
232.714	14.98
232.931	18.17
233.147	16.74
233.364	14.16
233.58	13.37
233.797	13.34
234.013	12.66
234.23	10.92
234.446	11.06
234.662	9.64
234.879	10.95
235.095	7.98
235.312	6.16
235.528	8.99
235.744	11.39
235.961	12.98
236.177	13.6
236.393	12.87
236.61	13.59
236.826	13.04
237.042	11.41
237.258	8.99
237.475	10.36
237.691	9.55
237.907	8.7
238.123	7.83
238.339	6.73
238.556	6.92
238.772	7.72
238.988	8.1
239.204	8.17
239.42	8.86
239.636	9.88
239.853	10.15
240.069	9.99
240.285	10.92
240.501	10.54
240.717	10.6
240.933	9.98
241.149	9.25
241.365	9.87
241.581	9.76
241.797	9.89
242.013	9.59
242.229	9.45
242.445	9.28
242.661	8.56
242.877	8.85
243.093	8.56
243.309	9.76
243.525	10.34
243.741	10.14
243.957	10.3
244.173	9.91
244.388	9.73
244.604	8.93
244.82	9.73
245.036	9.66
245.252	9.2
245.468	9.26
245.683	8.69
245.899	8.66
246.115	8.67
246.331	8.69
246.547	8.75
246.762	8.76
246.978	9.26
247.194	8.8
247.409	8.62
247.625	8.79
247.841	8.44
248.057	8.5
248.272	8.17
248.488	7.64
248.703	6.95
248.919	6.17
249.135	6.36
249.35	5.66
249.566	5.42
249.782	5.52
249.997	5.94
250.213	5.99
250.428	5.89
250.644	5.97
250.859	6.65
251.075	7.15
251.29	7.14
251.506	7.31
251.721	7.86
251.937	8.27
252.152	8.7
252.368	8.92
252.583	9.14
252.798	9.81
253.014	9.61
253.229	8.71
253.445	9.58
253.66	10.11
253.875	9.02
254.091	7.18
254.306	6.1
254.521	4.97
254.737	3.84
254.952	4.7
255.167	4.28
255.383	5.01
255.598	5.07
255.813	4.27
256.028	4.49
256.244	4.79
256.459	6.44
256.674	6.53
256.889	6.89
257.104	7.48
257.32	7.02
257.535	6.81
257.75	6.4
257.965	6.26
258.18	6.18
258.395	6.02
258.61	6.11
258.826	5.77
259.041	5.95
259.256	6.34
259.471	6.42
259.686	6.78
259.901	6.81
260.116	7.02
260.331	7.2
260.546	7.69
260.761	8.1
260.976	8.11
261.191	8.15
261.406	8.02
261.621	7.12
261.836	6.99
262.05	6.57
262.265	7.25
262.48	7.97
262.695	8.48
262.91	7.59
263.125	7.08
263.34	7.01
263.555	7.59
263.769	7.37
263.984	7.43
264.199	6.59
264.414	6.18
264.629	5.81
264.843	4.96
265.058	4.44
265.273	5
265.488	5.07
265.702	5.02
265.917	4.45
266.132	5.06
266.346	5.14
266.561	5.47
266.776	5.46
266.99	5.39
267.205	5.65
267.42	5.89
267.634	5.85
267.849	6.88
268.063	7.32
268.278	7.73
268.492	7.55
268.707	7.49
268.922	7.23
269.136	7.66
269.351	7.54
269.565	7.62
269.78	7.34
269.994	7.5
270.209	7.02
270.423	6.69
270.637	6.42
270.852	6.04
271.066	6.34
271.281	6.58
271.495	6.73
271.709	6.4
271.924	6.27
272.138	6.47
272.353	6.03
272.567	5.61
272.781	5.83
272.996	5.65
273.21	6.05
273.424	5.29
273.638	5.12
273.853	4.78
274.067	5.06
274.281	4.88
274.495	4.59
274.71	5.11
274.924	5.26
275.138	4.98
275.352	4.8
275.566	4.54
275.781	4.8
275.995	5.1
276.209	4.79
276.423	5.1
276.637	5.27
276.851	5.2
277.065	4.82
277.279	4.58
277.493	4.11
277.707	4.5
277.921	4.18
278.135	4.32
278.349	4.27
278.563	4.62
278.777	4.72
278.991	5
279.205	4.64
279.419	4.41
279.633	4.27
279.847	4.7
280.061	4.91
280.275	5.08
280.489	5.25
280.703	5.31
280.917	5
281.131	5.15
281.344	5.14
281.558	5.55
281.772	5.76
281.986	5.87
282.2	5.93
282.414	6.14
282.627	6.07
282.841	6.06
283.055	6.02
283.269	6.06
283.482	5.58
283.696	5
283.91	5.11
284.123	5.13
284.337	5.28
284.551	5.01
284.764	4.63
284.978	5.08
285.192	4.6
285.405	4.22
285.619	4.42
285.833	4.69
286.046	5.16
286.26	4.91
286.473	5.19
286.687	4.97
286.9	5.64
287.114	5.72
287.327	5.31
287.541	5.83
287.754	6.22
287.968	5.77
288.181	5.51
288.395	5.37
288.608	5.66
288.822	5.87
289.035	6.07
289.248	5.49
289.462	5.49
289.675	5.64
289.889	5.52
290.102	5.37
290.315	5.36
290.529	5.4
290.742	5.46
290.955	5.25
291.169	4.97
291.382	5.03
291.595	5.02
291.808	4.95
292.022	4.83
292.235	5.12
292.448	5.02
292.661	5.36
292.875	5.76
293.088	5.38
293.301	5.64
293.514	5.65
293.727	5.64
293.94	6.05
294.153	6.1
294.367	6.42
294.58	6.39
294.793	6.66
295.006	6.66
295.219	6.53
295.432	7.01
295.645	6.78
295.858	6.67
296.071	7.08
296.284	6.75
296.497	6.78
296.71	6.56
296.923	6.42
297.136	6.41
297.349	6.82
297.562	6.78
297.775	6.59
297.988	6.82
298.201	6.72
298.414	6.01
298.626	6.35
298.839	6.15
299.052	6.09
299.265	6.07
299.478	6.07
299.691	5.65
299.903	5.95
300.116	5.65
300.329	5.25
300.542	5.11
300.755	5.3
300.967	5.22
301.18	5.25
301.393	4.89
301.605	4.73
301.818	4.6
302.031	4.56
302.243	4.39
302.456	4.51
302.669	4.52
302.881	4.97
303.094	5.12
303.307	5.03
303.519	4.87
303.732	5.42
303.944	5.7
304.157	5.46
304.37	5.27
304.582	5.45
304.795	5.37
305.007	5.75
305.22	5.74
305.432	5.65
305.645	5.18
305.857	5.48
306.069	5.59
306.282	5.44
306.494	5.69
306.707	5.8
306.919	5.36
307.132	5.63
307.344	5.64
307.556	5.26
307.769	5.4
307.981	5.89
308.193	5.93
308.406	6.02
308.618	6.18
308.83	6.03
309.043	5.78
309.255	6.12
309.467	6.1
309.679	6.11
309.892	6.39
310.104	6.37
310.316	6.17
310.528	6.09
310.74	6.21
310.953	6.08
311.165	6.1
311.377	6.14
311.589	5.76
311.801	5.7
312.013	5.55
312.225	5.57
312.437	5.79
312.649	6.03
312.862	6.24
313.074	5.88
313.286	6.38
313.498	6.72
313.71	7.02
313.922	7.44
314.134	7.57
314.346	7.84
314.558	7.63
314.77	7.42
314.982	7.36
315.193	6.96
315.405	6.95
315.617	6.26
315.829	6.03
316.041	6.11
316.253	5.91
316.465	5.19
316.677	5.02
316.888	4.86
317.1	4.96
317.312	5.13
317.524	5.19
317.736	4.95
317.947	5.38
318.159	5.35
318.371	5.55
318.583	5.35
318.794	5.76
319.006	5.43
319.218	5.33
319.43	5.62
319.641	5.31
319.853	5.71
320.064	5.65
320.276	5.11
320.488	5.14
320.699	4.95
320.911	5.43
321.123	5.64
321.334	5.85
321.546	5.7
321.757	5.47
321.969	5.59
322.18	5.31
322.392	5.88
322.603	6.55
322.815	6.73
323.026	7.13
323.238	7.13
323.449	7.54
323.661	7.43
323.872	7.46
324.083	7.42
324.295	7.5
324.506	7.93
324.718	7.76
324.929	7.64
325.14	7.51
325.352	7.19
325.563	7.03
325.774	6.81
325.986	7.02
326.197	7.55
326.408	7.69
326.62	7.97
326.831	7.68
327.042	7.54
327.253	7.34
327.464	7.33
327.676	7.8
327.887	7.56
328.098	7.42
328.309	7.54
328.52	7.3
328.732	7.28
328.943	7.18
329.154	7.38
329.365	7.47
329.576	7.78
329.787	7.88
329.998	7.29
330.209	7.55
330.42	7.78
330.631	8.02
330.842	7.96
331.053	7.86
331.264	7.68
331.475	7.6
331.686	7.55
331.897	7.24
332.108	7.31
332.319	7.34
332.53	6.99
332.741	7
332.952	6.8
333.163	6.84
333.374	6.73
333.585	6.64
333.795	6.65
334.006	6.33
334.217	6.89
334.428	7.15
334.639	7.21
334.849	7.31
335.06	7.2
335.271	7.18
335.482	7.58
335.692	7.82
335.903	7.63
336.114	7.36
336.325	7.77
336.535	7.17
336.746	7.01
336.957	6.87
337.167	7.03
337.378	6.75
337.589	7.12
337.799	6.94
338.01	7.02
338.22	7.35
338.431	7.87
338.642	7.65
338.852	7.49
339.063	7.42
339.273	7.71
339.484	7.78
339.694	7.95
339.905	7.23
340.115	7.13
340.326	6.9
340.536	6.84
340.746	6.46
340.957	6.12
341.167	6.56
341.378	6.41
341.588	6.26
341.799	6.15
342.009	6.37
342.219	6.58
342.43	6.38
342.64	6.34
342.85	6.15
343.061	6.51
343.271	6.65
343.481	6.49
343.691	6.43
343.902	6.22
344.112	6.25
344.322	6.13
344.532	5.93
344.743	5.96
344.953	5.77
345.163	6.02
345.373	5.39
345.583	5.42
345.793	5.41
346.004	5.36
346.214	5.32
346.424	5.32
346.634	4.9
346.844	5.39
347.054	5.34
347.264	5.62
347.474	5.29
347.684	5.56
347.894	5.86
348.104	6.24
348.314	6.16
348.524	6.12
348.734	6.16
348.944	6.4
349.154	6.11
349.364	6.19
349.574	6.09
349.784	6.22
349.994	6.45
350.204	6.34
350.413	5.74
350.623	5.69
350.833	5.93
351.043	5.81
351.253	5.61
351.463	5.82
351.672	6.12
351.882	5.88
352.092	6.33
352.302	6.41
352.511	6.27
352.721	6.45
352.931	6.61
353.141	6.43
353.35	6.78
353.56	7.03
353.77	6.8
353.979	6.59
354.189	6.82
354.399	6.45
354.608	6.21
354.818	6.27
355.027	6.01
355.237	6.15
355.447	6.06
355.656	5.74
355.866	5.75
356.075	5.83
356.285	5.94
356.494	5.93
356.704	5.79
356.913	5.94
357.123	6.03
357.332	6.27
357.542	6.38
357.751	6.58
357.96	6.13
358.17	5.9
358.379	5.85
358.589	5.84
358.798	5.81
359.007	5.86
359.217	5.58
359.426	5.66
359.635	5.9
359.845	5.53
360.054	5.34
360.263	5.71
360.472	6.02
360.682	5.84
360.891	5.7
361.1	5.61
361.309	5.56
361.519	5.7
361.728	5.73
361.937	5.55
362.146	5.71
362.355	5.82
362.564	5.7
362.774	5.4
362.983	5.41
363.192	5.34
363.401	5.44
363.61	5.5
363.819	5.26
364.028	5.1
364.237	4.86
364.446	4.76
364.655	4.69
364.864	4.97
365.073	5.21
365.282	5.41
365.491	5.42
365.7	5.09
365.909	5.26
366.118	5.43
366.327	5.24
366.536	5.32
366.745	5.33
366.954	5.21
367.162	4.94
367.371	4.6
367.58	4.32
367.789	4.08
367.998	4.4
368.207	4.41
368.415	4.57
368.624	4.79
368.833	4.93
369.042	4.88
369.25	5.06
369.459	5.4
369.668	5.33
369.877	5.66
370.085	5.94
370.294	5.96
370.503	5.82
370.711	5.69
370.92	5.76
371.129	5.81
371.337	5.82
371.546	6.1
371.754	5.97
371.963	6.29
372.171	6.26
372.38	6.26
372.589	6.07
372.797	6.19
373.006	6.27
373.214	6
373.423	6.08
373.631	6.31
373.84	6.08
374.048	5.65
374.256	5.57
374.465	5.33
374.673	5.33
374.882	5.36
375.09	5.21
375.298	5.34
375.507	5.33
375.715	5.18
375.923	5.16
376.132	5.07
376.34	5.3
376.548	5.29
376.757	5.48
376.965	5.44
377.173	5.43
377.381	5.33
377.59	5.01
377.798	5.28
378.006	5.08
378.214	5.12
378.423	5.03
378.631	5.06
378.839	4.92
379.047	4.74
379.255	4.64
379.463	4.6
379.671	4.61
379.879	4.89
380.088	4.86
380.296	4.97
380.504	4.84
380.712	5.08
380.92	4.91
381.128	5
381.336	5.03
381.544	5.12
381.752	5.28
381.96	5.53
382.168	5.49
382.376	5.21
382.584	5.23
382.791	4.98
382.999	4.79
383.207	4.86
383.415	4.88
383.623	4.93
383.831	4.78
384.039	4.75
384.247	4.59
384.454	4.65
384.662	4.92
384.87	5.17
385.078	5.59
385.285	5.7
385.493	5.82
385.701	5.78
385.909	5.64
386.116	5.69
386.324	5.63
386.532	5.56
386.739	5.4
386.947	5.17
387.155	4.84
387.362	4.67
387.57	4.66
387.778	4.47
387.985	4.43
388.193	4.62
388.4	4.69
388.608	4.66
388.816	4.78
389.023	4.86
389.231	4.94
389.438	4.95
389.646	4.92
389.853	4.82
390.061	4.88
390.268	4.95
390.475	5.01
390.683	5.01
390.89	5
391.098	5.01
391.305	4.81
391.512	4.85
391.72	4.77
391.927	4.62
392.135	4.59
392.342	4.43
392.549	4.49
392.756	4.33
392.964	4.31
393.171	4.4
393.378	4.42
393.586	4.6
393.793	4.58
394	4.61
394.207	4.68
394.414	4.82
394.622	4.97
394.829	4.73
395.036	4.86
395.243	4.81
395.45	4.78
395.657	4.57
395.864	4.54
396.072	4.28
396.279	4.42
396.486	4.41
396.693	4.4
396.9	4.41
397.107	4.62
397.314	4.48
397.521	4.64
397.728	4.72
397.935	5.01
398.142	4.81
398.349	5
398.556	4.99
398.763	5.14
398.97	5.28
399.177	5.29
399.383	5.42
399.59	5.34
399.797	5.19
400.004	5.02
400.211	4.76
400.418	4.93
400.625	5.16
400.831	5.05
401.038	4.85
401.245	4.62
401.452	4.76
401.658	4.61
401.865	4.75
402.072	4.71
402.279	4.72
402.485	4.7
402.692	4.76
402.899	4.62
403.105	4.71
403.312	4.83
403.519	5.02
403.725	5.04
403.932	4.96
404.138	4.89
404.345	4.93
404.552	5.08
404.758	5.07
404.965	5.08
405.171	5.01
405.378	4.98
405.584	4.84
405.791	4.71
405.997	4.55
406.204	4.73
406.41	4.8
406.617	5.04
406.823	4.87
407.029	5.06
407.236	5.05
407.442	5.18
407.649	5.22
407.855	5.47
408.061	5.44
408.268	5.43
408.474	5.04
408.68	4.98
408.887	4.91
409.093	4.95
409.299	4.98
409.505	4.85
409.712	4.71
409.918	4.57
410.124	4.46
410.33	4.63
410.537	4.57
410.743	4.89
410.949	5.02
411.155	4.96
411.361	4.93
411.567	4.75
411.773	4.61
411.98	4.59
412.186	4.76
412.392	4.77
412.598	4.64
412.804	4.74
413.01	4.73
413.216	4.69
413.422	4.67
413.628	4.64
413.834	4.73
414.04	4.73
414.246	4.94
414.452	5
414.658	4.88
414.864	4.89
415.07	4.9
415.275	5.1
415.481	5.08
415.687	5.03
415.893	5.1
416.099	5.17
416.305	5.34
416.511	5.24
416.716	5.11
416.922	5.18
417.128	5.11
417.334	5.11
417.539	4.9
417.745	4.89
417.951	4.91
418.157	4.94
418.362	4.92
418.568	4.83
418.774	4.79
418.979	4.82
419.185	4.73
419.391	4.81
419.596	4.74
419.802	4.76
420.008	4.78
420.213	5.41
420.419	5.38
420.624	5.34
420.83	5.4
421.035	5.36
421.241	5.39
421.446	5.51
421.652	5.47
421.857	5.51
422.063	5.55
422.268	5.51
422.474	4.85
422.679	4.87
422.885	4.9
423.09	4.84
423.295	4.87
423.501	4.85
423.706	4.77
423.911	4.79
424.117	4.8
424.322	4.81
424.527	4.89
424.733	4.99
424.938	4.86
425.143	4.86
425.349	4.98
425.554	5.07
425.759	5.16
425.964	5.22
426.169	5.27
426.375	5.37
426.58	5.29
426.785	5.33
426.99	5.28
427.195	5.52
427.4	5.6
427.605	5.64
427.811	5.62
428.016	5.66
428.221	5.7
428.426	5.62
428.631	5.51
428.836	5.66
429.041	5.48
429.246	5.47
429.451	5.37
429.656	5.4
429.861	5.37
430.066	5.46
430.271	5.47
430.476	5.43
430.681	5.54
430.886	5.56
431.09	5.56
431.295	5.73
431.5	5.81
431.705	5.82
431.91	5.76
432.115	5.79
432.32	5.75
432.524	5.64
432.729	5.74
432.934	5.66
433.139	5.65
433.343	5.7
433.548	5.69
433.753	5.65
433.958	5.67
434.162	5.65
434.367	5.61
434.572	5.59
434.776	5.69
434.981	5.62
435.186	5.64
435.39	5.68
435.595	5.6
435.799	5.6
436.004	5.54
436.209	5.56
436.413	5.64
436.618	5.59
436.822	5.54
437.027	5.6
437.231	5.61
437.436	5.67
437.64	5.65
437.845	5.7
438.049	5.64
438.253	5.68
438.458	5.58
438.662	5.44
438.867	5.5
439.071	5.54
439.275	5.52
439.48	5.55
439.684	5.46
439.888	5.49
440.093	5.45
440.297	5.41
440.501	5.46
440.706	5.57
440.91	5.69
441.114	5.68
441.318	5.66
441.523	5.58
441.727	5.56
441.931	5.61
442.135	5.59
442.339	5.65
442.543	5.67
442.748	5.64
442.952	5.62
443.156	5.67
443.36	5.68
443.564	5.75
443.768	5.75
443.972	5.71
444.176	5.68
444.38	5.7
444.584	5.61
444.788	5.61
444.992	5.58
445.196	5.56
445.4	5.48
445.604	5.48
445.808	5.43
446.012	5.47
446.216	5.51
446.42	5.45
446.624	5.4
446.828	5.39
447.032	5.37
447.235	5.37
447.439	5.31
447.643	5.35
447.847	5.31
448.051	5.32
448.254	5.24
448.458	5.25
448.662	5.3
448.866	5.23
449.069	5.28
449.273	5.31
449.477	5.32
449.681	5.32
449.884	5.25
450.088	5.25
450.292	5.27
450.495	5.29
450.699	5.29
450.902	5.34
451.106	5.42
451.31	5.42
451.513	5.39
451.717	5.42
451.92	5.43
452.124	5.45
452.327	5.42
452.531	5.28
452.734	5.22
452.938	5.19
453.141	5.17
453.345	5.13
453.548	5.13
453.752	5.12
453.955	5
454.158	5.02
454.362	5.07
454.565	5
454.769	5.16
454.972	5.21
455.175	5.28
455.379	5.3
455.582	5.47
455.785	5.58
455.988	5.7
456.192	5.73
456.395	5.78
456.598	5.69
456.801	5.73
457.005	5.77
457.208	5.8
457.411	5.81
457.614	5.77
457.817	5.63
458.021	5.54
458.224	5.55
458.427	5.49
458.63	5.43
458.833	5.45
459.036	5.49
459.239	5.37
459.442	5.38
459.645	5.29
459.848	5.32
460.051	5.37
460.254	5.33
460.457	5.27
460.66	5.39
460.863	5.42
461.066	5.47
461.269	5.48
461.472	5.55
461.675	5.46
461.878	5.42
462.081	5.32
462.284	5.41
462.486	5.51
462.689	5.48
462.892	5.36
463.095	5.37
463.298	5.31
463.5	5.34
463.703	5.32
463.906	5.37
464.109	5.42
464.311	5.46
464.514	5.32
464.717	5.17
464.92	5.27
465.122	5.34
465.325	5.38
465.528	5.35
465.73	5.27
465.933	5.29
466.135	5.21
466.338	5.21
466.541	5.14
466.743	5.07
466.946	5.17
467.148	5.08
467.351	5.1
467.553	5.04
467.756	5.06
467.958	5.07
468.161	5.03
468.363	5.14
468.566	5.12
468.768	5.19
468.971	5.27
469.173	5.24
469.375	5.26
469.578	5.28
469.78	5.41
469.983	5.38
470.185	5.48
470.387	5.62
470.59	5.57
470.792	5.45
470.994	5.53
471.196	5.59
471.399	5.65
471.601	5.58
471.803	5.49
472.005	5.47
472.208	5.47
472.41	5.33
472.612	5.23
472.814	5.3
473.016	5.39
473.218	5.45
473.421	5.45
473.623	5.51
473.825	5.57
474.027	5.58
474.229	5.49
474.431	5.52
474.633	5.51
474.835	5.48
475.037	5.51
475.239	5.6
475.441	5.47
475.643	5.48
475.845	5.45
476.047	5.33
476.249	5.35
476.451	5.36
476.653	5.41
476.855	5.38
477.057	5.38
477.258	5.35
477.46	5.31
477.662	5.33
477.864	5.26
478.066	5.24
478.268	5.36
478.469	5.4
478.671	5.43
478.873	5.45
479.075	5.55
479.276	5.57
479.478	5.59
479.68	5.56
479.882	5.54
480.083	5.51
480.285	5.53
480.487	5.58
480.688	5.52
480.89	5.5
481.091	5.5
481.293	5.49
481.495	5.49
481.696	5.47
481.898	5.45
482.099	5.43
482.301	5.43
482.502	5.39
482.704	5.39
482.905	5.39
483.107	5.37
483.308	5.32
483.51	5.29
483.711	5.28
483.913	5.25
484.114	5.29
484.315	5.28
484.517	5.29
484.718	5.3
484.92	5.24
485.121	5.26
485.322	5.29
485.524	5.33
485.725	5.37
485.926	5.36
486.127	5.37
486.329	5.33
486.53	5.37
486.731	5.36
486.932	5.38
487.134	5.4
487.335	5.4
487.536	5.39
487.737	5.37
487.938	5.34
488.139	5.32
488.341	5.36
488.542	5.37
488.743	5.33
488.944	5.36
489.145	5.29
489.346	5.33
489.547	5.35
489.748	5.39
489.949	5.42
490.15	5.44
490.351	5.5
490.552	5.43
490.753	5.44
490.954	5.48
491.155	5.43
491.356	5.49
491.557	5.47
491.758	5.44
491.959	5.39
492.159	5.32
492.36	5.34
492.561	5.28
492.762	5.35
492.963	5.3
493.164	5.23
493.364	5.3
493.565	5.39
493.766	5.39
493.967	5.37
494.167	5.36
494.368	5.42
494.569	5.47
494.769	5.53
494.97	5.57
495.171	5.68
495.371	5.71
495.572	5.75
495.773	5.7
495.973	5.65
496.174	5.64
496.375	5.65
496.575	5.75
496.776	5.7
496.976	5.65
497.177	5.61
497.377	5.57
497.578	5.54
497.778	5.57
497.979	5.58
498.179	5.7
498.38	5.74
498.58	5.8
498.78	5.73
498.981	5.72
499.181	5.7
499.382	5.69
499.582	5.65
499.782	5.67
499.983	5.6
500.183	5.57
500.383	5.46
500.584	5.48
500.784	5.52
500.984	5.5
501.184	5.6
501.385	5.61
501.585	5.66
501.785	5.75
501.985	5.85
502.185	5.83
502.386	5.91
502.586	5.96
502.786	5.92
502.986	5.89
503.186	5.89
503.386	5.89
503.586	5.94
503.786	5.9
503.987	5.87
504.187	5.81
504.387	5.76
504.587	5.72
504.787	5.77
504.987	5.79
505.187	5.79
505.387	5.75
505.587	5.67
505.786	5.67
505.986	5.72
506.186	5.67
506.386	5.67
506.586	5.74
506.786	5.81
506.986	5.82
507.186	5.92
507.386	5.92
507.585	5.95
507.785	6.04
507.985	6.08
508.185	6.07
508.384	6.18
508.584	6.18
508.784	6.18
508.984	6.15
509.183	6.12
509.383	6.12
509.583	6.18
509.782	6.21
509.982	6.1
510.182	6.11
510.381	6.14
510.581	6.16
510.781	6.21
510.98	6.25
511.18	6.25
511.379	6.3
511.579	6.3
511.778	6.28
511.978	6.33
512.177	6.47
512.377	6.47
512.576	6.49
512.776	6.37
512.975	6.27
513.175	6.28
513.374	6.32
513.573	6.28
513.773	6.27
513.972	6.32
514.172	6.26
514.371	6.21
514.57	6.21
514.77	6.26
514.969	6.36
515.168	6.46
515.367	6.49
515.567	6.47
515.766	6.52
515.965	6.59
516.164	6.54
516.364	6.6
516.563	6.61
516.762	6.59
516.961	6.57
517.16	6.59
517.359	6.61
517.559	6.6
517.758	6.57
517.957	6.59
518.156	6.5
518.355	6.53
518.554	6.52
518.753	6.54
518.952	6.59
519.151	6.58
519.35	6.58
519.549	6.56
519.748	6.55
519.947	6.6
520.146	6.56
520.345	6.67
520.544	6.62
520.743	6.6
520.942	6.57
521.141	6.48
521.339	6.45
521.538	6.44
521.737	6.52
521.936	6.49
522.135	6.55
522.333	6.62
522.532	6.62
522.731	6.73
522.93	6.8
523.129	6.85
523.327	6.91
523.526	6.95
523.725	7.02
523.923	7.02
524.122	7.07
524.321	7.05
524.519	7.03
524.718	7.09
524.917	7.02
525.115	7.02
525.314	7.03
525.512	7.09
525.711	7.12
525.909	7.12
526.108	7.11
526.306	7.15
526.505	7.17
526.703	7.18
526.902	7.16
527.1	7.21
527.299	7.2
527.497	7.19
527.696	7.19
527.894	7.2
528.092	7.17
528.291	7.19
528.489	7.15
528.688	7.13
528.886	7.12
529.084	7.13
529.283	7.13
529.481	7.13
529.679	7.15
529.877	7.16
530.076	7.19
530.274	7.23
530.472	7.28
530.67	7.38
530.869	7.51
531.067	7.52
531.265	7.52
531.463	7.54
531.661	7.58
531.859	7.56
532.057	7.52
532.255	7.48
532.454	7.47
532.652	7.45
532.85	7.41
533.048	7.33
533.246	7.33
533.444	7.3
533.642	7.31
533.84	7.3
534.038	7.35
534.236	7.47
534.434	7.47
534.632	7.54
534.83	7.53
535.027	7.55
535.225	7.6
535.423	7.6
535.621	7.64
535.819	7.65
536.017	7.67
536.215	7.69
536.412	7.63
536.61	7.66
536.808	7.66
537.006	7.74
537.203	7.78
537.401	7.8
537.599	7.9
537.797	7.96
537.994	7.97
538.192	8.07
538.39	8.13
538.587	8.27
538.785	8.37
538.983	8.39
539.18	8.38
539.378	8.4
539.575	8.41
539.773	8.42
539.97	8.43
540.168	8.46
540.366	8.39
540.563	8.35
540.761	8.24
540.958	8.23
541.155	8.21
541.353	8.23
541.55	8.23
541.748	8.23
541.945	8.19
542.143	8.2
542.34	8.15
542.537	8.16
542.735	8.19
542.932	8.27
543.129	8.28
543.327	8.37
543.524	8.4
543.721	8.42
543.919	8.46
544.116	8.54
544.313	8.6
544.51	8.67
544.708	8.79
544.905	8.85
545.102	8.93
545.299	8.97
545.496	8.99
545.693	8.97
545.891	9.04
546.088	9.03
546.285	9.02
546.482	9.07
546.679	9.16
546.876	9.14
547.073	9.05
547.27	9.01
547.467	8.97
547.664	8.98
547.861	9.03
548.058	8.96
548.255	9.03
548.452	8.98
548.649	8.88
548.846	8.84
549.043	8.9
549.24	9.13
549.437	9.24
549.633	9.46
549.83	9.46
550.027	9.47
550.224	9.54
550.421	9.61
550.618	9.77
550.814	9.93
551.011	9.99
551.208	10.03
551.405	10.01
551.601	10.06
551.798	9.99
551.995	9.98
552.191	10.08
552.388	10.16
552.585	10.12
552.781	10.16
552.978	10.22
553.175	10.26
553.371	10.31
553.568	10.29
553.764	10.28
553.961	10.43
554.157	10.53
554.354	10.56
554.55	10.55
554.747	10.67
554.943	10.59
555.14	10.59
555.336	10.58
555.533	10.68
555.729	10.78
555.926	10.84
556.122	10.75
556.318	10.65
556.515	10.75
556.711	10.78
556.907	10.8
557.104	10.98
557.3	10.98
557.496	11.19
557.693	11.08
557.889	11.17
558.085	11.29
558.281	11.52
558.478	11.74
558.674	11.85
558.87	11.95
559.066	11.87
559.262	12.02
559.459	12.06
559.655	11.9
559.851	12.1
560.047	12.22
560.243	12.22
560.439	12.11
560.635	12.19
560.831	12.19
561.027	12.36
561.223	12.49
561.419	12.39
561.615	12.42
561.811	12.64
562.007	12.64
562.203	12.49
562.399	12.53
562.595	12.66
562.791	12.72
562.987	12.76
563.183	12.61
563.379	12.71
563.575	12.87
563.771	12.91
563.966	12.94
564.162	12.99
564.358	13.13
564.554	13.23
564.75	13.3
564.945	13.37
565.141	13.42
565.337	13.48
565.533	13.59
565.728	13.67
565.924	13.76
566.12	13.74
566.315	13.81
566.511	13.94
566.707	13.94
566.902	13.94
567.098	13.99
567.293	14.09
567.489	14.17
567.684	14.26
567.88	14.24
568.076	14.25
568.271	14.39
568.467	14.5
568.662	14.56
568.858	14.64
569.053	14.71
569.248	14.79
569.444	14.74
569.639	14.87
569.835	14.84
570.03	14.89
570.225	15.06
570.421	15.11
570.616	15.12
570.812	15.15
571.007	15.25
571.202	15.22
571.397	15.07
571.593	15.19
571.788	15.21
571.983	15.27
572.178	15.35
572.374	15.38
572.569	15.41
572.764	15.4
572.959	15.42
573.154	15.39
573.35	15.61
573.545	15.92
573.74	15.84
573.935	15.88
574.13	15.93
574.325	15.86
574.52	15.85
574.715	15.87
574.91	15.94
575.105	15.96
575.3	16
575.495	15.99
575.69	15.91
575.885	16.03
576.08	16.1
576.275	16.1
576.47	16.23
576.665	16.33
576.86	16.38
577.055	16.43
577.25	16.64
577.444	16.79
577.639	16.8
577.834	16.87
578.029	17.01
578.224	17.1
578.418	17.25
578.613	17.29
578.808	17.19
579.003	17.3
579.197	17.37
579.392	17.23
579.587	17.23
579.781	17.24
579.976	17.32
580.171	17.4
580.365	17.47
580.56	17.49
580.755	17.56
580.949	17.68
581.144	17.8
581.338	17.74
581.533	17.79
581.727	17.74
581.922	17.96
582.116	18.04
582.311	17.9
582.505	17.83
582.7	17.75
582.894	17.68
583.089	17.61
583.283	17.59
583.478	17.75
583.672	17.62
583.866	17.61
584.061	17.52
584.255	17.42
584.449	17.62
584.644	17.65
584.838	17.84
585.032	17.94
585.226	18.08
585.421	18.06
585.615	18.04
585.809	18.24
586.003	18.39
586.198	18.51
586.392	18.56
586.586	18.63
586.78	18.67
586.974	18.62
587.168	18.72
587.363	18.75
587.557	18.83
587.751	18.83
587.945	18.89
588.139	18.99
588.333	18.96
588.527	19.03
588.721	19.04
588.915	19.15
589.109	19.15
589.303	19.23
589.497	19.36
589.691	19.14
589.885	19.31
590.079	19.41
590.273	19.29
590.466	19.35
590.66	19.45
590.854	19.34
591.048	19.26
591.242	19.25
591.436	19.2
591.629	19.11
591.823	19.43
592.017	19.37
592.211	19.41
592.404	19.53
592.598	19.49
592.792	19.42
592.986	19.53
593.179	19.54
593.373	19.6
593.567	19.63
593.76	19.7
593.954	19.61
594.147	19.66
594.341	19.54
594.535	19.57
594.728	19.58
594.922	19.62
595.115	19.7
595.309	19.72
595.502	19.69
595.696	19.71
595.889	19.76
596.083	19.77
596.276	19.85
596.47	19.95
596.663	20.04
596.856	20.12
597.05	20.15
597.243	20.1
597.437	20.12
597.63	20.15
597.823	20.21
598.017	20.21
598.21	20.26
598.403	20.2
598.596	20.08
598.79	20.03
598.983	20.1
599.176	20.16
599.369	20.13
599.563	20.27
599.756	20.36
599.949	20.28
600.142	20.52
600.335	20.63
600.528	20.82
600.722	20.97
600.915	20.79
601.108	20.71
601.301	20.67
601.494	20.9
601.687	20.91
601.88	20.98
602.073	21.09
602.266	21.05
602.459	21.06
602.652	20.86
602.845	20.91
603.038	21.05
603.231	21.1
603.424	21.01
603.617	20.85
603.809	20.73
604.002	20.73
604.195	20.7
604.388	20.5
604.581	20.47
604.774	20.54
604.966	20.48
605.159	20.52
605.352	20.42
605.545	20.56
605.737	20.71
605.93	20.73
606.123	20.82
606.316	20.94
606.508	21.1
606.701	21.11
606.894	21.19
607.086	21.23
607.279	21.15
607.471	21.29
607.664	21.23
607.857	21.14
608.049	21.14
608.242	21.11
608.434	20.99
608.627	20.98
608.819	20.93
609.012	20.88
609.204	20.85
609.397	20.78
609.589	20.83
609.782	20.92
609.974	21.01
610.166	21.17
610.359	21.06
610.551	20.98
610.743	21.16
610.936	21.16
611.128	21.23
611.32	21.16
611.513	21.41
611.705	21.41
611.897	21.4
612.09	21.3
612.282	21.14
612.474	21.18
612.666	21.15
612.858	20.8
613.051	20.83
613.243	20.78
613.435	20.9
613.627	20.9
613.819	20.81
614.011	20.9
614.203	21.03
614.395	21.07
614.588	21.2
614.78	21.36
614.972	21.64
615.164	21.69
615.356	21.81
615.548	21.72
615.74	21.68
615.932	21.65
616.124	21.77
616.315	21.91
616.507	21.9
616.699	21.8
616.891	21.82
617.083	21.75
617.275	21.74
617.467	21.74
617.659	21.84
617.85	21.82
618.042	21.81
618.234	21.66
618.426	21.5
618.618	21.62
618.809	21.73
619.001	21.77
619.193	21.66
619.384	21.82
619.576	21.83
619.768	21.73
619.959	21.73
620.151	21.96
620.343	21.93
620.534	22.11
620.726	22.22
620.917	22.25
621.109	22.15
621.301	22.37
621.492	22.31
621.684	22.34
621.875	22.52
622.067	22.46
622.258	22.14
622.45	22.14
622.641	21.92
622.832	21.75
623.024	21.8
623.215	21.98
623.407	21.85
623.598	21.85
623.789	21.75
623.981	21.72
624.172	21.86
624.363	21.92
624.555	21.87
624.746	21.92
624.937	21.89
625.129	21.89
625.32	21.8
625.511	21.8
625.702	21.72
625.893	21.74
626.085	21.75
626.276	21.62
626.467	21.69
626.658	21.82
626.849	21.8
627.04	21.99
627.231	21.96
627.422	21.93
627.614	22.02
627.805	22.27
627.996	22.31
628.187	22.4
628.378	22.64
628.569	22.85
628.76	22.78
628.951	22.83
629.142	22.77
629.332	22.72
629.523	22.69
629.714	22.84
629.905	22.72
630.096	22.61
630.287	22.48
630.478	22.39
630.669	22.23
630.859	22.43
631.05	22.44
631.241	22.52
631.432	22.56
631.623	22.86
631.813	22.72
632.004	22.53
632.195	22.71
632.385	22.71
632.576	22.57
632.767	22.57
632.957	22.54
633.148	22.63
633.339	22.58
633.529	22.62
633.72	22.51
633.91	22.46
634.101	22.7
634.292	22.7
634.482	22.69
634.673	22.78
634.863	22.9
635.054	22.64
635.244	22.45
635.435	22.49
635.625	22.55
635.815	22.51
636.006	22.73
636.196	22.67
636.387	22.74
636.577	22.83
636.767	22.74
636.958	22.75
637.148	22.91
637.338	23
637.529	22.84
637.719	22.91
637.909	22.95
638.099	22.83
638.29	22.77
638.48	22.6
638.67	22.8
638.86	22.84
639.05	22.71
639.241	22.74
639.431	22.84
639.621	23.11
639.811	22.99
640.001	23.02
640.191	23
640.381	22.88
640.571	23.09
640.761	22.82
640.951	22.91
641.141	22.79
641.331	22.83
641.521	22.89
641.711	22.75
641.901	22.81
642.091	22.71
642.281	22.76
642.471	22.94
642.661	22.71
642.851	22.81
643.041	22.77
643.231	22.86
643.42	22.93
643.61	22.91
643.8	23
643.99	22.95
644.18	23.29
644.369	23.21
644.559	23.46
644.749	23.51
644.939	23.48
645.128	23.59
645.318	23.68
645.508	23.64
645.697	23.84
645.887	23.64
646.076	23.72
646.266	23.45
646.456	23.28
646.645	22.84
646.835	22.78
647.024	22.89
647.214	22.76
647.403	22.64
647.593	22.49
647.782	22.34
647.972	22.61
648.161	22.49
648.351	22.6
648.54	22.78
648.73	23.08
648.919	23.17
649.108	23.02
649.298	23.26
649.487	23.49
649.677	23.54
649.866	23.23
650.055	22.99
650.244	23.13
650.434	22.96
650.623	22.99
650.812	22.96
651.002	23.04
651.191	23.18
651.38	23.15
651.569	23
651.758	23.02
651.947	23.24
652.137	23.18
652.326	23.15
652.515	23.23
652.704	23.28
652.893	23.1
653.082	23.05
653.271	23.08
653.46	22.89
653.649	22.93
653.838	23.08
654.027	23.08
654.216	23.4
654.405	23.23
654.594	23.23
654.783	23.08
654.972	23.15
655.161	23.12
655.35	23.04
655.539	23.15
655.728	23.06
655.916	23.05
656.105	23.19
656.294	23.05
656.483	23.21
656.672	23.3
656.86	23.46
657.049	23.49
657.238	23.53
657.427	23.64
657.615	23.64
657.804	23.82
657.993	23.87
658.181	23.82
658.37	24.03
658.559	23.92
658.747	24.04
658.936	24.01
659.125	23.98
659.313	23.9
659.502	23.91
659.69	23.86
659.879	23.83
660.067	23.64
660.256	23.6
660.444	23.32
660.633	23.37
660.821	23.35
661.01	23.4
661.198	23.5
661.387	23.84
661.575	23.94
661.763	24.12
661.952	24
662.14	24.18
662.328	24.19
662.517	24.19
662.705	24.13
662.893	23.87
663.082	23.72
663.27	23.91
663.458	23.5
663.646	23.4
663.834	23.3
664.023	23.42
664.211	23.51
664.399	23.65
664.587	23.64
664.775	23.91
664.963	23.96
665.152	24
665.34	23.86
665.528	24.06
665.716	23.79
665.904	23.85
666.092	23.82
666.28	23.61
666.468	23.64
666.656	23.58
666.844	23.47
667.032	23.41
667.22	23.47
667.408	23.2
667.596	23.06
667.784	23.29
667.971	23.18
668.159	23.28
668.347	23.29
668.535	23.18
668.723	23.45
668.911	23.61
669.098	23.9
669.286	23.77
669.474	23.92
669.662	23.87
669.849	23.86
670.037	24
670.225	23.8
670.413	23.96
670.6	24.12
670.788	23.97
670.976	23.79
671.163	23.53
671.351	23.53
671.538	23.64
671.726	23.75
671.913	23.53
672.101	23.71
672.289	23.75
672.476	23.62
672.664	23.39
672.851	23.87
673.039	24.03
673.226	24.23
673.413	24.4
673.601	24.55
673.788	24.82
673.976	25.07
674.163	24.67
674.35	24.76
674.538	24.95
674.725	24.98
674.912	24.41
675.1	24.32
675.287	24.51
675.474	24.37
675.662	24.27
675.849	24.01
676.036	23.78
676.223	23.9
676.411	24.03
676.598	23.94
676.785	23.81
676.972	24.15
677.159	24.18
677.346	24.05
677.533	24.13
677.721	24.18
677.908	24.35
678.095	24.61
678.282	24.74
678.469	24.72
678.656	24.64
678.843	24.72
679.03	24.58
679.217	24.67
679.404	24.71
679.591	24.63
679.778	24.63
679.964	24.76
680.151	24.58
680.338	24.25
680.525	23.95
680.712	23.95
680.899	24.18
681.086	24.02
681.272	23.89
681.459	23.79
681.646	23.74
681.833	23.71
682.02	23.38
682.206	23.32
682.393	23.76
682.58	23.86
682.766	23.83
682.953	23.82
683.14	23.86
683.326	23.84
683.513	24.03
683.7	24.21
683.886	24.36
684.073	24.61
684.259	24.71
684.446	24.43
684.632	24.72
684.819	24.97
685.005	24.53
685.192	24.56
685.378	24.57
685.565	24.25
685.751	24.31
685.938	23.93
686.124	23.61
686.31	23.86
686.497	23.95
686.683	23.83
686.87	23.8
687.056	24.04
687.242	24.27
687.429	24.31
687.615	24.39
687.801	24.44
687.987	24.7
688.174	24.92
688.36	24.95
688.546	24.74
688.732	24.72
688.918	24.69
689.105	24.56
689.291	24.86
689.477	25.11
689.663	25
689.849	24.96
690.035	24.73
690.221	24.46
690.407	24.57
690.593	25.03
690.779	25.02
690.965	24.87
691.151	24.94
691.337	24.67
691.523	24.28
691.709	24.46
691.895	24.46
692.081	24.82
692.267	25.19
692.453	24.88
692.639	24.91
692.825	24.8
693.011	25.25
693.196	25.17
693.382	25.03
693.568	25.11
693.754	25.11
693.94	25.12
694.125	25.08
694.311	25
694.497	25.03
694.682	24.89
694.868	25.02
695.054	24.99
695.239	25.12
695.425	25.21
695.611	25.18
695.796	25.61
695.982	25.73
696.168	25.7
696.353	25.77
696.539	25.94
696.724	25.97
696.91	25.9
697.095	25.7
697.281	25.83
697.466	26.02
697.652	26
697.837	25.59
698.023	25.66
698.208	25.69
698.393	25.64
698.579	25.58
698.764	25.57
698.949	25.65
699.135	25.58
699.32	25.68
699.505	25.37
699.691	25.41
699.876	25.63
700.061	25.44
700.246	25.19
700.432	25.22
700.617	25.01
700.802	24.89
700.987	24.91
701.172	25.05
701.358	24.6
701.543	24.89
701.728	24.85
701.913	24.84
702.098	24.7
702.283	24.74
702.468	24.71
702.653	24.64
702.838	24.52
703.023	24.64
703.208	24.66
703.393	24.89
703.578	24.73
703.763	24.62
703.948	24.59
704.133	24.96
704.318	25.06
704.503	25.25
704.688	25.45
704.873	25.66
705.057	25.35
705.242	25.18
705.427	25.31
705.612	25.35
705.797	25.91
705.981	26.07
706.166	25.97
706.351	25.86
706.536	25.51
706.72	25.13
706.905	25.02
707.09	25.47
707.274	25.52
707.459	25.24
707.644	25.28
707.828	24.97
708.013	24.47
708.197	24.62
708.382	24.92
708.567	25.36
708.751	25.94
708.936	25.82
709.12	25.49
709.305	25.34
709.489	25.1
709.673	24.92
709.858	24.94
710.042	25.1
710.227	24.46
710.411	24.28
710.596	24.15
710.78	24.2
710.964	24.08
711.149	24.35
711.333	24.42
711.517	24.89
711.702	25.12
711.886	25.15
712.07	25.34
712.254	25.85
712.438	25.71
712.623	25.54
712.807	25.25
712.991	25.68
713.175	25.55
713.359	25.57
713.544	25.07
713.728	25.13
713.912	25.05
714.096	24.82
714.28	24.7
714.464	24.8
714.648	24.84
714.832	25.24
715.016	25.28
715.2	25.05
715.384	25.37
715.568	25.47
715.752	25.27
715.936	25.38
716.12	25.68
716.304	26.03
716.488	25.89
716.671	26.03
716.855	25.56
717.039	25.25
717.223	24.93
717.407	24.37
717.59	24.45
717.774	24.23
717.958	24.3
718.142	24.03
718.325	23.78
718.509	24.19
718.693	24.41
718.877	24.56
719.06	24.82
719.244	25.57
719.428	26.09
719.611	26.17
719.795	26.52
719.978	26.93
720.162	26.76
720.345	26.69
720.529	26.82
720.713	26.59
720.896	26.8
721.08	26.73
721.263	26.35
721.446	26.21
721.63	26.42
721.813	26.38
721.997	25.92
722.18	26.36
722.364	26.41
722.547	26.26
722.73	26.21
722.914	25.67
723.097	25.87
723.28	26.04
723.464	26.09
723.647	26.46
723.83	26.4
724.013	26.26
724.197	26.19
724.38	26.06
724.563	25.83
724.746	26.01
724.929	26.58
725.112	26.46
725.296	26.13
725.479	25.63
725.662	25.14
725.845	25.54
726.028	25.32
726.211	25
726.394	25.15
726.577	25.21
726.76	24.99
726.943	25.36
727.126	24.99
727.309	25.42
727.492	26.23
727.675	26.7
727.858	26.22
728.041	26.6
728.224	26.47
728.407	26.35
728.589	26.28
728.772	26.07
728.955	25.86
729.138	26.19
729.321	26.17
729.503	25.89
729.686	25.7
729.869	26.05
730.052	25.73
730.234	26.06
730.417	25.84
730.6	25.77
730.782	26.14
730.965	25.65
731.148	25.58
731.33	25.55
731.513	25.43
731.695	25.26
731.878	24.92
732.061	25.1
732.243	25.01
732.426	25.43
732.608	25.8
732.791	25.81
732.973	26.31
733.156	26.41
733.338	26.47
733.52	26.69
733.703	26.31
733.885	26.79
734.068	26.69
734.25	26.58
734.432	26.35
734.615	25.93
734.797	25.52
734.979	25.04
735.162	25.24
735.344	25.02
735.526	24.76
735.708	25.31
735.891	24.99
736.073	25.21
736.255	25.67
736.437	25.79
736.619	26.15
736.802	26.63
736.984	26.91
737.166	26.58
737.348	26.43
737.53	26.38
737.712	26.42
737.894	25.77
738.076	25.77
738.258	25.82
738.44	25.48
738.622	25.15
738.804	24.89
738.986	24.81
739.168	24.9
739.35	24.85
739.532	24.79
739.714	24.85
739.896	25.32
740.078	25.12
740.259	25.05
740.441	24.99
740.623	25.1
740.805	25.53
740.987	25.08
741.168	25.3
741.35	25.28
741.532	25.04
741.714	25.01
741.895	25.63
742.077	25.75
742.259	25.71
742.44	26.13
742.622	26.72
742.804	26.56
742.985	26.79
743.167	26.3
743.348	26.51
743.53	26.74
743.711	26.87
743.893	26.23
744.075	27.31
744.256	27.11
744.438	27.23
744.619	26.35
744.8	26.25
744.982	26.21
745.163	26.19
745.345	26.68
745.526	27
745.707	26.76
745.889	27.29
746.07	26.13
746.252	25.82
746.433	25.86
746.614	26.19
746.795	25.89
746.977	25.79
747.158	26.17
747.339	26.31
747.52	26.04
747.702	26.53
747.883	26.31
748.064	26.96
748.245	27.14
748.426	26.54
748.607	27.1
748.788	26.83
748.97	27.26
749.151	27.31
749.332	26.85
749.513	26.34
749.694	25.71
749.875	25.35
750.056	25.38
750.237	25.44
750.418	26.15
750.599	25.66
750.78	26.2
750.96	26.01
751.141	26.13
751.322	26.1
751.503	26.61
751.684	27
751.865	27.11
752.046	26.61
752.226	26.6
752.407	26.64
752.588	26.48
752.769	26.69
752.949	26.86
753.13	27.08
753.311	27.93
753.492	27.7
753.672	27.38
753.853	26.96
754.034	26.64
754.214	26.25
754.395	25.75
754.575	25.98
754.756	25.63
754.937	25.48
755.117	24.89
755.298	23.67
755.478	23.55
755.659	23.28
755.839	23.83
756.02	24.13
756.2	24.82
756.381	24.25
756.561	23.87
756.741	23.85
756.922	24.21
757.102	24.05
757.283	24.36
757.463	24.04
757.643	25.19
757.823	25.19
758.004	25.69
758.184	26.01
758.364	27.46
758.545	27.81
758.725	27.8
758.905	27.25
759.085	26.68
759.265	26.47
759.446	27.16
759.626	26.01
759.806	25.68
759.986	25.23
760.166	25.9
760.346	25.78
760.526	26.12
760.706	26.26
760.886	26.67
761.066	27.41
761.246	27.82
761.426	27.97
761.606	28.1
761.786	28.41
761.966	28.34
762.146	27.42
762.326	27.23
762.506	26.55
762.686	26.59
762.866	26.48
763.046	26.34
763.225	26.41
763.405	26.18
763.585	25.99
763.765	25.89
763.945	25.92
764.124	25.83
764.304	25.59
764.484	26.02
764.664	26.17
764.843	26.09
765.023	25.88
765.203	25.35
765.382	25.44
765.562	25.95
765.741	26.12
765.921	25.72
766.101	25.9
766.28	25.5
766.46	25.3
766.639	25.1
766.819	25.86
766.998	26.83
767.178	26.98
767.357	26.84
767.537	26.17
767.716	25.57
767.896	25.7
768.075	25.69
768.254	26.43
768.434	26.82
768.613	26.89
768.792	25.42
768.972	24.33
769.151	24.37
769.33	24.73
769.51	25.12
769.689	25.36
769.868	24.78
770.047	25.02
770.226	24.96
770.406	24.89
770.585	24.74
770.764	25.29
770.943	25.04
771.122	25.67
771.301	26.03
771.48	25.9
771.66	26.72
771.839	26.45
772.018	26.22
772.197	26.24
772.376	26.55
772.555	26.67
772.734	27.28
772.913	27.27
773.092	27.36
773.271	26.44
773.449	26.85
773.628	26.12
773.807	27.4
773.986	28.01
774.165	27.32
774.344	26.7
774.523	26.25
774.701	25.57
774.88	26.99
775.059	26.36
775.238	26.73
775.417	26.73
775.595	26.97
775.774	26.29
775.953	25.7
776.131	26.51
776.31	26.37
776.489	26.51
776.667	26.55
776.846	26
777.025	26.15
777.203	26.46
777.382	27.23
777.56	28.24
777.739	29.23
777.917	28.83
778.096	27.75
778.274	28.16
778.453	28.14
778.631	28.29
778.81	28.68
778.988	28.21
779.166	28.15
779.345	27.37
779.523	25.65
779.702	24.71
779.88	25.31
780.058	26.39
780.237	25.96
780.415	26.25
780.593	27.06
780.771	25.66
780.95	26.1
781.128	25.57
781.306	25.55
781.484	26.44
781.662	26.78
781.841	26.11
782.019	26.25
782.197	25.66
782.375	24.88
782.553	24.32
782.731	24.9
782.909	25.38
783.087	25.44
783.265	25.15
783.443	25.13
783.621	25.12
783.799	24.21
783.977	23.82
784.155	24.4
784.333	25.13
784.511	24.29
784.689	24.78
784.867	23.68
785.045	23.64
785.223	24.34
785.4	24.29
785.578	24.04
785.756	25.21
785.934	24.92
786.112	25.21
786.289	24.89
786.467	24.92
786.645	24.9
786.823	25.01
787	25.34
787.178	25.27
787.356	24.27
787.533	25.17
787.711	25.44
787.889	24.93
788.066	24.59
788.244	24.29
788.421	25.03
788.599	24.67
788.776	25.64
788.954	25.57
789.131	24.97
789.309	26.09
789.486	25.8
789.664	25.92
789.841	26.45
790.019	26.69
790.196	26.78
790.373	26.88
790.551	27.42
790.728	26.49
790.906	26.51
791.083	27.68
791.26	27.52
791.437	27.91
791.615	27.06
791.792	28.05
791.969	27.95
792.146	28.69
792.324	27.68
792.501	27.09
792.678	27.24
792.855	27.79
793.032	27.16
793.209	26.98
793.387	26.12
793.564	26.72
793.741	26.09
793.918	25.21
794.095	25.05
794.272	26.4
794.449	26.22
794.626	26.57
794.803	26.31
794.98	25.85
795.157	26.59
795.334	26.69
795.511	26.13
795.688	26.58
795.864	28.35
796.041	28.83
796.218	28.16
796.395	28.23
796.572	28.06
796.749	27.14
796.925	26.48
797.102	25.38
797.279	26.2
797.456	26.49
797.632	25.26
797.809	24.04
797.986	23.35
798.162	23.73
798.339	23.78
798.516	23.77
798.692	24.84
798.869	25.73
799.046	25.68
799.222	24.26
799.399	25.54
799.575	25.44
799.752	26.53
799.928	27.61
800.105	26.73
800.281	27.16
800.458	26.88
800.634	25.77
800.811	26.46
800.987	26.78
801.163	25.75
801.34	24.35
801.516	25.56
801.692	24.48
801.869	23.81
802.045	24.51
802.221	24
802.398	24.34
802.574	24.69
802.75	24.27
802.926	24.64
803.103	25.92
803.279	25.76
803.455	25.62
803.631	25.47
803.807	25.63
803.983	25.35
804.16	27.05
804.336	26.9
804.512	26.37
804.688	26.33
804.864	26.94
805.04	27.6
805.216	28.57
805.392	27.99
805.568	27.94
805.744	27.09
805.92	27.79
806.096	27.03
806.272	27.21
806.448	28.39
806.623	27.21
806.799	26.94
806.975	27.93
807.151	27.72
807.327	28.05
807.503	28.28
807.678	29.79
807.854	29.88
808.03	29.54
808.206	29.02
808.381	29.29
808.557	30.24
808.733	28.39
808.908	27.3
809.084	27.12
809.26	28.1
809.435	28.9
809.611	28.1
809.787	26.75
809.962	27.63
810.138	28.28
810.313	28
810.489	27.65
810.664	29.97
810.84	30.28
811.015	29.4
811.191	29.3
811.366	29.92
811.542	29.57
811.717	29.84
811.892	30.09
812.068	30.17
812.243	30.26
812.419	32.12
812.594	31.22
812.769	30.42
812.944	31.07
813.12	30.57
813.295	31.05
813.47	30.91
813.645	31.81
813.821	30.96
813.996	30.89
814.171	29.33
814.346	28.63
814.521	27.8
814.697	28.65
814.872	29.8
815.047	28.88
815.222	27.33
815.397	26.5
815.572	25.84
815.747	24.71
815.922	24.87
816.097	26.11
816.272	25.44
816.447	25.29
816.622	23.81
816.797	23.08
816.972	24.6
817.147	24.73
817.322	25.29
817.496	26.21
817.671	26.05
817.846	25
818.021	25.1
818.196	24.69
818.371	25.12
818.545	25.84
818.72	26.19
818.895	24.41
819.069	23.82
819.244	23.75
819.419	23.48
819.594	23.53
819.768	24.21
819.943	24.53
820.117	24.07
820.292	24.98
820.467	25.45
820.641	25.32
820.816	25.79
820.99	25.97
821.165	26.21
821.339	26.03
821.514	25.7
821.688	25.71
821.863	25.66
822.037	25.69
822.212	25.52
822.386	25.13
822.56	25.24
822.735	25.3
822.909	25.22
823.084	25.06
823.258	25.1
823.432	25.68
823.606	25.59
823.781	25.5
823.955	25.52
824.129	25.7
824.303	26.36
824.478	26.14
824.652	26.2
824.826	26.18
825	25.9
825.174	25.91
825.348	25.37
825.523	25.39
825.697	25.48
825.871	25.88
826.045	25.38
826.219	24.76
826.393	25.59
826.567	25.43
826.741	25.65
826.915	26.06
827.089	25.95
827.263	26.69
827.437	27.05
827.611	27.37
827.784	27.58
827.958	27.8
828.132	28.45
828.306	27.67
828.48	28.01
828.654	28.23
828.827	28.44
829.001	28.79
829.175	28.33
829.349	28.37
829.522	27.8
829.696	27.9
829.87	27.94
830.044	27.28
830.217	27.98
830.391	27.83
830.565	27.73
830.738	27.43
830.912	26.64
831.085	26.76
831.259	25.6
831.432	25.67
831.606	25.35
831.779	25.55
831.953	25.83
832.126	25.16
832.3	25.01
832.473	24.78
832.647	25.13
832.82	25.28
832.994	24.58
833.167	25.12
833.34	24.77
833.514	24.59
833.687	24.6
833.86	24.77
834.034	24.35
834.207	23.7
834.38	23.66
834.553	23.29
834.727	23.03
834.9	24.13
835.073	23.62
835.246	23.94
835.419	23.78
835.593	24.03
835.766	24.06
835.939	23.62
836.112	24.77
836.285	25.67
836.458	25.32
836.631	25.78
836.804	24.72
836.977	24.76
837.15	24.58
837.323	25.07
837.496	25.26
837.669	25.07
837.842	26.41
838.015	25.48
838.188	25.34
838.361	27.42
838.533	27.73
838.706	27.01
838.879	27.99
839.052	28.79
839.225	28.97
839.398	28.36
839.57	29.5
839.743	29.64
839.916	30.13
840.088	29.37
840.261	28.61
840.434	30.38
840.607	31.04
840.779	31.08
840.952	30.6
841.124	30.01
841.297	30.64
841.47	28.2
841.642	29.11
841.815	29.48
841.987	30.81
842.16	29.25
842.332	29.4
842.505	28.77
842.677	28.17
842.85	30.13
843.022	29.05
843.194	31.43
843.367	33.17
843.539	31.03
843.712	32.81
843.884	33.59
844.056	35.71
844.229	34.43
844.401	35.7
844.573	35.31
844.745	33.74
844.918	36.93
845.09	34.09
845.262	33.12
845.434	37.28
845.606	33.65
845.779	30.32
845.951	28.91
846.123	28.37
846.295	30.21
846.467	34.31
846.639	30.8
846.811	30.24
846.983	30.49
847.155	30.36
847.327	27.45
847.499	31.97
847.671	33.27
847.843	34.28
848.015	35.18
848.187	35.62
848.359	33.48
848.531	40.01
848.703	35.55
848.875	35.72
849.047	37.79
849.218	38.64
849.39	39
849.562	39.48
849.734	39.98
849.905	40.02
850.077	37.77
850.249	38.13
850.421	33.15
850.592	37.85
850.764	36.36
850.936	36.16
851.107	34.38
851.279	31.69
851.451	30.72
851.622	29.23
851.794	25.37
851.965	26.63
852.137	22.49
852.308	23.99
852.48	25.82
852.651	24.34
852.823	25.82
852.994	26.43
853.166	22.53
853.337	23.54
853.509	23.27
853.68	24.93
853.851	25.78
854.023	31.22
854.194	29.37
854.365	28.17
854.537	31.07
854.708	26.81
854.879	30.08
855.05	29.83
855.222	29.59
855.393	32.97
855.564	33.73
855.735	32.59
855.906	29.6
856.078	32.52
856.249	29.54
856.42	31.6
856.591	32.2
856.762	28.62
856.933	31.26
857.104	30.21
857.275	28.41
857.446	24.94
857.617	29.63
857.788	31.72
857.959	30.66
858.13	34.83
858.301	30.96
858.472	34.08
858.643	36.85
858.814	37.31
858.985	38.27
859.155	38.59
859.326	39.69
859.497	34.13
859.668	33.68
859.839	32.66
860.009	30.57
860.18	33.52
860.351	34.18
860.522	31.57
860.692	28.68
860.863	28.47
861.034	28.06
861.204	25.57
861.375	25.85
861.546	28.87
861.716	26.78
861.887	26.28
862.057	21.83
862.228	20.46
862.398	16.75
862.569	23.83
862.739	27.66
862.91	29.59
863.08	35.89
863.251	35.01
863.421	29.7
863.592	35.94
863.762	36.52
863.932	35.79
864.103	34.54
864.273	40.48
864.443	40.71
864.614	35.99
864.784	33.04
864.954	29.54
865.125	31.42
865.295	34.76
865.465	30.28
865.635	27.74
865.805	31.99
865.976	32.93
866.146	33.84
866.316	29.26
866.486	30.79
866.656	30.77
866.826	31.67
866.996	30.07
867.166	29.53
867.336	29.93
867.506	31.17
867.676	28.3
867.846	26.57
868.016	25.68
868.186	30.39
868.356	29.62
868.526	34.5
868.696	35.29
868.866	34.62
869.036	33.39
869.206	35.28
869.376	35.14
869.545	32.37
869.715	35.17
869.885	36.78
870.055	34.39
870.224	34.4
870.394	32.26
870.564	32.08
870.734	35.85
870.903	38.22
871.073	39.76
871.243	41.1
871.412	44.55
871.582	43.83
871.751	40.31
871.921	39.17
872.091	36.08
872.26	36.35
872.43	35.26
872.599	35.2
872.769	32.04
872.938	30.45
873.108	30.32
873.277	29.22
873.446	23.47
873.616	24.51
873.785	22.54
873.955	25.56
874.124	27.07
874.293	24.91
874.463	21.68
874.632	23.37
874.801	22.07
874.971	23.47
875.14	28.67
875.309	34.28
875.478	32.16
875.647	31.46
875.817	32.76
875.986	28.19
876.155	28.34
876.324	28.13
876.493	26.94
876.662	27.56
876.831	21.68
877	18.93
877.17	17.93
877.339	20.22
877.508	20.96
877.677	18.29
877.846	21.95
878.015	24.42
878.184	27.91
878.352	28.7
878.521	32.82
878.69	36.26
878.859	34.86
879.028	30.99
879.197	31.61
879.366	31.36
879.534	34.01
879.703	31.93
879.872	29.63
880.041	27.4
880.21	27.6
880.378	24.69
880.547	24.25
880.716	24.87
880.884	26.48
881.053	24.31
881.222	24.61
881.39	24.33
881.559	25.77
881.727	26.69
881.896	27.07
882.065	26.46
882.233	26.14
882.402	26.29
882.57	25.95
882.739	25.73
882.907	26.78
883.076	26.95
883.244	26.74
883.412	25.64
883.581	25.43
883.749	25.62
883.918	26.46
884.086	26.75
884.254	27.66
884.423	27.65
884.591	27
884.759	26.6
884.927	26.67
885.096	28.09
885.264	27.93
885.432	28.45
885.6	28.2
885.769	28.07
885.937	28.49
886.105	25.23
886.273	25.26
886.441	26.39
886.609	25.84
886.777	24.89
886.945	21.36
887.113	24.26
887.281	25.96
887.449	24.53
887.617	24.2
887.785	23.69
887.953	28.46
888.121	31.35
888.289	30.97
888.457	33.91
888.625	34.68
888.793	37.47
888.961	35.7
889.129	31.44
889.296	27.96
889.464	27.09
889.632	28.9
889.8	24.1
889.967	18.1
890.135	19.67
