Data from 2938466_Reflection_1.txt Node
Date: Wed Jun 17 13:48:43 EDT 2015
User: robert
Spectrometer: USB4E03002
Autoset integration time: false
Trigger mode: 4
Integration Time (sec): 1.000000E-1
Scans to average: 10
Electric dark correction enabled: true
Nonlinearity correction enabled: false
Boxcar width: 5
Stray light correction enabled: false
XAxis mode: Wavelengths
Stop averaging: false
Number of Pixels in Spectrum: 3648
>>>>>Begin Spectral Data<<<<<
177.575	-15.06
177.794	-13.86
178.014	31.42
178.233	48.98
178.452	-1.2
178.672	-273.04
178.891	2.01
179.11	149.21
179.33	-603.65
179.549	-109.88
179.768	-72.44
179.987	-6.48
180.207	-247.99
180.426	-27.19
180.645	27.32
180.864	38.87
181.084	12.08
181.303	10.77
181.522	50.49
181.741	49.98
181.96	43.88
182.179	123.46
182.398	99.72
182.618	91.64
182.837	101.94
183.056	325.74
183.275	181.87
183.494	168.44
183.713	233.82
183.932	1489.55
184.151	354.46
184.37	201.37
184.589	99.69
184.808	81.01
185.027	216.3
185.246	157.82
185.465	122.49
185.684	168.62
185.903	272.31
186.122	192.95
186.341	120.53
186.56	148.14
186.779	202.55
186.998	261.17
187.216	160.17
187.435	133.02
187.654	145.81
187.873	148.53
188.092	163.03
188.311	128.52
188.53	152.83
188.748	181.98
188.967	166.59
189.186	214.33
189.405	276.25
189.623	254.6
189.842	398.11
190.061	-2380.8
190.28	-127.6
190.498	-57.02
190.717	-380.78
190.936	-56.08
191.154	-31.17
191.373	-120.11
191.592	-601.53
191.81	123.67
192.029	-185.03
192.248	26.34
192.466	97.81
192.685	72.25
192.904	82.8
193.122	70.79
193.341	85.14
193.559	68.1
193.778	57.94
193.996	43.69
194.215	33.31
194.433	44.63
194.652	74.16
194.87	94.48
195.089	119.01
195.307	137.18
195.526	285.75
195.744	220.54
195.963	170.09
196.181	202.46
196.399	138.13
196.618	106.16
196.836	116.92
197.055	105.63
197.273	66.17
197.491	71.92
197.71	80.49
197.928	76.4
198.146	69.35
198.365	83.82
198.583	70.53
198.801	86.29
199.019	101.09
199.238	111.95
199.456	105.23
199.674	87.27
199.892	72.22
200.111	66.83
200.329	52.62
200.547	47.12
200.765	42.78
200.983	28.14
201.202	-5.04
201.42	19.93
201.638	25.3
201.856	39.95
202.074	65.24
202.292	67.31
202.51	52.79
202.728	57.02
202.946	50.16
203.165	35.73
203.383	43
203.601	59.94
203.819	56.58
204.037	44
204.255	45.66
204.473	48.49
204.691	50.24
204.909	69.59
205.127	49.61
205.345	58.78
205.562	69.38
205.78	93.52
205.998	106.29
206.216	106.67
206.434	99.59
206.652	125.61
206.87	110.06
207.088	110.45
207.306	119.85
207.523	137.33
207.741	137.94
207.959	143.44
208.177	122.94
208.395	104.44
208.612	113.17
208.83	128.71
209.048	89.6
209.266	94.5
209.483	94.25
209.701	82.58
209.919	79.89
210.136	91.26
210.354	73.17
210.572	70.88
210.79	65.27
211.007	61.22
211.225	45.55
211.442	45.67
211.66	48.55
211.878	51.84
212.095	48.01
212.313	45.22
212.53	29.45
212.748	31.64
212.966	25.95
213.183	20.92
213.401	24.2
213.618	38.14
213.836	43.94
214.053	33.61
214.271	29.7
214.488	30.68
214.705	30.55
214.923	21.64
215.14	16.66
215.358	34.36
215.575	42.11
215.793	46.74
216.01	40.79
216.227	50.63
216.445	55.42
216.662	49.09
216.879	45.98
217.097	47.17
217.314	48.15
217.531	50.34
217.749	42.09
217.966	11.32
218.183	0.8
218.4	-14.68
218.618	-43.22
218.835	-79.54
219.052	-54.73
219.269	-80.15
219.487	-84.18
219.704	-51.9
219.921	-43.29
220.138	-36.34
220.355	-24.36
220.572	-13.34
220.79	-4.83
221.007	10.64
221.224	18.26
221.441	9.14
221.658	11.17
221.875	21.53
222.092	22.32
222.309	25.44
222.526	20.91
222.743	21.11
222.96	23.06
223.177	25.83
223.394	25.04
223.611	21.3
223.828	27.13
224.045	24.39
224.262	18.06
224.479	17.78
224.696	20.9
224.913	21.28
225.13	22.38
225.347	20.31
225.564	17.37
225.781	14.12
225.997	15.08
226.214	14.44
226.431	14.36
226.648	15.36
226.865	13.88
227.082	14
227.298	13.31
227.515	12.22
227.732	12.23
227.949	14.06
228.165	15.41
228.382	14.46
228.599	14.62
228.816	14.65
229.032	14.73
229.249	15.49
229.466	15.57
229.682	16.58
229.899	17.88
230.116	18.55
230.332	16.3
230.549	15.24
230.765	17.67
230.982	16.33
231.199	17.57
231.415	17.53
231.632	20.08
231.848	20.4
232.065	20.75
232.281	19.31
232.498	17.28
232.714	17.26
232.931	18.14
233.147	18.93
233.364	17.63
233.58	17.09
233.797	15.84
234.013	13.09
234.23	9.74
234.446	10.95
234.662	9.13
234.879	7.32
235.095	8.41
235.312	8.99
235.528	7.55
235.744	8.38
235.961	7.24
236.177	6.82
236.393	7.19
236.61	7.95
236.826	5.3
237.042	7.29
237.258	11.5
237.475	10.67
237.691	9.7
237.907	7.79
238.123	8.05
238.339	8.9
238.556	11.43
238.772	12.77
238.988	13.11
239.204	13.22
239.42	12.9
239.636	12.27
239.853	11.7
240.069	11.91
240.285	11.56
240.501	11.89
240.717	11.49
240.933	10.41
241.149	9.41
241.365	9.9
241.581	10.39
241.797	10.7
242.013	10.85
242.229	11.16
242.445	11.23
242.661	11.47
242.877	12.27
243.093	12.25
243.309	12.95
243.525	13.21
243.741	12.01
243.957	11.26
244.173	10.64
244.388	9.81
244.604	9.61
244.82	9.48
245.036	9.58
245.252	8.94
245.468	9.16
245.683	9.36
245.899	9.75
246.115	9.88
246.331	9.76
246.547	9.85
246.762	10.03
246.978	10.09
247.194	10.21
247.409	10.37
247.625	10.34
247.841	10.46
248.057	10.08
248.272	9.92
248.488	10.68
248.703	10.65
248.919	10.4
249.135	9.61
249.35	10
249.566	10.21
249.782	9.35
249.997	9.93
250.213	9.39
250.428	9.13
250.644	7.48
250.859	6.91
251.075	6.97
251.29	7.32
251.506	7.56
251.721	7.27
251.937	6.62
252.152	6.85
252.368	7.41
252.583	7.65
252.798	7.65
253.014	9.42
253.229	10.06
253.445	9.86
253.66	10.22
253.875	10.8
254.091	11.06
254.306	11.02
254.521	10.76
254.737	9.64
254.952	9.21
255.167	9.05
255.383	8.61
255.598	7.52
255.813	7.97
256.028	7.85
256.244	7.29
256.459	6.6
256.674	6.68
256.889	7.39
257.104	7.28
257.32	7.46
257.535	7.26
257.75	7.47
257.965	7.38
258.18	7
258.395	6.97
258.61	7.24
258.826	7.65
259.041	7.48
259.256	7.47
259.471	7.6
259.686	7.63
259.901	7.77
260.116	7.7
260.331	8.35
260.546	8.66
260.761	8.52
260.976	8.62
261.191	8.21
261.406	8.88
261.621	8.36
261.836	8.32
262.05	7.96
262.265	7.91
262.48	7.74
262.695	6.43
262.91	6.28
263.125	6.45
263.34	6.98
263.555	7.46
263.769	7.03
263.984	6.68
264.199	7.1
264.414	7.01
264.629	7.46
264.843	7.01
265.058	6.57
265.273	7.28
265.488	7.2
265.702	6.76
265.917	6.82
266.132	7.07
266.346	7.63
266.561	7.42
266.776	7.9
266.99	7.77
267.205	7.78
267.42	8.15
267.634	7.81
267.849	8.24
268.063	7.97
268.278	8.41
268.492	8.42
268.707	7.95
268.922	7.5
269.136	6.82
269.351	6.73
269.565	7.12
269.78	7.16
269.994	7.54
270.209	7.13
270.423	7.11
270.637	6.41
270.852	6.25
271.066	6.72
271.281	6.92
271.495	7.09
271.709	7.07
271.924	6.78
272.138	6.99
272.353	6.48
272.567	6.38
272.781	5.89
272.996	6
273.21	5.77
273.424	5.24
273.638	4.61
273.853	4.76
274.067	4.34
274.281	4.93
274.495	4.82
274.71	4.63
274.924	4.45
275.138	5.28
275.352	4.97
275.566	4.96
275.781	5.35
275.995	6.18
276.209	6.3
276.423	6.56
276.637	5.9
276.851	6.13
277.065	6.5
277.279	7.41
277.493	6.89
277.707	7.31
277.921	7.29
278.135	6.92
278.349	6.55
278.563	6.41
278.777	6.2
278.991	6.55
279.205	6.54
279.419	6.7
279.633	6.29
279.847	6.54
280.061	6.47
280.275	6.8
280.489	7.11
280.703	7.08
280.917	7.12
281.131	7.42
281.344	7.11
281.558	6.73
281.772	6.77
281.986	6.96
282.2	7.11
282.414	7.01
282.627	6.67
282.841	6.48
283.055	6.27
283.269	6.23
283.482	6.23
283.696	6.4
283.91	6.72
284.123	6.54
284.337	6.24
284.551	6.12
284.764	6.28
284.978	6.37
285.192	6.49
285.405	6.86
285.619	6.76
285.833	6.54
286.046	6.3
286.26	6.68
286.473	6.72
286.687	7.23
286.9	7.56
287.114	7.05
287.327	6.92
287.541	6.39
287.754	6.29
287.968	6.14
288.181	6.06
288.395	6.47
288.608	6.03
288.822	5.73
289.035	4.82
289.248	4.36
289.462	4.48
289.675	4.77
289.889	5
290.102	5
290.315	5.14
290.529	5.74
290.742	5.38
290.955	5.37
291.169	5.44
291.382	6.51
291.595	6.74
291.808	6.87
292.022	6.39
292.235	6.28
292.448	6.54
292.661	6.5
292.875	5.93
293.088	5.99
293.301	5.96
293.514	5.93
293.727	5.54
293.94	5.6
294.153	5.61
294.367	5.74
294.58	5.99
294.793	5.63
295.006	5.86
295.219	6.24
295.432	6.25
295.645	6.66
295.858	6.74
296.071	6.38
296.284	5.95
296.497	5.92
296.71	6.12
296.923	6.3
297.136	6.12
297.349	6.05
297.562	5.93
297.775	5.91
297.988	5.44
298.201	5.4
298.414	5.84
298.626	6.19
298.839	6.12
299.052	5.51
299.265	5.02
299.478	5.13
299.691	5.21
299.903	5.23
300.116	5.48
300.329	5.18
300.542	4.87
300.755	4.51
300.967	5.21
301.18	5.62
301.393	6.13
301.605	6
301.818	5.81
302.031	5.97
302.243	5.72
302.456	5.87
302.669	5.74
302.881	5.91
303.094	5.8
303.307	5.33
303.519	5.54
303.732	5.84
303.944	5.96
304.157	6.88
304.37	6.58
304.582	7.01
304.795	6.57
305.007	7.21
305.22	7.23
305.432	7.87
305.645	7.77
305.857	7.17
306.069	7.26
306.282	7.4
306.494	6.87
306.707	7.23
306.919	6.65
307.132	6.77
307.344	6.6
307.556	7.21
307.769	7.26
307.981	7.12
308.193	7.07
308.406	6.56
308.618	6.93
308.83	6.66
309.043	6.04
309.255	6.49
309.467	6.43
309.679	6.38
309.892	6.05
310.104	5.78
310.316	5.62
310.528	5.84
310.74	5.91
310.953	5.52
311.165	5.65
311.377	5.79
311.589	5.76
311.801	6.1
312.013	6.04
312.225	5.74
312.437	5.45
312.649	6.35
312.862	6.29
313.074	6.72
313.286	6.93
313.498	7.03
313.71	7.73
313.922	7.25
314.134	6.88
314.346	6.83
314.558	7.09
314.77	7.79
314.982	7.4
315.193	7.75
315.405	7.42
315.617	7.65
315.829	8.2
316.041	7.62
316.253	7.46
316.465	7.61
316.677	7.82
316.888	7.86
317.1	7.86
317.312	7.89
317.524	7.5
317.736	7.55
317.947	7.24
318.159	7.23
318.371	7.4
318.583	7.98
318.794	8.06
319.006	8.42
319.218	8.54
319.43	8.19
319.641	7.93
319.853	8.27
320.064	8.37
320.276	8.72
320.488	8.16
320.699	8.14
320.911	8.05
321.123	8.11
321.334	7.72
321.546	7.71
321.757	7.64
321.969	8.08
322.18	7.38
322.392	7.37
322.603	7.37
322.815	7.65
323.026	8.1
323.238	7.86
323.449	7.35
323.661	7.35
323.872	7.16
324.083	7.56
324.295	6.99
324.506	6.94
324.718	7.06
324.929	7.41
325.14	7.59
325.352	7.34
325.563	7.69
325.774	8.19
325.986	8.61
326.197	8.51
326.408	8.21
326.62	8.49
326.831	9.07
327.042	9.08
327.253	8.76
327.464	8.45
327.676	8.36
327.887	8.16
328.098	8.34
328.309	8.23
328.52	8.27
328.732	8.78
328.943	8.94
329.154	8.77
329.365	8.94
329.576	8.34
329.787	8.68
329.998	9.01
330.209	9.19
330.42	8.62
330.631	8.52
330.842	9.06
331.053	8.81
331.264	8.91
331.475	8.56
331.686	8.44
331.897	8.64
332.108	8.67
332.319	8.72
332.53	8.66
332.741	8.9
332.952	8.86
333.163	8.5
333.374	8.14
333.585	8.36
333.795	8.58
334.006	8.63
334.217	9.17
334.428	9.08
334.639	8.53
334.849	8.44
335.06	8.52
335.271	8.24
335.482	8.35
335.692	8.53
335.903	7.98
336.114	7.99
336.325	7.86
336.535	7.22
336.746	7.53
336.957	7.96
337.167	8.14
337.378	8.36
337.589	8.63
337.799	8.74
338.01	9.16
338.22	9.65
338.431	9.75
338.642	9.59
338.852	9.88
339.063	9.79
339.273	9.85
339.484	9.99
339.694	9.79
339.905	9.72
340.115	10.39
340.326	10.32
340.536	10.26
340.746	10.18
340.957	10.54
341.167	10.5
341.378	9.95
341.588	9.54
341.799	9.57
342.009	9.55
342.219	9.42
342.43	8.82
342.64	8.41
342.85	8.42
343.061	8.48
343.271	8.39
343.481	8.53
343.691	8.54
343.902	8.78
344.112	8.47
344.322	8.5
344.532	8.55
344.743	8.07
344.953	8.17
345.163	7.83
345.373	7.93
345.583	7.28
345.793	7.31
346.004	7.9
346.214	7.79
346.424	8.03
346.634	7.66
346.844	8.03
347.054	8.13
347.264	8.41
347.474	8.5
347.684	8.23
347.894	8.85
348.104	8.88
348.314	8.3
348.524	8.04
348.734	7.84
348.944	8.18
349.154	8.04
349.364	7.94
349.574	7.48
349.784	7.47
349.994	7.61
350.204	7.45
350.413	7.79
350.623	8.02
350.833	8.27
351.043	8.04
351.253	8.15
351.463	8
351.672	8.36
351.882	8.49
352.092	8.32
352.302	8.47
352.511	8.64
352.721	8.22
352.931	8.34
353.141	8.37
353.35	8.84
353.56	8.54
353.77	8.84
353.979	9.01
354.189	8.82
354.399	9.08
354.608	8.87
354.818	8.57
355.027	8.33
355.237	7.92
355.447	7.67
355.656	7.46
355.866	7.66
356.075	7.35
356.285	7.14
356.494	7.15
356.704	7.19
356.913	7.15
357.123	7.27
357.332	7.45
357.542	7.57
357.751	7.83
357.96	7.64
358.17	7.43
358.379	7.48
358.589	7.46
358.798	7.73
359.007	7.44
359.217	7.49
359.426	7.4
359.635	7.44
359.845	7.36
360.054	7.43
360.263	7.61
360.472	7.66
360.682	7.59
360.891	7.66
361.1	7.73
361.309	7.83
361.519	7.69
361.728	7.73
361.937	7.39
362.146	7.76
362.355	7.54
362.564	7.4
362.774	7.27
362.983	7.39
363.192	7.35
363.401	7.11
363.61	7.16
363.819	7.51
364.028	7.59
364.237	7.62
364.446	7
364.655	6.97
364.864	7
365.073	6.93
365.282	6.9
365.491	6.76
365.7	6.82
365.909	6.64
366.118	6.42
366.327	6.15
366.536	6.55
366.745	7.09
366.954	7.18
367.162	7.09
367.371	7.25
367.58	7.27
367.789	7.28
367.998	7.05
368.207	7.33
368.415	7.12
368.624	7.43
368.833	7.01
369.042	6.32
369.25	6.59
369.459	6.72
369.668	6.59
369.877	6.35
370.085	6.52
370.294	6.53
370.503	6.23
370.711	6.56
370.92	6.42
371.129	6.59
371.337	7.08
371.546	6.46
371.754	6.48
371.963	6.33
372.171	6.49
372.38	6.44
372.589	6.6
372.797	6.62
373.006	6.51
373.214	6.61
373.423	6.48
373.631	6.38
373.84	6.57
374.048	6.57
374.256	6.8
374.465	6.86
374.673	6.67
374.882	6.72
375.09	6.62
375.298	6.57
375.507	6.55
375.715	6.74
375.923	6.66
376.132	6.53
376.34	6.39
376.548	6.39
376.757	6.32
376.965	6.39
377.173	6.32
377.381	6.37
377.59	6.34
377.798	6.31
378.006	6.27
378.214	6.43
378.423	6.5
378.631	6.36
378.839	6.4
379.047	6.28
379.255	6.29
379.463	6.09
379.671	6.06
379.879	6.14
380.088	6.27
380.296	5.97
380.504	5.82
380.712	6.13
380.92	6.1
381.128	6.17
381.336	6.2
381.544	6.07
381.752	5.97
381.96	6.06
382.168	5.98
382.376	5.81
382.584	5.99
382.791	5.99
382.999	5.93
383.207	6.09
383.415	5.97
383.623	6.05
383.831	5.94
384.039	6.04
384.247	6.2
384.454	6.02
384.662	6.01
384.87	6.07
385.078	6.07
385.285	5.82
385.493	5.77
385.701	5.57
385.909	5.58
386.116	5.79
386.324	5.65
386.532	5.27
386.739	5.29
386.947	5.35
387.155	5.43
387.362	5.32
387.57	5.34
387.778	5.53
387.985	5.61
388.193	5.42
388.4	5.17
388.608	5.47
388.816	5.52
389.023	5.56
389.231	5.28
389.438	5.21
389.646	5.36
389.853	5.42
390.061	5.09
390.268	5.13
390.475	5.12
390.683	5.29
390.89	5.29
391.098	5.34
391.305	5.38
391.512	5.42
391.72	5.44
391.927	5.41
392.135	5.26
392.342	5.53
392.549	5.62
392.756	5.81
392.964	5.9
393.171	5.73
393.378	5.7
393.586	5.7
393.793	5.68
394	5.37
394.207	5.34
394.414	5.45
394.622	5.23
394.829	5.27
395.036	5.1
395.243	4.8
395.45	5.07
395.657	5.14
395.864	4.91
396.072	4.92
396.279	5.1
396.486	5
396.693	5
396.9	5.06
397.107	5
397.314	5.06
397.521	5.07
397.728	5.1
397.935	5.15
398.142	5.38
398.349	5.39
398.556	5.51
398.763	5.49
398.97	5.56
399.177	5.74
399.383	5.66
399.59	5.56
399.797	5.84
400.004	5.74
400.211	5.68
400.418	5.66
400.625	5.74
400.831	5.51
401.038	5.57
401.245	5.64
401.452	5.49
401.658	5.44
401.865	5.45
402.072	5.29
402.279	5.23
402.485	5.24
402.692	5.23
402.899	5.28
403.105	5.39
403.312	5.43
403.519	5.31
403.725	5.26
403.932	5.2
404.138	5.16
404.345	5.25
404.552	5.18
404.758	5.27
404.965	5.15
405.171	5.11
405.378	5.11
405.584	4.96
405.791	4.99
405.997	5.09
406.204	5.2
406.41	5.29
406.617	5.19
406.823	5.34
407.029	5.19
407.236	5.33
407.442	5.26
407.649	5.42
407.855	5.43
408.061	5.41
408.268	5.26
408.474	5.3
408.68	5.3
408.887	5.38
409.093	5.24
409.299	5.42
409.505	5.41
409.712	5.46
409.918	5.16
410.124	5.2
410.33	5.06
410.537	5.08
410.743	4.96
410.949	4.96
411.155	4.92
411.361	4.66
411.567	4.47
411.773	4.33
411.98	4.42
412.186	4.52
412.392	4.67
412.598	4.88
412.804	4.84
413.01	4.88
413.216	4.99
413.422	4.91
413.628	5.14
413.834	5.15
414.04	5.11
414.246	4.97
414.452	5.04
414.658	5.02
414.864	4.99
415.07	5.03
415.275	5.1
415.481	4.96
415.687	4.86
415.893	4.8
416.099	4.75
416.305	4.75
416.511	4.87
416.716	4.85
416.922	4.82
417.128	4.81
417.334	4.82
417.539	4.75
417.745	4.74
417.951	4.86
418.157	4.91
418.362	4.87
418.568	4.87
418.774	4.72
418.979	4.76
419.185	4.71
419.391	4.63
419.596	4.63
419.802	4.62
420.008	4.62
420.213	5.17
420.419	5.17
420.624	5.12
420.83	5.14
421.035	5.18
421.241	5.18
421.446	5.22
421.652	5.32
421.857	5.3
422.063	5.28
422.268	5.22
422.474	4.7
422.679	4.68
422.885	4.76
423.09	4.76
423.295	4.72
423.501	4.66
423.706	4.66
423.911	4.62
424.117	4.65
424.322	4.67
424.527	4.67
424.733	4.56
424.938	4.55
425.143	4.62
425.349	4.56
425.554	4.62
425.759	4.6
425.964	4.54
426.169	4.5
426.375	4.54
426.58	4.5
426.785	4.63
426.99	4.8
427.195	4.84
427.4	4.75
427.605	4.82
427.811	4.72
428.016	4.79
428.221	4.81
428.426	4.71
428.631	4.63
428.836	4.71
429.041	4.68
429.246	4.47
429.451	4.34
429.656	4.42
429.861	4.47
430.066	4.69
430.271	4.59
430.476	4.59
430.681	4.69
430.886	4.64
431.09	4.63
431.295	4.66
431.5	4.75
431.705	4.82
431.91	4.87
432.115	4.83
432.32	4.7
432.524	4.73
432.729	4.72
432.934	4.84
433.139	4.89
433.343	5
433.548	4.95
433.753	4.91
433.958	4.88
434.162	4.71
434.367	4.74
434.572	4.76
434.776	4.7
434.981	4.61
435.186	4.42
435.39	4.31
435.595	4.2
435.799	4.14
436.004	4.14
436.209	4.07
436.413	4.11
436.618	4.04
436.822	4.09
437.027	4.15
437.231	4.32
437.436	4.36
437.64	4.38
437.845	4.35
438.049	4.5
438.253	4.51
438.458	4.52
438.662	4.52
438.867	4.56
439.071	4.59
439.275	4.59
439.48	4.47
439.684	4.48
439.888	4.46
440.093	4.53
440.297	4.44
440.501	4.49
440.706	4.57
440.91	4.6
441.114	4.62
441.318	4.49
441.523	4.51
441.727	4.62
441.931	4.72
442.135	4.73
442.339	4.64
442.543	4.66
442.748	4.69
442.952	4.68
443.156	4.66
443.36	4.67
443.564	4.77
443.768	4.72
443.972	4.65
444.176	4.54
444.38	4.55
444.584	4.52
444.788	4.49
444.992	4.43
445.196	4.45
445.4	4.46
445.604	4.39
445.808	4.33
446.012	4.42
446.216	4.44
446.42	4.47
446.624	4.51
446.828	4.55
447.032	4.57
447.235	4.57
447.439	4.58
447.643	4.61
447.847	4.75
448.051	4.83
448.254	4.84
448.458	4.82
448.662	4.87
448.866	4.87
449.069	4.95
449.273	4.99
449.477	5.01
449.681	5
449.884	4.98
450.088	4.95
450.292	4.97
450.495	4.79
450.699	4.89
450.902	4.88
451.106	4.79
451.31	4.68
451.513	4.71
451.717	4.68
451.92	4.63
452.124	4.5
452.327	4.4
452.531	4.42
452.734	4.48
452.938	4.38
453.141	4.38
453.345	4.38
453.548	4.35
453.752	4.34
453.955	4.36
454.158	4.3
454.362	4.34
454.565	4.41
454.769	4.38
454.972	4.47
455.175	4.53
455.379	4.43
455.582	4.46
455.785	4.49
455.988	4.45
456.192	4.41
456.395	4.45
456.598	4.54
456.801	4.51
457.005	4.45
457.208	4.29
457.411	4.28
457.614	4.33
457.817	4.32
458.021	4.29
458.224	4.34
458.427	4.32
458.63	4.33
458.833	4.39
459.036	4.44
459.239	4.47
459.442	4.54
459.645	4.52
459.848	4.47
460.051	4.51
460.254	4.63
460.457	4.6
460.66	4.7
460.863	4.75
461.066	4.67
461.269	4.65
461.472	4.69
461.675	4.53
461.878	4.55
462.081	4.63
462.284	4.7
462.486	4.58
462.689	4.56
462.892	4.44
463.095	4.41
463.298	4.5
463.5	4.49
463.703	4.44
463.906	4.7
464.109	4.63
464.311	4.72
464.514	4.61
464.717	4.78
464.92	4.79
465.122	4.83
465.325	4.78
465.528	4.65
465.73	4.7
465.933	4.78
466.135	4.63
466.338	4.69
466.541	4.58
466.743	4.53
466.946	4.51
467.148	4.45
467.351	4.43
467.553	4.44
467.756	4.49
467.958	4.51
468.161	4.46
468.363	4.46
468.566	4.43
468.768	4.41
468.971	4.44
469.173	4.32
469.375	4.33
469.578	4.22
469.78	4.31
469.983	4.39
470.185	4.33
470.387	4.24
470.59	4.38
470.792	4.33
470.994	4.4
471.196	4.46
471.399	4.43
471.601	4.53
471.803	4.67
472.005	4.65
472.208	4.57
472.41	4.53
472.612	4.57
472.814	4.49
473.016	4.56
473.218	4.52
473.421	4.51
473.623	4.52
473.825	4.49
474.027	4.49
474.229	4.39
474.431	4.39
474.633	4.43
474.835	4.44
475.037	4.41
475.239	4.46
475.441	4.54
475.643	4.58
475.845	4.62
476.047	4.53
476.249	4.55
476.451	4.54
476.653	4.49
476.855	4.46
477.057	4.49
477.258	4.46
477.46	4.4
477.662	4.39
477.864	4.36
478.066	4.25
478.268	4.3
478.469	4.32
478.671	4.37
478.873	4.44
479.075	4.41
479.276	4.38
479.478	4.45
479.68	4.46
479.882	4.43
480.083	4.39
480.285	4.49
480.487	4.45
480.688	4.41
480.89	4.39
481.091	4.36
481.293	4.34
481.495	4.36
481.696	4.38
481.898	4.39
482.099	4.39
482.301	4.37
482.502	4.38
482.704	4.39
482.905	4.38
483.107	4.4
483.308	4.38
483.51	4.39
483.711	4.39
483.913	4.35
484.114	4.34
484.315	4.27
484.517	4.28
484.718	4.25
484.92	4.25
485.121	4.23
485.322	4.24
485.524	4.26
485.725	4.27
485.926	4.27
486.127	4.27
486.329	4.27
486.53	4.34
486.731	4.35
486.932	4.36
487.134	4.36
487.335	4.38
487.536	4.37
487.737	4.39
487.938	4.38
488.139	4.35
488.341	4.35
488.542	4.33
488.743	4.32
488.944	4.28
489.145	4.29
489.346	4.29
489.547	4.3
489.748	4.26
489.949	4.26
490.15	4.28
490.351	4.3
490.552	4.33
490.753	4.38
490.954	4.39
491.155	4.41
491.356	4.4
491.557	4.42
491.758	4.44
491.959	4.48
492.159	4.49
492.36	4.51
492.561	4.57
492.762	4.54
492.963	4.52
493.164	4.55
493.364	4.59
493.565	4.63
493.766	4.65
493.967	4.6
494.167	4.56
494.368	4.43
494.569	4.42
494.769	4.4
494.97	4.4
495.171	4.4
495.371	4.43
495.572	4.47
495.773	4.45
495.973	4.47
496.174	4.51
496.375	4.6
496.575	4.71
496.776	4.74
496.976	4.78
497.177	4.8
497.377	4.8
497.578	4.83
497.778	4.86
497.979	4.9
498.179	4.83
498.38	4.81
498.58	4.77
498.78	4.76
498.981	4.73
499.181	4.69
499.382	4.73
499.582	4.74
499.782	4.74
499.983	4.72
500.183	4.72
500.383	4.77
500.584	4.79
500.784	4.8
500.984	4.78
501.184	4.76
501.385	4.73
501.585	4.77
501.785	4.75
501.985	4.64
502.185	4.67
502.386	4.67
502.586	4.6
502.786	4.7
502.986	4.74
503.186	4.8
503.386	4.88
503.586	4.93
503.786	4.93
503.987	5
504.187	5.09
504.387	5.04
504.587	5.1
504.787	5.18
504.987	5.1
505.187	5.1
505.387	5.16
505.587	5.21
505.786	5.25
505.986	5.28
506.186	5.28
506.386	5.19
506.586	5.19
506.786	5.17
506.986	5.21
507.186	5.26
507.386	5.3
507.585	5.31
507.785	5.29
507.985	5.26
508.185	5.27
508.384	5.25
508.584	5.32
508.784	5.37
508.984	5.4
509.183	5.4
509.383	5.35
509.583	5.37
509.782	5.44
509.982	5.47
510.182	5.52
510.381	5.55
510.581	5.55
510.781	5.62
510.98	5.65
511.18	5.64
511.379	5.68
511.579	5.73
511.778	5.72
511.978	5.63
512.177	5.62
512.377	5.64
512.576	5.61
512.776	5.56
512.975	5.57
513.175	5.56
513.374	5.61
513.573	5.61
513.773	5.67
513.972	5.68
514.172	5.75
514.371	5.81
514.57	5.86
514.77	5.91
514.969	5.99
515.168	5.97
515.367	6
515.567	6.03
515.766	6.03
515.965	6.09
516.164	6.07
516.364	6.1
516.563	6.04
516.762	6.02
516.961	6.06
517.16	6.06
517.359	6.05
517.559	6.04
517.758	5.99
517.957	6
518.156	5.94
518.355	5.99
518.554	5.93
518.753	5.94
518.952	5.96
519.151	5.88
519.35	5.99
519.549	5.99
519.748	6.03
519.947	6.06
520.146	5.98
520.345	5.98
520.544	5.93
520.743	6.06
520.942	6.08
521.141	6.17
521.339	6.34
521.538	6.29
521.737	6.27
521.936	6.33
522.135	6.35
522.333	6.39
522.532	6.55
522.731	6.64
522.93	6.66
523.129	6.69
523.327	6.55
523.526	6.45
523.725	6.46
523.923	6.53
524.122	6.58
524.321	6.62
524.519	6.71
524.718	6.64
524.917	6.63
525.115	6.62
525.314	6.6
525.512	6.65
525.711	6.72
525.909	6.77
526.108	6.78
526.306	6.74
526.505	6.71
526.703	6.73
526.902	6.72
527.1	6.7
527.299	6.69
527.497	6.69
527.696	6.67
527.894	6.65
528.092	6.66
528.291	6.67
528.489	6.68
528.688	6.68
528.886	6.62
529.084	6.6
529.283	6.63
529.481	6.66
529.679	6.74
529.877	6.8
530.076	6.8
530.274	6.81
530.472	6.85
530.67	6.94
530.869	6.99
531.067	7.02
531.265	7.1
531.463	7.15
531.661	7.14
531.859	7.12
532.057	7.11
532.255	7.14
532.454	7.14
532.652	7.14
532.85	7.11
533.048	7.14
533.246	7.17
533.444	7.13
533.642	7.14
533.84	7.15
534.038	7.19
534.236	7.24
534.434	7.27
534.632	7.27
534.83	7.28
535.027	7.31
535.225	7.28
535.423	7.34
535.621	7.43
535.819	7.42
536.017	7.43
536.215	7.45
536.412	7.46
536.61	7.5
536.808	7.51
537.006	7.52
537.203	7.53
537.401	7.63
537.599	7.65
537.797	7.72
537.994	7.73
538.192	7.82
538.39	7.89
538.587	7.95
538.785	7.92
538.983	7.96
539.18	8.05
539.378	8.08
539.575	8.07
539.773	8.11
539.97	8.08
540.168	8.16
540.366	8.15
540.563	8.1
540.761	8.11
540.958	8.17
541.155	8.16
541.353	8.09
541.55	8.12
541.748	8.18
541.945	8.18
542.143	8.22
542.34	8.18
542.537	8.21
542.735	8.24
542.932	8.31
543.129	8.34
543.327	8.41
543.524	8.52
543.721	8.57
543.919	8.6
544.116	8.63
544.313	8.7
544.51	8.75
544.708	8.8
544.905	8.89
545.102	8.85
545.299	8.85
545.496	8.91
545.693	8.92
545.891	8.9
546.088	8.86
546.285	8.87
546.482	8.89
546.679	8.98
546.876	8.99
547.073	9.04
547.27	9.16
547.467	9.22
547.664	9.25
547.861	9.34
548.058	9.44
548.255	9.49
548.452	9.55
548.649	9.59
548.846	9.55
549.043	9.67
549.24	9.78
549.437	9.83
549.633	9.99
549.83	9.94
550.027	9.94
550.224	10.04
550.421	10.17
550.618	10.27
550.814	10.26
551.011	10.36
551.208	10.4
551.405	10.4
551.601	10.46
551.798	10.4
551.995	10.48
552.191	10.5
552.388	10.41
552.585	10.4
552.781	10.53
552.978	10.62
553.175	10.69
553.371	10.69
553.568	10.69
553.764	10.82
553.961	10.86
554.157	11.02
554.354	11.13
554.55	11.3
554.747	11.38
554.943	11.32
555.14	11.31
555.336	11.32
555.533	11.38
555.729	11.49
555.926	11.3
556.122	11.29
556.318	11.37
556.515	11.43
556.711	11.48
556.907	11.55
557.104	11.57
557.3	11.72
557.496	11.67
557.693	11.79
557.889	11.78
558.085	11.82
558.281	12.04
558.478	11.94
558.674	12.08
558.87	12.08
559.066	12.03
559.262	12.12
559.459	12.09
559.655	12.29
559.851	12.32
560.047	12.3
560.243	12.48
560.439	12.39
560.635	12.62
560.831	12.57
561.027	12.66
561.223	12.87
561.419	12.94
561.615	13.02
561.811	13.18
562.007	13.22
562.203	13.45
562.399	13.51
562.595	13.6
562.791	13.67
562.987	13.8
563.183	13.94
563.379	13.92
563.575	13.94
563.771	14.06
563.966	14.06
564.162	14.19
564.358	14.27
564.554	14.27
564.75	14.43
564.945	14.49
565.141	14.45
565.337	14.48
565.533	14.64
565.728	14.77
565.924	14.77
566.12	14.8
566.315	14.83
566.511	14.79
566.707	14.91
566.902	15.01
567.098	15.02
567.293	15.19
567.489	15.32
567.684	15.31
567.88	15.46
568.076	15.59
568.271	15.78
568.467	15.8
568.662	15.89
568.858	15.92
569.053	15.91
569.248	16.08
569.444	16.07
569.639	16.06
569.835	16.09
570.03	16.17
570.225	16.18
570.421	16.15
570.616	16.27
570.812	16.44
571.007	16.5
571.202	16.59
571.397	16.63
571.593	16.81
571.788	16.84
571.983	16.96
572.178	17.02
572.374	17.12
572.569	17.19
572.764	17.27
572.959	17.29
573.154	17.45
573.35	17.56
573.545	17.58
573.74	17.55
573.935	17.7
574.13	17.87
574.325	17.9
574.52	18.07
574.715	18.12
574.91	18.2
575.105	18.27
575.3	18.29
575.495	18.29
575.69	18.27
575.885	18.44
576.08	18.55
576.275	18.4
576.47	18.48
576.665	18.51
576.86	18.5
577.055	18.51
577.25	18.7
577.444	18.92
577.639	19.03
577.834	19.24
578.029	19.24
578.224	19.11
578.418	19.26
578.613	19.27
578.808	19.35
579.003	19.53
579.197	19.54
579.392	19.48
579.587	19.33
579.781	19.52
579.976	19.6
580.171	19.66
580.365	19.79
580.56	19.91
580.755	20.14
580.949	20.2
581.144	20.28
581.338	20.21
581.533	20.25
581.727	20.5
581.922	20.48
582.116	20.5
582.311	20.51
582.505	20.66
582.7	20.68
582.894	20.71
583.089	20.79
583.283	20.9
583.478	21.13
583.672	21.11
583.866	21.03
584.061	21
584.255	20.99
584.449	21.11
584.644	21.17
584.838	21.3
585.032	21.29
585.226	21.32
585.421	21.43
585.615	21.61
585.809	21.79
586.003	21.78
586.198	21.9
586.392	22.09
586.586	22.18
586.78	22.31
586.974	22.29
587.168	22.24
587.363	22.27
587.557	22.31
587.751	22.43
587.945	22.46
588.139	22.58
588.333	22.69
588.527	22.7
588.721	22.77
588.915	22.71
589.109	22.78
589.303	22.86
589.497	22.97
589.691	22.95
589.885	22.87
590.079	22.89
590.273	22.9
590.466	22.78
590.66	22.69
590.854	22.69
591.048	22.79
591.242	22.88
591.436	22.91
591.629	22.84
591.823	22.83
592.017	22.88
592.211	22.92
592.404	23.05
592.598	23.17
592.792	23.23
592.986	23.21
593.179	23.16
593.373	23.22
593.567	23.3
593.76	23.32
593.954	23.46
594.147	23.55
594.341	23.67
594.535	23.67
594.728	23.75
594.922	23.81
595.115	24.03
595.309	24.09
595.502	24.11
595.696	24.17
595.889	24.25
596.083	24.21
596.276	24.25
596.47	24.33
596.663	24.43
596.856	24.49
597.05	24.58
597.243	24.65
597.437	24.72
597.63	24.77
597.823	24.71
598.017	24.81
598.21	24.89
598.403	24.82
598.596	24.72
598.79	24.87
598.983	24.94
599.176	24.92
599.369	24.87
599.563	24.97
599.756	25
599.949	25.11
600.142	25.1
600.335	25.29
600.528	25.29
600.722	25.36
600.915	25.3
601.108	25.42
601.301	25.6
601.494	25.66
601.687	25.71
601.88	25.61
602.073	25.68
602.266	25.67
602.459	25.6
602.652	25.68
602.845	25.75
603.038	25.77
603.231	25.73
603.424	25.62
603.617	25.55
603.809	25.43
604.002	25.51
604.195	25.5
604.388	25.54
604.581	25.62
604.774	25.66
604.966	25.61
605.159	25.52
605.352	25.49
605.545	25.59
605.737	25.74
605.93	25.95
606.123	26.09
606.316	26.19
606.508	26.33
606.701	26.47
606.894	26.46
607.086	26.4
607.279	26.56
607.471	26.59
607.664	26.69
607.857	26.7
608.049	26.76
608.242	26.68
608.434	26.62
608.627	26.55
608.819	26.44
609.012	26.47
609.204	26.59
609.397	26.66
609.589	26.64
609.782	26.62
609.974	26.45
610.166	26.46
610.359	26.56
610.551	26.64
610.743	26.73
610.936	26.82
611.128	26.87
611.32	26.93
611.513	26.78
611.705	26.83
611.897	26.88
612.09	27.09
612.282	26.99
612.474	27.07
612.666	27.09
612.858	27.2
613.051	27.27
613.243	27.38
613.435	27.31
613.627	27.33
613.819	27.37
614.011	27.69
614.203	27.61
614.395	27.74
614.588	27.67
614.78	27.76
614.972	27.6
615.164	27.67
615.356	27.67
615.548	27.56
615.74	27.7
615.932	27.77
616.124	27.33
616.315	27.58
616.507	27.55
616.699	27.51
616.891	27.59
617.083	27.84
617.275	27.78
617.467	27.86
617.659	28.21
617.85	28.23
618.042	28.28
618.234	28.23
618.426	28.18
618.618	28.16
618.809	28.3
619.001	28.4
619.193	28.33
619.384	28.3
619.576	28.36
619.768	28.1
619.959	28.22
620.151	28.26
620.343	28.48
620.534	28.4
620.726	28.47
620.917	28.36
621.109	28.16
621.301	28.01
621.492	28.19
621.684	28.22
621.875	28.27
622.067	28.18
622.258	28.22
622.45	28.21
622.641	28.22
622.832	28.24
623.024	28.41
623.215	28.54
623.407	28.7
623.598	28.52
623.789	28.56
623.981	28.75
624.172	28.95
624.363	28.93
624.555	29.06
624.746	29.08
624.937	29.26
625.129	29.3
625.32	29.42
625.511	29.51
625.702	29.54
625.893	29.43
626.085	29.62
626.276	29.6
626.467	29.56
626.658	29.46
626.849	29.45
627.04	29.46
627.231	29.55
627.422	29.66
627.614	29.69
627.805	29.79
627.996	29.85
628.187	29.76
628.378	29.65
628.569	29.78
628.76	29.85
628.951	30.04
629.142	29.97
629.332	29.85
629.523	29.48
629.714	29.52
629.905	29.44
630.096	29.38
630.287	29.28
630.478	29.3
630.669	29.42
630.859	29.66
631.05	29.77
631.241	29.71
631.432	29.73
631.623	30.01
631.813	29.75
632.004	29.86
632.195	29.9
632.385	30.07
632.576	30.27
632.767	30.24
632.957	30.12
633.148	30.04
633.339	30.12
633.529	29.93
633.72	29.93
633.91	30.1
634.101	30.15
634.292	30.4
634.482	30.39
634.673	30.24
634.863	30.2
635.054	30.27
635.244	30.3
635.435	30.31
635.625	30.47
635.815	30.53
636.006	30.65
636.196	30.72
636.387	30.56
636.577	30.62
636.767	30.74
636.958	30.62
637.148	30.53
637.338	30.62
637.529	30.79
637.719	30.9
637.909	30.94
638.099	30.8
638.29	30.89
638.48	31.09
638.67	31.15
638.86	31.21
639.05	31.36
639.241	31.45
639.431	31.45
639.621	31.56
639.811	31.3
640.001	31.15
640.191	31.24
640.381	31.24
640.571	31.11
640.761	30.98
640.951	30.98
641.141	30.93
641.331	30.83
641.521	30.67
641.711	30.41
641.901	30.55
642.091	30.6
642.281	30.55
642.471	30.38
642.661	30.34
642.851	30.58
643.041	30.61
643.231	30.8
643.42	30.79
643.61	31.01
643.8	31.13
643.99	31.08
644.18	31.32
644.369	31.42
644.559	31.73
644.749	31.71
644.939	31.44
645.128	31.17
645.318	31.29
645.508	31.68
645.697	31.61
645.887	31.34
646.076	31.48
646.266	31.49
646.456	31.61
646.645	31.59
646.835	31.81
647.024	31.86
647.214	32.25
647.403	32.06
647.593	31.98
647.782	32.07
647.972	32.24
648.161	32.37
648.351	32.25
648.54	32.11
648.73	31.95
648.919	31.89
649.108	31.83
649.298	31.84
649.487	31.96
649.677	31.81
649.866	31.79
650.055	32.13
650.244	31.98
650.434	32.1
650.623	32.14
650.812	32.18
651.002	32.22
651.191	32.33
651.38	32.23
651.569	32.15
651.758	32.14
651.947	31.99
652.137	31.83
652.326	32.18
652.515	31.9
652.704	32.05
652.893	32.38
653.082	32.41
653.271	32.38
653.46	32.21
653.649	32.4
653.838	32.38
654.027	32.54
654.216	32.43
654.405	32.47
654.594	32.7
654.783	32.67
654.972	32.56
655.161	32.64
655.35	33.06
655.539	33.38
655.728	33.35
655.916	33.42
656.105	33.5
656.294	33.89
656.483	34.04
656.672	34.17
656.86	34.11
657.049	34.02
657.238	34.07
657.427	33.78
657.615	33.78
657.804	33.78
657.993	34
658.181	34.13
658.37	34.02
658.559	33.8
658.747	33.62
658.936	33.75
659.125	33.39
659.313	33.34
659.502	33.35
659.69	33.23
659.879	33.26
660.067	33.18
660.256	33.03
660.444	33.04
660.633	33.22
660.821	33.33
661.01	33.37
661.198	33.95
661.387	33.98
661.575	34.15
661.763	34.42
661.952	34.26
662.14	34.24
662.328	34.19
662.517	34.11
662.705	33.92
662.893	33.94
663.082	33.87
663.27	33.88
663.458	33.86
663.646	33.65
663.834	33.81
664.023	33.76
664.211	33.8
664.399	33.75
664.587	33.78
664.775	33.78
664.963	33.82
665.152	33.78
665.34	33.73
665.528	33.95
665.716	34.1
665.904	33.98
666.092	34.34
666.28	34.32
666.468	34.33
666.656	34.45
666.844	34.38
667.032	34.45
667.22	34.41
667.408	34.47
667.596	34.39
667.784	34.37
667.971	34.21
668.159	34.32
668.347	34.23
668.535	34.5
668.723	34.38
668.911	34.58
669.098	34.55
669.286	34.86
669.474	35.01
669.662	35.25
669.849	35.4
670.037	35.55
670.225	35.37
670.413	35.61
670.6	35.41
670.788	35.28
670.976	35.25
671.163	35.23
671.351	34.92
671.538	34.98
671.726	34.64
671.913	34.43
672.101	34.69
672.289	34.75
672.476	34.55
672.664	34.75
672.851	34.95
673.039	35.13
673.226	35.1
673.413	35.29
673.601	35.16
673.788	35.09
673.976	35.24
674.163	35.09
674.35	35.01
674.538	35.26
674.725	35.05
674.912	35.11
675.1	34.92
675.287	34.98
675.474	34.91
675.662	34.77
675.849	35.11
676.036	35.08
676.223	34.7
676.411	34.91
676.598	34.69
676.785	35.15
676.972	35.23
677.159	35.4
677.346	35.5
677.533	35.76
677.721	35.72
677.908	35.73
678.095	35.97
678.282	36.03
678.469	36.02
678.656	36.27
678.843	36.32
679.03	36.32
679.217	36.45
679.404	36.44
679.591	36.17
679.778	36.29
679.964	36.22
680.151	36.06
680.338	36.42
680.525	36.46
680.712	36.26
680.899	35.96
681.086	36.08
681.272	35.89
681.459	35.89
681.646	36.13
681.833	36.35
682.02	36.28
682.206	36.45
682.393	36.26
682.58	36.04
682.766	36.23
682.953	36.41
683.14	36.3
683.326	36.45
683.513	36.74
683.7	36.86
683.886	36.97
684.073	36.9
684.259	36.83
684.446	37
684.632	37.16
684.819	37.45
685.005	37.19
685.192	37.29
685.378	37.4
685.565	37.42
685.751	37.4
685.938	37.11
686.124	37.39
686.31	37.43
686.497	37.5
686.683	37.67
686.87	37.3
687.056	37.3
687.242	37.41
687.429	37.28
687.615	36.94
687.801	36.76
687.987	37.03
688.174	36.9
688.36	37.16
688.546	37.05
688.732	37.15
688.918	36.97
689.105	37.3
689.291	37.09
689.477	37.03
689.663	37.29
689.849	37.46
690.035	37.4
690.221	37.69
690.407	37.46
690.593	37.37
690.779	37.07
690.965	37.23
691.151	37.49
691.337	37.5
691.523	37.45
691.709	37.41
691.895	37.44
692.081	37.19
692.267	37.18
692.453	37.38
692.639	37.55
692.825	37.66
693.011	37.75
693.196	37.17
693.382	37.3
693.568	37.17
693.754	37.26
693.94	37.29
694.125	37.54
694.311	37.36
694.497	37.23
694.682	37.21
694.868	37.4
695.054	37.35
695.239	37.58
695.425	37.53
695.611	37.77
695.796	38.04
695.982	38.32
696.168	38.06
696.353	37.96
696.539	37.98
696.724	38.08
696.91	37.81
697.095	38.22
697.281	38.09
697.466	38.27
697.652	38.46
697.837	38.28
698.023	38.1
698.208	38.33
698.393	38.49
698.579	38.45
698.764	38.49
698.949	38.88
699.135	38.7
699.32	38.82
699.505	38.66
699.691	38.68
699.876	38.56
700.061	38.35
700.246	38.25
700.432	38.1
700.617	38.27
700.802	38.24
700.987	37.94
701.172	38.37
701.358	38.64
701.543	38.8
701.728	38.73
701.913	38.9
702.098	39.13
702.283	39.06
702.468	39.1
702.653	38.97
702.838	39.15
703.023	39.07
703.208	38.16
703.393	38.03
703.578	38.21
703.763	38.38
703.948	38.83
704.133	38.88
704.318	39.32
704.503	39.71
704.688	39.91
704.873	39.26
705.057	39.19
705.242	39.79
705.427	39.62
705.612	39.47
705.797	39.21
705.981	38.63
706.166	38.67
706.351	38.75
706.536	38.53
706.72	37.93
706.905	38.24
707.09	38.41
707.274	38.27
707.459	38.42
707.644	38.43
707.828	38.43
708.013	38.44
708.197	38.53
708.382	38.2
708.567	37.99
708.751	38.28
708.936	38.52
709.12	38.78
709.305	38.48
709.489	38.6
709.673	38.61
709.858	38.67
710.042	38.52
710.227	38.38
710.411	38.39
710.596	38.42
710.78	38.61
710.964	38.47
711.149	38.49
711.333	39.08
711.517	38.86
711.702	38.71
711.886	38.61
712.07	38.76
712.254	38.58
712.438	38.35
712.623	38.41
712.807	38.3
712.991	38.18
713.175	38.31
713.359	38.38
713.544	38.32
713.728	38.45
713.912	38.66
714.096	38.58
714.28	38.9
714.464	38.98
714.648	38.82
714.832	38.57
715.016	38.62
715.2	38.42
715.384	38.35
715.568	38.26
715.752	37.73
715.936	37.62
716.12	37.83
716.304	37.58
716.488	37.48
716.671	37.6
716.855	38.26
717.039	38.44
717.223	38.32
717.407	38.15
717.59	38.31
717.774	38.88
717.958	38.73
718.142	38.64
718.325	38.68
718.509	39.66
718.693	39.81
718.877	39.15
719.06	39.35
719.244	39.56
719.428	39.65
719.611	39.96
719.795	39.82
719.978	39.79
720.162	40.03
720.345	40.44
720.529	39.48
720.713	39.56
720.896	40.04
721.08	39.57
721.263	39.31
721.446	39.1
721.63	39.31
721.813	39.65
721.997	39.94
722.18	40.03
722.364	39.9
722.547	40.22
722.73	40.18
722.914	40.04
723.097	40.16
723.28	40.25
723.464	40.43
723.647	39.94
723.83	39.41
724.013	39.58
724.197	39.64
724.38	39.56
724.563	39.42
724.746	39.32
724.929	39.66
725.112	39.89
725.296	39.87
725.479	39.82
725.662	39.8
725.845	40.49
726.028	40.16
726.211	39.64
726.394	40.2
726.577	40.11
726.76	40.33
726.943	39.9
727.126	39.69
727.309	39.98
727.492	40.07
727.675	40.2
727.858	39.9
728.041	40.02
728.224	40.42
728.407	39.81
728.589	39.89
728.772	39.8
728.955	40.15
729.138	39.98
729.321	39.68
729.503	39.85
729.686	39.97
729.869	39.86
730.052	40.18
730.234	40.05
730.417	40.14
730.6	39.96
730.782	40.06
730.965	40.08
731.148	40.39
731.33	40.59
731.513	40.32
731.695	40.12
731.878	40.36
732.061	40.33
732.243	40.37
732.426	40.13
732.608	40.55
732.791	40.44
732.973	40.18
733.156	40.55
733.338	40.81
733.52	40.72
733.703	40.9
733.885	40.91
734.068	40.75
734.25	41.03
734.432	41.36
734.615	41.42
734.797	41.6
734.979	41.27
735.162	40.7
735.344	40.19
735.526	40.38
735.708	40.12
735.891	40.33
736.073	40.01
736.255	39.68
736.437	39.6
736.619	38.75
736.802	38.52
736.984	39.4
737.166	39.72
737.348	40.11
737.53	40
737.712	40.7
737.894	40.44
738.076	40.79
738.258	40.76
738.44	40.94
738.622	41.74
738.804	42.16
738.986	41.91
739.168	41.79
739.35	41.18
739.532	41.26
739.714	40.6
739.896	40.21
740.078	40.13
740.259	40.05
740.441	40.28
740.623	39.8
740.805	39.6
740.987	39.52
741.168	39.18
741.35	39.87
741.532	39.67
741.714	40.21
741.895	40.51
742.077	40.06
742.259	40.08
742.44	39.87
742.622	40.2
742.804	40.55
742.985	40.44
743.167	40.5
743.348	40
743.53	40.41
743.711	39.94
743.893	39.85
744.075	40.42
744.256	40.25
744.438	40.2
744.619	40.18
744.8	39.97
744.982	39.81
745.163	40.74
745.345	40.79
745.526	41.23
745.707	41.98
745.889	42.55
746.07	41.99
746.252	43.01
746.433	42.57
746.614	42.7
746.795	42.44
746.977	42.6
747.158	42.19
747.339	42.21
747.52	41.73
747.702	41.54
747.883	40.47
748.064	40.77
748.245	40.55
748.426	40.64
748.607	40.45
748.788	40.91
748.97	41.33
749.151	41.7
749.332	42.67
749.513	42.75
749.694	41.97
749.875	42.7
750.056	42.89
750.237	41.63
750.418	41.84
750.599	42.34
750.78	41.8
750.96	41.73
751.141	40.83
751.322	39.7
751.503	39.58
751.684	39.93
751.865	39.9
752.046	39.8
752.226	40.96
752.407	40.99
752.588	41.08
752.769	41.7
752.949	41.41
753.13	42.12
753.311	43.33
753.492	43.46
753.672	43.65
753.853	43.73
754.034	43.31
754.214	42.75
754.395	43.19
754.575	42.17
754.756	41.73
754.937	41.61
755.117	41.74
755.298	40.61
755.478	40.32
755.659	40.57
755.839	40.92
756.02	41.82
756.2	42.04
756.381	41.52
756.561	42.43
756.741	42.62
756.922	42.8
757.102	42.23
757.283	43.11
757.463	42.43
757.643	41.85
757.823	41.22
758.004	41.01
758.184	40.3
758.364	40.38
758.545	40.62
758.725	40.37
758.905	40.39
759.085	40.4
759.265	39.51
759.446	39.63
759.626	39.95
759.806	40.96
759.986	40.7
760.166	41.26
760.346	41.19
760.526	40.78
760.706	41.13
760.886	41.05
761.066	41
761.246	41.2
761.426	41.45
761.606	40.99
761.786	40.15
761.966	40.56
762.146	40.58
762.326	40.6
762.506	40.8
762.686	40.25
762.866	40.37
763.046	40.34
763.225	40.7
763.405	41.2
763.585	41.74
763.765	41.88
763.945	41.54
764.124	41.69
764.304	41.8
764.484	41.95
764.664	42.18
764.843	42.16
765.023	42.18
765.203	41.78
765.382	41.33
765.562	40.79
765.741	40.68
765.921	41.03
766.101	40.94
766.28	41.12
766.46	41.01
766.639	41.47
766.819	41.69
766.998	41.8
767.178	41.64
767.357	41.88
767.537	42.39
767.716	42.44
767.896	42.33
768.075	42.02
768.254	42.04
768.434	42.11
768.613	42.26
768.792	41.79
768.972	41.93
769.151	41.87
769.33	41.62
769.51	42.11
769.689	42.41
769.868	42.14
770.047	42.84
770.226	42.77
770.406	42.04
770.585	42.23
770.764	42.68
770.943	42.38
771.122	42.59
771.301	42.82
771.48	42.08
771.66	42.17
771.839	42.06
772.018	41.58
772.197	41.37
772.376	42.3
772.555	41.75
772.734	41.53
772.913	41.71
773.092	41.99
773.271	41.67
773.449	42.01
773.628	41.62
773.807	42.37
773.986	43
774.165	42.87
774.344	42.4
774.523	42.14
774.701	42.69
774.88	43.15
775.059	42.59
775.238	43.18
775.417	42.77
775.595	43.25
775.774	43.02
775.953	42.63
776.131	42.52
776.31	42.22
776.489	42.35
776.667	41.58
776.846	40.43
777.025	40.99
777.203	40.02
777.382	40.47
777.56	40.28
777.739	40.61
777.917	40.97
778.096	41.55
778.274	41.51
778.453	41.24
778.631	41.87
778.81	42.35
778.988	42.33
779.166	43.07
779.345	41.95
779.523	41.4
779.702	41.81
779.88	41.78
780.058	41.56
780.237	41.71
780.415	41.83
780.593	41.39
780.771	42.07
780.95	42.09
781.128	41.11
781.306	41.43
781.484	42.01
781.662	40.5
781.841	39.48
782.019	39.37
782.197	39.36
782.375	38.3
782.553	38.51
782.731	37.87
782.909	37.43
783.087	38.58
783.265	38.46
783.443	38.86
783.621	39.5
783.799	40.47
783.977	40.83
784.155	40.15
784.333	42.26
784.511	41.87
784.689	42.47
784.867	42.89
785.045	42.54
785.223	43.74
785.4	43.54
785.578	43.39
785.756	42.94
785.934	42.75
786.112	44.89
786.289	43.72
786.467	44.21
786.645	43.59
786.823	42.65
787	42.72
787.178	41.81
787.356	41.27
787.533	40.99
787.711	41.17
787.889	41.72
788.066	40.29
788.244	40.99
788.421	40.06
788.599	40.61
788.776	41.25
788.954	41.79
789.131	41.26
789.309	41.71
789.486	42.33
789.664	42.74
789.841	42.17
790.019	42.75
790.196	41.47
790.373	41.68
790.551	41.93
790.728	41.43
790.906	41.27
791.083	41.05
791.26	40.62
791.437	39.9
791.615	39.55
791.792	39.44
791.969	39.22
792.146	39.9
792.324	39.58
792.501	38.78
792.678	40.42
792.855	39.89
793.032	41.21
793.209	42.31
793.387	42.75
793.564	42.63
793.741	42.6
793.918	42.12
794.095	42.66
794.272	43.21
794.449	44.02
794.626	43.25
794.803	42.94
794.98	42.04
795.157	41.26
795.334	40.21
795.511	40.38
795.688	39.78
795.864	40.12
796.041	40.41
796.218	40.66
796.395	39.25
796.572	38.74
796.749	39.58
796.925	39.89
797.102	39.86
797.279	40.36
797.456	40.35
797.632	40.21
797.809	40.39
797.986	39.7
798.162	39.43
798.339	39.9
798.516	40.48
798.692	40.1
798.869	40.12
799.046	40.01
799.222	40.83
799.399	39.97
799.575	41.61
799.752	41.43
799.928	40.69
800.105	41.21
800.281	41.03
800.458	40.49
800.634	39.65
800.811	39.82
800.987	40.88
801.163	39.66
801.34	40.73
801.516	39.18
801.692	38.21
801.869	38.8
802.045	39.11
802.221	40.08
802.398	39.77
802.574	40.38
802.75	39.63
802.926	38.9
803.103	39.79
803.279	39.67
803.455	40.55
803.631	41.79
803.807	42.05
803.983	40.41
804.16	40.22
804.336	40.04
804.512	39.67
804.688	41.34
804.864	41.27
805.04	39.94
805.216	39.58
805.392	40.12
805.568	40.01
805.744	40.77
805.92	41.83
806.096	42.16
806.272	42.79
806.448	44.11
806.623	44.13
806.799	44.36
806.975	46.29
807.151	45.8
807.327	44.27
807.503	44.26
807.678	43.73
807.854	43.85
808.03	43.74
808.206	43.96
808.381	43.36
808.557	42.4
808.733	42.28
808.908	41.92
809.084	41.66
809.26	41.96
809.435	41.27
809.611	42.12
809.787	41.55
809.962	42.86
810.138	42.71
810.313	42.73
810.489	42.01
810.664	41.18
810.84	41.03
811.015	41.11
811.191	41.44
811.366	41.26
811.542	40.19
811.717	39.81
811.892	38.28
812.068	38.15
812.243	37.64
812.419	39.05
812.594	38.85
812.769	38.97
812.944	38.89
813.12	38.22
813.295	38.52
813.47	38.89
813.645	39.45
813.821	39.89
813.996	40.05
814.171	38.93
814.346	39.96
814.521	40.33
814.697	40.86
814.872	42.13
815.047	44
815.222	44.13
815.397	43.7
815.572	44.4
815.747	43.58
815.922	43.73
816.097	45.34
816.272	43.72
816.447	43.35
816.622	42.5
816.797	43.27
816.972	42.98
817.147	43.18
817.322	42.89
817.496	42.03
817.671	41.35
817.846	40.88
818.021	40.84
818.196	40.94
818.371	41.82
818.545	42.13
818.72	40.88
818.895	40.9
819.069	40.23
819.244	40.64
819.419	40.8
819.594	40.99
819.768	40.99
819.943	41.59
820.117	41.81
820.292	40.96
820.467	40.71
820.641	40.84
820.816	40.54
820.99	41.05
821.165	40.57
821.339	40.49
821.514	40.49
821.688	40.59
821.863	40.23
822.037	40.21
822.212	40.38
822.386	40.26
822.56	39.97
822.735	39.77
822.909	39.69
823.084	40.03
823.258	39.87
823.432	40.03
823.606	40.03
823.781	40.01
823.955	40.1
824.129	39.94
824.303	40.12
824.478	40.69
824.652	41.47
824.826	41.24
825	41.08
825.174	41.39
825.348	41.07
825.523	41.1
825.697	41.16
825.871	40.82
826.045	41.44
826.219	41.54
826.393	40.9
826.567	41.17
826.741	41.47
826.915	41.4
827.089	41.79
827.263	41.95
827.437	41.65
827.611	41.68
827.784	41.48
827.958	41.06
828.132	40.83
828.306	41.18
828.48	40.31
828.654	39.61
828.827	38.99
829.001	38.21
829.175	38.76
829.349	38.89
829.522	39.06
829.696	39.66
829.87	40.12
830.044	40.86
830.217	41.05
830.391	41.32
830.565	42.4
830.738	43.69
830.912	44.46
831.085	42.91
831.259	44
831.432	42.92
831.606	43.06
831.779	42.02
831.953	40.78
832.126	40.44
832.3	40.26
832.473	39.89
832.647	39.58
832.82	39.5
832.994	40.75
833.167	40.18
833.34	40.67
833.514	40.71
833.687	41.25
833.86	41.9
834.034	42.16
834.207	41.48
834.38	41.38
834.553	41.59
834.727	41.68
834.9	41.14
835.073	41.26
835.246	42.24
835.419	41.67
835.593	41.85
835.766	41.88
835.939	42.54
836.112	43.8
836.285	43.95
836.458	43.75
836.631	42.78
836.804	42.77
836.977	42.59
837.15	41.57
837.323	42.1
837.496	41.91
837.669	39.81
837.842	40.07
838.015	40.27
838.188	39.31
838.361	39.35
838.533	41.53
838.706	42
838.879	41.02
839.052	41.49
839.225	41.81
839.398	40.94
839.57	42.65
839.743	40.02
839.916	40.58
840.088	41.27
840.261	41.05
840.434	38.64
840.607	36.82
840.779	37.3
840.952	37.42
841.124	36.26
841.297	36.39
841.47	35.48
841.642	34.95
841.815	32.53
841.987	31.67
842.16	33.12
842.332	34.71
842.505	36.98
842.677	36.64
842.85	35.79
843.022	36.94
843.194	35.62
843.367	36.71
843.539	39.55
843.712	38.75
843.884	41.08
844.056	39.4
844.229	40.1
844.401	40.56
844.573	43.45
844.745	42.21
844.918	40.76
845.09	44.29
845.262	45.52
845.434	45.98
845.606	49.06
845.779	46.5
845.951	45.62
846.123	44.99
846.295	43.44
846.467	41.93
846.639	43.18
846.811	44.53
846.983	41.82
847.155	44.39
847.327	45.48
847.499	44.97
847.671	46.83
847.843	47.08
848.015	41.99
848.187	44.86
848.359	46.55
848.531	48.07
848.703	48.72
848.875	51.52
849.047	47.75
849.218	45.58
849.39	44.49
849.562	43.37
849.734	44.83
849.905	51.61
850.077	50.78
850.249	48.23
850.421	47.31
850.592	45.96
850.764	45.43
850.936	47.33
851.107	47.45
851.279	48.59
851.451	49.68
851.622	46.05
851.794	48.18
851.965	46.78
852.137	47.46
852.308	45.58
852.48	47.42
852.651	47.04
852.823	46.92
852.994	45.3
853.166	45.7
853.337	45.38
853.509	48.61
853.68	46.14
853.851	47.79
854.023	50.31
854.194	53.47
854.365	53.71
854.537	53.98
854.708	53.28
854.879	54.95
855.05	56.36
855.222	58.32
855.393	60.55
855.564	61.55
855.735	60.8
855.906	58.22
856.078	57.37
856.249	61.01
856.42	58.67
856.591	60.11
856.762	61.73
856.933	60.04
857.104	57.17
857.275	55.93
857.446	52.72
857.617	54.1
857.788	54.18
857.959	51.67
858.13	44.19
858.301	45.37
858.472	43.06
858.643	41.85
858.814	42.75
858.985	41.51
859.155	40.75
859.326	41.48
859.497	39.36
859.668	38.49
859.839	38.26
860.009	42.98
860.18	42.07
860.351	38.52
860.522	39.99
860.692	39.03
860.863	40.47
861.034	38.19
861.204	42.08
861.375	41.43
861.546	42.07
861.716	44.07
861.887	44.12
862.057	46.04
862.228	48.55
862.398	49.91
862.569	50.9
862.739	51.78
862.91	55.16
863.08	52.7
863.251	55.04
863.421	52.66
863.592	50.6
863.762	48.11
863.932	46.53
864.103	48.19
864.273	47.66
864.443	45.66
864.614	46.05
864.784	44.95
864.954	43.54
865.125	44.05
865.295	40.49
865.465	39.62
865.635	37.95
865.805	40.51
865.976	35.61
866.146	35.05
866.316	31.02
866.486	32.23
866.656	35.45
866.826	35.89
866.996	33.99
867.166	42.32
867.336	44.49
867.506	48.37
867.676	44.93
867.846	44.81
868.016	43.11
868.186	48.24
868.356	48
868.526	43.72
868.696	47.58
868.866	48.39
869.036	46.74
869.206	44.57
869.376	42.91
869.545	45.48
869.715	48.52
869.885	48.43
870.055	45.35
870.224	47.01
870.394	45.45
870.564	41.16
870.734	37.59
870.903	35.11
871.073	39.36
871.243	37.2
871.412	36.58
871.582	38.4
871.751	44.4
871.921	44.29
872.091	41.02
872.26	41.3
872.43	41.84
872.599	42.68
872.769	44.09
872.938	37.35
873.108	38.84
873.277	41.04
873.446	44.35
873.616	38.94
873.785	43.16
873.955	38.24
874.124	40.81
874.293	41.46
874.463	39.63
874.632	36.83
874.801	42.61
874.971	41.63
875.14	41.41
875.309	39.29
875.478	39.19
875.647	37.61
875.817	42.47
875.986	42.11
876.155	39.69
876.324	43.86
876.493	43.9
876.662	39.95
876.831	41.82
877	38.48
877.17	38.82
877.339	38.73
877.508	36.23
877.677	39.3
877.846	36.38
878.015	38.24
878.184	36.96
878.352	40.35
878.521	42.43
878.69	43.13
878.859	46.76
879.028	46.06
879.197	46.03
879.366	45.97
879.534	44.58
879.703	48.14
879.872	47.51
880.041	46.51
880.21	45.74
880.378	45.24
880.547	44.23
880.716	43.82
880.884	43.39
881.053	43.14
881.222	43.96
881.39	43.13
881.559	43.04
881.727	42.27
881.896	41.47
882.065	40.82
882.233	40.54
882.402	40.75
882.57	39.78
882.739	39.53
882.907	39.72
883.076	38.95
883.244	38.81
883.412	38.54
883.581	39
883.749	39.34
883.918	39.35
884.086	39.12
884.254	39.8
884.423	39.72
884.591	40.06
884.759	40.11
884.927	39.99
885.096	41.18
885.264	40.44
885.432	40.6
885.6	41.83
885.769	43.85
885.937	44.15
886.105	43.02
886.273	44.73
886.441	45.25
886.609	45.1
886.777	45.68
886.945	45.29
887.113	46.76
887.281	46.48
887.449	47.26
887.617	43.27
887.785	43.64
887.953	43.54
888.121	41.71
888.289	41.65
888.457	40.93
888.625	40.05
888.793	36.42
888.961	34.31
889.129	31.4
889.296	26.36
889.464	29.73
889.632	29.9
889.8	27.28
889.967	26.33
890.135	20.05
