Data from 2938452_Reflection_2.txt Node
Date: Fri Jun 19 17:55:53 EDT 2015
User: robert
Spectrometer: USB4E03002
Autoset integration time: false
Trigger mode: 4
Integration Time (sec): 1.000000E-1
Scans to average: 10
Electric dark correction enabled: true
Nonlinearity correction enabled: false
Boxcar width: 5
Stray light correction enabled: false
XAxis mode: Wavelengths
Stop averaging: false
Number of Pixels in Spectrum: 3648
>>>>>Begin Spectral Data<<<<<
177.575	-542.04
177.794	-132.18
178.014	-157.41
178.233	-47.38
178.452	32.19
178.672	-78.16
178.891	155.39
179.11	-519.69
179.33	-681.51
179.549	-297.93
179.768	-139.12
179.987	-170.01
180.207	-186.55
180.426	-353.35
180.645	-211.21
180.864	-347.83
181.084	794.55
181.303	384.03
181.522	231.72
181.741	234.79
181.96	178.8
182.179	159.34
182.398	138.38
182.618	145.96
182.837	161.44
183.056	159.15
183.275	159.68
183.494	150.63
183.713	154.34
183.932	187.99
184.151	226.75
184.37	321.97
184.589	541.98
184.808	453.8
185.027	423.64
185.246	372.38
185.465	794.47
185.684	476500
185.903	-139.87
186.122	-130.73
186.341	-102.17
186.56	-46.41
186.779	-58.17
186.998	-33.49
187.216	10.87
187.435	23.7
187.654	25.15
187.873	-20.09
188.092	-62.86
188.311	-88.25
188.53	-125.82
188.748	-195.13
188.967	-103.13
189.186	-137.92
189.405	-431.05
189.623	-14322.22
189.842	-1357.19
190.061	-272.58
190.28	-379.64
190.498	-220.63
190.717	381.05
190.936	367.71
191.154	333.43
191.373	218.94
191.592	244.66
191.81	649.64
192.029	930.36
192.248	230.84
192.466	245.4
192.685	280.43
192.904	234.62
193.122	421.47
193.341	-1004.23
193.559	3074.31
193.778	-6832.62
193.996	-1462.11
194.215	879.13
194.433	496.42
194.652	-1407.44
194.87	-244.6
195.089	-526.93
195.307	-381.4
195.526	-1568.98
195.744	599.37
195.963	525900
196.181	1631.94
196.399	478.21
196.618	306
196.836	324.33
197.055	235.49
197.273	182.97
197.491	180.72
197.71	138.22
197.928	176.93
198.146	224.82
198.365	131.38
198.583	106.6
198.801	205.3
199.019	429.78
199.238	332.41
199.456	335.83
199.674	351.35
199.892	-2570.16
200.111	-176.37
200.329	-115.49
200.547	-20.68
200.765	-12.97
200.983	-60.36
201.202	-28.19
201.42	-67.9
201.638	-69.46
201.856	-43.72
202.074	-84.08
202.292	-77.14
202.51	-93.87
202.728	-68.94
202.946	-758.16
203.165	-5988.16
203.383	645.76
203.601	270.62
203.819	515.36
204.037	-336.86
204.255	-213.57
204.473	-130.46
204.691	-206.66
204.909	-113.47
205.127	-63.19
205.345	-32.33
205.562	-60.29
205.78	-58.74
205.998	-68.93
206.216	-276.1
206.434	-1524.16
206.652	645.03
206.87	362.18
207.088	2905.54
207.306	457.55
207.523	201.07
207.741	161.26
207.959	141.33
208.177	121.11
208.395	112.29
208.612	122.09
208.83	96.06
209.048	102.38
209.266	81.92
209.483	70.96
209.701	83.12
209.919	98.71
210.136	121.11
210.354	162.72
210.572	148.85
210.79	200.86
211.007	154.71
211.225	186.27
211.442	172.09
211.66	151.48
211.878	108.64
212.095	36.42
212.313	23.94
212.53	9.36
212.748	5.51
212.966	-2.88
213.183	-13.62
213.401	-10.44
213.618	-21.11
213.836	-9.8
214.053	-39.06
214.271	-164.71
214.488	66.77
214.705	103.83
214.923	100.26
215.14	67.2
215.358	55.44
215.575	63.81
215.793	104.85
216.01	97.96
216.227	71.42
216.445	101.6
216.662	69.64
216.879	66.41
217.097	70.18
217.314	64.46
217.531	70.72
217.749	80.83
217.966	85.49
218.183	81.12
218.4	67.66
218.618	70.68
218.835	73.1
219.052	106.01
219.269	96.01
219.487	78.82
219.704	79.05
219.921	102.05
220.138	113.99
220.355	116.65
220.572	101.59
220.79	112.18
221.007	96.73
221.224	80.73
221.441	59.3
221.658	65.4
221.875	54.19
222.092	36.14
222.309	25.63
222.526	7.79
222.743	2.47
222.96	9.19
223.177	0.3
223.394	-3.62
223.611	-3.62
223.828	4.04
224.045	6.93
224.262	9.94
224.479	26.08
224.696	25.6
224.913	33.05
225.13	34.43
225.347	30.97
225.564	33.12
225.781	32.24
225.997	30.76
226.214	29.12
226.431	27.42
226.648	26.13
226.865	22.56
227.082	21.03
227.298	19.09
227.515	19.09
227.732	20.6
227.949	20.52
228.165	21.77
228.382	21.47
228.599	19.78
228.816	16.91
229.032	16.42
229.249	16.69
229.466	17.21
229.682	17.52
229.899	14.73
230.116	13.45
230.332	10.96
230.549	12.11
230.765	11.82
230.982	11.27
231.199	15.69
231.415	17.12
231.632	17.16
231.848	17.85
232.065	20.11
232.281	21.64
232.498	22.28
232.714	24.85
232.931	23.58
233.147	23.97
233.364	26.24
233.58	26.28
233.797	28.73
234.013	28.57
234.23	27.95
234.446	26.13
234.662	26.32
234.879	25.36
235.095	23.26
235.312	21.14
235.528	20.79
235.744	18.02
235.961	15.75
236.177	11.75
236.393	12.04
236.61	12.59
236.826	14.27
237.042	14.39
237.258	13.76
237.475	14.56
237.691	15.42
237.907	14.89
238.123	17.36
238.339	17.76
238.556	17.43
238.772	17.15
238.988	16.66
239.204	15.23
239.42	14.96
239.636	15.03
239.853	13.31
240.069	12.7
240.285	13.3
240.501	12.42
240.717	12.5
240.933	12.39
241.149	12.64
241.365	12.64
241.581	12.77
241.797	13.21
242.013	13.61
242.229	14.64
242.445	14.84
242.661	13.68
242.877	13.63
243.093	14.03
243.309	13.94
243.525	13.59
243.741	13.97
243.957	13.73
244.173	12.3
244.388	11.38
244.604	11.7
244.82	12.15
245.036	12.3
245.252	12.18
245.468	11.32
245.683	11.2
245.899	11.02
246.115	10.67
246.331	10.34
246.547	10.5
246.762	10.13
246.978	10.09
247.194	10.03
247.409	10.15
247.625	10.35
247.841	10.33
248.057	10.25
248.272	9.62
248.488	8.72
248.703	8.53
248.919	8.97
249.135	9.45
249.35	8.8
249.566	7.81
249.782	7.66
249.997	7.94
250.213	8.54
250.428	8.18
250.644	9.26
250.859	10.2
251.075	10.99
251.29	10.94
251.506	11.93
251.721	11.96
251.937	12.63
252.152	12.66
252.368	12.29
252.583	12.59
252.798	15.06
253.014	15.4
253.229	15.16
253.445	13.78
253.66	13.06
253.875	11.03
254.091	9.73
254.306	10.01
254.521	9.58
254.737	9.76
254.952	9.22
255.167	8.36
255.383	7.66
255.598	8.37
255.813	9.28
256.028	9.25
256.244	9.81
256.459	9.68
256.674	9.39
256.889	9.01
257.104	8.72
257.32	8.85
257.535	8.06
257.75	8.16
257.965	7.92
258.18	7.73
258.395	7.77
258.61	7.74
258.826	7.71
259.041	7.35
259.256	7.63
259.471	7.55
259.686	7.55
259.901	7.81
260.116	7.72
260.331	8.12
260.546	8.9
260.761	8.79
260.976	8.97
261.191	9.78
261.406	11.06
261.621	10.62
261.836	10.26
262.05	9.81
262.265	10.44
262.48	10.77
262.695	10.2
262.91	9.67
263.125	9.69
263.34	9.85
263.555	9.36
263.769	7.78
263.984	8.36
264.199	8.75
264.414	9.32
264.629	8.3
264.843	7.98
265.058	7.98
265.273	7.19
265.488	7.51
265.702	7
265.917	7.47
266.132	7.79
266.346	7.53
266.561	7.77
266.776	7.51
266.99	7.57
267.205	8.2
267.42	8.27
267.634	8.05
267.849	7.81
268.063	8.33
268.278	8.05
268.492	8.28
268.707	8.45
268.922	8.34
269.136	7.9
269.351	8.36
269.565	7.75
269.78	7.6
269.994	8.01
270.209	8.05
270.423	8.13
270.637	8.24
270.852	8.12
271.066	8.32
271.281	8.8
271.495	9.5
271.709	9.26
271.924	9.32
272.138	9.99
272.353	10.24
272.567	10.67
272.781	10.94
272.996	10.91
273.21	11.67
273.424	11.44
273.638	10.78
273.853	10.87
274.067	10.28
274.281	10.45
274.495	9.15
274.71	8.94
274.924	8.77
275.138	8.48
275.352	8
275.566	7.76
275.781	7.71
275.995	8.06
276.209	8.01
276.423	8.91
276.637	8.75
276.851	9.16
277.065	9.57
277.279	9.5
277.493	9.52
277.707	9.75
277.921	9.33
278.135	9.34
278.349	9.1
278.563	8.59
278.777	8.71
278.991	8.6
279.205	8.5
279.419	8.32
279.633	8.77
279.847	8.44
280.061	7.98
280.275	7.63
280.489	7.76
280.703	8.15
280.917	8.16
281.131	7.7
281.344	7.73
281.558	7.58
281.772	7.41
281.986	7.28
282.2	7.75
282.414	8.07
282.627	8.26
282.841	8.13
283.055	8.3
283.269	8.49
283.482	8.87
283.696	8.68
283.91	9.12
284.123	8.65
284.337	8.4
284.551	7.69
284.764	7.76
284.978	7.89
285.192	8.35
285.405	8.03
285.619	8.11
285.833	8.31
286.046	8.78
286.26	8.96
286.473	9.56
286.687	9.4
286.9	9.97
287.114	10.01
287.327	10.3
287.541	9
287.754	9.1
287.968	8.64
288.181	8.25
288.395	8.02
288.608	7.76
288.822	7.99
289.035	8.28
289.248	8.21
289.462	8.1
289.675	7.73
289.889	8.68
290.102	8.57
290.315	8.59
290.529	8.59
290.742	8.91
290.955	8.92
291.169	8.33
291.382	8.24
291.595	8.92
291.808	9.32
292.022	9.7
292.235	9.83
292.448	9.71
292.661	9.94
292.875	9.86
293.088	9.43
293.301	9.87
293.514	10.06
293.727	10.09
293.94	9.51
294.153	9.15
294.367	8.9
294.58	9
294.793	8.86
295.006	9.17
295.219	9.22
295.432	9.56
295.645	9.37
295.858	9.64
296.071	9.41
296.284	9.41
296.497	9.78
296.71	9.95
296.923	9.7
297.136	10.08
297.349	9.79
297.562	10.03
297.775	9.6
297.988	9.74
298.201	9.61
298.414	9.78
298.626	9.95
298.839	9.44
299.052	8.83
299.265	8.97
299.478	8.83
299.691	8.76
299.903	8.82
300.116	9.13
300.329	8.68
300.542	8.84
300.755	9.45
300.967	9.53
301.18	9.61
301.393	9.86
301.605	9.8
301.818	9.87
302.031	10.07
302.243	10.21
302.456	10.05
302.669	10.3
302.881	10.59
303.094	9.82
303.307	9.62
303.519	9.78
303.732	9.72
303.944	9.85
304.157	10.24
304.37	10.36
304.582	9.84
304.795	10.56
305.007	11.11
305.22	10.82
305.432	11.07
305.645	11.27
305.857	11.64
306.069	12.68
306.282	13
306.494	12.16
306.707	11.7
306.919	11.78
307.132	10.84
307.344	10.14
307.556	9.99
307.769	10.37
307.981	10.37
308.193	9.98
308.406	9.2
308.618	8.96
308.83	9.3
309.043	9.08
309.255	8.8
309.467	9.21
309.679	9.26
309.892	9.02
310.104	8.98
310.316	9.28
310.528	9.58
310.74	9.86
310.953	9.45
311.165	9.63
311.377	10.38
311.589	10.85
311.801	11.87
312.013	12.23
312.225	12.46
312.437	12.7
312.649	12.76
312.862	12.67
313.074	12.42
313.286	12.73
313.498	12.35
313.71	12.39
313.922	12.12
314.134	11.41
314.346	11
314.558	11.28
314.77	10.64
314.982	10.4
315.193	10.61
315.405	10.21
315.617	10.52
315.829	10.89
316.041	11
316.253	11.59
316.465	11.38
316.677	11.8
316.888	11.63
317.1	11.57
317.312	11.33
317.524	10.76
317.736	11.78
317.947	12.37
318.159	12.12
318.371	11.53
318.583	11.04
318.794	10.27
319.006	9.96
319.218	10
319.43	9.95
319.641	10.27
319.853	10.74
320.064	11.09
320.276	10.27
320.488	10.84
320.699	10.42
320.911	10.5
321.123	10.81
321.334	11.44
321.546	11.39
321.757	11.5
321.969	11.9
322.18	12.61
322.392	11.64
322.603	11.38
322.815	10.72
323.026	10.76
323.238	10.16
323.449	10.44
323.661	10.11
323.872	9.78
324.083	9.8
324.295	9.13
324.506	7.82
324.718	8.08
324.929	7.96
325.14	7.79
325.352	8.38
325.563	8.59
325.774	8.81
325.986	8.96
326.197	9.54
326.408	9.57
326.62	10.34
326.831	10.83
327.042	10.18
327.253	10.49
327.464	11.2
327.676	11.04
327.887	10.94
328.098	10.67
328.309	10.32
328.52	10.22
328.732	10.32
328.943	10.31
329.154	10.61
329.365	11.02
329.576	11.08
329.787	10.34
329.998	10.88
330.209	11.45
330.42	12.01
330.631	11.74
330.842	11.89
331.053	11.67
331.264	10.76
331.475	10.55
331.686	11.03
331.897	11.13
332.108	11.41
332.319	10.82
332.53	10.53
332.741	10
332.952	10.61
333.163	10.61
333.374	10.83
333.585	10.75
333.795	10.79
334.006	10.79
334.217	11.14
334.428	10.98
334.639	11.16
334.849	11.54
335.06	11.46
335.271	10.64
335.482	9.93
335.692	10.19
335.903	9.91
336.114	9.72
336.325	9.51
336.535	9.47
336.746	9.77
336.957	10.01
337.167	10.52
337.378	10.51
337.589	11.29
337.799	11.41
338.01	11.26
338.22	11.74
338.431	11.97
338.642	12.27
338.852	12.05
339.063	11.65
339.273	11.48
339.484	10.66
339.694	10.63
339.905	10.53
340.115	10.67
340.326	10.45
340.536	10.51
340.746	10.12
340.957	9.55
341.167	9.5
341.378	9.63
341.588	9.47
341.799	9.57
342.009	9.4
342.219	8.79
342.43	9.02
342.64	9.2
342.85	8.56
343.061	8.49
343.271	8.57
343.481	8.68
343.691	9.07
343.902	9.29
344.112	9.28
344.322	9.69
344.532	10.21
344.743	9.9
344.953	9.84
345.163	10.11
345.373	10.59
345.583	10.63
345.793	10.15
346.004	9.22
346.214	9.17
346.424	9.23
346.634	8.86
346.844	8.84
347.054	8.86
347.264	9.23
347.474	9.92
347.684	9.63
347.894	9.96
348.104	10.71
348.314	11.24
348.524	10.62
348.734	10.68
348.944	10.81
349.154	10.81
349.364	10.96
349.574	10.17
349.784	9.98
349.994	10.1
350.204	9.59
350.413	9.13
350.623	9.1
350.833	9.41
351.043	9.17
351.253	8.67
351.463	8.61
351.672	8.7
351.882	9.25
352.092	8.69
352.302	9.16
352.511	9.71
352.721	9.52
352.931	9.48
353.141	9.44
353.35	9.55
353.56	9.99
353.77	9.65
353.979	9.23
354.189	8.97
354.399	9.31
354.608	9.15
354.818	8.87
355.027	9.1
355.237	9.08
355.447	8.9
355.656	8.73
355.866	8.36
356.075	8.39
356.285	8.46
356.494	8.53
356.704	8.33
356.913	8.06
357.123	7.63
357.332	7.15
357.542	7.36
357.751	7.64
357.96	8.14
358.17	8.59
358.379	8.89
358.589	9.33
358.798	9.1
359.007	8.74
359.217	8.77
359.426	9.12
359.635	9.39
359.845	9.15
360.054	9
360.263	8.54
360.472	8.17
360.682	8.09
360.891	7.64
361.1	7.82
361.309	8.44
361.519	8.28
361.728	8.26
361.937	8.44
362.146	8.15
362.355	8.24
362.564	8.27
362.774	8.72
362.983	8.34
363.192	8.4
363.401	7.97
363.61	7.84
363.819	8.03
364.028	8.14
364.237	7.19
364.446	7.48
364.655	7.28
364.864	7.66
365.073	7.53
365.282	7.6
365.491	7.84
365.7	8.51
365.909	8.37
366.118	8.12
366.327	7.95
366.536	8.67
366.745	8.53
366.954	8.55
367.162	8
367.371	7.92
367.58	8.07
367.789	7.94
367.998	7.44
368.207	7.28
368.415	7.44
368.624	7.49
368.833	7
369.042	7.18
369.25	7.44
369.459	7.79
369.668	7.52
369.877	7.66
370.085	7.82
370.294	7.74
370.503	7.36
370.711	7.2
370.92	7.17
371.129	7.58
371.337	7.17
371.546	6.84
371.754	6.48
371.963	6.31
372.171	5.93
372.38	5.81
372.589	6.03
372.797	6.39
373.006	6.65
373.214	6.68
373.423	6.32
373.631	6.39
373.84	6.25
374.048	6.1
374.256	6.17
374.465	6.46
374.673	6.23
374.882	5.93
375.09	5.82
375.298	5.59
375.507	5.63
375.715	5.97
375.923	6.22
376.132	6.08
376.34	6.09
376.548	5.91
376.757	5.76
376.965	5.6
377.173	5.99
377.381	6.34
377.59	6.59
377.798	6.4
378.006	6.24
378.214	6.44
378.423	6.67
378.631	6.8
378.839	7.16
379.047	7.2
379.255	7.19
379.463	7.03
379.671	6.72
379.879	6.7
380.088	6.75
380.296	6.69
380.504	6.44
380.712	6.19
380.92	6.25
381.128	6.13
381.336	5.72
381.544	5.61
381.752	5.35
381.96	5.2
382.168	5.15
382.376	5.1
382.584	4.78
382.791	4.9
382.999	5.05
383.207	4.87
383.415	4.83
383.623	5.23
383.831	5.38
384.039	5.53
384.247	5.44
384.454	5.09
384.662	4.84
384.87	5.01
385.078	4.63
385.285	4.66
385.493	4.56
385.701	4.66
385.909	4.5
386.116	4.45
386.324	4.31
386.532	4.56
386.739	4.82
386.947	4.86
387.155	4.95
387.362	5.2
387.57	5.39
387.778	5.57
387.985	5.43
388.193	5.35
388.4	5.32
388.608	5.31
388.816	5.19
389.023	4.84
389.231	4.77
389.438	4.59
389.646	4.66
389.853	4.3
390.061	4.17
390.268	4.24
390.475	4.29
390.683	4.47
390.89	4.58
391.098	4.55
391.305	4.79
391.512	4.76
391.72	4.9
391.927	4.71
392.135	4.84
392.342	5.05
392.549	4.98
392.756	5
392.964	4.73
393.171	4.77
393.378	4.8
393.586	4.82
393.793	4.9
394	4.76
394.207	4.92
394.414	4.95
394.622	4.98
394.829	4.91
395.036	4.77
395.243	4.9
395.45	4.69
395.657	4.59
395.864	4.58
396.072	4.63
396.279	4.61
396.486	4.47
396.693	4.31
396.9	4.03
397.107	3.88
397.314	3.9
397.521	3.82
397.728	3.92
397.935	3.89
398.142	3.75
398.349	3.72
398.556	3.64
398.763	3.57
398.97	3.38
399.177	3.53
399.383	3.58
399.59	3.69
399.797	3.71
400.004	3.75
400.211	3.73
400.418	3.86
400.625	3.81
400.831	4.04
401.038	4.13
401.245	4.36
401.452	4.09
401.658	4.28
401.865	4.12
402.072	4.14
402.279	4.02
402.485	3.97
402.692	3.83
402.899	3.77
403.105	3.67
403.312	3.55
403.519	3.56
403.725	3.75
403.932	3.69
404.138	3.8
404.345	3.76
404.552	3.65
404.758	3.84
404.965	3.92
405.171	3.8
405.378	3.86
405.584	3.93
405.791	3.92
405.997	3.89
406.204	3.74
406.41	3.7
406.617	3.61
406.823	3.77
407.029	3.66
407.236	3.68
407.442	3.74
407.649	3.68
407.855	3.71
408.061	3.79
408.268	3.84
408.474	3.92
408.68	3.91
408.887	4.05
409.093	4.09
409.299	4.15
409.505	4.11
409.712	4.11
409.918	3.99
410.124	4.02
410.33	3.94
410.537	3.81
410.743	3.78
410.949	3.87
411.155	3.81
411.361	3.66
411.567	3.62
411.773	3.57
411.98	3.64
412.186	3.77
412.392	3.54
412.598	3.53
412.804	3.58
413.01	3.64
413.216	3.48
413.422	3.39
413.628	3.44
413.834	3.35
414.04	3.44
414.246	3.5
414.452	3.43
414.658	3.46
414.864	3.48
415.07	3.48
415.275	3.44
415.481	3.42
415.687	3.41
415.893	3.36
416.099	3.3
416.305	3.22
416.511	3.16
416.716	3.2
416.922	3.23
417.128	3.16
417.334	3.23
417.539	3.2
417.745	3.23
417.951	3.22
418.157	3.21
418.362	3.29
418.568	3.32
418.774	3.33
418.979	3.29
419.185	3.33
419.391	3.39
419.596	3.33
419.802	3.39
420.008	3.37
420.213	2.98
420.419	3.09
420.624	3.09
420.83	3.11
421.035	3.08
421.241	3.17
421.446	3.17
421.652	3.14
421.857	3.14
422.063	3.08
422.268	3.13
422.474	3.53
422.679	3.51
422.885	3.45
423.09	3.38
423.295	3.41
423.501	3.35
423.706	3.33
423.911	3.28
424.117	3.25
424.322	3.24
424.527	3.18
424.733	3.13
424.938	3.02
425.143	2.99
425.349	3.06
425.554	3.06
425.759	3.16
425.964	3.19
426.169	3.29
426.375	3.3
426.58	3.31
426.785	3.37
426.99	3.5
427.195	3.52
427.4	3.53
427.605	3.46
427.811	3.49
428.016	3.32
428.221	3.35
428.426	3.39
428.631	3.48
428.836	3.42
429.041	3.31
429.246	3.2
429.451	3.28
429.656	3.33
429.861	3.39
430.066	3.27
430.271	3.33
430.476	3.3
430.681	3.23
430.886	3.14
431.09	3.21
431.295	3.3
431.5	3.42
431.705	3.33
431.91	3.4
432.115	3.32
432.32	3.41
432.524	3.39
432.729	3.31
432.934	3.32
433.139	3.3
433.343	3.38
433.548	3.35
433.753	3.35
433.958	3.42
434.162	3.42
434.367	3.41
434.572	3.26
434.776	3.23
434.981	3.21
435.186	3.07
435.39	3.14
435.595	3.08
435.799	3.04
436.004	2.99
436.209	2.95
436.413	2.92
436.618	2.87
436.822	2.95
437.027	2.87
437.231	2.99
437.436	3.04
437.64	3.04
437.845	2.99
438.049	2.94
438.253	2.96
438.458	3.05
438.662	3.04
438.867	3.09
439.071	3.09
439.275	3.09
439.48	3.02
439.684	3.1
439.888	3.08
440.093	3.13
440.297	3.18
440.501	3.2
440.706	3.23
440.91	3.22
441.114	3.18
441.318	3.19
441.523	3.29
441.727	3.29
441.931	3.22
442.135	3.28
442.339	3.28
442.543	3.35
442.748	3.27
442.952	3.16
443.156	3.13
443.36	3.15
443.564	3.19
443.768	3.1
443.972	3.1
444.176	3.11
444.38	3
444.584	2.95
444.788	2.89
444.992	2.87
445.196	2.86
445.4	2.84
445.604	2.89
445.808	2.94
446.012	2.97
446.216	3.04
446.42	2.98
446.624	3.08
446.828	3.15
447.032	3.2
447.235	3.23
447.439	3.17
447.643	3.15
447.847	3.13
448.051	3
448.254	3.03
448.458	2.9
448.662	2.94
448.866	2.87
449.069	2.78
449.273	2.7
449.477	2.65
449.681	2.79
449.884	2.86
450.088	2.85
450.292	2.85
450.495	2.83
450.699	2.93
450.902	2.99
451.106	2.99
451.31	3.03
451.513	3.06
451.717	3.12
451.92	3.04
452.124	2.87
452.327	2.91
452.531	2.91
452.734	2.83
452.938	2.77
453.141	2.63
453.345	2.6
453.548	2.59
453.752	2.59
453.955	2.63
454.158	2.69
454.362	2.79
454.565	2.81
454.769	2.81
454.972	2.94
455.175	3.05
455.379	3.16
455.582	3.14
455.785	3.14
455.988	3.15
456.192	3.03
456.395	2.96
456.598	2.94
456.801	2.9
457.005	2.95
457.208	2.98
457.411	2.9
457.614	2.87
457.817	2.9
458.021	2.93
458.224	2.96
458.427	3.08
458.63	3.07
458.833	3.18
459.036	3.16
459.239	3.09
459.442	3.03
459.645	3.11
459.848	3.14
460.051	3.22
460.254	3.2
460.457	3.2
460.66	3.17
460.863	3.22
461.066	3.09
461.269	3.18
461.472	3.19
461.675	3.24
461.878	3.23
462.081	3.2
462.284	3.07
462.486	3.12
462.689	3.09
462.892	3.1
463.095	3.09
463.298	3.16
463.5	3.06
463.703	3.08
463.906	3.11
464.109	3.07
464.311	3.08
464.514	3.12
464.717	3.13
464.92	3.08
465.122	2.9
465.325	2.94
465.528	2.86
465.73	2.99
465.933	2.96
466.135	2.83
466.338	2.84
466.541	2.92
466.743	2.97
466.946	2.95
467.148	3
467.351	3.15
467.553	3.07
467.756	3.24
467.958	3.19
468.161	3.28
468.363	3.37
468.566	3.33
468.768	3.22
468.971	3.18
469.173	3.14
469.375	3.09
469.578	3.05
469.78	3.09
469.983	3
470.185	2.94
470.387	3.09
470.59	3.02
470.792	3.06
470.994	3.17
471.196	3.24
471.399	3.27
471.601	3.32
471.803	3.3
472.005	3.32
472.208	3.35
472.41	3.31
472.612	3.26
472.814	3.3
473.016	3.28
473.218	3.17
473.421	3.05
473.623	2.99
473.825	2.95
474.027	2.84
474.229	2.82
474.431	2.75
474.633	2.75
474.835	2.72
475.037	2.73
475.239	2.68
475.441	2.72
475.643	2.78
475.845	2.78
476.047	2.83
476.249	2.96
476.451	3
476.653	3.02
476.855	3.1
477.057	3.07
477.258	3.04
477.46	3.05
477.662	3.07
477.864	3.1
478.066	3.15
478.268	3.06
478.469	3.12
478.671	3.14
478.873	3.07
479.075	2.99
479.276	3.04
479.478	3.05
479.68	3.09
479.882	3.09
480.083	3.05
480.285	3.05
480.487	3.06
480.688	3.08
480.89	3.03
481.091	3.04
481.293	3.01
481.495	2.94
481.696	2.99
481.898	2.94
482.099	2.93
482.301	2.94
482.502	2.94
482.704	2.94
482.905	2.9
483.107	2.91
483.308	2.92
483.51	2.91
483.711	2.92
483.913	2.88
484.114	2.89
484.315	2.88
484.517	2.89
484.718	2.88
484.92	2.89
485.121	2.84
485.322	2.86
485.524	2.87
485.725	2.94
485.926	2.99
486.127	3.01
486.329	3.04
486.53	3.02
486.731	3.02
486.932	3.03
487.134	3.05
487.335	3.11
487.536	3.1
487.737	3.12
487.938	3.05
488.139	2.99
488.341	3.01
488.542	3.01
488.743	2.99
488.944	2.95
489.145	2.94
489.346	2.88
489.547	2.87
489.748	2.87
489.949	2.84
490.15	2.86
490.351	2.88
490.552	2.85
490.753	2.84
490.954	2.86
491.155	2.89
491.356	2.9
491.557	2.91
491.758	2.92
491.959	2.93
492.159	2.96
492.36	3.01
492.561	3.01
492.762	3.05
492.963	3.06
493.164	3.14
493.364	3.13
493.565	3.11
493.766	3.05
493.967	3.07
494.167	3.09
494.368	3.12
494.569	3.09
494.769	3.14
494.97	3.13
495.171	3.18
495.371	3.15
495.572	3.12
495.773	3.17
495.973	3.25
496.174	3.2
496.375	3.19
496.575	3.15
496.776	3.12
496.976	3.08
497.177	3.05
497.377	2.99
497.578	3.01
497.778	3.01
497.979	2.97
498.179	2.94
498.38	3.04
498.58	3.04
498.78	3.06
498.981	3.11
499.181	3.15
499.382	3.24
499.582	3.22
499.782	3.2
499.983	3.25
500.183	3.27
500.383	3.33
500.584	3.28
500.784	3.23
500.984	3.25
501.184	3.23
501.385	3.25
501.585	3.15
501.785	3.13
501.985	3.19
502.185	3.15
502.386	3.19
502.586	3.2
502.786	3.19
502.986	3.13
503.186	3.18
503.386	3.11
503.586	3.04
503.786	3.11
503.987	3.19
504.187	3.23
504.387	3.27
504.587	3.21
504.787	3.19
504.987	3.19
505.187	3.23
505.387	3.17
505.587	3.37
505.786	3.49
505.986	3.53
506.186	3.54
506.386	3.45
506.586	3.44
506.786	3.45
506.986	3.49
507.186	3.51
507.386	3.54
507.585	3.54
507.785	3.5
507.985	3.48
508.185	3.49
508.384	3.51
508.584	3.57
508.784	3.54
508.984	3.56
509.183	3.54
509.383	3.56
509.583	3.61
509.782	3.68
509.982	3.61
510.182	3.57
510.381	3.58
510.581	3.58
510.781	3.64
510.98	3.67
511.18	3.66
511.379	3.69
511.579	3.67
511.778	3.71
511.978	3.64
512.177	3.69
512.377	3.76
512.576	3.72
512.776	3.73
512.975	3.73
513.175	3.83
513.374	3.9
513.573	3.92
513.773	4.03
513.972	4.01
514.172	4.07
514.371	4.09
514.57	4.09
514.77	4.23
514.969	4.17
515.168	4.17
515.367	4.14
515.567	4.16
515.766	4.12
515.965	4.08
516.164	4.1
516.364	4.12
516.563	4.1
516.762	4.09
516.961	4.03
517.16	4.15
517.359	4.15
517.559	4.17
517.758	4.14
517.957	4.15
518.156	4.21
518.355	4.21
518.554	4.2
518.753	4.26
518.952	4.34
519.151	4.39
519.35	4.33
519.549	4.39
519.748	4.45
519.947	4.51
520.146	4.59
520.345	4.56
520.544	4.58
520.743	4.67
520.942	4.64
521.141	4.54
521.339	4.57
521.538	4.61
521.737	4.57
521.936	4.53
522.135	4.53
522.333	4.51
522.532	4.48
522.731	4.44
522.93	4.45
523.129	4.51
523.327	4.63
523.526	4.55
523.725	4.49
523.923	4.43
524.122	4.42
524.321	4.38
524.519	4.38
524.718	4.43
524.917	4.5
525.115	4.49
525.314	4.49
525.512	4.47
525.711	4.5
525.909	4.53
526.108	4.57
526.306	4.62
526.505	4.64
526.703	4.61
526.902	4.61
527.1	4.62
527.299	4.61
527.497	4.61
527.696	4.63
527.894	4.64
528.092	4.67
528.291	4.69
528.489	4.68
528.688	4.69
528.886	4.77
529.084	4.79
529.283	4.78
529.481	4.81
529.679	4.88
529.877	4.88
530.076	4.89
530.274	4.92
530.472	4.93
530.67	4.97
530.869	4.96
531.067	4.97
531.265	4.94
531.463	4.98
531.661	5.02
531.859	4.94
532.057	4.97
532.255	5.04
532.454	5.02
532.652	5.05
532.85	5.06
533.048	5.12
533.246	5.11
533.444	5.16
533.642	5.19
533.84	5.19
534.038	5.25
534.236	5.25
534.434	5.17
534.632	5.25
534.83	5.21
535.027	5.18
535.225	5.17
535.423	5.21
535.621	5.28
535.819	5.26
536.017	5.21
536.215	5.18
536.412	5.25
536.61	5.26
536.808	5.2
537.006	5.26
537.203	5.27
537.401	5.26
537.599	5.27
537.797	5.21
537.994	5.33
538.192	5.44
538.39	5.47
538.587	5.47
538.785	5.58
538.983	5.63
539.18	5.69
539.378	5.72
539.575	5.76
539.773	5.76
539.97	5.81
540.168	5.79
540.366	5.83
540.563	5.87
540.761	5.89
540.958	5.86
541.155	5.89
541.353	5.9
541.55	5.94
541.748	5.95
541.945	5.98
542.143	5.97
542.34	5.99
542.537	5.98
542.735	6.07
542.932	6.13
543.129	6.14
543.327	6.19
543.524	6.22
543.721	6.26
543.919	6.34
544.116	6.4
544.313	6.48
544.51	6.48
544.708	6.5
544.905	6.44
545.102	6.44
545.299	6.49
545.496	6.45
545.693	6.42
545.891	6.42
546.088	6.37
546.285	6.36
546.482	6.3
546.679	6.39
546.876	6.48
547.073	6.46
547.27	6.48
547.467	6.5
547.664	6.54
547.861	6.61
548.058	6.68
548.255	6.74
548.452	6.78
548.649	6.8
548.846	6.83
549.043	6.73
549.24	6.83
549.437	6.89
549.633	6.95
549.83	7.06
550.027	7.11
550.224	7.15
550.421	7.24
550.618	7.28
550.814	7.41
551.011	7.4
551.208	7.44
551.405	7.5
551.601	7.49
551.798	7.53
551.995	7.6
552.191	7.59
552.388	7.54
552.585	7.55
552.781	7.63
552.978	7.64
553.175	7.66
553.371	7.76
553.568	7.71
553.764	7.8
553.961	7.85
554.157	7.81
554.354	7.89
554.55	8.05
554.747	8.13
554.943	8.15
555.14	8.11
555.336	8.24
555.533	8.23
555.729	8.37
555.926	8.38
556.122	8.41
556.318	8.46
556.515	8.45
556.711	8.41
556.907	8.39
557.104	8.41
557.3	8.54
557.496	8.52
557.693	8.61
557.889	8.66
558.085	8.67
558.281	8.71
558.478	8.85
558.674	8.9
558.87	8.91
559.066	9.06
559.262	9.02
559.459	8.96
559.655	8.97
559.851	8.9
560.047	8.85
560.243	8.88
560.439	8.91
560.635	8.76
560.831	8.73
561.027	8.76
561.223	8.65
561.419	8.78
561.615	8.85
561.811	8.88
562.007	9.09
562.203	9.25
562.399	9.3
562.595	9.3
562.791	9.54
562.987	9.59
563.183	9.71
563.379	9.71
563.575	9.72
563.771	9.79
563.966	9.89
564.162	9.86
564.358	9.8
564.554	9.82
564.75	9.83
564.945	9.75
565.141	9.81
565.337	9.84
565.533	9.94
565.728	9.96
565.924	9.9
566.12	9.87
566.315	9.94
566.511	9.98
566.707	10
566.902	10.1
567.098	10.17
567.293	10.17
567.489	10.16
567.684	10.15
567.88	10.24
568.076	10.37
568.271	10.43
568.467	10.4
568.662	10.46
568.858	10.45
569.053	10.45
569.248	10.4
569.444	10.46
569.639	10.52
569.835	10.67
570.03	10.62
570.225	10.62
570.421	10.6
570.616	10.61
570.812	10.56
571.007	10.64
571.202	10.75
571.397	10.83
571.593	10.84
571.788	10.87
571.983	10.83
572.178	10.79
572.374	10.86
572.569	10.94
572.764	10.98
572.959	11.04
573.154	11.08
573.35	10.96
573.545	10.99
573.74	10.94
573.935	10.98
574.13	10.89
574.325	11.01
574.52	11.13
574.715	11.15
574.91	11.2
575.105	11.24
575.3	11.31
575.495	11.54
575.69	11.65
575.885	11.8
576.08	11.89
576.275	12
576.47	12.01
576.665	11.96
576.86	12.08
577.055	12.07
577.25	12.07
577.444	12.15
577.639	12.08
577.834	12.11
578.029	12.23
578.224	12.12
578.418	12.21
578.613	12.28
578.808	12.31
579.003	12.25
579.197	12.24
579.392	12.3
579.587	12.4
579.781	12.44
579.976	12.4
580.171	12.36
580.365	12.45
580.56	12.63
580.755	12.69
580.949	12.8
581.144	12.88
581.338	12.97
581.533	12.94
581.727	12.85
581.922	12.85
582.116	12.91
582.311	13.01
582.505	13.17
582.7	13.11
582.894	13.19
583.089	13.11
583.283	13.11
583.478	13.2
583.672	13.33
583.866	13.42
584.061	13.44
584.255	13.45
584.449	13.47
584.644	13.31
584.838	13.32
585.032	13.19
585.226	13.18
585.421	13.29
585.615	13.22
585.809	13.2
586.003	13.26
586.198	13.28
586.392	13.3
586.586	13.29
586.78	13.35
586.974	13.35
587.168	13.39
587.363	13.39
587.557	13.32
587.751	13.49
587.945	13.68
588.139	13.55
588.333	13.55
588.527	13.51
588.721	13.41
588.915	13.28
589.109	13.32
589.303	13.3
589.497	13.33
589.691	13.33
589.885	13.32
590.079	13.36
590.273	13.37
590.466	13.48
590.66	13.44
590.854	13.48
591.048	13.54
591.242	13.65
591.436	13.81
591.629	13.82
591.823	13.91
592.017	13.74
592.211	13.58
592.404	13.55
592.598	13.42
592.792	13.52
592.986	13.5
593.179	13.63
593.373	13.45
593.567	13.51
593.76	13.56
593.954	13.49
594.147	13.49
594.341	13.47
594.535	13.64
594.728	13.56
594.922	13.65
595.115	13.63
595.309	13.65
595.502	13.78
595.696	13.82
595.889	13.83
596.083	13.88
596.276	14.02
596.47	14.07
596.663	13.92
596.856	14.08
597.05	14.07
597.243	14.36
597.437	14.38
597.63	14.37
597.823	14.35
598.017	14.38
598.21	14.54
598.403	14.62
598.596	14.75
598.79	15
598.983	15.06
599.176	15.27
599.369	15.19
599.563	15.27
599.756	15.34
599.949	15.31
600.142	15.32
600.335	15.34
600.528	15.29
600.722	15.19
600.915	15.24
601.108	15.22
601.301	15.04
601.494	14.94
601.687	14.94
601.88	14.85
602.073	14.83
602.266	14.69
602.459	14.57
602.652	14.53
602.845	14.58
603.038	14.4
603.231	14.4
603.424	14.45
603.617	14.53
603.809	14.45
604.002	14.51
604.195	14.62
604.388	14.79
604.581	14.81
604.774	14.85
604.966	14.79
605.159	14.98
605.352	15.04
605.545	14.99
605.737	15.08
605.93	15.08
606.123	15.11
606.316	15
606.508	15.05
606.701	15.08
606.894	15.07
607.086	15.18
607.279	15
607.471	15.09
607.664	15.17
607.857	15.09
608.049	15.17
608.242	15.09
608.434	15.16
608.627	15.11
608.819	15.11
609.012	15.16
609.204	15.07
609.397	15.13
609.589	15.03
609.782	15.19
609.974	15.13
610.166	15.17
610.359	15.3
610.551	15.34
610.743	15.31
610.936	15.47
611.128	15.56
611.32	15.75
611.513	16.08
611.705	16.02
611.897	15.84
612.09	16.05
612.282	16.09
612.474	16.16
612.666	16.13
612.858	16.2
613.051	16.16
613.243	16.14
613.435	16.22
613.627	16.12
613.819	16.17
614.011	16.25
614.203	16.24
614.395	16.21
614.588	16.1
614.78	16.11
614.972	16.11
615.164	16.09
615.356	15.85
615.548	15.75
615.74	15.62
615.932	15.64
616.124	15.65
616.315	15.69
616.507	15.8
616.699	15.95
616.891	15.86
617.083	16
617.275	16.12
617.467	16.36
617.659	16.4
617.85	16.43
618.042	16.53
618.234	16.54
618.426	16.47
618.618	16.41
618.809	16.38
619.001	16.47
619.193	16.48
619.384	16.36
619.576	16.32
619.768	16.16
619.959	16.02
620.151	16.25
620.343	16.27
620.534	16.22
620.726	16.26
620.917	16.35
621.109	16.41
621.301	16.38
621.492	16.57
621.684	16.64
621.875	16.75
622.067	16.94
622.258	16.63
622.45	16.43
622.641	16.67
622.832	16.56
623.024	16.52
623.215	16.61
623.407	16.52
623.598	16.35
623.789	16.49
623.981	16.68
624.172	16.71
624.363	16.8
624.555	16.92
624.746	16.74
624.937	16.82
625.129	16.74
625.32	16.59
625.511	16.74
625.702	16.62
625.893	16.36
626.085	16.16
626.276	16.22
626.467	16.12
626.658	16.17
626.849	16.19
627.04	16.21
627.231	16.13
627.422	16.13
627.614	16.17
627.805	16.34
627.996	16.41
628.187	16.42
628.378	16.34
628.569	16.72
628.76	16.71
628.951	16.79
629.142	16.82
629.332	16.94
629.523	17.04
629.714	16.92
629.905	16.99
630.096	17.14
630.287	17.33
630.478	17.46
630.669	17.19
630.859	17.23
631.05	17.13
631.241	17.07
631.432	17.09
631.623	17.1
631.813	17.17
632.004	17.13
632.195	17.06
632.385	17.08
632.576	17.04
632.767	17.07
632.957	17.06
633.148	17.15
633.339	17.21
633.529	17.19
633.72	17.11
633.91	17.14
634.101	17.14
634.292	17.25
634.482	17.3
634.673	17.24
634.863	17.44
635.054	17.57
635.244	17.63
635.435	17.58
635.625	17.6
635.815	17.65
636.006	17.64
636.196	17.59
636.387	17.56
636.577	17.42
636.767	17.48
636.958	17.47
637.148	17.41
637.338	17.33
637.529	17.3
637.719	17.45
637.909	17.67
638.099	17.76
638.29	17.9
638.48	17.86
638.67	17.98
638.86	18.04
639.05	17.73
639.241	17.74
639.431	17.88
639.621	17.93
639.811	17.92
640.001	17.69
640.191	17.76
640.381	17.71
640.571	17.83
640.761	17.79
640.951	17.8
641.141	17.95
641.331	17.7
641.521	17.53
641.711	17.74
641.901	17.85
642.091	18.13
642.281	18.06
642.471	18.03
642.661	18.02
642.851	18.04
643.041	18.15
643.231	18.46
643.42	18.64
643.61	18.85
643.8	18.7
643.99	18.68
644.18	18.35
644.369	18.28
644.559	18.34
644.749	18.23
644.939	18.16
645.128	18.1
645.318	17.94
645.508	17.9
645.697	17.81
645.887	17.97
646.076	17.84
646.266	17.99
646.456	18.28
646.645	18.34
646.835	18.33
647.024	18.57
647.214	18.58
647.403	18.35
647.593	18.52
647.782	18.42
647.972	18.35
648.161	18.3
648.351	18.42
648.54	18.03
648.73	17.84
648.919	18.03
649.108	17.89
649.298	18.01
649.487	18.16
649.677	18.13
649.866	18.16
650.055	18.02
650.244	18.14
650.434	18.13
650.623	18.29
650.812	18.6
651.002	18.47
651.191	18.46
651.38	18.28
651.569	18.3
651.758	18.4
651.947	18.63
652.137	18.84
652.326	18.85
652.515	18.71
652.704	18.68
652.893	18.63
653.082	18.76
653.271	18.78
653.46	18.92
653.649	18.89
653.838	18.8
654.027	18.51
654.216	18.25
654.405	18.31
654.594	18.48
654.783	18.61
654.972	18.64
655.161	18.77
655.35	18.72
655.539	18.85
655.728	18.9
655.916	19.15
656.105	19.2
656.294	19.32
656.483	19.05
656.672	18.98
656.86	18.89
657.049	18.77
657.238	18.74
657.427	18.87
657.615	18.8
657.804	18.71
657.993	18.47
658.181	18.52
658.37	18.65
658.559	18.73
658.747	18.78
658.936	18.78
659.125	18.7
659.313	18.59
659.502	18.73
659.69	18.63
659.879	18.77
660.067	18.8
660.256	18.8
660.444	18.85
660.633	19.22
660.821	19.38
661.01	19.38
661.198	19.45
661.387	19.58
661.575	19.33
661.763	19.47
661.952	19.51
662.14	19.73
662.328	19.67
662.517	19.61
662.705	19.18
662.893	19.06
663.082	19.2
663.27	19.46
663.458	19.61
663.646	19.7
663.834	19.62
664.023	19.79
664.211	19.69
664.399	19.93
664.587	20.03
664.775	20.23
664.963	20.47
665.152	20.34
665.34	20.36
665.528	20.1
665.716	20.25
665.904	20.5
666.092	20.27
666.28	20.32
666.468	20.2
666.656	20.08
666.844	20.25
667.032	20.13
667.22	20.46
667.408	20.46
667.596	20.53
667.784	20.37
667.971	20.37
668.159	20.42
668.347	20.46
668.535	20.4
668.723	20.66
668.911	20.67
669.098	20.37
669.286	20.36
669.474	20.14
669.662	20.32
669.849	20.27
670.037	20.19
670.225	20.41
670.413	20.53
670.6	20.49
670.788	20.25
670.976	20.26
671.163	20.51
671.351	20.31
671.538	20.6
671.726	20.39
671.913	20.43
672.101	20.39
672.289	20.25
672.476	20.1
672.664	20.3
672.851	20.49
673.039	20.26
673.226	20.39
673.413	20.41
673.601	20.22
673.788	20.69
673.976	21.09
674.163	21.12
674.35	21.26
674.538	21.4
674.725	21.47
674.912	21.37
675.1	21.52
675.287	21.46
675.474	21.41
675.662	21.38
675.849	21.08
676.036	20.94
676.223	20.7
676.411	20.59
676.598	20.4
676.785	20.51
676.972	20.54
677.159	20.6
677.346	20.45
677.533	20.65
677.721	20.77
677.908	20.61
678.095	20.47
678.282	20.69
678.469	20.69
678.656	20.77
678.843	20.69
679.03	20.49
679.217	20.57
679.404	20.61
679.591	20.53
679.778	20.61
679.964	20.79
680.151	20.76
680.338	20.76
680.525	20.76
680.712	20.83
680.899	20.77
681.086	20.98
681.272	20.92
681.459	20.94
681.646	20.74
681.833	20.83
682.02	20.75
682.206	21.09
682.393	21.16
682.58	21.2
682.766	21.02
682.953	21.12
683.14	20.99
683.326	21.19
683.513	21.39
683.7	21.39
683.886	21.45
684.073	21.45
684.259	21.07
684.446	20.85
684.632	20.79
684.819	20.8
685.005	20.77
685.192	20.72
685.378	20.38
685.565	20.42
685.751	20.29
685.938	20.01
686.124	20.12
686.31	20.1
686.497	20.3
686.683	20.45
686.87	20.5
687.056	20.37
687.242	20.51
687.429	20.84
687.615	20.82
687.801	20.87
687.987	20.66
688.174	20.6
688.36	20.61
688.546	20.67
688.732	20.64
688.918	20.93
689.105	20.87
689.291	21.04
689.477	20.57
689.663	20.3
689.849	20.52
690.035	20.86
690.221	20.66
690.407	20.81
690.593	20.54
690.779	20.67
690.965	20.34
691.151	20.48
691.337	20.46
691.523	20.97
691.709	21.02
691.895	21.13
692.081	21.38
692.267	21.54
692.453	21.64
692.639	21.97
692.825	21.89
693.011	22.16
693.196	22.44
693.382	22.23
693.568	21.96
693.754	22.33
693.94	22.44
694.125	22.02
694.311	22.22
694.497	22.07
694.682	21.92
694.868	21.77
695.054	21.43
695.239	21.4
695.425	21.53
695.611	21.79
695.796	21.57
695.982	21.32
696.168	21.41
696.353	21.4
696.539	21.44
696.724	21.18
696.91	21.12
697.095	21.29
697.281	21.07
697.466	21.15
697.652	21.02
697.837	20.9
698.023	21.01
698.208	20.66
698.393	20.62
698.579	20.66
698.764	20.9
698.949	20.93
699.135	20.91
699.32	21.14
699.505	20.92
699.691	20.73
699.876	20.81
700.061	21.08
700.246	21.72
700.432	21.85
700.617	21.88
700.802	21.99
700.987	22.12
701.172	22.31
701.358	22.04
701.543	22.45
701.728	22.61
701.913	22.38
702.098	22.29
702.283	22.59
702.468	22.6
702.653	22.74
702.838	22.65
703.023	22.84
703.208	22.82
703.393	23.07
703.578	22.9
703.763	23.35
703.948	23.86
704.133	24
704.318	23.37
704.503	23.58
704.688	23.19
704.873	23.28
705.057	23.12
705.242	22.98
705.427	23.16
705.612	23.32
705.797	23.12
705.981	23.25
706.166	23.36
706.351	23.45
706.536	23.09
706.72	23.58
706.905	23.45
707.09	23.7
707.274	23.9
707.459	23.89
707.644	23.58
707.828	23.34
708.013	23.54
708.197	23.26
708.382	23.35
708.567	23.68
708.751	23.48
708.936	23.75
709.12	23.74
709.305	23.67
709.489	23.66
709.673	23.97
709.858	24.2
710.042	23.83
710.227	23.57
710.411	23.64
710.596	23.57
710.78	23.35
710.964	22.99
711.149	23.02
711.333	22.95
711.517	22.69
711.702	22.7
711.886	22.85
712.07	22.97
712.254	23.16
712.438	23.2
712.623	22.98
712.807	23.18
712.991	23.44
713.175	23.76
713.359	23.69
713.544	23.69
713.728	23.48
713.912	23.23
714.096	23.11
714.28	22.88
714.464	22.6
714.648	22.84
714.832	22.7
715.016	22.32
715.2	21.75
715.384	21.6
715.568	22.02
715.752	21.91
715.936	21.85
716.12	21.72
716.304	22.11
716.488	22.32
716.671	22
716.855	22.35
717.039	22.76
717.223	22.76
717.407	22.98
717.59	22.92
717.774	23.1
717.958	23.22
718.142	23.16
718.325	23.21
718.509	23.34
718.693	23.43
718.877	23.17
719.06	23.43
719.244	23.6
719.428	23.71
719.611	23.41
719.795	23.42
719.978	23.17
720.162	23.66
720.345	23.38
720.529	23.6
720.713	23.85
720.896	23.82
721.08	23.4
721.263	23.48
721.446	23.35
721.63	23.64
721.813	23.74
721.997	23.96
722.18	23.69
722.364	23.71
722.547	23.35
722.73	22.76
722.914	23.17
723.097	23.51
723.28	23.31
723.464	23.28
723.647	23.12
723.83	22.83
724.013	23.03
724.197	23.16
724.38	23.2
724.563	23.11
724.746	24.15
724.929	23.93
725.112	23.76
725.296	24.17
725.479	24
725.662	24.23
725.845	24.25
726.028	23.77
726.211	23.94
726.394	23.94
726.577	24.27
726.76	23.03
726.943	22.76
727.126	22.73
727.309	22.29
727.492	22.58
727.675	21.97
727.858	21.99
728.041	22.56
728.224	22.64
728.407	22.66
728.589	22.29
728.772	23.39
728.955	23.53
729.138	23.29
729.321	23.47
729.503	23.58
729.686	24.04
729.869	24.18
730.052	23.93
730.234	23.83
730.417	23.81
730.6	24.14
730.782	23.65
730.965	23.72
731.148	24.04
731.33	24.23
731.513	23.79
731.695	23.93
731.878	24.17
732.061	24.25
732.243	24.36
732.426	24.56
732.608	24.48
732.791	24.63
732.973	24.52
733.156	24.33
733.338	24.5
733.52	25.44
733.703	25.22
733.885	24.93
734.068	25.14
734.25	24.95
734.432	25.33
734.615	25.71
734.797	25.95
734.979	26.16
735.162	26.31
735.344	26.28
735.526	25.92
735.708	25.98
735.891	26.61
736.073	26.69
736.255	27.04
736.437	26.43
736.619	25.8
736.802	25.01
736.984	25.41
737.166	25.61
737.348	25.27
737.53	25.37
737.712	25.1
737.894	24.6
738.076	24.83
738.258	24.9
738.44	25.57
738.622	26.21
738.804	27.38
738.986	27.42
739.168	27.01
739.35	27.32
739.532	27.38
739.714	27.71
739.896	28.29
740.078	28.08
740.259	28
740.441	27.64
740.623	27.49
740.805	26.91
740.987	27.18
741.168	27.79
741.35	27.91
741.532	28.12
741.714	28.28
741.895	28.1
742.077	28.4
742.259	28.52
742.44	28.19
742.622	27.58
742.804	27.92
742.985	27.31
743.167	27.72
743.348	27.85
743.53	27.18
743.711	27.46
743.893	27.5
744.075	27.18
744.256	26.78
744.438	27.6
744.619	28.22
744.8	28.39
744.982	28.45
745.163	28.12
745.345	27.76
745.526	28.19
745.707	28.55
745.889	28.37
746.07	28.36
746.252	29.06
746.433	28.47
746.614	28.43
746.795	27.97
746.977	28.79
747.158	28.2
747.339	28.06
747.52	28.41
747.702	27.96
747.883	28.41
748.064	28.17
748.245	27.68
748.426	27.65
748.607	27.91
748.788	27.91
748.97	27.58
749.151	28.05
749.332	28.31
749.513	27.8
749.694	27.81
749.875	27.79
750.056	28.63
750.237	28.81
750.418	29.33
750.599	29.28
750.78	30.16
750.96	30.11
751.141	29.59
751.322	29.43
751.503	29.75
751.684	30.2
751.865	29.7
752.046	29.09
752.226	29.06
752.407	29.26
752.588	29.32
752.769	28.46
752.949	27.93
753.13	29.18
753.311	29.53
753.492	29.72
753.672	28.6
753.853	29.21
754.034	29.08
754.214	29.57
754.395	28.82
754.575	29.57
754.756	29.46
754.937	29.98
755.117	28.47
755.298	28.03
755.478	27.97
755.659	28.53
755.839	28.17
756.02	28.81
756.2	28.63
756.381	28.76
756.561	27.62
756.741	27.9
756.922	27.99
757.102	28.96
757.283	29.33
757.463	28.81
757.643	27.79
757.823	27.35
758.004	26.77
758.184	25.94
758.364	25.84
758.545	26.24
758.725	26.06
758.905	25.53
759.085	25.39
759.265	24.83
759.446	24.63
759.626	25.16
759.806	25.3
759.986	25.74
760.166	26.35
760.346	26.11
760.526	25.92
760.706	25.22
760.886	25.45
761.066	25.49
761.246	25.67
761.426	25.81
761.606	25.82
761.786	25.54
761.966	25.22
762.146	24.77
762.326	24.7
762.506	24.39
762.686	25.24
762.866	25.09
763.046	24.75
763.225	24.8
763.405	24.92
763.585	25.11
763.765	25.06
763.945	25.21
764.124	25.64
764.304	25.83
764.484	26.55
764.664	25.97
764.843	25.8
765.023	25.87
765.203	26.26
765.382	26.2
765.562	26.35
765.741	26.63
765.921	26.97
766.101	26.73
766.28	27.23
766.46	27.03
766.639	27.32
766.819	27.78
766.998	28.17
767.178	27.93
767.357	28.25
767.537	27.96
767.716	28.17
767.896	28.07
768.075	28.63
768.254	28.57
768.434	28.45
768.613	29.12
768.792	29.73
768.972	30.16
769.151	30.71
769.33	31.03
769.51	31.79
769.689	32.03
769.868	32.15
770.047	32.26
770.226	32.5
770.406	32.6
770.585	31.95
770.764	31.29
770.943	31.89
771.122	31.79
771.301	32.01
771.48	32.52
771.66	33.63
771.839	33.27
772.018	33.18
772.197	33.49
772.376	33.74
772.555	34.63
772.734	35.03
772.913	34.58
773.092	34.79
773.271	34.36
773.449	34.17
773.628	33.29
773.807	32.9
773.986	33.24
774.165	32.96
774.344	33.14
774.523	32.82
774.701	32.82
774.88	33.23
775.059	33.04
775.238	33.09
775.417	33.85
775.595	34
775.774	34.45
775.953	32.96
776.131	33.29
776.31	32.62
776.489	31.96
776.667	31.68
776.846	31.11
777.025	30.75
777.203	30.39
777.382	29.21
777.56	28.78
777.739	28.89
777.917	30.13
778.096	30
778.274	29.92
778.453	30.49
778.631	30.71
778.81	30.78
778.988	30.81
779.166	31.05
779.345	30.98
779.523	30.66
779.702	30.27
779.88	30.02
780.058	30.27
780.237	31.13
780.415	30.9
780.593	31.42
780.771	31.62
780.95	32.25
781.128	31.69
781.306	30.98
781.484	31.98
781.662	32.36
781.841	32.56
782.019	32.1
782.197	31.19
782.375	32.51
782.553	32.47
782.731	31.99
782.909	31.64
783.087	32.72
783.265	33.19
783.443	32.55
783.621	32.97
783.799	33.63
783.977	33.58
784.155	33.64
784.333	33.07
784.511	32.16
784.689	32.71
784.867	32.79
785.045	32.29
785.223	32.53
785.4	32.57
785.578	32.62
785.756	32.64
785.934	33.77
786.112	34.27
786.289	32.83
786.467	32.99
786.645	33.13
786.823	33.01
787	32.93
787.178	32.82
787.356	32.66
787.533	31.96
787.711	31.2
787.889	29.98
788.066	30.09
788.244	31.01
788.421	30.73
788.599	30.27
788.776	30.53
788.954	31.26
789.131	31.17
789.309	31.1
789.486	31.61
789.664	31.41
789.841	31.18
790.019	31.64
790.196	30.76
790.373	31.14
790.551	31.58
790.728	30.88
790.906	30.26
791.083	31.23
791.26	32.54
791.437	32.48
791.615	32.47
791.792	32.46
791.969	32.16
792.146	33.19
792.324	32.93
792.501	32
792.678	32.48
792.855	32.71
793.032	31.37
793.209	29.53
793.387	29.43
793.564	29.27
793.741	29.28
793.918	28.73
794.095	28.76
794.272	28.83
794.449	29.91
794.626	30.32
794.803	30.37
794.98	30.34
795.157	30.76
795.334	30.9
795.511	31.61
795.688	32.33
795.864	32.04
796.041	32.07
796.218	32.9
796.395	32.38
796.572	32.32
796.749	32.79
796.925	33.85
797.102	34.87
797.279	34.26
797.456	34.26
797.632	33.4
797.809	34.1
797.986	33.73
798.162	33.17
798.339	32.87
798.516	32.92
798.692	31.78
798.869	31.61
799.046	30.6
799.222	31.21
799.399	31.09
799.575	32.23
799.752	31.76
799.928	32.59
800.105	32.43
800.281	33.03
800.458	33.05
800.634	33.76
800.811	33.22
800.987	34.18
801.163	33.71
801.34	33.03
801.516	32.95
801.692	33.83
801.869	33.22
802.045	32.52
802.221	32.28
802.398	31.84
802.574	31.72
802.75	32.18
802.926	31.72
803.103	31.72
803.279	31.53
803.455	30.37
803.631	30.26
803.807	30.63
803.983	32.03
804.16	31.92
804.336	32.31
804.512	32.56
804.688	32.53
804.864	32.39
805.04	32.57
805.216	33.64
805.392	35.08
805.568	34.88
805.744	34.74
805.92	34.26
806.096	34.9
806.272	34.28
806.448	34.56
806.623	34.96
806.799	35.06
806.975	34.53
807.151	35.82
807.327	35.74
807.503	35.12
807.678	34.4
807.854	34.82
808.03	35.19
808.206	35.83
808.381	36.11
808.557	35.06
808.733	34.66
808.908	35.85
809.084	33.47
809.26	32.65
809.435	32.43
809.611	32.56
809.787	32.33
809.962	31.13
810.138	31.44
810.313	29.94
810.489	30.82
810.664	30.14
810.84	29.65
811.015	32.2
811.191	33.79
811.366	36.05
811.542	36.36
811.717	36.62
811.892	37.42
812.068	36.34
812.243	37.12
812.419	37.2
812.594	38.34
812.769	39.36
812.944	38.45
813.12	36.74
813.295	35.5
813.47	34.5
813.645	34.44
813.821	33.78
813.996	34.7
814.171	34.39
814.346	34.14
814.521	34.64
814.697	33.72
814.872	32.97
815.047	32.73
815.222	32.53
815.397	34.01
815.572	34.04
815.747	32.89
815.922	32.75
816.097	32.26
816.272	32.89
816.447	32.53
816.622	31.88
816.797	32.1
816.972	31.73
817.147	32.27
817.322	31.45
817.496	32.04
817.671	33.86
817.846	33.49
818.021	33.94
818.196	33.09
818.371	32.4
818.545	32.99
818.72	32.88
818.895	33.66
819.069	31.82
819.244	31.86
819.419	30.6
819.594	29.1
819.768	28.19
819.943	28.52
820.117	27.82
820.292	28.67
820.467	27.79
820.641	27.25
820.816	26.81
820.99	26.62
821.165	26.75
821.339	26.81
821.514	26.87
821.688	27.01
821.863	26.63
822.037	26.58
822.212	25.93
822.386	25.72
822.56	25.85
822.735	25.93
822.909	25.81
823.084	25.67
823.258	25.53
823.432	25.51
823.606	25.52
823.781	25.61
823.955	25.28
824.129	25.42
824.303	25.84
824.478	25.61
824.652	25.28
824.826	25.7
825	25.74
825.174	25.75
825.348	25.69
825.523	25.6
825.697	25.39
825.871	25.88
826.045	25.98
826.219	26.17
826.393	26.19
826.567	26.44
826.741	26.8
826.915	27.11
827.089	27.1
827.263	27.21
827.437	27.49
827.611	27.9
827.784	28.11
827.958	27.75
828.132	27.17
828.306	26.97
828.48	27.44
828.654	27.5
828.827	26.99
829.001	27.73
829.175	27.79
829.349	27.73
829.522	27.29
829.696	27.07
829.87	27.69
830.044	28.78
830.217	29.27
830.391	28.83
830.565	27.55
830.738	28.72
830.912	28.25
831.085	27.91
831.259	27.83
831.432	28.24
831.606	28.66
831.779	29.68
831.953	29.78
832.126	29.44
832.3	28.86
832.473	30.55
832.647	29.52
832.82	29.46
832.994	29.66
833.167	29.42
833.34	29.62
833.514	30.18
833.687	29.92
833.86	29.42
834.034	30.22
834.207	30.63
834.38	30.34
834.553	30.11
834.727	29.26
834.9	29.07
835.073	29.06
835.246	28.51
835.419	27.63
835.593	27.54
835.766	27.8
835.939	27.8
836.112	27.64
836.285	27.51
836.458	27.88
836.631	29.16
836.804	29.5
836.977	30.1
837.15	31.72
837.323	32.66
837.496	31.81
837.669	32.5
837.842	33
838.015	34.45
838.188	34.48
838.361	35.18
838.533	36.21
838.706	38.25
838.879	36.78
839.052	35.19
839.225	35.16
839.398	37.3
839.57	37.92
839.743	36.7
839.916	35.85
840.088	36.18
840.261	35.43
840.434	35.37
840.607	34.26
840.779	36.27
840.952	37.75
841.124	38.1
841.297	36.59
841.47	35.97
841.642	35.45
841.815	37.83
841.987	38.01
842.16	38.26
842.332	39.58
842.505	40.82
842.677	41.36
842.85	41.76
843.022	42.81
843.194	44.68
843.367	45.7
843.539	50.69
843.712	47.51
843.884	47.68
844.056	49.18
844.229	47.07
844.401	46.18
844.573	42.39
844.745	40.94
844.918	40.67
845.09	40.18
845.262	40.78
845.434	36.78
845.606	36.77
845.779	36.4
845.951	37.11
846.123	41.57
846.295	44.05
846.467	48.18
846.639	48.41
846.811	46.78
846.983	48.9
847.155	47.54
847.327	44.16
847.499	47.03
847.671	46.96
847.843	46.03
848.015	42.27
848.187	40.11
848.359	38.76
848.531	39.84
848.703	41.4
848.875	40.21
849.047	40.83
849.218	44.73
849.39	42.97
849.562	39.28
849.734	40.77
849.905	40.95
850.077	43.43
850.249	42.3
850.421	42.34
850.592	43.04
850.764	42.58
850.936	43.22
851.107	43.89
851.279	49.19
851.451	51.97
851.622	53.61
851.794	53
851.965	50.93
852.137	50.18
852.308	48.77
852.48	47.42
852.651	47.82
852.823	49.27
852.994	47.99
853.166	45.06
853.337	47.09
853.509	48.25
853.68	50.98
853.851	54.91
854.023	58.2
854.194	61.23
854.365	62.87
854.537	61.16
854.708	65.6
854.879	65.62
855.05	67.54
855.222	63.98
855.393	64.27
855.564	59.43
855.735	57.22
855.906	55.13
856.078	51.58
856.249	51.43
856.42	53.57
856.591	46.54
856.762	46.59
856.933	45.63
857.104	45.8
857.275	48.32
857.446	52.1
857.617	51.54
857.788	48.94
857.959	51.51
858.13	50.33
858.301	49.33
858.472	47.52
858.643	49.18
858.814	51.18
858.985	55.03
859.155	46.58
859.326	51.3
859.497	48.88
859.668	53.22
859.839	52.77
860.009	50.05
860.18	49.8
860.351	52.04
860.522	52.24
860.692	43.6
860.863	41.52
861.034	48.81
861.204	42.84
861.375	42.75
861.546	43.56
861.716	44.19
861.887	47.96
862.057	45.03
862.228	46.82
862.398	45.73
862.569	54.6
862.739	60
862.91	51.31
863.08	53.59
863.251	59.66
863.421	61.31
863.592	60.09
863.762	56.94
863.932	57.52
864.103	55.23
864.273	57.83
864.443	52.71
864.614	48.08
864.784	51.13
864.954	52.73
865.125	49.16
865.295	43.95
865.465	42.85
865.635	43.77
865.805	45.66
865.976	48.79
866.146	45.26
866.316	53.02
866.486	53.01
866.656	51.4
866.826	44.8
866.996	43.97
867.166	45.75
867.336	45.5
867.506	47.82
867.676	47.39
867.846	41.82
868.016	44.75
868.186	40.05
868.356	34.72
868.526	35.85
868.696	37.08
868.866	38.49
869.036	39.61
869.206	41.22
869.376	41.75
869.545	43.05
869.715	46.51
869.885	41.15
870.055	37.11
870.224	45.27
870.394	45.15
870.564	54.29
870.734	53.43
870.903	46.88
871.073	44.66
871.243	45.81
871.412	47.55
871.582	50.82
871.751	49.49
871.921	60.19
872.091	57.06
872.26	56.25
872.43	45.26
872.599	43.23
872.769	48.38
872.938	48.11
873.108	45.84
873.277	47.98
873.446	44.49
873.616	49.15
873.785	45.23
873.955	40.84
874.124	42.53
874.293	45.83
874.463	49.56
874.632	45.34
874.801	48.01
874.971	45.22
875.14	43.15
875.309	40.85
875.478	39.07
875.647	39.12
875.817	42.28
875.986	41.74
876.155	40.7
876.324	39.94
876.493	43.48
876.662	42.96
876.831	43.99
877	41.79
877.17	43.79
877.339	44.36
877.508	41.06
877.677	40.57
877.846	38.45
878.015	40.16
878.184	38.88
878.352	37.26
878.521	33.38
878.69	33.97
878.859	37.04
879.028	36.14
879.197	36.16
879.366	38.2
879.534	37.45
879.703	37.34
879.872	35.39
880.041	34.95
880.21	33.99
880.378	35.15
880.547	34.44
880.716	32.32
880.884	32.4
881.053	31.43
881.222	30.7
881.39	30.71
881.559	31.36
881.727	30.98
881.896	30.43
882.065	31.42
882.233	31.14
882.402	29.97
882.57	30.42
882.739	30.84
882.907	31.66
883.076	32.06
883.244	31.54
883.412	31.04
883.581	31.39
883.749	30.92
883.918	30.45
884.086	30.9
884.254	33.19
884.423	33.26
884.591	33.05
884.759	33.61
884.927	32.87
885.096	34.35
885.264	35.97
885.432	37.72
885.6	39.07
885.769	39.58
885.937	39.11
886.105	38.52
886.273	37.5
886.441	37.37
886.609	34.23
886.777	35.45
886.945	35.97
887.113	33.98
887.281	31.66
887.449	33.33
887.617	32.92
887.785	33.3
887.953	32.6
888.121	33.87
888.289	35.7
888.457	39.29
888.625	36.94
888.793	38.46
888.961	37
889.129	39.66
889.296	38.32
889.464	38.72
889.632	40.26
889.8	42.66
889.967	44.8
890.135	41.95
