Data from 2938440_Reflection_2.txt Node
Date: Fri Jun 19 18:24:23 EDT 2015
User: robert
Spectrometer: USB4E03002
Autoset integration time: false
Trigger mode: 4
Integration Time (sec): 1.000000E-1
Scans to average: 10
Electric dark correction enabled: true
Nonlinearity correction enabled: false
Boxcar width: 5
Stray light correction enabled: false
XAxis mode: Wavelengths
Stop averaging: false
Number of Pixels in Spectrum: 3648
>>>>>Begin Spectral Data<<<<<
177.575	76.55
177.794	77.67
178.014	64.07
178.233	66.83
178.452	65.94
178.672	58.49
178.891	45.85
179.11	76.77
179.33	61.03
179.549	69.86
179.768	76.75
179.987	71.38
180.207	93.67
180.426	70.86
180.645	67.13
180.864	73.16
181.084	74.9
181.303	85.48
181.522	93.2
181.741	83.99
181.96	73.84
182.179	61.6
182.398	59.21
182.618	49.56
182.837	52.4
183.056	59.45
183.275	57.63
183.494	50.55
183.713	42.4
183.932	20.62
184.151	8.05
184.37	4.91
184.589	19.76
184.808	16.76
185.027	8.72
185.246	12.78
185.465	3.03
185.684	-11.96
185.903	-1.79
186.122	2.48
186.341	19.17
186.56	44.13
186.779	37.13
186.998	31.16
187.216	35.34
187.435	34.36
187.654	41.89
187.873	48.17
188.092	49.62
188.311	51.51
188.53	52.68
188.748	41.25
188.967	36.5
189.186	46.73
189.405	56.34
189.623	60.48
189.842	77.8
190.061	83.65
190.28	70.08
190.498	79.1
190.717	99.68
190.936	86.35
191.154	104.27
191.373	105.17
191.592	113.09
191.81	96.59
192.029	84.89
192.248	111.52
192.466	74.71
192.685	94.65
192.904	85.53
193.122	37.85
193.341	37.93
193.559	28.73
193.778	54.11
193.996	90.8
194.215	80.63
194.433	116.74
194.652	63.19
194.87	62.46
195.089	54.62
195.307	47
195.526	50.18
195.744	40.32
195.963	45.68
196.181	35.01
196.399	23.14
196.618	36.6
196.836	35.67
197.055	44.39
197.273	59.82
197.491	65.44
197.71	87.4
197.928	78.34
198.146	84.54
198.365	77.96
198.583	88.07
198.801	91.52
199.019	75.93
199.238	60.21
199.456	43.54
199.674	35.19
199.892	17.18
200.111	-4.31
200.329	-1.2
200.547	-2.51
200.765	-21.58
200.983	-30.64
201.202	-34.38
201.42	-5.41
201.638	0.53
201.856	12.51
202.074	20.78
202.292	33.82
202.51	53.08
202.728	60.64
202.946	71
203.165	66.81
203.383	54.25
203.601	49.63
203.819	45.9
204.037	36.42
204.255	24.62
204.473	24.73
204.691	17.06
204.909	20.97
205.127	30.67
205.345	21.47
205.562	42.98
205.78	50.95
205.998	40.51
206.216	38.31
206.434	40.94
206.652	45.84
206.87	45.85
207.088	48.39
207.306	52.56
207.523	46.25
207.741	30.71
207.959	4.94
208.177	9.07
208.395	18.73
208.612	17.63
208.83	8.52
209.048	9.85
209.266	8.89
209.483	13.09
209.701	16.55
209.919	17.61
210.136	28.28
210.354	35.02
210.572	29.23
210.79	30.91
211.007	22.27
211.225	34.22
211.442	31.07
211.66	40.36
211.878	46.03
212.095	99.14
212.313	112.86
212.53	126.85
212.748	150
212.966	153.49
213.183	144.83
213.401	141.88
213.618	145.21
213.836	155.9
214.053	177.94
214.271	153.32
214.488	46.37
214.705	34.44
214.923	32.61
215.14	36.65
215.358	29.99
215.575	45
215.793	58.75
216.01	64.29
216.227	69.19
216.445	58.64
216.662	60.52
216.879	65.31
217.097	65.11
217.314	67.89
217.531	58.39
217.749	55.23
217.966	41.76
218.183	38.02
218.4	39.89
218.618	36.85
218.835	40.02
219.052	35.82
219.269	34.3
219.487	28.18
219.704	22.06
219.921	20.28
220.138	27.34
220.355	22.59
220.572	23
220.79	26.9
221.007	29.38
221.224	34.55
221.441	34.22
221.658	32.86
221.875	35.16
222.092	40.16
222.309	44.98
222.526	50.26
222.743	49.86
222.96	49.28
223.177	46.36
223.394	42.15
223.611	37.47
223.828	37.64
224.045	38.64
224.262	39.63
224.479	34.79
224.696	35.01
224.913	22.09
225.13	25.96
225.347	22.71
225.564	23.28
225.781	25.1
225.997	26.01
226.214	25.43
226.431	24.26
226.648	22.84
226.865	22.86
227.082	20.82
227.298	22.8
227.515	22.27
227.732	22.34
227.949	21.77
228.165	20.6
228.382	20.24
228.599	21.46
228.816	21.28
229.032	22.74
229.249	22.1
229.466	23.38
229.682	22.63
229.899	22.53
230.116	23.95
230.332	24.13
230.549	23.49
230.765	23.06
230.982	20.56
231.199	18.07
231.415	14.62
231.632	15.83
231.848	14.74
232.065	15.97
232.281	13.13
232.498	10.47
232.714	11.54
232.931	13.12
233.147	12.6
233.364	12.7
233.58	15.96
233.797	18.41
234.013	17.26
234.23	16.39
234.446	15.06
234.662	17.66
234.879	20.22
235.095	19.46
235.312	19.59
235.528	21.34
235.744	20.75
235.961	19.64
236.177	18.32
236.393	18.18
236.61	19.67
236.826	19.27
237.042	14.55
237.258	15.64
237.475	16.76
237.691	16.25
237.907	17.68
238.123	18.29
238.339	19.23
238.556	21.14
238.772	22.99
238.988	21.96
239.204	21.44
239.42	22.51
239.636	21.12
239.853	21.22
240.069	21.05
240.285	20.13
240.501	19.21
240.717	19.25
240.933	18.24
241.149	17.52
241.365	17.5
241.581	18.33
241.797	18.61
242.013	19.37
242.229	19.12
242.445	19.4
242.661	18.54
242.877	19.15
243.093	18.78
243.309	18.34
243.525	18.32
243.741	18.52
243.957	17.46
244.173	16.52
244.388	15.73
244.604	14.9
244.82	14.35
245.036	14.7
245.252	14.45
245.468	14.17
245.683	13.67
245.899	13.39
246.115	13.13
246.331	13
246.547	13.3
246.762	13.51
246.978	13.76
247.194	13.51
247.409	13.93
247.625	14.03
247.841	13.57
248.057	14.54
248.272	14.96
248.488	14.52
248.703	14.65
248.919	14.05
249.135	12.75
249.35	12.96
249.566	14.09
249.782	13.24
249.997	13.23
250.213	13.29
250.428	13.03
250.644	12.52
250.859	13.45
251.075	13.99
251.29	14.54
251.506	15.18
251.721	15.45
251.937	14.96
252.152	15.4
252.368	14.95
252.583	15.23
252.798	14.61
253.014	15.4
253.229	15.19
253.445	14.51
253.66	13.53
253.875	14.42
254.091	12.55
254.306	14
254.521	13.46
254.737	14.78
254.952	15.75
255.167	16.24
255.383	15.25
255.598	14.5
255.813	14.75
256.028	14.97
256.244	14.41
256.459	14.84
256.674	13.83
256.889	13.47
257.104	12.99
257.32	12.11
257.535	12.01
257.75	11.75
257.965	11.89
258.18	11.65
258.395	11.98
258.61	11.54
258.826	11.06
259.041	11.08
259.256	11.17
259.471	11.2
259.686	11.31
259.901	11.54
260.116	12.07
260.331	11.43
260.546	11.63
260.761	11.43
260.976	11.97
261.191	12.81
261.406	12.51
261.621	11.61
261.836	11.74
262.05	11.15
262.265	11.26
262.48	10.57
262.695	11.64
262.91	12.97
263.125	12.5
263.34	11.53
263.555	11.19
263.769	11.35
263.984	12.47
264.199	12.45
264.414	13.46
264.629	13.33
264.843	14.11
265.058	13.86
265.273	12.49
265.488	12.74
265.702	13.2
265.917	13.15
266.132	13.43
266.346	12.99
266.561	12.9
266.776	12.24
266.99	12.2
267.205	11.32
267.42	11.5
267.634	11.31
267.849	10.48
268.063	10.68
268.278	10.57
268.492	9.84
268.707	9.52
268.922	9.59
269.136	10.18
269.351	9.75
269.565	9.53
269.78	9.36
269.994	9.45
270.209	10.55
270.423	10.2
270.637	10.59
270.852	11.38
271.066	12.41
271.281	12.85
271.495	12.98
271.709	12.71
271.924	13.1
272.138	13.36
272.353	13.3
272.567	13.51
272.781	13.97
272.996	13.25
273.21	12.57
273.424	11.28
273.638	11.71
273.853	12.52
274.067	13.26
274.281	13.51
274.495	13.35
274.71	13.32
274.924	12.28
275.138	11.52
275.352	12.35
275.566	13.26
275.781	14.07
275.995	12.92
276.209	11.99
276.423	12.32
276.637	12.27
276.851	12.06
277.065	13
277.279	13.95
277.493	14.66
277.707	14.6
277.921	14.14
278.135	14.52
278.349	14.44
278.563	14.46
278.777	13.99
278.991	14.1
279.205	14.26
279.419	13.72
279.633	12.68
279.847	12.07
280.061	12.52
280.275	12.47
280.489	12.25
280.703	13.35
280.917	13.16
281.131	12.79
281.344	12.51
281.558	12.36
281.772	12.71
281.986	13.78
282.2	14.45
282.414	13.64
282.627	13.46
282.841	12.65
283.055	11.72
283.269	11.54
283.482	11.34
283.696	11.23
283.91	11.32
284.123	10.92
284.337	10.11
284.551	9.67
284.764	9.43
284.978	9.63
285.192	10.22
285.405	10.06
285.619	10.12
285.833	10.55
286.046	11
286.26	11.1
286.473	11.45
286.687	11.25
286.9	11.18
287.114	11.45
287.327	11.84
287.541	11.91
287.754	11.93
287.968	12.11
288.181	13.03
288.395	12.87
288.608	12.88
288.822	13.16
289.035	13.73
289.248	14.34
289.462	15.21
289.675	15.06
289.889	15.55
290.102	15.88
290.315	15.57
290.529	14.45
290.742	14.21
290.955	14.72
291.169	14.11
291.382	14.41
291.595	14.48
291.808	13.23
292.022	13.33
292.235	12.83
292.448	12.38
292.661	12.77
292.875	13
293.088	13.64
293.301	13.15
293.514	13.23
293.727	13.14
293.94	12.96
294.153	13.55
294.367	13.47
294.58	13.19
294.793	12.65
295.006	12.79
295.219	12.31
295.432	12
295.645	12.02
295.858	11.59
296.071	11.09
296.284	10.94
296.497	10.86
296.71	10.75
296.923	11.19
297.136	12.38
297.349	12.07
297.562	12.55
297.775	12.56
297.988	12.62
298.201	13.1
298.414	13.1
298.626	12.9
298.839	12.07
299.052	12.31
299.265	11.49
299.478	10.2
299.691	10.56
299.903	10.57
300.116	10.32
300.329	10.48
300.542	10.72
300.755	11.46
300.967	11.57
301.18	12.14
301.393	11.7
301.605	11.8
301.818	12.51
302.031	11.87
302.243	11.75
302.456	12.21
302.669	12.37
302.881	13.1
303.094	12.78
303.307	12.4
303.519	12.71
303.732	12.64
303.944	12.91
304.157	12.8
304.37	13.22
304.582	13.81
304.795	13.08
305.007	13.33
305.22	12.71
305.432	12.3
305.645	13.19
305.857	12.67
306.069	12.58
306.282	12.1
306.494	13.14
306.707	12.77
306.919	12.36
307.132	12.97
307.344	12.89
307.556	12.21
307.769	12.66
307.981	12.46
308.193	13.28
308.406	13.86
308.618	13.86
308.83	12.81
309.043	13.45
309.255	13.65
309.467	13.36
309.679	13.68
309.892	13.94
310.104	13.28
310.316	13.52
310.528	13.3
310.74	13.27
310.953	13.68
311.165	13.9
311.377	13.96
311.589	14.57
311.801	14.38
312.013	13.65
312.225	14.06
312.437	14.52
312.649	14.3
312.862	13.93
313.074	13.87
313.286	13.45
313.498	13.86
313.71	13.05
313.922	12.09
314.134	12
314.346	12.82
314.558	13.28
314.77	13.56
314.982	14.26
315.193	15.12
315.405	14.66
315.617	14.2
315.829	13.92
316.041	13.14
316.253	13.12
316.465	14.14
316.677	13.89
316.888	13.84
317.1	13.94
317.312	13.02
317.524	11.75
317.736	11.83
317.947	12.98
318.159	13.43
318.371	14.67
318.583	14.81
318.794	13.92
319.006	13.19
319.218	11.81
319.43	12.58
319.641	12.6
319.853	13.32
320.064	13.54
320.276	13.69
320.488	12.98
320.699	12.94
320.911	12.78
321.123	13.33
321.334	13.71
321.546	14.43
321.757	13.9
321.969	14
322.18	13.91
322.392	13.14
322.603	12.06
322.815	12.4
323.026	12.15
323.238	11.83
323.449	11.3
323.661	10.81
323.872	10.18
324.083	9.32
324.295	10.01
324.506	10.39
324.718	11.04
324.929	11.75
325.14	12.14
325.352	12.96
325.563	13.19
325.774	13.67
325.986	13.38
326.197	14.61
326.408	15.54
326.62	14.54
326.831	14.13
327.042	14.45
327.253	14.36
327.464	13.83
327.676	13.61
327.887	13.11
328.098	12.88
328.309	14.16
328.52	13.11
328.732	12.8
328.943	12.94
329.154	12.9
329.365	12.11
329.576	11.49
329.787	11.88
329.998	11.75
330.209	12.12
330.42	12.1
330.631	11.31
330.842	11.45
331.053	11.46
331.264	11.51
331.475	11.5
331.686	11.9
331.897	12.18
332.108	11.81
332.319	11.37
332.53	11.79
332.741	12.68
332.952	12.38
333.163	11.85
333.374	11.73
333.585	12.26
333.795	11.72
334.006	11.19
334.217	11.59
334.428	11.59
334.639	11.92
334.849	12.48
335.06	11.05
335.271	11.63
335.482	12.04
335.692	11.77
335.903	11.33
336.114	11.9
336.325	12.69
336.535	12.51
336.746	11.91
336.957	11.52
337.167	10.8
337.378	11.55
337.589	11.04
337.799	11.22
338.01	11.97
338.22	11.8
338.431	11.6
338.642	10.85
338.852	10.69
339.063	10.79
339.273	11.01
339.484	11.11
339.694	11.21
339.905	11.4
340.115	11.6
340.326	10.78
340.536	11.39
340.746	12.11
340.957	11.97
341.167	12.45
341.378	12.58
341.588	12.64
341.799	11.96
342.009	11.78
342.219	11.59
342.43	10.93
342.64	11.55
342.85	11.17
343.061	10.86
343.271	11.42
343.481	11.3
343.691	11.35
343.902	11.11
344.112	11.49
344.322	11.73
344.532	12.01
344.743	13.26
344.953	13.22
345.163	13.21
345.373	12.96
345.583	12.66
345.793	12.46
346.004	12.96
346.214	12.93
346.424	13.01
346.634	12.17
346.844	11.78
347.054	10.54
347.264	10.17
347.474	10.5
347.684	10.68
347.894	10.96
348.104	11.12
348.314	11.18
348.524	11.41
348.734	10.8
348.944	11.04
349.154	11.36
349.364	12.19
349.574	12.45
349.784	12.1
349.994	11.86
350.204	11.38
350.413	11.13
350.623	11.02
350.833	10.57
351.043	10.87
351.253	11.09
351.463	11.18
351.672	10.83
351.882	10.55
352.092	10.6
352.302	10.81
352.511	11.29
352.721	11.09
352.931	11.3
353.141	11.15
353.35	11.44
353.56	11.51
353.77	11.41
353.979	11.4
354.189	11.56
354.399	11.2
354.608	11.43
354.818	10.5
355.027	10.87
355.237	10.91
355.447	11.49
355.656	11.35
355.866	11.23
356.075	11.05
356.285	10.9
356.494	10.69
356.704	10.69
356.913	10.2
357.123	10.76
357.332	10.49
357.542	10.01
357.751	9.62
357.96	9.46
358.17	9.33
358.379	9.52
358.589	9.31
358.798	9.44
359.007	9.88
359.217	10.39
359.426	10.44
359.635	10.22
359.845	10.35
360.054	10.47
360.263	10.67
360.472	10.84
360.682	10.95
360.891	11.01
361.1	10.71
361.309	10.6
361.519	9.94
361.728	9.81
361.937	10.01
362.146	9.76
362.355	9.67
362.564	9.75
362.774	9.53
362.983	9.19
363.192	9.24
363.401	9.56
363.61	8.99
363.819	9.46
364.028	9.57
364.237	9.55
364.446	9.94
364.655	9.85
364.864	8.87
365.073	9.17
365.282	9.1
365.491	8.81
365.7	8.5
365.909	8.46
366.118	8.69
366.327	8.5
366.536	8.52
366.745	8.41
366.954	8.75
367.162	9.62
367.371	9.34
367.58	9.27
367.789	9.64
367.998	9.53
368.207	9.8
368.415	9.45
368.624	9.69
368.833	9.7
369.042	9.58
369.25	9.27
369.459	9.17
369.668	8.91
369.877	8.98
370.085	8.82
370.294	8.92
370.503	8.81
370.711	8.46
370.92	8.52
371.129	8.32
371.337	8.09
371.546	8.19
371.754	8.11
371.963	8.51
372.171	8.86
372.38	9.02
372.589	9.47
372.797	9.51
373.006	9.58
373.214	9.43
373.423	9.59
373.631	9.82
373.84	9.54
374.048	9.58
374.256	9.12
374.465	8.6
374.673	8.13
374.882	7.83
375.09	8.2
375.298	8.43
375.507	8.23
375.715	8.16
375.923	8.06
376.132	7.87
376.34	7.63
376.548	7.67
376.757	7.91
376.965	8.23
377.173	8.15
377.381	7.49
377.59	7.47
377.798	7.58
378.006	7.42
378.214	7.04
378.423	7.36
378.631	7.45
378.839	7.63
379.047	7.1
379.255	7.05
379.463	6.96
379.671	7.36
379.879	7.01
380.088	6.78
380.296	6.9
380.504	7.21
380.712	7.17
380.92	7.33
381.128	7.15
381.336	7.44
381.544	7.39
381.752	7.57
381.96	7.43
382.168	7.79
382.376	7.7
382.584	7.41
382.791	7.51
382.999	7.55
383.207	7.27
383.415	7.35
383.623	7.43
383.831	6.96
384.039	6.76
384.247	6.73
384.454	6.36
384.662	6.1
384.87	6.08
385.078	5.65
385.285	5.27
385.493	5.36
385.701	5.01
385.909	4.78
386.116	4.97
386.324	5.11
386.532	4.86
386.739	4.89
386.947	5.18
387.155	5.27
387.362	5.49
387.57	5.49
387.778	5.17
387.985	5.3
388.193	5.12
388.4	5.41
388.608	5.29
388.816	5.42
389.023	5.39
389.231	5.23
389.438	5.12
389.646	4.94
389.853	4.95
390.061	5.17
390.268	5.09
390.475	5.14
390.683	4.82
390.89	4.55
391.098	4.36
391.305	4.38
391.512	4.42
391.72	4.37
391.927	4.34
392.135	4.32
392.342	4
392.549	3.86
392.756	3.88
392.964	3.92
393.171	4.03
393.378	4.12
393.586	3.89
393.793	4.18
394	4.25
394.207	4.27
394.414	4.33
394.622	4.41
394.829	4.56
395.036	4.49
395.243	4.36
395.45	4.43
395.657	4.25
395.864	4.3
396.072	3.85
396.279	3.78
396.486	3.65
396.693	3.45
396.9	3.52
397.107	3.46
397.314	3.51
397.521	3.55
397.728	3.45
397.935	3.41
398.142	3.49
398.349	3.48
398.556	3.56
398.763	3.72
398.97	3.78
399.177	3.81
399.383	3.8
399.59	3.7
399.797	3.8
400.004	3.54
400.211	3.68
400.418	3.72
400.625	3.71
400.831	3.77
401.038	3.68
401.245	3.67
401.452	3.76
401.658	3.85
401.865	3.79
402.072	3.76
402.279	4
402.485	4.08
402.692	3.96
402.899	3.89
403.105	3.71
403.312	3.81
403.519	3.85
403.725	3.71
403.932	3.7
404.138	3.75
404.345	3.71
404.552	3.53
404.758	3.4
404.965	3.45
405.171	3.54
405.378	3.5
405.584	3.46
405.791	3.2
405.997	3.13
406.204	2.95
406.41	2.87
406.617	2.79
406.823	2.95
407.029	3
407.236	3.01
407.442	3.25
407.649	3.21
407.855	3.19
408.061	3.34
408.268	3.5
408.474	3.61
408.68	3.68
408.887	3.77
409.093	3.75
409.299	3.83
409.505	3.82
409.712	3.66
409.918	3.74
410.124	3.63
410.33	3.67
410.537	3.62
410.743	3.72
410.949	3.67
411.155	3.58
411.361	3.42
411.567	3.28
411.773	3.21
411.98	3.05
412.186	3.2
412.392	3.18
412.598	3.12
412.804	3.03
413.01	2.97
413.216	3.17
413.422	3.34
413.628	3.44
413.834	3.47
414.04	3.4
414.246	3.56
414.452	3.46
414.658	3.58
414.864	3.59
415.07	3.51
415.275	3.55
415.481	3.38
415.687	3.17
415.893	3.2
416.099	3.22
416.305	3.29
416.511	3.24
416.716	3.27
416.922	3.09
417.128	3.12
417.334	3.18
417.539	3.11
417.745	3.18
417.951	3.14
418.157	3.05
418.362	3.02
418.568	2.95
418.774	2.9
418.979	2.88
419.185	2.97
419.391	3.01
419.596	3
419.802	2.96
420.008	2.91
420.213	3.01
420.419	3.08
420.624	3.11
420.83	3.17
421.035	3.2
421.241	3.15
421.446	3.08
421.652	3.04
421.857	3.02
422.063	3.09
422.268	3.1
422.474	3.09
422.679	3.05
422.885	2.96
423.09	2.93
423.295	2.91
423.501	2.96
423.706	2.96
423.911	2.89
424.117	2.92
424.322	2.87
424.527	2.82
424.733	2.8
424.938	2.81
425.143	2.83
425.349	2.78
425.554	2.77
425.759	2.8
425.964	2.97
426.169	3.02
426.375	3.09
426.58	3.25
426.785	3.31
426.99	3.25
427.195	3.29
427.4	3.29
427.605	3.34
427.811	3.39
428.016	3.28
428.221	3.12
428.426	3.09
428.631	3.06
428.836	2.89
429.041	2.93
429.246	3
429.451	3.01
429.656	3.11
429.861	3.09
430.066	3.06
430.271	3.11
430.476	3.19
430.681	3.12
430.886	3.11
431.09	3.14
431.295	3.03
431.5	2.93
431.705	3.01
431.91	3.06
432.115	3.06
432.32	3.05
432.524	2.95
432.729	2.92
432.934	2.94
433.139	2.73
433.343	2.7
433.548	2.74
433.753	2.83
433.958	2.76
434.162	2.74
434.367	2.61
434.572	2.57
434.776	2.62
434.981	2.57
435.186	2.68
435.39	2.86
435.595	2.88
435.799	2.91
436.004	2.93
436.209	3
436.413	2.95
436.618	3.05
436.822	3.05
437.027	3.03
437.231	3.03
437.436	2.99
437.64	2.95
437.845	2.88
438.049	2.79
438.253	2.71
438.458	2.62
438.662	2.55
438.867	2.62
439.071	2.64
439.275	2.63
439.48	2.66
439.684	2.68
439.888	2.71
440.093	2.73
440.297	2.75
440.501	2.79
440.706	2.74
440.91	2.84
441.114	2.75
441.318	2.67
441.523	2.72
441.727	2.66
441.931	2.62
442.135	2.6
442.339	2.62
442.543	2.61
442.748	2.61
442.952	2.73
443.156	2.54
443.36	2.58
443.564	2.65
443.768	2.57
443.972	2.59
444.176	2.61
444.38	2.59
444.584	2.68
444.788	2.72
444.992	2.68
445.196	2.65
445.4	2.72
445.604	2.68
445.808	2.65
446.012	2.72
446.216	2.66
446.42	2.64
446.624	2.65
446.828	2.54
447.032	2.46
447.235	2.54
447.439	2.5
447.643	2.46
447.847	2.55
448.051	2.6
448.254	2.54
448.458	2.57
448.662	2.57
448.866	2.63
449.069	2.59
449.273	2.7
449.477	2.51
449.681	2.48
449.884	2.47
450.088	2.45
450.292	2.41
450.495	2.46
450.699	2.51
450.902	2.48
451.106	2.37
451.31	2.44
451.513	2.33
451.717	2.49
451.92	2.53
452.124	2.52
452.327	2.5
452.531	2.55
452.734	2.57
452.938	2.62
453.141	2.6
453.345	2.64
453.548	2.71
453.752	2.77
453.955	2.81
454.158	2.84
454.362	2.92
454.565	3.04
454.769	2.96
454.972	2.89
455.175	2.82
455.379	2.88
455.582	2.81
455.785	2.64
455.988	2.68
456.192	2.66
456.395	2.63
456.598	2.61
456.801	2.46
457.005	2.47
457.208	2.47
457.411	2.45
457.614	2.48
457.817	2.49
458.021	2.57
458.224	2.54
458.427	2.48
458.63	2.54
458.833	2.51
459.036	2.5
459.239	2.53
459.442	2.59
459.645	2.64
459.848	2.6
460.051	2.66
460.254	2.68
460.457	2.75
460.66	2.72
460.863	2.72
461.066	2.78
461.269	2.85
461.472	2.87
461.675	2.73
461.878	2.68
462.081	2.76
462.284	2.71
462.486	2.73
462.689	2.66
462.892	2.58
463.095	2.52
463.298	2.43
463.5	2.49
463.703	2.5
463.906	2.5
464.109	2.56
464.311	2.51
464.514	2.48
464.717	2.37
464.92	2.42
465.122	2.6
465.325	2.58
465.528	2.75
465.73	2.64
465.933	2.61
466.135	2.76
466.338	2.79
466.541	2.82
466.743	2.86
466.946	2.89
467.148	2.82
467.351	2.86
467.553	2.92
467.756	2.83
467.958	2.85
468.161	2.87
468.363	2.81
468.566	2.74
468.768	2.7
468.971	2.74
469.173	2.76
469.375	2.76
469.578	2.73
469.78	2.61
469.983	2.53
470.185	2.55
470.387	2.45
470.59	2.45
470.792	2.4
470.994	2.34
471.196	2.26
471.399	2.21
471.601	2.25
471.803	2.08
472.005	2.13
472.208	2.25
472.41	2.22
472.612	2.2
472.814	2.11
473.016	2.16
473.218	2.17
473.421	2.2
473.623	2.27
473.825	2.3
474.027	2.45
474.229	2.52
474.431	2.51
474.633	2.51
474.835	2.6
475.037	2.66
475.239	2.61
475.441	2.59
475.643	2.59
475.845	2.57
476.047	2.51
476.249	2.52
476.451	2.53
476.653	2.51
476.855	2.52
477.057	2.54
477.258	2.53
477.46	2.58
477.662	2.6
477.864	2.59
478.066	2.53
478.268	2.62
478.469	2.63
478.671	2.55
478.873	2.53
479.075	2.52
479.276	2.45
479.478	2.5
479.68	2.49
479.882	2.47
480.083	2.49
480.285	2.51
480.487	2.43
480.688	2.4
480.89	2.38
481.091	2.32
481.293	2.34
481.495	2.37
481.696	2.32
481.898	2.32
482.099	2.31
482.301	2.31
482.502	2.33
482.704	2.31
482.905	2.3
483.107	2.33
483.308	2.37
483.51	2.34
483.711	2.35
483.913	2.39
484.114	2.39
484.315	2.42
484.517	2.44
484.718	2.42
484.92	2.46
485.121	2.46
485.322	2.44
485.524	2.46
485.725	2.48
485.926	2.48
486.127	2.46
486.329	2.45
486.53	2.45
486.731	2.42
486.932	2.41
487.134	2.39
487.335	2.36
487.536	2.4
487.737	2.34
487.938	2.35
488.139	2.31
488.341	2.31
488.542	2.33
488.743	2.3
488.944	2.34
489.145	2.36
489.346	2.41
489.547	2.45
489.748	2.41
489.949	2.44
490.15	2.42
490.351	2.42
490.552	2.41
490.753	2.4
490.954	2.41
491.155	2.4
491.356	2.4
491.557	2.37
491.758	2.38
491.959	2.41
492.159	2.46
492.36	2.51
492.561	2.55
492.762	2.6
492.963	2.59
493.164	2.6
493.364	2.61
493.565	2.67
493.766	2.67
493.967	2.68
494.167	2.62
494.368	2.61
494.569	2.51
494.769	2.52
494.97	2.48
495.171	2.52
495.371	2.59
495.572	2.58
495.773	2.51
495.973	2.58
496.174	2.56
496.375	2.63
496.575	2.59
496.776	2.64
496.976	2.57
497.177	2.61
497.377	2.65
497.578	2.66
497.778	2.65
497.979	2.61
498.179	2.56
498.38	2.58
498.58	2.48
498.78	2.48
498.981	2.56
499.181	2.68
499.382	2.69
499.582	2.58
499.782	2.57
499.983	2.59
500.183	2.65
500.383	2.69
500.584	2.67
500.784	2.75
500.984	2.76
501.184	2.71
501.385	2.68
501.585	2.61
501.785	2.67
501.985	2.7
502.185	2.76
502.386	2.72
502.586	2.76
502.786	2.84
502.986	2.87
503.186	2.83
503.386	2.82
503.586	2.81
503.786	2.9
503.987	2.94
504.187	2.89
504.387	2.83
504.587	2.97
504.787	2.99
504.987	2.9
505.187	2.89
505.387	3.1
505.587	3.09
505.786	3.06
505.986	3.01
506.186	3.03
506.386	3.04
506.586	3.02
506.786	3.02
506.986	2.9
507.186	2.93
507.386	2.88
507.585	2.72
507.785	2.75
507.985	2.81
508.185	2.88
508.384	2.87
508.584	2.88
508.784	2.96
508.984	2.93
509.183	3.06
509.383	3.05
509.583	3.04
509.782	3.09
509.982	3.08
510.182	3.13
510.381	3.11
510.581	3.11
510.781	3.12
510.98	3.09
511.18	3.08
511.379	3.05
511.579	3.13
511.778	3.23
511.978	3.29
512.177	3.25
512.377	3.2
512.576	3.29
512.776	3.39
512.975	3.43
513.175	3.42
513.374	3.42
513.573	3.47
513.773	3.43
513.972	3.38
514.172	3.4
514.371	3.44
514.57	3.47
514.77	3.33
514.969	3.21
515.168	3.19
515.367	3.28
515.567	3.37
515.766	3.28
515.965	3.28
516.164	3.25
516.364	3.26
516.563	3.24
516.762	3.26
516.961	3.36
517.16	3.36
517.359	3.39
517.559	3.29
517.758	3.31
517.957	3.41
518.156	3.46
518.355	3.55
518.554	3.56
518.753	3.63
518.952	3.66
519.151	3.66
519.35	3.71
519.549	3.73
519.748	3.85
519.947	3.85
520.146	3.82
520.345	3.78
520.544	3.79
520.743	3.79
520.942	3.83
521.141	3.82
521.339	3.86
521.538	3.87
521.737	3.92
521.936	3.89
522.135	3.91
522.333	3.88
522.532	3.93
522.731	3.89
522.93	3.9
523.129	3.96
523.327	3.98
523.526	3.94
523.725	3.96
523.923	3.9
524.122	3.95
524.321	3.96
524.519	4.03
524.718	4.01
524.917	4.04
525.115	4.04
525.314	4
525.512	3.95
525.711	3.97
525.909	3.97
526.108	3.99
526.306	3.99
526.505	4
526.703	3.99
526.902	3.99
527.1	3.96
527.299	3.99
527.497	4
527.696	4.04
527.894	4.06
528.092	4.08
528.291	4.08
528.489	4.1
528.688	4.06
528.886	4.08
529.084	4.11
529.283	4.15
529.481	4.17
529.679	4.22
529.877	4.24
530.076	4.23
530.274	4.23
530.472	4.24
530.67	4.28
530.869	4.36
531.067	4.36
531.265	4.37
531.463	4.38
531.661	4.4
531.859	4.39
532.057	4.42
532.255	4.44
532.454	4.49
532.652	4.52
532.85	4.56
533.048	4.59
533.246	4.63
533.444	4.68
533.642	4.73
533.84	4.68
534.038	4.69
534.236	4.66
534.434	4.66
534.632	4.63
534.83	4.67
535.027	4.64
535.225	4.65
535.423	4.66
535.621	4.62
535.819	4.65
536.017	4.72
536.215	4.78
536.412	4.87
536.61	4.92
536.808	4.94
537.006	4.94
537.203	5.05
537.401	5.09
537.599	5.1
537.797	5.17
537.994	5.12
538.192	5.1
538.39	5.07
538.587	5.02
538.785	5.08
538.983	5.13
539.18	5.12
539.378	5.06
539.575	5.04
539.773	5.08
539.97	5.08
540.168	5.13
540.366	5.21
540.563	5.2
540.761	5.21
540.958	5.2
541.155	5.21
541.353	5.27
541.55	5.33
541.748	5.36
541.945	5.34
542.143	5.39
542.34	5.47
542.537	5.48
542.735	5.56
542.932	5.64
543.129	5.65
543.327	5.7
543.524	5.69
543.721	5.69
543.919	5.72
544.116	5.74
544.313	5.73
544.51	5.68
544.708	5.62
544.905	5.58
545.102	5.56
545.299	5.59
545.496	5.55
545.693	5.55
545.891	5.57
546.088	5.6
546.285	5.67
546.482	5.75
546.679	5.82
546.876	5.86
547.073	5.93
547.27	5.96
547.467	6
547.664	6.03
547.861	6.18
548.058	6.25
548.255	6.29
548.452	6.29
548.649	6.32
548.846	6.19
549.043	6.32
549.24	6.37
549.437	6.43
549.633	6.45
549.83	6.46
550.027	6.34
550.224	6.33
550.421	6.3
550.618	6.33
550.814	6.24
551.011	6.29
551.208	6.2
551.405	6.32
551.601	6.38
551.798	6.37
551.995	6.52
552.191	6.59
552.388	6.63
552.585	6.6
552.781	6.61
552.978	6.75
553.175	6.9
553.371	6.98
553.568	6.98
553.764	6.96
553.961	7.07
554.157	7
554.354	7.11
554.55	7.14
554.747	7.2
554.943	7.26
555.14	7.21
555.336	7.18
555.533	7.26
555.729	7.22
555.926	7.3
556.122	7.32
556.318	7.42
556.515	7.44
556.711	7.55
556.907	7.64
557.104	7.76
557.3	7.9
557.496	7.98
557.693	7.98
557.889	8.06
558.085	8.16
558.281	8.25
558.478	8.2
558.674	8.3
558.87	8.3
559.066	8.37
559.262	8.47
559.459	8.48
559.655	8.54
559.851	8.61
560.047	8.67
560.243	8.57
560.439	8.51
560.635	8.62
560.831	8.55
561.027	8.48
561.223	8.5
561.419	8.36
561.615	8.47
561.811	8.53
562.007	8.56
562.203	8.68
562.399	8.66
562.595	8.81
562.791	9.01
562.987	9.17
563.183	9.27
563.379	9.25
563.575	9.33
563.771	9.3
563.966	9.33
564.162	9.4
564.358	9.38
564.554	9.58
564.75	9.51
564.945	9.46
565.141	9.48
565.337	9.62
565.533	9.74
565.728	9.81
565.924	9.91
566.12	10.08
566.315	10.06
566.511	10.11
566.707	10.08
566.902	10.25
567.098	10.32
567.293	10.29
567.489	10.18
567.684	10.28
567.88	10.32
568.076	10.46
568.271	10.3
568.467	10.36
568.662	10.47
568.858	10.54
569.053	10.53
569.248	10.57
569.444	10.67
569.639	10.83
569.835	10.8
570.03	10.86
570.225	10.68
570.421	10.78
570.616	10.86
570.812	10.79
571.007	10.82
571.202	10.83
571.397	10.84
571.593	10.85
571.788	10.82
571.983	10.86
572.178	10.87
572.374	10.98
572.569	10.96
572.764	10.94
572.959	11.11
573.154	11.17
573.35	11.3
573.545	11.36
573.74	11.46
573.935	11.46
574.13	11.5
574.325	11.59
574.52	11.6
574.715	11.67
574.91	11.69
575.105	11.64
575.3	11.76
575.495	11.73
575.69	11.72
575.885	11.68
576.08	11.86
576.275	11.96
576.47	11.9
576.665	12.01
576.86	12.07
577.055	12.19
577.25	12.21
577.444	12.11
577.639	12.21
577.834	12.24
578.029	12.36
578.224	12.31
578.418	12.29
578.613	12.41
578.808	12.45
579.003	12.44
579.197	12.46
579.392	12.55
579.587	12.64
579.781	12.63
579.976	12.61
580.171	12.59
580.365	12.59
580.56	12.53
580.755	12.67
580.949	12.72
581.144	12.89
581.338	12.98
581.533	12.88
581.727	12.86
581.922	12.88
582.116	12.96
582.311	13.05
582.505	13.16
582.7	13.25
582.894	13.18
583.089	13.14
583.283	13.07
583.478	13.03
583.672	13.09
583.866	13.05
584.061	13.08
584.255	13.17
584.449	13.07
584.644	12.99
584.838	13.07
585.032	13.08
585.226	13
585.421	13.02
585.615	13.1
585.809	13.14
586.003	13.12
586.198	13.17
586.392	13.15
586.586	13.39
586.78	13.49
586.974	13.45
587.168	13.44
587.363	13.57
587.557	13.58
587.751	13.55
587.945	13.56
588.139	13.76
588.333	13.86
588.527	13.94
588.721	13.74
588.915	13.71
589.109	13.8
589.303	13.76
589.497	13.86
589.691	13.82
589.885	13.83
590.079	13.8
590.273	13.77
590.466	13.74
590.66	13.66
590.854	13.59
591.048	13.62
591.242	13.55
591.436	13.63
591.629	13.55
591.823	13.63
592.017	13.75
592.211	13.89
592.404	13.91
592.598	13.86
592.792	13.97
592.986	14.13
593.179	14.12
593.373	14.17
593.567	14.32
593.76	14.4
593.954	14.44
594.147	14.46
594.341	14.48
594.535	14.42
594.728	14.45
594.922	14.46
595.115	14.4
595.309	14.46
595.502	14.38
595.696	14.32
595.889	14.33
596.083	14.32
596.276	14.31
596.47	14.38
596.663	14.47
596.856	14.5
597.05	14.45
597.243	14.68
597.437	14.68
597.63	14.77
597.823	14.8
598.017	14.79
598.21	14.83
598.403	14.89
598.596	14.79
598.79	14.63
598.983	14.64
599.176	14.75
599.369	14.46
599.563	14.57
599.756	14.78
599.949	14.77
600.142	14.71
600.335	14.75
600.528	14.72
600.722	14.77
600.915	14.89
601.108	14.88
601.301	14.85
601.494	14.88
601.687	14.8
601.88	14.67
602.073	14.55
602.266	14.59
602.459	14.59
602.652	14.53
602.845	14.57
603.038	14.56
603.231	14.55
603.424	14.61
603.617	14.7
603.809	14.68
604.002	14.82
604.195	14.87
604.388	14.82
604.581	14.8
604.774	14.89
604.966	14.85
605.159	14.83
605.352	14.89
605.545	14.82
605.737	14.87
605.93	14.89
606.123	14.98
606.316	15.07
606.508	15.24
606.701	15.34
606.894	15.17
607.086	15.3
607.279	15.46
607.471	15.5
607.664	15.49
607.857	15.43
608.049	15.54
608.242	15.38
608.434	15.38
608.627	15.29
608.819	15.25
609.012	15.41
609.204	15.3
609.397	15.3
609.589	15.4
609.782	15.37
609.974	15.43
610.166	15.41
610.359	15.54
610.551	15.54
610.743	15.45
610.936	15.39
611.128	15.41
611.32	15.47
611.513	15.53
611.705	15.43
611.897	15.55
612.09	15.55
612.282	15.61
612.474	15.47
612.666	15.48
612.858	15.79
613.051	15.79
613.243	15.7
613.435	15.74
613.627	15.65
613.819	15.64
614.011	15.77
614.203	15.82
614.395	15.73
614.588	15.74
614.78	15.68
614.972	15.62
615.164	15.79
615.356	15.83
615.548	15.7
615.74	15.77
615.932	15.79
616.124	15.58
616.315	15.45
616.507	15.4
616.699	15.5
616.891	15.55
617.083	15.52
617.275	15.47
617.467	15.46
617.659	15.68
617.85	15.57
618.042	15.47
618.234	15.56
618.426	15.68
618.618	15.66
618.809	15.65
619.001	15.71
619.193	15.85
619.384	15.74
619.576	15.83
619.768	15.57
619.959	15.68
620.151	15.94
620.343	16.09
620.534	16.14
620.726	16.14
620.917	16.09
621.109	16.24
621.301	16.16
621.492	16.38
621.684	16.37
621.875	16.52
622.067	16.62
622.258	16.42
622.45	16.4
622.641	16.48
622.832	16.55
623.024	16.5
623.215	16.49
623.407	16.49
623.598	16.33
623.789	16.34
623.981	16.29
624.172	16.21
624.363	16.14
624.555	16.06
624.746	16.02
624.937	16.07
625.129	16.15
625.32	16.09
625.511	16.04
625.702	16.13
625.893	16.2
626.085	16.25
626.276	16.19
626.467	16.29
626.658	16.45
626.849	16.39
627.04	16.49
627.231	16.52
627.422	16.59
627.614	16.68
627.805	16.57
627.996	16.46
628.187	16.45
628.378	16.44
628.569	16.46
628.76	16.38
628.951	16.43
629.142	16.41
629.332	16.34
629.523	16.31
629.714	16.15
629.905	16.29
630.096	16.24
630.287	16.27
630.478	16.25
630.669	16.21
630.859	16.15
631.05	16.05
631.241	15.91
631.432	15.99
631.623	15.92
631.813	16.05
632.004	15.92
632.195	16.08
632.385	16
632.576	16.2
632.767	16.23
632.957	16.24
633.148	16.39
633.339	16.43
633.529	16.49
633.72	16.58
633.91	16.61
634.101	16.71
634.292	16.66
634.482	16.78
634.673	16.59
634.863	16.64
635.054	16.69
635.244	16.7
635.435	16.74
635.625	16.68
635.815	16.52
636.006	16.49
636.196	16.67
636.387	16.79
636.577	16.75
636.767	17.17
636.958	17.33
637.148	17.42
637.338	17.35
637.529	17.4
637.719	17.33
637.909	17.65
638.099	17.91
638.29	17.6
638.48	17.54
638.67	17.75
638.86	17.44
639.05	17.32
639.241	17.4
639.431	17.54
639.621	17.52
639.811	17.66
640.001	17.57
640.191	17.35
640.381	17.4
640.571	17.21
640.761	17.12
640.951	17.17
641.141	17.23
641.331	16.99
641.521	17.02
641.711	17.18
641.901	17.06
642.091	16.9
642.281	16.78
642.471	16.92
642.661	17.2
642.851	17.07
643.041	17.07
643.231	17.01
643.42	16.94
643.61	16.69
643.8	16.5
643.99	16.63
644.18	16.76
644.369	16.89
644.559	16.8
644.749	16.63
644.939	16.84
645.128	16.88
645.318	16.85
645.508	16.98
645.697	17
645.887	17.01
646.076	17.02
646.266	17.08
646.456	17.07
646.645	17.23
646.835	17.29
647.024	17.27
647.214	17.23
647.403	17.24
647.593	17.33
647.782	17.48
647.972	17.43
648.161	17.35
648.351	17.2
648.54	17.34
648.73	17.41
648.919	17.54
649.108	17.45
649.298	17.22
649.487	17.36
649.677	17.44
649.866	17.46
650.055	17.4
650.244	17.34
650.434	17.46
650.623	17.32
650.812	17.19
651.002	17.07
651.191	17.09
651.38	17.32
651.569	17.25
651.758	17.22
651.947	17.33
652.137	17.44
652.326	17.52
652.515	17.7
652.704	17.62
652.893	17.67
653.082	17.85
653.271	17.91
653.46	17.7
653.649	17.52
653.838	17.34
654.027	17.24
654.216	17.37
654.405	17.42
654.594	17.16
654.783	17.38
654.972	17.57
655.161	17.66
655.35	17.55
655.539	17.92
655.728	18.15
655.916	18.26
656.105	18.41
656.294	18.37
656.483	18.42
656.672	18.41
656.86	18.43
657.049	18.01
657.238	17.79
657.427	17.88
657.615	17.61
657.804	17.67
657.993	17.66
658.181	17.34
658.37	17.48
658.559	17.37
658.747	17.5
658.936	17.36
659.125	17.83
659.313	17.93
659.502	17.99
659.69	18.15
659.879	18.11
660.067	18.08
660.256	18.43
660.444	18.35
660.633	18.43
660.821	18.51
661.01	18.72
661.198	18.4
661.387	18.33
661.575	18.37
661.763	18.42
661.952	18.33
662.14	18.3
662.328	17.98
662.517	18.08
662.705	18.09
662.893	17.95
663.082	17.72
663.27	18
663.458	18.11
663.646	18.05
663.834	18.03
664.023	18.04
664.211	18.05
664.399	18.27
664.587	18.21
664.775	18.37
664.963	18.17
665.152	18.44
665.34	18.36
665.528	18.03
665.716	17.96
665.904	17.95
666.092	18.03
666.28	18.14
666.468	18.04
666.656	17.86
666.844	17.6
667.032	17.97
667.22	17.97
667.408	17.81
667.596	18.16
667.784	18.19
667.971	18.21
668.159	18.14
668.347	18.21
668.535	18.21
668.723	18.48
668.911	18.75
669.098	18.4
669.286	18.25
669.474	18.29
669.662	18.07
669.849	18.13
670.037	18.14
670.225	18.27
670.413	18.14
670.6	18.14
670.788	18.16
670.976	18.08
671.163	18.42
671.351	18.58
671.538	18.69
671.726	18.82
671.913	18.97
672.101	18.88
672.289	18.66
672.476	18.65
672.664	18.86
672.851	18.74
673.039	18.92
673.226	18.79
673.413	18.55
673.601	18.62
673.788	18.47
673.976	18.32
674.163	18.72
674.35	18.73
674.538	18.86
674.725	18.85
674.912	18.86
675.1	18.68
675.287	18.83
675.474	19.03
675.662	18.89
675.849	19.18
676.036	19.19
676.223	18.84
676.411	18.82
676.598	18.77
676.785	18.86
676.972	18.94
677.159	19.06
677.346	18.79
677.533	18.86
677.721	18.76
677.908	18.83
678.095	18.9
678.282	18.99
678.469	19.08
678.656	19.32
678.843	19.3
679.03	19.21
679.217	19.25
679.404	19.34
679.591	19.22
679.778	19.2
679.964	19.11
680.151	19.02
680.338	19.16
680.525	19.25
680.712	18.99
680.899	18.82
681.086	18.72
681.272	18.54
681.459	18.53
681.646	18.58
681.833	18.79
682.02	18.82
682.206	18.79
682.393	18.97
682.58	19.08
682.766	19.24
682.953	19.39
683.14	19.6
683.326	19.56
683.513	19.42
683.7	19.77
683.886	19.56
684.073	19.57
684.259	19.42
684.446	18.96
684.632	18.68
684.819	18.55
685.005	18.66
685.192	18.5
685.378	18.64
685.565	18.83
685.751	18.6
685.938	18.85
686.124	18.81
686.31	19.19
686.497	19.43
686.683	19.66
686.87	19.99
687.056	19.68
687.242	19.59
687.429	19.6
687.615	19.5
687.801	19.49
687.987	19.67
688.174	19.86
688.36	19.85
688.546	19.81
688.732	19.47
688.918	19
689.105	19.07
689.291	19.26
689.477	19.24
689.663	19.39
689.849	19.45
690.035	19.39
690.221	19.3
690.407	19.5
690.593	19.08
690.779	19.35
690.965	19.53
691.151	19.55
691.337	19.5
691.523	19.69
691.709	20.03
691.895	19.64
692.081	19.38
692.267	19.42
692.453	19.11
692.639	19.47
692.825	19.6
693.011	19.58
693.196	19.77
693.382	20
693.568	19.72
693.754	19.39
693.94	19.36
694.125	19.64
694.311	19.39
694.497	19.02
694.682	19.21
694.868	19.25
695.054	19.41
695.239	19.6
695.425	19.3
695.611	19.03
695.796	19.14
695.982	19.53
696.168	19.34
696.353	19.66
696.539	19.95
696.724	19.7
696.91	19.33
697.095	19.25
697.281	19.08
697.466	19.31
697.652	19.47
697.837	19.49
698.023	19.35
698.208	19.51
698.393	19.39
698.579	19.43
698.764	19.45
698.949	19.79
699.135	19.92
699.32	19.87
699.505	19.67
699.691	19.77
699.876	19.69
700.061	19.87
700.246	19.55
700.432	19.53
700.617	19.38
700.802	19.32
700.987	19.05
701.172	18.47
701.358	18.25
701.543	18.36
701.728	18.26
701.913	18.4
702.098	18.33
702.283	18.51
702.468	18.56
702.653	19.03
702.838	19.09
703.023	19.14
703.208	19.58
703.393	19.84
703.578	19.99
703.763	20.05
703.948	19.93
704.133	20.1
704.318	20.31
704.503	20.42
704.688	20.53
704.873	20.55
705.057	20.8
705.242	21.03
705.427	21.44
705.612	21.1
705.797	21.23
705.981	21.09
706.166	21.02
706.351	20.92
706.536	20.51
706.72	20.32
706.905	20.56
707.09	20.23
707.274	20.34
707.459	20.01
707.644	20.08
707.828	19.99
708.013	19.96
708.197	19.83
708.382	19.57
708.567	19.71
708.751	19.68
708.936	19.36
709.12	19.73
709.305	19.41
709.489	19.08
709.673	19.32
709.858	19.52
710.042	19.61
710.227	19.67
710.411	19.71
710.596	19.87
710.78	19.66
710.964	20.02
711.149	19.84
711.333	20.02
711.517	20.51
711.702	20.1
711.886	19.85
712.07	19.82
712.254	19.93
712.438	19.94
712.623	20.16
712.807	19.79
712.991	19.81
713.175	19.84
713.359	19.59
713.544	19.44
713.728	19.57
713.912	19.54
714.096	19.57
714.28	19.59
714.464	20.03
714.648	19.49
714.832	19.89
715.016	19.94
715.2	19.98
715.384	20.3
715.568	20.36
715.752	20.43
715.936	20.53
716.12	20.36
716.304	20.4
716.488	19.65
716.671	19.79
716.855	20.08
717.039	19.95
717.223	19.49
717.407	19.41
717.59	19.61
717.774	19.79
717.958	19.64
718.142	19.7
718.325	19.34
718.509	19.54
718.693	19.61
718.877	19.1
719.06	18.97
719.244	19.29
719.428	19.33
719.611	18.87
719.795	18.67
719.978	18.76
720.162	18.87
720.345	19.18
720.529	19.7
720.713	19.85
720.896	19.98
721.08	19.94
721.263	19.97
721.446	20.39
721.63	20.7
721.813	20.68
721.997	20.74
722.18	20.79
722.364	20.64
722.547	20.25
722.73	20.19
722.914	20.06
723.097	20.02
723.28	20.31
723.464	19.7
723.647	19.01
723.83	19.22
724.013	19.55
724.197	19.41
724.38	18.89
724.563	18.97
724.746	19.04
724.929	19.55
725.112	19.85
725.296	19.44
725.479	19.74
725.662	20.13
725.845	20.35
726.028	19.97
726.211	19.98
726.394	20.5
726.577	20.57
726.76	20.51
726.943	20.21
727.126	20.31
727.309	20.53
727.492	20.23
727.675	20.05
727.858	19.54
728.041	19.62
728.224	19.88
728.407	20.3
728.589	20.42
728.772	20.08
728.955	19.98
729.138	19.64
729.321	19.52
729.503	19.88
729.686	20.15
729.869	20.77
730.052	21.06
730.234	20.84
730.417	20.56
730.6	20.28
730.782	20.66
730.965	20.53
731.148	20.65
731.33	20.57
731.513	20.38
731.695	20.63
731.878	20.7
732.061	20.5
732.243	20.87
732.426	20.42
732.608	20.68
732.791	20.85
732.973	21.19
733.156	20.89
733.338	21.18
733.52	21.45
733.703	21.47
733.885	21.13
734.068	21.21
734.25	20.55
734.432	21.09
734.615	21.12
734.797	20.95
734.979	20.93
735.162	21.41
735.344	21.03
735.526	20.96
735.708	20.37
735.891	20.34
736.073	20.01
736.255	20.63
736.437	20.38
736.619	20.64
736.802	20.47
736.984	20.51
737.166	20.09
737.348	20.5
737.53	20.06
737.712	20.37
737.894	20.41
738.076	20.81
738.258	20.98
738.44	21.25
738.622	21.12
738.804	20.86
738.986	20.54
739.168	20.93
739.35	21.21
739.532	21.26
739.714	21.07
739.896	20.68
740.078	20.99
740.259	20.59
740.441	20.52
740.623	20.32
740.805	21.4
740.987	21.69
741.168	21.17
741.35	21.18
741.532	21.41
741.714	21.28
741.895	21.96
742.077	22.08
742.259	22.24
742.44	22.47
742.622	22.51
742.804	21.62
742.985	21.49
743.167	21.31
743.348	21.03
743.53	20.51
743.711	20.97
743.893	21.06
744.075	20.58
744.256	19.59
744.438	19.25
744.619	19.22
744.8	19.38
744.982	19.34
745.163	19.68
745.345	19.64
745.526	19.89
745.707	19.75
745.889	19.95
746.07	19.81
746.252	21.1
746.433	21
746.614	21.16
746.795	21.4
746.977	22.22
747.158	22.51
747.339	22.35
747.52	22.17
747.702	22.87
747.883	22.45
748.064	22.24
748.245	21.35
748.426	21.71
748.607	21.96
748.788	21.79
748.97	21.11
749.151	20.62
749.332	20.71
749.513	21.05
749.694	20.5
749.875	20.72
750.056	21.47
750.237	22.04
750.418	21.87
750.599	21.22
750.78	20.54
750.96	20.38
751.141	21.4
751.322	21.05
751.503	20.86
751.684	20.56
751.865	20.21
752.046	19.77
752.226	19.19
752.407	19.13
752.588	19.58
752.769	20.2
752.949	20.13
753.13	19.74
753.311	19.69
753.492	20.09
753.672	20.25
753.853	20.12
754.034	19.38
754.214	20.24
754.395	20.35
754.575	20.19
754.756	20.45
754.937	21.04
755.117	20.8
755.298	21.26
755.478	21.24
755.659	21.15
755.839	21.51
756.02	22.43
756.2	21.9
756.381	21.99
756.561	21.54
756.741	21.94
756.922	21.86
757.102	22.19
757.283	22.17
757.463	22.73
757.643	22.9
757.823	22.92
758.004	21.68
758.184	22.33
758.364	21.96
758.545	21.86
758.725	20.91
758.905	20.58
759.085	20.07
759.265	20.24
759.446	19.56
759.626	20.08
759.806	20.21
759.986	21.26
760.166	20.92
760.346	20.9
760.526	20.72
760.706	21.12
760.886	21.31
761.066	21.58
761.246	21.95
761.426	22.35
761.606	21.89
761.786	21.36
761.966	21.34
762.146	21.04
762.326	21.21
762.506	21.66
762.686	21.46
762.866	21.47
763.046	21.32
763.225	20.88
763.405	20.7
763.585	20.95
763.765	20.82
763.945	20.85
764.124	20.79
764.304	20.62
764.484	20.37
764.664	20.24
764.843	20.26
765.023	20.35
765.203	20.75
765.382	20.85
765.562	20.83
765.741	21.19
765.921	21.14
766.101	22.01
766.28	21.72
766.46	21.22
766.639	21.6
766.819	21.63
766.998	21.99
767.178	21.58
767.357	21.52
767.537	20.73
767.716	20.66
767.896	20.33
768.075	19.56
768.254	19.72
768.434	20.75
768.613	21.69
768.792	20.53
768.972	20.21
769.151	20.06
769.33	20.46
769.51	20.42
769.689	20.55
769.868	20.17
770.047	20.01
770.226	21.07
770.406	20.73
770.585	20
770.764	20.98
770.943	21.02
771.122	21.41
771.301	20.87
771.48	20.97
771.66	21.68
771.839	23.04
772.018	23.27
772.197	22.85
772.376	22.86
772.555	22.51
772.734	23.19
772.913	22.91
773.092	23.36
773.271	23.31
773.449	23.02
773.628	22.66
773.807	21.88
773.986	21.5
774.165	21.81
774.344	22.19
774.523	23.05
774.701	22.27
774.88	21.98
775.059	21.59
775.238	21.9
775.417	22.34
775.595	22.12
775.774	21.94
775.953	22.44
776.131	21.76
776.31	21.75
776.489	20.54
776.667	20.97
776.846	21.55
777.025	21.47
777.203	20.74
777.382	22.08
777.56	21.46
777.739	21.3
777.917	20.46
778.096	20.86
778.274	19.94
778.453	20.29
778.631	19.8
778.81	19.96
778.988	20.07
779.166	20.14
779.345	19.35
779.523	19.91
779.702	20.05
779.88	21.25
780.058	20.83
780.237	21.14
780.415	21.21
780.593	21.82
780.771	21.4
780.95	20.23
781.128	21.24
781.306	20.95
781.484	21
781.662	21.55
781.841	21.63
782.019	21.11
782.197	21.51
782.375	21.66
782.553	20.99
782.731	21.58
782.909	22.98
783.087	22.54
783.265	22.58
783.443	22.91
783.621	22.87
783.799	23.28
783.977	24.57
784.155	24.37
784.333	24.37
784.511	24.55
784.689	24.5
784.867	24.08
785.045	23.54
785.223	23.48
785.4	23.38
785.578	22.44
785.756	22.27
785.934	20.79
786.112	21.58
786.289	21.78
786.467	21.7
786.645	21.48
786.823	21.5
787	21.75
787.178	21.48
787.356	21.71
787.533	22.07
787.711	21.89
787.889	22.96
788.066	23.1
788.244	23.28
788.421	24.23
788.599	24.36
788.776	23.97
788.954	24.29
789.131	25.04
789.309	23.74
789.486	23.6
789.664	23.22
789.841	23.46
790.019	23.25
790.196	22.67
790.373	22.23
790.551	21.62
790.728	22.39
790.906	21.15
791.083	20.4
791.26	21.54
791.437	21.34
791.615	22.41
791.792	22.43
791.969	21.87
792.146	22.77
792.324	22.55
792.501	22.81
792.678	23.28
792.855	24.15
793.032	24.53
793.209	24.17
793.387	25.34
793.564	24.74
793.741	24.02
793.918	24.3
794.095	23.09
794.272	22.48
794.449	23.06
794.626	22.01
794.803	21.77
794.98	21.27
795.157	22.21
795.334	22.17
795.511	22.13
795.688	21.76
795.864	21.03
796.041	20.62
796.218	20.38
796.395	20.04
796.572	20.62
796.749	20.92
796.925	21.51
797.102	20.91
797.279	20.37
797.456	20.46
797.632	20.18
797.809	20.14
797.986	21.33
798.162	22.11
798.339	22.02
798.516	21.66
798.692	21.94
798.869	22.4
799.046	21.98
799.222	21.52
799.399	22.07
799.575	22.86
799.752	23.44
799.928	23.1
800.105	22.57
800.281	22.18
800.458	22.01
800.634	22.2
800.811	21.77
800.987	21.9
801.163	22.57
801.34	21.65
801.516	21.59
801.692	21.32
801.869	22.09
802.045	23.27
802.221	24.22
802.398	22.96
802.574	22.73
802.75	22.03
802.926	22.17
803.103	22.83
803.279	23.17
803.455	23.1
803.631	24.22
803.807	23.77
803.983	23.66
804.16	23.32
804.336	24.43
804.512	24.35
804.688	24.64
804.864	25.39
805.04	24.62
805.216	24.72
805.392	25.16
805.568	23.6
805.744	23.51
805.92	23.13
806.096	23.28
806.272	23.47
806.448	23.96
806.623	24.57
806.799	25.36
806.975	25.37
807.151	25.06
807.327	24.69
807.503	25.62
807.678	25.17
807.854	24.47
808.03	25.03
808.206	23.91
808.381	23.05
808.557	22.81
808.733	21.63
808.908	22.72
809.084	22.26
809.26	21.86
809.435	22.83
809.611	23.34
809.787	24.23
809.962	22.6
810.138	24.41
810.313	24.69
810.489	25.02
810.664	24.23
810.84	23.4
811.015	24.04
811.191	24.56
811.366	23.93
811.542	24.45
811.717	24.18
811.892	24.73
812.068	24.08
812.243	23.39
812.419	21.97
812.594	22.66
812.769	22.79
812.944	22.11
813.12	22.21
813.295	21.62
813.47	20.43
813.645	20.53
813.821	20.55
813.996	20.84
814.171	20.58
814.346	20.65
814.521	20.68
814.697	20.21
814.872	19.99
815.047	20.03
815.222	20.2
815.397	20.35
815.572	20.43
815.747	21.69
815.922	22.01
816.097	22.38
816.272	22.71
816.447	22.25
816.622	21.84
816.797	21.94
816.972	22.13
817.147	23.13
817.322	23.33
817.496	23.71
817.671	22.76
817.846	23.18
818.021	23.11
818.196	23.32
818.371	24.05
818.545	23.97
818.72	25.45
818.895	26.09
819.069	24.45
819.244	25.02
819.419	24.66
819.594	25.06
819.768	24.59
819.943	24.48
820.117	24.34
820.292	24.17
820.467	24.19
820.641	23.2
820.816	22.77
820.99	22.5
821.165	22.43
821.339	22.37
821.514	22.15
821.688	21.91
821.863	21.81
822.037	21.75
822.212	21.44
822.386	21.47
822.56	21.4
822.735	21.38
822.909	21.63
823.084	21.39
823.258	21.21
823.432	21.06
823.606	21.17
823.781	21.44
823.955	21.46
824.129	21.51
824.303	21.21
824.478	21.49
824.652	21.13
824.826	21.25
825	21.32
825.174	21.45
825.348	21.44
825.523	21.56
825.697	21.73
825.871	21.86
826.045	22.17
826.219	22.47
826.393	22.56
826.567	23.18
826.741	22.98
826.915	22.97
827.089	23.2
827.263	23.59
827.437	23.62
827.611	23.41
827.784	23.29
827.958	23.52
828.132	23.72
828.306	23.68
828.48	23.15
828.654	22.99
828.827	22.98
829.001	22.37
829.175	21.82
829.349	21.83
829.522	21.46
829.696	21.51
829.87	20.37
830.044	20.53
830.217	21.28
830.391	21.07
830.565	21.84
830.738	21.64
830.912	22.47
831.085	23.65
831.259	24.57
831.432	25.21
831.606	25.98
831.779	25.6
831.953	25.3
832.126	25.05
832.3	25.79
832.473	25.45
832.647	25.9
832.82	25.74
832.994	24.54
833.167	23.87
833.34	23.47
833.514	22.85
833.687	23.49
833.86	22.61
834.034	21.61
834.207	20.87
834.38	21.22
834.553	21.06
834.727	21.31
834.9	21.31
835.073	21.23
835.246	21.12
835.419	20.82
835.593	20.78
835.766	22.36
835.939	23.19
836.112	23.57
836.285	23.34
836.458	23.8
836.631	23.32
836.804	23.83
836.977	23.38
837.15	24.24
837.323	24.79
837.496	25.12
837.669	23.6
837.842	23.28
838.015	23.83
838.188	23.55
838.361	23.28
838.533	24.22
838.706	24.85
838.879	24.64
839.052	24.52
839.225	25.53
839.398	26.28
839.57	26.67
839.743	26.15
839.916	25.99
840.088	26.03
840.261	26.45
840.434	26.46
840.607	26.96
840.779	28.19
840.952	27.49
841.124	26.09
841.297	25.63
841.47	26.24
841.642	26.97
841.815	27.22
841.987	27.46
842.16	27.7
842.332	26.43
842.505	25.78
842.677	23.21
842.85	23.23
843.022	23.93
843.194	23.67
843.367	23.38
843.539	24.38
843.712	24.75
843.884	25.47
844.056	23.85
844.229	26.19
844.401	27.64
844.573	31.31
844.745	28.63
844.918	28.56
845.09	27.38
845.262	27.25
845.434	26.62
845.606	26.98
845.779	28.57
845.951	30.32
846.123	28.12
846.295	25.86
846.467	25.21
846.639	28.19
846.811	27.58
846.983	28.11
847.155	29.1
847.327	31.16
847.499	32.03
847.671	30.28
847.843	26.08
848.015	25.51
848.187	24.6
848.359	24.04
848.531	24.43
848.703	24.76
848.875	24.66
849.047	26.29
849.218	25.97
849.39	24.2
849.562	22.08
849.734	25.87
849.905	28.29
850.077	29.15
850.249	27.4
850.421	26.36
850.592	28.16
850.764	28.35
850.936	25.16
851.107	21.88
851.279	19.42
851.451	25
851.622	24.87
851.794	24.57
851.965	28.94
852.137	32.07
852.308	35.74
852.48	34.94
852.651	35.93
852.823	39.99
852.994	40.02
853.166	41.09
853.337	39.25
853.509	40.47
853.68	37.24
853.851	33.18
854.023	33.46
854.194	29.76
854.365	30.96
854.537	32.14
854.708	30.47
854.879	32.05
855.05	34.84
855.222	30.41
855.393	27.9
855.564	30.12
855.735	32.31
855.906	30.35
856.078	30.84
856.249	30.92
856.42	31.05
856.591	28.8
856.762	30.78
856.933	29.54
857.104	32.33
857.275	34.34
857.446	34.09
857.617	33.79
857.788	36.56
857.959	38.86
858.13	36.33
858.301	32.6
858.472	34.05
858.643	30.86
858.814	31.8
858.985	33.77
859.155	31.76
859.326	33.1
859.497	32.96
859.668	27.29
859.839	23.22
860.009	24.28
860.18	23.41
860.351	23.21
860.522	21.46
860.692	17.94
860.863	14.39
861.034	18.1
861.204	17.81
861.375	18.65
861.546	20.45
861.716	23.14
861.887	23.31
862.057	25.59
862.228	24.51
862.398	27.45
862.569	31.03
862.739	32.51
862.91	30.36
863.08	28.24
863.251	25.4
863.421	27.42
863.592	33.4
863.762	34.43
863.932	34.12
864.103	34.67
864.273	36.18
864.443	32.04
864.614	31.34
864.784	27.48
864.954	27.93
865.125	28.74
865.295	29.74
865.465	27.82
865.635	24.7
865.805	22.85
865.976	22.87
866.146	19.78
866.316	24.38
866.486	20.73
866.656	21.99
866.826	25.15
866.996	22.65
867.166	20.08
867.336	18.63
867.506	21.16
867.676	21.95
867.846	21.74
868.016	22.14
868.186	21.77
868.356	30.27
868.526	34.43
868.696	31.41
868.866	30.58
869.036	31.83
869.206	30.15
869.376	29.34
869.545	30.75
869.715	36.04
869.885	36.9
870.055	33.04
870.224	31.14
870.394	29.77
870.564	30.68
870.734	36.85
870.903	35.66
871.073	37.77
871.243	38.97
871.412	40.29
871.582	34.31
871.751	36.48
871.921	39.2
872.091	40.53
872.26	43.36
872.43	40.88
872.599	37.71
872.769	37.4
872.938	39.42
873.108	37.87
873.277	36.54
873.446	36.82
873.616	33.49
873.785	31.34
873.955	30.08
874.124	23.45
874.293	24.01
874.463	24.34
874.632	25.06
874.801	21.62
874.971	21.15
875.14	23.17
875.309	21.7
875.478	19.71
875.647	20.76
875.817	18.39
875.986	23.33
876.155	23.41
876.324	24.45
876.493	25.51
876.662	23.03
876.831	26.54
877	22.03
877.17	23.98
877.339	26.38
877.508	24.94
877.677	25.54
877.846	23.21
878.015	23.47
878.184	23.33
878.352	23.21
878.521	24.79
878.69	24.49
878.859	26.16
879.028	23.44
879.197	22.88
879.366	25.52
879.534	26.77
879.703	28.53
879.872	28.56
880.041	26.12
880.21	24.59
880.378	25.11
880.547	24.3
880.716	24.71
880.884	25.23
881.053	25.05
881.222	24.45
881.39	22.88
881.559	22.55
881.727	22.83
881.896	23.37
882.065	23.4
882.233	23.11
882.402	23.43
882.57	22.62
882.739	22.78
882.907	23.37
883.076	23.52
883.244	24.43
883.412	23.68
883.581	23.74
883.749	24.08
883.918	24.91
884.086	24.65
884.254	24.75
884.423	25.83
884.591	25.72
884.759	25.6
884.927	24.81
885.096	23.48
885.264	24.34
885.432	23.98
885.6	23.75
885.769	22.83
885.937	24.03
886.105	24.16
886.273	23.06
886.441	24.31
886.609	22.66
886.777	22.59
886.945	24.04
887.113	22.92
887.281	21.2
887.449	20.6
887.617	19.75
887.785	18.15
887.953	16.6
888.121	17.01
888.289	15.75
888.457	18.37
888.625	20.38
888.793	19.33
888.961	21.4
889.129	23.99
889.296	21.26
889.464	22.18
889.632	23.31
889.8	23.58
889.967	20.87
890.135	19.75
