Data from 2938573_Reflection_3.txt Node
Date: Sun Jun 14 21:50:14 EDT 2015
User: robert
Spectrometer: USB4E03002
Autoset integration time: false
Trigger mode: 4
Integration Time (sec): 1.000000E-1
Scans to average: 10
Electric dark correction enabled: true
Nonlinearity correction enabled: false
Boxcar width: 5
Stray light correction enabled: false
XAxis mode: Wavelengths
Stop averaging: false
Number of Pixels in Spectrum: 3648
>>>>>Begin Spectral Data<<<<<
177.575	480.3
177.794	727.21
178.014	10724.68
178.233	-27396.87
178.452	-1917.96
178.672	-1080.57
178.891	23.27
179.11	321.86
179.33	261.02
179.549	336.73
179.768	680.18
179.987	506.67
180.207	555.01
180.426	922.82
180.645	906.34
180.864	469.45
181.084	457.01
181.303	553.71
181.522	340.23
181.741	341.4
181.96	254.83
182.179	264.99
182.398	224.4
182.618	251.71
182.837	209.74
183.056	166.71
183.275	205.25
183.494	269.3
183.713	256.55
183.932	272.37
184.151	250.95
184.37	288.8
184.589	274.38
184.808	277.43
185.027	236.26
185.246	295.96
185.465	309.71
185.684	299.76
185.903	314.84
186.122	258.97
186.341	261.29
186.56	281.57
186.779	235.57
186.998	218.56
187.216	261.61
187.435	291.01
187.654	297.8
187.873	344.13
188.092	443.07
188.311	335.02
188.53	413.78
188.748	496.55
188.967	1045.49
189.186	847.67
189.405	-2998.81
189.623	-69127.78
189.842	-1034.41
190.061	-944.16
190.28	-1118.97
190.498	-2023.58
190.717	-5053.23
190.936	1603.96
191.154	1490.23
191.373	506.55
191.592	1011.51
191.81	324.77
192.029	409.74
192.248	252.32
192.466	222.36
192.685	182.12
192.904	215.09
193.122	235.07
193.341	235.2
193.559	234.77
193.778	262.83
193.996	244.77
194.215	258.82
194.433	228.89
194.652	212.19
194.87	236.96
195.089	250.03
195.307	202.86
195.526	190.42
195.744	233.64
195.963	223.51
196.181	273.13
196.399	303.66
196.618	261.97
196.836	239.92
197.055	250.12
197.273	231.08
197.491	261.22
197.71	280.07
197.928	271.25
198.146	235.25
198.365	269.9
198.583	180.48
198.801	165.03
199.019	198.34
199.238	214.38
199.456	171.91
199.674	193.64
199.892	174.15
200.111	164.7
200.329	161.96
200.547	148.45
200.765	136.9
200.983	123.46
201.202	108.94
201.42	119.51
201.638	128.85
201.856	140.23
202.074	142.85
202.292	160.42
202.51	244.35
202.728	245.37
202.946	237.54
203.165	237.78
203.383	243.12
203.601	223.28
203.819	187.39
204.037	207.91
204.255	246.1
204.473	266.83
204.691	201.72
204.909	159.89
205.127	176.98
205.345	127.58
205.562	117.12
205.78	115.85
205.998	131.41
206.216	142.11
206.434	156.22
206.652	147.92
206.87	145.9
207.088	152.2
207.306	170.34
207.523	178.65
207.741	241.05
207.959	235.53
208.177	216.17
208.395	213.02
208.612	246.93
208.83	194.84
209.048	180.76
209.266	173.06
209.483	186.3
209.701	157.09
209.919	151.2
210.136	148.84
210.354	177.39
210.572	197.58
210.79	225.76
211.007	241.65
211.225	266.31
211.442	236.19
211.66	241.4
211.878	255.83
212.095	374.59
212.313	324.55
212.53	327.63
212.748	274.78
212.966	260.33
213.183	246.22
213.401	214.03
213.618	237.84
213.836	306.84
214.053	284.38
214.271	230.92
214.488	139.92
214.705	154.23
214.923	127.45
215.14	133.09
215.358	121.51
215.575	93.94
215.793	121.83
216.01	106.87
216.227	94.81
216.445	102.23
216.662	87.51
216.879	92.18
217.097	76.88
217.314	85.36
217.531	105.23
217.749	119.78
217.966	149.28
218.183	120.69
218.4	112.28
218.618	113.9
218.835	103.02
219.052	107.28
219.269	102.17
219.487	107.63
219.704	109.63
219.921	96.88
220.138	88.14
220.355	79.49
220.572	78.85
220.79	75.83
221.007	79.01
221.224	70.17
221.441	73.9
221.658	76.57
221.875	73.89
222.092	61.94
222.309	58.12
222.526	60.55
222.743	61.73
222.96	61.29
223.177	65.74
223.394	54.72
223.611	60.06
223.828	57.88
224.045	53.54
224.262	51.71
224.479	53.86
224.696	53.06
224.913	49.27
225.13	44.36
225.347	39.54
225.564	33.84
225.781	32.04
225.997	30.79
226.214	27.64
226.431	25.24
226.648	23.14
226.865	23.32
227.082	21.75
227.298	20.65
227.515	20.21
227.732	19.61
227.949	19.97
228.165	20.03
228.382	19.1
228.599	18.8
228.816	19.1
229.032	18.72
229.249	18.45
229.466	18.91
229.682	20.37
229.899	20.77
230.116	21.08
230.332	20.96
230.549	21.77
230.765	21.23
230.982	20.23
231.199	21.19
231.415	24.08
231.632	22.63
231.848	21.43
232.065	20.54
232.281	22.65
232.498	23.7
232.714	24.49
232.931	24.64
233.147	24.68
233.364	25.97
233.58	24.01
233.797	24.67
234.013	25.3
234.23	25.5
234.446	24.74
234.662	23.66
234.879	24.52
235.095	24.18
235.312	24.76
235.528	28.35
235.744	27.78
235.961	27.41
236.177	22.67
236.393	25.77
236.61	27.07
236.826	27.43
237.042	26.78
237.258	24.38
237.475	23.91
237.691	21.79
237.907	18.28
238.123	18.51
238.339	19.85
238.556	22.61
238.772	19.28
238.988	17.46
239.204	17.31
239.42	17.21
239.636	16.9
239.853	16.38
240.069	16.25
240.285	15.66
240.501	14.43
240.717	14.18
240.933	13.56
241.149	14.05
241.365	14.61
241.581	14.63
241.797	14.71
242.013	14
242.229	13.96
242.445	14.02
242.661	14.36
242.877	15.37
243.093	15.15
243.309	14.53
243.525	13.73
243.741	13.17
243.957	12.29
244.173	10.62
244.388	11.71
244.604	11.03
244.82	10.72
245.036	10.1
245.252	9.75
245.468	9.74
245.683	10.03
245.899	10.23
246.115	9.94
246.331	9.98
246.547	10.47
246.762	10.22
246.978	10.3
247.194	10.7
247.409	11.04
247.625	11.53
247.841	11.38
248.057	11.41
248.272	11.32
248.488	12.05
248.703	11.57
248.919	12.4
249.135	12.4
249.35	12.88
249.566	12.99
249.782	13.27
249.997	13.35
250.213	12.64
250.428	11.97
250.644	12.33
250.859	12.34
251.075	13.15
251.29	12.53
251.506	12.69
251.721	13.19
251.937	12.65
252.152	13.15
252.368	12.94
252.583	14.83
252.798	16.04
253.014	15.75
253.229	14.59
253.445	14.65
253.66	15.29
253.875	15.51
254.091	15.03
254.306	15.45
254.521	14.42
254.737	13.69
254.952	12.53
255.167	11.99
255.383	12.27
255.598	12.83
255.813	12
256.028	11.38
256.244	10.75
256.459	10.1
256.674	9.55
256.889	9.13
257.104	8.71
257.32	8.74
257.535	8.42
257.75	7.63
257.965	7.42
258.18	7.63
258.395	7.69
258.61	7.68
258.826	7.42
259.041	7.56
259.256	7.61
259.471	7.7
259.686	7.65
259.901	7.81
260.116	8.03
260.331	7.82
260.546	7.76
260.761	7.45
260.976	6.89
261.191	7.52
261.406	7.48
261.621	7.68
261.836	7.74
262.05	7.61
262.265	7.65
262.48	8.61
262.695	9.21
262.91	10.3
263.125	10.52
263.34	11.43
263.555	11.54
263.769	11.06
263.984	11.09
264.199	11.69
264.414	11.21
264.629	10.74
264.843	10.22
265.058	10.43
265.273	9.28
265.488	8.93
265.702	8.17
265.917	8.32
266.132	8.92
266.346	9.11
266.561	9.19
266.776	9.96
266.99	10.22
267.205	10.14
267.42	9.49
267.634	9.17
267.849	8.92
268.063	9.5
268.278	9.36
268.492	9.37
268.707	8.67
268.922	8.36
269.136	7.63
269.351	7.46
269.565	7.39
269.78	7.1
269.994	7.23
270.209	7.83
270.423	7.64
270.637	7.51
270.852	7
271.066	7.66
271.281	7.58
271.495	7.77
271.709	7.81
271.924	7.97
272.138	9.11
272.353	9.57
272.567	9.17
272.781	9.63
272.996	9.47
273.21	9.75
273.424	9.34
273.638	9.61
273.853	9.51
274.067	9.77
274.281	9.85
274.495	8.86
274.71	8.87
274.924	8.94
275.138	8.43
275.352	8.42
275.566	8.7
275.781	8.39
275.995	8.56
276.209	9.11
276.423	8.9
276.637	8.82
276.851	8.98
277.065	8.45
277.279	9.06
277.493	9.21
277.707	8.99
277.921	8.54
278.135	8.23
278.349	7.44
278.563	6.75
278.777	6.7
278.991	6.34
279.205	6.88
279.419	6.93
279.633	6.71
279.847	6.92
280.061	6.99
280.275	6.88
280.489	7.83
280.703	8.07
280.917	8.31
281.131	8.09
281.344	8.71
281.558	8.4
281.772	8.34
281.986	7.92
282.2	7.96
282.414	7.59
282.627	7.44
282.841	6.87
283.055	7.03
283.269	7.1
283.482	7.05
283.696	6.5
283.91	6.64
284.123	6.48
284.337	6.63
284.551	6.26
284.764	6.88
284.978	7.14
285.192	7.06
285.405	6.9
285.619	6.92
285.833	7.45
286.046	7.64
286.26	7.69
286.473	7.71
286.687	8.02
286.9	7.88
287.114	7.6
287.327	7.83
287.541	8.18
287.754	7.72
287.968	7.66
288.181	7.21
288.395	7.04
288.608	7.18
288.822	7.28
289.035	6.94
289.248	7.48
289.462	7.72
289.675	7.6
289.889	7.53
290.102	7.49
290.315	7.48
290.529	7.68
290.742	7.67
290.955	7.28
291.169	7.44
291.382	7.48
291.595	7.38
291.808	7.59
292.022	7.84
292.235	7.82
292.448	8.52
292.661	8.55
292.875	8.26
293.088	8.48
293.301	8.88
293.514	8.69
293.727	8.69
293.94	8.09
294.153	7.86
294.367	7.1
294.58	6.82
294.793	6.55
295.006	6.64
295.219	6.63
295.432	6.68
295.645	6.34
295.858	6.34
296.071	6.08
296.284	6.56
296.497	6.68
296.71	6.95
296.923	7.46
297.136	7.49
297.349	7.47
297.562	7.55
297.775	7.63
297.988	7.81
298.201	8.37
298.414	8.5
298.626	8.37
298.839	8.2
299.052	8.43
299.265	8.28
299.478	8.01
299.691	7.82
299.903	7.77
300.116	7.42
300.329	7.64
300.542	7.01
300.755	7
300.967	7.45
301.18	7.28
301.393	6.93
301.605	6.48
301.818	7.02
302.031	7.1
302.243	7.36
302.456	7.46
302.669	7.08
302.881	7.87
303.094	8.19
303.307	7.74
303.519	7.84
303.732	8.3
303.944	8.4
304.157	8.43
304.37	8.59
304.582	8.59
304.795	9.11
305.007	9.38
305.22	8.9
305.432	8.7
305.645	9.06
305.857	9.29
306.069	9.24
306.282	9.17
306.494	9.02
306.707	8.93
306.919	8.49
307.132	8.09
307.344	7.89
307.556	7.97
307.769	8.46
307.981	8.16
308.193	7.81
308.406	7.14
308.618	7.18
308.83	6.96
309.043	6.95
309.255	7.39
309.467	7.39
309.679	7.51
309.892	7.57
310.104	7.42
310.316	7.16
310.528	7.27
310.74	7.65
310.953	7.93
311.165	7.97
311.377	8.07
311.589	8.02
311.801	7.81
312.013	7.86
312.225	7.84
312.437	8.03
312.649	8.88
312.862	8.88
313.074	9.3
313.286	9.41
313.498	9.76
313.71	9.8
313.922	9.73
314.134	10.05
314.346	9.91
314.558	10.22
314.77	10.19
314.982	10.07
315.193	10.43
315.405	10.33
315.617	9.4
315.829	9.14
316.041	8.8
316.253	8.91
316.465	9.62
316.677	9.84
316.888	9.93
317.1	9.94
317.312	9.88
317.524	9.92
317.736	9.95
317.947	11.14
318.159	11.48
318.371	12.01
318.583	12.3
318.794	11.6
319.006	11.76
319.218	11.2
319.43	11.18
319.641	11.6
319.853	11.23
320.064	11.39
320.276	11.29
320.488	11.05
320.699	11.06
320.911	10.81
321.123	11.03
321.334	11.13
321.546	11.51
321.757	11.71
321.969	11.67
322.18	12.16
322.392	11.96
322.603	11.79
322.815	12.04
323.026	11.78
323.238	12.16
323.449	12.38
323.661	12.05
323.872	12.19
324.083	12.36
324.295	12.08
324.506	11.62
324.718	11.33
324.929	11.53
325.14	11.77
325.352	12.13
325.563	12.05
325.774	11.82
325.986	11.98
326.197	11.59
326.408	11.21
326.62	11.07
326.831	11.7
327.042	12.13
327.253	12.21
327.464	12.14
327.676	12.16
327.887	12.15
328.098	12.69
328.309	12.97
328.52	13.82
328.732	14.28
328.943	14.69
329.154	14.71
329.365	14.82
329.576	14.68
329.787	15.11
329.998	15.2
330.209	15.43
330.42	15.26
330.631	15.29
330.842	15.03
331.053	14.83
331.264	14.74
331.475	15.1
331.686	15.22
331.897	15.29
332.108	15.53
332.319	15.47
332.53	15.75
332.741	15.75
332.952	15.66
333.163	15.67
333.374	15.98
333.585	15.88
333.795	15.3
334.006	15.76
334.217	15.86
334.428	15.65
334.639	16.25
334.849	15.66
335.06	15.51
335.271	15.44
335.482	15.35
335.692	15.14
335.903	15.52
336.114	15.68
336.325	15.13
336.535	15.59
336.746	15.53
336.957	15.11
337.167	15.32
337.378	15.26
337.589	15.98
337.799	16.17
338.01	16.55
338.22	16.13
338.431	15.69
338.642	15.73
338.852	15.05
339.063	14.78
339.273	14.54
339.484	14.5
339.694	14.49
339.905	14.44
340.115	14.06
340.326	13.5
340.536	14.11
340.746	14.55
340.957	14.7
341.167	15.1
341.378	15
341.588	15.38
341.799	15.38
342.009	15.66
342.219	15.2
342.43	15.25
342.64	15.56
342.85	15.27
343.061	15.27
343.271	15.46
343.481	14.97
343.691	15.27
343.902	15.1
344.112	15.15
344.322	15
344.532	15
344.743	14.77
344.953	14.51
345.163	14.31
345.373	14.34
345.583	14.15
345.793	14.54
346.004	14.37
346.214	14.24
346.424	14.17
346.634	14.14
346.844	14.37
347.054	14.77
347.264	15.08
347.474	15.36
347.684	15.19
347.894	15.05
348.104	15.15
348.314	15.17
348.524	15.05
348.734	14.74
348.944	14.89
349.154	14.87
349.364	14.96
349.574	14.43
349.784	14.22
349.994	14.67
350.204	14.54
350.413	14.29
350.623	14.56
350.833	14.63
351.043	14.99
351.253	15.06
351.463	14.6
351.672	14.58
351.882	14.72
352.092	14.92
352.302	14.96
352.511	15.22
352.721	14.93
352.931	14.65
353.141	14.69
353.35	14.8
353.56	14.51
353.77	14.58
353.979	14.5
354.189	14.61
354.399	14.44
354.608	13.84
354.818	13.84
355.027	14.3
355.237	14.39
355.447	14.25
355.656	13.95
355.866	13.97
356.075	14.07
356.285	13.98
356.494	14.14
356.704	14.04
356.913	14.3
357.123	14.19
357.332	13.78
357.542	13.7
357.751	13.77
357.96	13.96
358.17	13.79
358.379	13.74
358.589	13.45
358.798	13.5
359.007	13.43
359.217	13.21
359.426	12.96
359.635	13.21
359.845	13.03
360.054	12.89
360.263	12.83
360.472	12.99
360.682	13.02
360.891	13.31
361.1	12.97
361.309	13.17
361.519	13.53
361.728	13.93
361.937	13.92
362.146	14.05
362.355	14.21
362.564	14.44
362.774	14.34
362.983	14.16
363.192	14.19
363.401	14.34
363.61	14.04
363.819	13.86
364.028	13.54
364.237	13.42
364.446	13.43
364.655	13.23
364.864	12.98
365.073	13.25
365.282	13.46
365.491	13.36
365.7	13.22
365.909	13.45
366.118	13.38
366.327	13.36
366.536	13.46
366.745	13.72
366.954	14.14
367.162	14.25
367.371	14.07
367.58	14.09
367.789	13.69
367.998	13.64
368.207	13.55
368.415	13.48
368.624	13.54
368.833	13.42
369.042	13.18
369.25	13.18
369.459	13.4
369.668	13.24
369.877	12.93
370.085	13.33
370.294	13.54
370.503	13.52
370.711	13.95
370.92	13.92
371.129	13.98
371.337	13.84
371.546	13.63
371.754	13.5
371.963	13.59
372.171	13.56
372.38	13.43
372.589	13.54
372.797	13.67
373.006	12.97
373.214	12.79
373.423	12.79
373.631	12.89
373.84	12.82
374.048	12.65
374.256	12.54
374.465	13.06
374.673	13.18
374.882	12.78
375.09	12.67
375.298	12.84
375.507	13.03
375.715	12.97
375.923	12.82
376.132	12.55
376.34	12.37
376.548	12.4
376.757	12.15
376.965	12.03
377.173	12.23
377.381	12.31
377.59	12.54
377.798	12.38
378.006	12.28
378.214	12.35
378.423	12.59
378.631	12.54
378.839	12.68
379.047	12.91
379.255	12.79
379.463	12.94
379.671	12.66
379.879	12.37
380.088	12.63
380.296	12.59
380.504	12.45
380.712	12.6
380.92	12.68
381.128	12.66
381.336	12.15
381.544	12.27
381.752	12.26
381.96	12.36
382.168	12.19
382.376	12.2
382.584	12.39
382.791	12.48
382.999	12.48
383.207	12.42
383.415	12.66
383.623	12.87
383.831	12.86
384.039	12.51
384.247	12.5
384.454	12.97
384.662	12.62
384.87	12.63
385.078	12.77
385.285	12.57
385.493	12.57
385.701	12.12
385.909	12.13
386.116	11.98
386.324	12.2
386.532	12.05
386.739	11.73
386.947	11.87
387.155	12.07
387.362	11.83
387.57	11.68
387.778	11.6
387.985	11.65
388.193	11.57
388.4	11.56
388.608	11.79
388.816	12.08
389.023	12.2
389.231	12.34
389.438	11.89
389.646	12.01
389.853	12.22
390.061	12.22
390.268	12.3
390.475	12.28
390.683	12.43
390.89	12.18
391.098	11.99
391.305	11.9
391.512	11.68
391.72	11.57
391.927	11.47
392.135	11.51
392.342	11.66
392.549	11.72
392.756	11.7
392.964	11.57
393.171	11.72
393.378	11.72
393.586	11.83
393.793	11.82
394	11.78
394.207	11.67
394.414	11.78
394.622	11.6
394.829	11.51
395.036	11.34
395.243	11.25
395.45	11.02
395.657	11.09
395.864	10.88
396.072	11.21
396.279	11.38
396.486	11.6
396.693	11.41
396.9	11.58
397.107	11.42
397.314	11.61
397.521	11.75
397.728	11.77
397.935	11.67
398.142	11.77
398.349	11.64
398.556	11.58
398.763	11.52
398.97	11.59
399.177	11.4
399.383	11.49
399.59	11.38
399.797	11.5
400.004	11.53
400.211	11.71
400.418	11.66
400.625	11.48
400.831	11.57
401.038	11.52
401.245	11.54
401.452	11.44
401.658	11.28
401.865	11.3
402.072	11.17
402.279	11.23
402.485	10.95
402.692	10.82
402.899	10.63
403.105	10.67
403.312	10.66
403.519	10.52
403.725	10.61
403.932	10.87
404.138	10.83
404.345	10.75
404.552	10.58
404.758	10.82
404.965	10.91
405.171	10.95
405.378	10.77
405.584	10.8
405.791	10.77
405.997	10.78
406.204	10.77
406.41	10.84
406.617	10.99
406.823	10.96
407.029	10.96
407.236	10.83
407.442	11.14
407.649	11.38
407.855	11.26
408.061	11.38
408.268	11.35
408.474	11.13
408.68	11.12
408.887	10.98
409.093	11.03
409.299	10.92
409.505	10.74
409.712	10.59
409.918	10.38
410.124	10.44
410.33	10.24
410.537	10.19
410.743	10.33
410.949	10.31
411.155	10.31
411.361	10.3
411.567	10.3
411.773	10.6
411.98	10.45
412.186	10.52
412.392	10.54
412.598	10.59
412.804	10.68
413.01	10.42
413.216	10.39
413.422	10.48
413.628	10.45
413.834	10.33
414.04	10.24
414.246	10.36
414.452	10.32
414.658	10.24
414.864	10.2
415.07	10.09
415.275	10.17
415.481	10.17
415.687	10.09
415.893	10
416.099	9.89
416.305	9.91
416.511	9.86
416.716	9.78
416.922	9.77
417.128	9.87
417.334	9.91
417.539	9.92
417.745	9.9
417.951	9.87
418.157	9.92
418.362	9.95
418.568	9.92
418.774	9.89
418.979	9.9
419.185	9.84
419.391	9.72
419.596	9.6
419.802	9.51
420.008	9.49
420.213	9.63
420.419	9.68
420.624	9.68
420.83	9.67
421.035	9.68
421.241	9.7
421.446	9.73
421.652	9.71
421.857	9.76
422.063	9.71
422.268	9.67
422.474	9.42
422.679	9.32
422.885	9.3
423.09	9.21
423.295	9.13
423.501	9.09
423.706	9.05
423.911	9.05
424.117	9.04
424.322	9.18
424.527	9.19
424.733	9.3
424.938	9.37
425.143	9.35
425.349	9.42
425.554	9.52
425.759	9.57
425.964	9.6
426.169	9.63
426.375	9.72
426.58	9.69
426.785	9.7
426.99	9.7
427.195	9.68
427.4	9.58
427.605	9.69
427.811	9.69
428.016	9.59
428.221	9.73
428.426	9.66
428.631	9.52
428.836	9.46
429.041	9.48
429.246	9.4
429.451	9.33
429.656	9.48
429.861	9.38
430.066	9.38
430.271	9.49
430.476	9.34
430.681	9.39
430.886	9.34
431.09	9.31
431.295	9.31
431.5	9.28
431.705	9.26
431.91	9.22
432.115	9.17
432.32	9.16
432.524	8.98
432.729	9.13
432.934	9.1
433.139	9.29
433.343	9.29
433.548	9.18
433.753	9.28
433.958	9.45
434.162	9.54
434.367	9.61
434.572	9.57
434.776	9.58
434.981	9.46
435.186	9.52
435.39	9.43
435.595	9.48
435.799	9.5
436.004	9.43
436.209	9.21
436.413	9.07
436.618	9.01
436.822	8.98
437.027	9.12
437.231	9.09
437.436	9.13
437.64	9.09
437.845	9.01
438.049	8.97
438.253	8.94
438.458	9
438.662	9.02
438.867	9.07
439.071	9.21
439.275	9.09
439.48	9.1
439.684	8.98
439.888	9
440.093	9.01
440.297	8.98
440.501	9
440.706	8.94
440.91	8.97
441.114	8.87
441.318	8.76
441.523	8.84
441.727	8.77
441.931	8.86
442.135	8.85
442.339	8.86
442.543	8.91
442.748	8.98
442.952	9.05
443.156	9.02
443.36	9.09
443.564	9.13
443.768	9.11
443.972	9.12
444.176	9.02
444.38	9
444.584	8.98
444.788	8.93
444.992	8.84
445.196	8.86
445.4	8.79
445.604	8.66
445.808	8.58
446.012	8.56
446.216	8.56
446.42	8.66
446.624	8.63
446.828	8.58
447.032	8.55
447.235	8.55
447.439	8.47
447.643	8.59
447.847	8.76
448.051	8.82
448.254	8.81
448.458	8.97
448.662	8.87
448.866	8.84
449.069	8.93
449.273	9.01
449.477	9.1
449.681	9.1
449.884	9.05
450.088	9.03
450.292	8.86
450.495	8.78
450.699	8.75
450.902	8.81
451.106	8.83
451.31	8.88
451.513	8.9
451.717	8.85
451.92	8.85
452.124	8.93
452.327	8.96
452.531	9.01
452.734	9.11
452.938	8.95
453.141	8.87
453.345	8.81
453.548	8.77
453.752	8.83
453.955	8.89
454.158	8.9
454.362	8.76
454.565	8.76
454.769	8.98
454.972	9.03
455.175	9.17
455.379	9.23
455.582	9.3
455.785	9.2
455.988	9.06
456.192	8.93
456.395	8.95
456.598	8.91
456.801	8.91
457.005	8.83
457.208	8.8
457.411	8.68
457.614	8.68
457.817	8.66
458.021	8.62
458.224	8.63
458.427	8.76
458.63	8.72
458.833	8.74
459.036	8.71
459.239	8.64
459.442	8.55
459.645	8.61
459.848	8.61
460.051	8.63
460.254	8.7
460.457	8.69
460.66	8.57
460.863	8.71
461.066	8.72
461.269	8.67
461.472	8.82
461.675	8.89
461.878	8.92
462.081	9
462.284	9.07
462.486	9.13
462.689	9.25
462.892	9.33
463.095	9.22
463.298	9.27
463.5	9.36
463.703	9.33
463.906	9.39
464.109	9.33
464.311	9.27
464.514	9.3
464.717	9.42
464.92	9.42
465.122	9.37
465.325	9.5
465.528	9.57
465.73	9.57
465.933	9.47
466.135	9.48
466.338	9.46
466.541	9.48
466.743	9.4
466.946	9.28
467.148	9.24
467.351	9.19
467.553	9
467.756	8.96
467.958	8.98
468.161	9.11
468.363	9.13
468.566	9.19
468.768	9.22
468.971	9.29
469.173	9.22
469.375	9.25
469.578	9.18
469.78	9.18
469.983	9.14
470.185	9.15
470.387	9.14
470.59	9.11
470.792	9.21
470.994	9.23
471.196	9.16
471.399	9.29
471.601	9.25
471.803	9.43
472.005	9.58
472.208	9.61
472.41	9.58
472.612	9.49
472.814	9.56
473.016	9.6
473.218	9.66
473.421	9.66
473.623	9.61
473.825	9.65
474.027	9.52
474.229	9.4
474.431	9.54
474.633	9.58
474.835	9.58
475.037	9.51
475.239	9.37
475.441	9.25
475.643	9.32
475.845	9.23
476.047	9.13
476.249	9.25
476.451	9.23
476.653	9.14
476.855	9.13
477.057	9.18
477.258	9.17
477.46	9.18
477.662	9.25
477.864	9.14
478.066	9.21
478.268	9.34
478.469	9.31
478.671	9.29
478.873	9.27
479.075	9.19
479.276	9.13
479.478	9.13
479.68	9.11
479.882	9.05
480.083	9.11
480.285	9.13
480.487	9.12
480.688	9.12
480.89	9.24
481.091	9.16
481.293	9.1
481.495	9.06
481.696	8.98
481.898	8.91
482.099	8.9
482.301	8.87
482.502	8.84
482.704	8.76
482.905	8.72
483.107	8.61
483.308	8.62
483.51	8.63
483.711	8.64
483.913	8.67
484.114	8.73
484.315	8.76
484.517	8.77
484.718	8.77
484.92	8.84
485.121	8.91
485.322	8.95
485.524	8.94
485.725	8.98
485.926	8.93
486.127	8.91
486.329	8.85
486.53	8.82
486.731	8.8
486.932	8.8
487.134	8.84
487.335	8.78
487.536	8.8
487.737	8.82
487.938	8.8
488.139	8.85
488.341	8.87
488.542	8.96
488.743	9
488.944	9.07
489.145	9.13
489.346	9.03
489.547	9.05
489.748	9.06
489.949	9.09
490.15	9.05
490.351	9.05
490.552	9.1
490.753	9.05
490.954	9
491.155	9.01
491.356	9.01
491.557	9.06
491.758	9.12
491.959	9.17
492.159	9.21
492.36	9.26
492.561	9.34
492.762	9.33
492.963	9.38
493.164	9.45
493.364	9.5
493.565	9.5
493.766	9.6
493.967	9.64
494.167	9.61
494.368	9.62
494.569	9.64
494.769	9.63
494.97	9.72
495.171	9.81
495.371	9.79
495.572	9.72
495.773	9.78
495.973	9.76
496.174	9.79
496.375	9.8
496.575	9.8
496.776	9.84
496.976	9.94
497.177	9.98
497.377	9.97
497.578	10.01
497.778	9.98
497.979	9.89
498.179	9.95
498.38	10.01
498.58	10.03
498.78	10.1
498.981	10.17
499.181	10.21
499.382	10.14
499.582	10.16
499.782	10.3
499.983	10.41
500.183	10.56
500.383	10.56
500.584	10.53
500.784	10.67
500.984	10.64
501.184	10.56
501.385	10.55
501.585	10.67
501.785	10.71
501.985	10.74
502.185	10.74
502.386	10.74
502.586	10.75
502.786	10.78
502.986	10.73
503.186	10.72
503.386	10.81
503.586	10.76
503.786	10.79
503.987	10.89
504.187	10.86
504.387	10.92
504.587	10.96
504.787	11.01
504.987	11.04
505.187	11.17
505.387	11.21
505.587	11.21
505.786	11.3
505.986	11.3
506.186	11.32
506.386	11.45
506.586	11.49
506.786	11.43
506.986	11.47
507.186	11.5
507.386	11.46
507.585	11.5
507.785	11.59
507.985	11.54
508.185	11.58
508.384	11.6
508.584	11.52
508.784	11.47
508.984	11.52
509.183	11.59
509.383	11.58
509.583	11.57
509.782	11.57
509.982	11.56
510.182	11.65
510.381	11.59
510.581	11.57
510.781	11.63
510.98	11.71
511.18	11.78
511.379	11.78
511.579	11.9
511.778	11.87
511.978	11.88
512.177	11.83
512.377	11.87
512.576	11.92
512.776	12
512.975	12.08
513.175	12.06
513.374	12.16
513.573	12.18
513.773	12.08
513.972	12.16
514.172	12.26
514.371	12.41
514.57	12.43
514.77	12.51
514.969	12.48
515.168	12.45
515.367	12.56
515.567	12.56
515.766	12.61
515.965	12.68
516.164	12.76
516.364	12.84
516.563	12.8
516.762	12.77
516.961	12.77
517.16	12.81
517.359	12.83
517.559	12.87
517.758	12.83
517.957	12.78
518.156	12.85
518.355	12.8
518.554	12.81
518.753	12.91
518.952	13
519.151	12.96
519.35	12.99
519.549	13.02
519.748	12.98
519.947	13.14
520.146	13.29
520.345	13.31
520.544	13.34
520.743	13.36
520.942	13.34
521.141	13.35
521.339	13.47
521.538	13.5
521.737	13.58
521.936	13.72
522.135	13.63
522.333	13.63
522.532	13.54
522.731	13.57
522.93	13.52
523.129	13.55
523.327	13.55
523.526	13.57
523.725	13.61
523.923	13.59
524.122	13.48
524.321	13.52
524.519	13.51
524.718	13.57
524.917	13.63
525.115	13.64
525.314	13.66
525.512	13.73
525.711	13.7
525.909	13.71
526.108	13.71
526.306	13.77
526.505	13.75
526.703	13.76
526.902	13.79
527.1	13.76
527.299	13.78
527.497	13.75
527.696	13.74
527.894	13.77
528.092	13.75
528.291	13.76
528.489	13.81
528.688	13.86
528.886	13.9
529.084	13.92
529.283	14
529.481	14.06
529.679	14.16
529.877	14.22
530.076	14.26
530.274	14.38
530.472	14.5
530.67	14.56
530.869	14.54
531.067	14.6
531.265	14.58
531.463	14.57
531.661	14.59
531.859	14.64
532.057	14.61
532.255	14.6
532.454	14.56
532.652	14.52
532.85	14.5
533.048	14.58
533.246	14.6
533.444	14.67
533.642	14.71
533.84	14.79
534.038	14.8
534.236	14.87
534.434	14.97
534.632	14.99
534.83	15.06
535.027	15.09
535.225	15.1
535.423	15.08
535.621	15.06
535.819	15.15
536.017	15.15
536.215	15.13
536.412	15.19
536.61	15.28
536.808	15.37
537.006	15.36
537.203	15.41
537.401	15.53
537.599	15.63
537.797	15.69
537.994	15.72
538.192	15.76
538.39	15.84
538.587	15.85
538.785	15.85
538.983	15.84
539.18	15.93
539.378	15.9
539.575	15.87
539.773	15.84
539.97	15.87
540.168	15.88
540.366	15.88
540.563	15.92
540.761	15.93
540.958	15.9
541.155	15.94
541.353	15.93
541.55	15.93
541.748	15.94
541.945	15.97
542.143	16.02
542.34	16.06
542.537	16.11
542.735	16.1
542.932	16.16
543.129	16.2
543.327	16.27
543.524	16.36
543.721	16.44
543.919	16.63
544.116	16.75
544.313	16.86
544.51	16.81
544.708	16.88
544.905	16.89
545.102	16.95
545.299	17.02
545.496	17.12
545.693	17.14
545.891	17.22
546.088	17.14
546.285	17.17
546.482	17.11
546.679	17.17
546.876	17.24
547.073	17.36
547.27	17.43
547.467	17.53
547.664	17.56
547.861	17.65
548.058	17.83
548.255	17.96
548.452	18.1
548.649	18.34
548.846	18.54
549.043	18.51
549.24	18.51
549.437	18.6
549.633	18.56
549.83	18.61
550.027	18.69
550.224	18.65
550.421	18.56
550.618	18.4
550.814	18.28
551.011	18.26
551.208	18.29
551.405	18.38
551.601	18.45
551.798	18.65
551.995	18.65
552.191	18.63
552.388	18.59
552.585	18.69
552.781	18.87
552.978	19.08
553.175	19.24
553.371	19.38
553.568	19.43
553.764	19.56
553.961	19.43
554.157	19.52
554.354	19.5
554.55	19.75
554.747	19.88
554.943	19.84
555.14	19.68
555.336	19.65
555.533	19.68
555.729	19.82
555.926	19.7
556.122	19.9
556.318	19.88
556.515	20.13
556.711	20
556.907	20.01
557.104	20.29
557.3	20.44
557.496	20.52
557.693	20.51
557.889	20.61
558.085	20.64
558.281	20.81
558.478	20.89
558.674	20.83
558.87	20.94
559.066	21.03
559.262	20.98
559.459	21.03
559.655	21.11
559.851	21.33
560.047	21.33
560.243	21.45
560.439	21.4
560.635	21.55
560.831	21.6
561.027	21.6
561.223	21.55
561.419	21.54
561.615	21.67
561.811	21.71
562.007	21.69
562.203	21.71
562.399	21.73
562.595	21.69
562.791	21.86
562.987	22.02
563.183	22.22
563.379	22.47
563.575	22.6
563.771	22.71
563.966	22.78
564.162	22.87
564.358	22.97
564.554	22.93
564.75	23
564.945	22.92
565.141	22.84
565.337	22.84
565.533	22.79
565.728	22.79
565.924	22.83
566.12	22.92
566.315	22.94
566.511	22.94
566.707	23.04
566.902	23.1
567.098	23.15
567.293	23.31
567.489	23.27
567.684	23.38
567.88	23.43
568.076	23.39
568.271	23.34
568.467	23.34
568.662	23.41
568.858	23.56
569.053	23.57
569.248	23.66
569.444	23.78
569.639	23.99
569.835	24.05
570.03	24.12
570.225	24.19
570.421	24.34
570.616	24.38
570.812	24.44
571.007	24.43
571.202	24.58
571.397	24.71
571.593	24.67
571.788	24.68
571.983	24.7
572.178	24.84
572.374	24.85
572.569	24.96
572.764	25.13
572.959	25.1
573.154	25.22
573.35	25.12
573.545	25.15
573.74	25.17
573.935	25.19
574.13	25.19
574.325	25.11
574.52	25.2
574.715	25.14
574.91	25
575.105	25.16
575.3	25.16
575.495	25.39
575.69	25.42
575.885	25.66
576.08	25.72
576.275	25.92
576.47	26.03
576.665	26.1
576.86	26.32
577.055	26.38
577.25	26.5
577.444	26.63
577.639	26.75
577.834	26.68
578.029	26.6
578.224	26.62
578.418	26.71
578.613	26.93
578.808	27.03
579.003	26.86
579.197	27.04
579.392	27.05
579.587	27.25
579.781	27.21
579.976	27.37
580.171	27.31
580.365	27.51
580.56	27.5
580.755	27.45
580.949	27.47
581.144	27.56
581.338	27.58
581.533	27.63
581.727	27.49
581.922	27.44
582.116	27.63
582.311	27.91
582.505	27.79
582.7	27.61
582.894	27.81
583.089	27.76
583.283	28.01
583.478	28.15
583.672	28.19
583.866	28.18
584.061	28.22
584.255	28.05
584.449	27.92
584.644	28.03
584.838	28.19
585.032	28.15
585.226	28.33
585.421	28.33
585.615	28.26
585.809	28.28
586.003	28.41
586.198	28.54
586.392	28.58
586.586	28.6
586.78	28.64
586.974	28.75
587.168	28.62
587.363	28.5
587.557	28.45
587.751	28.49
587.945	28.48
588.139	28.47
588.333	28.44
588.527	28.57
588.721	28.65
588.915	28.73
589.109	28.83
589.303	29.05
589.497	29.16
589.691	29.17
589.885	29.21
590.079	29.18
590.273	29.25
590.466	29.44
590.66	29.43
590.854	29.49
591.048	29.4
591.242	29.26
591.436	29.15
591.629	29.16
591.823	29.32
592.017	29.35
592.211	29.57
592.404	29.66
592.598	29.47
592.792	29.5
592.986	29.44
593.179	29.54
593.373	29.61
593.567	29.68
593.76	29.65
593.954	29.56
594.147	29.85
594.341	29.77
594.535	29.74
594.728	29.75
594.922	29.82
595.115	29.78
595.309	29.93
595.502	29.98
595.696	30.07
595.889	30.13
596.083	30.06
596.276	29.85
596.47	29.94
596.663	29.84
596.856	29.93
597.05	30.01
597.243	30.12
597.437	30.08
597.63	30.11
597.823	30
598.017	30.04
598.21	30.34
598.403	30.47
598.596	30.43
598.79	30.56
598.983	30.6
599.176	30.32
599.369	30.52
599.563	30.47
599.756	30.43
599.949	30.62
600.142	30.58
600.335	30.58
600.528	30.56
600.722	30.77
600.915	30.83
601.108	30.9
601.301	31.18
601.494	31.01
601.687	31.04
601.88	31.14
602.073	31.03
602.266	31.17
602.459	30.92
602.652	30.87
602.845	30.78
603.038	30.82
603.231	30.73
603.424	30.65
603.617	30.58
603.809	30.52
604.002	30.32
604.195	30.39
604.388	30.27
604.581	30.47
604.774	30.45
604.966	30.27
605.159	30.2
605.352	30.14
605.545	30.27
605.737	30.53
605.93	30.68
606.123	30.97
606.316	30.91
606.508	31.01
606.701	31.04
606.894	31.2
607.086	31.5
607.279	31.47
607.471	31.6
607.664	31.59
607.857	31.41
608.049	31.57
608.242	31.52
608.434	31.38
608.627	31.28
608.819	31.11
609.012	31.05
609.204	31.05
609.397	31.12
609.589	31.23
609.782	31.17
609.974	31.36
610.166	31.23
610.359	31.3
610.551	31.54
610.743	31.65
610.936	31.8
611.128	31.81
611.32	31.76
611.513	31.84
611.705	31.73
611.897	31.76
612.09	31.68
612.282	31.76
612.474	31.71
612.666	31.65
612.858	31.84
613.051	32.25
613.243	32.14
613.435	32.1
613.627	32.14
613.819	32.24
614.011	32.97
614.203	33.17
614.395	33.06
614.588	33.12
614.78	33.3
614.972	33.38
615.164	33
615.356	33.11
615.548	33.08
615.74	32.91
615.932	32.8
616.124	32.03
616.315	32.21
616.507	32.29
616.699	32.24
616.891	32.17
617.083	32.14
617.275	32.17
617.467	32.3
617.659	32.58
617.85	33.01
618.042	33.12
618.234	33.21
618.426	32.8
618.618	32.88
618.809	32.93
619.001	32.73
619.193	32.71
619.384	32.67
619.576	32.89
619.768	32.62
619.959	32.44
620.151	32.64
620.343	32.74
620.534	32.9
620.726	32.89
620.917	33.11
621.109	33.26
621.301	33.3
621.492	33.44
621.684	33.15
621.875	33.46
622.067	33.37
622.258	33.22
622.45	33.2
622.641	33.04
622.832	32.89
623.024	32.62
623.215	32.63
623.407	32.48
623.598	32.51
623.789	32.51
623.981	32.25
624.172	32.35
624.363	32.28
624.555	32.41
624.746	32.38
624.937	32.39
625.129	32.62
625.32	32.58
625.511	32.57
625.702	32.49
625.893	32.7
626.085	32.78
626.276	32.75
626.467	32.73
626.658	32.32
626.849	32.44
627.04	32.47
627.231	32.45
627.422	32.54
627.614	32.63
627.805	32.69
627.996	32.44
628.187	32.34
628.378	32.24
628.569	32.46
628.76	32.76
628.951	32.71
629.142	32.83
629.332	32.79
629.523	33
629.714	32.89
629.905	33.03
630.096	33.02
630.287	33.26
630.478	33.4
630.669	33.21
630.859	33.37
631.05	33.56
631.241	33.46
631.432	33.4
631.623	33.23
631.813	33.29
632.004	32.95
632.195	32.95
632.385	32.92
632.576	32.79
632.767	32.89
632.957	32.99
633.148	32.99
633.339	33.01
633.529	33.02
633.72	33.1
633.91	33.19
634.101	33.41
634.292	33.66
634.482	33.69
634.673	34.04
634.863	33.91
635.054	33.75
635.244	33.67
635.435	33.74
635.625	33.55
635.815	33.38
636.006	33.3
636.196	33.16
636.387	33.04
636.577	33.06
636.767	32.84
636.958	33.05
637.148	33.19
637.338	33.15
637.529	33.14
637.719	33.46
637.909	33.79
638.099	33.79
638.29	34.04
638.48	34.2
638.67	34.27
638.86	34.31
639.05	34.22
639.241	34.3
639.431	34.42
639.621	34.2
639.811	34
640.001	33.88
640.191	33.7
640.381	33.49
640.571	33.37
640.761	33.11
640.951	32.86
641.141	33.06
641.331	32.62
641.521	32.69
641.711	33.17
641.901	33.32
642.091	33.34
642.281	33.3
642.471	33.23
642.661	33.44
642.851	33.71
643.041	33.84
643.231	33.59
643.42	33.75
643.61	33.8
643.8	33.59
643.99	33.59
644.18	33.55
644.369	33.81
644.559	34.15
644.749	34.08
644.939	33.73
645.128	33.66
645.318	33.63
645.508	33.72
645.697	33.72
645.887	33.82
646.076	33.68
646.266	33.68
646.456	33.91
646.645	34.01
646.835	34.16
647.024	34.23
647.214	34.43
647.403	34.41
647.593	34.3
647.782	34.29
647.972	34.17
648.161	34.43
648.351	34.3
648.54	34.09
648.73	34
648.919	33.78
649.108	33.8
649.298	33.94
649.487	34.23
649.677	34.06
649.866	34.1
650.055	34.1
650.244	34.2
650.434	34.26
650.623	34.27
650.812	34.22
651.002	34.19
651.191	34.38
651.38	34.25
651.569	34.13
651.758	34.25
651.947	34.28
652.137	34.26
652.326	33.91
652.515	33.95
652.704	33.67
652.893	33.62
653.082	33.7
653.271	33.86
653.46	33.59
653.649	33.47
653.838	33.46
654.027	33.29
654.216	33.18
654.405	33.47
654.594	33.48
654.783	33.81
654.972	33.67
655.161	33.43
655.35	33.24
655.539	33.55
655.728	33.53
655.916	33.98
656.105	33.79
656.294	33.93
656.483	33.82
656.672	33.92
656.86	33.78
657.049	33.87
657.238	34.13
657.427	34
657.615	33.91
657.804	33.97
657.993	33.68
658.181	33.82
658.37	33.74
658.559	33.72
658.747	33.66
658.936	33.94
659.125	34.04
659.313	34.13
659.502	34.23
659.69	34.19
659.879	34.45
660.067	34.51
660.256	34.47
660.444	34.63
660.633	34.87
660.821	34.96
661.01	34.73
661.198	34.41
661.387	34.13
661.575	34.04
661.763	34.32
661.952	34.14
662.14	34.45
662.328	34.4
662.517	34.44
662.705	33.9
662.893	33.64
663.082	34.01
663.27	34.45
663.458	34.69
663.646	34.63
663.834	34.6
664.023	34.77
664.211	34.68
664.399	34.96
664.587	34.83
664.775	35.04
664.963	35.19
665.152	35.23
665.34	35.17
665.528	34.94
665.716	35.11
665.904	35.21
666.092	34.97
666.28	34.88
666.468	34.78
666.656	34.93
666.844	35.18
667.032	35.33
667.22	35.17
667.408	35.13
667.596	35.45
667.784	35.53
667.971	35.68
668.159	35.83
668.347	35.65
668.535	35.69
668.723	35.76
668.911	35.73
669.098	35.76
669.286	35.71
669.474	35.7
669.662	35.44
669.849	35.59
670.037	35.36
670.225	35.12
670.413	35.03
670.6	34.99
670.788	35.18
670.976	35.03
671.163	34.81
671.351	34.79
671.538	34.63
671.726	34.74
671.913	34.48
672.101	34.26
672.289	34.09
672.476	34.02
672.664	34.31
672.851	34.09
673.039	34.09
673.226	34.25
673.413	33.91
673.601	34.14
673.788	34.29
673.976	34.29
674.163	34.26
674.35	34.6
674.538	34.98
674.725	34.68
674.912	34.54
675.1	34.6
675.287	34.62
675.474	34.84
675.662	35.17
675.849	35.26
676.036	35.32
676.223	35.7
676.411	35.81
676.598	35.63
676.785	35.87
676.972	35.95
677.159	36.25
677.346	36.19
677.533	36.34
677.721	35.95
677.908	35.77
678.095	35.92
678.282	35.79
678.469	35.65
678.656	35.65
678.843	35.38
679.03	35.32
679.217	35.37
679.404	35.47
679.591	35.4
679.778	35.48
679.964	35.43
680.151	35.16
680.338	34.76
680.525	34.73
680.712	34.79
680.899	35.11
681.086	35.33
681.272	35.05
681.459	35.12
681.646	35.03
681.833	34.84
682.02	34.88
682.206	35.09
682.393	35.71
682.58	35.89
682.766	35.96
682.953	35.93
683.14	35.61
683.326	36.23
683.513	36.19
683.7	36.36
683.886	36.59
684.073	36.84
684.259	36.53
684.446	36.12
684.632	36.11
684.819	36.06
685.005	35.8
685.192	36.06
685.378	35.53
685.565	35.62
685.751	35.53
685.938	35.54
686.124	35.3
686.31	35.34
686.497	35.83
686.683	35.7
686.87	35.86
687.056	36.07
687.242	35.63
687.429	35.56
687.615	35.51
687.801	35.5
687.987	35.36
688.174	35.53
688.36	35.72
688.546	35.92
688.732	35.94
688.918	35.7
689.105	35.49
689.291	35.77
689.477	35.95
689.663	36.26
689.849	36.26
690.035	36.27
690.221	36.28
690.407	36.71
690.593	36.22
690.779	36.42
690.965	36.62
691.151	37
691.337	36.82
691.523	36.62
691.709	36.32
691.895	36.58
692.081	36.66
692.267	36.64
692.453	36.41
692.639	36.31
692.825	36.26
693.011	35.89
693.196	35.75
693.382	35.95
693.568	35.88
693.754	35.58
693.94	35.3
694.125	35.38
694.311	35.21
694.497	34.74
694.682	35.12
694.868	35.08
695.054	35.59
695.239	35.56
695.425	35.51
695.611	35.67
695.796	36.04
695.982	36.17
696.168	35.98
696.353	35.85
696.539	36.24
696.724	36.12
696.91	35.86
697.095	35.89
697.281	35.92
697.466	35.7
697.652	35.8
697.837	35.59
698.023	35.43
698.208	35.3
698.393	35.42
698.579	35.36
698.764	35.02
698.949	35.28
699.135	35.1
699.32	35.02
699.505	35.14
699.691	34.89
699.876	34.72
700.061	35.01
700.246	35.07
700.432	35.03
700.617	34.89
700.802	35.37
700.987	35.26
701.172	35.9
701.358	35.94
701.543	36.27
701.728	36.64
701.913	36.94
702.098	36.71
702.283	36.89
702.468	37.11
702.653	37.1
702.838	37.32
703.023	37.29
703.208	36.79
703.393	36.8
703.578	36.95
703.763	36.62
703.948	36.39
704.133	36.38
704.318	36.74
704.503	36.56
704.688	36.74
704.873	36.48
705.057	36.4
705.242	36.41
705.427	36.31
705.612	36.31
705.797	36.82
705.981	37.23
706.166	37.21
706.351	37.39
706.536	37.58
706.72	37.32
706.905	37.19
707.09	37.01
707.274	36.61
707.459	36.54
707.644	36.48
707.828	35.9
708.013	35.74
708.197	35.79
708.382	35.35
708.567	35.24
708.751	35.36
708.936	35.01
709.12	35.62
709.305	35.54
709.489	36.04
709.673	35.77
709.858	36.15
710.042	36.41
710.227	36.21
710.411	36.34
710.596	36.63
710.78	36.69
710.964	37.23
711.149	37.34
711.333	37.76
711.517	37.13
711.702	37.46
711.886	37.31
712.07	37.02
712.254	37.6
712.438	37.85
712.623	37.62
712.807	37.33
712.991	37.46
713.175	36.94
713.359	36.93
713.544	37.21
713.728	37.05
713.912	36.98
714.096	36.94
714.28	36.55
714.464	36.19
714.648	36.14
714.832	36.54
715.016	36.52
715.2	36.57
715.384	36.48
715.568	36.53
715.752	36.42
715.936	36.27
716.12	36.41
716.304	36.66
716.488	36.46
716.671	36.57
716.855	36.39
717.039	36.42
717.223	36.18
717.407	36.26
717.59	36.23
717.774	36.3
717.958	36.56
718.142	36.41
718.325	36.14
718.509	36.19
718.693	36.39
718.877	36.13
719.06	35.53
719.244	35.87
719.428	35.65
719.611	35.86
719.795	35.77
719.978	36.15
720.162	36.1
720.345	36.26
720.529	36.62
720.713	36.55
720.896	36.6
721.08	36.94
721.263	37.4
721.446	37.9
721.63	37.66
721.813	37.49
721.997	37.11
722.18	37.15
722.364	36.74
722.547	36.49
722.73	36.07
722.914	36.72
723.097	36.7
723.28	36.72
723.464	36.08
723.647	36.04
723.83	35.91
724.013	35.92
724.197	36.04
724.38	36.71
724.563	37.14
724.746	36.98
724.929	37.36
725.112	37.86
725.296	37.74
725.479	37.9
725.662	37.8
725.845	38.74
726.028	38.05
726.211	37.88
726.394	37.63
726.577	37.29
726.76	37.8
726.943	37.29
727.126	36.5
727.309	36.4
727.492	36.27
727.675	36.28
727.858	35.74
728.041	36.37
728.224	36.96
728.407	37.03
728.589	37.25
728.772	37.1
728.955	37.3
729.138	37.42
729.321	36.96
729.503	37.49
729.686	37.73
729.869	37.6
730.052	37.7
730.234	37.64
730.417	37.15
730.6	37.27
730.782	37.2
730.965	37.15
731.148	37.32
731.33	37.58
731.513	37.39
731.695	37.4
731.878	37.55
732.061	37.15
732.243	36.81
732.426	36.83
732.608	37
732.791	37.27
732.973	36.79
733.156	36.8
733.338	37.29
733.52	37.23
733.703	37.41
733.885	37.55
734.068	37.89
734.25	37.97
734.432	38.14
734.615	37.61
734.797	37.48
734.979	37.68
735.162	37.87
735.344	37.47
735.526	37.01
735.708	36.66
735.891	37.05
736.073	36.96
736.255	37.02
736.437	36.94
736.619	36.51
736.802	36.48
736.984	37.03
737.166	37.3
737.348	36.79
737.53	37.25
737.712	36.83
737.894	35.96
738.076	36.02
738.258	35.89
738.44	36.05
738.622	36.89
738.804	36.67
738.986	35.99
739.168	35.29
739.35	35.92
739.532	35.93
739.714	36.46
739.896	36.66
740.078	36.79
740.259	36.69
740.441	36.9
740.623	36.53
740.805	36.96
740.987	37.59
741.168	37.48
741.35	37.66
741.532	37.51
741.714	37.34
741.895	37.98
742.077	37.75
742.259	37.73
742.44	37.93
742.622	37.91
742.804	37.62
742.985	37.24
743.167	37.23
743.348	36.67
743.53	36.74
743.711	36.91
743.893	36.7
744.075	36.86
744.256	37.24
744.438	37.52
744.619	37.63
744.8	37.61
744.982	37.23
745.163	37.65
745.345	38.15
745.526	39.24
745.707	38.99
745.889	39.54
746.07	39.55
746.252	39.72
746.433	39.43
746.614	39.87
746.795	39.7
746.977	40.22
747.158	40.15
747.339	40.41
747.52	39.85
747.702	39.89
747.883	38.96
748.064	38.82
748.245	38.9
748.426	38.49
748.607	37.97
748.788	37.89
748.97	37.92
749.151	38.05
749.332	38.53
749.513	37.67
749.694	37.61
749.875	38.36
750.056	38.8
750.237	37.85
750.418	38.23
750.599	37.42
750.78	37.25
750.96	36.94
751.141	36.82
751.322	35.89
751.503	36.64
751.684	36.81
751.865	35.52
752.046	35.47
752.226	35.97
752.407	35.57
752.588	36.26
752.769	37.41
752.949	37.22
753.13	37.75
753.311	37.05
753.492	36.71
753.672	36.99
753.853	38.08
754.034	38.26
754.214	38.67
754.395	38.77
754.575	39
754.756	38.39
754.937	39.47
755.117	38.86
755.298	39.22
755.478	39.09
755.659	39.11
755.839	38.45
756.02	37.64
756.2	37.24
756.381	37.04
756.561	37.07
756.741	37.25
756.922	36.71
757.102	37.25
757.283	37.43
757.463	37.76
757.643	37.93
757.823	38.78
758.004	38.74
758.184	38.53
758.364	40
758.545	40.24
758.725	40.56
758.905	40.36
759.085	40.1
759.265	39.85
759.446	39.51
759.626	39.3
759.806	38.35
759.986	38.52
760.166	38.47
760.346	36.99
760.526	36.85
760.706	36.68
760.886	36.59
761.066	37.31
761.246	37.74
761.426	37.1
761.606	36.74
761.786	37.29
761.966	37.11
762.146	37.33
762.326	37.99
762.506	37.74
762.686	37.04
762.866	37.25
763.046	36.56
763.225	36.56
763.405	36.78
763.585	36.45
763.765	36.23
763.945	36.11
764.124	36.02
764.304	35.71
764.484	36.37
764.664	36.79
764.843	36.24
765.023	36.48
765.203	36.09
765.382	36.36
765.562	36.82
765.741	36.41
765.921	37.22
766.101	37.21
766.28	37.11
766.46	36.38
766.639	36.14
766.819	36.62
766.998	36.1
767.178	36.24
767.357	36.03
767.537	36.78
767.716	37.45
767.896	36.97
768.075	37.29
768.254	36.89
768.434	37.73
768.613	38.5
768.792	38.61
768.972	39.91
769.151	39.93
769.33	40.23
769.51	41
769.689	41.04
769.868	41.11
770.047	41.76
770.226	42.52
770.406	41.84
770.585	41.81
770.764	41.76
770.943	40.1
771.122	40.09
771.301	41.11
771.48	39.7
771.66	39.38
771.839	39.06
772.018	38.26
772.197	38.24
772.376	38.25
772.555	38.49
772.734	38.62
772.913	38.72
773.092	39.37
773.271	38.17
773.449	38.59
773.628	39.18
773.807	39.48
773.986	39.7
774.165	39.36
774.344	39.46
774.523	38.22
774.701	38.3
774.88	39.6
775.059	39.77
775.238	40.13
775.417	40.3
775.595	40.66
775.774	39.9
775.953	39.47
776.131	39.67
776.31	38.81
776.489	39.2
776.667	38.99
776.846	39.32
777.025	38.64
777.203	38.4
777.382	37.89
777.56	37.14
777.739	38.07
777.917	38.57
778.096	38.5
778.274	38.99
778.453	39.61
778.631	39.72
778.81	39.19
778.988	39.85
779.166	39.75
779.345	40.11
779.523	39.58
779.702	40.09
779.88	39.97
780.058	39.22
780.237	39.59
780.415	39.93
780.593	41.07
780.771	41.31
780.95	42.18
781.128	42.53
781.306	42.75
781.484	43.64
781.662	43.46
781.841	43.73
782.019	44.32
782.197	43.7
782.375	42.34
782.553	41.3
782.731	41.06
782.909	39.92
783.087	40.7
783.265	40.3
783.443	39.47
783.621	39.94
783.799	39.31
783.977	40.07
784.155	40.62
784.333	41.15
784.511	41.05
784.689	39.59
784.867	38.55
785.045	37.56
785.223	37.7
785.4	38.53
785.578	37.99
785.756	38.16
785.934	36.19
786.112	35.56
786.289	35.37
786.467	34.77
786.645	36.44
786.823	37.59
787	38.66
787.178	38.8
787.356	38.93
787.533	38.3
787.711	38.39
787.889	39.2
788.066	39.29
788.244	39.03
788.421	39.75
788.599	39.01
788.776	38.89
788.954	38.84
789.131	38.05
789.309	37.53
789.486	39.34
789.664	39.66
789.841	40.62
790.019	40.7
790.196	41.27
790.373	41.3
790.551	43.68
790.728	43.69
790.906	44.21
791.083	43.59
791.26	43.52
791.437	42.59
791.615	41.43
791.792	40.77
791.969	41.41
792.146	41.83
792.324	41.51
792.501	40.78
792.678	41.05
792.855	39.99
793.032	41.46
793.209	42.06
793.387	42.54
793.564	44.33
793.741	44.71
793.918	44.49
794.095	44.48
794.272	45.03
794.449	43.23
794.626	43.42
794.803	42.63
794.98	42.26
795.157	42.19
795.334	42
795.511	41.03
795.688	41.17
795.864	40.52
796.041	40.04
796.218	40.7
796.395	41.43
796.572	40.2
796.749	40.56
796.925	40.49
797.102	41.46
797.279	40.07
797.456	40.83
797.632	39.45
797.809	39.62
797.986	39.98
798.162	38.82
798.339	36.92
798.516	37.57
798.692	38.94
798.869	38.85
799.046	37.18
799.222	37.82
799.399	36.88
799.575	38.27
799.752	39.06
799.928	38.79
800.105	40.03
800.281	42.03
800.458	41.07
800.634	40.38
800.811	40.58
800.987	41.06
801.163	41.76
801.34	41.58
801.516	42.34
801.692	42.9
801.869	43.73
802.045	43.86
802.221	44.19
802.398	44.8
802.574	43.88
802.75	44.8
802.926	45.29
803.103	45.18
803.279	45.27
803.455	44.31
803.631	44.93
803.807	45.56
803.983	44.3
804.16	44.11
804.336	44.28
804.512	44.41
804.688	43.24
804.864	43.09
805.04	42.62
805.216	43.56
805.392	43.25
805.568	42.64
805.744	41.72
805.92	42.04
806.096	41.99
806.272	43.26
806.448	45.36
806.623	46.56
806.799	46.6
806.975	46.69
807.151	46.32
807.327	45.57
807.503	45.16
807.678	45.4
807.854	45.36
808.03	44.19
808.206	43.37
808.381	40.22
808.557	40.22
808.733	39.82
808.908	39.72
809.084	39.99
809.26	39.96
809.435	40.1
809.611	39.6
809.787	38.24
809.962	38.28
810.138	37.49
810.313	39.43
810.489	40.38
810.664	41.12
810.84	39.99
811.015	40.41
811.191	42.4
811.366	43.48
811.542	44.68
811.717	47.18
811.892	49.18
812.068	50.79
812.243	50.2
812.419	49.01
812.594	49.15
812.769	50.49
812.944	49.88
813.12	49.9
813.295	49.81
813.47	48.17
813.645	47.48
813.821	46.26
813.996	45.29
814.171	45.35
814.346	43.83
814.521	45.14
814.697	45.25
814.872	45.14
815.047	44.72
815.222	43.39
815.397	43.37
815.572	43.66
815.747	43.33
815.922	43.26
816.097	43.8
816.272	44.51
816.447	44.16
816.622	44.61
816.797	45.37
816.972	45.19
817.147	45.02
817.322	46.16
817.496	44.73
817.671	45.97
817.846	46.51
818.021	45.4
818.196	45.68
818.371	43.92
818.545	43.51
818.72	43.37
818.895	42.89
819.069	42.25
819.244	41.44
819.419	41.74
819.594	40.72
819.768	39.97
819.943	40.14
820.117	39.58
820.292	39.43
820.467	39.04
820.641	38.64
820.816	38.68
820.99	38.21
821.165	37.79
821.339	37.55
821.514	37.29
821.688	37.1
821.863	36.51
822.037	35.94
822.212	35.69
822.386	35.44
822.56	35.12
822.735	34.87
822.909	35.08
823.084	35.38
823.258	35.12
823.432	34.87
823.606	34.58
823.781	34.77
823.955	35.34
824.129	35.47
824.303	35.73
824.478	35.79
824.652	35.74
824.826	35.62
825	35.27
825.174	35.85
825.348	35.89
825.523	36.27
825.697	36.39
825.871	36.14
826.045	36.16
826.219	36.35
826.393	36.33
826.567	36.33
826.741	36.52
826.915	36.32
827.089	36.73
827.263	37.27
827.437	37.25
827.611	37.81
827.784	38.21
827.958	38.25
828.132	38.07
828.306	38.88
828.48	39.68
828.654	39.84
828.827	39.76
829.001	39.06
829.175	39.21
829.349	40.06
829.522	40.26
829.696	40.17
829.87	40.8
830.044	41.95
830.217	41.6
830.391	41.3
830.565	41.32
830.738	41.81
830.912	42.13
831.085	41.61
831.259	42.28
831.432	41.59
831.606	42.03
831.779	40.54
831.953	39.26
832.126	38.51
832.3	37.22
832.473	37.14
832.647	36.92
832.82	37.44
832.994	37.72
833.167	37.46
833.34	37.12
833.514	37.5
833.687	37.46
833.86	37.57
834.034	38.6
834.207	39.57
834.38	39.6
834.553	40.27
834.727	40.5
834.9	39.74
835.073	39.8
835.246	40.43
835.419	40
835.593	41.54
835.766	42.1
835.939	42.49
836.112	42.76
836.285	43.08
836.458	43.63
836.631	43.61
836.804	46.4
836.977	45.46
837.15	46.37
837.323	46.56
837.496	47.7
837.669	47.33
837.842	46.88
838.015	47.59
838.188	48.44
838.361	47.79
838.533	45.9
838.706	43.49
838.879	43.88
839.052	44.72
839.225	44.81
839.398	43.54
839.57	44.38
839.743	45.2
839.916	45.12
840.088	46.35
840.261	45.35
840.434	46.8
840.607	49.09
840.779	50.95
840.952	50.33
841.124	49.79
841.297	50.8
841.47	49.96
841.642	47.02
841.815	47.87
841.987	46.04
842.16	49.79
842.332	50.39
842.505	49.54
842.677	48.87
842.85	48.78
843.022	52.4
843.194	54.29
843.367	57.44
843.539	59.31
843.712	57.59
843.884	60.02
844.056	58.06
844.229	57.45
844.401	56.41
844.573	54.49
844.745	53.28
844.918	48.17
845.09	44.6
845.262	43.11
845.434	43.83
845.606	45.91
845.779	44.74
845.951	47.67
846.123	48.32
846.295	48.36
846.467	49.32
846.639	53.33
846.811	59.26
846.983	57.27
847.155	55.61
847.327	57.53
847.499	56.68
847.671	56.21
847.843	54.5
848.015	55.07
848.187	57.53
848.359	55.92
848.531	54.86
848.703	51.68
848.875	55.74
849.047	56.32
849.218	57.41
849.39	58.47
849.562	57.92
849.734	59.67
849.905	64.68
850.077	65.89
850.249	67.94
850.421	69.53
850.592	68.03
850.764	68.72
850.936	67.87
851.107	68.36
851.279	63.93
851.451	66.61
851.622	65.15
851.794	60.48
851.965	60.36
852.137	60.69
852.308	58.12
852.48	62.36
852.651	62.78
852.823	65.73
852.994	62.59
853.166	64.81
853.337	66.84
853.509	67.93
853.68	69.67
853.851	69.8
854.023	69.61
854.194	70.94
854.365	70.62
854.537	69.27
854.708	70.6
854.879	75.14
855.05	77.28
855.222	72.57
855.393	70.93
855.564	70.85
855.735	70.32
855.906	73.57
856.078	72.8
856.249	72.88
856.42	71.91
856.591	68.78
856.762	65.6
856.933	62.65
857.104	58.89
857.275	58.49
857.446	56.68
857.617	56.12
857.788	53
857.959	54
858.13	53.99
858.301	61.27
858.472	59
858.643	58.05
858.814	60.44
858.985	65.73
859.155	68.73
859.326	73.11
859.497	74.73
859.668	75.95
859.839	76.25
860.009	71.4
860.18	65.38
860.351	70.87
860.522	70.62
860.692	69.73
860.863	73.67
861.034	75.97
861.204	75.67
861.375	72.17
861.546	72.36
861.716	70.7
861.887	74.46
862.057	74.66
862.228	71.8
862.398	69.14
862.569	66.97
862.739	67.28
862.91	61.7
863.08	60.85
863.251	61.37
863.421	61.89
863.592	63.39
863.762	63.17
863.932	61.21
864.103	61.9
864.273	67.09
864.443	69.71
864.614	65.68
864.784	66.51
864.954	61.66
865.125	68.22
865.295	69.84
865.465	71.07
865.635	69.91
865.805	76.6
865.976	77.78
866.146	79.41
866.316	79.13
866.486	83.21
866.656	83.86
866.826	83.86
866.996	81.26
867.166	83.37
867.336	82.52
867.506	83.52
867.676	76.94
867.846	81.07
868.016	73.77
868.186	67.43
868.356	62.59
868.526	62.82
868.696	63.74
868.866	59.78
869.036	55.98
869.206	53.84
869.376	50.03
869.545	51.02
869.715	46.28
869.885	45.44
870.055	51.25
870.224	59.85
870.394	62.4
870.564	64.78
870.734	66.45
870.903	59.39
871.073	57.38
871.243	61.78
871.412	65.56
871.582	64.8
871.751	71.89
871.921	73.79
872.091	66.51
872.26	62.06
872.43	60.21
872.599	59.26
872.769	64.89
872.938	67.51
873.108	66.88
873.277	64.98
873.446	61.71
873.616	60.83
873.785	65.08
873.955	61.84
874.124	63.44
874.293	65.57
874.463	65.33
874.632	65.1
874.801	63.93
874.971	64.52
875.14	63.33
875.309	64.01
875.478	60.55
875.647	52.12
875.817	53.48
875.986	54.47
876.155	52.17
876.324	51.28
876.493	50.56
876.662	53.38
876.831	52.58
877	52.57
877.17	55.62
877.339	56.19
877.508	60.27
877.677	65.55
877.846	63.55
878.015	65.6
878.184	63.77
878.352	63.86
878.521	61.38
878.69	62.14
878.859	61.02
879.028	58.39
879.197	56.47
879.366	52.11
879.534	50.76
879.703	49.13
879.872	47.47
880.041	48.89
880.21	47.53
880.378	46
880.547	42.81
880.716	43.78
880.884	43.12
881.053	43.25
881.222	43.17
881.39	41.92
881.559	41.57
881.727	41.32
881.896	40.87
882.065	39.96
882.233	40.15
882.402	40.35
882.57	38.93
882.739	39.07
882.907	39.25
883.076	38.96
883.244	39.3
883.412	39.66
883.581	40
883.749	39.78
883.918	40.46
884.086	41.55
884.254	43.75
884.423	45.53
884.591	45.52
884.759	46.18
884.927	47.33
885.096	47.74
885.264	50.05
885.432	52.21
885.6	52.35
885.769	51.72
885.937	52.07
886.105	52.29
886.273	53.74
886.441	55.46
886.609	55.26
886.777	56.85
886.945	59.2
887.113	59.46
887.281	58.06
887.449	61.95
887.617	65.78
887.785	64.64
887.953	64.3
888.121	62.84
888.289	66.19
888.457	67.92
888.625	68.15
888.793	65.61
888.961	63.79
889.129	62.83
889.296	61.85
889.464	63.05
889.632	64.15
889.8	61.06
889.967	61.67
890.135	58.66
