Data from 2938506_Reflection_1.txt Node
Date: Tue Jun 16 23:02:46 EDT 2015
User: robert
Spectrometer: USB4E03002
Autoset integration time: false
Trigger mode: 4
Integration Time (sec): 1.000000E-1
Scans to average: 10
Electric dark correction enabled: true
Nonlinearity correction enabled: false
Boxcar width: 5
Stray light correction enabled: false
XAxis mode: Wavelengths
Stop averaging: false
Number of Pixels in Spectrum: 3648
>>>>>Begin Spectral Data<<<<<
177.575	2121
177.794	-43.14
178.014	44.32
178.233	63
178.452	53.58
178.672	119.25
178.891	158.02
179.11	1575
179.33	-1085.94
179.549	-1911.22
179.768	-137.38
179.987	1644.96
180.207	-121.18
180.426	-17.46
180.645	-11.3
180.864	14.15
181.084	47.87
181.303	45.19
181.522	16.45
181.741	30.73
181.96	29.88
182.179	28.98
182.398	35.87
182.618	32.75
182.837	31.42
183.056	38.04
183.275	27.06
183.494	19.6
183.713	11.54
183.932	8.86
184.151	11.93
184.37	16.16
184.589	-2.2
184.808	3.57
185.027	-13.44
185.246	-1.96
185.465	-18.65
185.684	-38.36
185.903	-41.45
186.122	-42.7
186.341	-53.17
186.56	-162.43
186.779	-575.19
186.998	-175.11
187.216	-122.65
187.435	-32.47
187.654	-110.17
187.873	-50.98
188.092	-2.86
188.311	13.55
188.53	-1.23
188.748	-36.75
188.967	-12.83
189.186	-11.73
189.405	-23.02
189.623	-43.93
189.842	-60.15
190.061	-56.05
190.28	-47.34
190.498	-28.01
190.717	-57.91
190.936	-29.32
191.154	-13.55
191.373	1.95
191.592	12.07
191.81	11.88
192.029	5.51
192.248	-22.38
192.466	-6.85
192.685	-26.34
192.904	-38.5
193.122	-2.63
193.341	-1.89
193.559	-9.78
193.778	-18.64
193.996	-45.48
194.215	-35.13
194.433	-34.76
194.652	-15.99
194.87	-4.79
195.089	-5.27
195.307	-16.78
195.526	-37.77
195.744	-64.01
195.963	-70.19
196.181	-127.33
196.399	-66.65
196.618	-43.54
196.836	-13.77
197.055	-30.48
197.273	-29.22
197.491	-22.24
197.71	-25.81
197.928	-37.87
198.146	-28.88
198.365	-9.87
198.583	-22.02
198.801	-9.4
199.019	-9.24
199.238	-17.73
199.456	-15.79
199.674	-22.22
199.892	-20.63
200.111	-14.85
200.329	-3
200.547	-0.53
200.765	5.99
200.983	18.67
201.202	5.73
201.42	11.04
201.638	38.81
201.856	48.9
202.074	8.58
202.292	20.47
202.51	12.12
202.728	-20.72
202.946	-19.62
203.165	3.89
203.383	5.49
203.601	1.99
203.819	-43.24
204.037	-71.85
204.255	-52.69
204.473	-52.57
204.691	-86.76
204.909	-123.85
205.127	-81.16
205.345	-84.44
205.562	-115.82
205.78	-62.04
205.998	-63.83
206.216	-50.94
206.434	-77.52
206.652	-48.35
206.87	-20
207.088	7.05
207.306	12.83
207.523	21.26
207.741	17.77
207.959	27.14
208.177	20.89
208.395	9.39
208.612	22.63
208.83	34.12
209.048	25.47
209.266	12.49
209.483	-7.11
209.701	-10.74
209.919	-11.08
210.136	-10.49
210.354	-20.97
210.572	-14.04
210.79	-11.27
211.007	-7.77
211.225	-7.46
211.442	-7.93
211.66	-17.78
211.878	-9.62
212.095	-98.18
212.313	-105.67
212.53	-93.99
212.748	-137.81
212.966	-155.51
213.183	-128.03
213.401	-166.76
213.618	-162.43
213.836	-176.9
214.053	-122.07
214.271	-120.73
214.488	-18.82
214.705	-22.37
214.923	-33.44
215.14	-32.21
215.358	-8.37
215.575	19.73
215.793	13.92
216.01	20.84
216.227	28.39
216.445	11.55
216.662	16.04
216.879	34.24
217.097	22.87
217.314	22.2
217.531	20.89
217.749	6.64
217.966	2.49
218.183	-5.03
218.4	-16.9
218.618	-21.23
218.835	-13.58
219.052	-20.59
219.269	-60.71
219.487	-46.35
219.704	-34.9
219.921	-23.38
220.138	-10.09
220.355	-19.13
220.572	2.83
220.79	13.85
221.007	7.23
221.224	7.94
221.441	11.55
221.658	30.91
221.875	27.32
222.092	22.19
222.309	19.43
222.526	13.29
222.743	18.29
222.96	14.69
223.177	12.95
223.394	14.4
223.611	12.63
223.828	9.97
224.045	1.18
224.262	8.18
224.479	7.69
224.696	8.69
224.913	12.61
225.13	13.2
225.347	13.74
225.564	12.62
225.781	13.71
225.997	14.3
226.214	15.54
226.431	16.28
226.648	14.61
226.865	14.9
227.082	15.23
227.298	13.72
227.515	12.43
227.732	11.39
227.949	11.29
228.165	10.58
228.382	10.35
228.599	9.71
228.816	10.16
229.032	10.72
229.249	10.3
229.466	8.07
229.682	8.04
229.899	8.44
230.116	9.01
230.332	9.65
230.549	11.51
230.765	10.86
230.982	9.49
231.199	7.2
231.415	6.28
231.632	4.61
231.848	7.07
232.065	9.1
232.281	8.69
232.498	10.72
232.714	11.23
232.931	10.46
233.147	12.5
233.364	13.82
233.58	14.28
233.797	12.16
234.013	14.5
234.23	14.95
234.446	13.92
234.662	14.2
234.879	12.3
235.095	11.12
235.312	9.27
235.528	6.2
235.744	4.91
235.961	7.2
236.177	9.76
236.393	7.45
236.61	8.27
236.826	6.21
237.042	4.66
237.258	4.34
237.475	2.11
237.691	2.92
237.907	3.55
238.123	5.06
238.339	5.02
238.556	5.21
238.772	6.79
238.988	6.11
239.204	7.69
239.42	9.59
239.636	9.79
239.853	10.9
240.069	11.96
240.285	11.87
240.501	11.63
240.717	11.67
240.933	11.09
241.149	10.66
241.365	10.89
241.581	10.51
241.797	10.41
242.013	10.23
242.229	10.51
242.445	9.5
242.661	9.74
242.877	9.78
243.093	9.23
243.309	9.66
243.525	9.93
243.741	9.71
243.957	9.92
244.173	9.41
244.388	9.83
244.604	9.24
244.82	9.49
245.036	9.54
245.252	9.32
245.468	9.53
245.683	9.39
245.899	9.38
246.115	9.01
246.331	9.17
246.547	9.52
246.762	8.97
246.978	9.13
247.194	8.8
247.409	8.73
247.625	8.43
247.841	7.71
248.057	7.78
248.272	6.91
248.488	7.6
248.703	7
248.919	6.08
249.135	7.01
249.35	6.64
249.566	7.27
249.782	6.76
249.997	7.25
250.213	7.5
250.428	7.14
250.644	7.95
250.859	7.65
251.075	8.13
251.29	8.3
251.506	7.22
251.721	7.11
251.937	6.13
252.152	6.84
252.368	6.41
252.583	6.62
252.798	6.72
253.014	6.94
253.229	6.58
253.445	6.47
253.66	6.31
253.875	7.35
254.091	7.48
254.306	8.96
254.521	9.16
254.737	9.06
254.952	8.54
255.167	7.44
255.383	7.24
255.598	6.73
255.813	6.16
256.028	6.55
256.244	6.19
256.459	6.07
256.674	5.7
256.889	5.14
257.104	5.7
257.32	6.18
257.535	6.58
257.75	6.59
257.965	6.45
258.18	6.57
258.395	6.21
258.61	6.48
258.826	6.57
259.041	6.8
259.256	7.07
259.471	7.13
259.686	6.71
259.901	6.72
260.116	6.49
260.331	7.35
260.546	7.05
260.761	7.46
260.976	7.29
261.191	7.5
261.406	6.96
261.621	6.43
261.836	6.75
262.05	7.76
262.265	7.7
262.48	8.52
262.695	7.76
262.91	8.32
263.125	7.35
263.34	7.67
263.555	7.42
263.769	7.76
263.984	7.87
264.199	6.94
264.414	6.02
264.629	6.17
264.843	5.25
265.058	4.76
265.273	4.58
265.488	5.81
265.702	5.77
265.917	5.68
266.132	5.28
266.346	5.59
266.561	5.64
266.776	5.64
266.99	5.48
267.205	5.54
267.42	5.94
267.634	5.74
267.849	4.99
268.063	4.94
268.278	5.23
268.492	5.3
268.707	5.42
268.922	5.58
269.136	5.44
269.351	5.89
269.565	6.17
269.78	5.92
269.994	5.97
270.209	6.16
270.423	6.26
270.637	6.48
270.852	6.68
271.066	6.5
271.281	6.24
271.495	6.42
271.709	6.13
271.924	6.08
272.138	6.5
272.353	6.67
272.567	6.85
272.781	6.76
272.996	6.37
273.21	6.19
273.424	5.91
273.638	5.85
273.853	6.1
274.067	6.16
274.281	5.84
274.495	6.09
274.71	5.78
274.924	5.69
275.138	5.48
275.352	5.66
275.566	6.04
275.781	6
275.995	6.6
276.209	6.59
276.423	6.23
276.637	6.95
276.851	5.97
277.065	5.92
277.279	6.11
277.493	6.46
277.707	6.19
277.921	6
278.135	6.17
278.349	6.02
278.563	6.22
278.777	6.51
278.991	6.55
279.205	7.2
279.419	7.15
279.633	6.91
279.847	7.03
280.061	7.12
280.275	6.79
280.489	7.29
280.703	7.22
280.917	7
281.131	7.11
281.344	6.59
281.558	6.37
281.772	6.37
281.986	6.23
282.2	5.37
282.414	5.15
282.627	5.38
282.841	5.23
283.055	5.28
283.269	5.18
283.482	5.4
283.696	5.13
283.91	4.99
284.123	5.39
284.337	5.3
284.551	5.88
284.764	6.24
284.978	6.44
285.192	6.26
285.405	6.18
285.619	6.47
285.833	5.86
286.046	6.31
286.26	6.35
286.473	5.88
286.687	6.03
286.9	5.88
287.114	5.67
287.327	5.63
287.541	5.49
287.754	5.1
287.968	5.12
288.181	5.52
288.395	5.74
288.608	6.05
288.822	6.18
289.035	6.19
289.248	6.16
289.462	6.22
289.675	5.68
289.889	5.75
290.102	5.74
290.315	5.18
290.529	5.04
290.742	4.36
290.955	4.06
291.169	4.24
291.382	4.36
291.595	4.41
291.808	4.26
292.022	4.81
292.235	5.17
292.448	5.25
292.661	5.78
292.875	6.19
293.088	6.15
293.301	6.18
293.514	5.96
293.727	5.86
293.94	5.78
294.153	5.8
294.367	5.91
294.58	5.78
294.793	5.76
295.006	5.73
295.219	5.48
295.432	5.83
295.645	5.74
295.858	5.77
296.071	5.89
296.284	5.98
296.497	6.1
296.71	6.07
296.923	6.03
297.136	6.17
297.349	6.04
297.562	6.2
297.775	5.88
297.988	5.95
298.201	6.53
298.414	6.73
298.626	6.36
298.839	6.04
299.052	6.25
299.265	6.1
299.478	6.3
299.691	6.57
299.903	6.9
300.116	7.5
300.329	7.44
300.542	7.04
300.755	6.87
300.967	7.22
301.18	7.95
301.393	7.8
301.605	7.86
301.818	7.78
302.031	7.46
302.243	6.74
302.456	6.85
302.669	6.93
302.881	6.77
303.094	6.68
303.307	6.62
303.519	5.93
303.732	5.47
303.944	5.84
304.157	6.17
304.37	6.18
304.582	6.31
304.795	5.75
305.007	5.92
305.22	5.5
305.432	4.95
305.645	4.89
305.857	4.84
306.069	5.4
306.282	4.84
306.494	4.69
306.707	5
306.919	5.18
307.132	5.41
307.344	5.59
307.556	6.05
307.769	6.6
307.981	6.79
308.193	7.07
308.406	6.97
308.618	7.1
308.83	7.19
309.043	7.29
309.255	7.37
309.467	7.67
309.679	7.36
309.892	7.21
310.104	7.06
310.316	6.84
310.528	6.76
310.74	6.73
310.953	6.8
311.165	6.61
311.377	6.49
311.589	6.64
311.801	6.12
312.013	5.93
312.225	5.87
312.437	5.68
312.649	6.04
312.862	5.97
313.074	6.36
313.286	6.27
313.498	6.42
313.71	6.35
313.922	6.14
314.134	6.52
314.346	6.59
314.558	6.86
314.77	7.2
314.982	7.16
315.193	7.07
315.405	6.37
315.617	6.25
315.829	6.51
316.041	6.76
316.253	6.71
316.465	6.81
316.677	6.9
316.888	6.91
317.1	6.64
317.312	6.93
317.524	6.65
317.736	7.01
317.947	7.03
318.159	6.74
318.371	6.22
318.583	6.51
318.794	6.55
319.006	6.91
319.218	6.8
319.43	6.86
319.641	6.52
319.853	7.01
320.064	6.82
320.276	7.17
320.488	6.98
320.699	7
320.911	6.83
321.123	6.79
321.334	7.03
321.546	7.29
321.757	7.23
321.969	7.1
322.18	7.17
322.392	6.78
322.603	6.85
322.815	6.91
323.026	6.81
323.238	6.56
323.449	6.67
323.661	6.65
323.872	6.59
324.083	6.52
324.295	6.32
324.506	6.51
324.718	7.1
324.929	6.87
325.14	6.65
325.352	6.78
325.563	6.93
325.774	6.85
325.986	7.08
326.197	7.01
326.408	7.28
326.62	7.47
326.831	7.34
327.042	6.95
327.253	6.84
327.464	7.18
327.676	7.45
327.887	7.24
328.098	6.85
328.309	6
328.52	6.14
328.732	6.34
328.943	6.27
329.154	6.19
329.365	6.16
329.576	6.05
329.787	5.87
329.998	5.93
330.209	6.15
330.42	6.23
330.631	6.65
330.842	6.91
331.053	5.99
331.264	6.15
331.475	6.2
331.686	6.3
331.897	6.23
332.108	6.19
332.319	6.09
332.53	6.24
332.741	6.5
332.952	6.31
333.163	5.86
333.374	6.75
333.585	6.81
333.795	6.47
334.006	6.68
334.217	7.18
334.428	7
334.639	7.3
334.849	6.99
335.06	6.79
335.271	6.86
335.482	6.69
335.692	6.7
335.903	6.75
336.114	7.06
336.325	6.79
336.535	6.71
336.746	6.85
336.957	6.92
337.167	7.16
337.378	7.09
337.589	7.07
337.799	7.58
338.01	7.34
338.22	7.26
338.431	6.9
338.642	6.94
338.852	6.65
339.063	6.74
339.273	6.68
339.484	6.6
339.694	6.52
339.905	6.62
340.115	6.11
340.326	6.28
340.536	6.37
340.746	6.77
340.957	6.83
341.167	6.89
341.378	7.05
341.588	6.53
341.799	6.52
342.009	6.49
342.219	6.54
342.43	6.73
342.64	6.21
342.85	5.92
343.061	5.92
343.271	5.94
343.481	6.03
343.691	5.93
343.902	6.08
344.112	6.12
344.322	6.11
344.532	5.99
344.743	5.89
344.953	6.34
345.163	6.54
345.373	6.23
345.583	6.13
345.793	6.28
346.004	6.34
346.214	6.43
346.424	6.59
346.634	6.98
346.844	6.9
347.054	6.82
347.264	6.65
347.474	6.63
347.684	6.55
347.894	6.68
348.104	6.75
348.314	6.75
348.524	6.86
348.734	6.71
348.944	6.18
349.154	5.98
349.364	6.08
349.574	6.14
349.784	6.32
349.994	6.36
350.204	6.36
350.413	6
350.623	6.18
350.833	5.71
351.043	5.18
351.253	5.53
351.463	5.74
351.672	5.72
351.882	5.68
352.092	5.71
352.302	6.04
352.511	6.18
352.721	6.26
352.931	5.86
353.141	6.02
353.35	6.15
353.56	6.12
353.77	6.26
353.979	6.08
354.189	6.39
354.399	6.56
354.608	6.19
354.818	5.77
355.027	5.79
355.237	6.15
355.447	6.28
355.656	6.22
355.866	6.19
356.075	6.34
356.285	6.3
356.494	5.94
356.704	5.53
356.913	5.95
357.123	6.05
357.332	5.98
357.542	5.82
357.751	5.69
357.96	5.82
358.17	5.5
358.379	5.15
358.589	5.39
358.798	5.21
359.007	5.04
359.217	4.81
359.426	4.85
359.635	4.92
359.845	4.87
360.054	4.88
360.263	4.86
360.472	4.82
360.682	4.7
360.891	4.54
361.1	4.69
361.309	4.75
361.519	4.64
361.728	4.8
361.937	4.86
362.146	4.91
362.355	4.92
362.564	5.06
362.774	5.19
362.983	5.35
363.192	5.49
363.401	5.48
363.61	5.68
363.819	5.97
364.028	5.78
364.237	5.84
364.446	5.55
364.655	5.52
364.864	5.68
365.073	5.96
365.282	6.02
365.491	6.02
365.7	6.31
365.909	6.07
366.118	5.83
366.327	5.97
366.536	5.67
366.745	6.1
366.954	6.26
367.162	6.04
367.371	5.94
367.58	5.96
367.789	5.96
367.998	5.53
368.207	5.57
368.415	5.21
368.624	5.22
368.833	5.19
369.042	5.05
369.25	4.87
369.459	4.62
369.668	4.42
369.877	4.35
370.085	4.29
370.294	4.53
370.503	4.82
370.711	5.19
370.92	4.9
371.129	4.95
371.337	4.95
371.546	4.88
371.754	4.96
371.963	5.03
372.171	4.88
372.38	4.92
372.589	4.63
372.797	4.26
373.006	4.13
373.214	4.27
373.423	4.3
373.631	4.37
373.84	4.36
374.048	4.31
374.256	4.53
374.465	4.78
374.673	4.78
374.882	4.92
375.09	5.2
375.298	5.25
375.507	5.07
375.715	5.13
375.923	5.1
376.132	5.06
376.34	5.1
376.548	4.83
376.757	4.8
376.965	4.67
377.173	4.55
377.381	4.19
377.59	4.12
377.798	4.43
378.006	4.37
378.214	4.33
378.423	4.44
378.631	4.43
378.839	4.87
379.047	5.03
379.255	5.15
379.463	5.33
379.671	5.47
379.879	5.66
380.088	5.5
380.296	5.23
380.504	5.15
380.712	5.09
380.92	5.3
381.128	5.17
381.336	4.94
381.544	4.91
381.752	4.8
381.96	4.57
382.168	4.52
382.376	4.55
382.584	4.77
382.791	4.61
382.999	4.56
383.207	4.44
383.415	4.58
383.623	4.54
383.831	4.58
384.039	4.68
384.247	4.9
384.454	4.64
384.662	4.6
384.87	4.62
385.078	4.65
385.285	4.55
385.493	4.7
385.701	4.27
385.909	4.4
386.116	4.18
386.324	4.05
386.532	4.24
386.739	4.36
386.947	4.39
387.155	4.23
387.362	4.35
387.57	4.55
387.778	4.25
387.985	4.29
388.193	4.14
388.4	4.52
388.608	4.57
388.816	4.49
389.023	4.55
389.231	4.68
389.438	4.66
389.646	4.73
389.853	4.56
390.061	4.59
390.268	4.54
390.475	4.61
390.683	4.4
390.89	4.21
391.098	4.21
391.305	4.1
391.512	4.2
391.72	4.19
391.927	4.2
392.135	4.25
392.342	4.42
392.549	4.59
392.756	4.59
392.964	4.64
393.171	4.81
393.378	4.67
393.586	4.63
393.793	4.35
394	4.36
394.207	4.3
394.414	4.21
394.622	4.11
394.829	4.07
395.036	3.86
395.243	3.64
395.45	3.6
395.657	3.72
395.864	3.94
396.072	4.2
396.279	4.4
396.486	4.33
396.693	4.61
396.9	4.44
397.107	4.43
397.314	4.53
397.521	4.75
397.728	4.63
397.935	4.69
398.142	4.47
398.349	4.1
398.556	3.98
398.763	3.92
398.97	3.65
399.177	3.84
399.383	3.72
399.59	3.87
399.797	3.9
400.004	3.92
400.211	3.84
400.418	3.83
400.625	3.79
400.831	3.76
401.038	3.77
401.245	3.77
401.452	3.68
401.658	3.62
401.865	3.46
402.072	3.25
402.279	3.25
402.485	3.25
402.692	3.19
402.899	3.39
403.105	3.38
403.312	3.36
403.519	3.35
403.725	3.33
403.932	3.28
404.138	3.21
404.345	3.18
404.552	3.14
404.758	3.12
404.965	3.2
405.171	2.97
405.378	3.03
405.584	3.14
405.791	3.07
405.997	3.17
406.204	3.27
406.41	3.4
406.617	3.53
406.823	3.52
407.029	3.55
407.236	3.65
407.442	3.82
407.649	3.69
407.855	3.68
408.061	3.8
408.268	3.77
408.474	3.67
408.68	3.51
408.887	3.49
409.093	3.65
409.299	3.47
409.505	3.42
409.712	3.38
409.918	3.48
410.124	3.3
410.33	3.26
410.537	3.14
410.743	3.17
410.949	3.27
411.155	3.36
411.361	3.21
411.567	3.37
411.773	3.38
411.98	3.36
412.186	3.3
412.392	3.5
412.598	3.53
412.804	3.55
413.01	3.66
413.216	3.76
413.422	3.73
413.628	3.82
413.834	3.83
414.04	3.89
414.246	3.89
414.452	3.89
414.658	3.9
414.864	3.9
415.07	3.97
415.275	3.92
415.481	3.79
415.687	3.69
415.893	3.73
416.099	3.6
416.305	3.38
416.511	3.44
416.716	3.42
416.922	3.31
417.128	3.26
417.334	3.19
417.539	3.27
417.745	3.41
417.951	3.47
418.157	3.33
418.362	3.39
418.568	3.46
418.774	3.44
418.979	3.4
419.185	3.45
419.391	3.49
419.596	3.46
419.802	3.41
420.008	3.28
420.213	3.93
420.419	4
420.624	4.05
420.83	4.04
421.035	4.08
421.241	4.06
421.446	3.94
421.652	3.92
421.857	3.9
422.063	3.86
422.268	3.9
422.474	3.19
422.679	3.16
422.885	3.05
423.09	3.06
423.295	2.99
423.501	3.07
423.706	3.19
423.911	3.24
424.117	3.29
424.322	3.3
424.527	3.27
424.733	3.29
424.938	3.32
425.143	3.37
425.349	3.43
425.554	3.45
425.759	3.36
425.964	3.32
426.169	3.2
426.375	3.27
426.58	3.27
426.785	3.26
426.99	3.21
427.195	3.22
427.4	3.24
427.605	3.19
427.811	3.07
428.016	3.16
428.221	3.05
428.426	2.99
428.631	2.86
428.836	2.93
429.041	2.92
429.246	2.93
429.451	2.83
429.656	2.74
429.861	2.67
430.066	2.73
430.271	2.65
430.476	2.79
430.681	2.77
430.886	2.77
431.09	2.76
431.295	2.79
431.5	2.74
431.705	2.76
431.91	2.94
432.115	3.02
432.32	2.99
432.524	2.99
432.729	2.98
432.934	3.06
433.139	3.01
433.343	2.95
433.548	3
433.753	3.02
433.958	3.02
434.162	2.91
434.367	2.88
434.572	2.99
434.776	3.12
434.981	2.97
435.186	2.91
435.39	2.99
435.595	2.95
435.799	2.85
436.004	2.84
436.209	2.85
436.413	2.85
436.618	2.81
436.822	2.83
437.027	2.79
437.231	2.82
437.436	2.91
437.64	2.89
437.845	2.92
438.049	2.92
438.253	2.93
438.458	2.85
438.662	2.81
438.867	2.81
439.071	2.78
439.275	2.71
439.48	2.79
439.684	2.82
439.888	2.77
440.093	2.77
440.297	2.76
440.501	2.85
440.706	2.92
440.91	3.01
441.114	2.97
441.318	2.96
441.523	2.98
441.727	3
441.931	3
442.135	3
442.339	2.92
442.543	2.93
442.748	2.91
442.952	2.91
443.156	2.88
443.36	2.93
443.564	2.84
443.768	2.74
443.972	2.71
444.176	2.65
444.38	2.78
444.584	2.86
444.788	2.88
444.992	2.79
445.196	2.72
445.4	2.71
445.604	2.67
445.808	2.7
446.012	2.78
446.216	2.77
446.42	2.75
446.624	2.67
446.828	2.67
447.032	2.59
447.235	2.6
447.439	2.75
447.643	2.72
447.847	2.69
448.051	2.72
448.254	2.82
448.458	2.82
448.662	2.89
448.866	2.87
449.069	2.9
449.273	2.9
449.477	2.96
449.681	2.95
449.884	2.87
450.088	2.9
450.292	2.84
450.495	2.81
450.699	2.74
450.902	2.72
451.106	2.75
451.31	2.65
451.513	2.74
451.717	2.64
451.92	2.59
452.124	2.67
452.327	2.6
452.531	2.62
452.734	2.54
452.938	2.62
453.141	2.65
453.345	2.68
453.548	2.7
453.752	2.66
453.955	2.72
454.158	2.71
454.362	2.6
454.565	2.8
454.769	2.77
454.972	2.76
455.175	2.69
455.379	2.66
455.582	2.69
455.785	2.81
455.988	2.76
456.192	2.85
456.395	2.78
456.598	2.94
456.801	2.82
457.005	2.85
457.208	2.82
457.411	2.88
457.614	2.89
457.817	2.9
458.021	2.85
458.224	2.88
458.427	2.86
458.63	2.91
458.833	2.88
459.036	2.9
459.239	2.95
459.442	2.97
459.645	2.97
459.848	2.94
460.051	2.83
460.254	2.83
460.457	2.91
460.66	2.87
460.863	2.82
461.066	2.76
461.269	2.71
461.472	2.64
461.675	2.69
461.878	2.73
462.081	2.75
462.284	2.9
462.486	2.91
462.689	2.8
462.892	2.81
463.095	2.83
463.298	2.91
463.5	2.86
463.703	2.89
463.906	2.81
464.109	2.79
464.311	2.88
464.514	2.76
464.717	2.72
464.92	2.79
465.122	2.86
465.325	2.84
465.528	2.84
465.73	2.9
465.933	2.94
466.135	2.95
466.338	2.92
466.541	2.92
466.743	2.98
466.946	3.09
467.148	3
467.351	2.97
467.553	2.92
467.756	2.93
467.958	2.93
468.161	3
468.363	2.99
468.566	3.08
468.768	2.94
468.971	2.9
469.173	2.79
469.375	2.94
469.578	3
469.78	3.16
469.983	3.09
470.185	3.07
470.387	2.9
470.59	2.83
470.792	2.77
470.994	2.91
471.196	3.02
471.399	3.05
471.601	2.95
471.803	2.87
472.005	2.76
472.208	2.81
472.41	2.9
472.612	2.93
472.814	3.04
473.016	2.94
473.218	2.8
473.421	2.75
473.623	2.74
473.825	2.76
474.027	2.81
474.229	2.85
474.431	2.84
474.633	2.76
474.835	2.81
475.037	2.76
475.239	2.86
475.441	2.87
475.643	2.87
475.845	2.98
476.047	2.95
476.249	2.96
476.451	2.86
476.653	2.87
476.855	2.92
477.057	2.96
477.258	2.92
477.46	2.85
477.662	2.86
477.864	2.82
478.066	2.74
478.268	2.72
478.469	2.69
478.671	2.8
478.873	2.81
479.075	2.8
479.276	2.67
479.478	2.69
479.68	2.75
479.882	2.78
480.083	2.83
480.285	2.8
480.487	2.86
480.688	2.81
480.89	2.78
481.091	2.79
481.293	2.81
481.495	2.86
481.696	2.91
481.898	2.91
482.099	2.9
482.301	2.91
482.502	2.9
482.704	2.86
482.905	2.89
483.107	2.92
483.308	2.91
483.51	2.91
483.711	2.91
483.913	2.88
484.114	2.84
484.315	2.86
484.517	2.83
484.718	2.88
484.92	2.93
485.121	2.9
485.322	2.92
485.524	2.96
485.725	2.95
485.926	2.97
486.127	2.96
486.329	2.97
486.53	2.99
486.731	2.98
486.932	2.91
487.134	2.87
487.335	2.9
487.536	2.82
487.737	2.75
487.938	2.78
488.139	2.77
488.341	2.79
488.542	2.85
488.743	2.78
488.944	2.82
489.145	2.9
489.346	2.91
489.547	2.84
489.748	2.92
489.949	2.95
490.15	2.94
490.351	2.91
490.552	2.86
490.753	2.85
490.954	2.86
491.155	2.81
491.356	2.8
491.557	2.83
491.758	2.9
491.959	2.88
492.159	2.87
492.36	2.83
492.561	2.85
492.762	2.91
492.963	2.85
493.164	2.84
493.364	2.89
493.565	2.83
493.766	2.79
493.967	2.77
494.167	2.8
494.368	2.89
494.569	2.9
494.769	2.91
494.97	2.92
495.171	3.06
495.371	3.08
495.572	3.11
495.773	3.13
495.973	3.14
496.174	3.13
496.375	3.07
496.575	3.09
496.776	3.16
496.976	3.18
497.177	3.18
497.377	3.08
497.578	3.08
497.778	3.05
497.979	3.06
498.179	3.02
498.38	3.08
498.58	3.12
498.78	3.03
498.981	2.95
499.181	2.94
499.382	2.83
499.582	2.89
499.782	2.92
499.983	2.94
500.183	2.94
500.383	3
500.584	2.99
500.784	3.01
500.984	3.07
501.184	3.09
501.385	3.11
501.585	3.25
501.785	3.18
501.985	3.23
502.185	3.36
502.386	3.42
502.586	3.41
502.786	3.38
502.986	3.4
503.186	3.34
503.386	3.4
503.586	3.41
503.786	3.39
503.987	3.39
504.187	3.3
504.387	3.26
504.587	3.22
504.787	3.22
504.987	3.27
505.187	3.3
505.387	3.35
505.587	3.37
505.786	3.39
505.986	3.44
506.186	3.53
506.386	3.6
506.586	3.54
506.786	3.58
506.986	3.61
507.186	3.59
507.386	3.54
507.585	3.56
507.785	3.55
507.985	3.54
508.185	3.5
508.384	3.52
508.584	3.57
508.784	3.56
508.984	3.58
509.183	3.59
509.383	3.52
509.583	3.54
509.782	3.58
509.982	3.57
510.182	3.55
510.381	3.6
510.581	3.6
510.781	3.55
510.98	3.52
511.18	3.58
511.379	3.61
511.579	3.69
511.778	3.72
511.978	3.74
512.177	3.77
512.377	3.79
512.576	3.72
512.776	3.69
512.975	3.71
513.175	3.79
513.374	3.77
513.573	3.69
513.773	3.76
513.972	3.74
514.172	3.77
514.371	3.83
514.57	3.87
514.77	3.94
514.969	4.08
515.168	4.13
515.367	4.13
515.567	4.15
515.766	4.27
515.965	4.22
516.164	4.26
516.364	4.22
516.563	4.25
516.762	4.27
516.961	4.27
517.16	4.16
517.359	4.13
517.559	4.13
517.758	4.12
517.957	4.1
518.156	4.17
518.355	4.13
518.554	4.13
518.753	4.13
518.952	4.12
519.151	4.11
519.35	4.16
519.549	4.18
519.748	4.25
519.947	4.24
520.146	4.22
520.345	4.21
520.544	4.21
520.743	4.28
520.942	4.18
521.141	4.15
521.339	4.19
521.538	4.19
521.737	4.3
521.936	4.28
522.135	4.27
522.333	4.36
522.532	4.3
522.731	4.33
522.93	4.32
523.129	4.38
523.327	4.44
523.526	4.47
523.725	4.51
523.923	4.45
524.122	4.45
524.321	4.57
524.519	4.56
524.718	4.61
524.917	4.68
525.115	4.74
525.314	4.74
525.512	4.74
525.711	4.76
525.909	4.78
526.108	4.84
526.306	4.88
526.505	4.84
526.703	4.86
526.902	4.85
527.1	4.83
527.299	4.82
527.497	4.86
527.696	4.85
527.894	4.83
528.092	4.83
528.291	4.83
528.489	4.82
528.688	4.85
528.886	4.83
529.084	4.84
529.283	4.86
529.481	4.86
529.679	4.84
529.877	4.88
530.076	4.93
530.274	5
530.472	5.06
530.67	5.06
530.869	5.09
531.067	5.11
531.265	5.17
531.463	5.23
531.661	5.23
531.859	5.26
532.057	5.28
532.255	5.25
532.454	5.23
532.652	5.21
532.85	5.25
533.048	5.23
533.246	5.24
533.444	5.26
533.642	5.27
533.84	5.31
534.038	5.33
534.236	5.42
534.434	5.47
534.632	5.5
534.83	5.48
535.027	5.54
535.225	5.58
535.423	5.65
535.621	5.66
535.819	5.65
536.017	5.63
536.215	5.58
536.412	5.55
536.61	5.54
536.808	5.56
537.006	5.63
537.203	5.56
537.401	5.59
537.599	5.64
537.797	5.72
537.994	5.8
538.192	5.9
538.39	6.01
538.587	6.05
538.785	6.09
538.983	6.13
539.18	6.14
539.378	6.2
539.575	6.22
539.773	6.19
539.97	6.16
540.168	6.15
540.366	6.14
540.563	6.16
540.761	6.21
540.958	6.23
541.155	6.24
541.353	6.27
541.55	6.28
541.748	6.27
541.945	6.34
542.143	6.37
542.34	6.39
542.537	6.45
542.735	6.44
542.932	6.46
543.129	6.49
543.327	6.55
543.524	6.54
543.721	6.58
543.919	6.66
544.116	6.67
544.313	6.73
544.51	6.84
544.708	6.86
544.905	6.93
545.102	6.94
545.299	7.05
545.496	7.05
545.693	7.13
545.891	7.12
546.088	7.11
546.285	7.14
546.482	7.18
546.679	7.15
546.876	7.14
547.073	7.21
547.27	7.25
547.467	7.18
547.664	7.25
547.861	7.26
548.058	7.28
548.255	7.36
548.452	7.45
548.649	7.62
548.846	7.78
549.043	7.89
549.24	7.91
549.437	8
549.633	8.11
549.83	8.11
550.027	8.21
550.224	8.36
550.421	8.42
550.618	8.39
550.814	8.38
551.011	8.32
551.208	8.42
551.405	8.45
551.601	8.47
551.798	8.55
551.995	8.57
552.191	8.56
552.388	8.57
552.585	8.54
552.781	8.65
552.978	8.68
553.175	8.69
553.371	8.72
553.568	8.8
553.764	8.81
553.961	8.81
554.157	9.05
554.354	9.22
554.55	9.33
554.747	9.54
554.943	9.6
555.14	9.61
555.336	9.74
555.533	9.79
555.729	9.86
555.926	10.02
556.122	10.02
556.318	9.87
556.515	9.81
556.711	9.96
556.907	9.95
557.104	9.97
557.3	10.18
557.496	10.2
557.693	10.34
557.889	10.46
558.085	10.43
558.281	10.58
558.478	10.7
558.674	10.82
558.87	10.75
559.066	10.7
559.262	10.78
559.459	10.79
559.655	10.84
559.851	10.74
560.047	10.77
560.243	10.83
560.439	10.85
560.635	10.9
560.831	11.03
561.027	11.13
561.223	11.32
561.419	11.32
561.615	11.26
561.811	11.46
562.007	11.61
562.203	11.55
562.399	11.73
562.595	12
562.791	12.12
562.987	12.08
563.183	12.2
563.379	12.18
563.575	12.28
563.771	12.48
563.966	12.51
564.162	12.58
564.358	12.73
564.554	12.68
564.75	12.59
564.945	12.62
565.141	12.69
565.337	12.86
565.533	12.92
565.728	13.03
565.924	12.98
566.12	12.96
566.315	13.03
566.511	13.16
566.707	13.19
566.902	13.33
567.098	13.29
567.293	13.41
567.489	13.33
567.684	13.33
567.88	13.42
568.076	13.59
568.271	13.67
568.467	13.78
568.662	13.89
568.858	13.99
569.053	14.14
569.248	14.34
569.444	14.36
569.639	14.47
569.835	14.68
570.03	14.75
570.225	14.83
570.421	15.02
570.616	15.11
570.812	15.08
571.007	15.2
571.202	15.2
571.397	15.18
571.593	15.29
571.788	15.4
571.983	15.5
572.178	15.57
572.374	15.61
572.569	15.7
572.764	15.71
572.959	15.84
573.154	15.86
573.35	15.9
573.545	16.08
573.74	16.11
573.935	16.09
574.13	16.13
574.325	16.08
574.52	16.17
574.715	16.13
574.91	16.1
575.105	16.14
575.3	16.25
575.495	16.25
575.69	16.28
575.885	16.38
576.08	16.47
576.275	16.55
576.47	16.62
576.665	16.62
576.86	16.76
577.055	16.88
577.25	16.86
577.444	17.01
577.639	17.15
577.834	17.12
578.029	17.13
578.224	17.21
578.418	17.17
578.613	17.25
578.808	17.46
579.003	17.45
579.197	17.56
579.392	17.68
579.587	17.64
579.781	17.76
579.976	17.76
580.171	17.88
580.365	17.94
580.56	18
580.755	18.13
580.949	18.02
581.144	18.07
581.338	18.17
581.533	18.1
581.727	18.18
581.922	18.19
582.116	18.36
582.311	18.41
582.505	18.5
582.7	18.7
582.894	18.88
583.089	18.86
583.283	18.91
583.478	18.87
583.672	19.07
583.866	19.04
584.061	19.1
584.255	19.2
584.449	19.34
584.644	19.42
584.838	19.42
585.032	19.23
585.226	19.49
585.421	19.7
585.615	19.74
585.809	19.98
586.003	20.14
586.198	20.1
586.392	20.1
586.586	20.07
586.78	19.96
586.974	20.01
587.168	20.15
587.363	20.04
587.557	19.98
587.751	19.96
587.945	19.97
588.139	19.97
588.333	20.17
588.527	20.3
588.721	20.34
588.915	20.57
589.109	20.58
589.303	20.72
589.497	20.74
589.691	20.81
589.885	20.97
590.079	20.9
590.273	20.94
590.466	20.92
590.66	20.85
590.854	20.98
591.048	20.88
591.242	20.81
591.436	20.81
591.629	20.89
591.823	20.74
592.017	20.8
592.211	20.88
592.404	21.04
592.598	21.12
592.792	21.38
592.986	21.47
593.179	21.67
593.373	21.74
593.567	21.73
593.76	21.91
593.954	22.12
594.147	22.22
594.341	22.28
594.535	22.19
594.728	22.22
594.922	22.08
595.115	22.12
595.309	21.96
595.502	22.07
595.696	22.1
595.889	22
596.083	22.07
596.276	21.99
596.47	21.95
596.663	21.93
596.856	21.93
597.05	22.03
597.243	21.87
597.437	21.93
597.63	21.93
597.823	22.05
598.017	22.16
598.21	22.16
598.403	22.23
598.596	22.31
598.79	22.31
598.983	22.3
599.176	22.17
599.369	22.17
599.563	22.45
599.756	22.56
599.949	22.43
600.142	22.51
600.335	22.56
600.528	22.72
600.722	22.81
600.915	22.82
601.108	22.9
601.301	22.96
601.494	23.12
601.687	23.08
601.88	23.06
602.073	23.19
602.266	23.15
602.459	23.25
602.652	23.32
602.845	23.37
603.038	23.49
603.231	23.53
603.424	23.58
603.617	23.6
603.809	23.59
604.002	23.55
604.195	23.57
604.388	23.64
604.581	23.64
604.774	23.57
604.966	23.47
605.159	23.49
605.352	23.51
605.545	23.59
605.737	23.64
605.93	23.68
606.123	23.87
606.316	23.86
606.508	23.99
606.701	23.91
606.894	23.88
607.086	24.01
607.279	24.09
607.471	24.21
607.664	24.2
607.857	24.19
608.049	24.22
608.242	24.16
608.434	24.19
608.627	24.01
608.819	23.98
609.012	24.07
609.204	23.96
609.397	23.92
609.589	23.78
609.782	23.84
609.974	23.89
610.166	23.91
610.359	23.95
610.551	24.02
610.743	24.07
610.936	24.14
611.128	24.09
611.32	24.3
611.513	24.41
611.705	24.6
611.897	24.7
612.09	24.68
612.282	24.71
612.474	24.71
612.666	24.67
612.858	24.67
613.051	24.76
613.243	24.79
613.435	24.88
613.627	24.76
613.819	24.79
614.011	24.6
614.203	24.62
614.395	24.61
614.588	24.75
614.78	24.69
614.972	24.79
615.164	24.67
615.356	24.64
615.548	24.45
615.74	24.49
615.932	24.43
616.124	24.53
616.315	24.53
616.507	24.44
616.699	24.39
616.891	24.37
617.083	24.47
617.275	24.49
617.467	24.76
617.659	25.09
617.85	25.16
618.042	25.26
618.234	25.33
618.426	25.46
618.618	25.52
618.809	25.39
619.001	25.6
619.193	25.48
619.384	25.61
619.576	25.58
619.768	25.19
619.959	25.28
620.151	25.23
620.343	25.34
620.534	25.24
620.726	25.29
620.917	25.39
621.109	25.38
621.301	25.53
621.492	25.6
621.684	25.56
621.875	25.8
622.067	25.81
622.258	25.69
622.45	25.71
622.641	25.74
622.832	25.69
623.024	25.7
623.215	25.77
623.407	25.88
623.598	25.84
623.789	25.93
623.981	25.87
624.172	25.97
624.363	26.19
624.555	25.87
624.746	25.88
624.937	26.03
625.129	26.01
625.32	25.91
625.511	25.67
625.702	25.67
625.893	25.47
626.085	25.57
626.276	25.52
626.467	25.62
626.658	25.82
626.849	25.88
627.04	25.9
627.231	25.97
627.422	26.17
627.614	26.38
627.805	26.43
627.996	26.6
628.187	26.71
628.378	26.59
628.569	26.49
628.76	26.55
628.951	26.55
629.142	26.55
629.332	26.65
629.523	26.51
629.714	26.43
629.905	26.37
630.096	26.37
630.287	26.36
630.478	26.61
630.669	26.63
630.859	26.68
631.05	26.7
631.241	26.67
631.432	26.49
631.623	26.59
631.813	26.88
632.004	26.94
632.195	26.97
632.385	26.82
632.576	26.69
632.767	26.83
632.957	26.83
633.148	26.85
633.339	26.82
633.529	26.97
633.72	26.96
633.91	26.74
634.101	26.97
634.292	26.94
634.482	26.98
634.673	27.02
634.863	26.95
635.054	26.92
635.244	27.19
635.435	27.23
635.625	27.21
635.815	27.26
636.006	27.35
636.196	27.21
636.387	27.27
636.577	27.41
636.767	27.44
636.958	27.38
637.148	27.38
637.338	27.12
637.529	27.09
637.719	27.08
637.909	27.01
638.099	27.07
638.29	27.05
638.48	27.08
638.67	26.93
638.86	26.8
639.05	26.84
639.241	26.99
639.431	27.01
639.621	27.02
639.811	27.03
640.001	27.17
640.191	27.33
640.381	27.27
640.571	26.98
640.761	27.02
640.951	27.21
641.141	27.15
641.331	27.39
641.521	27.35
641.711	27.49
641.901	27.57
642.091	27.57
642.281	27.46
642.471	27.69
642.661	28.02
642.851	27.91
643.041	27.99
643.231	28.17
643.42	27.8
643.61	27.77
643.8	27.68
643.99	27.63
644.18	27.68
644.369	27.57
644.559	27.3
644.749	27.19
644.939	27.37
645.128	27.26
645.318	27.11
645.508	27.38
645.697	27.48
645.887	27.57
646.076	27.65
646.266	27.53
646.456	27.56
646.645	27.57
646.835	27.61
647.024	27.47
647.214	27.36
647.403	27.43
647.593	27.31
647.782	27.33
647.972	27.49
648.161	27.42
648.351	27.53
648.54	27.61
648.73	27.68
648.919	27.73
649.108	27.78
649.298	27.92
649.487	28.06
649.677	28.09
649.866	28.12
650.055	27.93
650.244	28.04
650.434	27.96
650.623	27.86
650.812	27.79
651.002	27.84
651.191	27.84
651.38	27.9
651.569	27.59
651.758	27.49
651.947	27.29
652.137	27.35
652.326	27.32
652.515	27.22
652.704	27.32
652.893	27.51
653.082	27.5
653.271	27.62
653.46	27.58
653.649	27.73
653.838	27.74
654.027	27.94
654.216	27.99
654.405	27.79
654.594	27.96
654.783	28.04
654.972	27.85
655.161	27.72
655.35	27.7
655.539	27.74
655.728	27.77
655.916	27.81
656.105	27.91
656.294	27.77
656.483	27.94
656.672	27.86
656.86	28.01
657.049	28.2
657.238	28.25
657.427	28.28
657.615	28.46
657.804	28.56
657.993	28.61
658.181	28.48
658.37	28.58
658.559	28.63
658.747	28.89
658.936	28.67
659.125	28.53
659.313	28.49
659.502	28.54
659.69	28.54
659.879	28.42
660.067	28.3
660.256	28.3
660.444	28.31
660.633	28.35
660.821	28.2
661.01	28.36
661.198	28.35
661.387	28.63
661.575	28.76
661.763	28.56
661.952	28.46
662.14	28.45
662.328	28.37
662.517	28.3
662.705	28.36
662.893	28.36
663.082	28.24
663.27	28.39
663.458	28.35
663.646	28.31
663.834	28.16
664.023	28.39
664.211	28.81
664.399	28.8
664.587	28.73
664.775	28.48
664.963	28.61
665.152	28.63
665.34	28.6
665.528	28.62
665.716	28.34
665.904	28.74
666.092	28.68
666.28	28.47
666.468	28.84
666.656	29.15
666.844	29.37
667.032	28.91
667.22	28.84
667.408	28.61
667.596	28.54
667.784	28.78
667.971	28.75
668.159	28.6
668.347	28.69
668.535	28.55
668.723	28.3
668.911	28.43
669.098	28.7
669.286	28.82
669.474	29.03
669.662	28.98
669.849	28.84
670.037	28.83
670.225	29.01
670.413	28.55
670.6	28.43
670.788	28.7
670.976	28.82
671.163	28.85
671.351	29.11
671.538	29
671.726	29.04
671.913	28.97
672.101	28.74
672.289	28.64
672.476	29.04
672.664	29.27
672.851	29.22
673.039	28.91
673.226	28.96
673.413	28.51
673.601	28.68
673.788	28.56
673.976	28.7
674.163	29
674.35	29.11
674.538	28.89
674.725	28.83
674.912	28.63
675.1	28.74
675.287	28.5
675.474	28.74
675.662	28.84
675.849	29.21
676.036	29.22
676.223	29.03
676.411	29.03
676.598	29.44
676.785	29.17
676.972	29.41
677.159	29.45
677.346	29.79
677.533	29.7
677.721	29.68
677.908	29.38
678.095	29.48
678.282	29.43
678.469	29.55
678.656	29.47
678.843	29.68
679.03	29.65
679.217	29.55
679.404	29.41
679.591	29.51
679.778	29.48
679.964	29.65
680.151	29.48
680.338	29.53
680.525	29.36
680.712	29.17
680.899	29.44
681.086	29.45
681.272	29.59
681.459	29.56
681.646	29.62
681.833	29.77
682.02	29.96
682.206	30.01
682.393	29.97
682.58	30.28
682.766	30.64
682.953	30.4
683.14	30.27
683.326	30.32
683.513	30.69
683.7	30.42
683.886	30.52
684.073	30.6
684.259	30.96
684.446	31.06
684.632	31.19
684.819	30.97
685.005	30.75
685.192	30.84
685.378	30.79
685.565	30.39
685.751	30.47
685.938	30.12
686.124	29.95
686.31	29.85
686.497	29.72
686.683	29.43
686.87	29.44
687.056	29.62
687.242	29.64
687.429	29.43
687.615	29.57
687.801	29.81
687.987	29.92
688.174	29.91
688.36	29.78
688.546	29.99
688.732	30.19
688.918	30.31
689.105	30.22
689.291	30.35
689.477	30.47
689.663	30.45
689.849	30.36
690.035	30.62
690.221	30.58
690.407	30.46
690.593	30.5
690.779	30.28
690.965	29.96
691.151	30.39
691.337	30.09
691.523	30.33
691.709	30.38
691.895	30.46
692.081	30.22
692.267	29.77
692.453	29.91
692.639	29.66
692.825	29.49
693.011	29.82
693.196	29.56
693.382	29.7
693.568	29.56
693.754	29.39
693.94	29.21
694.125	29.45
694.311	29.8
694.497	29.92
694.682	30.16
694.868	30.26
695.054	30.24
695.239	30.24
695.425	30.39
695.611	30.7
695.796	31.04
695.982	30.86
696.168	30.92
696.353	31.07
696.539	31.1
696.724	31.02
696.91	31.28
697.095	31.23
697.281	31.24
697.466	31.14
697.652	30.7
697.837	30.57
698.023	30.82
698.208	30.56
698.393	30.51
698.579	30.28
698.764	30.33
698.949	30.16
699.135	30.18
699.32	30.01
699.505	29.87
699.691	30.08
699.876	29.98
700.061	29.93
700.246	30
700.432	29.9
700.617	30.26
700.802	30.38
700.987	30.2
701.172	29.49
701.358	29.6
701.543	29.84
701.728	29.84
701.913	29.65
702.098	29.37
702.283	29.5
702.468	29.55
702.653	29.07
702.838	29.04
703.023	29.12
703.208	30.1
703.393	30.01
703.578	29.77
703.763	29.59
703.948	30.08
704.133	30.49
704.318	30.61
704.503	30.78
704.688	31.03
704.873	30.56
705.057	30.82
705.242	30.86
705.427	30.9
705.612	31.2
705.797	31.3
705.981	30.91
706.166	30.98
706.351	30.79
706.536	30.19
706.72	29.9
706.905	30.35
707.09	30.1
707.274	29.7
707.459	29.92
707.644	30.04
707.828	29.89
708.013	29.73
708.197	29.62
708.382	29.52
708.567	30.12
708.751	30.22
708.936	30.09
709.12	30.21
709.305	30.17
709.489	30.18
709.673	29.97
709.858	29.96
710.042	30.39
710.227	30.16
710.411	30.29
710.596	30.36
710.78	30.67
710.964	30.55
711.149	30.24
711.333	30.63
711.517	30.62
711.702	30.74
711.886	30.73
712.07	30.52
712.254	30.53
712.438	30.88
712.623	30.87
712.807	30.93
712.991	31.01
713.175	31.43
713.359	30.85
713.544	30.54
713.728	30.27
713.912	30.39
714.096	30.61
714.28	30.73
714.464	30.64
714.648	30.39
714.832	30.17
715.016	30.02
715.2	29.74
715.384	30.1
715.568	30.24
715.752	30.32
715.936	30.16
716.12	30.21
716.304	30.03
716.488	29.81
716.671	29.62
716.855	29.63
717.039	29.73
717.223	29.68
717.407	29.67
717.59	29.86
717.774	29.66
717.958	29.77
718.142	29.46
718.325	29.61
718.509	29.71
718.693	29.61
718.877	30.09
719.06	30.13
719.244	30.45
719.428	30.65
719.611	30.75
719.795	30.96
719.978	31.02
720.162	31.01
720.345	30.6
720.529	30.33
720.713	30.76
720.896	30.3
721.08	30.19
721.263	30.06
721.446	30.08
721.63	29.65
721.813	29.57
721.997	29.46
722.18	29.43
722.364	29.97
722.547	29.87
722.73	29.94
722.914	29.75
723.097	29.91
723.28	30.4
723.464	29.74
723.647	29.44
723.83	29.46
724.013	29.46
724.197	29.52
724.38	29.37
724.563	29.46
724.746	29.55
724.929	30.24
725.112	30.69
725.296	30.47
725.479	31
725.662	31.38
725.845	31.41
726.028	32.06
726.211	32.01
726.394	31.74
726.577	31.73
726.76	31.49
726.943	31.03
727.126	30.58
727.309	29.98
727.492	29.77
727.675	29.81
727.858	29.64
728.041	29.37
728.224	29.25
728.407	29.61
728.589	29.5
728.772	29.49
728.955	29.48
729.138	29.72
729.321	29.95
729.503	30.09
729.686	29.89
729.869	30.07
730.052	30.29
730.234	30.29
730.417	30.49
730.6	30.94
730.782	31.32
730.965	31.21
731.148	30.87
731.33	30.72
731.513	30.87
731.695	31.07
731.878	31.11
732.061	30.82
732.243	31.1
732.426	30.62
732.608	30.47
732.791	29.87
732.973	30.01
733.156	30.26
733.338	30.68
733.52	30.55
733.703	30.45
733.885	30.31
734.068	30.15
734.25	30.06
734.432	30.06
734.615	30
734.797	30.7
734.979	30.65
735.162	30.45
735.344	30.48
735.526	30.25
735.708	30.39
735.891	30.59
736.073	30.53
736.255	30.48
736.437	30.72
736.619	30.84
736.802	30.54
736.984	30.58
737.166	30.55
737.348	30.3
737.53	30.84
737.712	30.69
737.894	30.56
738.076	31.1
738.258	31.64
738.44	31.61
738.622	31
738.804	31.23
738.986	31.58
739.168	31.24
739.35	31.45
739.532	31.2
739.714	31.03
739.896	31.03
740.078	30.57
740.259	29.74
740.441	29.68
740.623	29.98
740.805	30.02
740.987	29.57
741.168	29.98
741.35	29.66
741.532	28.79
741.714	29.29
741.895	29.43
742.077	29.71
742.259	29.78
742.44	30.17
742.622	30.81
742.804	30.27
742.985	30.43
743.167	30.6
743.348	30.87
743.53	31.19
743.711	31.59
743.893	31.4
744.075	30.93
744.256	30.89
744.438	30.34
744.619	28.82
744.8	29.21
744.982	28.94
745.163	29.14
745.345	28.72
745.526	29.35
745.707	28.66
745.889	29.29
746.07	29.61
746.252	29.66
746.433	30.03
746.614	31.25
746.795	30.46
746.977	29.92
747.158	29.42
747.339	29.5
747.52	28.9
747.702	28.81
747.883	28.58
748.064	28.45
748.245	28.39
748.426	27.91
748.607	28.22
748.788	28.98
748.97	29.41
749.151	28.6
749.332	28.4
749.513	28.47
749.694	28
749.875	28.42
750.056	29.23
750.237	29.18
750.418	29.25
750.599	28.88
750.78	28.6
750.96	28.89
751.141	29.93
751.322	30.59
751.503	30.93
751.684	31.64
751.865	30.88
752.046	30.09
752.226	32.01
752.407	31.9
752.588	31.93
752.769	31.86
752.949	32.02
753.13	32.16
753.311	32.19
753.492	31.75
753.672	32.59
753.853	33.14
754.034	33.01
754.214	31.36
754.395	31.56
754.575	31.79
754.756	31.85
754.937	31.41
755.117	31.1
755.298	31.04
755.478	30.93
755.659	29.57
755.839	29.06
756.02	28.71
756.2	28.91
756.381	28.8
756.561	29.1
756.741	29.51
756.922	29.77
757.102	29.81
757.283	29.67
757.463	30.29
757.643	30.73
757.823	30.72
758.004	31.1
758.184	31.06
758.364	30.85
758.545	30.08
758.725	29.47
758.905	29.38
759.085	29.32
759.265	29.77
759.446	29.4
759.626	29.23
759.806	28.93
759.986	28.18
760.166	28.37
760.346	28.55
760.526	28.3
760.706	28.48
760.886	28.54
761.066	28.64
761.246	28.77
761.426	29.5
761.606	29.97
761.786	30.58
761.966	31.29
762.146	31.06
762.326	31.56
762.506	31.9
762.686	31.85
762.866	31.85
763.046	31.61
763.225	31.63
763.405	31.41
763.585	31.15
763.765	30.88
763.945	30.34
764.124	30.08
764.304	29.81
764.484	29.58
764.664	29.24
764.843	29.52
765.023	30.08
765.203	29.46
765.382	29.61
765.562	29.5
765.741	29.45
765.921	29.97
766.101	30.05
766.28	30.44
766.46	30.68
766.639	31.32
766.819	30.92
766.998	30.81
767.178	30.65
767.357	29.64
767.537	29.88
767.716	29.65
767.896	29.67
768.075	29.89
768.254	29.17
768.434	29.09
768.613	29.21
768.792	29.22
768.972	28.45
769.151	28.88
769.33	29.55
769.51	29.68
769.689	30.02
769.868	29.87
770.047	30.04
770.226	29.87
770.406	29.89
770.585	29.31
770.764	28.74
770.943	29.74
771.122	29.79
771.301	29.6
771.48	29.84
771.66	29.54
771.839	30.22
772.018	29.65
772.197	30.03
772.376	30.27
772.555	30.56
772.734	31.48
772.913	31.22
773.092	31.19
773.271	31.22
773.449	30.46
773.628	31.07
773.807	31.11
773.986	31.18
774.165	31.28
774.344	31.6
774.523	30.97
774.701	30.68
774.88	30.38
775.059	29.63
775.238	29.69
775.417	29.29
775.595	29.05
775.774	28.14
775.953	28.9
776.131	28.48
776.31	27.77
776.489	27.98
776.667	27.97
776.846	27.82
777.025	28.42
777.203	28.36
777.382	28.64
777.56	29.23
777.739	29.52
777.917	29.76
778.096	29.86
778.274	29.89
778.453	29.96
778.631	29.15
778.81	28.94
778.988	29.36
779.166	29.44
779.345	29.52
779.523	28.2
779.702	27.96
779.88	27.02
780.058	27.57
780.237	27.77
780.415	27.94
780.593	28.57
780.771	28.98
780.95	28.72
781.128	28.09
781.306	28.05
781.484	28.42
781.662	28.44
781.841	28.78
782.019	27.61
782.197	27.7
782.375	28.06
782.553	28.4
782.731	28.75
782.909	29.01
783.087	29.44
783.265	29.43
783.443	29.61
783.621	29.75
783.799	29.41
783.977	29.72
784.155	28.3
784.333	28.47
784.511	28.66
784.689	28.38
784.867	27.61
785.045	29.4
785.223	28.32
785.4	28.63
785.578	28.47
785.756	28.34
785.934	28.92
786.112	29.42
786.289	28.69
786.467	28.53
786.645	27.98
786.823	28.5
787	27.65
787.178	28.64
787.356	28.07
787.533	28.19
787.711	29
787.889	28.49
788.066	27.97
788.244	27.76
788.421	27.72
788.599	28.5
788.776	28.27
788.954	27.48
789.131	27.61
789.309	28.42
789.486	28.62
789.664	28.82
789.841	29.13
790.019	30.2
790.196	30.43
790.373	30.75
790.551	30.1
790.728	30.02
790.906	30.22
791.083	31.69
791.26	32.21
791.437	30.93
791.615	30.12
791.792	30.81
791.969	30.75
792.146	31
792.324	29.97
792.501	31.23
792.678	31.08
792.855	30.77
793.032	29.14
793.209	29.15
793.387	30.74
793.564	30.62
793.741	29.74
793.918	29.91
794.095	30.25
794.272	29.8
794.449	29.2
794.626	29.61
794.803	30.88
794.98	32.02
795.157	31.19
795.334	31.77
795.511	32.48
795.688	32.68
795.864	32.37
796.041	31.82
796.218	32.5
796.395	31.93
796.572	31.99
796.749	31.29
796.925	29.25
797.102	29.85
797.279	28.74
797.456	28.05
797.632	27.6
797.809	27
797.986	27.63
798.162	27.26
798.339	28.4
798.516	28.36
798.692	27.87
798.869	27.93
799.046	26.87
799.222	26.78
799.399	26.61
799.575	27.11
799.752	27.53
799.928	26.74
800.105	26.95
800.281	25.01
800.458	24.28
800.634	25.17
800.811	26.3
800.987	26.71
801.163	26.77
801.34	27.74
801.516	27.77
801.692	28.59
801.869	28.82
802.045	29.97
802.221	30.52
802.398	31.79
802.574	31.07
802.75	30.97
802.926	30.84
803.103	31.01
803.279	30.83
803.455	30.54
803.631	29.95
803.807	30.25
803.983	28.36
804.16	29.05
804.336	28.95
804.512	29.83
804.688	30.17
804.864	29.41
805.04	29.23
805.216	28.69
805.392	28.93
805.568	29.62
805.744	28.9
805.92	28.9
806.096	27.89
806.272	27.39
806.448	26.05
806.623	25.91
806.799	26.66
806.975	25.61
807.151	25.61
807.327	25.32
807.503	25.52
807.678	26.14
807.854	27.54
808.03	28.24
808.206	28.77
808.381	28.99
808.557	28.64
808.733	28
808.908	30.12
809.084	31.29
809.26	31.84
809.435	30.61
809.611	30.58
809.787	30.99
809.962	30.89
810.138	29.73
810.313	31
810.489	31.51
810.664	33.17
810.84	33.18
811.015	31.53
811.191	31.54
811.366	30.71
811.542	30.57
811.717	30.16
811.892	30.02
812.068	30.56
812.243	28.63
812.419	29.1
812.594	27.43
812.769	25.2
812.944	24.92
813.12	24.58
813.295	26.97
813.47	26.82
813.645	27.11
813.821	26.96
813.996	27.35
814.171	27.98
814.346	26.1
814.521	27.07
814.697	28.44
814.872	29.67
815.047	30.42
815.222	29.41
815.397	29.09
815.572	29.01
815.747	28.82
815.922	29.98
816.097	31.24
816.272	32.5
816.447	31.96
816.622	31.74
816.797	31.14
816.972	30.41
817.147	30.16
817.322	31.01
817.496	29.91
817.671	31.36
817.846	30.27
818.021	30.6
818.196	30.01
818.371	30.46
818.545	30.61
818.72	30.44
818.895	30.67
819.069	30.66
819.244	30.45
819.419	30.85
819.594	30.66
819.768	30.34
819.943	30.37
820.117	30.27
820.292	30.2
820.467	30.09
820.641	30.5
820.816	30.42
820.99	30.46
821.165	30.25
821.339	30.32
821.514	30.25
821.688	30.37
821.863	30.3
822.037	30.54
822.212	30.61
822.386	30.68
822.56	30.79
822.735	30.87
822.909	30.84
823.084	31.08
823.258	31.18
823.432	31.21
823.606	31.2
823.781	31
823.955	30.83
824.129	30.5
824.303	30.71
824.478	30.34
824.652	30.24
824.826	30.34
825	29.97
825.174	30.17
825.348	30.16
825.523	30.04
825.697	29.93
825.871	30.13
826.045	30.62
826.219	30.26
826.393	29.93
826.567	30.14
826.741	29.83
826.915	30.21
827.089	29.71
827.263	29.2
827.437	29.13
827.611	29.54
827.784	29.51
827.958	29.21
828.132	29.07
828.306	29.86
828.48	29.57
828.654	29.31
828.827	28.96
829.001	28.83
829.175	28.94
829.349	29.54
829.522	28.64
829.696	28.16
829.87	28.55
830.044	28.23
830.217	27.46
830.391	27.66
830.565	28.31
830.738	28.06
830.912	27.84
831.085	28.31
831.259	27.45
831.432	28.12
831.606	28.71
831.779	28.42
831.953	28.62
832.126	29.88
832.3	30.1
832.473	30.78
832.647	31.33
832.82	31.42
832.994	31.41
833.167	30.87
833.34	29.92
833.514	29.14
833.687	29.17
833.86	29.27
834.034	28.6
834.207	27.96
834.38	27.52
834.553	26.71
834.727	27.59
834.9	27.19
835.073	26.85
835.246	27.48
835.419	27.98
835.593	27.23
835.766	27.2
835.939	27.58
836.112	27.2
836.285	26.45
836.458	26.41
836.631	25.03
836.804	25.64
836.977	26
837.15	26.08
837.323	26.81
837.496	27.66
837.669	27.52
837.842	27.74
838.015	28.46
838.188	29.57
838.361	31.11
838.533	31.62
838.706	30.82
838.879	31.14
839.052	30.43
839.225	29.13
839.398	29.71
839.57	30.13
839.743	28.96
839.916	29.05
840.088	27.81
840.261	26.03
840.434	25.33
840.607	25.83
840.779	26.34
840.952	26.03
841.124	27.58
841.297	28.32
841.47	28.16
841.642	27.58
841.815	27.75
841.987	28.67
842.16	30.39
842.332	30.75
842.505	31.16
842.677	30.82
842.85	30.17
843.022	30.23
843.194	26.49
843.367	24.71
843.539	27.56
843.712	27.25
843.884	27.21
844.056	27.89
844.229	27.72
844.401	26.05
844.573	26.7
844.745	28.9
844.918	27.86
845.09	29.32
845.262	31.14
845.434	30.27
845.606	28.89
845.779	29.19
845.951	26.41
846.123	22.96
846.295	21.84
846.467	20.35
846.639	20.92
846.811	18.2
846.983	16.17
847.155	16.35
847.327	13.32
847.499	15.84
847.671	13.37
847.843	13.58
848.015	18.02
848.187	23.4
848.359	23.52
848.531	26.11
848.703	26.39
848.875	31.37
849.047	29.48
849.218	29.77
849.39	29.05
849.562	32.29
849.734	32.99
849.905	31.13
850.077	27.31
850.249	28.88
850.421	27.08
850.592	28.63
850.764	26.58
850.936	29.7
851.107	31.55
851.279	29.49
851.451	29.35
851.622	25.78
851.794	25.73
851.965	25.52
852.137	26.22
852.308	21.75
852.48	22.38
852.651	22.49
852.823	19.74
852.994	17.4
853.166	18.47
853.337	17.66
853.509	20.75
853.68	20.54
853.851	24.73
854.023	22.69
854.194	28.88
854.365	27.63
854.537	27.25
854.708	29.05
854.879	28.92
855.05	30.18
855.222	27.28
855.393	26.54
855.564	27.01
855.735	23.71
855.906	24.82
856.078	24.01
856.249	24.73
856.42	27.83
856.591	29.3
856.762	31.95
856.933	32.2
857.104	34.68
857.275	33.52
857.446	31.71
857.617	29.08
857.788	30.21
857.959	27.87
858.13	30.14
858.301	27.7
858.472	24.32
858.643	21.62
858.814	22.44
858.985	21.78
859.155	27
859.326	27.13
859.497	30.52
859.668	29.56
859.839	30.92
860.009	27.17
860.18	26.12
860.351	26.26
860.522	27.52
860.692	27.01
860.863	26.57
861.034	24.29
861.204	27.04
861.375	26.08
861.546	23
861.716	22.83
861.887	23.98
862.057	26.35
862.228	28.92
862.398	28.29
862.569	25.98
862.739	23.34
862.91	22.95
863.08	24.47
863.251	28.11
863.421	30.44
863.592	27.15
863.762	22.92
863.932	23.42
864.103	25.07
864.273	24.78
864.443	25.85
864.614	30.1
864.784	27.3
864.954	25
865.125	26.66
865.295	27.03
865.465	25.9
865.635	27.18
865.805	26.07
865.976	22.9
866.146	23.78
866.316	24.94
866.486	22.5
866.656	24.04
866.826	21.13
866.996	14.14
867.166	12.61
867.336	17.49
867.506	18.37
867.676	18.83
867.846	18.85
868.016	18.73
868.186	16.33
868.356	16.16
868.526	14.51
868.696	18.06
868.866	20.64
869.036	22
869.206	20.39
869.376	27.53
869.545	28.74
869.715	30.13
869.885	30.61
870.055	29.13
870.224	31
870.394	34.72
870.564	32.54
870.734	33.64
870.903	33.52
871.073	35.68
871.243	31.2
871.412	29.54
871.582	28.33
871.751	24.33
871.921	26.51
872.091	25.58
872.26	25.04
872.43	22.62
872.599	22.87
872.769	22.61
872.938	19.59
873.108	19.7
873.277	19.27
873.446	21.38
873.616	25.19
873.785	24.79
873.955	25.99
874.124	28.01
874.293	30.87
874.463	28.15
874.632	24.68
874.801	23.56
874.971	23.22
875.14	23.55
875.309	21.65
875.478	21.78
875.647	24.18
875.817	22.71
875.986	18.09
876.155	13.94
876.324	12.75
876.493	17.49
876.662	22.35
876.831	19.86
877	16.56
877.17	16.39
877.339	15.6
877.508	15.65
877.677	19.18
877.846	18.42
878.015	22.95
878.184	23.06
878.352	23.49
878.521	21.09
878.69	24.62
878.859	24.48
879.028	24.69
879.197	25.53
879.366	24.18
879.534	22.69
879.703	24.65
879.872	24.75
880.041	25.2
880.21	24.9
880.378	26.23
880.547	24.9
880.716	26.92
880.884	26.56
881.053	27.51
881.222	27.8
881.39	28.24
881.559	28.49
881.727	28.66
881.896	28.75
882.065	29.8
882.233	29.59
882.402	30.57
882.57	29.81
882.739	29.49
882.907	28.28
883.076	29.13
883.244	28.82
883.412	28.73
883.581	28.46
883.749	28.86
883.918	28.01
884.086	28
884.254	27.15
884.423	27.54
884.591	26.55
884.759	27.23
884.927	26.56
885.096	26.01
885.264	25.71
885.432	25.3
885.6	25.09
885.769	23.21
885.937	23.66
886.105	24.34
886.273	22.62
886.441	25.02
886.609	23.38
886.777	21.74
886.945	21.82
887.113	23.16
887.281	25.85
887.449	27.08
887.617	28.07
887.785	24.92
887.953	23.8
888.121	25.97
888.289	24.5
888.457	24.24
888.625	27.58
888.793	26.72
888.961	25.39
889.129	26.11
889.296	22.07
889.464	24.06
889.632	26.85
889.8	26.77
889.967	26.44
890.135	31.62
