Data from 2938580_Reflection_3.txt Node
Date: Sun Jun 14 21:13:10 EDT 2015
User: robert
Spectrometer: USB4E03002
Autoset integration time: false
Trigger mode: 4
Integration Time (sec): 1.000000E-1
Scans to average: 10
Electric dark correction enabled: true
Nonlinearity correction enabled: false
Boxcar width: 5
Stray light correction enabled: false
XAxis mode: Wavelengths
Stop averaging: false
Number of Pixels in Spectrum: 3648
>>>>>Begin Spectral Data<<<<<
177.575	64.81
177.794	80.92
178.014	-2029.87
178.233	56.25
178.452	207.43
178.672	-80.35
178.891	22.8
179.11	73.51
179.33	111.86
179.549	132.62
179.768	207.36
179.987	121.84
180.207	136.68
180.426	150.6
180.645	249.78
180.864	160.1
181.084	160.27
181.303	231.58
181.522	162.26
181.741	122.89
181.96	94.56
182.179	106.57
182.398	105.49
182.618	91.16
182.837	57.91
183.056	40.03
183.275	35.54
183.494	68.59
183.713	80.92
183.932	50.87
184.151	62.63
184.37	55.39
184.589	53.35
184.808	40.07
185.027	51.25
185.246	76.66
185.465	75.05
185.684	78.71
185.903	53.21
186.122	7.12
186.341	15.47
186.56	49.62
186.779	68.04
186.998	57.06
187.216	70.17
187.435	60.9
187.654	63.59
187.873	102.12
188.092	116.4
188.311	98.26
188.53	116.21
188.748	173.63
188.967	249.07
189.186	201.75
189.405	-655.7
189.623	-16491.67
189.842	-291.15
190.061	-266.28
190.28	-201.47
190.498	-413.4
190.717	-1094.06
190.936	538.95
191.154	504.83
191.373	176.31
191.592	352.77
191.81	101.5
192.029	133.59
192.248	91.56
192.466	69.76
192.685	73.46
192.904	67.87
193.122	79.7
193.341	79.02
193.559	73.69
193.778	67.77
193.996	59.48
194.215	75.75
194.433	72.88
194.652	56.12
194.87	75.32
195.089	80.04
195.307	72.73
195.526	69.5
195.744	80.9
195.963	72.02
196.181	105.59
196.399	107.93
196.618	95.71
196.836	85.33
197.055	92.34
197.273	76.06
197.491	70.7
197.71	82.61
197.928	99.77
198.146	78.71
198.365	80.33
198.583	70.4
198.801	82.26
199.019	83.04
199.238	87.58
199.456	76.24
199.674	86.56
199.892	74.78
200.111	64.23
200.329	59.14
200.547	64.6
200.765	69.65
200.983	51.53
201.202	33.49
201.42	47.56
201.638	49.46
201.856	45.6
202.074	50.72
202.292	47.65
202.51	61.4
202.728	51.9
202.946	33.65
203.165	37.28
203.383	47.85
203.601	60.47
203.819	61.71
204.037	63.62
204.255	88.06
204.473	88.37
204.691	94.83
204.909	94.28
205.127	98.66
205.345	75.41
205.562	68.06
205.78	64.47
205.998	64.02
206.216	58.03
206.434	72.4
206.652	74.15
206.87	78.29
207.088	74.41
207.306	88.46
207.523	90.42
207.741	118.21
207.959	120.46
208.177	101.25
208.395	93.39
208.612	124.5
208.83	87.95
209.048	78.92
209.266	76.05
209.483	89.83
209.701	61.87
209.919	66.54
210.136	51.55
210.354	42.52
210.572	51.16
210.79	51.4
211.007	29.18
211.225	41.67
211.442	45.56
211.66	47.51
211.878	47.49
212.095	151.96
212.313	126.68
212.53	152.74
212.748	130.65
212.966	139.68
213.183	145.02
213.401	139.73
213.618	148.22
213.836	183.85
214.053	166.37
214.271	128.63
214.488	73.19
214.705	84.55
214.923	77.85
215.14	86.12
215.358	76.37
215.575	65.65
215.793	78.61
216.01	72.75
216.227	61.52
216.445	51.07
216.662	48.18
216.879	42.73
217.097	32.4
217.314	32.41
217.531	44.25
217.749	45.02
217.966	38.17
218.183	18.37
218.4	24.02
218.618	37.05
218.835	42.67
219.052	52.09
219.269	46.53
219.487	44.36
219.704	40.44
219.921	37.59
220.138	34.18
220.355	29.46
220.572	31.6
220.79	36.72
221.007	31.97
221.224	27.6
221.441	33.01
221.658	34.08
221.875	34.41
222.092	32.82
222.309	24.97
222.526	18.43
222.743	20.56
222.96	19.98
223.177	19.7
223.394	17.28
223.611	16.45
223.828	13.47
224.045	12.8
224.262	9.18
224.479	9.93
224.696	14.76
224.913	16.64
225.13	17.9
225.347	15.83
225.564	11.53
225.781	11.2
225.997	12.69
226.214	9.44
226.431	10.6
226.648	10.72
226.865	10.39
227.082	10.1
227.298	9.39
227.515	9.36
227.732	9.83
227.949	10.27
228.165	11.05
228.382	11
228.599	12.16
228.816	11.87
229.032	12.1
229.249	12.18
229.466	10.91
229.682	12.22
229.899	12.7
230.116	12.11
230.332	11.76
230.549	10.89
230.765	10.73
230.982	10.32
231.199	9.96
231.415	10.5
231.632	10.34
231.848	11.76
232.065	10.02
232.281	8.9
232.498	9.42
232.714	12.21
232.931	12.3
233.147	12.68
233.364	12.44
233.58	10.83
233.797	12.36
234.013	12.86
234.23	13.41
234.446	14.23
234.662	13.85
234.879	13.02
235.095	10.62
235.312	11.4
235.528	10.86
235.744	10.72
235.961	11.23
236.177	8.06
236.393	7.04
236.61	5.4
236.826	6.28
237.042	6.51
237.258	7
237.475	7.43
237.691	6.53
237.907	6.51
238.123	7.4
238.339	7.89
238.556	9.9
238.772	10.1
238.988	9.56
239.204	9.49
239.42	9.85
239.636	10.03
239.853	9.96
240.069	9.51
240.285	8.86
240.501	8.4
240.717	8.43
240.933	8.12
241.149	8.44
241.365	9.06
241.581	9.07
241.797	9.01
242.013	8.05
242.229	8.43
242.445	8.23
242.661	8.51
242.877	8.59
243.093	8.65
243.309	8.12
243.525	7.98
243.741	7.52
243.957	6.91
244.173	6.28
244.388	7.29
244.604	6.98
244.82	7.07
245.036	7.17
245.252	7.2
245.468	7.22
245.683	7.06
245.899	7.09
246.115	6.97
246.331	7.16
246.547	7.47
246.762	7.31
246.978	7.27
247.194	7.67
247.409	7.25
247.625	7.29
247.841	6.74
248.057	6.77
248.272	6.95
248.488	6.95
248.703	6.86
248.919	6.64
249.135	5.98
249.35	6.29
249.566	5.5
249.782	6.44
249.997	5.93
250.213	5.67
250.428	5.87
250.644	5.25
250.859	5.23
251.075	4.98
251.29	4.98
251.506	5.49
251.721	5.64
251.937	5.89
252.152	5.77
252.368	6.55
252.583	7.67
252.798	8.72
253.014	8.98
253.229	8.48
253.445	8.95
253.66	9.07
253.875	9.77
254.091	8.47
254.306	8.43
254.521	7.39
254.737	6.12
254.952	6.19
255.167	5.49
255.383	5.71
255.598	6.21
255.813	5.62
256.028	5.46
256.244	4.77
256.459	4.71
256.674	4.64
256.889	4.87
257.104	4.97
257.32	5.01
257.535	4.96
257.75	4.72
257.965	4.68
258.18	4.87
258.395	4.64
258.61	4.91
258.826	4.81
259.041	4.76
259.256	4.74
259.471	4.69
259.686	4.52
259.901	4.35
260.116	4.39
260.331	4.35
260.546	4.27
260.761	4.23
260.976	3.86
261.191	4.25
261.406	4.29
261.621	4.35
261.836	4.54
262.05	4.31
262.265	4.77
262.48	5.74
262.695	6.16
262.91	6.93
263.125	7.54
263.34	8.43
263.555	8.5
263.769	8.82
263.984	8.79
264.199	8.94
264.414	9.09
264.629	8.58
264.843	7.58
265.058	7.79
265.273	6.96
265.488	6.88
265.702	5.9
265.917	5.63
266.132	5.37
266.346	5.36
266.561	5.78
266.776	5.45
266.99	5.72
267.205	6.02
267.42	5.44
267.634	5.48
267.849	5.11
268.063	5.45
268.278	5.95
268.492	6.2
268.707	6.1
268.922	5.94
269.136	6.32
269.351	6.25
269.565	5.88
269.78	5.4
269.994	5.14
270.209	5.17
270.423	5.3
270.637	4.71
270.852	4.34
271.066	4.56
271.281	4.17
271.495	3.91
271.709	3.81
271.924	3.94
272.138	4.51
272.353	4.66
272.567	4.61
272.781	4.34
272.996	4.74
273.21	4.82
273.424	4.93
273.638	5.09
273.853	5.33
274.067	5.68
274.281	6.15
274.495	6.24
274.71	6.76
274.924	6.81
275.138	6.72
275.352	6.37
275.566	6.89
275.781	6.5
275.995	6.91
276.209	6.74
276.423	6.6
276.637	6.13
276.851	5.82
277.065	5.44
277.279	5.65
277.493	6.06
277.707	6.25
277.921	5.88
278.135	5.41
278.349	4.33
278.563	4.33
278.777	4.16
278.991	3.9
279.205	4.31
279.419	4.3
279.633	4.05
279.847	3.79
280.061	3.45
280.275	3.6
280.489	4.32
280.703	5.1
280.917	4.99
281.131	4.76
281.344	5.02
281.558	4.82
281.772	4.51
281.986	4.5
282.2	4.33
282.414	4.3
282.627	4.05
282.841	3.65
283.055	3.52
283.269	3.65
283.482	3.76
283.696	3.74
283.91	3.66
284.123	3.82
284.337	3.75
284.551	3.73
284.764	3.92
284.978	3.92
285.192	3.97
285.405	3.82
285.619	4.19
285.833	4.26
286.046	3.82
286.26	3.89
286.473	3.79
286.687	4.34
286.9	4.42
287.114	4.41
287.327	4.64
287.541	5.04
287.754	4.93
287.968	4.35
288.181	4.23
288.395	4.7
288.608	5.03
288.822	5.03
289.035	4.47
289.248	4.42
289.462	4.59
289.675	4.57
289.889	4.48
290.102	4.43
290.315	4.93
290.529	5.25
290.742	5.21
290.955	5.07
291.169	5.11
291.382	5.42
291.595	5.62
291.808	5.8
292.022	5.84
292.235	5.68
292.448	6.35
292.661	6.19
292.875	6.15
293.088	6.31
293.301	6.26
293.514	6.28
293.727	6.39
293.94	6.35
294.153	6.35
294.367	6.08
294.58	6.08
294.793	5.68
295.006	5.66
295.219	5.47
295.432	5.38
295.645	5.19
295.858	5.28
296.071	5.01
296.284	4.93
296.497	4.94
296.71	5.13
296.923	5.27
297.136	5.34
297.349	5.51
297.562	5.39
297.775	5.67
297.988	5.98
298.201	6.19
298.414	6.62
298.626	6.84
298.839	6.74
299.052	6.78
299.265	6.9
299.478	6.77
299.691	6.6
299.903	6.8
300.116	6.55
300.329	6.59
300.542	6.25
300.755	6.29
300.967	6.83
301.18	6.76
301.393	6.72
301.605	6.22
301.818	6.64
302.031	6.35
302.243	6.6
302.456	6.25
302.669	6.18
302.881	6.65
303.094	6.81
303.307	6.4
303.519	6.43
303.732	6.57
303.944	6.92
304.157	6.97
304.37	7.22
304.582	7.33
304.795	7.8
305.007	7.85
305.22	7.84
305.432	7.58
305.645	7.62
305.857	7.75
306.069	7.64
306.282	7.62
306.494	7.46
306.707	7.5
306.919	7.39
307.132	7.38
307.344	7.18
307.556	6.94
307.769	7.06
307.981	6.63
308.193	6.54
308.406	6.49
308.618	6.53
308.83	6.42
309.043	6.65
309.255	6.77
309.467	6.91
309.679	7.25
309.892	7.51
310.104	7.57
310.316	7.87
310.528	7.94
310.74	8.11
310.953	7.98
311.165	7.95
311.377	7.97
311.589	7.79
311.801	7.67
312.013	7.65
312.225	7.54
312.437	7.5
312.649	7.64
312.862	8.16
313.074	8.06
313.286	8.53
313.498	8.97
313.71	8.81
313.922	8.99
314.134	8.86
314.346	8.74
314.558	8.73
314.77	8.99
314.982	9
315.193	8.62
315.405	8.72
315.617	8.21
315.829	7.88
316.041	7.69
316.253	7.99
316.465	8.47
316.677	8.34
316.888	8.41
317.1	8.45
317.312	8.27
317.524	8.28
317.736	8.65
317.947	8.99
318.159	9.06
318.371	9.81
318.583	9.59
318.794	9.6
319.006	9.6
319.218	9.74
319.43	9.69
319.641	10.43
319.853	10.65
320.064	10.36
320.276	10.49
320.488	10.38
320.699	9.97
320.911	10.01
321.123	10.32
321.334	10.22
321.546	10.49
321.757	10.42
321.969	10.02
322.18	10.42
322.392	10.56
322.603	10.91
322.815	11.36
323.026	11.28
323.238	11.64
323.449	11.19
323.661	11.54
323.872	11.41
324.083	11.99
324.295	12.26
324.506	11.97
324.718	11.91
324.929	11.87
325.14	12.07
325.352	12.61
325.563	12.38
325.774	12.66
325.986	12.94
326.197	13.09
326.408	12.86
326.62	12.79
326.831	13.56
327.042	13.98
327.253	14.27
327.464	14.25
327.676	14.15
327.887	14.69
328.098	15.11
328.309	15.18
328.52	15.65
328.732	15.94
328.943	16.11
329.154	15.85
329.365	16.02
329.576	15.97
329.787	16.28
329.998	16.57
330.209	16.68
330.42	16.77
330.631	16.83
330.842	16.7
331.053	16.67
331.264	17.03
331.475	17.25
331.686	17.41
331.897	17.6
332.108	17.93
332.319	17.96
332.53	17.88
332.741	18.2
332.952	18.18
333.163	18.42
333.374	18.75
333.585	18.78
333.795	18.74
334.006	19.18
334.217	19.23
334.428	19.21
334.639	19.36
334.849	19.62
335.06	19.44
335.271	19.79
335.482	19.84
335.692	19.76
335.903	19.96
336.114	20
336.325	19.19
336.535	19.74
336.746	19.53
336.957	19.65
337.167	19.57
337.378	19.62
337.589	19.72
337.799	19.73
338.01	19.92
338.22	19.7
338.431	19.66
338.642	20.18
338.852	19.69
339.063	20.11
339.273	19.76
339.484	19.71
339.694	19.44
339.905	19.68
340.115	19.62
340.326	19.35
340.536	19.75
340.746	19.56
340.957	19.63
341.167	19.68
341.378	19.36
341.588	19.69
341.799	19.95
342.009	20.19
342.219	20.11
342.43	19.91
342.64	20.15
342.85	20.12
343.061	20.27
343.271	20.1
343.481	20.08
343.691	19.95
343.902	19.96
344.112	19.92
344.322	19.89
344.532	19.46
344.743	19.6
344.953	19.65
345.163	19.52
345.373	19.48
345.583	19.52
345.793	19.6
346.004	19.65
346.214	19.63
346.424	19.67
346.634	19.54
346.844	19.84
347.054	19.79
347.264	19.67
347.474	19.58
347.684	19.71
347.894	19.76
348.104	19.89
348.314	19.89
348.524	19.79
348.734	19.66
348.944	19.57
349.154	19.46
349.364	19.8
349.574	19.44
349.784	19.13
349.994	19.22
350.204	19.12
350.413	18.88
350.623	18.94
350.833	19.05
351.043	19.06
351.253	19.17
351.463	18.93
351.672	18.9
351.882	19.06
352.092	19.4
352.302	19.55
352.511	19.8
352.721	19.74
352.931	19.79
353.141	19.7
353.35	19.76
353.56	19.63
353.77	19.54
353.979	19.28
354.189	19.51
354.399	19.66
354.608	19.32
354.818	19.09
355.027	19.4
355.237	19.47
355.447	19.28
355.656	19.24
355.866	19.61
356.075	20.02
356.285	19.93
356.494	20
356.704	19.89
356.913	20.03
357.123	20.09
357.332	19.53
357.542	19.52
357.751	19.72
357.96	19.72
358.17	19.46
358.379	19.53
358.589	19.56
358.798	19.23
359.007	19.12
359.217	19.23
359.426	19.25
359.635	19.66
359.845	19.54
360.054	19.64
360.263	19.64
360.472	19.64
360.682	19.48
360.891	19.64
361.1	19.68
361.309	19.86
361.519	19.93
361.728	20.14
361.937	19.93
362.146	20.07
362.355	20.11
362.564	20.22
362.774	20.24
362.983	20.21
363.192	19.93
363.401	19.9
363.61	19.6
363.819	19.3
364.028	19.21
364.237	19.48
364.446	19.31
364.655	19.07
364.864	18.86
365.073	18.79
365.282	18.89
365.491	19.05
365.7	18.9
365.909	19.01
366.118	19.06
366.327	18.67
366.536	18.51
366.745	18.65
366.954	18.75
367.162	18.87
367.371	18.82
367.58	18.81
367.789	18.57
367.998	18.6
368.207	18.6
368.415	18.62
368.624	18.9
368.833	18.82
369.042	18.59
369.25	18.68
369.459	18.8
369.668	18.97
369.877	18.69
370.085	18.87
370.294	18.9
370.503	18.8
370.711	18.94
370.92	18.73
371.129	18.82
371.337	18.86
371.546	18.59
371.754	18.46
371.963	18.46
372.171	18.58
372.38	18.45
372.589	18.66
372.797	18.75
373.006	18.28
373.214	18.33
373.423	18.3
373.631	18.4
373.84	18.46
374.048	18.2
374.256	17.99
374.465	18.06
374.673	18.18
374.882	17.77
375.09	17.75
375.298	18.09
375.507	18.24
375.715	18.08
375.923	17.72
376.132	17.52
376.34	17.51
376.548	17.3
376.757	17.14
376.965	17.06
377.173	17.22
377.381	17.16
377.59	16.85
377.798	16.64
378.006	16.42
378.214	16.59
378.423	16.61
378.631	16.48
378.839	16.63
379.047	16.73
379.255	16.77
379.463	16.71
379.671	16.63
379.879	16.53
380.088	16.51
380.296	16.84
380.504	16.67
380.712	16.82
380.92	16.89
381.128	16.91
381.336	16.78
381.544	16.83
381.752	17.06
381.96	16.95
382.168	16.95
382.376	16.84
382.584	16.75
382.791	16.83
382.999	16.59
383.207	16.69
383.415	16.98
383.623	16.98
383.831	16.74
384.039	16.6
384.247	16.78
384.454	16.96
384.662	17.05
384.87	17.12
385.078	17.29
385.285	17.5
385.493	17.35
385.701	17.08
385.909	17.33
386.116	17.47
386.324	17.45
386.532	17.4
386.739	17.27
386.947	17.24
387.155	17.24
387.362	17.07
387.57	16.83
387.778	16.76
387.985	16.86
388.193	16.74
388.4	16.7
388.608	16.81
388.816	16.76
389.023	16.72
389.231	16.78
389.438	16.68
389.646	16.74
389.853	17.05
390.061	17.14
390.268	17.12
390.475	17.17
390.683	17.26
390.89	17.18
391.098	17.21
391.305	17.2
391.512	17.15
391.72	17.04
391.927	17.06
392.135	17.15
392.342	17.28
392.549	17.27
392.756	17.15
392.964	17.15
393.171	17.14
393.378	17.13
393.586	17.24
393.793	17.36
394	17.47
394.207	17.37
394.414	17.19
394.622	17.06
394.829	17.18
395.036	17.21
395.243	17.19
395.45	17.19
395.657	17.31
395.864	17.2
396.072	17.28
396.279	17.18
396.486	17.24
396.693	17.28
396.9	17.3
397.107	17.03
397.314	17.08
397.521	17.1
397.728	17.18
397.935	17.06
398.142	17.19
398.349	17.08
398.556	17.17
398.763	17.19
398.97	17.32
399.177	17.09
399.383	17.23
399.59	17.21
399.797	17.08
400.004	17.05
400.211	17.03
400.418	17.06
400.625	17
400.831	16.92
401.038	17.07
401.245	16.85
401.452	17.09
401.658	17.09
401.865	17.07
402.072	17.12
402.279	17.26
402.485	17.18
402.692	17.15
402.899	17.1
403.105	17.12
403.312	17.08
403.519	17.05
403.725	17.02
403.932	17
404.138	16.99
404.345	17.05
404.552	16.8
404.758	16.99
404.965	16.95
405.171	16.83
405.378	16.86
405.584	16.82
405.791	16.94
405.997	16.9
406.204	17.03
406.41	17.11
406.617	17.11
406.823	17.16
407.029	17.15
407.236	17.23
407.442	17.52
407.649	17.7
407.855	17.62
408.061	17.61
408.268	17.56
408.474	17.39
408.68	17.43
408.887	17.39
409.093	17.6
409.299	17.56
409.505	17.36
409.712	17.21
409.918	17.03
410.124	16.93
410.33	16.7
410.537	16.86
410.743	16.88
410.949	16.65
411.155	16.69
411.361	16.6
411.567	16.57
411.773	16.68
411.98	16.59
412.186	16.58
412.392	16.66
412.598	16.87
412.804	16.79
413.01	16.82
413.216	16.74
413.422	16.61
413.628	16.44
413.834	16.43
414.04	16.46
414.246	16.63
414.452	16.57
414.658	16.64
414.864	16.6
415.07	16.58
415.275	16.5
415.481	16.5
415.687	16.46
415.893	16.33
416.099	16.17
416.305	16.08
416.511	15.95
416.716	15.97
416.922	15.82
417.128	15.81
417.334	15.72
417.539	15.7
417.745	15.7
417.951	15.64
418.157	15.69
418.362	15.71
418.568	15.73
418.774	15.72
418.979	15.7
419.185	15.7
419.391	15.65
419.596	15.63
419.802	15.56
420.008	15.59
420.213	15.6
420.419	15.61
420.624	15.65
420.83	15.53
421.035	15.6
421.241	15.59
421.446	15.58
421.652	15.5
421.857	15.44
422.063	15.43
422.268	15.31
422.474	15.27
422.679	15.22
422.885	15.11
423.09	15.14
423.295	15.01
423.501	14.91
423.706	14.87
423.911	14.9
424.117	14.94
424.322	14.98
424.527	15.03
424.733	15.04
424.938	15.02
425.143	15.05
425.349	15.01
425.554	14.93
425.759	15
425.964	15.1
426.169	15.02
426.375	15.06
426.58	15.01
426.785	15
426.99	14.94
427.195	14.96
427.4	14.92
427.605	15.07
427.811	15.17
428.016	15.18
428.221	15.14
428.426	15.21
428.631	15.12
428.836	15.1
429.041	15.04
429.246	15.03
429.451	15.01
429.656	15.01
429.861	14.92
430.066	14.99
430.271	15
430.476	15
430.681	15.03
430.886	15.01
431.09	15.05
431.295	15.08
431.5	15.15
431.705	15.14
431.91	15.15
432.115	15.13
432.32	15.09
432.524	15.04
432.729	15.09
432.934	15.06
433.139	15.05
433.343	15.03
433.548	15.01
433.753	15.1
433.958	15.15
434.162	15.2
434.367	15.28
434.572	15.25
434.776	15.21
434.981	15.07
435.186	15.14
435.39	15.2
435.595	15.14
435.799	15.15
436.004	14.95
436.209	14.86
436.413	14.76
436.618	14.72
436.822	14.71
437.027	14.66
437.231	14.65
437.436	14.66
437.64	14.64
437.845	14.6
438.049	14.67
438.253	14.68
438.458	14.74
438.662	14.75
438.867	14.77
439.071	14.74
439.275	14.78
439.48	14.81
439.684	14.77
439.888	14.77
440.093	14.87
440.297	14.77
440.501	14.82
440.706	14.73
440.91	14.73
441.114	14.65
441.318	14.71
441.523	14.75
441.727	14.69
441.931	14.65
442.135	14.61
442.339	14.61
442.543	14.59
442.748	14.57
442.952	14.62
443.156	14.58
443.36	14.58
443.564	14.54
443.768	14.52
443.972	14.6
444.176	14.54
444.38	14.49
444.584	14.41
444.788	14.42
444.992	14.39
445.196	14.38
445.4	14.4
445.604	14.32
445.808	14.29
446.012	14.28
446.216	14.23
446.42	14.28
446.624	14.29
446.828	14.28
447.032	14.26
447.235	14.2
447.439	14.2
447.643	14.34
447.847	14.43
448.051	14.41
448.254	14.36
448.458	14.38
448.662	14.33
448.866	14.33
449.069	14.35
449.273	14.33
449.477	14.37
449.681	14.4
449.884	14.24
450.088	14.16
450.292	14.05
450.495	14.05
450.699	13.95
450.902	13.96
451.106	13.93
451.31	13.95
451.513	13.93
451.717	13.95
451.92	13.91
452.124	13.96
452.327	14
452.531	14.07
452.734	14.05
452.938	14.1
453.141	14.02
453.345	14.03
453.548	13.95
453.752	14.15
453.955	14.04
454.158	13.95
454.362	13.83
454.565	13.83
454.769	13.95
454.972	14.05
455.175	14.11
455.379	14.15
455.582	14.16
455.785	14.16
455.988	13.96
456.192	14.02
456.395	14.02
456.598	14.04
456.801	14.14
457.005	14.14
457.208	14.06
457.411	13.98
457.614	13.97
457.817	14
458.021	14
458.224	14.09
458.427	14.15
458.63	14.18
458.833	14.2
459.036	14.12
459.239	14.08
459.442	14.05
459.645	14.09
459.848	14.16
460.051	14.16
460.254	14.21
460.457	14.17
460.66	14.17
460.863	14.24
461.066	14.32
461.269	14.38
461.472	14.39
461.675	14.56
461.878	14.64
462.081	14.69
462.284	14.73
462.486	14.76
462.689	14.85
462.892	14.9
463.095	14.86
463.298	14.85
463.5	14.81
463.703	14.87
463.906	14.76
464.109	14.74
464.311	14.76
464.514	14.78
464.717	14.89
464.92	14.91
465.122	14.86
465.325	14.97
465.528	14.93
465.73	15.03
465.933	15.01
466.135	15.07
466.338	15.07
466.541	14.93
466.743	14.96
466.946	14.88
467.148	14.87
467.351	14.84
467.553	14.77
467.756	14.73
467.958	14.73
468.161	14.83
468.363	14.84
468.566	14.84
468.768	15.01
468.971	14.95
469.173	14.91
469.375	14.86
469.578	14.83
469.78	14.83
469.983	14.89
470.185	14.82
470.387	14.71
470.59	14.69
470.792	14.76
470.994	14.78
471.196	14.79
471.399	14.87
471.601	14.88
471.803	15.06
472.005	15.05
472.208	15.07
472.41	15.17
472.612	15.2
472.814	15.24
473.016	15.22
473.218	15.17
473.421	15.12
473.623	15.06
473.825	15.02
474.027	14.89
474.229	14.89
474.431	14.87
474.633	14.78
474.835	14.79
475.037	14.75
475.239	14.74
475.441	14.75
475.643	14.83
475.845	14.89
476.047	14.86
476.249	14.83
476.451	14.79
476.653	14.82
476.855	14.77
477.057	14.8
477.258	14.84
477.46	14.77
477.662	14.81
477.864	14.79
478.066	14.77
478.268	14.87
478.469	14.9
478.671	14.94
478.873	14.93
479.075	14.97
479.276	15
479.478	14.9
479.68	14.93
479.882	14.87
480.083	14.87
480.285	14.85
480.487	14.82
480.688	14.85
480.89	14.9
481.091	14.86
481.293	14.8
481.495	14.73
481.696	14.73
481.898	14.65
482.099	14.63
482.301	14.63
482.502	14.58
482.704	14.54
482.905	14.46
483.107	14.41
483.308	14.36
483.51	14.37
483.711	14.35
483.913	14.36
484.114	14.41
484.315	14.42
484.517	14.41
484.718	14.42
484.92	14.48
485.121	14.53
485.322	14.55
485.524	14.57
485.725	14.56
485.926	14.52
486.127	14.5
486.329	14.43
486.53	14.42
486.731	14.4
486.932	14.38
487.134	14.36
487.335	14.34
487.536	14.33
487.737	14.35
487.938	14.38
488.139	14.41
488.341	14.45
488.542	14.53
488.743	14.56
488.944	14.61
489.145	14.68
489.346	14.66
489.547	14.73
489.748	14.78
489.949	14.8
490.15	14.81
490.351	14.85
490.552	14.89
490.753	14.87
490.954	14.85
491.155	14.88
491.356	14.86
491.557	14.92
491.758	14.96
491.959	14.95
492.159	14.98
492.36	15.02
492.561	15.09
492.762	15.06
492.963	15.11
493.164	15.17
493.364	15.17
493.565	15.29
493.766	15.35
493.967	15.34
494.167	15.43
494.368	15.47
494.569	15.49
494.769	15.46
494.97	15.57
495.171	15.65
495.371	15.64
495.572	15.65
495.773	15.62
495.973	15.59
496.174	15.61
496.375	15.61
496.575	15.66
496.776	15.65
496.976	15.69
497.177	15.64
497.377	15.66
497.578	15.73
497.778	15.74
497.979	15.75
498.179	15.8
498.38	15.88
498.58	15.82
498.78	15.81
498.981	15.82
499.181	15.83
499.382	15.89
499.582	15.93
499.782	15.97
499.983	16.13
500.183	16.23
500.383	16.26
500.584	16.29
500.784	16.48
500.984	16.51
501.184	16.58
501.385	16.66
501.585	16.75
501.785	16.79
501.985	16.93
502.185	16.9
502.386	16.91
502.586	17
502.786	17.08
502.986	17.02
503.186	17.05
503.386	17.15
503.586	17.2
503.786	17.34
503.987	17.37
504.187	17.31
504.387	17.39
504.587	17.53
504.787	17.51
504.987	17.55
505.187	17.76
505.387	17.9
505.587	17.96
505.786	18.07
505.986	18.04
506.186	18.16
506.386	18.29
506.586	18.31
506.786	18.36
506.986	18.46
507.186	18.52
507.386	18.54
507.585	18.61
507.785	18.69
507.985	18.7
508.185	18.76
508.384	18.81
508.584	18.8
508.784	18.91
508.984	18.9
509.183	18.99
509.383	19.04
509.583	19.09
509.782	19.13
509.982	19.15
510.182	19.27
510.381	19.33
510.581	19.44
510.781	19.62
510.98	19.72
511.18	19.85
511.379	19.98
511.579	20.15
511.778	20.25
511.978	20.35
512.177	20.5
512.377	20.61
512.576	20.73
512.776	20.82
512.975	20.93
513.175	20.95
513.374	21.06
513.573	21.05
513.773	21.08
513.972	21.16
514.172	21.33
514.371	21.47
514.57	21.59
514.77	21.71
514.969	21.85
515.168	21.89
515.367	22.06
515.567	22.25
515.766	22.46
515.965	22.59
516.164	22.79
516.364	22.89
516.563	23.02
516.762	23.09
516.961	23.19
517.16	23.19
517.359	23.34
517.559	23.45
517.758	23.48
517.957	23.52
518.156	23.59
518.355	23.58
518.554	23.7
518.753	23.79
518.952	23.88
519.151	23.94
519.35	24.07
519.549	24.18
519.748	24.32
519.947	24.49
520.146	24.69
520.345	24.86
520.544	25.03
520.743	25.13
520.942	25.2
521.141	25.37
521.339	25.56
521.538	25.75
521.737	25.83
521.936	25.94
522.135	26.07
522.333	26.24
522.532	26.33
522.731	26.46
522.93	26.57
523.129	26.75
523.327	26.9
523.526	27.06
523.725	27.22
523.923	27.41
524.122	27.51
524.321	27.63
524.519	27.69
524.718	27.82
524.917	27.92
525.115	28.1
525.314	28.2
525.512	28.38
525.711	28.52
525.909	28.67
526.108	28.82
526.306	29
526.505	29.12
526.703	29.26
526.902	29.35
527.1	29.44
527.299	29.46
527.497	29.5
527.696	29.5
527.894	29.48
528.092	29.49
528.291	29.46
528.489	29.46
528.688	29.51
528.886	29.47
529.084	29.54
529.283	29.65
529.481	29.76
529.679	29.91
529.877	30.1
530.076	30.33
530.274	30.56
530.472	30.86
530.67	31.08
530.869	31.27
531.067	31.53
531.265	31.64
531.463	31.73
531.661	31.8
531.859	31.89
532.057	31.94
532.255	31.96
532.454	31.97
532.652	31.92
532.85	31.91
533.048	31.95
533.246	31.96
533.444	32.03
533.642	32.08
533.84	32.24
534.038	32.34
534.236	32.48
534.434	32.65
534.632	32.79
534.83	32.97
535.027	33.15
535.225	33.21
535.423	33.29
535.621	33.36
535.819	33.47
536.017	33.46
536.215	33.47
536.412	33.46
536.61	33.54
536.808	33.55
537.006	33.58
537.203	33.64
537.401	33.78
537.599	33.93
537.797	34.16
537.994	34.35
538.192	34.56
538.39	34.78
538.587	35.03
538.785	35.16
538.983	35.34
539.18	35.52
539.378	35.53
539.575	35.56
539.773	35.6
539.97	35.55
540.168	35.51
540.366	35.44
540.563	35.43
540.761	35.31
540.958	35.28
541.155	35.25
541.353	35.17
541.55	35.18
541.748	35.18
541.945	35.15
542.143	35.19
542.34	35.2
542.537	35.27
542.735	35.26
542.932	35.43
543.129	35.51
543.327	35.62
543.524	35.67
543.721	35.82
543.919	35.94
544.116	36.12
544.313	36.22
544.51	36.27
544.708	36.4
544.905	36.48
545.102	36.52
545.299	36.54
545.496	36.51
545.693	36.56
545.891	36.48
546.088	36.42
546.285	36.3
546.482	36.23
546.679	36.25
546.876	36.17
547.073	36.16
547.27	36.19
547.467	36.24
547.664	36.25
547.861	36.3
548.058	36.4
548.255	36.44
548.452	36.59
548.649	36.68
548.846	36.78
549.043	36.87
549.24	36.98
549.437	36.96
549.633	36.94
549.83	36.96
550.027	37.08
550.224	37.22
550.421	37.28
550.618	37.28
550.814	37.28
551.011	37.24
551.208	37.29
551.405	37.31
551.601	37.38
551.798	37.43
551.995	37.42
552.191	37.37
552.388	37.28
552.585	37.21
552.781	37.23
552.978	37.33
553.175	37.45
553.371	37.38
553.568	37.34
553.764	37.47
553.961	37.5
554.157	37.55
554.354	37.6
554.55	37.72
554.747	37.94
554.943	37.9
555.14	37.88
555.336	37.89
555.533	37.96
555.729	38.12
555.926	37.98
556.122	37.97
556.318	38.03
556.515	38.08
556.711	38.15
556.907	38.1
557.104	38.2
557.3	38.17
557.496	38.09
557.693	38.22
557.889	38.27
558.085	38.37
558.281	38.53
558.478	38.73
558.674	38.68
558.87	38.6
559.066	38.66
559.262	38.55
559.459	38.54
559.655	38.66
559.851	38.68
560.047	38.61
560.243	38.72
560.439	38.6
560.635	38.52
560.831	38.62
561.027	38.65
561.223	38.52
561.419	38.69
561.615	38.78
561.811	38.82
562.007	38.86
562.203	38.88
562.399	38.73
562.595	38.81
562.791	38.94
562.987	39.11
563.183	39.24
563.379	39.49
563.575	39.57
563.771	39.63
563.966	39.66
564.162	39.72
564.358	39.75
564.554	39.89
564.75	39.94
564.945	39.85
565.141	39.68
565.337	39.62
565.533	39.58
565.728	39.57
565.924	39.63
566.12	39.67
566.315	39.6
566.511	39.57
566.707	39.52
566.902	39.48
567.098	39.5
567.293	39.64
567.489	39.65
567.684	39.71
567.88	39.68
568.076	39.63
568.271	39.58
568.467	39.64
568.662	39.74
568.858	39.77
569.053	39.87
569.248	39.86
569.444	39.92
569.639	40
569.835	40.04
570.03	40.07
570.225	40.16
570.421	40.21
570.616	40.2
570.812	40.24
571.007	40.39
571.202	40.26
571.397	40.34
571.593	40.23
571.788	40.12
571.983	40.09
572.178	40.16
572.374	40.11
572.569	40.14
572.764	40.26
572.959	40.17
573.154	40.1
573.35	40.13
573.545	40.13
573.74	40.15
573.935	40.22
574.13	40.17
574.325	40.11
574.52	40.16
574.715	40.22
574.91	40.04
575.105	40.15
575.3	40.15
575.495	40.23
575.69	40.18
575.885	40.21
576.08	40.24
576.275	40.27
576.47	40.25
576.665	40.23
576.86	40.19
577.055	40.19
577.25	40.17
577.444	40.07
577.639	40.09
577.834	40.06
578.029	40.15
578.224	40.1
578.418	40.16
578.613	40.2
578.808	40.18
579.003	40.22
579.197	40.38
579.392	40.39
579.587	40.46
579.781	40.41
579.976	40.43
580.171	40.33
580.365	40.38
580.56	40.36
580.755	40.48
580.949	40.47
581.144	40.38
581.338	40.27
581.533	40.27
581.727	40.27
581.922	40.24
582.116	40.38
582.311	40.44
582.505	40.48
582.7	40.36
582.894	40.43
583.089	40.55
583.283	40.73
583.478	40.92
583.672	40.91
583.866	40.96
584.061	41.06
584.255	41.04
584.449	41.14
584.644	41.18
584.838	41.39
585.032	41.31
585.226	41.34
585.421	41.37
585.615	41.4
585.809	41.52
586.003	41.61
586.198	41.65
586.392	41.63
586.586	41.57
586.78	41.56
586.974	41.6
587.168	41.6
587.363	41.61
587.557	41.54
587.751	41.43
587.945	41.42
588.139	41.35
588.333	41.46
588.527	41.54
588.721	41.48
588.915	41.44
589.109	41.57
589.303	41.59
589.497	41.52
589.691	41.52
589.885	41.56
590.079	41.48
590.273	41.49
590.466	41.33
590.66	41.33
590.854	41.42
591.048	41.56
591.242	41.38
591.436	41.29
591.629	41.44
591.823	41.36
592.017	41.62
592.211	41.79
592.404	41.85
592.598	41.98
592.792	41.92
592.986	41.91
593.179	41.97
593.373	42.1
593.567	42.2
593.76	42.11
593.954	42.15
594.147	42.23
594.341	42.27
594.535	42.3
594.728	42.27
594.922	42.43
595.115	42.44
595.309	42.41
595.502	42.31
595.696	42.36
595.889	42.4
596.083	42.4
596.276	42.13
596.47	42.03
596.663	41.96
596.856	41.9
597.05	41.79
597.243	41.6
597.437	41.64
597.63	41.66
597.823	41.69
598.017	41.76
598.21	42.02
598.403	42.22
598.596	42.29
598.79	42.3
598.983	42.33
599.176	42.29
599.369	42.47
599.563	42.33
599.756	42.42
599.949	42.46
600.142	42.38
600.335	42.35
600.528	42.24
600.722	42.43
600.915	42.63
601.108	42.86
601.301	43.03
601.494	43.22
601.687	43.37
601.88	43.43
602.073	43.36
602.266	43.55
602.459	43.44
602.652	43.49
602.845	43.31
603.038	43.29
603.231	43.13
603.424	43.04
603.617	42.91
603.809	42.8
604.002	42.63
604.195	42.62
604.388	42.38
604.581	42.26
604.774	42.19
604.966	42.08
605.159	41.94
605.352	41.89
605.545	41.89
605.737	41.96
605.93	42.13
606.123	42.24
606.316	42.26
606.508	42.42
606.701	42.59
606.894	42.78
607.086	42.92
607.279	43.02
607.471	43.24
607.664	43.31
607.857	43.16
608.049	43.14
608.242	43.18
608.434	43.08
608.627	43.05
608.819	42.96
609.012	42.73
609.204	42.68
609.397	42.68
609.589	42.6
609.782	42.6
609.974	42.64
610.166	42.54
610.359	42.47
610.551	42.43
610.743	42.31
610.936	42.3
611.128	42.44
611.32	42.48
611.513	42.51
611.705	42.43
611.897	42.35
612.09	42.34
612.282	42.34
612.474	42.41
612.666	42.5
612.858	42.74
613.051	42.88
613.243	42.69
613.435	42.74
613.627	42.77
613.819	42.87
614.011	43.01
614.203	43.32
614.395	43.45
614.588	43.48
614.78	43.45
614.972	43.35
615.164	43.35
615.356	43.3
615.548	43.25
615.74	43.17
615.932	43.13
616.124	42.99
616.315	42.83
616.507	42.85
616.699	42.71
616.891	42.67
617.083	42.86
617.275	42.78
617.467	43.09
617.659	43.2
617.85	43.35
618.042	43.37
618.234	43.3
618.426	43.38
618.618	43.2
618.809	43.27
619.001	43.2
619.193	43.13
619.384	43.13
619.576	43.09
619.768	42.9
619.959	42.77
620.151	42.71
620.343	42.92
620.534	42.7
620.726	42.65
620.917	42.77
621.109	43.01
621.301	42.91
621.492	42.96
621.684	42.83
621.875	43.02
622.067	43.01
622.258	43.1
622.45	43
622.641	43.06
622.832	43.07
623.024	42.92
623.215	43
623.407	43.15
623.598	43.17
623.789	43.32
623.981	43.13
624.172	43.12
624.363	43.21
624.555	43.35
624.746	43.43
624.937	43.56
625.129	43.76
625.32	43.76
625.511	43.61
625.702	43.56
625.893	43.6
626.085	43.85
626.276	43.89
626.467	43.73
626.658	43.62
626.849	43.69
627.04	43.67
627.231	43.76
627.422	43.53
627.614	43.53
627.805	43.5
627.996	43.53
628.187	43.25
628.378	43.15
628.569	43.12
628.76	43.08
628.951	43.01
629.142	43.04
629.332	42.83
629.523	43.05
629.714	42.93
629.905	43.19
630.096	43.03
630.287	43.24
630.478	43.42
630.669	43.44
630.859	43.58
631.05	43.56
631.241	43.59
631.432	43.76
631.623	43.68
631.813	43.84
632.004	43.71
632.195	43.77
632.385	43.78
632.576	43.8
632.767	43.98
632.957	43.99
633.148	44.03
633.339	44.06
633.529	43.77
633.72	43.82
633.91	43.82
634.101	43.63
634.292	43.8
634.482	43.89
634.673	43.92
634.863	43.88
635.054	43.74
635.244	43.65
635.435	43.59
635.625	43.38
635.815	43.34
636.006	43.46
636.196	43.63
636.387	43.44
636.577	43.47
636.767	43.43
636.958	43.4
637.148	43.58
637.338	43.76
637.529	43.86
637.719	44.3
637.909	44.37
638.099	44.27
638.29	44.38
638.48	44.51
638.67	44.36
638.86	44.45
639.05	44.24
639.241	44.3
639.431	44.22
639.621	43.97
639.811	43.92
640.001	43.82
640.191	43.79
640.381	43.94
640.571	43.66
640.761	43.52
640.951	43.38
641.141	43.68
641.331	43.29
641.521	43.31
641.711	43.36
641.901	43.43
642.091	43.46
642.281	43.22
642.471	42.84
642.661	43.15
642.851	43.34
643.041	43.14
643.231	42.97
643.42	43.13
643.61	43.24
643.8	43.3
643.99	43.24
644.18	43.43
644.369	43.8
644.559	44.03
644.749	43.8
644.939	43.6
645.128	43.8
645.318	43.78
645.508	43.85
645.697	43.95
645.887	44.07
646.076	43.85
646.266	43.54
646.456	43.42
646.645	43.46
646.835	43.58
647.024	43.78
647.214	43.94
647.403	44.04
647.593	44.04
647.782	44.02
647.972	43.95
648.161	44.16
648.351	44.24
648.54	44.12
648.73	44.22
648.919	44.24
649.108	44.15
649.298	43.93
649.487	43.94
649.677	43.87
649.866	43.69
650.055	43.74
650.244	43.85
650.434	43.97
650.623	44.03
650.812	43.77
651.002	43.6
651.191	43.64
651.38	43.66
651.569	43.76
651.758	43.84
651.947	43.84
652.137	43.73
652.326	43.73
652.515	43.58
652.704	43.68
652.893	43.79
653.082	43.93
653.271	44.09
653.46	44.19
653.649	44.27
653.838	44.1
654.027	44.15
654.216	44.13
654.405	44.14
654.594	44.42
654.783	44.6
654.972	44.53
655.161	44.53
655.35	44.33
655.539	44.37
655.728	44.32
655.916	44.55
656.105	44.46
656.294	44.69
656.483	44.78
656.672	44.83
656.86	44.58
657.049	44.64
657.238	44.66
657.427	44.7
657.615	44.73
657.804	44.74
657.993	44.67
658.181	44.73
658.37	44.7
658.559	44.4
658.747	44.29
658.936	44.48
659.125	44.64
659.313	44.72
659.502	44.68
659.69	44.47
659.879	44.64
660.067	44.61
660.256	44.52
660.444	44.48
660.633	44.59
660.821	44.62
661.01	44.25
661.198	44.12
661.387	44.04
661.575	44.06
661.763	44.31
661.952	44.03
662.14	44.1
662.328	43.94
662.517	43.84
662.705	43.74
662.893	43.49
663.082	43.87
663.27	43.92
663.458	43.67
663.646	43.6
663.834	43.57
664.023	43.65
664.211	43.81
664.399	44.22
664.587	44.06
664.775	44.14
664.963	44.29
665.152	44.35
665.34	44.1
665.528	44.16
665.716	44.33
665.904	44.26
666.092	44.39
666.28	44.49
666.468	44.42
666.656	44.41
666.844	44.47
667.032	44.41
667.22	44.3
667.408	44.45
667.596	44.65
667.784	44.59
667.971	44.73
668.159	44.7
668.347	44.64
668.535	44.66
668.723	44.88
668.911	45.02
669.098	45.17
669.286	45.14
669.474	45.05
669.662	44.99
669.849	45.09
670.037	44.84
670.225	44.65
670.413	44.51
670.6	44.41
670.788	44.37
670.976	44.26
671.163	44.17
671.351	44.35
671.538	44.53
671.726	44.52
671.913	44.4
672.101	44.5
672.289	44.33
672.476	44.31
672.664	44.25
672.851	44.31
673.039	44.22
673.226	44.3
673.413	44.03
673.601	43.93
673.788	44.19
673.976	44.18
674.163	44.11
674.35	44.2
674.538	44.09
674.725	44.42
674.912	44.15
675.1	44.18
675.287	44.26
675.474	44.45
675.662	44.69
675.849	44.46
676.036	44.53
676.223	44.96
676.411	45.16
676.598	45.46
676.785	45.46
676.972	45.76
677.159	45.94
677.346	45.79
677.533	45.73
677.721	45.45
677.908	45.7
678.095	46.02
678.282	45.78
678.469	45.73
678.656	45.57
678.843	45.37
679.03	45.31
679.217	45.3
679.404	45.42
679.591	45.62
679.778	45.76
679.964	45.62
680.151	45.33
680.338	45.13
680.525	45.1
680.712	45.02
680.899	44.89
681.086	45.13
681.272	45.03
681.459	44.87
681.646	44.58
681.833	44.36
682.02	44.39
682.206	44.58
682.393	44.94
682.58	44.95
682.766	45.02
682.953	45.14
683.14	44.86
683.326	45.25
683.513	45.28
683.7	45.36
683.886	45.62
684.073	45.59
684.259	45.33
684.446	45.03
684.632	45.02
684.819	45.16
685.005	45.2
685.192	45.39
685.378	45
685.565	45.09
685.751	45.01
685.938	45.18
686.124	45.06
686.31	45.02
686.497	45.29
686.683	45.05
686.87	44.59
687.056	44.76
687.242	44.52
687.429	44.44
687.615	44.5
687.801	44.66
687.987	44.47
688.174	44.77
688.36	44.61
688.546	44.5
688.732	44.59
688.918	44.75
689.105	44.56
689.291	44.66
689.477	44.82
689.663	44.9
689.849	44.85
690.035	44.67
690.221	44.52
690.407	45.02
690.593	44.85
690.779	45.14
690.965	45.38
691.151	45.52
691.337	45.59
691.523	45.5
691.709	45.32
691.895	45.25
692.081	45.32
692.267	45.29
692.453	45.21
692.639	45.17
692.825	45.22
693.011	45.23
693.196	45.01
693.382	44.98
693.568	45.08
693.754	45.04
693.94	45.08
694.125	45.27
694.311	45.16
694.497	45.03
694.682	45.57
694.868	45.35
695.054	45.49
695.239	45.84
695.425	45.83
695.611	45.61
695.796	45.9
695.982	45.99
696.168	45.8
696.353	45.83
696.539	46.01
696.724	45.73
696.91	45.68
697.095	45.63
697.281	45.63
697.466	45.75
697.652	46.17
697.837	45.79
698.023	45.62
698.208	45.56
698.393	45.69
698.579	45.54
698.764	45.38
698.949	45.36
699.135	45.24
699.32	45.04
699.505	44.88
699.691	44.4
699.876	44.58
700.061	44.92
700.246	44.96
700.432	44.65
700.617	44.62
700.802	44.69
700.987	44.99
701.172	44.92
701.358	44.76
701.543	44.85
701.728	45.06
701.913	44.95
702.098	44.72
702.283	44.73
702.468	44.83
702.653	44.73
702.838	44.96
703.023	44.92
703.208	45.17
703.393	45.57
703.578	45.26
703.763	45.06
703.948	45.13
704.133	45.18
704.318	45.32
704.503	45.6
704.688	45.96
704.873	45.9
705.057	45.7
705.242	45.62
705.427	45.53
705.612	45.73
705.797	45.6
705.981	45.87
706.166	45.82
706.351	45.98
706.536	46.12
706.72	45.86
706.905	45.85
707.09	45.8
707.274	45.61
707.459	45.41
707.644	45.56
707.828	45.54
708.013	45.51
708.197	45.36
708.382	45.17
708.567	45.03
708.751	44.66
708.936	44.39
709.12	44.52
709.305	44.94
709.489	45.19
709.673	45.3
709.858	45.38
710.042	45.53
710.227	45.48
710.411	45.31
710.596	45.48
710.78	45.86
710.964	46
711.149	46.12
711.333	46.08
711.517	45.63
711.702	45.34
711.886	45.81
712.07	45.67
712.254	45.83
712.438	45.99
712.623	45.89
712.807	45.95
712.991	46.38
713.175	46.26
713.359	46.07
713.544	46.36
713.728	46.29
713.912	45.95
714.096	45.92
714.28	45.98
714.464	46.16
714.648	46
714.832	46.31
715.016	46.25
715.2	46.35
715.384	46.57
715.568	46.86
715.752	46.99
715.936	47.25
716.12	47.19
716.304	47.09
716.488	46.86
716.671	46.89
716.855	46.48
717.039	46.45
717.223	45.94
717.407	45.63
717.59	45.45
717.774	45.95
717.958	45.54
718.142	45.53
718.325	45.63
718.509	45.39
718.693	45.36
718.877	44.8
719.06	44.67
719.244	45.25
719.428	45.33
719.611	45.52
719.795	44.74
719.978	45.27
720.162	45.81
720.345	46.22
720.529	46.59
720.713	46.79
720.896	47.17
721.08	47.21
721.263	46.96
721.446	47.16
721.63	46.98
721.813	47.47
721.997	47.08
722.18	46.64
722.364	46.32
722.547	46.34
722.73	46.4
722.914	46.76
723.097	46.66
723.28	46.66
723.464	46.33
723.647	46.08
723.83	46.14
724.013	45.95
724.197	45.8
724.38	46.16
724.563	45.85
724.746	45.49
724.929	45.48
725.112	45.34
725.296	45.83
725.479	45.96
725.662	46.28
725.845	46.33
726.028	46.46
726.211	46.55
726.394	45.92
726.577	46.06
726.76	45.83
726.943	45.96
727.126	45.7
727.309	45.26
727.492	45.1
727.675	44.8
727.858	44.48
728.041	44.6
728.224	44.82
728.407	44.93
728.589	45.31
728.772	45.47
728.955	45.37
729.138	45.7
729.321	45.55
729.503	45.93
729.686	46.07
729.869	46.06
730.052	46.22
730.234	46.12
730.417	46.26
730.6	46.29
730.782	45.98
730.965	45.56
731.148	46.18
731.33	46.28
731.513	46.01
731.695	46.11
731.878	45.98
732.061	45.44
732.243	45.4
732.426	45.46
732.608	45.11
732.791	45.65
732.973	45.84
733.156	45.57
733.338	46.07
733.52	46.39
733.703	46.07
733.885	46.59
734.068	47.28
734.25	47.4
734.432	47.51
734.615	47.6
734.797	47.63
734.979	47.35
735.162	47.05
735.344	46.18
735.526	46.21
735.708	46.85
735.891	46.95
736.073	46.7
736.255	46.72
736.437	46.25
736.619	46.16
736.802	46.33
736.984	47.26
737.166	47.79
737.348	48.15
737.53	47.9
737.712	47.43
737.894	46.71
738.076	46.61
738.258	46.38
738.44	46.48
738.622	46.65
738.804	46.25
738.986	45.45
739.168	44.98
739.35	44.57
739.532	44.41
739.714	44.14
739.896	44.65
740.078	45.16
740.259	45.37
740.441	45.9
740.623	46.16
740.805	46.24
740.987	47.09
741.168	47.12
741.35	47.16
741.532	47.52
741.714	48.12
741.895	48.2
742.077	47.43
742.259	47.19
742.44	46.85
742.622	46.54
742.804	46.77
742.985	46.63
743.167	46.11
743.348	46.01
743.53	45.79
743.711	45.06
743.893	44.81
744.075	44.75
744.256	44.66
744.438	44.84
744.619	44.99
744.8	44.58
744.982	43.99
745.163	44.3
745.345	44.94
745.526	45.01
745.707	45.46
745.889	45.6
746.07	45.92
746.252	46.39
746.433	46.34
746.614	46.73
746.795	46.85
746.977	46.81
747.158	46.7
747.339	47.45
747.52	47.12
747.702	47.1
747.883	47.02
748.064	47.44
748.245	47.28
748.426	46.94
748.607	46.42
748.788	46.3
748.97	46.6
749.151	46.65
749.332	46.71
749.513	46.94
749.694	46.77
749.875	46.53
750.056	46.23
750.237	45.55
750.418	45.83
750.599	46.01
750.78	45.5
750.96	45.35
751.141	45.76
751.322	44.94
751.503	45.22
751.684	45.62
751.865	45.38
752.046	45.55
752.226	46.39
752.407	46.06
752.588	45.96
752.769	46.86
752.949	47.06
753.13	46.95
753.311	46.94
753.492	46.86
753.672	46.47
753.853	46.75
754.034	46.22
754.214	46.45
754.395	47.04
754.575	47.28
754.756	47.17
754.937	47.08
755.117	47.24
755.298	47.77
755.478	47.71
755.659	48.04
755.839	48.98
756.02	48.67
756.2	48.28
756.381	48.06
756.561	47.78
756.741	47.69
756.922	47.75
757.102	47.47
757.283	47.19
757.463	47.4
757.643	47.26
757.823	46.88
758.004	47.61
758.184	47.39
758.364	47.54
758.545	47.73
758.725	48.13
758.905	48.01
759.085	47.86
759.265	47.84
759.446	47.45
759.626	47.68
759.806	47.15
759.986	47.2
760.166	47.08
760.346	46.38
760.526	46.58
760.706	46.14
760.886	46.51
761.066	47
761.246	47.34
761.426	46.8
761.606	46.63
761.786	47.12
761.966	46.97
762.146	47.25
762.326	47.41
762.506	47.06
762.686	47.1
762.866	46.51
763.046	45.58
763.225	45.31
763.405	45.4
763.585	45.36
763.765	44.96
763.945	44.88
764.124	44.63
764.304	44.72
764.484	44.93
764.664	44.97
764.843	45.17
765.023	45.66
765.203	44.99
765.382	45.16
765.562	45.61
765.741	46.09
765.921	46.32
766.101	46.51
766.28	46.56
766.46	46.29
766.639	45.82
766.819	45.74
766.998	46.08
767.178	46.7
767.357	46.96
767.537	46.78
767.716	46.25
767.896	45.93
768.075	46.22
768.254	46.14
768.434	46
768.613	46.19
768.792	46.08
768.972	46.35
769.151	46.64
769.33	46.62
769.51	46.67
769.689	47.13
769.868	46.63
770.047	46.34
770.226	46.88
770.406	47.48
770.585	48.08
770.764	48.29
770.943	47.65
771.122	47.28
771.301	47.69
771.48	47.8
771.66	47.37
771.839	48
772.018	48.22
772.197	47.9
772.376	47.5
772.555	48.11
772.734	48.47
772.913	48.54
773.092	48.6
773.271	48.18
773.449	47.83
773.628	47.71
773.807	47.56
773.986	46.9
774.165	46.72
774.344	46.71
774.523	46.06
774.701	45.87
774.88	46.04
775.059	46.27
775.238	46.56
775.417	46.5
775.595	47.31
775.774	47.53
775.953	47.93
776.131	47.76
776.31	48
776.489	47.61
776.667	48.24
776.846	48.17
777.025	48.06
777.203	47.8
777.382	48.14
777.56	47.65
777.739	48.14
777.917	48.2
778.096	47.87
778.274	47.48
778.453	47.24
778.631	46.64
778.81	46.95
778.988	48.22
779.166	48.16
779.345	47.6
779.523	47.48
779.702	47.22
779.88	47.5
780.058	48.02
780.237	48.29
780.415	48.72
780.593	49.47
780.771	49.26
780.95	48.47
781.128	48.55
781.306	49.19
781.484	48.62
781.662	48.96
781.841	48.32
782.019	48.48
782.197	48.18
782.375	47.64
782.553	46.53
782.731	46.78
782.909	46.87
783.087	46.98
783.265	46.52
783.443	46.71
783.621	46.63
783.799	46.79
783.977	47.25
784.155	47.55
784.333	48.64
784.511	48.85
784.689	48.26
784.867	47.75
785.045	47.72
785.223	47.97
785.4	48.65
785.578	47.73
785.756	48.03
785.934	47.07
786.112	46.97
786.289	46.97
786.467	46.77
786.645	47.81
786.823	48.69
787	48.88
787.178	48.94
787.356	47.95
787.533	48.26
787.711	48.02
787.889	48.23
788.066	47.84
788.244	47.28
788.421	48.08
788.599	47.65
788.776	47.41
788.954	47.33
789.131	47.07
789.309	47.64
789.486	47.76
789.664	47.77
789.841	48.58
790.019	48.48
790.196	49.15
790.373	48.46
790.551	49.55
790.728	48.03
790.906	48.94
791.083	48.87
791.26	49.16
791.437	49.23
791.615	49.82
791.792	49.25
791.969	50.05
792.146	49.61
792.324	49.57
792.501	48.29
792.678	49.44
792.855	47.77
793.032	48.41
793.209	49.17
793.387	49.09
793.564	48.57
793.741	49.16
793.918	48.82
794.095	49.17
794.272	50.41
794.449	50.61
794.626	50.77
794.803	51.74
794.98	50.66
795.157	50.18
795.334	49.91
795.511	49.32
795.688	49.18
795.864	48.55
796.041	47.68
796.218	47.56
796.395	47.48
796.572	46.3
796.749	45.8
796.925	45.96
797.102	46.26
797.279	46.27
797.456	46.73
797.632	46.28
797.809	47.21
797.986	48.02
798.162	46.87
798.339	45.88
798.516	46.51
798.692	47.02
798.869	46.89
799.046	46.6
799.222	47.33
799.399	47.51
799.575	46.93
799.752	46.23
799.928	46.42
800.105	47.15
800.281	48.45
800.458	48.26
800.634	47.56
800.811	47.12
800.987	46.94
801.163	47.01
801.34	46.98
801.516	47.47
801.692	48.93
801.869	48.32
802.045	48.32
802.221	47.81
802.398	48.08
802.574	48.3
802.75	48.93
802.926	48.86
803.103	48.29
803.279	48.02
803.455	48.21
803.631	47.87
803.807	47.86
803.983	47.84
804.16	48.33
804.336	48.03
804.512	47.43
804.688	47.62
804.864	47.93
805.04	47.61
805.216	47.39
805.392	47.55
805.568	47.25
805.744	47.18
805.92	47.22
806.096	47.22
806.272	48.16
806.448	50.23
806.623	50.24
806.799	50.01
806.975	50.05
807.151	50.71
807.327	50.82
807.503	51.36
807.678	51.34
807.854	50.9
808.03	50.37
808.206	49.85
808.381	47.76
808.557	48.25
808.733	47.61
808.908	48.27
809.084	47.83
809.26	46.49
809.435	45.57
809.611	45.72
809.787	45.81
809.962	46.23
810.138	45.27
810.313	46.73
810.489	47.25
810.664	48.28
810.84	48.8
811.015	50.29
811.191	50.87
811.366	52.21
811.542	52.06
811.717	52.9
811.892	52.7
812.068	53.59
812.243	52.89
812.419	52.33
812.594	52.95
812.769	51.53
812.944	51.28
813.12	52.14
813.295	50.99
813.47	49.85
813.645	48.88
813.821	49.51
813.996	50.7
814.171	51.03
814.346	50.77
814.521	49.55
814.697	49.69
814.872	47.75
815.047	48.28
815.222	48.93
815.397	50.75
815.572	51.74
815.747	50.76
815.922	49.82
816.097	49.24
816.272	48.3
816.447	49.12
816.622	50.81
816.797	51.96
816.972	50.99
817.147	49.69
817.322	50.18
817.496	49.15
817.671	49.81
817.846	49.57
818.021	49.56
818.196	50.67
818.371	49.24
818.545	48.27
818.72	47.78
818.895	48.14
819.069	48.4
819.244	47.48
819.419	47.08
819.594	46.16
819.768	46.57
819.943	46.88
820.117	47.08
820.292	47.53
820.467	47.39
820.641	48.05
820.816	47.77
820.99	47.8
821.165	47.59
821.339	47.81
821.514	48.04
821.688	47.71
821.863	47.44
822.037	46.92
822.212	46.57
822.386	46.19
822.56	45.68
822.735	45.56
822.909	45.48
823.084	45.42
823.258	44.98
823.432	44.54
823.606	44.4
823.781	44.15
823.955	44.26
824.129	44.24
824.303	44.42
824.478	44.29
824.652	44.42
824.826	44.07
825	44.27
825.174	44.65
825.348	44.78
825.523	44.94
825.697	45.35
825.871	45.2
826.045	45.83
826.219	45.99
826.393	46.13
826.567	45.91
826.741	46.41
826.915	46.14
827.089	46.21
827.263	46.43
827.437	46.78
827.611	46.62
827.784	46.94
827.958	46.72
828.132	47.18
828.306	47.57
828.48	47.55
828.654	46.91
828.827	46.85
829.001	46.87
829.175	47.24
829.349	46.46
829.522	46.51
829.696	46.76
829.87	46.43
830.044	46.58
830.217	46.37
830.391	47.02
830.565	47.12
830.738	48.38
830.912	49.04
831.085	48.59
831.259	49.81
831.432	50.5
831.606	50.29
831.779	49.68
831.953	48.53
832.126	48.42
832.3	47.33
832.473	47.71
832.647	46.76
832.82	46.33
832.994	46.48
833.167	46.53
833.34	45.83
833.514	45.45
833.687	44.74
833.86	44.68
834.034	44.82
834.207	45.54
834.38	44.92
834.553	45.24
834.727	45.63
834.9	45.38
835.073	45.59
835.246	45.8
835.419	46.28
835.593	47.31
835.766	47.95
835.939	47.75
836.112	47.52
836.285	48.89
836.458	49.14
836.631	49.42
836.804	50.82
836.977	49.6
837.15	49.87
837.323	48.1
837.496	48.87
837.669	47.44
837.842	47.47
838.015	47.51
838.188	48.22
838.361	47.28
838.533	46.88
838.706	44.59
838.879	44.33
839.052	44.99
839.225	44.92
839.398	44.89
839.57	46.57
839.743	47.67
839.916	47.72
840.088	46.92
840.261	46.82
840.434	46.1
840.607	47.36
840.779	47.69
840.952	47.93
841.124	48.82
841.297	49.25
841.47	48.26
841.642	46.93
841.815	49.09
841.987	48.49
842.16	49.85
842.332	50.13
842.505	48.76
842.677	50.25
842.85	49.3
843.022	52.02
843.194	50.25
843.367	52.71
843.539	53.58
843.712	50.33
843.884	51.82
844.056	50.29
844.229	50.05
844.401	49.43
844.573	48.37
844.745	47.23
844.918	44.68
845.09	46.83
845.262	46.18
845.434	46.07
845.606	48.23
845.779	47.93
845.951	48.49
846.123	45.94
846.295	46.97
846.467	48.83
846.639	50.41
846.811	49.4
846.983	51.95
847.155	48.5
847.327	47.69
847.499	44.97
847.671	43.75
847.843	42.59
848.015	46.77
848.187	47.95
848.359	45.73
848.531	47.19
848.703	49.3
848.875	47.2
849.047	47.19
849.218	48.82
849.39	51.72
849.562	51.77
849.734	54.37
849.905	53.53
850.077	59.33
850.249	58.72
850.421	60.28
850.592	60.84
850.764	61.36
850.936	62.4
851.107	66.41
851.279	63.58
851.451	64.16
851.622	63.76
851.794	63.18
851.965	61.54
852.137	60.69
852.308	57.36
852.48	59.53
852.651	60.65
852.823	59.54
852.994	53.82
853.166	54.98
853.337	55.47
853.509	57.12
853.68	58.07
853.851	53.88
854.023	57.24
854.194	57.34
854.365	54.75
854.537	52.94
854.708	54
854.879	56.35
855.05	57.43
855.222	54.94
855.393	50.57
855.564	49.08
855.735	47.95
855.906	45.79
856.078	47.58
856.249	49.57
856.42	49.38
856.591	48.66
856.762	49.23
856.933	45.21
857.104	45.31
857.275	51.14
857.446	52.67
857.617	56.51
857.788	55.92
857.959	53.46
858.13	53.82
858.301	53.06
858.472	54.31
858.643	50.4
858.814	54.37
858.985	59.56
859.155	59.59
859.326	60.12
859.497	58.43
859.668	60.07
859.839	59.8
860.009	56
860.18	58.81
860.351	57.11
860.522	59.13
860.692	60.3
860.863	60.59
861.034	59.06
861.204	60.05
861.375	60.75
861.546	61.38
861.716	62.14
861.887	63.07
862.057	63.8
862.228	65.39
862.398	64.06
862.569	61.01
862.739	57.65
862.91	56.72
863.08	53.54
863.251	53.44
863.421	53.29
863.592	56.17
863.762	58.54
863.932	51.31
864.103	53.67
864.273	56.23
864.443	55.9
864.614	54.73
864.784	56.63
864.954	60.56
865.125	61.56
865.295	61.58
865.465	60.74
865.635	61.32
865.805	68.75
865.976	66.37
866.146	69.8
866.316	69.86
866.486	74.52
866.656	73.63
866.826	68.79
866.996	68.53
867.166	67.03
867.336	63.75
867.506	61.13
867.676	57.36
867.846	59.22
868.016	53.98
868.186	54.49
868.356	51.41
868.526	46.22
868.696	48.34
868.866	46.67
869.036	44.73
869.206	47.86
869.376	45.39
869.545	44.93
869.715	40.44
869.885	40.28
870.055	37.58
870.224	41.36
870.394	42.84
870.564	40.36
870.734	35.05
870.903	35.34
871.073	38.06
871.243	40.76
871.412	46.11
871.582	49.45
871.751	51.79
871.921	55.61
872.091	51.36
872.26	54.68
872.43	53.83
872.599	58.06
872.769	60.36
872.938	55.6
873.108	58.57
873.277	53.06
873.446	53.09
873.616	51.73
873.785	51.51
873.955	52.81
874.124	53.03
874.293	56.82
874.463	55.54
874.632	52.49
874.801	52.54
874.971	47.91
875.14	48.85
875.309	46.99
875.478	47.42
875.647	46.41
875.817	46.35
875.986	44.5
876.155	41.88
876.324	41.2
876.493	43.95
876.662	43.97
876.831	48.2
877	50.27
877.17	52.74
877.339	52.81
877.508	52.78
877.677	52.56
877.846	52.86
878.015	52.33
878.184	53.64
878.352	54.24
878.521	56.47
878.69	53.85
878.859	50.81
879.028	47.81
879.197	49.21
879.366	48.38
879.534	50.18
879.703	48.6
879.872	48.28
880.041	49.38
880.21	46.97
880.378	45.81
880.547	45.31
880.716	45.91
880.884	45.4
881.053	44.93
881.222	45.29
881.39	45.05
881.559	45.89
881.727	45.69
881.896	45.05
882.065	45.15
882.233	45.36
882.402	45.19
882.57	44.66
882.739	44.71
882.907	45.03
883.076	44.68
883.244	44.37
883.412	43.32
883.581	43.82
883.749	43.5
883.918	43.79
884.086	43.93
884.254	44.92
884.423	45.3
884.591	45.42
884.759	45.53
884.927	45.3
885.096	44.83
885.264	45.92
885.432	46.32
885.6	46.8
885.769	45.96
885.937	44.71
886.105	43.94
886.273	45.79
886.441	47.86
886.609	44.82
886.777	44.42
886.945	46.65
887.113	48
887.281	47.99
887.449	49.96
887.617	51.4
887.785	53.43
887.953	53.33
888.121	53.75
888.289	52.18
888.457	55.96
888.625	56.3
888.793	52.72
888.961	53.19
889.129	50.69
889.296	49.34
889.464	49.52
889.632	48.37
889.8	48.98
889.967	44.03
890.135	43.86
