Data from 2938523_Reflection_2.txt Node
Date: Tue Jun 16 22:09:59 EDT 2015
User: robert
Spectrometer: USB4E03002
Autoset integration time: false
Trigger mode: 4
Integration Time (sec): 1.000000E-1
Scans to average: 10
Electric dark correction enabled: true
Nonlinearity correction enabled: false
Boxcar width: 5
Stray light correction enabled: false
XAxis mode: Wavelengths
Stop averaging: false
Number of Pixels in Spectrum: 3648
>>>>>Begin Spectral Data<<<<<
177.575	15.34
177.794	57.42
178.014	74.52
178.233	78.1
178.452	61.5
178.672	30.25
178.891	36.98
179.11	596.69
179.33	1344.63
179.549	293.98
179.768	246.98
179.987	149.25
180.207	168.37
180.426	58.01
180.645	69.55
180.864	73.91
181.084	102.67
181.303	93.44
181.522	64.95
181.741	63
181.96	54.06
182.179	50.57
182.398	69.69
182.618	59.27
182.837	59.82
183.056	57.02
183.275	51.28
183.494	55.39
183.713	54.24
183.932	59.88
184.151	55.11
184.37	63.93
184.589	63.93
184.808	50.81
185.027	58.11
185.246	70.07
185.465	71.95
185.684	88.87
185.903	76.87
186.122	97.26
186.341	96.61
186.56	123.26
186.779	172.33
186.998	165.21
187.216	187.35
187.435	255.85
187.654	255.34
187.873	384
188.092	482.49
188.311	-323.6
188.53	-111.65
188.748	-209.3
188.967	-4117.71
189.186	211.93
189.405	143.48
189.623	88.18
189.842	115.7
190.061	71.04
190.28	67.16
190.498	57.95
190.717	75.36
190.936	77.35
191.154	76.92
191.373	91.96
191.592	89.08
191.81	79.37
192.029	99.18
192.248	90.99
192.466	135.16
192.685	107.09
192.904	128.62
193.122	113.01
193.341	116.41
193.559	92.98
193.778	97.45
193.996	119.14
194.215	133.32
194.433	129.95
194.652	131.64
194.87	137.85
195.089	147.23
195.307	143.21
195.526	165.46
195.744	146.98
195.963	167.4
196.181	155.69
196.399	167.79
196.618	188.85
196.836	163.21
197.055	150.67
197.273	144.05
197.491	141.25
197.71	157.04
197.928	127.45
198.146	133.66
198.365	122.87
198.583	116.87
198.801	109.45
199.019	101.93
199.238	131.22
199.456	127.79
199.674	114.8
199.892	102.38
200.111	63.32
200.329	75.95
200.547	56.34
200.765	56.81
200.983	56.31
201.202	51.12
201.42	52.01
201.638	34.96
201.856	41.82
202.074	50.45
202.292	35.74
202.51	67.97
202.728	61.15
202.946	85.65
203.165	92.92
203.383	103.55
203.601	115.52
203.819	76.3
204.037	67.01
204.255	59.51
204.473	43.67
204.691	51.98
204.909	41.09
205.127	41.3
205.345	41.48
205.562	28.46
205.78	47.2
205.998	38.25
206.216	56.26
206.434	73.49
206.652	80.48
206.87	93.73
207.088	102.87
207.306	100.03
207.523	98.67
207.741	94.14
207.959	100.4
208.177	79.99
208.395	96.23
208.612	101.76
208.83	98.85
209.048	80.92
209.266	74.91
209.483	64.27
209.701	52.45
209.919	48.66
210.136	57.49
210.354	66.74
210.572	94.93
210.79	72.58
211.007	58.82
211.225	60.75
211.442	66.76
211.66	69.64
211.878	76.69
212.095	158.93
212.313	168.59
212.53	187.06
212.748	151.73
212.966	136.21
213.183	122.83
213.401	137.01
213.618	125.03
213.836	127.91
214.053	120.16
214.271	126.72
214.488	38.29
214.705	34.55
214.923	22.62
215.14	20.76
215.358	23.17
215.575	27
215.793	29.58
216.01	32.97
216.227	54.7
216.445	59.92
216.662	60.32
216.879	69.38
217.097	66.67
217.314	69.14
217.531	70.99
217.749	66.01
217.966	68.22
218.183	63.21
218.4	52.58
218.618	50.58
218.835	43.89
219.052	36.7
219.269	37.77
219.487	40.6
219.704	45.52
219.921	44.21
220.138	46.43
220.355	39.93
220.572	46.37
220.79	53.25
221.007	49.97
221.224	52.08
221.441	54.83
221.658	52.82
221.875	54.58
222.092	51.09
222.309	51.7
222.526	47.6
222.743	51.19
222.96	47.83
223.177	47.27
223.394	44.53
223.611	39.29
223.828	39.84
224.045	35.62
224.262	37.39
224.479	33.35
224.696	32.54
224.913	30.61
225.13	28.73
225.347	28.58
225.564	24.52
225.781	21.83
225.997	21.66
226.214	20.07
226.431	18.45
226.648	16.46
226.865	17.15
227.082	17.06
227.298	16.45
227.515	16.55
227.732	16.8
227.949	17.23
228.165	17.27
228.382	17.18
228.599	17.39
228.816	18.18
229.032	17.2
229.249	15.76
229.466	15.49
229.682	17.02
229.899	17.07
230.116	15.23
230.332	14.89
230.549	14.17
230.765	12.65
230.982	12.93
231.199	14.45
231.415	17.91
231.632	19.18
231.848	19.25
232.065	17.76
232.281	18.74
232.498	19.92
232.714	19
232.931	21.03
233.147	21.74
233.364	20.14
233.58	19.54
233.797	16.23
234.013	16.82
234.23	16.73
234.446	16.6
234.662	15.25
234.879	13.24
235.095	13.35
235.312	13.4
235.528	16.41
235.744	16.5
235.961	14.32
236.177	16.3
236.393	16.48
236.61	15.99
236.826	16.73
237.042	18.01
237.258	19.34
237.475	20.61
237.691	19.24
237.907	16.81
238.123	18.14
238.339	19.54
238.556	18.59
238.772	18.52
238.988	18.88
239.204	18.53
239.42	16.73
239.636	15.95
239.853	14.33
240.069	13.99
240.285	13.82
240.501	12.62
240.717	11.75
240.933	10.7
241.149	9.95
241.365	9.87
241.581	9.72
241.797	10.03
242.013	9.99
242.229	10.74
242.445	10.69
242.661	10.71
242.877	10.97
243.093	10.81
243.309	11.67
243.525	11.87
243.741	11.23
243.957	10.73
244.173	10.14
244.388	10.28
244.604	9.29
244.82	9.2
245.036	8.85
245.252	9.13
245.468	9.22
245.683	9.12
245.899	8.73
246.115	8.74
246.331	8.45
246.547	8.73
246.762	9.07
246.978	9.82
247.194	9.75
247.409	9.66
247.625	9.86
247.841	9.69
248.057	9.63
248.272	10.23
248.488	10.54
248.703	10.42
248.919	10.06
249.135	8.78
249.35	8.11
249.566	7.99
249.782	9.16
249.997	9.32
250.213	9.07
250.428	8.84
250.644	8.95
250.859	8.92
251.075	9.58
251.29	9.09
251.506	9.68
251.721	9.17
251.937	9.46
252.152	8.47
252.368	7.3
252.583	8.09
252.798	9.58
253.014	9.76
253.229	8.7
253.445	9.26
253.66	9.98
253.875	9.5
254.091	10.36
254.306	9.24
254.521	9.9
254.737	10.22
254.952	9.69
255.167	8.51
255.383	8.22
255.598	8.45
255.813	7.72
256.028	7.63
256.244	7.43
256.459	7.46
256.674	7.71
256.889	7.22
257.104	6.99
257.32	7.23
257.535	6.81
257.75	6.61
257.965	6.55
258.18	6.87
258.395	7.24
258.61	7.13
258.826	7.19
259.041	7.39
259.256	7.81
259.471	8.05
259.686	8.05
259.901	8.15
260.116	8.33
260.331	8.42
260.546	8.18
260.761	7.74
260.976	7.95
261.191	7.9
261.406	8.13
261.621	7.16
261.836	6.49
262.05	6.82
262.265	7.35
262.48	7.53
262.695	7.44
262.91	8.11
263.125	8.94
263.34	8.91
263.555	8.61
263.769	8.14
263.984	9.01
264.199	9.31
264.414	8.4
264.629	8.71
264.843	8.75
265.058	9.02
265.273	8.46
265.488	7.87
265.702	8.08
265.917	8.37
266.132	8.3
266.346	7.76
266.561	8.17
266.776	8.29
266.99	7.92
267.205	7.86
267.42	7.64
267.634	7.66
267.849	8.11
268.063	8.16
268.278	8.02
268.492	7.91
268.707	8.22
268.922	7.67
269.136	7.25
269.351	7.33
269.565	6.72
269.78	7.02
269.994	6.76
270.209	6.49
270.423	6.32
270.637	6.2
270.852	5.76
271.066	5.84
271.281	5.85
271.495	6.16
271.709	6.24
271.924	6.47
272.138	6.53
272.353	7.09
272.567	6.93
272.781	6.86
272.996	7.22
273.21	7.97
273.424	8.08
273.638	8.37
273.853	8.72
274.067	8.61
274.281	8.8
274.495	8.98
274.71	8.42
274.924	8.48
275.138	8.73
275.352	8.4
275.566	8.44
275.781	8.13
275.995	7.84
276.209	7.65
276.423	8.1
276.637	8.72
276.851	8.09
277.065	8.31
277.279	8.47
277.493	8.41
277.707	8.48
277.921	8.22
278.135	7.91
278.349	7.89
278.563	7.7
278.777	7.41
278.991	6.94
279.205	7.01
279.419	6.65
279.633	6.9
279.847	6.82
280.061	6.76
280.275	6.96
280.489	7.37
280.703	7.64
280.917	7.28
281.131	6.87
281.344	7.05
281.558	6.94
281.772	7.66
281.986	7.07
282.2	7.15
282.414	6.75
282.627	6.57
282.841	6.71
283.055	6.81
283.269	7.06
283.482	6.77
283.696	6.33
283.91	7.09
284.123	6.4
284.337	6.78
284.551	6.33
284.764	6.51
284.978	6.51
285.192	6.18
285.405	6.15
285.619	6.45
285.833	6.83
286.046	6.74
286.26	5.92
286.473	6.09
286.687	6.21
286.9	6.38
287.114	5.99
287.327	6.27
287.541	6.29
287.754	6.22
287.968	6.43
288.181	6.44
288.395	6.56
288.608	6.92
288.822	7.16
289.035	6.93
289.248	6.94
289.462	7.71
289.675	7.29
289.889	7.38
290.102	7.31
290.315	7.29
290.529	7.34
290.742	7.19
290.955	7.06
291.169	7.15
291.382	7.61
291.595	7.98
291.808	7.67
292.022	8.05
292.235	8.04
292.448	8.29
292.661	7.98
292.875	8.26
293.088	8.46
293.301	8.23
293.514	8.03
293.727	7.58
293.94	7.51
294.153	7.27
294.367	7.26
294.58	6.74
294.793	6.51
295.006	6.43
295.219	6.4
295.432	6.45
295.645	6.57
295.858	6.62
296.071	6.46
296.284	6.53
296.497	6.75
296.71	6.69
296.923	7.18
297.136	7.17
297.349	7.15
297.562	6.83
297.775	6.92
297.988	7.17
298.201	7.54
298.414	7.54
298.626	7.38
298.839	7.43
299.052	7.45
299.265	7.84
299.478	8.01
299.691	8.26
299.903	8.49
300.116	8.4
300.329	8.17
300.542	7.82
300.755	8.05
300.967	8.04
301.18	8.08
301.393	8.14
301.605	7.18
301.818	7.03
302.031	6.81
302.243	6.79
302.456	6.94
302.669	7.03
302.881	7.24
303.094	7.43
303.307	7.55
303.519	7.46
303.732	7.81
303.944	8.36
304.157	8.79
304.37	8.86
304.582	9.08
304.795	8.79
305.007	8.89
305.22	8.8
305.432	8.91
305.645	8.79
305.857	9.19
306.069	8.76
306.282	8.53
306.494	7.78
306.707	7.85
306.919	7.51
307.132	7.7
307.344	7.53
307.556	7.3
307.769	7.09
307.981	6.78
308.193	6.7
308.406	6.42
308.618	6.55
308.83	6.8
309.043	6.86
309.255	6.95
309.467	7
309.679	7.05
309.892	7.21
310.104	7.04
310.316	7.7
310.528	7.34
310.74	8.01
310.953	8
311.165	8.07
311.377	7.61
311.589	7.65
311.801	7.5
312.013	7.66
312.225	7.88
312.437	8.17
312.649	7.8
312.862	8.19
313.074	7.67
313.286	7.7
313.498	7.66
313.71	8.06
313.922	8.62
314.134	8.87
314.346	8.8
314.558	8.38
314.77	8.62
314.982	8.74
315.193	8.41
315.405	8.38
315.617	8.3
315.829	8.24
316.041	8.12
316.253	7.74
316.465	8.05
316.677	7.44
316.888	7.35
317.1	7.39
317.312	7.5
317.524	7.51
317.736	7.98
317.947	8.61
318.159	8.79
318.371	8.66
318.583	8.73
318.794	8.31
319.006	8.84
319.218	8.98
319.43	8.67
319.641	8.22
319.853	8.2
320.064	7.69
320.276	7.85
320.488	7.91
320.699	8.5
320.911	8.3
321.123	8.28
321.334	8.57
321.546	8.89
321.757	8.76
321.969	9.4
322.18	9.95
322.392	10.05
322.603	9.5
322.815	9.56
323.026	9.31
323.238	9.35
323.449	9.45
323.661	9.3
323.872	9.38
324.083	9.61
324.295	9.23
324.506	8.67
324.718	8.76
324.929	9.03
325.14	9.27
325.352	9.49
325.563	9.76
325.774	9.73
325.986	9.59
326.197	9.36
326.408	9.28
326.62	9.41
326.831	9.56
327.042	9.45
327.253	9.26
327.464	9.01
327.676	8.56
327.887	8.39
328.098	8.11
328.309	8.3
328.52	7.91
328.732	8.16
328.943	7.88
329.154	7.75
329.365	7.96
329.576	8.02
329.787	8.14
329.998	8.4
330.209	8.4
330.42	8.98
330.631	8.54
330.842	8.98
331.053	8.63
331.264	8.62
331.475	8.56
331.686	8.71
331.897	8.68
332.108	8.56
332.319	8.39
332.53	7.69
332.741	7.03
332.952	7.4
333.163	7.07
333.374	6.88
333.585	7.16
333.795	7.57
334.006	7.33
334.217	7.14
334.428	7.04
334.639	7.15
334.849	7.47
335.06	7.82
335.271	7.84
335.482	7.84
335.692	8.07
335.903	8.01
336.114	8
336.325	7.92
336.535	8.32
336.746	8.36
336.957	8.58
337.167	9.15
337.378	8.84
337.589	8.78
337.799	8.92
338.01	8.9
338.22	8.68
338.431	9.11
338.642	9.21
338.852	8.95
339.063	8.93
339.273	8.62
339.484	8.34
339.694	8.33
339.905	7.72
340.115	7.77
340.326	7.64
340.536	7.87
340.746	7.3
340.957	7.08
341.167	6.86
341.378	6.61
341.588	6.37
341.799	6.49
342.009	6.52
342.219	6.85
342.43	6.78
342.64	6.84
342.85	6.65
343.061	6.84
343.271	7.28
343.481	6.94
343.691	7.11
343.902	7.42
344.112	7.21
344.322	7.02
344.532	7.28
344.743	7.3
344.953	7.36
345.163	7.14
345.373	6.9
345.583	6.48
345.793	6.74
346.004	6.77
346.214	6.4
346.424	6.71
346.634	7.07
346.844	7.2
347.054	7.17
347.264	7.26
347.474	7.42
347.684	7.61
347.894	7.5
348.104	7.62
348.314	7.71
348.524	7.77
348.734	7.35
348.944	7.34
349.154	7.19
349.364	7.06
349.574	6.69
349.784	6.6
349.994	6.44
350.204	6.37
350.413	6.21
350.623	6.19
350.833	6.25
351.043	6.21
351.253	6.02
351.463	5.54
351.672	5.96
351.882	6.17
352.092	6.21
352.302	6.04
352.511	6.06
352.721	6.29
352.931	6.52
353.141	6.7
353.35	7.05
353.56	7.13
353.77	7.44
353.979	7.51
354.189	7.37
354.399	7.6
354.608	7.81
354.818	8.07
355.027	8.05
355.237	7.67
355.447	7.55
355.656	7.16
355.866	7.07
356.075	6.97
356.285	6.48
356.494	6.61
356.704	6.44
356.913	6.33
357.123	6.39
357.332	6.2
357.542	6.18
357.751	6.42
357.96	6.47
358.17	6.58
358.379	6.74
358.589	6.99
358.798	6.87
359.007	6.51
359.217	6.24
359.426	6.03
359.635	6.05
359.845	5.91
360.054	5.72
360.263	5.76
360.472	5.8
360.682	5.58
360.891	5.43
361.1	5.44
361.309	5.87
361.519	6.27
361.728	6.33
361.937	6.35
362.146	6.61
362.355	6.77
362.564	6.6
362.774	6.55
362.983	6.61
363.192	6.71
363.401	6.75
363.61	6.68
363.819	6.36
364.028	6.25
364.237	6.1
364.446	5.96
364.655	5.61
364.864	5.79
365.073	5.72
365.282	5.8
365.491	5.76
365.7	5.56
365.909	5.35
366.118	5.08
366.327	5.28
366.536	5.46
366.745	5.49
366.954	5.69
367.162	5.83
367.371	5.91
367.58	6.02
367.789	5.8
367.998	6.05
368.207	5.93
368.415	6.16
368.624	5.64
368.833	5.66
369.042	5.69
369.25	5.83
369.459	5.67
369.668	5.69
369.877	5.37
370.085	5.74
370.294	5.68
370.503	5.75
370.711	5.88
370.92	5.83
371.129	5.88
371.337	5.62
371.546	5.3
371.754	5.37
371.963	5.16
372.171	5.32
372.38	5.16
372.589	5.26
372.797	5.2
373.006	5.05
373.214	5.64
373.423	5.53
373.631	5.71
373.84	5.95
374.048	5.82
374.256	5.74
374.465	5.95
374.673	5.84
374.882	5.63
375.09	5.46
375.298	5.58
375.507	5.45
375.715	5.61
375.923	5.59
376.132	5.34
376.34	5.42
376.548	5.55
376.757	5.42
376.965	5.49
377.173	5.6
377.381	5.9
377.59	5.99
377.798	6.09
378.006	5.91
378.214	5.96
378.423	6.13
378.631	6.08
378.839	6.26
379.047	6.22
379.255	6.13
379.463	6.14
379.671	5.76
379.879	5.67
380.088	5.63
380.296	5.54
380.504	5.63
380.712	5.69
380.92	5.59
381.128	5.51
381.336	5.35
381.544	5.15
381.752	5.07
381.96	5.32
382.168	5.3
382.376	5.11
382.584	5.32
382.791	5.06
382.999	4.84
383.207	4.99
383.415	4.89
383.623	4.83
383.831	5.01
384.039	4.98
384.247	4.95
384.454	4.93
384.662	4.85
384.87	4.81
385.078	4.97
385.285	4.98
385.493	4.77
385.701	4.73
385.909	4.76
386.116	4.54
386.324	4.55
386.532	4.72
386.739	4.74
386.947	4.72
387.155	4.45
387.362	4.36
387.57	4.42
387.778	4.38
387.985	4.36
388.193	4.41
388.4	4.5
388.608	4.66
388.816	4.45
389.023	4.25
389.231	4.07
389.438	4.29
389.646	4.32
389.853	4.39
390.061	4.47
390.268	4.5
390.475	4.33
390.683	4.37
390.89	4.16
391.098	4.2
391.305	4.44
391.512	4.61
391.72	4.44
391.927	4.27
392.135	4.11
392.342	4.09
392.549	4.13
392.756	4.18
392.964	3.91
393.171	4.02
393.378	4.04
393.586	3.81
393.793	3.82
394	3.94
394.207	4.08
394.414	4.2
394.622	4.18
394.829	4.21
395.036	4.34
395.243	4.45
395.45	4.19
395.657	3.97
395.864	4.1
396.072	4.25
396.279	4.26
396.486	4.26
396.693	4.09
396.9	4.1
397.107	3.86
397.314	3.99
397.521	4.22
397.728	4.44
397.935	4.75
398.142	4.83
398.349	4.74
398.556	4.76
398.763	4.83
398.97	5.08
399.177	4.98
399.383	5.05
399.59	4.74
399.797	4.66
400.004	4.62
400.211	4.39
400.418	4.22
400.625	4.19
400.831	4.16
401.038	4.08
401.245	3.87
401.452	4
401.658	4
401.865	4.14
402.072	4.2
402.279	4.19
402.485	4.26
402.692	4.38
402.899	4.3
403.105	4.23
403.312	4.17
403.519	4.21
403.725	4.07
403.932	4.09
404.138	4.11
404.345	3.9
404.552	3.88
404.758	3.92
404.965	3.75
405.171	3.78
405.378	3.72
405.584	3.81
405.791	3.98
405.997	4.18
406.204	4.18
406.41	4.13
406.617	4.22
406.823	4.13
407.029	4
407.236	4.21
407.442	4.29
407.649	4.25
407.855	4.11
408.061	4.03
408.268	3.86
408.474	3.88
408.68	3.96
408.887	3.95
409.093	4.04
409.299	4.15
409.505	4
409.712	3.89
409.918	4.09
410.124	4.06
410.33	4.05
410.537	4.16
410.743	4.16
410.949	4
411.155	4.03
411.361	4.04
411.567	4.02
411.773	3.97
411.98	4.03
412.186	3.86
412.392	3.98
412.598	3.64
412.804	3.42
413.01	3.24
413.216	3.27
413.422	3.24
413.628	3.08
413.834	2.85
414.04	2.85
414.246	2.75
414.452	2.77
414.658	2.72
414.864	2.95
415.07	3.12
415.275	3.32
415.481	3.25
415.687	3.31
415.893	3.33
416.099	3.39
416.305	3.38
416.511	3.29
416.716	3.23
416.922	3.27
417.128	3.32
417.334	3.26
417.539	3.02
417.745	3.07
417.951	3.1
418.157	3.16
418.362	3.25
418.568	3.18
418.774	3.16
418.979	3.21
419.185	3.11
419.391	2.93
419.596	2.94
419.802	2.99
420.008	2.91
420.213	2.82
420.419	2.83
420.624	2.7
420.83	2.68
421.035	2.76
421.241	2.71
421.446	2.7
421.652	2.8
421.857	2.78
422.063	2.77
422.268	2.8
422.474	2.8
422.679	2.8
422.885	2.83
423.09	2.77
423.295	2.76
423.501	2.77
423.706	2.81
423.911	2.76
424.117	2.8
424.322	2.85
424.527	2.9
424.733	2.86
424.938	2.81
425.143	2.86
425.349	3.02
425.554	3.01
425.759	2.98
425.964	2.92
426.169	3.1
426.375	2.97
426.58	2.96
426.785	2.94
426.99	3.05
427.195	3.05
427.4	3.05
427.605	3.11
427.811	3.06
428.016	3.04
428.221	3.11
428.426	2.87
428.631	3.03
428.836	3.09
429.041	3.07
429.246	3.04
429.451	2.91
429.656	2.77
429.861	2.7
430.066	2.8
430.271	2.84
430.476	2.89
430.681	2.92
430.886	2.81
431.09	2.66
431.295	2.58
431.5	2.43
431.705	2.52
431.91	2.63
432.115	2.62
432.32	2.57
432.524	2.5
432.729	2.43
432.934	2.45
433.139	2.48
433.343	2.58
433.548	2.64
433.753	2.77
433.958	2.72
434.162	2.77
434.367	2.73
434.572	2.75
434.776	2.71
434.981	2.8
435.186	2.77
435.39	2.8
435.595	2.83
435.799	2.72
436.004	2.63
436.209	2.63
436.413	2.54
436.618	2.55
436.822	2.5
437.027	2.64
437.231	2.52
437.436	2.54
437.64	2.56
437.845	2.48
438.049	2.45
438.253	2.49
438.458	2.53
438.662	2.51
438.867	2.52
439.071	2.46
439.275	2.45
439.48	2.51
439.684	2.47
439.888	2.52
440.093	2.49
440.297	2.53
440.501	2.52
440.706	2.52
440.91	2.6
441.114	2.6
441.318	2.7
441.523	2.7
441.727	2.7
441.931	2.71
442.135	2.75
442.339	2.81
442.543	2.83
442.748	2.83
442.952	2.84
443.156	2.77
443.36	2.79
443.564	2.75
443.768	2.71
443.972	2.69
444.176	2.73
444.38	2.64
444.584	2.61
444.788	2.63
444.992	2.64
445.196	2.56
445.4	2.49
445.604	2.47
445.808	2.49
446.012	2.5
446.216	2.45
446.42	2.46
446.624	2.42
446.828	2.45
447.032	2.44
447.235	2.41
447.439	2.45
447.643	2.49
447.847	2.38
448.051	2.37
448.254	2.28
448.458	2.27
448.662	2.19
448.866	2.21
449.069	2.25
449.273	2.28
449.477	2.28
449.681	2.26
449.884	2.32
450.088	2.42
450.292	2.44
450.495	2.52
450.699	2.58
450.902	2.51
451.106	2.44
451.31	2.46
451.513	2.47
451.717	2.45
451.92	2.44
452.124	2.4
452.327	2.44
452.531	2.44
452.734	2.47
452.938	2.46
453.141	2.62
453.345	2.64
453.548	2.45
453.752	2.37
453.955	2.42
454.158	2.43
454.362	2.36
454.565	2.38
454.769	2.38
454.972	2.39
455.175	2.48
455.379	2.37
455.582	2.37
455.785	2.52
455.988	2.58
456.192	2.51
456.395	2.55
456.598	2.62
456.801	2.55
457.005	2.54
457.208	2.5
457.411	2.47
457.614	2.49
457.817	2.57
458.021	2.56
458.224	2.53
458.427	2.48
458.63	2.48
458.833	2.53
459.036	2.49
459.239	2.46
459.442	2.46
459.645	2.4
459.848	2.41
460.051	2.33
460.254	2.32
460.457	2.37
460.66	2.49
460.863	2.52
461.066	2.55
461.269	2.59
461.472	2.61
461.675	2.59
461.878	2.63
462.081	2.53
462.284	2.61
462.486	2.59
462.689	2.59
462.892	2.59
463.095	2.44
463.298	2.35
463.5	2.53
463.703	2.52
463.906	2.7
464.109	2.81
464.311	2.94
464.514	2.93
464.717	2.97
464.92	2.91
465.122	2.87
465.325	2.93
465.528	2.96
465.73	2.87
465.933	2.83
466.135	2.7
466.338	2.55
466.541	2.47
466.743	2.48
466.946	2.45
467.148	2.42
467.351	2.36
467.553	2.33
467.756	2.37
467.958	2.33
468.161	2.31
468.363	2.29
468.566	2.4
468.768	2.47
468.971	2.39
469.173	2.47
469.375	2.53
469.578	2.48
469.78	2.54
469.983	2.41
470.185	2.4
470.387	2.44
470.59	2.44
470.792	2.5
470.994	2.42
471.196	2.36
471.399	2.38
471.601	2.46
471.803	2.43
472.005	2.59
472.208	2.6
472.41	2.64
472.612	2.61
472.814	2.66
473.016	2.65
473.218	2.73
473.421	2.79
473.623	2.7
473.825	2.65
474.027	2.77
474.229	2.66
474.431	2.76
474.633	2.72
474.835	2.78
475.037	2.74
475.239	2.54
475.441	2.5
475.643	2.49
475.845	2.47
476.047	2.5
476.249	2.46
476.451	2.47
476.653	2.49
476.855	2.47
477.057	2.44
477.258	2.42
477.46	2.52
477.662	2.47
477.864	2.52
478.066	2.53
478.268	2.39
478.469	2.43
478.671	2.42
478.873	2.34
479.075	2.35
479.276	2.33
479.478	2.33
479.68	2.29
479.882	2.38
480.083	2.33
480.285	2.33
480.487	2.33
480.688	2.31
480.89	2.32
481.091	2.27
481.293	2.27
481.495	2.23
481.696	2.23
481.898	2.24
482.099	2.2
482.301	2.21
482.502	2.21
482.704	2.23
482.905	2.23
483.107	2.23
483.308	2.25
483.51	2.22
483.711	2.24
483.913	2.25
484.114	2.25
484.315	2.25
484.517	2.26
484.718	2.23
484.92	2.24
485.121	2.22
485.322	2.16
485.524	2.14
485.725	2.16
485.926	2.12
486.127	2.14
486.329	2.11
486.53	2.14
486.731	2.1
486.932	2.11
487.134	2.08
487.335	2.1
487.536	2.13
487.737	2.16
487.938	2.18
488.139	2.26
488.341	2.26
488.542	2.27
488.743	2.27
488.944	2.31
489.145	2.34
489.346	2.35
489.547	2.35
489.748	2.37
489.949	2.41
490.15	2.35
490.351	2.36
490.552	2.36
490.753	2.34
490.954	2.36
491.155	2.36
491.356	2.35
491.557	2.4
491.758	2.38
491.959	2.36
492.159	2.35
492.36	2.35
492.561	2.29
492.762	2.26
492.963	2.29
493.164	2.23
493.364	2.22
493.565	2.22
493.766	2.19
493.967	2.27
494.167	2.25
494.368	2.23
494.569	2.35
494.769	2.39
494.97	2.46
495.171	2.48
495.371	2.56
495.572	2.54
495.773	2.55
495.973	2.64
496.174	2.56
496.375	2.62
496.575	2.67
496.776	2.65
496.976	2.64
497.177	2.62
497.377	2.64
497.578	2.67
497.778	2.74
497.979	2.75
498.179	2.63
498.38	2.76
498.58	2.75
498.78	2.71
498.981	2.76
499.181	2.84
499.382	2.88
499.582	2.88
499.782	2.91
499.983	2.88
500.183	2.9
500.383	2.99
500.584	2.88
500.784	2.83
500.984	2.91
501.184	2.87
501.385	2.88
501.585	2.87
501.785	2.84
501.985	2.76
502.185	2.8
502.386	2.78
502.586	2.68
502.786	2.73
502.986	2.84
503.186	2.73
503.386	2.72
503.586	2.7
503.786	2.59
503.987	2.64
504.187	2.68
504.387	2.66
504.587	2.72
504.787	2.78
504.987	2.81
505.187	2.81
505.387	2.89
505.587	2.96
505.786	3.01
505.986	3.13
506.186	3.15
506.386	3.19
506.586	3.28
506.786	3.21
506.986	3.27
507.186	3.21
507.386	3.19
507.585	3.14
507.785	3.14
507.985	3.18
508.185	3.19
508.384	3.2
508.584	3.13
508.784	3.13
508.984	3.25
509.183	3.19
509.383	3.27
509.583	3.3
509.782	3.28
509.982	3.27
510.182	3.2
510.381	3.2
510.581	3.25
510.781	3.33
510.98	3.3
511.18	3.28
511.379	3.33
511.579	3.28
511.778	3.24
511.978	3.32
512.177	3.3
512.377	3.34
512.576	3.33
512.776	3.28
512.975	3.31
513.175	3.28
513.374	3.19
513.573	3.21
513.773	3.36
513.972	3.36
514.172	3.42
514.371	3.49
514.57	3.48
514.77	3.51
514.969	3.56
515.168	3.53
515.367	3.62
515.567	3.69
515.766	3.67
515.965	3.58
516.164	3.55
516.364	3.55
516.563	3.5
516.762	3.5
516.961	3.43
517.16	3.4
517.359	3.44
517.559	3.43
517.758	3.38
517.957	3.37
518.156	3.41
518.355	3.46
518.554	3.39
518.753	3.45
518.952	3.48
519.151	3.54
519.35	3.55
519.549	3.53
519.748	3.51
519.947	3.64
520.146	3.67
520.345	3.62
520.544	3.62
520.743	3.67
520.942	3.63
521.141	3.64
521.339	3.7
521.538	3.64
521.737	3.75
521.936	3.74
522.135	3.68
522.333	3.69
522.532	3.73
522.731	3.72
522.93	3.82
523.129	3.85
523.327	3.87
523.526	3.81
523.725	3.95
523.923	3.93
524.122	4.01
524.321	3.99
524.519	3.96
524.718	3.94
524.917	3.99
525.115	3.94
525.314	3.93
525.512	3.95
525.711	3.95
525.909	3.87
526.108	3.84
526.306	3.87
526.505	3.92
526.703	3.96
526.902	3.97
527.1	4.02
527.299	4.04
527.497	4.08
527.696	4.09
527.894	4.16
528.092	4.2
528.291	4.22
528.489	4.2
528.688	4.2
528.886	4.23
529.084	4.26
529.283	4.22
529.481	4.23
529.679	4.21
529.877	4.23
530.076	4.19
530.274	4.21
530.472	4.22
530.67	4.25
530.869	4.27
531.067	4.25
531.265	4.26
531.463	4.32
531.661	4.34
531.859	4.35
532.057	4.38
532.255	4.38
532.454	4.38
532.652	4.4
532.85	4.41
533.048	4.45
533.246	4.51
533.444	4.56
533.642	4.55
533.84	4.61
534.038	4.64
534.236	4.62
534.434	4.63
534.632	4.69
534.83	4.76
535.027	4.76
535.225	4.81
535.423	4.83
535.621	4.9
535.819	4.96
536.017	4.91
536.215	4.94
536.412	4.99
536.61	5.02
536.808	5.03
537.006	5.01
537.203	5.09
537.401	5.14
537.599	5.22
537.797	5.15
537.994	5.14
538.192	5.27
538.39	5.38
538.587	5.42
538.785	5.54
538.983	5.58
539.18	5.58
539.378	5.58
539.575	5.54
539.773	5.53
539.97	5.58
540.168	5.61
540.366	5.64
540.563	5.66
540.761	5.69
540.958	5.63
541.155	5.64
541.353	5.69
541.55	5.7
541.748	5.72
541.945	5.78
542.143	5.8
542.34	5.81
542.537	5.84
542.735	5.77
542.932	5.77
543.129	5.89
543.327	5.95
543.524	6.04
543.721	6.09
543.919	6.19
544.116	6.2
544.313	6.36
544.51	6.4
544.708	6.39
544.905	6.46
545.102	6.57
545.299	6.55
545.496	6.61
545.693	6.58
545.891	6.66
546.088	6.66
546.285	6.75
546.482	6.74
546.679	6.82
546.876	6.92
547.073	7
547.27	7.08
547.467	7.09
547.664	7.09
547.861	7.24
548.058	7.3
548.255	7.4
548.452	7.42
548.649	7.51
548.846	7.55
549.043	7.59
549.24	7.62
549.437	7.63
549.633	7.82
549.83	7.9
550.027	8.03
550.224	8.11
550.421	8.11
550.618	8.17
550.814	8.1
551.011	8.17
551.208	8.25
551.405	8.31
551.601	8.43
551.798	8.47
551.995	8.46
552.191	8.52
552.388	8.44
552.585	8.56
552.781	8.58
552.978	8.65
553.175	8.72
553.371	8.74
553.568	8.8
553.764	8.8
553.961	8.9
554.157	9.09
554.354	9.03
554.55	9.19
554.747	9.18
554.943	9.27
555.14	9.43
555.336	9.4
555.533	9.45
555.729	9.59
555.926	9.67
556.122	9.74
556.318	9.67
556.515	9.79
556.711	9.9
556.907	10.05
557.104	10.21
557.3	10.29
557.496	10.42
557.693	10.56
557.889	10.65
558.085	10.76
558.281	10.78
558.478	10.94
558.674	11.1
558.87	11.06
559.066	11.22
559.262	11.24
559.459	11.2
559.655	11.3
559.851	11.28
560.047	11.33
560.243	11.49
560.439	11.51
560.635	11.58
560.831	11.57
561.027	11.62
561.223	11.61
561.419	11.67
561.615	11.71
561.811	11.86
562.007	11.95
562.203	12.01
562.399	12.02
562.595	12.22
562.791	12.42
562.987	12.55
563.183	12.79
563.379	12.81
563.575	12.92
563.771	13.17
563.966	13.26
564.162	13.37
564.358	13.49
564.554	13.54
564.75	13.57
564.945	13.56
565.141	13.62
565.337	13.64
565.533	13.8
565.728	13.88
565.924	13.84
566.12	13.88
566.315	13.95
566.511	13.9
566.707	13.9
566.902	13.94
567.098	14.04
567.293	14
567.489	14.1
567.684	14.15
567.88	14.19
568.076	14.27
568.271	14.4
568.467	14.53
568.662	14.66
568.858	14.87
569.053	14.98
569.248	14.95
569.444	15.12
569.639	15.17
569.835	15.28
570.03	15.39
570.225	15.48
570.421	15.61
570.616	15.69
570.812	15.82
571.007	15.87
571.202	15.94
571.397	16.16
571.593	16.22
571.788	16.3
571.983	16.42
572.178	16.42
572.374	16.55
572.569	16.54
572.764	16.61
572.959	16.61
573.154	16.61
573.35	16.68
573.545	16.74
573.74	16.73
573.935	16.79
574.13	16.86
574.325	16.95
574.52	17.05
574.715	17.12
574.91	17.11
575.105	17.29
575.3	17.41
575.495	17.4
575.69	17.34
575.885	17.5
576.08	17.55
576.275	17.49
576.47	17.66
576.665	17.56
576.86	17.64
577.055	17.82
577.25	17.8
577.444	17.84
577.639	18.05
577.834	18.04
578.029	17.93
578.224	17.99
578.418	18.15
578.613	18.26
578.808	18.25
579.003	18.22
579.197	18.12
579.392	18.22
579.587	18.31
579.781	18.2
579.976	18.35
580.171	18.59
580.365	18.53
580.56	18.51
580.755	18.32
580.949	18.46
581.144	18.45
581.338	18.59
581.533	18.49
581.727	18.5
581.922	18.58
582.116	18.66
582.311	18.54
582.505	18.75
582.7	18.69
582.894	18.82
583.089	18.81
583.283	18.87
583.478	18.81
583.672	18.88
583.866	18.85
584.061	18.89
584.255	18.81
584.449	18.93
584.644	18.92
584.838	19.01
585.032	18.96
585.226	18.96
585.421	19.14
585.615	19.25
585.809	19.19
586.003	19.17
586.198	19.3
586.392	19.4
586.586	19.42
586.78	19.34
586.974	19.39
587.168	19.58
587.363	19.71
587.557	19.69
587.751	19.62
587.945	19.75
588.139	19.85
588.333	19.87
588.527	19.86
588.721	19.89
588.915	19.86
589.109	19.95
589.303	19.89
589.497	19.8
589.691	19.68
589.885	19.65
590.079	19.69
590.273	19.72
590.466	19.65
590.66	19.76
590.854	19.94
591.048	20.06
591.242	20.09
591.436	19.97
591.629	20.14
591.823	20.26
592.017	20.44
592.211	20.47
592.404	20.47
592.598	20.56
592.792	20.57
592.986	20.57
593.179	20.5
593.373	20.41
593.567	20.62
593.76	20.57
593.954	20.69
594.147	20.71
594.341	20.69
594.535	20.73
594.728	20.63
594.922	20.64
595.115	20.53
595.309	20.64
595.502	20.82
595.696	20.77
595.889	20.75
596.083	20.75
596.276	20.73
596.47	20.75
596.663	20.79
596.856	20.86
597.05	20.91
597.243	20.94
597.437	20.9
597.63	20.78
597.823	20.91
598.017	20.96
598.21	21.13
598.403	21.2
598.596	21.2
598.79	21.05
598.983	21.01
599.176	21.09
599.369	21.28
599.563	21.31
599.756	21.28
599.949	21.31
600.142	21.43
600.335	21.29
600.528	21.17
600.722	21.39
600.915	21.46
601.108	21.57
601.301	21.39
601.494	21.26
601.687	21.24
601.88	21.21
602.073	21.08
602.266	20.99
602.459	20.87
602.652	20.88
602.845	20.76
603.038	20.68
603.231	20.8
603.424	20.81
603.617	20.87
603.809	20.92
604.002	20.89
604.195	20.94
604.388	20.94
604.581	21.04
604.774	21.08
604.966	21.01
605.159	21.13
605.352	21.08
605.545	21.11
605.737	21.07
605.93	21.06
606.123	21.24
606.316	21.38
606.508	21.49
606.701	21.54
606.894	21.52
607.086	21.55
607.279	21.59
607.471	21.45
607.664	21.48
607.857	21.51
608.049	21.58
608.242	21.5
608.434	21.4
608.627	21.32
608.819	21.21
609.012	21.32
609.204	21.44
609.397	21.4
609.589	21.47
609.782	21.46
609.974	21.6
610.166	21.53
610.359	21.64
610.551	21.69
610.743	21.83
610.936	21.86
611.128	21.79
611.32	21.57
611.513	21.71
611.705	21.78
611.897	21.7
612.09	21.59
612.282	21.67
612.474	21.41
612.666	21.51
612.858	21.47
613.051	21.58
613.243	21.49
613.435	21.69
613.627	21.63
613.819	21.59
614.011	22.03
614.203	22.02
614.395	21.99
614.588	22.13
614.78	21.92
614.972	21.82
615.164	21.63
615.356	21.61
615.548	21.62
615.74	21.69
615.932	21.67
616.124	21.39
616.315	21.41
616.507	21.49
616.699	21.63
616.891	21.72
617.083	21.92
617.275	22.08
617.467	22.14
617.659	22.11
617.85	22.11
618.042	22.18
618.234	22.22
618.426	22.14
618.618	22.08
618.809	21.92
619.001	21.83
619.193	21.75
619.384	21.85
619.576	21.88
619.768	21.98
619.959	21.82
620.151	21.96
620.343	21.92
620.534	22.17
620.726	22.25
620.917	22.25
621.109	22.23
621.301	22.27
621.492	22.16
621.684	22.23
621.875	22.14
622.067	22.17
622.258	22.1
622.45	22.21
622.641	22.09
622.832	21.97
623.024	22.16
623.215	22.08
623.407	22.01
623.598	22.09
623.789	21.93
623.981	22.1
624.172	22.28
624.363	22.16
624.555	22.25
624.746	22.12
624.937	21.94
625.129	22.01
625.32	22.22
625.511	22.28
625.702	22.26
625.893	22.44
626.085	22.31
626.276	22.27
626.467	22.38
626.658	22.17
626.849	22.05
627.04	22.16
627.231	22.06
627.422	22.05
627.614	21.93
627.805	21.9
627.996	21.71
628.187	21.72
628.378	21.53
628.569	21.45
628.76	21.63
628.951	21.81
629.142	21.84
629.332	21.69
629.523	21.58
629.714	21.76
629.905	21.76
630.096	21.97
630.287	22.05
630.478	22.18
630.669	22.22
630.859	22.12
631.05	22.08
631.241	22.17
631.432	22.08
631.623	22.01
631.813	21.97
632.004	21.9
632.195	21.78
632.385	21.65
632.576	21.66
632.767	21.7
632.957	21.87
633.148	21.93
633.339	21.94
633.529	22.18
633.72	22.25
633.91	22.31
634.101	22.18
634.292	22.17
634.482	22.13
634.673	22.13
634.863	22.11
635.054	22.06
635.244	22.02
635.435	22.05
635.625	21.8
635.815	21.91
636.006	21.77
636.196	22.07
636.387	22.24
636.577	22.3
636.767	22.4
636.958	22.34
637.148	22.14
637.338	22.02
637.529	22
637.719	22.27
637.909	22.2
638.099	22.22
638.29	22.25
638.48	22.19
638.67	22.34
638.86	22.33
639.05	22.41
639.241	22.26
639.431	22.26
639.621	22.23
639.811	22.2
640.001	22.2
640.191	22.11
640.381	21.88
640.571	21.89
640.761	21.61
640.951	21.4
641.141	21.28
641.331	21.35
641.521	21.54
641.711	21.45
641.901	21.42
642.091	21.51
642.281	21.52
642.471	21.64
642.661	21.42
642.851	21.85
643.041	21.99
643.231	21.97
643.42	22.17
643.61	22.23
643.8	22.31
643.99	22.27
644.18	22
644.369	22.1
644.559	22.27
644.749	22.56
644.939	22.32
645.128	22.48
645.318	22.25
645.508	22.2
645.697	22.34
645.887	22.19
646.076	22.06
646.266	22.34
646.456	22.46
646.645	22.35
646.835	21.98
647.024	21.93
647.214	21.75
647.403	22.02
647.593	21.99
647.782	21.7
647.972	21.93
648.161	22.35
648.351	22.19
648.54	22.17
648.73	22.04
648.919	22.36
649.108	22.42
649.298	22.44
649.487	22.57
649.677	22.6
649.866	22.66
650.055	22.55
650.244	22.36
650.434	22.44
650.623	22.35
650.812	22.31
651.002	22.22
651.191	22.12
651.38	22.15
651.569	22.06
651.758	21.93
651.947	22.21
652.137	22.06
652.326	22.07
652.515	22.21
652.704	22.08
652.893	22.08
653.082	22.15
653.271	22.54
653.46	22.5
653.649	22.48
653.838	22.72
654.027	22.36
654.216	22.35
654.405	22.21
654.594	21.95
654.783	21.79
654.972	21.87
655.161	21.83
655.35	21.48
655.539	21.71
655.728	21.64
655.916	21.29
656.105	21.34
656.294	21.75
656.483	21.7
656.672	21.77
656.86	21.96
657.049	22.02
657.238	21.9
657.427	21.9
657.615	21.75
657.804	21.99
657.993	22.04
658.181	22.09
658.37	21.95
658.559	22
658.747	21.87
658.936	21.96
659.125	21.94
659.313	22
659.502	22.1
659.69	21.94
659.879	21.76
660.067	22
660.256	21.98
660.444	21.89
660.633	21.93
660.821	22.41
661.01	22.27
661.198	22.2
661.387	22.33
661.575	22.28
661.763	22.47
661.952	22.63
662.14	22.56
662.328	22.33
662.517	22.38
662.705	22.34
662.893	21.79
663.082	21.82
663.27	21.76
663.458	21.62
663.646	21.63
663.834	21.44
664.023	21.51
664.211	21.57
664.399	21.93
664.587	22.09
664.775	21.89
664.963	22.21
665.152	22.39
665.34	22.56
665.528	22.7
665.716	22.59
665.904	22.83
666.092	22.51
666.28	22.34
666.468	22.37
666.656	22.18
666.844	22.56
667.032	22.52
667.22	22.67
667.408	22.62
667.596	22.73
667.784	22.61
667.971	22.29
668.159	22.29
668.347	22.39
668.535	22.09
668.723	22.11
668.911	21.97
669.098	21.81
669.286	21.71
669.474	21.69
669.662	21.45
669.849	21.48
670.037	21.59
670.225	21.78
670.413	21.81
670.6	22.04
670.788	21.93
670.976	22.18
671.163	22.21
671.351	22.19
671.538	22.26
671.726	22.55
671.913	22.64
672.101	22.98
672.289	22.99
672.476	22.89
672.664	22.64
672.851	22.89
673.039	22.93
673.226	23.05
673.413	23.14
673.601	23.02
673.788	22.62
673.976	22.82
674.163	22.56
674.35	22.39
674.538	22.34
674.725	22.43
674.912	22.04
675.1	21.67
675.287	21.71
675.474	21.45
675.662	21.66
675.849	21.99
676.036	21.79
676.223	21.59
676.411	21.73
676.598	21.88
676.785	22.07
676.972	22.25
677.159	22.19
677.346	22.1
677.533	22.13
677.721	22.07
677.908	21.96
678.095	22.11
678.282	22.45
678.469	22.39
678.656	22.25
678.843	22.06
679.03	21.99
679.217	22.25
679.404	22.19
679.591	22.18
679.778	22.05
679.964	21.96
680.151	21.84
680.338	21.7
680.525	21.54
680.712	21.66
680.899	21.93
681.086	21.89
681.272	21.79
681.459	21.7
681.646	21.82
681.833	21.63
682.02	21.36
682.206	21.32
682.393	21.41
682.58	21.48
682.766	21.44
682.953	21.23
683.14	21.5
683.326	21.52
683.513	21.77
683.7	21.77
683.886	22.05
684.073	22.42
684.259	22.75
684.446	22.77
684.632	22.75
684.819	22.63
685.005	22.59
685.192	22.73
685.378	22.79
685.565	22.58
685.751	22.27
685.938	22.44
686.124	22.46
686.31	22.23
686.497	21.84
686.683	21.87
686.87	21.65
687.056	21.6
687.242	21.49
687.429	21.46
687.615	21.56
687.801	21.91
687.987	21.79
688.174	21.62
688.36	21.79
688.546	22.17
688.732	22.26
688.918	22.48
689.105	22.75
689.291	22.83
689.477	22.8
689.663	23.24
689.849	22.92
690.035	22.92
690.221	22.93
690.407	22.84
690.593	22.68
690.779	22.84
690.965	23.22
691.151	23.09
691.337	22.86
691.523	22.87
691.709	22.74
691.895	23.25
692.081	23.09
692.267	23.3
692.453	22.99
692.639	23.01
692.825	22.92
693.011	22.77
693.196	22.7
693.382	22.62
693.568	22.78
693.754	22.7
693.94	22.21
694.125	22.59
694.311	22.59
694.497	22.56
694.682	22.64
694.868	22.74
695.054	22.62
695.239	22.83
695.425	23.01
695.611	23.01
695.796	22.72
695.982	22.87
696.168	22.64
696.353	22.45
696.539	22.69
696.724	22.66
696.91	22.36
697.095	22.54
697.281	22.34
697.466	22.25
697.652	22.08
697.837	22.26
698.023	22.22
698.208	22.29
698.393	22.24
698.579	22.1
698.764	22.13
698.949	22.31
699.135	22.08
699.32	22.25
699.505	22.26
699.691	22.11
699.876	21.89
700.061	21.91
700.246	21.94
700.432	22.04
700.617	22.18
700.802	21.84
700.987	21.73
701.172	21.94
701.358	21.83
701.543	22.04
701.728	22.37
701.913	22.78
702.098	22.85
702.283	22.8
702.468	22.79
702.653	22.85
702.838	23.04
703.023	22.95
703.208	22.57
703.393	22.49
703.578	22.33
703.763	22.33
703.948	22.34
704.133	22.66
704.318	22.4
704.503	23.12
704.688	22.95
704.873	23.4
705.057	23.6
705.242	23.96
705.427	24.14
705.612	24.35
705.797	24.29
705.981	24.08
706.166	23.88
706.351	23.96
706.536	23.23
706.72	23.26
706.905	22.64
707.09	22.54
707.274	22.2
707.459	21.81
707.644	21.61
707.828	21.68
708.013	21.63
708.197	21.42
708.382	21.38
708.567	21.24
708.751	21.01
708.936	21.11
709.12	21.07
709.305	21.51
709.489	21.7
709.673	21.89
709.858	21.8
710.042	21.68
710.227	21.9
710.411	21.98
710.596	22.32
710.78	22.46
710.964	22.69
711.149	22.9
711.333	22.8
711.517	23.05
711.702	22.97
711.886	23.07
712.07	23.04
712.254	22.83
712.438	22.98
712.623	22.85
712.807	22.8
712.991	23.08
713.175	23.04
713.359	22.89
713.544	22.32
713.728	22.21
713.912	21.76
714.096	21.66
714.28	21.39
714.464	21.57
714.648	21.72
714.832	22.03
715.016	21.69
715.2	21.63
715.384	21.52
715.568	22.14
715.752	21.86
715.936	22.47
716.12	22.66
716.304	23.44
716.488	23.15
716.671	23.29
716.855	23.29
717.039	23.48
717.223	23.23
717.407	23.01
717.59	22.42
717.774	22.79
717.958	22.18
718.142	22.02
718.325	21.55
718.509	21.19
718.693	20.83
718.877	20.6
719.06	20.05
719.244	20.41
719.428	20.81
719.611	21.2
719.795	21.16
719.978	22.37
720.162	22.68
720.345	22.71
720.529	23.28
720.713	23.33
720.896	23.15
721.08	23.98
721.263	23.87
721.446	24
721.63	23.91
721.813	23.68
721.997	22.73
722.18	22.41
722.364	22.23
722.547	22.05
722.73	21.93
722.914	21.78
723.097	21.61
723.28	21.9
723.464	21.46
723.647	21.6
723.83	21.54
724.013	21.98
724.197	22.54
724.38	22.72
724.563	22.44
724.746	22.43
724.929	22.8
725.112	23.24
725.296	22.8
725.479	23.33
725.662	22.96
725.845	23.55
726.028	23.32
726.211	23
726.394	23.07
726.577	23.54
726.76	23.85
726.943	23.81
727.126	23.17
727.309	23.14
727.492	23.08
727.675	23.55
727.858	22.9
728.041	22.68
728.224	22.9
728.407	22.79
728.589	22.67
728.772	22.28
728.955	22.23
729.138	22.38
729.321	22.87
729.503	23.3
729.686	23.33
729.869	23.54
730.052	23.58
730.234	23.69
730.417	23.37
730.6	23.3
730.782	23.58
730.965	23.52
731.148	23.25
731.33	22.94
731.513	22.3
731.695	22.28
731.878	22.42
732.061	22.19
732.243	22.15
732.426	22.55
732.608	22.29
732.791	22.73
732.973	23.13
733.156	23.08
733.338	22.96
733.52	23.15
733.703	22.94
733.885	22.79
734.068	22.91
734.25	23.14
734.432	23
734.615	23.47
734.797	22.84
734.979	22.93
735.162	23.39
735.344	23.48
735.526	23.66
735.708	23.98
735.891	24.32
736.073	24.43
736.255	23.71
736.437	23.78
736.619	23.31
736.802	23.35
736.984	23.1
737.166	23.16
737.348	23.26
737.53	23.31
737.712	23
737.894	23.32
738.076	23.7
738.258	23.96
738.44	23.5
738.622	24.02
738.804	23.85
738.986	23.99
739.168	23.36
739.35	23.58
739.532	22.86
739.714	23.18
739.896	22.2
740.078	22.4
740.259	22.3
740.441	22.75
740.623	22.52
740.805	22.56
740.987	22.13
741.168	22.56
741.35	22.42
741.532	22.65
741.714	22.53
741.895	22.97
742.077	22.87
742.259	22.54
742.44	22.34
742.622	21.96
742.804	22
742.985	22.29
743.167	22.18
743.348	21.85
743.53	22.43
743.711	22.09
743.893	21.89
744.075	21.38
744.256	21.75
744.438	21.97
744.619	22.31
744.8	22.92
744.982	22.73
745.163	23.03
745.345	23.1
745.526	23.41
745.707	23.33
745.889	23.42
746.07	23.28
746.252	23.01
746.433	23.52
746.614	23.38
746.795	23.13
746.977	23.14
747.158	23.26
747.339	23.46
747.52	22.79
747.702	23.08
747.883	23.36
748.064	23.53
748.245	23.35
748.426	22.65
748.607	22.91
748.788	22.56
748.97	22.69
749.151	22.33
749.332	22.9
749.513	23.21
749.694	23.29
749.875	23.77
750.056	23.92
750.237	24.42
750.418	24.74
750.599	24.36
750.78	23.92
750.96	23.42
751.141	23.42
751.322	22.83
751.503	22.41
751.684	22.1
751.865	21.4
752.046	21.35
752.226	21.48
752.407	21.15
752.588	21.41
752.769	22.68
752.949	23.25
753.13	23.12
753.311	22.91
753.492	23.41
753.672	23.82
753.853	24.19
754.034	24.03
754.214	23.96
754.395	24.21
754.575	24.26
754.756	23.74
754.937	24.04
755.117	24.56
755.298	24.96
755.478	24.7
755.659	23.89
755.839	23.41
756.02	23.35
756.2	23.25
756.381	23.18
756.561	23.64
756.741	23.63
756.922	23.46
757.102	23.21
757.283	22.75
757.463	22.57
757.643	23.45
757.823	23.95
758.004	24.04
758.184	24.27
758.364	24.42
758.545	23.29
758.725	22.99
758.905	23.01
759.085	23
759.265	22.83
759.446	22.59
759.626	22.58
759.806	22.03
759.986	22.43
760.166	22.29
760.346	21.93
760.526	22.45
760.706	22.81
760.886	22.34
761.066	22.26
761.246	22.83
761.426	23.39
761.606	22.91
761.786	23.1
761.966	22.81
762.146	22.4
762.326	22.76
762.506	22.27
762.686	22.42
762.866	22.21
763.046	22.36
763.225	22.23
763.405	21.72
763.585	21.52
763.765	21.64
763.945	21.38
764.124	21.56
764.304	21.61
764.484	22.28
764.664	21.91
764.843	22.39
765.023	22.32
765.203	22.12
765.382	22.25
765.562	22.85
765.741	22.82
765.921	22.97
766.101	23.85
766.28	23.44
766.46	23.23
766.639	22.89
766.819	23.36
766.998	23.39
767.178	23.6
767.357	23.48
767.537	23.07
767.716	22.81
767.896	22.69
768.075	21.82
768.254	21.66
768.434	21.68
768.613	21.87
768.792	21.02
768.972	21.05
769.151	20.86
769.33	20.58
769.51	21.5
769.689	22.02
769.868	21.81
770.047	21.3
770.226	21.49
770.406	22.02
770.585	22.82
770.764	22.8
770.943	22.95
771.122	23.46
771.301	24.26
771.48	23.25
771.66	22.01
771.839	22.5
772.018	22.88
772.197	23.07
772.376	22.81
772.555	22.49
772.734	23.06
772.913	22.6
773.092	21.56
773.271	21.87
773.449	22.09
773.628	23.11
773.807	23.37
773.986	23.25
774.165	23.45
774.344	23.18
774.523	23.31
774.701	22.96
774.88	22.33
775.059	23.55
775.238	23.5
775.417	23.74
775.595	23.9
775.774	22.82
775.953	23.06
776.131	23.05
776.31	22.99
776.489	22.74
776.667	22.7
776.846	23.83
777.025	23.87
777.203	23.74
777.382	24.64
777.56	24.03
777.739	24.85
777.917	25.02
778.096	24.68
778.274	24.61
778.453	24.61
778.631	24.72
778.81	24.52
778.988	23.72
779.166	22.76
779.345	21.7
779.523	22.89
779.702	22.47
779.88	22.93
780.058	23.02
780.237	24.21
780.415	23.65
780.593	24.36
780.771	24.04
780.95	25.29
781.128	25.82
781.306	25.87
781.484	24.98
781.662	25.59
781.841	25.68
782.019	25.17
782.197	24.07
782.375	24.48
782.553	23.7
782.731	24.05
782.909	23.15
783.087	23.4
783.265	23.76
783.443	23.49
783.621	23.31
783.799	22.64
783.977	23.46
784.155	23.42
784.333	23.76
784.511	23.63
784.689	23.62
784.867	23.99
785.045	24.24
785.223	25.15
785.4	25.71
785.578	25.95
785.756	26.57
785.934	26.72
786.112	26.46
786.289	26.11
786.467	26.52
786.645	26.23
786.823	26.2
787	26.18
787.178	24.93
787.356	24.73
787.533	24.37
787.711	23.86
787.889	23.88
788.066	24.46
788.244	24.84
788.421	24.88
788.599	24.57
788.776	24.08
788.954	24.17
789.131	24.82
789.309	25.03
789.486	24.53
789.664	24.55
789.841	24.37
790.019	23.14
790.196	23.49
790.373	23.35
790.551	23.73
790.728	24.1
790.906	24.29
791.083	23.69
791.26	24.18
791.437	24.85
791.615	25.39
791.792	25.05
791.969	25.76
792.146	24.78
792.324	25.14
792.501	26.38
792.678	26.84
792.855	26.21
793.032	25.97
793.209	25.22
793.387	26.31
793.564	25.38
793.741	25.17
793.918	25.03
794.095	26.02
794.272	24.05
794.449	22.87
794.626	22.61
794.803	22.71
794.98	22.56
795.157	23.41
795.334	23.26
795.511	23.13
795.688	23.73
795.864	23.92
796.041	23.42
796.218	25.58
796.395	25.56
796.572	24.54
796.749	24.44
796.925	23.53
797.102	22.76
797.279	21.75
797.456	22.26
797.632	21.5
797.809	20.68
797.986	19.83
798.162	18.74
798.339	19.19
798.516	20.36
798.692	19.66
798.869	21.12
799.046	20.95
799.222	21.39
799.399	21.77
799.575	23
799.752	23.44
799.928	23.94
800.105	24.1
800.281	23.69
800.458	23.61
800.634	25.78
800.811	26.09
800.987	25.97
801.163	26.87
801.34	27.73
801.516	26.55
801.692	26.81
801.869	27.29
802.045	27.06
802.221	26.47
802.398	26.84
802.574	25.5
802.75	24.28
802.926	24.38
803.103	23.54
803.279	22
803.455	22.48
803.631	23.66
803.807	24.48
803.983	25.49
804.16	26.2
804.336	25.29
804.512	24.45
804.688	25.55
804.864	24.75
805.04	24.68
805.216	25.92
805.392	24.95
805.568	25.38
805.744	25.24
805.92	24.56
806.096	25.17
806.272	26.24
806.448	28.21
806.623	27.51
806.799	29.11
806.975	29.4
807.151	28.77
807.327	28.54
807.503	26.84
807.678	26.18
807.854	25.62
808.03	24.56
808.206	24.05
808.381	22.48
808.557	22.34
808.733	20.6
808.908	20.45
809.084	21.35
809.26	22.33
809.435	22.68
809.611	22.39
809.787	23.03
809.962	23.53
810.138	22.91
810.313	22.38
810.489	23.08
810.664	23.84
810.84	21.97
811.015	20.52
811.191	21.89
811.366	22.85
811.542	22.79
811.717	22.14
811.892	22.17
812.068	22.97
812.243	23.45
812.419	23.09
812.594	22.75
812.769	24.36
812.944	25.44
813.12	25.04
813.295	24.44
813.47	24.27
813.645	24.98
813.821	25.03
813.996	24.31
814.171	26.09
814.346	26.35
814.521	26.69
814.697	28.35
814.872	27.09
815.047	26.55
815.222	27.09
815.397	26.42
815.572	25.95
815.747	25.02
815.922	24.01
816.097	22.94
816.272	24.05
816.447	24.35
816.622	23.05
816.797	22.27
816.972	22.93
817.147	22.26
817.322	22.51
817.496	23.55
817.671	24.37
817.846	25.31
818.021	24.95
818.196	23.87
818.371	24.47
818.545	24.29
818.72	24.97
818.895	24.07
819.069	23.83
819.244	24.72
819.419	24.45
819.594	23.88
819.768	24.09
819.943	24.04
820.117	23.69
820.292	23.57
820.467	23.24
820.641	23.15
820.816	23.13
820.99	22.77
821.165	22.54
821.339	22.42
821.514	22.54
821.688	22.57
821.863	22.23
822.037	22.24
822.212	22.09
822.386	22.26
822.56	22.22
822.735	22
822.909	22.15
823.084	22.11
823.258	21.83
823.432	21.96
823.606	21.57
823.781	21.85
823.955	21.87
824.129	22.2
824.303	22.06
824.478	22.25
824.652	22.09
824.826	21.78
825	21.58
825.174	21.96
825.348	21.31
825.523	21.78
825.697	21.6
825.871	21.88
826.045	20.98
826.219	21.17
826.393	21.4
826.567	22.31
826.741	22.96
826.915	23
827.089	22.98
827.263	23.58
827.437	23.48
827.611	23.78
827.784	23.72
827.958	24.53
828.132	24.21
828.306	24.37
828.48	24.22
828.654	24.47
828.827	25.15
829.001	25.06
829.175	25.22
829.349	25.31
829.522	25.35
829.696	25.9
829.87	25.28
830.044	26.14
830.217	25.21
830.391	25.74
830.565	25.36
830.738	24.61
830.912	24.94
831.085	25.27
831.259	25.43
831.432	24.81
831.606	24.35
831.779	24.49
831.953	23.43
832.126	23.84
832.3	23.07
832.473	23
832.647	23.45
832.82	23.66
832.994	23.48
833.167	24.12
833.34	24.16
833.514	23.63
833.687	23.33
833.86	23.31
834.034	23.65
834.207	23.94
834.38	23.43
834.553	22.92
834.727	22.85
834.9	23.01
835.073	21.59
835.246	22.52
835.419	23.32
835.593	24.86
835.766	24.85
835.939	24.77
836.112	24.86
836.285	25.85
836.458	27.07
836.631	27.24
836.804	27.71
836.977	29.19
837.15	29.12
837.323	29.1
837.496	27.71
837.669	28.91
837.842	27.24
838.015	27.52
838.188	27.52
838.361	27.29
838.533	25.32
838.706	23.7
838.879	22.56
839.052	22.36
839.225	21.76
839.398	22.65
839.57	22.61
839.743	25
839.916	23.87
840.088	24.78
840.261	24.51
840.434	27.65
840.607	28.67
840.779	30.29
840.952	28.91
841.124	28.68
841.297	28.8
841.47	29.8
841.642	30.21
841.815	32.55
841.987	32.03
842.16	31.37
842.332	30.56
842.505	27.92
842.677	27.4
842.85	27.85
843.022	30.53
843.194	29.67
843.367	29.36
843.539	27.81
843.712	25.96
843.884	23.93
844.056	25.71
844.229	27.12
844.401	29.07
844.573	28.91
844.745	28.71
844.918	28.11
845.09	29.65
845.262	29.01
845.434	30.31
845.606	29.55
845.779	31.14
845.951	31.56
846.123	27.33
846.295	28.68
846.467	29.23
846.639	33.24
846.811	32.49
846.983	34.71
847.155	33.7
847.327	33.55
847.499	33.4
847.671	34.75
847.843	34.79
848.015	36.27
848.187	39.42
848.359	40.93
848.531	35.19
848.703	35.86
848.875	32.04
849.047	34.02
849.218	32.7
849.39	34.92
849.562	31.59
849.734	31.57
849.905	33.41
850.077	28.77
850.249	26.81
850.421	31.01
850.592	29.15
850.764	29.24
850.936	31.96
851.107	35.42
851.279	33.92
851.451	39.98
851.622	36.68
851.794	36.33
851.965	38.93
852.137	42.87
852.308	41.58
852.48	43.36
852.651	44.06
852.823	41.65
852.994	39.93
853.166	39.15
853.337	35.93
853.509	39.7
853.68	38.22
853.851	32.72
854.023	25.81
854.194	24.45
854.365	22.53
854.537	22.76
854.708	23.7
854.879	19.78
855.05	22.97
855.222	24.49
855.393	23.79
855.564	25.61
855.735	33.12
855.906	34.13
856.078	33.07
856.249	33.16
856.42	34.16
856.591	32.15
856.762	38.25
856.933	34.8
857.104	32.95
857.275	32.02
857.446	32.48
857.617	32.21
857.788	35.48
857.959	42.03
858.13	43.74
858.301	44.53
858.472	41.23
858.643	40.07
858.814	39.6
858.985	42.76
859.155	45.72
859.326	44.32
859.497	42.27
859.668	42.69
859.839	38.77
860.009	36.73
860.18	36.46
860.351	39.47
860.522	37.2
860.692	37.46
860.863	33.14
861.034	30.54
861.204	29.83
861.375	29.41
861.546	28.73
861.716	26.37
861.887	28.02
862.057	25.17
862.228	24.97
862.398	24.94
862.569	25.42
862.739	32.16
862.91	33.04
863.08	37.96
863.251	35.68
863.421	33.53
863.592	37.63
863.762	38.54
863.932	40.43
864.103	39.53
864.273	41.16
864.443	41.5
864.614	39.89
864.784	41.94
864.954	40.65
865.125	44.4
865.295	46.56
865.465	43
865.635	38.88
865.805	40.43
865.976	40.83
866.146	44.37
866.316	44.7
866.486	40.36
866.656	38.39
866.826	35.52
866.996	34.57
867.166	34.7
867.336	38.65
867.506	40.73
867.676	38.55
867.846	40.19
868.016	36.13
868.186	37.98
868.356	35.79
868.526	33.23
868.696	33.67
868.866	35.63
869.036	33.52
869.206	30.49
869.376	29.14
869.545	27.26
869.715	25.44
869.885	26.15
870.055	26.63
870.224	30.94
870.394	32.03
870.564	37.72
870.734	38
870.903	39.93
871.073	41.95
871.243	43.31
871.412	44.64
871.582	45.65
871.751	43.37
871.921	42.26
872.091	41.37
872.26	40.22
872.43	36.08
872.599	35.52
872.769	34.42
872.938	34.88
873.108	34.96
873.277	33.06
873.446	29.75
873.616	32.51
873.785	37.8
873.955	37.5
874.124	40.09
874.293	44.09
874.463	40.96
874.632	42.49
874.801	41.04
874.971	40.52
875.14	47.05
875.309	47.86
875.478	46.2
875.647	39.86
875.817	39.38
875.986	35.29
876.155	30.24
876.324	32.9
876.493	31.53
876.662	31.44
876.831	31.13
877	27.12
877.17	26.13
877.339	28.05
877.508	27.82
877.677	31.17
877.846	34.15
878.015	37.79
878.184	35.12
878.352	34.68
878.521	37.09
878.69	37.77
878.859	39.11
879.028	42.29
879.197	41.35
879.366	40.11
879.534	36.57
879.703	35.15
879.872	32.19
880.041	29.93
880.21	29.72
880.378	27.67
880.547	26.49
880.716	25.69
880.884	24.28
881.053	23.01
881.222	23.18
881.39	23.86
881.559	24.11
881.727	24.26
881.896	24.54
882.065	24.16
882.233	23.27
882.402	23.68
882.57	23.88
882.739	23.49
882.907	24.44
883.076	23.74
883.244	24
883.412	23.3
883.581	23.33
883.749	23.81
883.918	23.96
884.086	25.49
884.254	25.25
884.423	24.83
884.591	25.07
884.759	23.73
884.927	24.78
885.096	22.5
885.264	23.94
885.432	24.64
885.6	24.93
885.769	24.06
885.937	23.45
886.105	25
886.273	26.13
886.441	28.53
886.609	30.22
886.777	32.44
886.945	36.42
887.113	36.19
887.281	36.61
887.449	37.32
887.617	40.04
887.785	41.24
887.953	42.16
888.121	40.63
888.289	39.44
888.457	38.61
888.625	37.51
888.793	38.06
888.961	39.54
889.129	36.98
889.296	33.72
889.464	33.33
889.632	32.42
889.8	27.91
889.967	29.64
890.135	29.25
