Data from 2938543_Reflection_1.txt Node
Date: Mon Jun 15 00:32:23 EDT 2015
User: robert
Spectrometer: USB4E03002
Autoset integration time: false
Trigger mode: 4
Integration Time (sec): 1.000000E-1
Scans to average: 10
Electric dark correction enabled: true
Nonlinearity correction enabled: false
Boxcar width: 5
Stray light correction enabled: false
XAxis mode: Wavelengths
Stop averaging: false
Number of Pixels in Spectrum: 3648
>>>>>Begin Spectral Data<<<<<
177.575	50.57
177.794	68.84
178.014	106.89
178.233	421.8
178.452	1007.32
178.672	-469.21
178.891	85.39
179.11	50.95
179.33	52.09
179.549	50.65
179.768	68.59
179.987	47.26
180.207	285.81
180.426	172.58
180.645	57.54
180.864	-7.4
181.084	-53.68
181.303	10.79
181.522	37.26
181.741	15.84
181.96	61.45
182.179	10.48
182.398	57.33
182.618	10.49
182.837	27.77
183.056	33.55
183.275	23.07
183.494	13.83
183.713	1.9
183.932	9.55
184.151	7.14
184.37	5.27
184.589	15.43
184.808	36.79
185.027	61.44
185.246	46.25
185.465	59.09
185.684	72.32
185.903	68.93
186.122	64.52
186.341	61.99
186.56	60.2
186.779	47.42
186.998	53.92
187.216	34.55
187.435	26.57
187.654	31.2
187.873	24.35
188.092	22.21
188.311	25.74
188.53	35.02
188.748	42.33
188.967	50.35
189.186	49.24
189.405	47.36
189.623	50.21
189.842	46.56
190.061	57.65
190.28	66.09
190.498	74.83
190.717	73.91
190.936	66.32
191.154	45.64
191.373	50.83
191.592	62.11
191.81	60.51
192.029	62.18
192.248	61.82
192.466	81.58
192.685	90.55
192.904	76.54
193.122	82.29
193.341	68.65
193.559	86.83
193.778	73.59
193.996	69.94
194.215	98.49
194.433	88.18
194.652	69.5
194.87	60.16
195.089	34.18
195.307	38.94
195.526	50.65
195.744	76.2
195.963	73.14
196.181	68.48
196.399	86.27
196.618	48.97
196.836	52.08
197.055	27.03
197.273	-3.53
197.491	68.69
197.71	32.56
197.928	31.45
198.146	-1.35
198.365	-44.23
198.583	0.29
198.801	17.6
199.019	13.35
199.238	39.12
199.456	56.73
199.674	51.52
199.892	29.23
200.111	23.74
200.329	23.2
200.547	22.98
200.765	20.33
200.983	21.47
201.202	14.49
201.42	20.6
201.638	8.97
201.856	8.14
202.074	-7.61
202.292	8.11
202.51	17.38
202.728	12.72
202.946	14.14
203.165	11.69
203.383	-2.44
203.601	-1.2
203.819	-4.12
204.037	-6.25
204.255	9.73
204.473	26
204.691	21.31
204.909	11.21
205.127	14.23
205.345	-6.02
205.562	8.36
205.78	42
205.998	44.95
206.216	42.95
206.434	48.14
206.652	54.89
206.87	41.56
207.088	44.07
207.306	57.36
207.523	65.48
207.741	59.81
207.959	56.66
208.177	44.48
208.395	35.64
208.612	53.48
208.83	50.47
209.048	48.43
209.266	64.99
209.483	57.77
209.701	51.46
209.919	44.99
210.136	47.78
210.354	42.21
210.572	39.55
210.79	45.62
211.007	19.69
211.225	17.8
211.442	27.69
211.66	24.73
211.878	36.38
212.095	35.96
212.313	43.27
212.53	49.03
212.748	57.84
212.966	58.44
213.183	55.2
213.401	72.73
213.618	75.57
213.836	74.51
214.053	65.32
214.271	54.03
214.488	61.07
214.705	52.43
214.923	59.14
215.14	63.33
215.358	54.12
215.575	59.81
215.793	62.46
216.01	60.59
216.227	50.26
216.445	47.28
216.662	52.2
216.879	44.37
217.097	46.78
217.314	38.37
217.531	25.5
217.749	28.91
217.966	28
218.183	23.62
218.4	8.75
218.618	1.79
218.835	2.25
219.052	9.5
219.269	15.62
219.487	16.29
219.704	16.58
219.921	21.78
220.138	25.25
220.355	24.7
220.572	25.29
220.79	36.19
221.007	41.93
221.224	43.35
221.441	32.84
221.658	24.8
221.875	20.7
222.092	20.2
222.309	17.59
222.526	15.13
222.743	16.57
222.96	20.24
223.177	12.54
223.394	9.8
223.611	10.25
223.828	7.53
224.045	10.05
224.262	8.23
224.479	6.84
224.696	5.24
224.913	4.81
225.13	1.34
225.347	0.55
225.564	4.42
225.781	5.5
225.997	4.68
226.214	6.97
226.431	6.77
226.648	8.52
226.865	8.86
227.082	9.24
227.298	8.62
227.515	9.52
227.732	9.53
227.949	9.11
228.165	9.62
228.382	9.54
228.599	10.21
228.816	11.17
229.032	11.36
229.249	12.15
229.466	13.2
229.682	13.4
229.899	13.96
230.116	14.57
230.332	14.3
230.549	13.02
230.765	15.35
230.982	14.54
231.199	12.75
231.415	12.9
231.632	12.26
231.848	11.61
232.065	14.01
232.281	12.4
232.498	11.56
232.714	11.42
232.931	11.53
233.147	8.42
233.364	7.66
233.58	8.29
233.797	6.66
234.013	5.7
234.23	6.87
234.446	5.26
234.662	6.33
234.879	8.44
235.095	6.46
235.312	7.39
235.528	8.12
235.744	8.52
235.961	7.21
236.177	8.9
236.393	9.19
236.61	8.04
236.826	7.3
237.042	5.41
237.258	3.49
237.475	4.82
237.691	4.94
237.907	6.36
238.123	6.43
238.339	7.78
238.556	8.07
238.772	8.98
238.988	8.87
239.204	9.28
239.42	8.61
239.636	9.37
239.853	9.02
240.069	8.62
240.285	8.52
240.501	8.81
240.717	8.96
240.933	8.09
241.149	8.3
241.365	7.93
241.581	7.55
241.797	8.35
242.013	7.64
242.229	7.66
242.445	8.19
242.661	8.89
242.877	8.53
243.093	8.38
243.309	8.96
243.525	8.45
243.741	8.42
243.957	8.64
244.173	8.72
244.388	8.2
244.604	8.46
244.82	8.66
245.036	7.97
245.252	8.03
245.468	8.14
245.683	7.79
245.899	8.15
246.115	8.39
246.331	8.46
246.547	8.42
246.762	8.8
246.978	8.76
247.194	8.11
247.409	8.04
247.625	8.44
247.841	7.91
248.057	8.58
248.272	7.89
248.488	7.79
248.703	7.77
248.919	7.16
249.135	7.34
249.35	7.14
249.566	7.27
249.782	7.14
249.997	6.58
250.213	7.28
250.428	7.25
250.644	7.57
250.859	7.06
251.075	6.89
251.29	7.33
251.506	6.5
251.721	6.81
251.937	6.79
252.152	7.42
252.368	7.32
252.583	5.69
252.798	4.71
253.014	4.17
253.229	3.54
253.445	3.98
253.66	3.47
253.875	4.73
254.091	3.23
254.306	5.04
254.521	5.23
254.737	5.72
254.952	7.12
255.167	8.02
255.383	8.81
255.598	9.35
255.813	8.09
256.028	7.98
256.244	7.01
256.459	7.68
256.674	6.49
256.889	6.43
257.104	5.69
257.32	5.93
257.535	5.44
257.75	5.17
257.965	5.25
258.18	5.62
258.395	5.52
258.61	5.81
258.826	5.89
259.041	5.95
259.256	5.85
259.471	6.18
259.686	5.88
259.901	5.98
260.116	5.79
260.331	5.81
260.546	5.55
260.761	5.64
260.976	5.55
261.191	5.36
261.406	5.49
261.621	5.93
261.836	5.75
262.05	5.98
262.265	6.46
262.48	5.88
262.695	6.17
262.91	6.58
263.125	6.82
263.34	6.27
263.555	5.03
263.769	5.07
263.984	4.37
264.199	4.26
264.414	3.78
264.629	3.51
264.843	4.72
265.058	4.19
265.273	4.15
265.488	4.1
265.702	4.53
265.917	5.43
266.132	5.42
266.346	4.68
266.561	4.22
266.776	4.3
266.99	4.22
267.205	3.75
267.42	3.74
267.634	3.38
267.849	2.98
268.063	3.03
268.278	2.98
268.492	3.13
268.707	4.11
268.922	4.85
269.136	5.44
269.351	5.72
269.565	5.67
269.78	5.91
269.994	5.94
270.209	6.56
270.423	6.46
270.637	6.37
270.852	6.21
271.066	6.61
271.281	6.44
271.495	5.95
271.709	5.97
271.924	6.19
272.138	6.58
272.353	6.66
272.567	6.09
272.781	5.89
272.996	5.96
273.21	5.79
273.424	4.94
273.638	4.89
273.853	5.69
274.067	5.13
274.281	5.18
274.495	4.61
274.71	4.52
274.924	4.67
275.138	5.47
275.352	5.56
275.566	5.78
275.781	6.09
275.995	6.18
276.209	5.89
276.423	6.17
276.637	5.89
276.851	5.7
277.065	5.75
277.279	5.73
277.493	5.01
277.707	5.09
277.921	5.56
278.135	5.62
278.349	5.56
278.563	5.02
278.777	4.87
278.991	5.01
279.205	4.81
279.419	4.48
279.633	4.79
279.847	4.89
280.061	4.62
280.275	3.83
280.489	3.63
280.703	3.48
280.917	3.94
281.131	4.12
281.344	3.81
281.558	4.16
281.772	4.54
281.986	4.66
282.2	4.42
282.414	4.72
282.627	5.21
282.841	5.31
283.055	5.02
283.269	4.84
283.482	4.66
283.696	5.09
283.91	4.87
284.123	4.55
284.337	4.15
284.551	4.08
284.764	3.81
284.978	3.89
285.192	3.97
285.405	4.2
285.619	4.03
285.833	4.07
286.046	3.87
286.26	4.13
286.473	4.55
286.687	4.63
286.9	4.9
287.114	5.23
287.327	4.61
287.541	4.41
287.754	4.74
287.968	4.87
288.181	4.63
288.395	4.68
288.608	4.7
288.822	4.44
289.035	4.19
289.248	3.75
289.462	3.54
289.675	3.92
289.889	4.2
290.102	4.08
290.315	4.28
290.529	4.85
290.742	4.72
290.955	4.4
291.169	4.78
291.382	5.32
291.595	6.08
291.808	6.12
292.022	6.3
292.235	5.92
292.448	5.97
292.661	5.63
292.875	5.15
293.088	4.89
293.301	4.97
293.514	4.95
293.727	5.11
293.94	5.02
294.153	4.97
294.367	4.86
294.58	4.79
294.793	4.63
295.006	4.85
295.219	5.08
295.432	5.5
295.645	5.57
295.858	5.46
296.071	5.31
296.284	5.03
296.497	5.13
296.71	4.99
296.923	5.2
297.136	5.4
297.349	5.15
297.562	4.87
297.775	4.69
297.988	4.68
298.201	4.97
298.414	4.83
298.626	5.12
298.839	4.95
299.052	5.44
299.265	5.63
299.478	5.45
299.691	5.89
299.903	6.26
300.116	6.22
300.329	6.39
300.542	6.22
300.755	6.33
300.967	5.99
301.18	5.8
301.393	5.48
301.605	5.07
301.818	5.08
302.031	4.99
302.243	5.09
302.456	4.98
302.669	4.91
302.881	4.59
303.094	4.6
303.307	4.96
303.519	5.18
303.732	4.93
303.944	5.15
304.157	5.11
304.37	4.9
304.582	4.69
304.795	4.97
305.007	4.62
305.22	4.83
305.432	4.88
305.645	4.79
305.857	4.99
306.069	5.48
306.282	5.34
306.494	5.38
306.707	5.97
306.919	6
307.132	5.79
307.344	5.92
307.556	5.87
307.769	5.46
307.981	5.57
308.193	5.86
308.406	5.68
308.618	6.05
308.83	6.1
309.043	5.88
309.255	5.51
309.467	5.54
309.679	5.33
309.892	5.42
310.104	5.8
310.316	5.74
310.528	5.16
310.74	5.18
310.953	4.98
311.165	4.97
311.377	4.85
311.589	5.42
311.801	5.35
312.013	5.94
312.225	5.86
312.437	6.09
312.649	6.28
312.862	6.82
313.074	6.8
313.286	6.61
313.498	6.66
313.71	6.77
313.922	6.55
314.134	6.71
314.346	6.43
314.558	6.13
314.77	6.11
314.982	5.84
315.193	5.67
315.405	5.66
315.617	5.57
315.829	5.3
316.041	5.35
316.253	5.34
316.465	5.39
316.677	5.52
316.888	5.9
317.1	5.76
317.312	5.76
317.524	5.72
317.736	5.8
317.947	6.62
318.159	6.77
318.371	6.82
318.583	6.84
318.794	6.84
319.006	7.09
319.218	7.51
319.43	7.67
319.641	8
319.853	8.14
320.064	7.73
320.276	6.76
320.488	7.32
320.699	6.82
320.911	6.82
321.123	7.14
321.334	6.87
321.546	6.71
321.757	6.3
321.969	6.09
322.18	6.08
322.392	6.68
322.603	7.01
322.815	6.52
323.026	7.24
323.238	7.07
323.449	6.74
323.661	6.72
323.872	6.88
324.083	6.83
324.295	7.12
324.506	7.25
324.718	6.89
324.929	7.22
325.14	7.08
325.352	6.82
325.563	6.99
325.774	6.88
325.986	7.13
326.197	6.67
326.408	6.98
326.62	6.93
326.831	6.35
327.042	6.47
327.253	6.21
327.464	6.38
327.676	6.28
327.887	6.26
328.098	6.66
328.309	6.34
328.52	6.74
328.732	6.43
328.943	6.19
329.154	6.43
329.365	6.98
329.576	7.16
329.787	7.35
329.998	7.49
330.209	7.5
330.42	6.96
330.631	7.39
330.842	7.27
331.053	7.41
331.264	7.46
331.475	7.63
331.686	7.09
331.897	6.83
332.108	6.71
332.319	6.66
332.53	6.74
332.741	6.92
332.952	6.32
333.163	6.2
333.374	6.01
333.585	6.13
333.795	6.02
334.006	5.99
334.217	5.98
334.428	6.02
334.639	5.66
334.849	5.5
335.06	5.62
335.271	5.47
335.482	5.31
335.692	5.14
335.903	5.09
336.114	4.99
336.325	5.2
336.535	4.83
336.746	4.79
336.957	4.58
337.167	4.51
337.378	3.74
337.589	3.73
337.799	3.89
338.01	4.11
338.22	3.95
338.431	4.22
338.642	3.82
338.852	4.11
339.063	3.92
339.273	4.27
339.484	4.57
339.694	5.03
339.905	5.46
340.115	5.45
340.326	5.43
340.536	5.37
340.746	5.47
340.957	5.48
341.167	5.54
341.378	6.2
341.588	6.25
341.799	6.12
342.009	6.17
342.219	5.98
342.43	5.97
342.64	5.92
342.85	6.09
343.061	5.88
343.271	6.22
343.481	6.04
343.691	5.71
343.902	5.44
344.112	5.28
344.322	5.18
344.532	5.12
344.743	5.01
344.953	5.1
345.163	4.92
345.373	4.98
345.583	4.68
345.793	4.77
346.004	4.89
346.214	5.04
346.424	5.07
346.634	5.06
346.844	5.41
347.054	5.33
347.264	5.3
347.474	5.31
347.684	5
347.894	5.27
348.104	5.2
348.314	4.71
348.524	4.63
348.734	4.73
348.944	4.92
349.154	4.92
349.364	5.21
349.574	5.35
349.784	5.16
349.994	5.46
350.204	5.38
350.413	5.54
350.623	5.58
350.833	5.99
351.043	6.22
351.253	6.16
351.463	5.7
351.672	5.34
351.882	5.1
352.092	5.05
352.302	4.95
352.511	4.73
352.721	4.71
352.931	4.9
353.141	4.51
353.35	4.12
353.56	4.44
353.77	4.53
353.979	4.67
354.189	4.72
354.399	4.93
354.608	4.86
354.818	5.02
355.027	5.01
355.237	4.99
355.447	5.17
355.656	5.23
355.866	4.79
356.075	5.05
356.285	5.05
356.494	5.03
356.704	4.69
356.913	4.47
357.123	4.51
357.332	4.58
357.542	4.67
357.751	4.6
357.96	4.4
358.17	4.49
358.379	4.45
358.589	4.43
358.798	4.33
359.007	4.74
359.217	5.17
359.426	4.83
359.635	4.65
359.845	4.5
360.054	4.44
360.263	4.75
360.472	4.6
360.682	4.58
360.891	4.54
361.1	4.71
361.309	4.72
361.519	4.42
361.728	4.55
361.937	4.68
362.146	4.81
362.355	5.01
362.564	4.99
362.774	5.29
362.983	5.29
363.192	5.27
363.401	5.37
363.61	5.1
363.819	5.24
364.028	5.1
364.237	5.19
364.446	4.91
364.655	4.73
364.864	4.54
365.073	4.5
365.282	4.68
365.491	4.61
365.7	4.33
365.909	4.28
366.118	4.14
366.327	4.11
366.536	4.14
366.745	4.38
366.954	4.39
367.162	4.32
367.371	4.36
367.58	4.23
367.789	4.56
367.998	4.62
368.207	4.69
368.415	4.87
368.624	4.98
368.833	4.69
369.042	4.67
369.25	4.72
369.459	4.74
369.668	4.38
369.877	4.13
370.085	3.64
370.294	3.61
370.503	3.34
370.711	3.07
370.92	3.1
371.129	2.96
371.337	2.83
371.546	2.59
371.754	2.85
371.963	3.18
372.171	3.32
372.38	3.74
372.589	3.92
372.797	4.28
373.006	4.32
373.214	4.51
373.423	4.5
373.631	4.56
373.84	4.53
374.048	4.38
374.256	4.25
374.465	4.07
374.673	3.71
374.882	3.51
375.09	3.69
375.298	3.84
375.507	3.8
375.715	4.03
375.923	4.12
376.132	4.21
376.34	4.15
376.548	4.24
376.757	4.33
376.965	4.49
377.173	4.52
377.381	4.3
377.59	4.22
377.798	4.14
378.006	4
378.214	3.78
378.423	3.78
378.631	3.79
378.839	3.86
379.047	3.8
379.255	3.73
379.463	4.01
379.671	3.9
379.879	3.94
380.088	4.11
380.296	4.14
380.504	4.21
380.712	4.21
380.92	4.08
381.128	3.99
381.336	3.96
381.544	3.92
381.752	3.97
381.96	4.2
382.168	4.26
382.376	4.34
382.584	4.24
382.791	4.13
382.999	4.12
383.207	4.1
383.415	3.96
383.623	4.07
383.831	4.23
384.039	3.84
384.247	3.78
384.454	3.89
384.662	3.6
384.87	3.64
385.078	3.49
385.285	3.46
385.493	3.59
385.701	3.8
385.909	3.81
386.116	3.69
386.324	3.74
386.532	3.6
386.739	3.35
386.947	3.29
387.155	3.37
387.362	3.39
387.57	3.32
387.778	3.24
387.985	3.14
388.193	2.98
388.4	2.82
388.608	2.75
388.816	2.84
389.023	2.95
389.231	3.32
389.438	3.16
389.646	3.58
389.853	3.73
390.061	3.61
390.268	3.62
390.475	3.69
390.683	3.72
390.89	3.75
391.098	3.67
391.305	3.45
391.512	3.17
391.72	3.38
391.927	3.14
392.135	3.07
392.342	3.29
392.549	3.2
392.756	3.18
392.964	3.34
393.171	3.37
393.378	3.5
393.586	3.58
393.793	3.64
394	3.58
394.207	3.59
394.414	3.42
394.622	3.37
394.829	3.42
395.036	3.16
395.243	3.27
395.45	3.22
395.657	3.24
395.864	3.2
396.072	3.19
396.279	3.14
396.486	3.01
396.693	3.11
396.9	3.03
397.107	2.99
397.314	3.11
397.521	2.89
397.728	3.05
397.935	2.88
398.142	2.94
398.349	2.75
398.556	2.69
398.763	2.93
398.97	3.06
399.177	3.18
399.383	3.26
399.59	3.43
399.797	3.39
400.004	3.36
400.211	3.41
400.418	3.43
400.625	3.63
400.831	3.72
401.038	3.63
401.245	3.52
401.452	3.49
401.658	3.38
401.865	3.33
402.072	3.46
402.279	3.26
402.485	3.22
402.692	3.29
402.899	3.1
403.105	3.12
403.312	2.94
403.519	2.9
403.725	2.89
403.932	3.06
404.138	3.03
404.345	2.86
404.552	2.96
404.758	3.04
404.965	2.91
405.171	2.96
405.378	2.82
405.584	2.99
405.791	2.99
405.997	2.83
406.204	2.73
406.41	2.73
406.617	2.96
406.823	2.99
407.029	2.9
407.236	2.97
407.442	3.12
407.649	3.2
407.855	3.18
408.061	3.08
408.268	3.05
408.474	2.93
408.68	2.89
408.887	2.93
409.093	2.81
409.299	2.85
409.505	2.84
409.712	2.6
409.918	2.51
410.124	2.33
410.33	2.38
410.537	2.4
410.743	2.26
410.949	2.01
411.155	1.94
411.361	1.92
411.567	1.89
411.773	1.9
411.98	1.96
412.186	1.86
412.392	1.94
412.598	1.98
412.804	1.93
413.01	2.1
413.216	2.34
413.422	2.19
413.628	2.25
413.834	2.19
414.04	2.16
414.246	2.1
414.452	2.06
414.658	2
414.864	2.04
415.07	2.03
415.275	1.91
415.481	1.95
415.687	1.99
415.893	2.05
416.099	2.11
416.305	2.03
416.511	2.11
416.716	2.13
416.922	2.16
417.128	2.1
417.334	2.14
417.539	2.34
417.745	2.34
417.951	2.36
418.157	2.22
418.362	2.23
418.568	2.24
418.774	2.24
418.979	2.29
419.185	2.34
419.391	2.36
419.596	2.35
419.802	2.21
420.008	2.14
420.213	1.34
420.419	1.43
420.624	1.47
420.83	1.46
421.035	1.45
421.241	1.45
421.446	1.33
421.652	1.24
421.857	1.22
422.063	1.25
422.268	1.29
422.474	2.1
422.679	1.99
422.885	1.95
423.09	2.01
423.295	2
423.501	2.04
423.706	2.17
423.911	2.35
424.117	2.36
424.322	2.39
424.527	2.45
424.733	2.42
424.938	2.48
425.143	2.46
425.349	2.4
425.554	2.45
425.759	2.41
425.964	2.43
426.169	2.36
426.375	2.39
426.58	2.32
426.785	2.22
426.99	2.14
427.195	2.27
427.4	2.21
427.605	2.02
427.811	1.9
428.016	1.93
428.221	1.9
428.426	1.83
428.631	1.77
428.836	1.98
429.041	1.92
429.246	2.01
429.451	1.93
429.656	1.95
429.861	2.12
430.066	2.28
430.271	2.15
430.476	2.16
430.681	2.18
430.886	2.33
431.09	2.28
431.295	2.36
431.5	2.29
431.705	2.32
431.91	2.4
432.115	2.34
432.32	2.25
432.524	2.36
432.729	2.23
432.934	2.2
433.139	2.07
433.343	1.95
433.548	1.82
433.753	1.92
433.958	1.82
434.162	1.75
434.367	1.81
434.572	1.87
434.776	1.72
434.981	1.92
435.186	1.97
435.39	1.93
435.595	2.01
435.799	2.05
436.004	1.94
436.209	1.99
436.413	2.01
436.618	2
436.822	1.98
437.027	2.02
437.231	1.89
437.436	1.84
437.64	1.87
437.845	1.91
438.049	1.86
438.253	1.88
438.458	1.86
438.662	1.84
438.867	1.83
439.071	1.83
439.275	1.86
439.48	1.91
439.684	1.96
439.888	1.91
440.093	1.75
440.297	1.92
440.501	1.99
440.706	1.97
440.91	2.01
441.114	2
441.318	1.95
441.523	1.9
441.727	1.81
441.931	1.74
442.135	1.78
442.339	1.84
442.543	1.69
442.748	1.67
442.952	1.62
443.156	1.6
443.36	1.6
443.564	1.65
443.768	1.72
443.972	1.76
444.176	1.81
444.38	1.89
444.584	1.9
444.788	1.86
444.992	1.79
445.196	1.88
445.4	1.86
445.604	1.86
445.808	1.89
446.012	1.91
446.216	1.88
446.42	1.85
446.624	1.76
446.828	1.74
447.032	1.83
447.235	1.86
447.439	1.95
447.643	1.85
447.847	1.83
448.051	1.74
448.254	1.77
448.458	1.74
448.662	1.77
448.866	1.86
449.069	1.91
449.273	1.84
449.477	1.89
449.681	1.88
449.884	1.92
450.088	1.98
450.292	1.92
450.495	1.9
450.699	2.03
450.902	1.95
451.106	1.91
451.31	1.85
451.513	1.86
451.717	1.97
451.92	2
452.124	2.22
452.327	2.17
452.531	2.33
452.734	2.21
452.938	2.06
453.141	2.2
453.345	2.16
453.548	2.28
453.752	2.26
453.955	2.06
454.158	1.95
454.362	1.7
454.565	1.7
454.769	1.62
454.972	1.61
455.175	1.62
455.379	1.55
455.582	1.58
455.785	1.47
455.988	1.49
456.192	1.43
456.395	1.42
456.598	1.58
456.801	1.59
457.005	1.59
457.208	1.62
457.411	1.68
457.614	1.71
457.817	1.69
458.021	1.8
458.224	1.81
458.427	1.95
458.63	2
458.833	1.93
459.036	1.87
459.239	1.85
459.442	1.87
459.645	1.85
459.848	1.79
460.051	1.81
460.254	1.69
460.457	1.72
460.66	1.59
460.863	1.48
461.066	1.47
461.269	1.57
461.472	1.68
461.675	1.67
461.878	1.64
462.081	1.69
462.284	1.8
462.486	1.88
462.689	1.75
462.892	1.9
463.095	1.89
463.298	1.88
463.5	1.73
463.703	1.6
463.906	1.59
464.109	1.76
464.311	1.71
464.514	1.59
464.717	1.5
464.92	1.54
465.122	1.41
465.325	1.52
465.528	1.55
465.73	1.72
465.933	1.76
466.135	1.83
466.338	1.77
466.541	1.76
466.743	1.88
466.946	1.92
467.148	1.96
467.351	2.02
467.553	2.01
467.756	1.97
467.958	1.84
468.161	1.9
468.363	1.89
468.566	1.89
468.768	1.88
468.971	1.8
469.173	1.84
469.375	1.92
469.578	1.9
469.78	1.94
469.983	1.94
470.185	2.03
470.387	1.94
470.59	2
470.792	1.95
470.994	1.98
471.196	1.96
471.399	1.94
471.601	1.92
471.803	1.95
472.005	1.89
472.208	1.98
472.41	1.98
472.612	2.11
472.814	2.1
473.016	2.08
473.218	2.12
473.421	2.25
473.623	2.2
473.825	2.11
474.027	2.11
474.229	2.1
474.431	1.99
474.633	1.95
474.835	1.89
475.037	1.8
475.239	1.81
475.441	1.71
475.643	1.59
475.845	1.58
476.047	1.63
476.249	1.64
476.451	1.6
476.653	1.58
476.855	1.58
477.057	1.53
477.258	1.48
477.46	1.49
477.662	1.58
477.864	1.57
478.066	1.64
478.268	1.57
478.469	1.59
478.671	1.63
478.873	1.59
479.075	1.64
479.276	1.71
479.478	1.76
479.68	1.75
479.882	1.72
480.083	1.67
480.285	1.69
480.487	1.65
480.688	1.62
480.89	1.56
481.091	1.64
481.293	1.64
481.495	1.58
481.696	1.59
481.898	1.6
482.099	1.61
482.301	1.65
482.502	1.59
482.704	1.64
482.905	1.66
483.107	1.66
483.308	1.67
483.51	1.66
483.711	1.7
483.913	1.72
484.114	1.76
484.315	1.75
484.517	1.74
484.718	1.79
484.92	1.79
485.121	1.75
485.322	1.79
485.524	1.78
485.725	1.79
485.926	1.77
486.127	1.76
486.329	1.72
486.53	1.75
486.731	1.75
486.932	1.76
487.134	1.79
487.335	1.8
487.536	1.82
487.737	1.84
487.938	1.89
488.139	1.88
488.341	1.88
488.542	1.9
488.743	1.88
488.944	1.84
489.145	1.85
489.346	1.82
489.547	1.79
489.748	1.78
489.949	1.78
490.15	1.74
490.351	1.74
490.552	1.74
490.753	1.76
490.954	1.81
491.155	1.87
491.356	1.85
491.557	1.86
491.758	1.92
491.959	1.95
492.159	1.97
492.36	1.96
492.561	1.97
492.762	1.91
492.963	1.88
493.164	1.82
493.364	1.77
493.565	1.78
493.766	1.8
493.967	1.81
494.167	1.73
494.368	1.76
494.569	1.83
494.769	1.87
494.97	1.92
495.171	1.98
495.371	2
495.572	1.99
495.773	1.97
495.973	1.9
496.174	1.91
496.375	2
496.575	1.98
496.776	1.92
496.976	1.92
497.177	1.96
497.377	1.93
497.578	1.88
497.778	1.97
497.979	1.95
498.179	1.99
498.38	1.94
498.58	1.9
498.78	1.88
498.981	1.85
499.181	1.93
499.382	1.89
499.582	1.94
499.782	1.95
499.983	1.94
500.183	2.06
500.383	2.04
500.584	2.08
500.784	2.04
500.984	2.04
501.184	2.18
501.385	2.06
501.585	2.1
501.785	2.11
501.985	2.2
502.185	2.09
502.386	2.05
502.586	2.11
502.786	2.09
502.986	2.04
503.186	2.09
503.386	2.05
503.586	2.2
503.786	2.21
503.987	2.21
504.187	2.22
504.387	2.27
504.587	2.34
504.787	2.27
504.987	2.26
505.187	2.39
505.387	2.35
505.587	2.38
505.786	2.38
505.986	2.34
506.186	2.36
506.386	2.37
506.586	2.38
506.786	2.39
506.986	2.43
507.186	2.42
507.386	2.41
507.585	2.38
507.785	2.32
507.985	2.25
508.185	2.37
508.384	2.32
508.584	2.35
508.784	2.35
508.984	2.29
509.183	2.35
509.383	2.37
509.583	2.32
509.782	2.37
509.982	2.47
510.182	2.54
510.381	2.51
510.581	2.54
510.781	2.5
510.98	2.49
511.18	2.53
511.379	2.57
511.579	2.6
511.778	2.65
511.978	2.69
512.177	2.71
512.377	2.76
512.576	2.69
512.776	2.7
512.975	2.64
513.175	2.72
513.374	2.79
513.573	2.77
513.773	2.85
513.972	2.92
514.172	2.97
514.371	2.97
514.57	2.95
514.77	3
514.969	3.05
515.168	3.24
515.367	3.2
515.567	3.17
515.766	3.17
515.965	3.2
516.164	3.19
516.364	3.17
516.563	3.1
516.762	3.13
516.961	3.12
517.16	3.09
517.359	3.02
517.559	3.08
517.758	3.15
517.957	3.21
518.156	3.17
518.355	3.24
518.554	3.26
518.753	3.34
518.952	3.4
519.151	3.5
519.35	3.61
519.549	3.68
519.748	3.75
519.947	3.72
520.146	3.7
520.345	3.73
520.544	3.64
520.743	3.63
520.942	3.63
521.141	3.66
521.339	3.6
521.538	3.55
521.737	3.62
521.936	3.53
522.135	3.52
522.333	3.56
522.532	3.54
522.731	3.58
522.93	3.6
523.129	3.61
523.327	3.6
523.526	3.69
523.725	3.74
523.923	3.63
524.122	3.72
524.321	3.76
524.519	3.78
524.718	3.85
524.917	3.89
525.115	3.9
525.314	3.93
525.512	3.93
525.711	3.87
525.909	3.86
526.108	3.94
526.306	3.95
526.505	4.01
526.703	4.05
526.902	4.08
527.1	4.14
527.299	4.18
527.497	4.23
527.696	4.27
527.894	4.36
528.092	4.45
528.291	4.51
528.489	4.53
528.688	4.51
528.886	4.53
529.084	4.6
529.283	4.59
529.481	4.64
529.679	4.61
529.877	4.63
530.076	4.57
530.274	4.51
530.472	4.52
530.67	4.59
530.869	4.63
531.067	4.62
531.265	4.55
531.463	4.61
531.661	4.62
531.859	4.68
532.057	4.66
532.255	4.7
532.454	4.73
532.652	4.7
532.85	4.68
533.048	4.71
533.246	4.82
533.444	4.86
533.642	4.85
533.84	4.9
534.038	4.91
534.236	4.92
534.434	4.98
534.632	4.97
534.83	4.98
535.027	5.05
535.225	5.1
535.423	5.1
535.621	5.17
535.819	5.23
536.017	5.18
536.215	5.25
536.412	5.29
536.61	5.32
536.808	5.41
537.006	5.48
537.203	5.48
537.401	5.5
537.599	5.48
537.797	5.45
537.994	5.43
538.192	5.48
538.39	5.47
538.587	5.49
538.785	5.5
538.983	5.46
539.18	5.44
539.378	5.43
539.575	5.43
539.773	5.49
539.97	5.57
540.168	5.64
540.366	5.68
540.563	5.69
540.761	5.73
540.958	5.77
541.155	5.83
541.353	5.91
541.55	5.98
541.748	6.01
541.945	6.01
542.143	6.01
542.34	6.04
542.537	6.05
542.735	6.1
542.932	6.13
543.129	6.12
543.327	6.17
543.524	6.16
543.721	6.24
543.919	6.25
544.116	6.3
544.313	6.31
544.51	6.28
544.708	6.36
544.905	6.38
545.102	6.46
545.299	6.51
545.496	6.54
545.693	6.63
545.891	6.66
546.088	6.76
546.285	6.76
546.482	6.83
546.679	6.92
546.876	6.95
547.073	7.03
547.27	7.1
547.467	7.16
547.664	7.24
547.861	7.25
548.058	7.24
548.255	7.31
548.452	7.37
548.649	7.44
548.846	7.47
549.043	7.44
549.24	7.48
549.437	7.51
549.633	7.56
549.83	7.59
550.027	7.65
550.224	7.68
550.421	7.66
550.618	7.69
550.814	7.67
551.011	7.64
551.208	7.72
551.405	7.79
551.601	7.83
551.798	7.89
551.995	7.93
552.191	7.93
552.388	8.08
552.585	8.13
552.781	8.33
552.978	8.38
553.175	8.47
553.371	8.53
553.568	8.53
553.764	8.64
553.961	8.62
554.157	8.63
554.354	8.77
554.55	8.63
554.747	8.67
554.943	8.59
555.14	8.58
555.336	8.67
555.533	8.74
555.729	8.87
555.926	8.8
556.122	8.84
556.318	8.96
556.515	8.95
556.711	9.17
556.907	9.26
557.104	9.3
557.3	9.35
557.496	9.46
557.693	9.57
557.889	9.59
558.085	9.61
558.281	9.69
558.478	9.72
558.674	9.86
558.87	9.78
559.066	9.85
559.262	9.79
559.459	9.9
559.655	9.88
559.851	9.82
560.047	9.81
560.243	9.91
560.439	10.04
560.635	10.1
560.831	10.04
561.027	10.23
561.223	10.22
561.419	10.58
561.615	10.73
561.811	10.81
562.007	10.9
562.203	10.94
562.399	11.15
562.595	11.16
562.791	11.16
562.987	11.41
563.183	11.48
563.379	11.52
563.575	11.48
563.771	11.51
563.966	11.54
564.162	11.58
564.358	11.65
564.554	11.66
564.75	11.7
564.945	11.69
565.141	11.59
565.337	11.65
565.533	11.83
565.728	11.76
565.924	11.7
566.12	11.75
566.315	11.81
566.511	11.88
566.707	11.9
566.902	12.08
567.098	12.18
567.293	12.24
567.489	12.24
567.684	12.26
567.88	12.4
568.076	12.57
568.271	12.67
568.467	12.8
568.662	12.96
568.858	12.98
569.053	13.01
569.248	13.11
569.444	13.17
569.639	13.31
569.835	13.35
570.03	13.3
570.225	13.4
570.421	13.47
570.616	13.47
570.812	13.52
571.007	13.64
571.202	13.64
571.397	13.72
571.593	13.76
571.788	13.74
571.983	13.78
572.178	13.96
572.374	13.99
572.569	13.94
572.764	14.06
572.959	14.13
573.154	14.09
573.35	14.2
573.545	14.24
573.74	14.35
573.935	14.47
574.13	14.5
574.325	14.56
574.52	14.65
574.715	14.79
574.91	14.77
575.105	14.75
575.3	14.91
575.495	14.9
575.69	14.94
575.885	14.93
576.08	14.9
576.275	14.94
576.47	14.95
576.665	14.91
576.86	14.9
577.055	15.07
577.25	15.13
577.444	15.13
577.639	15.2
577.834	15.31
578.029	15.31
578.224	15.42
578.418	15.41
578.613	15.41
578.808	15.49
579.003	15.6
579.197	15.66
579.392	15.72
579.587	15.68
579.781	15.62
579.976	15.67
580.171	15.75
580.365	15.63
580.56	15.85
580.755	15.97
580.949	16.05
581.144	16.04
581.338	15.99
581.533	15.86
581.727	15.87
581.922	16.06
582.116	16.19
582.311	16.26
582.505	16.47
582.7	16.54
582.894	16.43
583.089	16.48
583.283	16.6
583.478	16.65
583.672	16.86
583.866	17.05
584.061	17.12
584.255	17.04
584.449	17.11
584.644	17.13
584.838	17.14
585.032	17.19
585.226	17.31
585.421	17.29
585.615	17.3
585.809	17.25
586.003	17.19
586.198	17.15
586.392	17.16
586.586	17.24
586.78	17.17
586.974	17.09
587.168	17.12
587.363	17.07
587.557	17.21
587.751	17.26
587.945	17.4
588.139	17.54
588.333	17.7
588.527	17.73
588.721	17.67
588.915	17.86
589.109	17.9
589.303	18.06
589.497	18.11
589.691	18.11
589.885	18.17
590.079	18.23
590.273	18.17
590.466	18.16
590.66	18.22
590.854	18.25
591.048	18.2
591.242	18.27
591.436	18.32
591.629	18.14
591.823	18.15
592.017	18.08
592.211	18.02
592.404	18.16
592.598	18.26
592.792	18.32
592.986	18.37
593.179	18.32
593.373	18.38
593.567	18.31
593.76	18.47
593.954	18.42
594.147	18.6
594.341	18.63
594.535	18.61
594.728	18.61
594.922	18.62
595.115	18.64
595.309	18.78
595.502	18.8
595.696	18.84
595.889	18.91
596.083	18.93
596.276	18.9
596.47	18.88
596.663	18.88
596.856	18.88
597.05	18.88
597.243	19
597.437	18.99
597.63	19.01
597.823	19.19
598.017	19.28
598.21	19.46
598.403	19.47
598.596	19.64
598.79	19.57
598.983	19.55
599.176	19.51
599.369	19.4
599.563	19.48
599.756	19.45
599.949	19.26
600.142	19.02
600.335	18.92
600.528	18.91
600.722	18.93
600.915	18.96
601.108	18.91
601.301	19.07
601.494	19.11
601.687	19.08
601.88	19.03
602.073	19.02
602.266	19.1
602.459	19.19
602.652	19.2
602.845	19.24
603.038	19.37
603.231	19.46
603.424	19.42
603.617	19.52
603.809	19.61
604.002	19.7
604.195	19.94
604.388	20.08
604.581	20.07
604.774	20.21
604.966	20.14
605.159	20.18
605.352	20.23
605.545	20.37
605.737	20.28
605.93	20.25
606.123	20.39
606.316	20.24
606.508	20.19
606.701	20.22
606.894	20.15
607.086	20.16
607.279	20.16
607.471	20.15
607.664	20.09
607.857	20.26
608.049	20.26
608.242	20.31
608.434	20.41
608.627	20.54
608.819	20.64
609.012	20.57
609.204	20.67
609.397	20.78
609.589	20.82
609.782	20.83
609.974	20.77
610.166	20.81
610.359	20.7
610.551	20.59
610.743	20.45
610.936	20.23
611.128	20.55
611.32	20.5
611.513	20.44
611.705	20.46
611.897	20.65
612.09	20.7
612.282	20.82
612.474	20.86
612.666	20.95
612.858	21.15
613.051	21.32
613.243	21.27
613.435	21.53
613.627	21.49
613.819	21.36
614.011	21.32
614.203	21.31
614.395	21.17
614.588	21.24
614.78	21.18
614.972	21.03
615.164	21.16
615.356	21.12
615.548	20.94
615.74	20.93
615.932	21.16
616.124	21.22
616.315	21.33
616.507	21.42
616.699	21.45
616.891	21.62
617.083	21.66
617.275	21.55
617.467	21.62
617.659	21.77
617.85	21.87
618.042	21.66
618.234	21.6
618.426	21.36
618.618	21.16
618.809	21.35
619.001	21.38
619.193	21.55
619.384	21.65
619.576	21.63
619.768	21.47
619.959	21.43
620.151	21.7
620.343	21.89
620.534	22.01
620.726	22.2
620.917	21.95
621.109	21.73
621.301	21.53
621.492	21.37
621.684	21.32
621.875	21.39
622.067	21.4
622.258	21.28
622.45	21.08
622.641	21.25
622.832	21.24
623.024	21.17
623.215	21.34
623.407	21.29
623.598	21.36
623.789	21.42
623.981	21.46
624.172	21.44
624.363	21.6
624.555	21.59
624.746	21.64
624.937	21.79
625.129	21.84
625.32	21.88
625.511	22.04
625.702	22.14
625.893	22.17
626.085	22.31
626.276	22.38
626.467	22.34
626.658	22.52
626.849	22.43
627.04	22.44
627.231	22.65
627.422	22.71
627.614	22.82
627.805	22.86
627.996	22.88
628.187	22.71
628.378	22.6
628.569	22.56
628.76	22.45
628.951	22.53
629.142	22.45
629.332	22.37
629.523	22.34
629.714	22.33
629.905	22.15
630.096	22.12
630.287	22.26
630.478	22.37
630.669	22.44
630.859	22.49
631.05	22.42
631.241	22.54
631.432	22.55
631.623	22.49
631.813	22.43
632.004	22.6
632.195	22.54
632.385	22.46
632.576	22.54
632.767	22.59
632.957	22.5
633.148	22.66
633.339	22.72
633.529	22.71
633.72	22.8
633.91	22.74
634.101	22.8
634.292	22.89
634.482	22.96
634.673	22.99
634.863	22.93
635.054	23.09
635.244	22.87
635.435	22.82
635.625	22.88
635.815	22.84
636.006	22.8
636.196	22.76
636.387	22.73
636.577	22.92
636.767	22.98
636.958	22.96
637.148	22.87
637.338	23.14
637.529	23.15
637.719	23.18
637.909	23.21
638.099	23.38
638.29	23.25
638.48	23.33
638.67	23.16
638.86	23.21
639.05	23.14
639.241	23.15
639.431	23.17
639.621	23.2
639.811	23.08
640.001	23.12
640.191	23.26
640.381	23.48
640.571	23.48
640.761	23.66
640.951	23.21
641.141	23.35
641.331	23.3
641.521	23.28
641.711	23.23
641.901	23.5
642.091	23.41
642.281	23.18
642.471	23.04
642.661	23.23
642.851	23.16
643.041	23.42
643.231	23.3
643.42	23.45
643.61	23.37
643.8	23.42
643.99	23.12
644.18	23.22
644.369	23.15
644.559	23.46
644.749	23.08
644.939	22.96
645.128	23.04
645.318	23.15
645.508	23.08
645.697	23.1
645.887	22.98
646.076	23.15
646.266	23.33
646.456	23.6
646.645	23.27
646.835	23.34
647.024	23.23
647.214	23.27
647.403	23.42
647.593	23.45
647.782	23.43
647.972	23.33
648.161	23.21
648.351	23.06
648.54	23.09
648.73	23.38
648.919	23.54
649.108	23.75
649.298	23.82
649.487	24
649.677	23.99
649.866	24
650.055	24.07
650.244	24.2
650.434	24.12
650.623	24.11
650.812	24
651.002	24.22
651.191	24.39
651.38	24.38
651.569	24.24
651.758	24.31
651.947	24.26
652.137	24.47
652.326	24.36
652.515	24.6
652.704	24.56
652.893	24.49
653.082	24.42
653.271	24.45
653.46	24.39
653.649	24.3
653.838	24.44
654.027	24.62
654.216	24.63
654.405	24.83
654.594	24.76
654.783	24.63
654.972	24.7
655.161	24.61
655.35	24.36
655.539	24.45
655.728	24.46
655.916	24.34
656.105	24.37
656.294	24.37
656.483	24.28
656.672	24.11
656.86	24.29
657.049	24.22
657.238	24.23
657.427	24.41
657.615	24.52
657.804	24.51
657.993	24.65
658.181	24.45
658.37	24.41
658.559	24.57
658.747	24.82
658.936	24.7
659.125	24.73
659.313	24.76
659.502	24.64
659.69	24.49
659.879	24.67
660.067	24.67
660.256	24.73
660.444	24.78
660.633	24.74
660.821	24.52
661.01	24.75
661.198	25.02
661.387	24.75
661.575	24.8
661.763	24.78
661.952	24.71
662.14	24.5
662.328	24.62
662.517	24.71
662.705	24.71
662.893	24.99
663.082	24.98
663.27	24.89
663.458	25.12
663.646	25.27
663.834	25.5
664.023	25.44
664.211	25.51
664.399	25.55
664.587	25.57
664.775	25.5
664.963	25.58
665.152	25.49
665.34	25.62
665.528	25.89
665.716	25.97
665.904	25.84
666.092	25.82
666.28	25.98
666.468	26.06
666.656	26.2
666.844	26.3
667.032	26.13
667.22	26.23
667.408	26.2
667.596	26.14
667.784	25.91
667.971	26.07
668.159	26.13
668.347	26.14
668.535	26.07
668.723	26.11
668.911	26.06
669.098	26.22
669.286	26.38
669.474	26.25
669.662	26.39
669.849	26.36
670.037	26.31
670.225	26.35
670.413	26.2
670.6	26.11
670.788	25.9
670.976	25.95
671.163	25.92
671.351	25.71
671.538	25.7
671.726	25.61
671.913	25.8
672.101	25.66
672.289	25.68
672.476	25.91
672.664	26.18
672.851	26.18
673.039	26.08
673.226	25.98
673.413	25.95
673.601	26.06
673.788	25.81
673.976	25.63
674.163	25.75
674.35	25.8
674.538	25.61
674.725	25.51
674.912	25.73
675.1	25.81
675.287	26.2
675.474	26.21
675.662	26.26
675.849	26.42
676.036	26.41
676.223	26.46
676.411	26.31
676.598	26.21
676.785	26.1
676.972	25.85
677.159	25.99
677.346	25.66
677.533	25.66
677.721	25.62
677.908	25.61
678.095	25.85
678.282	25.87
678.469	26.07
678.656	26.27
678.843	26.07
679.03	26.3
679.217	26.25
679.404	26.3
679.591	26.34
679.778	26.33
679.964	26.35
680.151	26.29
680.338	26.24
680.525	26.22
680.712	26.25
680.899	26.62
681.086	26.61
681.272	26.55
681.459	26.49
681.646	26.53
681.833	26.46
682.02	26.54
682.206	26.38
682.393	26.47
682.58	26.29
682.766	26.28
682.953	26.1
683.14	25.98
683.326	25.99
683.513	26.11
683.7	26.16
683.886	26.22
684.073	26.2
684.259	26.48
684.446	26.26
684.632	26.6
684.819	26.51
685.005	26.43
685.192	26.32
685.378	26.36
685.565	26.08
685.751	26.04
685.938	26.27
686.124	26.3
686.31	26.21
686.497	26.34
686.683	26.41
686.87	26.66
687.056	26.94
687.242	27.22
687.429	27.26
687.615	27.3
687.801	27.35
687.987	27.06
688.174	27.25
688.36	27.3
688.546	27.42
688.732	27.11
688.918	26.97
689.105	26.6
689.291	26.6
689.477	26.63
689.663	26.62
689.849	26.37
690.035	26.69
690.221	26.74
690.407	26.81
690.593	26.32
690.779	26.32
690.965	26.38
691.151	26.63
691.337	26.53
691.523	26.35
691.709	26.75
691.895	27.22
692.081	27.32
692.267	27.03
692.453	27.06
692.639	27.67
692.825	27.8
693.011	27.65
693.196	27.77
693.382	27.44
693.568	27.5
693.754	27.37
693.94	27.1
694.125	26.71
694.311	26.91
694.497	26.86
694.682	26.78
694.868	26.81
695.054	27.13
695.239	27.25
695.425	27.47
695.611	27.65
695.796	27.75
695.982	27.79
696.168	28.04
696.353	27.59
696.539	27.63
696.724	27.44
696.91	27.47
697.095	27.31
697.281	27.23
697.466	27.11
697.652	26.94
697.837	26.77
698.023	26.72
698.208	26.54
698.393	26.83
698.579	26.62
698.764	26.91
698.949	26.87
699.135	26.75
699.32	26.69
699.505	26.89
699.691	27.1
699.876	27.43
700.061	27.65
700.246	27.87
700.432	27.82
700.617	28.19
700.802	27.89
700.987	27.95
701.172	28.02
701.358	28.18
701.543	28.16
701.728	28.21
701.913	28.07
702.098	28.03
702.283	27.77
702.468	27.74
702.653	27.58
702.838	27.53
703.023	27.69
703.208	27.9
703.393	27.9
703.578	27.76
703.763	27.4
703.948	27.4
704.133	27.41
704.318	27.56
704.503	27.39
704.688	27.5
704.873	27.54
705.057	27.49
705.242	27.48
705.427	27.6
705.612	27.56
705.797	28.31
705.981	28.05
706.166	27.86
706.351	27.93
706.536	28.48
706.72	28.11
706.905	28.17
707.09	28.02
707.274	27.82
707.459	27.58
707.644	27.54
707.828	26.98
708.013	27.02
708.197	27.15
708.382	27.15
708.567	26.53
708.751	27.12
708.936	26.89
709.12	26.97
709.305	27.01
709.489	27.08
709.673	27.48
709.858	27.47
710.042	27.33
710.227	27.23
710.411	27.26
710.596	27.62
710.78	27.35
710.964	27.36
711.149	27.07
711.333	27
711.517	27.16
711.702	26.82
711.886	26.99
712.07	27.04
712.254	27.16
712.438	27.02
712.623	27.19
712.807	26.96
712.991	27.16
713.175	27.46
713.359	27.62
713.544	27.46
713.728	27.54
713.912	27.78
714.096	28.14
714.28	28.15
714.464	28.5
714.648	28.35
714.832	28.34
715.016	28.04
715.2	27.89
715.384	28.05
715.568	28.27
715.752	28.43
715.936	27.93
716.12	27.8
716.304	27.98
716.488	27.77
716.671	27.72
716.855	28.21
717.039	28.45
717.223	28.43
717.407	28.46
717.59	27.99
717.774	27.48
717.958	27.87
718.142	27.93
718.325	27.53
718.509	27.29
718.693	27.24
718.877	27.13
719.06	27.43
719.244	27.78
719.428	27.78
719.611	28.04
719.795	28.56
719.978	28.09
720.162	27.97
720.345	28.35
720.529	28.98
720.713	28.74
720.896	28.18
721.08	27.98
721.263	27.77
721.446	27.97
721.63	28
721.813	28.14
721.997	28.89
722.18	28.83
722.364	28.63
722.547	28.2
722.73	28.73
722.914	29.4
723.097	29.75
723.28	30.08
723.464	29.46
723.647	29.12
723.83	28.98
724.013	28.89
724.197	29.02
724.38	29.09
724.563	29.43
724.746	29.36
724.929	28.56
725.112	28.02
725.296	27.59
725.479	27.6
725.662	28.17
725.845	28.13
726.028	27.5
726.211	27.55
726.394	27.16
726.577	27.32
726.76	27.59
726.943	28.04
727.126	28.28
727.309	28.7
727.492	28.48
727.675	28.13
727.858	27.73
728.041	27.85
728.224	27.41
728.407	27.61
728.589	27.24
728.772	27.27
728.955	27.32
729.138	27.31
729.321	26.99
729.503	27.12
729.686	27.19
729.869	27.71
730.052	27.9
730.234	27.77
730.417	27.86
730.6	27.31
730.782	26.84
730.965	26.77
731.148	26.99
731.33	27.07
731.513	27.69
731.695	28.2
731.878	28.23
732.061	28.08
732.243	28.38
732.426	28.39
732.608	28.71
732.791	28.79
732.973	28.73
733.156	28.61
733.338	28.73
733.52	28.3
733.703	27.94
733.885	27.41
734.068	27.98
734.25	27.78
734.432	27.72
734.615	28.07
734.797	28.33
734.979	28.53
735.162	28.6
735.344	28.13
735.526	28.3
735.708	28.08
735.891	28.63
736.073	28.23
736.255	28.57
736.437	28.48
736.619	28.18
736.802	28.15
736.984	27.98
737.166	28.1
737.348	28.55
737.53	27.97
737.712	28.07
737.894	28.18
738.076	28.12
738.258	28.21
738.44	28.48
738.622	28.49
738.804	28.13
738.986	28.3
739.168	27.85
739.35	27.77
739.532	27.92
739.714	27.78
739.896	27.19
740.078	27.45
740.259	27.78
740.441	27.5
740.623	27.75
740.805	27.64
740.987	27.49
741.168	28.02
741.35	28
741.532	28.58
741.714	28.75
741.895	29.15
742.077	29.23
742.259	29
742.44	29.22
742.622	29.27
742.804	29.47
742.985	30.08
743.167	29.9
743.348	29.84
743.53	29.59
743.711	30.21
743.893	29.88
744.075	29.94
744.256	29.87
744.438	29.84
744.619	29.67
744.8	29.61
744.982	28.85
745.163	28.99
745.345	29.55
745.526	29.57
745.707	29.01
745.889	29.04
746.07	28.2
746.252	27.65
746.433	27.5
746.614	27.21
746.795	27.45
746.977	27.9
747.158	27.9
747.339	27.65
747.52	28.12
747.702	28.35
747.883	28.73
748.064	28.97
748.245	29.28
748.426	29.62
748.607	30.17
748.788	30.1
748.97	29.37
749.151	29.46
749.332	29.03
749.513	28.89
749.694	28.82
749.875	28.76
750.056	28.81
750.237	28.66
750.418	28.52
750.599	28.26
750.78	28.29
750.96	28.87
751.141	28.22
751.322	28.28
751.503	27.91
751.684	27.78
751.865	27.5
752.046	27.37
752.226	27.42
752.407	27.68
752.588	27.28
752.769	27.16
752.949	27.05
753.13	27.39
753.311	27.68
753.492	27.12
753.672	27.27
753.853	27.81
754.034	28
754.214	28.34
754.395	28.06
754.575	28.79
754.756	28.4
754.937	28.4
755.117	28.55
755.298	28.99
755.478	30.41
755.659	30.11
755.839	29.89
756.02	29.82
756.2	29.75
756.381	29.39
756.561	28.93
756.741	29.49
756.922	29.6
757.102	29.29
757.283	28.42
757.463	27.8
757.643	27.33
757.823	27.27
758.004	27.03
758.184	26.35
758.364	26.89
758.545	26.99
758.725	27.02
758.905	26.89
759.085	27.16
759.265	27.72
759.446	27.09
759.626	27.32
759.806	27.47
759.986	28.17
760.166	28.75
760.346	28.8
760.526	29.02
760.706	28.95
760.886	29.1
761.066	28.99
761.246	28.61
761.426	28.62
761.606	28.68
761.786	28.73
761.966	28.29
762.146	28.52
762.326	28.2
762.506	28.15
762.686	28.09
762.866	28.51
763.046	28.48
763.225	28.39
763.405	28.62
763.585	28.94
763.765	28.88
763.945	29.32
764.124	29.34
764.304	29.52
764.484	29.32
764.664	29.62
764.843	29.13
765.023	29.05
765.203	29.63
765.382	30.11
765.562	29.6
765.741	29.94
765.921	29.93
766.101	29.77
766.28	30.15
766.46	30.11
766.639	29.85
766.819	30.02
766.998	30.32
767.178	29.94
767.357	29.75
767.537	30.09
767.716	30.08
767.896	29.63
768.075	29.92
768.254	29.27
768.434	29.81
768.613	31.04
768.792	31.16
768.972	31.05
769.151	31.02
769.33	30.83
769.51	29.97
769.689	29.39
769.868	29.72
770.047	29.81
770.226	30.06
770.406	29.27
770.585	28.17
770.764	27.57
770.943	27.4
771.122	27.46
771.301	27.12
771.48	28.08
771.66	28.63
771.839	29.16
772.018	28.79
772.197	29.03
772.376	29.67
772.555	29.64
772.734	30.14
772.913	30.6
773.092	30.89
773.271	31.19
773.449	31.42
773.628	31.23
773.807	31.35
773.986	31.39
774.165	30.47
774.344	30.59
774.523	30.29
774.701	29.78
774.88	29.77
775.059	29.29
775.238	28.87
775.417	28.45
775.595	28.3
775.774	28.26
775.953	28.5
776.131	28.93
776.31	28.76
776.489	29
776.667	29.84
776.846	30.13
777.025	30.7
777.203	31.31
777.382	31.12
777.56	30.99
777.739	30.06
777.917	29.57
778.096	30.32
778.274	30.4
778.453	29.94
778.631	29.69
778.81	29.49
778.988	28.92
779.166	28.14
779.345	27.87
779.523	28.29
779.702	28.09
779.88	28.61
780.058	27.88
780.237	27.78
780.415	28.29
780.593	28.1
780.771	28.18
780.95	28.76
781.128	30.13
781.306	30.78
781.484	30.56
781.662	30.8
781.841	30.7
782.019	31.02
782.197	31.4
782.375	31.8
782.553	31.7
782.731	31.29
782.909	31.22
783.087	30.39
783.265	29.86
783.443	30.4
783.621	30.72
783.799	30.51
783.977	30.96
784.155	30.67
784.333	30.53
784.511	30.54
784.689	30.04
784.867	29.95
785.045	29.68
785.223	30.17
785.4	30.36
785.578	30.07
785.756	30.08
785.934	29.66
786.112	28.95
786.289	27.87
786.467	28.62
786.645	29.64
786.823	29.33
787	29.48
787.178	29.45
787.356	28.64
787.533	29.01
787.711	28.67
787.889	28.54
788.066	29.7
788.244	30.75
788.421	29.33
788.599	28.66
788.776	28.69
788.954	29.3
789.131	29.44
789.309	29.06
789.486	30.16
789.664	31.52
789.841	31.95
790.019	31.83
790.196	31.11
790.373	32.08
790.551	31.64
790.728	30.88
790.906	29.76
791.083	28.65
791.26	28.67
791.437	27.76
791.615	27.31
791.792	27.52
791.969	26.23
792.146	26.71
792.324	26.22
792.501	26.55
792.678	26.63
792.855	27.19
793.032	29.17
793.209	29.06
793.387	29.04
793.564	28.79
793.741	28.16
793.918	29.27
794.095	29.25
794.272	29.88
794.449	30.23
794.626	31.12
794.803	31.99
794.98	31.94
795.157	32.13
795.334	31.74
795.511	31.87
795.688	31.19
795.864	30.95
796.041	31.21
796.218	31.13
796.395	31.16
796.572	31.46
796.749	30.89
796.925	30.57
797.102	30.27
797.279	29.98
797.456	29.5
797.632	30.01
797.809	30.41
797.986	29.76
798.162	30.36
798.339	30.4
798.516	29.54
798.692	29.47
798.869	29.66
799.046	29.93
799.222	28.96
799.399	29.37
799.575	29.9
799.752	29.39
799.928	29.96
800.105	29.86
800.281	30.83
800.458	31.94
800.634	31.87
800.811	31.3
800.987	32.74
801.163	34.95
801.34	34.89
801.516	33.86
801.692	36.03
801.869	36.01
802.045	34.64
802.221	32.94
802.398	32.49
802.574	32.23
802.75	32.18
802.926	29.46
803.103	28.69
803.279	27.8
803.455	29.42
803.631	27.93
803.807	27.96
803.983	28.56
804.16	28.35
804.336	28.44
804.512	27.89
804.688	27.63
804.864	29.01
805.04	27.89
805.216	28.41
805.392	27.77
805.568	27.4
805.744	27.69
805.92	27.97
806.096	28.42
806.272	28.8
806.448	29.65
806.623	30.22
806.799	29.73
806.975	30.49
807.151	30.54
807.327	29.56
807.503	29.01
807.678	28.4
807.854	28.15
808.03	28.39
808.206	28.71
808.381	29.27
808.557	29.68
808.733	29.89
808.908	31.28
809.084	29.93
809.26	29.77
809.435	29.76
809.611	29.96
809.787	29.69
809.962	29.78
810.138	29.14
810.313	28.76
810.489	28.44
810.664	28.12
810.84	26.11
811.015	26.62
811.191	26.82
811.366	26.83
811.542	26.29
811.717	27.03
811.892	27.58
812.068	28.26
812.243	26.48
812.419	25.69
812.594	26.6
812.769	26.72
812.944	27.31
813.12	28.16
813.295	27.97
813.47	28.64
813.645	27.75
813.821	27.41
813.996	25.87
814.171	26.72
814.346	27.64
814.521	28.06
814.697	29.06
814.872	29.44
815.047	29.85
815.222	29.75
815.397	30.52
815.572	30.45
815.747	30.33
815.922	31.37
816.097	32.25
816.272	31.16
816.447	31.11
816.622	31.09
816.797	30.87
816.972	31.55
817.147	34
817.322	32.76
817.496	33.1
817.671	32.51
817.846	32.27
818.021	32.14
818.196	32.01
818.371	31.94
818.545	31.57
818.72	31.84
818.895	30.74
819.069	28.42
819.244	29.44
819.419	29.63
819.594	29.16
819.768	28.82
819.943	28.74
820.117	28.55
820.292	27.93
820.467	27.83
820.641	27.49
820.816	27
820.99	27.34
821.165	27.03
821.339	27.23
821.514	27.53
821.688	27.41
821.863	27.26
822.037	27.62
822.212	27.92
822.386	28.06
822.56	28.06
822.735	28.21
822.909	28.16
823.084	28.34
823.258	28.44
823.432	28.3
823.606	28.47
823.781	28.58
823.955	28.45
824.129	28.28
824.303	28.49
824.478	28.36
824.652	28.84
824.826	28.74
825	28.39
825.174	27.85
825.348	28.26
825.523	28.51
825.697	28.81
825.871	28.64
826.045	28.73
826.219	28.5
826.393	29.02
826.567	28.8
826.741	29.14
826.915	29.6
827.089	30.05
827.263	29.53
827.437	29.69
827.611	29.67
827.784	30.05
827.958	30.51
828.132	30.95
828.306	30.95
828.48	31.11
828.654	31.19
828.827	31.04
829.001	30.52
829.175	31.82
829.349	31.44
829.522	31.38
829.696	31.38
829.87	30.69
830.044	29.64
830.217	29.84
830.391	30.84
830.565	31.23
830.738	30.73
830.912	30.96
831.085	29.89
831.259	29.75
831.432	29.02
831.606	27.93
831.779	27.94
831.953	28.02
832.126	27.62
832.3	26.43
832.473	25.92
832.647	26.53
832.82	27.05
832.994	26.59
833.167	26.89
833.34	27.46
833.514	28.22
833.687	29.07
833.86	29.09
834.034	28.85
834.207	29.95
834.38	30.06
834.553	29.78
834.727	29.68
834.9	30.39
835.073	30.58
835.246	30.82
835.419	30.23
835.593	28.9
835.766	29.87
835.939	30.09
836.112	29.12
836.285	29.13
836.458	29.54
836.631	29.02
836.804	28.61
836.977	27.51
837.15	27.71
837.323	28.47
837.496	30.24
837.669	28.69
837.842	29.25
838.015	30.97
838.188	31.97
838.361	32.66
838.533	34.51
838.706	34.46
838.879	34.64
839.052	33.57
839.225	33.61
839.398	32.56
839.57	33.11
839.743	32.35
839.916	30.86
840.088	30.59
840.261	30.26
840.434	29.39
840.607	29.49
840.779	30.51
840.952	31.03
841.124	31.37
841.297	32.33
841.47	31.4
841.642	32.91
841.815	32.47
841.987	33.35
842.16	33.11
842.332	32.81
842.505	35.49
842.677	35.39
842.85	34.32
843.022	32.95
843.194	30.72
843.367	31.06
843.539	30.2
843.712	29.77
843.884	28.22
844.056	30.05
844.229	31.88
844.401	29.14
844.573	28.67
844.745	29.76
844.918	31.92
845.09	32.67
845.262	33.61
845.434	33.01
845.606	35.44
845.779	35.59
845.951	33.05
846.123	28.97
846.295	30.61
846.467	28.66
846.639	27.73
846.811	27.19
846.983	27.63
847.155	27.46
847.327	28.28
847.499	27.07
847.671	27.05
847.843	26.8
848.015	28.65
848.187	25.69
848.359	26.01
848.531	28.6
848.703	28.88
848.875	29.96
849.047	31.67
849.218	30.66
849.39	31.77
849.562	32.13
849.734	33.09
849.905	33.34
850.077	36.27
850.249	38.74
850.421	36.62
850.592	31.91
850.764	31.03
850.936	29.66
851.107	28.6
851.279	27.25
851.451	23.97
851.622	22.62
851.794	23.94
851.965	26.48
852.137	27.38
852.308	31.09
852.48	36.96
852.651	38.85
852.823	38.83
852.994	42.97
853.166	42.74
853.337	44.05
853.509	45.14
853.68	40.66
853.851	40.56
854.023	39.98
854.194	37.22
854.365	35.81
854.537	33.06
854.708	36.48
854.879	32.45
855.05	32.71
855.222	37
855.393	38.98
855.564	42.89
855.735	36.19
855.906	36.14
856.078	36.55
856.249	39.37
856.42	39.89
856.591	35.45
856.762	35.35
856.933	37.86
857.104	36.1
857.275	33.26
857.446	32.06
857.617	32.65
857.788	32.92
857.959	34.6
858.13	31.53
858.301	30.21
858.472	35.67
858.643	40.42
858.814	39.09
858.985	37.61
859.155	37.5
859.326	39.75
859.497	38.33
859.668	38.51
859.839	35.8
860.009	37.01
860.18	40.71
860.351	35.88
860.522	31.59
860.692	29.31
860.863	26.67
861.034	26.59
861.204	23.88
861.375	28.01
861.546	26.27
861.716	24.29
861.887	25.65
862.057	22.89
862.228	25.1
862.398	26.83
862.569	28.11
862.739	28.65
862.91	29.08
863.08	27.69
863.251	27.81
863.421	30.04
863.592	33.91
863.762	34.03
863.932	35.82
864.103	33.93
864.273	32.97
864.443	33.53
864.614	35.93
864.784	32.18
864.954	35.73
865.125	34.98
865.295	32.41
865.465	33.17
865.635	31.4
865.805	27.95
865.976	28.95
866.146	32.74
866.316	35.04
866.486	37.36
866.656	40.23
866.826	35.81
866.996	34.92
867.166	35.88
867.336	38.47
867.506	39.41
867.676	40.97
867.846	43.98
868.016	39.84
868.186	38.93
868.356	39.02
868.526	38.43
868.696	40.62
868.866	41.26
869.036	38.35
869.206	31.7
869.376	33.47
869.545	30.94
869.715	26.46
869.885	25.35
870.055	24.78
870.224	23.12
870.394	24.19
870.564	25.21
870.734	29.95
870.903	37.5
871.073	41.43
871.243	40.11
871.412	43.56
871.582	47.69
871.751	48.37
871.921	46.5
872.091	44.54
872.26	43.64
872.43	40.19
872.599	32.84
872.769	28.43
872.938	27.27
873.108	26.73
873.277	26.54
873.446	25.93
873.616	25.22
873.785	26.53
873.955	27.65
874.124	28.66
874.293	31.67
874.463	35.58
874.632	35.9
874.801	38.1
874.971	39
875.14	38.19
875.309	39.06
875.478	43.88
875.647	43.87
875.817	41.79
875.986	43.22
876.155	42.72
876.324	41.21
876.493	41.74
876.662	37.48
876.831	37.75
877	36.1
877.17	35.17
877.339	31.99
877.508	30.94
877.677	30.83
877.846	32.77
878.015	32.99
878.184	33.49
878.352	32.12
878.521	35.39
878.69	35.05
878.859	34.77
879.028	33.79
879.197	35.67
879.366	35.99
879.534	35.74
879.703	32.82
879.872	33.89
880.041	34.16
880.21	34.66
880.378	33.06
880.547	30.85
880.716	31.79
880.884	31.24
881.053	29.98
881.222	29.8
881.39	29.7
881.559	29.53
881.727	30.16
881.896	29.27
882.065	29.28
882.233	29.95
882.402	30.92
882.57	30.62
882.739	30.22
882.907	30.65
883.076	30.49
883.244	31.27
883.412	31.72
883.581	30.6
883.749	30.85
883.918	31.28
884.086	30.61
884.254	30.5
884.423	30.44
884.591	31.6
884.759	30.75
884.927	30.11
885.096	29.48
885.264	29.17
885.432	31.03
885.6	32.24
885.769	31.55
885.937	32.78
886.105	32.62
886.273	33.99
886.441	34.27
886.609	35.21
886.777	36.45
886.945	35.99
887.113	36.74
887.281	33.19
887.449	33.44
887.617	34.06
887.785	35.64
887.953	35.05
888.121	35.67
888.289	33.58
888.457	35.95
888.625	38.71
888.793	40.03
888.961	41.78
889.129	45.25
889.296	43.4
889.464	43.87
889.632	41.13
889.8	42.88
889.967	40.47
890.135	45.44
