Data from 2938449_Reflection_2.txt Node
Date: Fri Jun 19 18:02:25 EDT 2015
User: robert
Spectrometer: USB4E03002
Autoset integration time: false
Trigger mode: 4
Integration Time (sec): 1.000000E-1
Scans to average: 10
Electric dark correction enabled: true
Nonlinearity correction enabled: false
Boxcar width: 5
Stray light correction enabled: false
XAxis mode: Wavelengths
Stop averaging: false
Number of Pixels in Spectrum: 3648
>>>>>Begin Spectral Data<<<<<
177.575	-570.15
177.794	-134.83
178.014	-201.18
178.233	-76.08
178.452	-42.55
178.672	-250.18
178.891	152.29
179.11	-612.36
179.33	-560.13
179.549	-236.75
179.768	-84.7
179.987	-107.32
180.207	-65.64
180.426	-27.68
180.645	-2.2
180.864	-52.8
181.084	302.02
181.303	98.1
181.522	51.05
181.741	118.15
181.96	66.97
182.179	79.91
182.398	50.06
182.618	79.07
182.837	113.92
183.056	108.83
183.275	117.75
183.494	113.66
183.713	103.47
183.932	140.77
184.151	103.48
184.37	228.79
184.589	415.96
184.808	470.76
185.027	388.54
185.246	283.36
185.465	580.76
185.684	360750
185.903	-88.09
186.122	-118.52
186.341	-104.93
186.56	-149.46
186.779	-55.87
186.998	-68.98
187.216	-8.16
187.435	-3.57
187.654	-41.94
187.873	-60.48
188.092	-140.69
188.311	-147.95
188.53	-188.28
188.748	-329.1
188.967	-165.5
189.186	-304.66
189.405	-702.1
189.623	-18798.41
189.842	-1886.08
190.061	-346.33
190.28	-704.08
190.498	-542.49
190.717	637.9
190.936	505.85
191.154	442.57
191.373	286.93
191.592	294.92
191.81	783.02
192.029	1317.61
192.248	315.29
192.466	306.65
192.685	317.58
192.904	197.3
193.122	404.34
193.341	-1044.53
193.559	2401.39
193.778	-5651.77
193.996	-1122.11
194.215	756.2
194.433	407.78
194.652	-816.24
194.87	-118.47
195.089	-209.3
195.307	-217.54
195.526	-896.76
195.744	528.5
195.963	492700
196.181	1727.89
196.399	567.1
196.618	388.23
196.836	372.86
197.055	324.23
197.273	257.08
197.491	296.81
197.71	214.67
197.928	284.53
198.146	295.69
198.365	216.78
198.583	207.69
198.801	317.99
199.019	746.16
199.238	617.69
199.456	673.25
199.674	809.43
199.892	-4937.98
200.111	-509.41
200.329	-437.47
200.547	-232.98
200.765	-115.17
200.983	-138.58
201.202	-137.6
201.42	-108.21
201.638	-117.72
201.856	-91.5
202.074	-84.85
202.292	-110.29
202.51	-126.64
202.728	-69.78
202.946	-711.72
203.165	-8621.05
203.383	894.08
203.601	280.62
203.819	696.16
204.037	-551.62
204.255	-203.02
204.473	-127.43
204.691	-134.75
204.909	-20.02
205.127	41.11
205.345	61.52
205.562	76.78
205.78	61.41
205.998	62.56
206.216	-41.96
206.434	-520
206.652	400.35
206.87	206.94
207.088	1468.07
207.306	313.97
207.523	159.17
207.741	126.75
207.959	131.02
208.177	119.64
208.395	108.14
208.612	101.54
208.83	82.98
209.048	98.71
209.266	89.94
209.483	77.14
209.701	73.65
209.919	91.61
210.136	105.25
210.354	126.28
210.572	133.56
210.79	168.51
211.007	129.1
211.225	129.97
211.442	101.42
211.66	101.22
211.878	73.32
212.095	104.8
212.313	100.11
212.53	115
212.748	102.19
212.966	92.03
213.183	76.77
213.401	84.47
213.618	98.23
213.836	105.68
214.053	108.26
214.271	230.72
214.488	109.16
214.705	135.3
214.923	91.94
215.14	102.57
215.358	126.01
215.575	320.93
215.793	332.87
216.01	210.6
216.227	165.51
216.445	174.59
216.662	153.12
216.879	140.42
217.097	127.05
217.314	102.06
217.531	103.66
217.749	93.11
217.966	68.41
218.183	48.79
218.4	53.59
218.618	38.7
218.835	66.31
219.052	76.35
219.269	64.77
219.487	52.54
219.704	54.02
219.921	46.28
220.138	37.38
220.355	65.37
220.572	74.96
220.79	54.46
221.007	46.25
221.224	27.43
221.441	18.43
221.658	23.85
221.875	21.44
222.092	8.32
222.309	20.75
222.526	18.64
222.743	8.38
222.96	13.87
223.177	11.31
223.394	22.04
223.611	28.96
223.828	34.12
224.045	38
224.262	40.18
224.479	46.72
224.696	35.23
224.913	35.94
225.13	36.23
225.347	32.94
225.564	32.07
225.781	27.3
225.997	23.48
226.214	19.35
226.431	18.26
226.648	15.35
226.865	14.72
227.082	16.21
227.298	16.02
227.515	15.2
227.732	16.15
227.949	16.88
228.165	17.58
228.382	18.03
228.599	18.47
228.816	16.45
229.032	16.69
229.249	17.98
229.466	17.34
229.682	17.35
229.899	17.29
230.116	15.8
230.332	15.87
230.549	16.04
230.765	15.93
230.982	15
231.199	17.91
231.415	20.4
231.632	15.76
231.848	17.39
232.065	17.06
232.281	17.23
232.498	17.1
232.714	18.46
232.931	19.49
233.147	18.36
233.364	19.8
233.58	17.99
233.797	20.33
234.013	23.68
234.23	22.77
234.446	23.4
234.662	22.3
234.879	24.48
235.095	21.42
235.312	21.19
235.528	25.03
235.744	22.83
235.961	21.82
236.177	17.08
236.393	16.54
236.61	16.77
236.826	17.31
237.042	18.17
237.258	16.05
237.475	16.13
237.691	15.35
237.907	14.6
238.123	16.49
238.339	17.11
238.556	18.62
238.772	19.29
238.988	18.86
239.204	17.67
239.42	17.21
239.636	17.96
239.853	17.04
240.069	16.9
240.285	16.21
240.501	15.82
240.717	16.15
240.933	15.71
241.149	15.23
241.365	15.48
241.581	16.36
241.797	17.12
242.013	16.53
242.229	17.24
242.445	17.77
242.661	17.35
242.877	16.74
243.093	15.92
243.309	15.24
243.525	14.46
243.741	14
243.957	13.33
244.173	11.28
244.388	11.02
244.604	11.3
244.82	11.02
245.036	10.77
245.252	10.93
245.468	10.87
245.683	11.03
245.899	11.22
246.115	11.21
246.331	10.68
246.547	10.97
246.762	10.9
246.978	10.54
247.194	10.8
247.409	11.07
247.625	11.6
247.841	11.63
248.057	11.88
248.272	11.35
248.488	10.43
248.703	10.61
248.919	11.94
249.135	11.8
249.35	12.01
249.566	11.2
249.782	12.1
249.997	10.96
250.213	11.73
250.428	10.86
250.644	10.89
250.859	11.25
251.075	11.38
251.29	11.22
251.506	11.86
251.721	12.57
251.937	13.35
252.152	13.11
252.368	12.73
252.583	13.15
252.798	15.19
253.014	15.82
253.229	16.66
253.445	16.25
253.66	13.81
253.875	13.41
254.091	11.03
254.306	9.45
254.521	9.57
254.737	10.91
254.952	9.02
255.167	7.76
255.383	8.54
255.598	8.84
255.813	9.25
256.028	9.86
256.244	10.23
256.459	10.3
256.674	10.26
256.889	8.81
257.104	7.89
257.32	7.93
257.535	7.68
257.75	7.46
257.965	7.13
258.18	7.19
258.395	7.26
258.61	6.98
258.826	7.12
259.041	6.89
259.256	7.39
259.471	7.74
259.686	7.94
259.901	8.39
260.116	7.89
260.331	8.16
260.546	8.68
260.761	8.75
260.976	8.9
261.191	9.55
261.406	10.54
261.621	10.29
261.836	9.71
262.05	9.99
262.265	9.71
262.48	10.5
262.695	9.83
262.91	9.74
263.125	9.2
263.34	9.48
263.555	8.28
263.769	7.47
263.984	7.84
264.199	9.02
264.414	9.16
264.629	8.35
264.843	8.01
265.058	8.26
265.273	7.52
265.488	8.07
265.702	7.76
265.917	8.65
266.132	8.52
266.346	8.04
266.561	7.88
266.776	7.67
266.99	7.63
267.205	7.91
267.42	8
267.634	7.66
267.849	7.17
268.063	7.54
268.278	6.94
268.492	7.25
268.707	7.36
268.922	6.72
269.136	6.19
269.351	6.81
269.565	6.85
269.78	6.47
269.994	6.61
270.209	6.98
270.423	6.71
270.637	7.08
270.852	7.32
271.066	7.58
271.281	8.26
271.495	8.87
271.709	8.56
271.924	8.48
272.138	9.45
272.353	10.24
272.567	10.35
272.781	10.41
272.996	10.52
273.21	10.69
273.424	10.86
273.638	10.12
273.853	9.97
274.067	9.73
274.281	9.92
274.495	8.84
274.71	8.49
274.924	8.05
275.138	8.63
275.352	8.49
275.566	8.75
275.781	8.71
275.995	9.67
276.209	9.75
276.423	10.29
276.637	9.87
276.851	10.33
277.065	10.11
277.279	10.65
277.493	9.88
277.707	9.35
277.921	8.76
278.135	8.49
278.349	7.25
278.563	6.79
278.777	6.61
278.991	6.67
279.205	6.61
279.419	6.52
279.633	7.18
279.847	7.51
280.061	6.99
280.275	7.52
280.489	7.9
280.703	8.36
280.917	8.05
281.131	7.71
281.344	7.95
281.558	7.49
281.772	7.69
281.986	7.3
282.2	7.58
282.414	7.9
282.627	7.17
282.841	7.27
283.055	7.81
283.269	8.52
283.482	8.77
283.696	8.68
283.91	9.25
284.123	9.31
284.337	8.88
284.551	8.49
284.764	8.58
284.978	8.97
285.192	8.5
285.405	8.37
285.619	8.09
285.833	8.76
286.046	9.08
286.26	9.16
286.473	8.84
286.687	9.05
286.9	9.5
287.114	9.37
287.327	9.21
287.541	8.81
287.754	8.8
287.968	8.67
288.181	7.99
288.395	7.82
288.608	8.08
288.822	8.47
289.035	8.57
289.248	8.42
289.462	9.08
289.675	9.1
289.889	9.86
290.102	9.1
290.315	9.28
290.529	9.9
290.742	9.65
290.955	9.43
291.169	9.46
291.382	9.98
291.595	10.29
291.808	10.5
292.022	10.09
292.235	9.91
292.448	10.52
292.661	10.53
292.875	9.94
293.088	10.48
293.301	10.42
293.514	10.08
293.727	9.4
293.94	9.28
294.153	9.03
294.367	9.38
294.58	9.05
294.793	9
295.006	9.36
295.219	9.75
295.432	10.03
295.645	10.02
295.858	10.02
296.071	10.33
296.284	10.5
296.497	10.82
296.71	11.32
296.923	11.98
297.136	12.39
297.349	11.86
297.562	11.62
297.775	10.98
297.988	11.34
298.201	11.69
298.414	11.37
298.626	11.15
298.839	10.61
299.052	10.31
299.265	10.2
299.478	9.64
299.691	9.83
299.903	9.99
300.116	10.76
300.329	10.57
300.542	10.63
300.755	10.86
300.967	11.27
301.18	11.56
301.393	11.42
301.605	10.93
301.818	11.67
302.031	11.41
302.243	11.26
302.456	10.88
302.669	10.75
302.881	11.23
303.094	11.73
303.307	11.4
303.519	11.57
303.732	11.42
303.944	12.25
304.157	12.68
304.37	13.37
304.582	13.59
304.795	14.03
305.007	14.27
305.22	13.96
305.432	13.53
305.645	13.72
305.857	14.1
306.069	14.5
306.282	14.11
306.494	13.08
306.707	12.7
306.919	12.63
307.132	12.26
307.344	12
307.556	11.83
307.769	12.42
307.981	12.45
308.193	11.98
308.406	11.44
308.618	11.15
308.83	10.95
309.043	11.06
309.255	11.04
309.467	11.09
309.679	11.58
309.892	11.67
310.104	10.78
310.316	11.18
310.528	11.14
310.74	11.24
310.953	11.43
311.165	11.9
311.377	12.28
311.589	12.78
311.801	13.2
312.013	12.94
312.225	12.59
312.437	14.05
312.649	13.31
312.862	13.31
313.074	13.07
313.286	13.7
313.498	13.81
313.71	13.97
313.922	13.5
314.134	13.2
314.346	13.05
314.558	13.6
314.77	12.72
314.982	12.95
315.193	13.33
315.405	14.12
315.617	13.79
315.829	14.08
316.041	14.16
316.253	14.69
316.465	15.02
316.677	14.86
316.888	15.05
317.1	14.63
317.312	14.35
317.524	14.06
317.736	13.96
317.947	14.66
318.159	14.39
318.371	14.08
318.583	13.55
318.794	12.99
319.006	12.96
319.218	13.24
319.43	13.96
319.641	14.3
319.853	14.59
320.064	15.26
320.276	14.86
320.488	14.38
320.699	14.11
320.911	14.47
321.123	14.29
321.334	15.01
321.546	14.53
321.757	14.41
321.969	14.33
322.18	13.89
322.392	12.94
322.603	12.28
322.815	12.7
323.026	12.75
323.238	12.47
323.449	12.71
323.661	12.86
323.872	12.86
324.083	12.41
324.295	12.52
324.506	12.74
324.718	13.09
324.929	13.23
325.14	13.25
325.352	13.76
325.563	13.77
325.774	14.43
325.986	14.25
326.197	14.46
326.408	14.91
326.62	15.16
326.831	15.24
327.042	14.59
327.253	14.98
327.464	15.79
327.676	15.58
327.887	15.36
328.098	14.24
328.309	14.05
328.52	14.41
328.732	14.08
328.943	14.68
329.154	14.91
329.365	15.96
329.576	15.66
329.787	15.06
329.998	15.19
330.209	16.02
330.42	16.94
330.631	17.14
330.842	17.23
331.053	17.58
331.264	16.91
331.475	17.1
331.686	16.45
331.897	16.76
332.108	16.45
332.319	16.53
332.53	16.37
332.741	16.38
332.952	16.24
333.163	15.97
333.374	16.21
333.585	15.84
333.795	15.47
334.006	15.88
334.217	16.08
334.428	16.27
334.639	16.15
334.849	16.26
335.06	16.04
335.271	16.31
335.482	15.61
335.692	15.42
335.903	15.83
336.114	16.02
336.325	15.68
336.535	15.52
336.746	15.74
336.957	15.67
337.167	15.08
337.378	15.13
337.589	14.99
337.799	15
338.01	14.93
338.22	15.26
338.431	14.64
338.642	15.35
338.852	14.98
339.063	14.48
339.273	14.13
339.484	14.54
339.694	14.35
339.905	14.72
340.115	15.24
340.326	15.46
340.536	15.15
340.746	15.89
340.957	15.43
341.167	16.15
341.378	16.44
341.588	16.69
341.799	16.5
342.009	16.14
342.219	15.4
342.43	14.45
342.64	14.12
342.85	13.91
343.061	12.85
343.271	12.63
343.481	12.06
343.691	12.18
343.902	12.31
344.112	12.66
344.322	12.68
344.532	13.3
344.743	14.02
344.953	13.89
345.163	13.54
345.373	13.89
345.583	13.85
345.793	14.15
346.004	13.94
346.214	13.52
346.424	13.1
346.634	13.24
346.844	12.62
347.054	12.63
347.264	13.15
347.474	13.47
347.684	14.03
347.894	14.09
348.104	13.9
348.314	13.61
348.524	13.59
348.734	13.74
348.944	13.47
349.154	13.9
349.364	14.01
349.574	12.8
349.784	12.97
349.994	12.56
350.204	12.8
350.413	12.77
350.623	13.35
350.833	13
351.043	12.92
351.253	12.95
351.463	12.84
351.672	13.17
351.882	13.91
352.092	13.41
352.302	13.99
352.511	14.1
352.721	13.81
352.931	13.56
353.141	14.18
353.35	14.14
353.56	14.5
353.77	14.01
353.979	13.28
354.189	13.34
354.399	13.63
354.608	12.96
354.818	12.93
355.027	13.02
355.237	12.68
355.447	12.78
355.656	12.88
355.866	12.49
356.075	12.88
356.285	12.91
356.494	12.94
356.704	12.88
356.913	13.31
357.123	12.97
357.332	13.16
357.542	13.3
357.751	13.11
357.96	13.05
358.17	13.29
358.379	13.33
358.589	13.48
358.798	13.3
359.007	13.18
359.217	13.02
359.426	12.91
359.635	13.01
359.845	12.96
360.054	12.7
360.263	12.48
360.472	12.49
360.682	12.3
360.891	12.31
361.1	12.29
361.309	12.35
361.519	12.14
361.728	12.01
361.937	11.67
362.146	11.45
362.355	11.25
362.564	11.29
362.774	11.17
362.983	11.11
363.192	10.71
363.401	10.7
363.61	10.87
363.819	11.32
364.028	11.59
364.237	11.01
364.446	11.27
364.655	11.18
364.864	11.36
365.073	11.8
365.282	11.36
365.491	11.59
365.7	11.54
365.909	11.08
366.118	10.66
366.327	10.57
366.536	11.19
366.745	10.64
366.954	10.86
367.162	10.73
367.371	10.26
367.58	10.57
367.789	10.42
367.998	10.27
368.207	10.62
368.415	10.56
368.624	10.66
368.833	10.61
369.042	10.89
369.25	11.28
369.459	11.18
369.668	11
369.877	10.98
370.085	11.39
370.294	11.75
370.503	11.38
370.711	11.41
370.92	11.11
371.129	11.07
371.337	11
371.546	10.52
371.754	10.48
371.963	10.33
372.171	10.01
372.38	9.43
372.589	9.32
372.797	9.37
373.006	9.69
373.214	9.95
373.423	9.68
373.631	9.92
373.84	9.99
374.048	10.04
374.256	10.43
374.465	10.62
374.673	10.81
374.882	10.51
375.09	10.25
375.298	9.8
375.507	9.82
375.715	10.13
375.923	9.9
376.132	9.82
376.34	9.43
376.548	9.06
376.757	8.87
376.965	8.93
377.173	9.16
377.381	9.63
377.59	9.54
377.798	9.35
378.006	9.1
378.214	9.41
378.423	9.41
378.631	9.66
378.839	9.8
379.047	10.14
379.255	9.73
379.463	9.34
379.671	8.98
379.879	8.82
380.088	8.72
380.296	8.76
380.504	8.5
380.712	8.79
380.92	8.72
381.128	8.49
381.336	7.82
381.544	7.77
381.752	7.83
381.96	8.12
382.168	8.37
382.376	8.28
382.584	7.96
382.791	8.2
382.999	7.96
383.207	7.79
383.415	8.06
383.623	8.44
383.831	8.68
384.039	8.7
384.247	8.22
384.454	8.05
384.662	7.88
384.87	7.94
385.078	7.43
385.285	7.34
385.493	7.37
385.701	7.25
385.909	7.23
386.116	7.14
386.324	6.94
386.532	7.24
386.739	7.26
386.947	7.28
387.155	7.41
387.362	7.77
387.57	7.89
387.778	7.88
387.985	7.7
388.193	7.55
388.4	7.21
388.608	7.23
388.816	7.02
389.023	6.85
389.231	6.81
389.438	6.42
389.646	6.31
389.853	5.96
390.061	5.81
390.268	5.88
390.475	5.9
390.683	6.28
390.89	6.28
391.098	6.33
391.305	6.58
391.512	6.68
391.72	6.82
391.927	6.68
392.135	6.66
392.342	6.88
392.549	6.87
392.756	7.06
392.964	6.85
393.171	6.97
393.378	6.82
393.586	6.75
393.793	6.62
394	6.54
394.207	6.52
394.414	6.84
394.622	6.8
394.829	6.69
395.036	6.38
395.243	6.4
395.45	6.13
395.657	6.2
395.864	6.14
396.072	6.24
396.279	6.3
396.486	6.23
396.693	5.93
396.9	5.64
397.107	5.57
397.314	5.66
397.521	5.43
397.728	5.51
397.935	5.5
398.142	5.41
398.349	5.28
398.556	5.1
398.763	5.01
398.97	4.93
399.177	5.22
399.383	5.25
399.59	5.31
399.797	5.26
400.004	5.14
400.211	5.15
400.418	5.07
400.625	4.84
400.831	5.01
401.038	5.18
401.245	5.29
401.452	5.05
401.658	5.11
401.865	4.91
402.072	4.98
402.279	5.06
402.485	4.99
402.692	5
402.899	5.1
403.105	5.11
403.312	5.03
403.519	5.16
403.725	5.13
403.932	5.15
404.138	5.13
404.345	5.09
404.552	4.97
404.758	5.01
404.965	5.01
405.171	4.96
405.378	4.88
405.584	4.82
405.791	4.56
405.997	4.53
406.204	4.41
406.41	4.58
406.617	4.75
406.823	4.68
407.029	4.5
407.236	4.58
407.442	4.76
407.649	4.83
407.855	4.86
408.061	4.87
408.268	4.94
408.474	5.04
408.68	4.85
408.887	4.72
409.093	4.83
409.299	5.05
409.505	4.92
409.712	4.75
409.918	4.64
410.124	4.56
410.33	4.59
410.537	4.46
410.743	4.29
410.949	4.4
411.155	4.48
411.361	4.44
411.567	4.32
411.773	4.33
411.98	4.42
412.186	4.58
412.392	4.45
412.598	4.46
412.804	4.57
413.01	4.59
413.216	4.59
413.422	4.44
413.628	4.56
413.834	4.59
414.04	4.52
414.246	4.36
414.452	4.21
414.658	4.21
414.864	4.14
415.07	4.05
415.275	4.11
415.481	4.05
415.687	4
415.893	3.93
416.099	3.78
416.305	3.86
416.511	3.97
416.716	3.95
416.922	4.05
417.128	4.03
417.334	3.99
417.539	3.87
417.745	3.75
417.951	3.75
418.157	3.7
418.362	3.77
418.568	3.67
418.774	3.64
418.979	3.58
419.185	3.54
419.391	3.58
419.596	3.7
419.802	3.73
420.008	3.82
420.213	4.03
420.419	4.08
420.624	4.1
420.83	4.09
421.035	4.05
421.241	4.12
421.446	4.07
421.652	4.01
421.857	3.91
422.063	3.94
422.268	3.92
422.474	3.67
422.679	3.66
422.885	3.65
423.09	3.6
423.295	3.6
423.501	3.55
423.706	3.6
423.911	3.58
424.117	3.51
424.322	3.47
424.527	3.41
424.733	3.44
424.938	3.37
425.143	3.33
425.349	3.44
425.554	3.42
425.759	3.54
425.964	3.59
426.169	3.6
426.375	3.75
426.58	3.8
426.785	3.9
426.99	4.06
427.195	4.2
427.4	4.19
427.605	4.2
427.811	4.27
428.016	4.09
428.221	4.08
428.426	4.14
428.631	4.08
428.836	3.97
429.041	3.93
429.246	3.76
429.451	3.64
429.656	3.63
429.861	3.64
430.066	3.58
430.271	3.7
430.476	3.65
430.681	3.65
430.886	3.59
431.09	3.58
431.295	3.57
431.5	3.64
431.705	3.6
431.91	3.69
432.115	3.65
432.32	3.7
432.524	3.65
432.729	3.75
432.934	3.72
433.139	3.79
433.343	3.82
433.548	3.73
433.753	3.73
433.958	3.81
434.162	3.7
434.367	3.67
434.572	3.64
434.776	3.58
434.981	3.42
435.186	3.32
435.39	3.23
435.595	3.36
435.799	3.38
436.004	3.35
436.209	3.28
436.413	3.27
436.618	3.24
436.822	3.16
437.027	3.18
437.231	3.21
437.436	3.32
437.64	3.33
437.845	3.22
438.049	3.23
438.253	3.22
438.458	3.24
438.662	3.25
438.867	3.23
439.071	3.31
439.275	3.28
439.48	3.25
439.684	3.2
439.888	3.18
440.093	3.24
440.297	3.24
440.501	3.22
440.706	3.24
440.91	3.19
441.114	3.17
441.318	3.16
441.523	3.15
441.727	3.13
441.931	3.07
442.135	3.18
442.339	3.16
442.543	3.25
442.748	3.2
442.952	3.1
443.156	3.14
443.36	3.17
443.564	3.1
443.768	3.18
443.972	3.2
444.176	3.31
444.38	3.22
444.584	3.09
444.788	2.98
444.992	2.96
445.196	3.03
445.4	3
445.604	3.05
445.808	3.17
446.012	3.08
446.216	3.09
446.42	3.05
446.624	3.12
446.828	3.27
447.032	3.34
447.235	3.4
447.439	3.36
447.643	3.36
447.847	3.28
448.051	3.19
448.254	3.26
448.458	3.21
448.662	3.25
448.866	3.19
449.069	3.16
449.273	3.1
449.477	3.11
449.681	3.12
449.884	3.21
450.088	3.29
450.292	3.25
450.495	3.23
450.699	3.33
450.902	3.31
451.106	3.26
451.31	3.32
451.513	3.29
451.717	3.3
451.92	3.29
452.124	3.05
452.327	3.08
452.531	3.02
452.734	3.02
452.938	2.94
453.141	2.89
453.345	2.92
453.548	2.81
453.752	2.88
453.955	2.9
454.158	2.94
454.362	3.07
454.565	3.05
454.769	3.08
454.972	3.16
455.175	3.15
455.379	3.18
455.582	3.1
455.785	3.12
455.988	3.08
456.192	3.02
456.395	2.92
456.598	2.9
456.801	2.87
457.005	2.95
457.208	2.97
457.411	2.98
457.614	2.94
457.817	2.97
458.021	2.94
458.224	2.95
458.427	2.98
458.63	2.95
458.833	3
459.036	2.98
459.239	2.92
459.442	2.88
459.645	2.92
459.848	2.92
460.051	2.95
460.254	2.98
460.457	2.92
460.66	3.01
460.863	3.1
461.066	3.08
461.269	3.15
461.472	3.15
461.675	3.08
461.878	3
462.081	3.03
462.284	2.96
462.486	2.94
462.689	2.92
462.892	2.77
463.095	2.81
463.298	2.82
463.5	2.82
463.703	2.85
463.906	2.93
464.109	2.87
464.311	2.91
464.514	2.97
464.717	3.03
464.92	3.08
465.122	3.06
465.325	3.18
465.528	3.18
465.73	3.13
465.933	3.09
466.135	3.04
466.338	3.17
466.541	3.28
466.743	3.39
466.946	3.37
467.148	3.35
467.351	3.35
467.553	3.17
467.756	3.22
467.958	3.25
468.161	3.21
468.363	3.21
468.566	3.12
468.768	2.94
468.971	2.85
469.173	2.88
469.375	2.83
469.578	2.79
469.78	2.82
469.983	2.82
470.185	2.81
470.387	3.06
470.59	3.05
470.792	3.13
470.994	3.15
471.196	3.18
471.399	3.12
471.601	3.23
471.803	3.27
472.005	3.24
472.208	3.21
472.41	3.25
472.612	3.21
472.814	3.18
473.016	3.09
473.218	3.16
473.421	3.1
473.623	3.12
473.825	3.11
474.027	2.98
474.229	3.01
474.431	3
474.633	2.99
474.835	2.91
475.037	2.92
475.239	3.02
475.441	2.93
475.643	2.93
475.845	2.84
476.047	2.86
476.249	3.02
476.451	3.02
476.653	3.05
476.855	3.09
477.057	3.07
477.258	3.12
477.46	3.1
477.662	3.11
477.864	3.22
478.066	3.31
478.268	3.23
478.469	3.25
478.671	3.22
478.873	3.17
479.075	3.03
479.276	3.01
479.478	2.86
479.68	2.85
479.882	2.85
480.083	2.77
480.285	2.77
480.487	2.8
480.688	2.83
480.89	2.87
481.091	2.9
481.293	2.92
481.495	2.91
481.696	2.97
481.898	2.96
482.099	2.95
482.301	2.95
482.502	2.94
482.704	2.95
482.905	2.91
483.107	2.88
483.308	2.88
483.51	2.88
483.711	2.87
483.913	2.85
484.114	2.83
484.315	2.86
484.517	2.87
484.718	2.87
484.92	2.88
485.121	2.84
485.322	2.87
485.524	2.87
485.725	2.92
485.926	2.95
486.127	2.95
486.329	2.98
486.53	2.95
486.731	2.98
486.932	2.99
487.134	2.99
487.335	3.06
487.536	3.04
487.737	3.03
487.938	2.98
488.139	2.96
488.341	3.01
488.542	3
488.743	3
488.944	2.93
489.145	2.94
489.346	2.93
489.547	2.91
489.748	2.95
489.949	2.94
490.15	2.99
490.351	2.99
490.552	2.99
490.753	2.96
490.954	2.95
491.155	2.99
491.356	2.98
491.557	2.95
491.758	2.99
491.959	2.96
492.159	3.03
492.36	3.04
492.561	3.06
492.762	3.07
492.963	3.14
493.164	3.19
493.364	3.16
493.565	3.12
493.766	3.16
493.967	3.18
494.167	3.19
494.368	3.18
494.569	3.08
494.769	3.12
494.97	3.16
495.171	3.16
495.371	3.16
495.572	3.19
495.773	3.22
495.973	3.28
496.174	3.26
496.375	3.28
496.575	3.19
496.776	3.26
496.976	3.2
497.177	3.14
497.377	3.12
497.578	3.11
497.778	3.18
497.979	3.23
498.179	3.18
498.38	3.24
498.58	3.25
498.78	3.34
498.981	3.38
499.181	3.42
499.382	3.48
499.582	3.48
499.782	3.54
499.983	3.57
500.183	3.53
500.383	3.63
500.584	3.56
500.784	3.56
500.984	3.6
501.184	3.52
501.385	3.61
501.585	3.55
501.785	3.57
501.985	3.62
502.185	3.56
502.386	3.57
502.586	3.48
502.786	3.57
502.986	3.5
503.186	3.48
503.386	3.54
503.586	3.47
503.786	3.57
503.987	3.59
504.187	3.59
504.387	3.59
504.587	3.62
504.787	3.65
504.987	3.62
505.187	3.67
505.387	3.68
505.587	3.74
505.786	3.76
505.986	3.69
506.186	3.77
506.386	3.71
506.586	3.71
506.786	3.69
506.986	3.76
507.186	3.77
507.386	3.8
507.585	3.88
507.785	3.88
507.985	3.9
508.185	4.03
508.384	4.05
508.584	4.08
508.784	4.07
508.984	4.06
509.183	4.02
509.383	4.02
509.583	4.07
509.782	4.03
509.982	3.99
510.182	4.03
510.381	3.98
510.581	3.95
510.781	3.99
510.98	4.03
511.18	4.1
511.379	4.18
511.579	4.22
511.778	4.27
511.978	4.25
512.177	4.33
512.377	4.39
512.576	4.32
512.776	4.34
512.975	4.28
513.175	4.32
513.374	4.4
513.573	4.37
513.773	4.42
513.972	4.36
514.172	4.48
514.371	4.54
514.57	4.48
514.77	4.6
514.969	4.62
515.168	4.69
515.367	4.73
515.567	4.69
515.766	4.67
515.965	4.63
516.164	4.66
516.364	4.6
516.563	4.5
516.762	4.48
516.961	4.46
517.16	4.49
517.359	4.49
517.559	4.48
517.758	4.44
517.957	4.43
518.156	4.52
518.355	4.54
518.554	4.6
518.753	4.67
518.952	4.72
519.151	4.8
519.35	4.78
519.549	4.8
519.748	4.83
519.947	4.97
520.146	5.06
520.345	4.98
520.544	5.03
520.743	4.98
520.942	5
521.141	4.92
521.339	4.93
521.538	4.97
521.737	4.97
521.936	4.94
522.135	4.92
522.333	4.89
522.532	4.94
522.731	4.88
522.93	4.98
523.129	5.03
523.327	5.17
523.526	5.14
523.725	5.14
523.923	5.11
524.122	5.11
524.321	5.08
524.519	5.07
524.718	5.11
524.917	5.17
525.115	5.18
525.314	5.18
525.512	5.17
525.711	5.18
525.909	5.18
526.108	5.21
526.306	5.28
526.505	5.31
526.703	5.33
526.902	5.33
527.1	5.31
527.299	5.28
527.497	5.29
527.696	5.28
527.894	5.29
528.092	5.29
528.291	5.29
528.489	5.26
528.688	5.22
528.886	5.24
529.084	5.21
529.283	5.22
529.481	5.25
529.679	5.23
529.877	5.25
530.076	5.3
530.274	5.37
530.472	5.46
530.67	5.5
530.869	5.58
531.067	5.61
531.265	5.62
531.463	5.61
531.661	5.62
531.859	5.63
532.057	5.67
532.255	5.66
532.454	5.63
532.652	5.61
532.85	5.62
533.048	5.62
533.246	5.61
533.444	5.66
533.642	5.72
533.84	5.77
534.038	5.82
534.236	5.84
534.434	5.84
534.632	5.96
534.83	6.01
535.027	6.06
535.225	6.07
535.423	6.09
535.621	6.14
535.819	6.15
536.017	6.15
536.215	6.16
536.412	6.21
536.61	6.22
536.808	6.16
537.006	6.22
537.203	6.25
537.401	6.33
537.599	6.41
537.797	6.4
537.994	6.55
538.192	6.61
538.39	6.63
538.587	6.65
538.785	6.77
538.983	6.79
539.18	6.78
539.378	6.77
539.575	6.78
539.773	6.76
539.97	6.83
540.168	6.79
540.366	6.83
540.563	6.88
540.761	6.86
540.958	6.87
541.155	6.9
541.353	6.95
541.55	7.01
541.748	7.01
541.945	7.11
542.143	7.13
542.34	7.18
542.537	7.21
542.735	7.24
542.932	7.33
543.129	7.32
543.327	7.35
543.524	7.42
543.721	7.39
543.919	7.49
544.116	7.57
544.313	7.63
544.51	7.63
544.708	7.63
544.905	7.64
545.102	7.69
545.299	7.72
545.496	7.73
545.693	7.72
545.891	7.78
546.088	7.81
546.285	7.72
546.482	7.68
546.679	7.78
546.876	7.91
547.073	7.94
547.27	7.97
547.467	8.02
547.664	8.2
547.861	8.22
548.058	8.35
548.255	8.34
548.452	8.51
548.649	8.64
548.846	8.78
549.043	8.7
549.24	8.82
549.437	8.93
549.633	9.08
549.83	9.06
550.027	9.18
550.224	9.2
550.421	9.34
550.618	9.31
550.814	9.33
551.011	9.27
551.208	9.35
551.405	9.42
551.601	9.45
551.798	9.55
551.995	9.49
552.191	9.55
552.388	9.6
552.585	9.61
552.781	9.69
552.978	9.74
553.175	9.84
553.371	9.89
553.568	9.9
553.764	9.91
553.961	9.83
554.157	10.04
554.354	10.09
554.55	10.18
554.747	10.26
554.943	10.32
555.14	10.33
555.336	10.41
555.533	10.44
555.729	10.56
555.926	10.59
556.122	10.75
556.318	10.73
556.515	10.77
556.711	10.82
556.907	10.94
557.104	10.95
557.3	11.06
557.496	10.98
557.693	11.09
557.889	11.12
558.085	11.3
558.281	11.35
558.478	11.4
558.674	11.38
558.87	11.37
559.066	11.4
559.262	11.49
559.459	11.52
559.655	11.69
559.851	11.76
560.047	11.76
560.243	11.78
560.439	11.82
560.635	11.86
560.831	11.96
561.027	12
561.223	11.97
561.419	12.08
561.615	12.15
561.811	12.15
562.007	12.19
562.203	12.32
562.399	12.3
562.595	12.35
562.791	12.54
562.987	12.57
563.183	12.75
563.379	12.74
563.575	12.78
563.771	12.79
563.966	12.76
564.162	12.83
564.358	12.85
564.554	12.89
564.75	12.78
564.945	12.69
565.141	12.77
565.337	12.73
565.533	12.78
565.728	12.82
565.924	12.82
566.12	12.99
566.315	13.03
566.511	13.1
566.707	13.21
566.902	13.38
567.098	13.5
567.293	13.57
567.489	13.65
567.684	13.8
567.88	13.87
568.076	14
568.271	13.91
568.467	14
568.662	14.06
568.858	14
569.053	14
569.248	14
569.444	13.94
569.639	13.96
569.835	13.97
570.03	13.94
570.225	13.97
570.421	14.05
570.616	14.01
570.812	13.97
571.007	14.1
571.202	14.17
571.397	14.26
571.593	14.29
571.788	14.36
571.983	14.41
572.178	14.5
572.374	14.59
572.569	14.64
572.764	14.71
572.959	14.74
573.154	14.78
573.35	14.76
573.545	14.87
573.74	14.85
573.935	14.86
574.13	14.81
574.325	14.83
574.52	14.86
574.715	14.83
574.91	14.81
575.105	14.85
575.3	14.83
575.495	14.95
575.69	14.84
575.885	15.03
576.08	15.13
576.275	15.25
576.47	15.26
576.665	15.27
576.86	15.38
577.055	15.32
577.25	15.34
577.444	15.38
577.639	15.5
577.834	15.51
578.029	15.54
578.224	15.57
578.418	15.69
578.613	15.75
578.808	15.71
579.003	15.72
579.197	15.86
579.392	15.93
579.587	16
579.781	16.01
579.976	16.04
580.171	16.03
580.365	15.92
580.56	15.86
580.755	15.87
580.949	15.86
581.144	15.82
581.338	15.81
581.533	15.82
581.727	15.9
581.922	15.74
582.116	15.71
582.311	15.7
582.505	15.74
582.7	15.8
582.894	15.78
583.089	15.85
583.283	15.91
583.478	16.09
583.672	16.11
583.866	16.13
584.061	16.16
584.255	16.11
584.449	16.06
584.644	16.12
584.838	16.12
585.032	16.06
585.226	16.08
585.421	16.04
585.615	15.89
585.809	15.87
586.003	15.88
586.198	15.92
586.392	16.17
586.586	16.28
586.78	16.18
586.974	16.24
587.168	16.35
587.363	16.32
587.557	16.33
587.751	16.39
587.945	16.43
588.139	16.45
588.333	16.41
588.527	16.36
588.721	16.4
588.915	16.54
589.109	16.42
589.303	16.34
589.497	16.43
589.691	16.64
589.885	16.75
590.079	16.86
590.273	16.79
590.466	16.88
590.66	16.79
590.854	16.81
591.048	16.76
591.242	16.83
591.436	16.89
591.629	16.8
591.823	16.7
592.017	16.55
592.211	16.48
592.404	16.48
592.598	16.47
592.792	16.55
592.986	16.54
593.179	16.6
593.373	16.55
593.567	16.54
593.76	16.61
593.954	16.5
594.147	16.59
594.341	16.64
594.535	16.74
594.728	16.72
594.922	16.85
595.115	16.67
595.309	16.64
595.502	16.6
595.696	16.71
595.889	16.65
596.083	16.76
596.276	16.81
596.47	16.8
596.663	16.69
596.856	16.78
597.05	16.75
597.243	16.99
597.437	17.06
597.63	17.09
597.823	16.99
598.017	17.09
598.21	17.07
598.403	17.04
598.596	17.03
598.79	17.09
598.983	17.08
599.176	17.07
599.369	16.82
599.563	16.85
599.756	16.91
599.949	17
600.142	17.06
600.335	17.13
600.528	16.99
600.722	17.04
600.915	17.2
601.108	17.16
601.301	17.15
601.494	17.42
601.687	17.36
601.88	17.36
602.073	17.34
602.266	17.24
602.459	17.2
602.652	17.27
602.845	17.34
603.038	17.22
603.231	17.2
603.424	17.26
603.617	17.19
603.809	17.18
604.002	17.2
604.195	17.23
604.388	17.36
604.581	17.44
604.774	17.56
604.966	17.42
605.159	17.39
605.352	17.38
605.545	17.29
605.737	17.37
605.93	17.38
606.123	17.46
606.316	17.5
606.508	17.48
606.701	17.29
606.894	17.16
607.086	17.38
607.279	17.27
607.471	17.39
607.664	17.44
607.857	17.44
608.049	17.4
608.242	17.29
608.434	17.37
608.627	17.28
608.819	17.19
609.012	17.25
609.204	17.19
609.397	17.26
609.589	17.23
609.782	17.25
609.974	17.16
610.166	17.24
610.359	17.37
610.551	17.29
610.743	17.28
610.936	17.58
611.128	17.61
611.32	17.54
611.513	17.75
611.705	17.67
611.897	17.54
612.09	17.51
612.282	17.63
612.474	17.43
612.666	17.47
612.858	17.47
613.051	17.38
613.243	17.37
613.435	17.4
613.627	17.51
613.819	17.56
614.011	18.01
614.203	18.13
614.395	18.22
614.588	18.3
614.78	18.13
614.972	18.09
615.164	17.97
615.356	17.89
615.548	18.04
615.74	17.95
615.932	17.84
616.124	17.3
616.315	17.37
616.507	17.34
616.699	17.56
616.891	17.67
617.083	17.76
617.275	17.93
617.467	17.99
617.659	17.79
617.85	17.66
618.042	18.02
618.234	18.22
618.426	18.1
618.618	17.82
618.809	17.7
619.001	17.72
619.193	17.81
619.384	17.7
619.576	17.79
619.768	17.77
619.959	17.82
620.151	17.7
620.343	17.54
620.534	17.48
620.726	17.68
620.917	17.71
621.109	17.68
621.301	17.59
621.492	17.73
621.684	17.42
621.875	17.46
622.067	17.45
622.258	17.2
622.45	17.4
622.641	17.4
622.832	17.33
623.024	17.29
623.215	17.35
623.407	17.3
623.598	17.34
623.789	17.67
623.981	17.69
624.172	17.73
624.363	17.93
624.555	17.82
624.746	17.78
624.937	17.87
625.129	17.81
625.32	17.74
625.511	17.87
625.702	17.72
625.893	17.55
626.085	17.55
626.276	17.45
626.467	17.4
626.658	17.3
626.849	17.37
627.04	17.28
627.231	17.45
627.422	17.44
627.614	17.3
627.805	17.3
627.996	17.42
628.187	17.38
628.378	17.39
628.569	17.46
628.76	17.48
628.951	17.49
629.142	17.46
629.332	17.23
629.523	17.28
629.714	17.38
629.905	17.5
630.096	17.53
630.287	17.6
630.478	17.64
630.669	17.52
630.859	17.76
631.05	17.68
631.241	17.73
631.432	17.76
631.623	17.61
631.813	17.66
632.004	17.6
632.195	17.46
632.385	17.54
632.576	17.56
632.767	17.56
632.957	17.55
633.148	17.8
633.339	17.83
633.529	17.88
633.72	17.8
633.91	17.65
634.101	17.56
634.292	17.6
634.482	17.49
634.673	17.56
634.863	17.51
635.054	17.38
635.244	17.32
635.435	17.23
635.625	17.18
635.815	17.35
636.006	17.41
636.196	17.35
636.387	17.33
636.577	17.4
636.767	17.23
636.958	17.46
637.148	17.47
637.338	17.24
637.529	17.23
637.719	17.25
637.909	17.45
638.099	17.73
638.29	18.05
638.48	18.02
638.67	18.05
638.86	18.19
639.05	17.95
639.241	18.16
639.431	18.36
639.621	18.46
639.811	18.62
640.001	18.45
640.191	18.33
640.381	18.09
640.571	18.07
640.761	17.85
640.951	17.67
641.141	17.77
641.331	17.55
641.521	17.59
641.711	17.51
641.901	17.34
642.091	17.4
642.281	17.23
642.471	17.26
642.661	17.29
642.851	17.41
643.041	17.59
643.231	17.66
643.42	17.7
643.61	17.8
643.8	17.82
643.99	18.02
644.18	17.88
644.369	17.79
644.559	17.9
644.749	18.01
644.939	18.02
645.128	18.06
645.318	17.86
645.508	17.81
645.697	17.71
645.887	17.84
646.076	17.61
646.266	17.68
646.456	17.93
646.645	17.97
646.835	17.78
647.024	18.03
647.214	18
647.403	18
647.593	18.11
647.782	18
647.972	18
648.161	18.08
648.351	18.16
648.54	17.92
648.73	17.93
648.919	18.06
649.108	17.91
649.298	18.19
649.487	18.32
649.677	18.53
649.866	18.39
650.055	18.23
650.244	18.33
650.434	18.38
650.623	18.58
650.812	18.39
651.002	18.44
651.191	18.43
651.38	18.05
651.569	18.04
651.758	17.71
651.947	17.97
652.137	18.03
652.326	17.93
652.515	17.83
652.704	17.79
652.893	17.82
653.082	17.71
653.271	17.52
653.46	17.55
653.649	17.53
653.838	17.7
654.027	17.43
654.216	17.34
654.405	17.16
654.594	17.22
654.783	17.07
654.972	17.16
655.161	17.28
655.35	17.41
655.539	17.59
655.728	17.75
655.916	17.89
656.105	18.08
656.294	18.26
656.483	18.4
656.672	18.31
656.86	18.45
657.049	18.38
657.238	18.39
657.427	18.49
657.615	18.37
657.804	18.21
657.993	18.09
658.181	17.92
658.37	17.89
658.559	18.06
658.747	18.26
658.936	18.25
659.125	18.67
659.313	18.57
659.502	18.59
659.69	18.5
659.879	18.55
660.067	18.58
660.256	18.66
660.444	18.71
660.633	18.49
660.821	18.43
661.01	18.55
661.198	18.15
661.387	18.19
661.575	18
661.763	18.27
661.952	18.32
662.14	18.2
662.328	18.1
662.517	18.06
662.705	18.13
662.893	17.91
663.082	17.85
663.27	17.8
663.458	17.97
663.646	18.02
663.834	17.9
664.023	17.89
664.211	17.95
664.399	18.21
664.587	18.19
664.775	18.24
664.963	18.54
665.152	18.5
665.34	18.63
665.528	18.42
665.716	18.52
665.904	18.63
666.092	18.59
666.28	18.82
666.468	18.74
666.656	18.77
666.844	19.06
667.032	18.97
667.22	19.44
667.408	19.26
667.596	19.26
667.784	19.11
667.971	19.18
668.159	19.22
668.347	19.1
668.535	18.91
668.723	18.83
668.911	18.58
669.098	18.27
669.286	17.78
669.474	17.65
669.662	17.95
669.849	18.05
670.037	17.95
670.225	18.01
670.413	17.97
670.6	18.11
670.788	18.24
670.976	18.33
671.163	18.53
671.351	18.4
671.538	18.83
671.726	18.76
671.913	18.78
672.101	18.82
672.289	18.58
672.476	18.57
672.664	18.76
672.851	18.85
673.039	18.74
673.226	18.83
673.413	18.92
673.601	18.66
673.788	18.79
673.976	18.82
674.163	18.93
674.35	19.27
674.538	19.37
674.725	19.58
674.912	19.22
675.1	19.13
675.287	19.02
675.474	18.93
675.662	18.97
675.849	18.91
676.036	18.76
676.223	18.47
676.411	18.25
676.598	17.95
676.785	18.02
676.972	18.43
677.159	18.49
677.346	18.5
677.533	18.78
677.721	18.74
677.908	18.51
678.095	18.68
678.282	18.9
678.469	19.13
678.656	19.3
678.843	18.96
679.03	18.69
679.217	18.83
679.404	18.86
679.591	18.61
679.778	18.71
679.964	18.82
680.151	18.51
680.338	18.39
680.525	18.2
680.712	18.35
680.899	18.28
681.086	18.53
681.272	18.48
681.459	18.61
681.646	18.67
681.833	18.72
682.02	18.82
682.206	19.33
682.393	19.75
682.58	19.82
682.766	19.63
682.953	19.77
683.14	19.9
683.326	20.02
683.513	19.78
683.7	19.71
683.886	19.6
684.073	19.5
684.259	19.12
684.446	18.8
684.632	18.85
684.819	18.76
685.005	18.7
685.192	18.31
685.378	18.13
685.565	18.45
685.751	18.6
685.938	18.63
686.124	18.45
686.31	18.75
686.497	18.73
686.683	18.79
686.87	18.63
687.056	18.56
687.242	18.5
687.429	18.87
687.615	18.69
687.801	18.53
687.987	18.31
688.174	18.57
688.36	18.21
688.546	18.29
688.732	18.26
688.918	18.61
689.105	18.61
689.291	18.63
689.477	18.22
689.663	18.27
689.849	18.15
690.035	18.36
690.221	18.16
690.407	18.61
690.593	18.1
690.779	17.98
690.965	18.22
691.151	18.75
691.337	18.98
691.523	19.22
691.709	19.01
691.895	19.56
692.081	19.62
692.267	19.54
692.453	19.27
692.639	19.57
692.825	19.62
693.011	19.2
693.196	18.8
693.382	18.21
693.568	17.96
693.754	18.2
693.94	18.12
694.125	17.79
694.311	18.05
694.497	17.69
694.682	17.83
694.868	17.82
695.054	17.85
695.239	17.76
695.425	18.12
695.611	18.28
695.796	18.17
695.982	18.17
696.168	18.28
696.353	18.15
696.539	18.51
696.724	18.4
696.91	18.38
697.095	18.47
697.281	18.3
697.466	18.58
697.652	18.52
697.837	18.54
698.023	18.54
698.208	18.3
698.393	18.27
698.579	18.24
698.764	18.15
698.949	18.01
699.135	18.08
699.32	18.16
699.505	17.97
699.691	17.55
699.876	17.5
700.061	17.47
700.246	17.8
700.432	17.96
700.617	18.03
700.802	18.34
700.987	18.49
701.172	18.12
701.358	17.97
701.543	18.17
701.728	18.7
701.913	19
702.098	18.77
702.283	19.06
702.468	19.35
702.653	19.31
702.838	19.63
703.023	19.75
703.208	19.95
703.393	20.54
703.578	20.15
703.763	20.36
703.948	19.77
704.133	20.11
704.318	19.77
704.503	19.66
704.688	19.61
704.873	18.87
705.057	18.81
705.242	18.71
705.427	18.28
705.612	18.27
705.797	18.16
705.981	18.94
706.166	18.9
706.351	18.98
706.536	19.01
706.72	18.92
706.905	19.25
707.09	19.37
707.274	19.72
707.459	19.96
707.644	19.89
707.828	19.51
708.013	19.33
708.197	19.14
708.382	19.03
708.567	19.01
708.751	18.9
708.936	18.82
709.12	18.9
709.305	18.56
709.489	18.69
709.673	19.18
709.858	19.28
710.042	19.24
710.227	19.27
710.411	19.18
710.596	18.95
710.78	19
710.964	19.02
711.149	19.06
711.333	19.26
711.517	19.06
711.702	18.65
711.886	18.67
712.07	18.53
712.254	18.63
712.438	18.93
712.623	19.09
712.807	19.14
712.991	19.11
713.175	19.27
713.359	19.27
713.544	19.34
713.728	19.45
713.912	19.37
714.096	19.07
714.28	18.64
714.464	18.65
714.648	18.38
714.832	18.4
715.016	18.21
715.2	17.7
715.384	17.42
715.568	17.74
715.752	17.94
715.936	18.35
716.12	18.39
716.304	18.89
716.488	18.59
716.671	18.81
716.855	19.13
717.039	19.49
717.223	19.52
717.407	19.74
717.59	19.51
717.774	19.36
717.958	19.41
718.142	19.49
718.325	19.59
718.509	19.65
718.693	19.67
718.877	19.05
719.06	18.73
719.244	18.84
719.428	18.73
719.611	18.41
719.795	18.05
719.978	17.71
720.162	17.84
720.345	17.54
720.529	17.8
720.713	17.92
720.896	18.13
721.08	18.06
721.263	18.34
721.446	18.57
721.63	18.78
721.813	18.72
721.997	18.73
722.18	19.14
722.364	19.09
722.547	18.57
722.73	17.82
722.914	17.89
723.097	18.27
723.28	18.07
723.464	18.02
723.647	17.98
723.83	18.3
724.013	18.25
724.197	17.78
724.38	18.01
724.563	18.27
724.746	19.2
724.929	19.36
725.112	19.06
725.296	18.88
725.479	18.85
725.662	19.14
725.845	19.35
726.028	19.1
726.211	19.13
726.394	18.97
726.577	19.15
726.76	18.73
726.943	18.43
727.126	18.81
727.309	18.84
727.492	18.86
727.675	18.2
727.858	17.85
728.041	18.33
728.224	18.65
728.407	18.77
728.589	18.59
728.772	18.97
728.955	19.32
729.138	18.8
729.321	19.22
729.503	19.22
729.686	19.57
729.869	19.62
730.052	19.67
730.234	19.6
730.417	19.47
730.6	19.57
730.782	19.12
730.965	18.85
731.148	19.16
731.33	18.98
731.513	19.01
731.695	19.03
731.878	19.34
732.061	19.06
732.243	18.73
732.426	18.72
732.608	19.03
732.791	19.02
732.973	18.89
733.156	18.61
733.338	18.36
733.52	18.65
733.703	18.55
733.885	18.31
734.068	18.3
734.25	18.57
734.432	18.86
734.615	18.49
734.797	18.15
734.979	18.15
735.162	18.57
735.344	18.52
735.526	17.77
735.708	18
735.891	18.1
736.073	17.8
736.255	17.76
736.437	17.05
736.619	17.12
736.802	17.37
736.984	17.72
737.166	17.53
737.348	17.65
737.53	18.53
737.712	18.06
737.894	18.58
738.076	19.1
738.258	19.3
738.44	19.35
738.622	19.49
738.804	19.76
738.986	20.05
739.168	19.82
739.35	20.33
739.532	19.88
739.714	20.64
739.896	20.03
740.078	19.87
740.259	19.17
740.441	19.46
740.623	18.88
740.805	18.95
740.987	18.6
741.168	18.78
741.35	18.73
741.532	18.44
741.714	17.76
741.895	17.16
742.077	17.93
742.259	18.81
742.44	18.34
742.622	18.69
742.804	18.67
742.985	18.56
743.167	18.86
743.348	18.55
743.53	18.32
743.711	18.85
743.893	19.53
744.075	18.65
744.256	18.27
744.438	19.04
744.619	19.35
744.8	19.06
744.982	18.57
745.163	18.25
745.345	18.4
745.526	19.4
745.707	19.7
745.889	19.91
746.07	20.09
746.252	20.09
746.433	19.71
746.614	19.48
746.795	19.7
746.977	20.59
747.158	20.6
747.339	20.68
747.52	20.77
747.702	20.13
747.883	19.99
748.064	20.1
748.245	20.43
748.426	20.89
748.607	20.13
748.788	20.47
748.97	20.51
749.151	20.51
749.332	20.37
749.513	20.08
749.694	20.12
749.875	20.17
750.056	20.21
750.237	20.05
750.418	20.14
750.599	20.75
750.78	20.65
750.96	20.35
751.141	21.04
751.322	20.64
751.503	20.02
751.684	20.74
751.865	19.92
752.046	19.42
752.226	19.66
752.407	19.33
752.588	19.82
752.769	19.58
752.949	19.54
753.13	18.79
753.311	18.86
753.492	19.29
753.672	18.98
753.853	19.95
754.034	20
754.214	20.37
754.395	20.01
754.575	20.21
754.756	20.16
754.937	20.27
755.117	20.46
755.298	20.5
755.478	20.17
755.659	19.81
755.839	19.77
756.02	20.28
756.2	19.86
756.381	19.63
756.561	19.07
756.741	18.56
756.922	18.65
757.102	19.23
757.283	19.87
757.463	20.07
757.643	20.1
757.823	19.55
758.004	19.31
758.184	19.36
758.364	20.25
758.545	20.62
758.725	21.65
758.905	21.54
759.085	21.75
759.265	21.21
759.446	21.47
759.626	20.98
759.806	21.54
759.986	21.72
760.166	21.49
760.346	20.94
760.526	20.64
760.706	20.33
760.886	20.52
761.066	19.79
761.246	19.95
761.426	19.87
761.606	20
761.786	19.92
761.966	19.68
762.146	19.52
762.326	19.61
762.506	19.45
762.686	19.45
762.866	19.35
763.046	19.19
763.225	18.55
763.405	18.56
763.585	18.4
763.765	17.96
763.945	17.73
764.124	18.06
764.304	18.47
764.484	19.12
764.664	18.72
764.843	18.28
765.023	18.86
765.203	19.82
765.382	19.36
765.562	20.31
765.741	20.15
765.921	20.65
766.101	19.9
766.28	19.53
766.46	19.12
766.639	19.69
766.819	19.72
766.998	19.34
767.178	18.33
767.357	18.65
767.537	17.9
767.716	18.3
767.896	18.09
768.075	19.26
768.254	18.47
768.434	18.33
768.613	18.48
768.792	18.45
768.972	18.64
769.151	19.4
769.33	19.55
769.51	20.32
769.689	20.79
769.868	21.14
770.047	20.57
770.226	20.51
770.406	20.82
770.585	20.56
770.764	20.79
770.943	20.85
771.122	20.87
771.301	21.1
771.48	20.89
771.66	20.53
771.839	19.91
772.018	19.6
772.197	20.44
772.376	19.76
772.555	19.23
772.734	19.48
772.913	19.84
773.092	20.7
773.271	20.59
773.449	20.19
773.628	19.79
773.807	19.89
773.986	19.68
774.165	19.86
774.344	20.15
774.523	20.18
774.701	20.35
774.88	19.54
775.059	18.73
775.238	19.12
775.417	19.54
775.595	20.39
775.774	20.29
775.953	20.32
776.131	19.91
776.31	19.72
776.489	19.96
776.667	19.43
776.846	19.28
777.025	19.57
777.203	18.1
777.382	18.36
777.56	17.41
777.739	17.84
777.917	18.3
778.096	19.47
778.274	18.88
778.453	18.73
778.631	19.07
778.81	19.37
778.988	19.49
779.166	20.24
779.345	19.76
779.523	20.59
779.702	20.36
779.88	20.05
780.058	18.86
780.237	20.98
780.415	20.89
780.593	21.48
780.771	21.99
780.95	21.65
781.128	21.93
781.306	21.91
781.484	22.26
781.662	22.19
781.841	22.79
782.019	23.13
782.197	21.04
782.375	21.63
782.553	21.46
782.731	20.47
782.909	20.1
783.087	20.77
783.265	20.93
783.443	20.56
783.621	20.25
783.799	19.84
783.977	20.27
784.155	20.55
784.333	20.92
784.511	20.82
784.689	21.65
784.867	21.87
785.045	20.96
785.223	21.2
785.4	20.16
785.578	21.12
785.756	21.95
785.934	21.62
786.112	22.21
786.289	20.23
786.467	19.38
786.645	19.06
786.823	20.28
787	20.36
787.178	19.85
787.356	20.62
787.533	20.27
787.711	20.3
787.889	20.34
788.066	20.64
788.244	22.43
788.421	23.68
788.599	23.81
788.776	23.03
788.954	23.29
789.131	23.1
789.309	23.32
789.486	23.64
789.664	22.97
789.841	23.29
790.019	23.86
790.196	22.77
790.373	22.02
790.551	22.83
790.728	22.12
790.906	21.59
791.083	21.85
791.26	22.01
791.437	21.54
791.615	20.97
791.792	20.26
791.969	19.21
792.146	20.1
792.324	19.58
792.501	19.61
792.678	20.11
792.855	21.18
793.032	21.55
793.209	20.58
793.387	21.49
793.564	21.72
793.741	21.91
793.918	21.86
794.095	21.45
794.272	20.62
794.449	19.69
794.626	20.52
794.803	20.57
794.98	19.23
795.157	19.26
795.334	19.21
795.511	19.65
795.688	19.71
795.864	19.9
796.041	20.11
796.218	22.45
796.395	23.07
796.572	22.36
796.749	22.31
796.925	23.54
797.102	24.35
797.279	23.11
797.456	22.42
797.632	22.45
797.809	22.56
797.986	22.13
798.162	20.62
798.339	19.73
798.516	20.05
798.692	19.59
798.869	19.43
799.046	19.38
799.222	19.89
799.399	20.53
799.575	20.73
799.752	21.02
799.928	21.75
800.105	21.99
800.281	22.29
800.458	22.2
800.634	21.87
800.811	21.21
800.987	21.23
801.163	21.71
801.34	21.48
801.516	21.88
801.692	22.33
801.869	21.39
802.045	20.46
802.221	20.88
802.398	19.85
802.574	21.07
802.75	23.31
802.926	23.65
803.103	23.04
803.279	22.56
803.455	21.52
803.631	20.39
803.807	21.46
803.983	24.12
804.16	23.28
804.336	23.84
804.512	22.77
804.688	21.78
804.864	21.23
805.04	21.5
805.216	22.82
805.392	23.58
805.568	23.8
805.744	22.53
805.92	21.31
806.096	21.32
806.272	21.3
806.448	22.69
806.623	21.81
806.799	22.37
806.975	21.95
807.151	21.98
807.327	21.31
807.503	21.8
807.678	22.8
807.854	23.02
808.03	23
808.206	23.01
808.381	21.53
808.557	21.81
808.733	20.9
808.908	22.29
809.084	21.53
809.26	21.89
809.435	22.4
809.611	21.99
809.787	21.86
809.962	22.2
810.138	22.23
810.313	22.38
810.489	22.7
810.664	22.19
810.84	20.62
811.015	21.59
811.191	23.43
811.366	23.69
811.542	24.06
811.717	23.66
811.892	24.66
812.068	24.27
812.243	24.26
812.419	23.91
812.594	25.04
812.769	26.02
812.944	25.46
813.12	23.65
813.295	23.36
813.47	22.6
813.645	23.67
813.821	21.46
813.996	22.98
814.171	23.01
814.346	23.25
814.521	23.84
814.697	23.88
814.872	23.86
815.047	23.73
815.222	23.62
815.397	24.35
815.572	23.61
815.747	24.23
815.922	24.02
816.097	24.01
816.272	24.84
816.447	23.94
816.622	23.17
816.797	23.16
816.972	22.02
817.147	21.09
817.322	21.06
817.496	21.84
817.671	23.11
817.846	22.07
818.021	22.04
818.196	20.69
818.371	21.17
818.545	21.67
818.72	21.12
818.895	22.45
819.069	21.41
819.244	21.42
819.419	20.71
819.594	20.42
819.768	19.99
819.943	19.68
820.117	19.81
820.292	19.85
820.467	19.57
820.641	19.34
820.816	19.09
820.99	19.4
821.165	19.47
821.339	19.2
821.514	19.04
821.688	19.07
821.863	19.08
822.037	18.94
822.212	18.73
822.386	18.52
822.56	18.45
822.735	18.36
822.909	18.25
823.084	18.14
823.258	18.19
823.432	18.08
823.606	18.04
823.781	18.07
823.955	18
824.129	18.03
824.303	18.42
824.478	18.5
824.652	18.28
824.826	18.58
825	18.89
825.174	19.02
825.348	18.92
825.523	19.16
825.697	19.1
825.871	19.21
826.045	19.19
826.219	18.94
826.393	18.67
826.567	19.27
826.741	19.34
826.915	18.78
827.089	18.97
827.263	19.19
827.437	19.08
827.611	19.19
827.784	19.62
827.958	20.04
828.132	19.95
828.306	20.49
828.48	20.24
828.654	20.46
828.827	20.83
829.001	21
829.175	21.42
829.349	21.75
829.522	22.46
829.696	22.22
829.87	22.31
830.044	22.54
830.217	23.39
830.391	23.42
830.565	22.78
830.738	22.91
830.912	22.18
831.085	21.69
831.259	22.31
831.432	21.53
831.606	22.23
831.779	21.43
831.953	21.73
832.126	21.02
832.3	21.05
832.473	21.15
832.647	21.49
832.82	21.31
832.994	21.31
833.167	20.67
833.34	20.57
833.514	20.22
833.687	19.53
833.86	19.48
834.034	19.96
834.207	20.55
834.38	20.7
834.553	19.9
834.727	20.37
834.9	19.85
835.073	19.04
835.246	18.87
835.419	18.52
835.593	19.08
835.766	19.33
835.939	19.3
836.112	18.7
836.285	19.15
836.458	20.27
836.631	19.44
836.804	21.29
836.977	21.7
837.15	22.24
837.323	22.99
837.496	22.43
837.669	23.43
837.842	23.75
838.015	25.34
838.188	24.43
838.361	22.44
838.533	23.5
838.706	21.31
838.879	23.01
839.052	22.67
839.225	22.49
839.398	24.02
839.57	23.9
839.743	23.25
839.916	21.89
840.088	22.72
840.261	25.01
840.434	24.84
840.607	26.07
840.779	26.96
840.952	26.43
841.124	27.34
841.297	26.75
841.47	26.68
841.642	27.49
841.815	29.52
841.987	29.18
842.16	27.23
842.332	28.29
842.505	28.04
842.677	27.4
842.85	28.14
843.022	27.79
843.194	29.25
843.367	30.86
843.539	29.88
843.712	27.71
843.884	26.71
844.056	28.79
844.229	30.68
844.401	33.63
844.573	29.2
844.745	31.21
844.918	30.63
845.09	30.77
845.262	27.03
845.434	24.77
845.606	22.58
845.779	23.07
845.951	23.05
846.123	20.31
846.295	17.73
846.467	23.42
846.639	21.63
846.811	23.1
846.983	19.66
847.155	21.02
847.327	22.53
847.499	25.95
847.671	28.06
847.843	27.92
848.015	27.71
848.187	28.61
848.359	26.87
848.531	26.06
848.703	25.39
848.875	27.68
849.047	26.22
849.218	28.65
849.39	29.53
849.562	24.41
849.734	24.98
849.905	26.42
850.077	27.54
850.249	28.66
850.421	28.53
850.592	26.99
850.764	27.02
850.936	29.43
851.107	31.49
851.279	32.27
851.451	41.17
851.622	42.98
851.794	43.22
851.965	45.95
852.137	43.36
852.308	43.98
852.48	42.63
852.651	42.16
852.823	39.42
852.994	37.61
853.166	33.78
853.337	30.16
853.509	31.32
853.68	32.02
853.851	29.43
854.023	29.04
854.194	28.65
854.365	31.7
854.537	31.45
854.708	36.25
854.879	34.4
855.05	35.6
855.222	35.25
855.393	31.9
855.564	29.59
855.735	26.29
855.906	28.42
856.078	29.44
856.249	29.61
856.42	30.71
856.591	30.36
856.762	30.91
856.933	28.89
857.104	26.64
857.275	31.5
857.446	32.31
857.617	33.53
857.788	33.72
857.959	35.44
858.13	37.13
858.301	36.36
858.472	29.45
858.643	31.87
858.814	35.96
858.985	40.59
859.155	33.99
859.326	33.7
859.497	32.11
859.668	29.74
859.839	26.05
860.009	19.83
860.18	20.05
860.351	23.82
860.522	21.08
860.692	17.08
860.863	13.8
861.034	21.85
861.204	21.79
861.375	25.97
861.546	32.18
861.716	34.87
861.887	37.93
862.057	36.62
862.228	33.74
862.398	35.32
862.569	35.11
862.739	39.24
862.91	31.64
863.08	33.26
863.251	34.51
863.421	33.27
863.592	35.42
863.762	36.36
863.932	34.98
864.103	37.7
864.273	35.56
864.443	40.9
864.614	37.63
864.784	39.1
864.954	36.97
865.125	36.38
865.295	32.32
865.465	33.61
865.635	33.16
865.805	37.51
865.976	35.31
866.146	37.11
866.316	33.93
866.486	35.9
866.656	35.05
866.826	31.8
866.996	33.48
867.166	36.03
867.336	34.14
867.506	34.07
867.676	34.46
867.846	38.03
868.016	37.21
868.186	36.92
868.356	35.07
868.526	34.48
868.696	36.93
868.866	36.01
869.036	32.87
869.206	31.33
869.376	33.14
869.545	32.82
869.715	32.19
869.885	29.14
870.055	34.62
870.224	35.39
870.394	33.11
870.564	37.96
870.734	35.23
870.903	33.46
871.073	29.79
871.243	26.65
871.412	27.53
871.582	26.44
871.751	26.67
871.921	24.62
872.091	23.29
872.26	27.09
872.43	23.76
872.599	25.7
872.769	30.25
872.938	33.67
873.108	33.77
873.277	33.38
873.446	34.19
873.616	36.36
873.785	35.17
873.955	36.45
874.124	35.03
874.293	34.81
874.463	32.8
874.632	35.51
874.801	39.12
874.971	41.38
875.14	38.46
875.309	36.48
875.478	36.19
875.647	35.27
875.817	32.31
875.986	32.58
876.155	30.69
876.324	30.48
876.493	28.03
876.662	28.67
876.831	28.23
877	28.11
877.17	27.57
877.339	27.8
877.508	25.06
877.677	27.69
877.846	27.13
878.015	30.93
878.184	29.56
878.352	29.25
878.521	23.83
878.69	24.8
878.859	27.06
879.028	28.38
879.197	28.77
879.366	30.73
879.534	28.36
879.703	26.21
879.872	25.61
880.041	26.62
880.21	24.4
880.378	26.51
880.547	25.27
880.716	24.88
880.884	25.26
881.053	24.18
881.222	23.96
881.39	23.61
881.559	24.48
881.727	22.8
881.896	22.23
882.065	23.05
882.233	22.33
882.402	20.97
882.57	20.66
882.739	20.15
882.907	20.78
883.076	20.16
883.244	20.19
883.412	19.83
883.581	20.66
883.749	20.52
883.918	20.12
884.086	20.17
884.254	23.06
884.423	23.89
884.591	24.4
884.759	24.35
884.927	24.53
885.096	25.43
885.264	26.41
885.432	26.79
885.6	26.22
885.769	25.87
885.937	25.27
886.105	22.74
886.273	21.13
886.441	20.37
886.609	21.32
886.777	21.86
886.945	21.92
887.113	21.58
887.281	21.02
887.449	25.36
887.617	25.2
887.785	25.98
887.953	28.85
888.121	29.68
888.289	31.04
888.457	30.12
888.625	29.2
888.793	30.79
888.961	30.2
889.129	38.56
889.296	38.83
889.464	43.66
889.632	46.6
889.8	45.76
889.967	48.66
890.135	47.43
