Data from 2938467_Reflection_1.txt Node
Date: Wed Jun 17 13:45:17 EDT 2015
User: robert
Spectrometer: USB4E03002
Autoset integration time: false
Trigger mode: 4
Integration Time (sec): 1.000000E-1
Scans to average: 10
Electric dark correction enabled: true
Nonlinearity correction enabled: false
Boxcar width: 5
Stray light correction enabled: false
XAxis mode: Wavelengths
Stop averaging: false
Number of Pixels in Spectrum: 3648
>>>>>Begin Spectral Data<<<<<
177.575	-23.07
177.794	-130.97
178.014	-3.07
178.233	-0.14
178.452	0.48
178.672	-150.29
178.891	35.94
179.11	43.03
179.33	321.35
179.549	-2093.83
179.768	-90.44
179.987	-92.45
180.207	-569.1
180.426	-76.86
180.645	37.52
180.864	32.03
181.084	10.45
181.303	30.19
181.522	37.64
181.741	41.19
181.96	12.8
182.179	33.15
182.398	10
182.618	52.23
182.837	94.79
183.056	331.5
183.275	290.36
183.494	349.55
183.713	311.6
183.932	1790.75
184.151	465.54
184.37	213.58
184.589	151.28
184.808	121.25
185.027	140.67
185.246	76.44
185.465	99.62
185.684	90.11
185.903	99.53
186.122	48.24
186.341	70.35
186.56	90.44
186.779	143.49
186.998	134.84
187.216	132.91
187.435	125.54
187.654	128.24
187.873	113.95
188.092	125.56
188.311	105.41
188.53	107.19
188.748	109.8
188.967	128.85
189.186	134.02
189.405	153.4
189.623	76.45
189.842	49.46
190.061	158.8
190.28	60.48
190.498	123.33
190.717	242.51
190.936	194.78
191.154	197.82
191.373	207.52
191.592	1040.46
191.81	-64.43
192.029	277.96
192.248	-228.71
192.466	-86.37
192.685	1.52
192.904	-3.82
193.122	-13.91
193.341	26.62
193.559	78.43
193.778	56.06
193.996	49.79
194.215	52.38
194.433	31.82
194.652	64.53
194.87	63.14
195.089	78.85
195.307	72.97
195.526	144.97
195.744	131.06
195.963	38.81
196.181	44.55
196.399	62
196.618	56.93
196.836	67.73
197.055	56.63
197.273	53.1
197.491	77.51
197.71	97.55
197.928	81.12
198.146	58.36
198.365	63.06
198.583	71.72
198.801	65.21
199.019	42.04
199.238	49.6
199.456	60.07
199.674	52.77
199.892	28.48
200.111	8.04
200.329	4.84
200.547	49.9
200.765	47
200.983	34.48
201.202	53.95
201.42	82.16
201.638	68.32
201.856	62.72
202.074	71.37
202.292	62.68
202.51	43.98
202.728	43.76
202.946	49.59
203.165	29.81
203.383	36.17
203.601	46.94
203.819	63.81
204.037	68.05
204.255	51.13
204.473	60.48
204.691	84.45
204.909	101.83
205.127	94.23
205.345	72.66
205.562	106.53
205.78	128.31
205.998	123.85
206.216	109.27
206.434	99.34
206.652	100.98
206.87	93.3
207.088	80.88
207.306	77.57
207.523	77.19
207.741	91.71
207.959	96.97
208.177	85.22
208.395	77.11
208.612	73.22
208.83	88.34
209.048	86.95
209.266	87.55
209.483	98.05
209.701	89.29
209.919	80.69
210.136	83.08
210.354	61.59
210.572	58.44
210.79	58.56
211.007	68.3
211.225	65.18
211.442	72.58
211.66	65.96
211.878	61.1
212.095	70.25
212.313	64.02
212.53	58.3
212.748	66.62
212.966	49.56
213.183	42.61
213.401	19.58
213.618	15.44
213.836	14.49
214.053	19.47
214.271	16.68
214.488	7.65
214.705	15.6
214.923	7.48
215.14	10.52
215.358	28.15
215.575	25.06
215.793	35.98
216.01	23.25
216.227	19.04
216.445	32.15
216.662	36.18
216.879	39.41
217.097	37.12
217.314	37.48
217.531	30.51
217.749	33.47
217.966	21.07
218.183	-12.41
218.4	-8.76
218.618	-3.53
218.835	-33.86
219.052	-12.59
219.269	-53.08
219.487	-61.08
219.704	-45.06
219.921	-35.02
220.138	-39.97
220.355	-33.45
220.572	-9.22
220.79	6.59
221.007	14.9
221.224	14.47
221.441	2.5
221.658	11.2
221.875	20.36
222.092	25.93
222.309	29.14
222.526	29.52
222.743	35.37
222.96	36.51
223.177	32.65
223.394	28.82
223.611	27.59
223.828	27.53
224.045	24.07
224.262	23.32
224.479	19.13
224.696	21.02
224.913	17.34
225.13	14.12
225.347	11.23
225.564	11.06
225.781	10.58
225.997	10.78
226.214	12.92
226.431	13.44
226.648	13.06
226.865	13.13
227.082	13.37
227.298	14.67
227.515	16.2
227.732	15.78
227.949	15.72
228.165	16.37
228.382	16.43
228.599	15.62
228.816	15.18
229.032	15.46
229.249	15.12
229.466	15.31
229.682	14.95
229.899	13.91
230.116	15.15
230.332	14.67
230.549	14.41
230.765	15.16
230.982	16.6
231.199	19.49
231.415	17.63
231.632	20.8
231.848	21.83
232.065	21.78
232.281	21.29
232.498	19.56
232.714	19.11
232.931	20.54
233.147	21.24
233.364	18.33
233.58	19.24
233.797	21.07
234.013	19.22
234.23	15.63
234.446	17.02
234.662	15.39
234.879	13.93
235.095	14.37
235.312	14.12
235.528	11.64
235.744	12.96
235.961	11.25
236.177	9.4
236.393	9.26
236.61	10.01
236.826	7.94
237.042	7.45
237.258	12.84
237.475	12.36
237.691	12.16
237.907	11.66
238.123	12.17
238.339	11.65
238.556	12.74
238.772	12.61
238.988	12.84
239.204	12.42
239.42	14.18
239.636	12.73
239.853	12.62
240.069	12.43
240.285	12.24
240.501	12.38
240.717	12.36
240.933	12.56
241.149	12.52
241.365	12.94
241.581	13.74
241.797	13.17
242.013	13.48
242.229	13.76
242.445	13.3
242.661	13.32
242.877	13.68
243.093	13.12
243.309	12.99
243.525	12.89
243.741	12.09
243.957	11.18
244.173	11.09
244.388	10.48
244.604	10.95
244.82	10.59
245.036	10.49
245.252	10.14
245.468	10.54
245.683	10.7
245.899	10.73
246.115	10.78
246.331	11.17
246.547	11.03
246.762	11
246.978	10.73
247.194	11.55
247.409	12.23
247.625	12.11
247.841	12.07
248.057	11.31
248.272	11.38
248.488	11.48
248.703	10.81
248.919	10.7
249.135	10.54
249.35	10.05
249.566	9.73
249.782	9.04
249.997	8.79
250.213	8.24
250.428	8.36
250.644	8
250.859	8.05
251.075	7.74
251.29	8.73
251.506	8.57
251.721	8.78
251.937	7.79
252.152	7.73
252.368	8.79
252.583	9.95
252.798	10.15
253.014	10.59
253.229	10.54
253.445	10.81
253.66	10.25
253.875	11.51
254.091	12.51
254.306	12.21
254.521	11.57
254.737	10.42
254.952	9.28
255.167	8.95
255.383	9.18
255.598	8.99
255.813	9.8
256.028	9.02
256.244	8.36
256.459	7.39
256.674	7.66
256.889	8.19
257.104	7.93
257.32	8.41
257.535	8.15
257.75	7.87
257.965	7.75
258.18	7.24
258.395	7.42
258.61	7.72
258.826	8.12
259.041	8.12
259.256	8.17
259.471	8.63
259.686	8.69
259.901	8.91
260.116	8.83
260.331	9.16
260.546	9.24
260.761	8.87
260.976	8.72
261.191	7.87
261.406	8.41
261.621	8.2
261.836	7.93
262.05	7.21
262.265	7.62
262.48	7.27
262.695	6.15
262.91	6.43
263.125	6.58
263.34	6.49
263.555	7.52
263.769	7.28
263.984	7.38
264.199	7.57
264.414	7.86
264.629	7.57
264.843	8.14
265.058	7.7
265.273	8.39
265.488	8.61
265.702	8.64
265.917	7.8
266.132	7.58
266.346	7.87
266.561	7.69
266.776	7.56
266.99	7.54
267.205	7.26
267.42	7.35
267.634	7.41
267.849	7.53
268.063	7.34
268.278	8.24
268.492	8.22
268.707	7.65
268.922	7.2
269.136	6.78
269.351	6.69
269.565	6.97
269.78	7.37
269.994	7.26
270.209	6.98
270.423	6.98
270.637	6.67
270.852	6.96
271.066	7.28
271.281	7.48
271.495	7.63
271.709	8.22
271.924	8.04
272.138	8.01
272.353	7.75
272.567	7.8
272.781	7.87
272.996	7.8
273.21	7.31
273.424	6.94
273.638	7.16
273.853	7.2
274.067	6.69
274.281	7.02
274.495	7.01
274.71	6.98
274.924	7.01
275.138	7.17
275.352	6.74
275.566	6.44
275.781	6.68
275.995	6.83
276.209	6.73
276.423	6.39
276.637	5.73
276.851	5.94
277.065	5.88
277.279	6.24
277.493	6.17
277.707	6.45
277.921	6.54
278.135	6.37
278.349	5.86
278.563	6.29
278.777	6.09
278.991	6.33
279.205	6.71
279.419	6.57
279.633	6.3
279.847	6.34
280.061	6.51
280.275	6.94
280.489	7.42
280.703	7.36
280.917	6.87
281.131	7.11
281.344	7.04
281.558	6.83
281.772	7.17
281.986	7.33
282.2	6.92
282.414	6.92
282.627	6.72
282.841	6.43
283.055	6.72
283.269	7.12
283.482	7.36
283.696	7.4
283.91	7.21
284.123	6.94
284.337	6.72
284.551	6.88
284.764	7.2
284.978	7.38
285.192	7.41
285.405	7.24
285.619	7.22
285.833	7.16
286.046	6.93
286.26	7.33
286.473	7.6
286.687	8.37
286.9	8.7
287.114	8.38
287.327	8.13
287.541	7.98
287.754	8.33
287.968	7.94
288.181	7.58
288.395	8.39
288.608	7.93
288.822	7.28
289.035	6.64
289.248	6.72
289.462	6.55
289.675	6.59
289.889	6.43
290.102	5.89
290.315	5.65
290.529	6.04
290.742	5.29
290.955	5.62
291.169	5.7
291.382	6.26
291.595	6.05
291.808	6.17
292.022	6.19
292.235	6.15
292.448	6.61
292.661	7.47
292.875	7.2
293.088	7.77
293.301	7.79
293.514	7.91
293.727	7.66
293.94	7.75
294.153	7.87
294.367	7.65
294.58	7.91
294.793	7.87
295.006	7.97
295.219	8.72
295.432	8.32
295.645	8.24
295.858	8.5
296.071	8.25
296.284	8.01
296.497	7.93
296.71	8.32
296.923	8.61
297.136	8.44
297.349	8.59
297.562	8.38
297.775	8.7
297.988	9.05
298.201	9.29
298.414	9.71
298.626	9.9
298.839	9.98
299.052	9.53
299.265	9.12
299.478	9.41
299.691	9.22
299.903	8.96
300.116	8.82
300.329	8.4
300.542	8.46
300.755	8.33
300.967	8.82
301.18	9.19
301.393	9.64
301.605	9.63
301.818	9.44
302.031	9.27
302.243	8.78
302.456	8.9
302.669	8.72
302.881	8.15
303.094	8.02
303.307	7.78
303.519	8.23
303.732	8.09
303.944	8.15
304.157	8.04
304.37	7.9
304.582	8.43
304.795	8.47
305.007	8.79
305.22	9.24
305.432	9.1
305.645	8.44
305.857	7.77
306.069	8.1
306.282	8.48
306.494	8.89
306.707	9.15
306.919	9.25
307.132	8.97
307.344	8.91
307.556	8.96
307.769	9.38
307.981	10.01
308.193	10
308.406	9.62
308.618	9.61
308.83	9.54
309.043	9.4
309.255	9.46
309.467	9.44
309.679	9.51
309.892	9.4
310.104	9.11
310.316	8.71
310.528	8.67
310.74	8.68
310.953	8.3
311.165	7.99
311.377	8.02
311.589	7.69
311.801	8.34
312.013	8.16
312.225	8.07
312.437	8.26
312.649	8.66
312.862	8.68
313.074	9.17
313.286	9.29
313.498	10
313.71	10.1
313.922	9.95
314.134	9.38
314.346	9.42
314.558	9.38
314.77	9.85
314.982	9.61
315.193	9.86
315.405	9.96
315.617	10.52
315.829	10.31
316.041	10.28
316.253	10.5
316.465	10.44
316.677	10.88
316.888	11.18
317.1	10.82
317.312	11.44
317.524	11.18
317.736	10.91
317.947	10.46
318.159	10.66
318.371	10.67
318.583	10.96
318.794	11.45
319.006	11.19
319.218	10.99
319.43	10.97
319.641	10.64
319.853	10.64
320.064	10.53
320.276	10.05
320.488	9.71
320.699	9.8
320.911	9.62
321.123	9.56
321.334	9.63
321.546	9.64
321.757	9.21
321.969	9.37
322.18	9.31
322.392	9.27
322.603	10.3
322.815	10.6
323.026	10.73
323.238	10.68
323.449	10.28
323.661	10.05
323.872	10.19
324.083	10.5
324.295	10.22
324.506	10.24
324.718	10.51
324.929	10.47
325.14	10.54
325.352	10.17
325.563	10.46
325.774	11.04
325.986	11.39
326.197	11.59
326.408	11.64
326.62	11.61
326.831	11.79
327.042	11.93
327.253	11.61
327.464	11.13
327.676	11.5
327.887	11.21
328.098	11.1
328.309	10.82
328.52	10.42
328.732	10.94
328.943	11.31
329.154	11.09
329.365	10.74
329.576	10.82
329.787	11.03
329.998	11.26
330.209	11.36
330.42	10.99
330.631	11.24
330.842	11.37
331.053	10.45
331.264	10.43
331.475	10.15
331.686	10.43
331.897	9.61
332.108	9.63
332.319	9.24
332.53	9.06
332.741	9.79
332.952	9.6
333.163	9.83
333.374	9.88
333.585	9.94
333.795	10.41
334.006	10.29
334.217	10.97
334.428	10.94
334.639	10.81
334.849	11
335.06	10.39
335.271	10.49
335.482	10.03
335.692	10.5
335.903	10.53
336.114	10.42
336.325	10.18
336.535	9.91
336.746	10.11
336.957	10.3
337.167	10.46
337.378	10.28
337.589	9.92
337.799	9.75
338.01	10.16
338.22	9.88
338.431	10.14
338.642	10.31
338.852	10.69
339.063	10.62
339.273	10.69
339.484	10.37
339.694	10.13
339.905	10.55
340.115	11.5
340.326	11.3
340.536	11.38
340.746	11.02
340.957	10.58
341.167	10.34
341.378	10.16
341.588	10.01
341.799	10.37
342.009	10.95
342.219	10.99
342.43	10.7
342.64	10.46
342.85	10.67
343.061	10.51
343.271	10.94
343.481	11.2
343.691	11.04
343.902	10.98
344.112	10.42
344.322	10.52
344.532	10.23
344.743	9.81
344.953	9.71
345.163	9.25
345.373	9.33
345.583	9.14
345.793	9.16
346.004	9.64
346.214	9.6
346.424	10.12
346.634	9.7
346.844	9.8
347.054	10.1
347.264	10.14
347.474	10.45
347.684	10.35
347.894	10.44
348.104	10.19
348.314	10
348.524	9.83
348.734	9.61
348.944	9.93
349.154	9.93
349.364	9.49
349.574	9.15
349.784	9.1
349.994	9.65
350.204	10
350.413	10.24
350.623	10.05
350.833	10.62
351.043	10.66
351.253	10.46
351.463	10.21
351.672	10.37
351.882	10.47
352.092	10.33
352.302	10.22
352.511	9.97
352.721	9.84
352.931	9.61
353.141	9.24
353.35	9.24
353.56	9.02
353.77	8.99
353.979	8.93
354.189	8.97
354.399	8.81
354.608	8.28
354.818	8.35
355.027	8.19
355.237	8.35
355.447	8.37
355.656	8.28
355.866	8.24
356.075	8.51
356.285	8.35
356.494	8.32
356.704	8.61
356.913	8.34
357.123	8.02
357.332	7.82
357.542	7.96
357.751	7.87
357.96	7.65
358.17	7.83
358.379	7.73
358.589	8.07
358.798	8.02
359.007	7.63
359.217	7.92
359.426	8.04
359.635	8.1
359.845	7.98
360.054	8.02
360.263	8.17
360.472	8.08
360.682	7.91
360.891	7.99
361.1	8.17
361.309	8.32
361.519	8.42
361.728	8.24
361.937	8.25
362.146	8.3
362.355	8.22
362.564	8.19
362.774	8.19
362.983	8.29
363.192	8.08
363.401	7.75
363.61	7.47
363.819	7.45
364.028	7.35
364.237	7.25
364.446	7.32
364.655	7.16
364.864	7.11
365.073	7.13
365.282	7.27
365.491	7.23
365.7	7.41
365.909	7.62
366.118	7.89
366.327	7.88
366.536	8.13
366.745	8.09
366.954	8.22
367.162	8.36
367.371	8.25
367.58	8.18
367.789	8.06
367.998	7.85
368.207	7.76
368.415	7.56
368.624	7.89
368.833	7.83
369.042	7.43
369.25	7.58
369.459	7.71
369.668	7.67
369.877	7.64
370.085	7.85
370.294	7.74
370.503	7.6
370.711	7.6
370.92	7.34
371.129	7.21
371.337	7.43
371.546	7.24
371.754	6.92
371.963	6.89
372.171	6.65
372.38	6.49
372.589	7.12
372.797	7.4
373.006	7.14
373.214	7.41
373.423	7.24
373.631	7.15
373.84	6.95
374.048	7.15
374.256	7.37
374.465	7.64
374.673	7.61
374.882	7.09
375.09	6.97
375.298	6.91
375.507	6.68
375.715	6.81
375.923	6.94
376.132	7.33
376.34	7.23
376.548	7.17
376.757	7
376.965	7.1
377.173	7.18
377.381	7.41
377.59	7.55
377.798	7.81
378.006	7.82
378.214	7.68
378.423	7.41
378.631	7.03
378.839	6.79
379.047	6.9
379.255	6.87
379.463	6.77
379.671	6.27
379.879	6.19
380.088	6.17
380.296	6.21
380.504	6.2
380.712	6.38
380.92	6.64
381.128	6.74
381.336	6.52
381.544	6.28
381.752	6.06
381.96	6.23
382.168	6.33
382.376	6.23
382.584	6
382.791	6.06
382.999	5.85
383.207	5.67
383.415	5.64
383.623	5.79
383.831	5.82
384.039	5.98
384.247	6.07
384.454	5.84
384.662	5.74
384.87	5.91
385.078	5.83
385.285	5.71
385.493	5.98
385.701	6.08
385.909	6.09
386.116	6.31
386.324	6.25
386.532	6.16
386.739	6.23
386.947	6.27
387.155	6.09
387.362	6.22
387.57	6.4
387.778	6.19
387.985	6.02
388.193	5.73
388.4	5.48
388.608	5.65
388.816	5.54
389.023	5.64
389.231	5.47
389.438	5.54
389.646	5.5
389.853	5.46
390.061	5.49
390.268	5.42
390.475	5.5
390.683	5.56
390.89	5.5
391.098	5.6
391.305	5.39
391.512	5.29
391.72	5.28
391.927	5.12
392.135	4.81
392.342	4.72
392.549	4.85
392.756	4.93
392.964	4.9
393.171	4.67
393.378	4.56
393.586	4.65
393.793	4.76
394	4.54
394.207	4.73
394.414	4.86
394.622	4.89
394.829	5.04
395.036	4.95
395.243	4.81
395.45	5.06
395.657	5.23
395.864	5.34
396.072	5.37
396.279	5.63
396.486	5.42
396.693	5.44
396.9	5.4
397.107	5.16
397.314	5.22
397.521	5.27
397.728	5.25
397.935	5.37
398.142	5.27
398.349	5.17
398.556	5.24
398.763	5.25
398.97	5.47
399.177	5.66
399.383	5.72
399.59	5.6
399.797	5.44
400.004	5.35
400.211	5.09
400.418	5.18
400.625	5.34
400.831	5.02
401.038	4.91
401.245	4.95
401.452	4.84
401.658	4.75
401.865	4.89
402.072	4.98
402.279	5.07
402.485	5.22
402.692	5.23
402.899	5.18
403.105	5.27
403.312	5.33
403.519	5.22
403.725	5.2
403.932	5.36
404.138	5.27
404.345	5.31
404.552	5.27
404.758	5.21
404.965	5.26
405.171	5.3
405.378	5.47
405.584	5.64
405.791	5.56
405.997	5.46
406.204	5.35
406.41	5.41
406.617	5.42
406.823	5.49
407.029	5.46
407.236	5.41
407.442	5.32
407.649	5.22
407.855	5.1
408.061	5.11
408.268	5.2
408.474	5.07
408.68	5.08
408.887	5.16
409.093	5.01
409.299	4.94
409.505	4.81
409.712	4.83
409.918	4.74
410.124	4.81
410.33	4.85
410.537	4.84
410.743	4.9
410.949	4.85
411.155	4.74
411.361	4.69
411.567	4.84
411.773	4.84
411.98	5.03
412.186	4.97
412.392	4.91
412.598	4.94
412.804	4.64
413.01	4.77
413.216	4.69
413.422	4.77
413.628	4.74
413.834	4.63
414.04	4.52
414.246	4.15
414.452	4.22
414.658	4.31
414.864	4.34
415.07	4.48
415.275	4.36
415.481	4.41
415.687	4.26
415.893	4.31
416.099	4.23
416.305	4.27
416.511	4.49
416.716	4.59
416.922	4.58
417.128	4.58
417.334	4.6
417.539	4.6
417.745	4.57
417.951	4.61
418.157	4.67
418.362	4.62
418.568	4.68
418.774	4.53
418.979	4.42
419.185	4.34
419.391	4.29
419.596	4.33
419.802	4.32
420.008	4.28
420.213	4.87
420.419	4.84
420.624	4.88
420.83	4.84
421.035	4.88
421.241	4.92
421.446	4.89
421.652	4.88
421.857	4.83
422.063	4.84
422.268	4.89
422.474	4.39
422.679	4.4
422.885	4.37
423.09	4.34
423.295	4.31
423.501	4.26
423.706	4.3
423.911	4.32
424.117	4.36
424.322	4.3
424.527	4.27
424.733	4.21
424.938	4.19
425.143	4.25
425.349	4.37
425.554	4.39
425.759	4.44
425.964	4.38
426.169	4.37
426.375	4.22
426.58	4.39
426.785	4.4
426.99	4.35
427.195	4.4
427.4	4.34
427.605	4.31
427.811	4.35
428.016	4.29
428.221	4.31
428.426	4.23
428.631	4.39
428.836	4.27
429.041	4.27
429.246	4.27
429.451	4.26
429.656	4.36
429.861	4.31
430.066	4.37
430.271	4.44
430.476	4.51
430.681	4.59
430.886	4.51
431.09	4.62
431.295	4.55
431.5	4.49
431.705	4.47
431.91	4.51
432.115	4.5
432.32	4.38
432.524	4.39
432.729	4.35
432.934	4.32
433.139	4.43
433.343	4.41
433.548	4.54
433.753	4.58
433.958	4.56
434.162	4.46
434.367	4.49
434.572	4.6
434.776	4.48
434.981	4.47
435.186	4.4
435.39	4.29
435.595	4.29
435.799	4.24
436.004	4.27
436.209	4.12
436.413	4.16
436.618	4.03
436.822	4.04
437.027	4.15
437.231	4.19
437.436	4.21
437.64	4.26
437.845	4.18
438.049	4.23
438.253	4.29
438.458	4.42
438.662	4.42
438.867	4.46
439.071	4.52
439.275	4.49
439.48	4.42
439.684	4.44
439.888	4.38
440.093	4.46
440.297	4.39
440.501	4.32
440.706	4.32
440.91	4.38
441.114	4.34
441.318	4.2
441.523	4.21
441.727	4.33
441.931	4.48
442.135	4.49
442.339	4.4
442.543	4.48
442.748	4.48
442.952	4.41
443.156	4.25
443.36	4.27
443.564	4.32
443.768	4.23
443.972	4.16
444.176	4.04
444.38	4.05
444.584	4.01
444.788	3.98
444.992	3.89
445.196	3.94
445.4	3.96
445.604	3.94
445.808	3.92
446.012	3.99
446.216	3.97
446.42	3.99
446.624	4.02
446.828	4.11
447.032	4.03
447.235	4.08
447.439	4.07
447.643	4.03
447.847	4.06
448.051	4.08
448.254	4.08
448.458	4.18
448.662	4.12
448.866	4.1
449.069	4.03
449.273	4.03
449.477	4.12
449.681	4.2
449.884	4.28
450.088	4.33
450.292	4.37
450.495	4.18
450.699	4.12
450.902	4.22
451.106	4.18
451.31	4.15
451.513	4.19
451.717	4.14
451.92	3.98
452.124	3.87
452.327	3.92
452.531	3.92
452.734	4.01
452.938	3.95
453.141	3.84
453.345	3.78
453.548	3.77
453.752	3.86
453.955	3.95
454.158	3.98
454.362	4.04
454.565	4.03
454.769	4.01
454.972	4.15
455.175	4.17
455.379	4.21
455.582	4.34
455.785	4.4
455.988	4.33
456.192	4.22
456.395	4.24
456.598	4.27
456.801	4.27
457.005	4.23
457.208	4.11
457.411	4.11
457.614	4.04
457.817	3.99
458.021	3.99
458.224	4.05
458.427	4.12
458.63	4.07
458.833	4.04
459.036	4.08
459.239	4.1
459.442	4.17
459.645	4.1
459.848	4.08
460.051	4.05
460.254	4.13
460.457	4.01
460.66	4
460.863	4.04
461.066	4.05
461.269	3.92
461.472	3.98
461.675	3.9
461.878	4
462.081	4.12
462.284	4.21
462.486	4.05
462.689	4.12
462.892	4.01
463.095	4.06
463.298	4.14
463.5	4.22
463.703	4.12
463.906	4.2
464.109	4.14
464.311	4.16
464.514	4.16
464.717	4.28
464.92	4.25
465.122	4.29
465.325	4.29
465.528	4.22
465.73	4.25
465.933	4.23
466.135	4.19
466.338	4.19
466.541	4.17
466.743	4.1
466.946	4.06
467.148	4
467.351	4
467.553	3.94
467.756	3.9
467.958	3.84
468.161	3.91
468.363	3.92
468.566	3.94
468.768	3.9
468.971	3.93
469.173	3.97
469.375	3.96
469.578	3.95
469.78	4.04
469.983	4.18
470.185	4.21
470.387	4.18
470.59	4.17
470.792	4.05
470.994	4.15
471.196	4.22
471.399	4
471.601	4.09
471.803	4.16
472.005	4.13
472.208	3.99
472.41	3.96
472.612	3.95
472.814	3.86
473.016	4.04
473.218	4.04
473.421	3.96
473.623	4.15
473.825	4.16
474.027	4.07
474.229	4.02
474.431	3.99
474.633	3.89
474.835	3.88
475.037	3.94
475.239	3.86
475.441	3.87
475.643	3.91
475.845	3.84
476.047	3.77
476.249	3.79
476.451	3.84
476.653	3.85
476.855	3.97
477.057	3.93
477.258	3.88
477.46	3.83
477.662	3.67
477.864	3.71
478.066	3.68
478.268	3.78
478.469	3.84
478.671	3.8
478.873	3.89
479.075	3.81
479.276	3.84
479.478	3.92
479.68	4.08
479.882	4.17
480.083	4.06
480.285	4.14
480.487	4.08
480.688	4.02
480.89	4.03
481.091	4.01
481.293	3.99
481.495	3.98
481.696	3.94
481.898	3.89
482.099	3.86
482.301	3.87
482.502	3.86
482.704	3.84
482.905	3.81
483.107	3.8
483.308	3.79
483.51	3.77
483.711	3.76
483.913	3.76
484.114	3.75
484.315	3.73
484.517	3.72
484.718	3.69
484.92	3.73
485.121	3.78
485.322	3.78
485.524	3.76
485.725	3.82
485.926	3.84
486.127	3.87
486.329	3.86
486.53	3.88
486.731	3.89
486.932	3.91
487.134	3.88
487.335	3.85
487.536	3.9
487.737	3.91
487.938	3.91
488.139	3.89
488.341	3.89
488.542	3.92
488.743	3.91
488.944	3.93
489.145	3.94
489.346	3.99
489.547	4.01
489.748	3.9
489.949	3.95
490.15	3.93
490.351	3.94
490.552	3.94
490.753	3.94
490.954	3.96
491.155	3.93
491.356	3.87
491.557	3.87
491.758	3.89
491.959	3.96
492.159	3.95
492.36	3.93
492.561	3.92
492.762	3.92
492.963	3.94
493.164	3.94
493.364	3.96
493.565	3.99
493.766	3.96
493.967	3.94
494.167	3.92
494.368	3.82
494.569	3.84
494.769	3.86
494.97	3.87
495.171	3.86
495.371	3.92
495.572	4.01
495.773	3.97
495.973	3.99
496.174	4.01
496.375	4.05
496.575	4.16
496.776	4.25
496.976	4.26
497.177	4.29
497.377	4.24
497.578	4.19
497.778	4.18
497.979	4.25
498.179	4.28
498.38	4.28
498.58	4.19
498.78	4.21
498.981	4.21
499.181	4.21
499.382	4.18
499.582	4.25
499.782	4.3
499.983	4.26
500.183	4.21
500.383	4.19
500.584	4.24
500.784	4.31
500.984	4.25
501.184	4.14
501.385	4.18
501.585	4.2
501.785	4.25
501.985	4.24
502.185	4.28
502.386	4.34
502.586	4.36
502.786	4.43
502.986	4.42
503.186	4.41
503.386	4.47
503.586	4.56
503.786	4.65
503.987	4.6
504.187	4.64
504.387	4.68
504.587	4.67
504.787	4.67
504.987	4.64
505.187	4.66
505.387	4.72
505.587	4.78
505.786	4.76
505.986	4.7
506.186	4.75
506.386	4.65
506.586	4.62
506.786	4.66
506.986	4.76
507.186	4.75
507.386	4.78
507.585	4.83
507.785	4.87
507.985	4.83
508.185	4.85
508.384	4.89
508.584	4.99
508.784	5.01
508.984	5.05
509.183	4.99
509.383	4.99
509.583	5.12
509.782	5.11
509.982	5.08
510.182	5.1
510.381	5.12
510.581	5.06
510.781	5.06
510.98	5.06
511.18	5.07
511.379	5.14
511.579	5.18
511.778	5.08
511.978	5.02
512.177	5.01
512.377	5.08
512.576	5.1
512.776	5.09
512.975	5.12
513.175	5.15
513.374	5.18
513.573	5.21
513.773	5.34
513.972	5.41
514.172	5.56
514.371	5.67
514.57	5.65
514.77	5.67
514.969	5.73
515.168	5.72
515.367	5.77
515.567	5.8
515.766	5.78
515.965	5.71
516.164	5.68
516.364	5.64
516.563	5.6
516.762	5.62
516.961	5.68
517.16	5.73
517.359	5.75
517.559	5.77
517.758	5.74
517.957	5.81
518.156	5.81
518.355	5.87
518.554	5.93
518.753	6
518.952	5.99
519.151	5.98
519.35	6.02
519.549	5.99
519.748	5.96
519.947	6.01
520.146	5.93
520.345	6
520.544	5.94
520.743	5.99
520.942	5.94
521.141	6.02
521.339	6.07
521.538	6.09
521.737	6.11
521.936	6.25
522.135	6.31
522.333	6.34
522.532	6.39
522.731	6.45
522.93	6.42
523.129	6.44
523.327	6.42
523.526	6.45
523.725	6.44
523.923	6.51
524.122	6.53
524.321	6.52
524.519	6.56
524.718	6.51
524.917	6.53
525.115	6.52
525.314	6.54
525.512	6.53
525.711	6.54
525.909	6.6
526.108	6.64
526.306	6.58
526.505	6.58
526.703	6.61
526.902	6.61
527.1	6.61
527.299	6.59
527.497	6.59
527.696	6.61
527.894	6.62
528.092	6.58
528.291	6.55
528.489	6.58
528.688	6.58
528.886	6.56
529.084	6.56
529.283	6.59
529.481	6.65
529.679	6.69
529.877	6.79
530.076	6.78
530.274	6.84
530.472	6.95
530.67	7
530.869	7.05
531.067	7.08
531.265	7.17
531.463	7.21
531.661	7.22
531.859	7.23
532.057	7.22
532.255	7.24
532.454	7.23
532.652	7.21
532.85	7.25
533.048	7.27
533.246	7.26
533.444	7.25
533.642	7.27
533.84	7.3
534.038	7.32
534.236	7.31
534.434	7.37
534.632	7.43
534.83	7.53
535.027	7.56
535.225	7.51
535.423	7.56
535.621	7.56
535.819	7.53
536.017	7.49
536.215	7.49
536.412	7.58
536.61	7.64
536.808	7.57
537.006	7.53
537.203	7.56
537.401	7.62
537.599	7.66
537.797	7.79
537.994	7.89
538.192	8.04
538.39	8.18
538.587	8.14
538.785	8.1
538.983	8.18
539.18	8.21
539.378	8.21
539.575	8.29
539.773	8.34
539.97	8.28
540.168	8.29
540.366	8.25
540.563	8.18
540.761	8.17
540.958	8.22
541.155	8.22
541.353	8.15
541.55	8.15
541.748	8.14
541.945	8.09
542.143	8.14
542.34	8.09
542.537	8.12
542.735	8.18
542.932	8.25
543.129	8.28
543.327	8.36
543.524	8.47
543.721	8.53
543.919	8.59
544.116	8.63
544.313	8.72
544.51	8.83
544.708	8.81
544.905	8.89
545.102	8.94
545.299	8.93
545.496	8.99
545.693	9.06
545.891	9.12
546.088	9.05
546.285	9.14
546.482	9.13
546.679	9.2
546.876	9.33
547.073	9.38
547.27	9.41
547.467	9.51
547.664	9.56
547.861	9.63
548.058	9.58
548.255	9.74
548.452	9.83
548.649	9.91
548.846	9.92
549.043	9.99
549.24	9.94
549.437	9.98
549.633	10.01
549.83	10.02
550.027	10.05
550.224	10.25
550.421	10.31
550.618	10.34
550.814	10.37
551.011	10.42
551.208	10.32
551.405	10.53
551.601	10.53
551.798	10.51
551.995	10.43
552.191	10.44
552.388	10.28
552.585	10.34
552.781	10.38
552.978	10.46
553.175	10.48
553.371	10.63
553.568	10.56
553.764	10.68
553.961	10.75
554.157	10.9
554.354	11.02
554.55	11.15
554.747	11.22
554.943	11.19
555.14	11.26
555.336	11.3
555.533	11.37
555.729	11.43
555.926	11.35
556.122	11.42
556.318	11.41
556.515	11.43
556.711	11.55
556.907	11.61
557.104	11.67
557.3	11.73
557.496	11.84
557.693	11.93
557.889	12.05
558.085	12.13
558.281	12.28
558.478	12.35
558.674	12.45
558.87	12.45
559.066	12.45
559.262	12.64
559.459	12.61
559.655	12.64
559.851	12.68
560.047	12.6
560.243	12.64
560.439	12.67
560.635	12.82
560.831	12.84
561.027	12.92
561.223	12.96
561.419	12.91
561.615	12.95
561.811	13.1
562.007	13.18
562.203	13.41
562.399	13.58
562.595	13.57
562.791	13.66
562.987	13.69
563.183	13.81
563.379	13.92
563.575	13.97
563.771	14.15
563.966	14.22
564.162	14.23
564.358	14.27
564.554	14.37
564.75	14.52
564.945	14.55
565.141	14.58
565.337	14.56
565.533	14.66
565.728	14.72
565.924	14.69
566.12	14.66
566.315	14.7
566.511	14.65
566.707	14.62
566.902	14.63
567.098	14.69
567.293	14.78
567.489	14.86
567.684	14.88
567.88	14.95
568.076	14.96
568.271	15.03
568.467	15.06
568.662	15.21
568.858	15.38
569.053	15.43
569.248	15.58
569.444	15.69
569.639	15.78
569.835	15.79
570.03	15.9
570.225	15.93
570.421	15.95
570.616	16.17
570.812	16.27
571.007	16.27
571.202	16.42
571.397	16.35
571.593	16.39
571.788	16.44
571.983	16.55
572.178	16.63
572.374	16.8
572.569	16.95
572.764	16.84
572.959	16.87
573.154	16.98
573.35	17.01
573.545	17.14
573.74	17.09
573.935	17.13
574.13	17.26
574.325	17.29
574.52	17.27
574.715	17.3
574.91	17.4
575.105	17.41
575.3	17.49
575.495	17.48
575.69	17.55
575.885	17.7
576.08	17.79
576.275	17.75
576.47	17.72
576.665	17.87
576.86	17.84
577.055	17.87
577.25	18.07
577.444	18.03
577.639	18.05
577.834	17.99
578.029	18.05
578.224	18.05
578.418	18.15
578.613	18.25
578.808	18.29
579.003	18.45
579.197	18.62
579.392	18.62
579.587	18.73
579.781	18.88
579.976	19.1
580.171	19.17
580.365	19.18
580.56	19.13
580.755	19.3
580.949	19.39
581.144	19.46
581.338	19.32
581.533	19.29
581.727	19.28
581.922	19.3
582.116	19.3
582.311	19.35
582.505	19.53
582.7	19.56
582.894	19.6
583.089	19.56
583.283	19.56
583.478	19.74
583.672	19.81
583.866	19.92
584.061	20
584.255	20.03
584.449	20.04
584.644	20.01
584.838	20.16
585.032	20.1
585.226	20.33
585.421	20.32
585.615	20.32
585.809	20.46
586.003	20.52
586.198	20.44
586.392	20.59
586.586	20.67
586.78	20.67
586.974	20.66
587.168	20.61
587.363	20.52
587.557	20.7
587.751	20.78
587.945	20.7
588.139	20.8
588.333	21.02
588.527	20.92
588.721	21.03
588.915	21.06
589.109	21.13
589.303	21.31
589.497	21.34
589.691	21.29
589.885	21.35
590.079	21.3
590.273	21.34
590.466	21.26
590.66	21.3
590.854	21.28
591.048	21.36
591.242	21.47
591.436	21.52
591.629	21.48
591.823	21.53
592.017	21.61
592.211	21.76
592.404	21.8
592.598	21.82
592.792	21.78
592.986	21.79
593.179	21.89
593.373	21.85
593.567	21.89
593.76	21.98
593.954	22.01
594.147	22.12
594.341	22.26
594.535	22.32
594.728	22.4
594.922	22.5
595.115	22.59
595.309	22.64
595.502	22.67
595.696	22.67
595.889	22.66
596.083	22.74
596.276	22.67
596.47	22.65
596.663	22.66
596.856	22.68
597.05	22.71
597.243	22.61
597.437	22.5
597.63	22.68
597.823	22.7
598.017	22.81
598.21	22.73
598.403	22.74
598.596	22.77
598.79	22.96
598.983	23.03
599.176	23.11
599.369	23.18
599.563	23.41
599.756	23.39
599.949	23.4
600.142	23.38
600.335	23.62
600.528	23.64
600.722	23.73
600.915	23.64
601.108	23.86
601.301	23.97
601.494	24.08
601.687	23.89
601.88	23.88
602.073	23.96
602.266	23.99
602.459	23.9
602.652	23.98
602.845	23.98
603.038	23.83
603.231	23.81
603.424	23.87
603.617	23.85
603.809	23.97
604.002	23.93
604.195	23.87
604.388	23.99
604.581	24.12
604.774	24.12
604.966	24.16
605.159	24.32
605.352	24.23
605.545	24.19
605.737	24.37
605.93	24.54
606.123	24.76
606.316	24.8
606.508	24.9
606.701	24.97
606.894	25.06
607.086	25.19
607.279	25.18
607.471	25.2
607.664	25.26
607.857	25.19
608.049	25.06
608.242	24.93
608.434	25
608.627	24.94
608.819	24.83
609.012	24.72
609.204	24.6
609.397	24.6
609.589	24.59
609.782	24.61
609.974	24.66
610.166	24.84
610.359	24.8
610.551	24.86
610.743	24.95
610.936	25.19
611.128	25.3
611.32	25.37
611.513	25.4
611.705	25.37
611.897	25.3
612.09	25.37
612.282	25.31
612.474	25.49
612.666	25.61
612.858	25.56
613.051	25.49
613.243	25.5
613.435	25.5
613.627	25.55
613.819	25.69
614.011	25.65
614.203	25.59
614.395	25.67
614.588	25.68
614.78	25.68
614.972	25.64
615.164	25.51
615.356	25.38
615.548	25.35
615.74	25.32
615.932	25.25
616.124	25.18
616.315	25.35
616.507	25.37
616.699	25.36
616.891	25.29
617.083	25.34
617.275	25.43
617.467	25.78
617.659	25.84
617.85	26.01
618.042	26.19
618.234	26.33
618.426	26.31
618.618	26.11
618.809	26.18
619.001	26.29
619.193	26.4
619.384	26.29
619.576	26.22
619.768	26.21
619.959	26.13
620.151	26.34
620.343	26.34
620.534	26.31
620.726	26.54
620.917	26.38
621.109	26.4
621.301	26.47
621.492	26.69
621.684	26.77
621.875	26.77
622.067	26.7
622.258	26.46
622.45	26.41
622.641	26.48
622.832	26.52
623.024	26.58
623.215	26.51
623.407	26.44
623.598	26.32
623.789	26.41
623.981	26.37
624.172	26.65
624.363	26.63
624.555	27.03
624.746	27.04
624.937	27.09
625.129	27.26
625.32	27.24
625.511	27.27
625.702	27.32
625.893	27.27
626.085	27.45
626.276	27.39
626.467	27.46
626.658	27.2
626.849	27.23
627.04	27.16
627.231	27.07
627.422	27.24
627.614	27.26
627.805	27.27
627.996	27.33
628.187	27.24
628.378	27.17
628.569	27.35
628.76	27.56
628.951	27.68
629.142	27.92
629.332	27.88
629.523	27.77
629.714	27.64
629.905	27.56
630.096	27.36
630.287	27.35
630.478	27.42
630.669	27.26
630.859	27.25
631.05	27.16
631.241	26.84
631.432	27.04
631.623	27.09
631.813	27.12
632.004	27.2
632.195	27.21
632.385	27.39
632.576	27.58
632.767	27.49
632.957	27.48
633.148	27.43
633.339	27.67
633.529	27.51
633.72	27.59
633.91	27.85
634.101	27.96
634.292	28.06
634.482	28.17
634.673	28.09
634.863	28.34
635.054	28.41
635.244	28.52
635.435	28.53
635.625	28.59
635.815	28.61
636.006	28.5
636.196	28.6
636.387	28.6
636.577	28.38
636.767	28.34
636.958	28.18
637.148	28.07
637.338	27.97
637.529	28.17
637.719	28.19
637.909	28.27
638.099	28.34
638.29	28.3
638.48	28.58
638.67	28.69
638.86	28.79
639.05	28.76
639.241	28.74
639.431	28.88
639.621	28.55
639.811	28.7
640.001	28.53
640.191	28.46
640.381	28.43
640.571	28.26
640.761	28
640.951	27.98
641.141	28.16
641.331	28.36
641.521	28.31
641.711	28.42
641.901	28.32
642.091	28.4
642.281	28.46
642.471	28.51
642.661	28.55
642.851	28.99
643.041	29.05
643.231	29.03
643.42	29.03
643.61	28.85
643.8	28.87
643.99	28.9
644.18	29.22
644.369	29.32
644.559	29.41
644.749	29.45
644.939	29.23
645.128	29.24
645.318	29.41
645.508	29.43
645.697	29.76
645.887	29.61
646.076	29.73
646.266	29.8
646.456	29.61
646.645	29.55
646.835	29.49
647.024	29.55
647.214	29.52
647.403	29.34
647.593	29.16
647.782	28.9
647.972	29.04
648.161	29.03
648.351	28.91
648.54	29.09
648.73	29.23
648.919	29.3
649.108	29.35
649.298	29.58
649.487	29.84
649.677	30.01
649.866	30.21
650.055	30.3
650.244	30.23
650.434	30.19
650.623	30.21
650.812	30.17
651.002	30.31
651.191	30.29
651.38	30.23
651.569	30.12
651.758	29.9
651.947	29.94
652.137	29.92
652.326	30.25
652.515	30.17
652.704	30.37
652.893	30.59
653.082	30.5
653.271	30.58
653.46	30.46
653.649	30.43
653.838	30.55
654.027	30.52
654.216	30.5
654.405	30.44
654.594	30.44
654.783	30.16
654.972	29.84
655.161	29.87
655.35	30.01
655.539	30.35
655.728	30.27
655.916	30.55
656.105	30.67
656.294	30.84
656.483	30.7
656.672	30.88
656.86	31.06
657.049	31.12
657.238	31.25
657.427	31.22
657.615	31.24
657.804	31.35
657.993	31.37
658.181	31.38
658.37	31.33
658.559	31.26
658.747	31.2
658.936	31.07
659.125	30.87
659.313	30.87
659.502	30.78
659.69	30.62
659.879	30.6
660.067	30.39
660.256	30.4
660.444	30.52
660.633	30.76
660.821	30.81
661.01	30.92
661.198	31.29
661.387	31.13
661.575	31.14
661.763	31.18
661.952	31.05
662.14	31.03
662.328	30.97
662.517	30.88
662.705	30.72
662.893	30.8
663.082	30.82
663.27	30.67
663.458	30.79
663.646	30.78
663.834	30.74
664.023	30.91
664.211	30.97
664.399	30.95
664.587	31
664.775	31.14
664.963	31.17
665.152	31.21
665.34	31.47
665.528	31.41
665.716	31.85
665.904	31.8
666.092	32.18
666.28	32.28
666.468	32.55
666.656	32.44
666.844	32.52
667.032	32.57
667.22	32.59
667.408	32.48
667.596	32.57
667.784	32.22
667.971	32.32
668.159	32.04
668.347	32.18
668.535	31.95
668.723	32.03
668.911	31.95
669.098	31.76
669.286	31.78
669.474	31.95
669.662	32.03
669.849	32.33
670.037	32.39
670.225	32.44
670.413	32.31
670.6	32.47
670.788	32.47
670.976	32.51
671.163	32.56
671.351	32.53
671.538	32.37
671.726	32.36
671.913	32.03
672.101	31.85
672.289	31.77
672.476	31.84
672.664	31.91
672.851	31.91
673.039	31.92
673.226	31.81
673.413	31.81
673.601	32
673.788	31.83
673.976	31.83
674.163	31.95
674.35	32.1
674.538	32.22
674.725	31.98
674.912	32.04
675.1	32.1
675.287	32.49
675.474	32.68
675.662	32.5
675.849	32.87
676.036	32.94
676.223	32.93
676.411	32.92
676.598	32.6
676.785	32.8
676.972	32.86
677.159	32.8
677.346	32.67
677.533	32.62
677.721	32.78
677.908	32.58
678.095	32.78
678.282	32.63
678.469	32.62
678.656	32.82
678.843	32.78
679.03	32.67
679.217	32.86
679.404	32.91
679.591	33.02
679.778	32.82
679.964	32.93
680.151	32.86
680.338	32.91
680.525	33.1
680.712	33.2
680.899	33.29
681.086	33.49
681.272	33.14
681.459	33.17
681.646	33.15
681.833	33.41
682.02	33.36
682.206	33.1
682.393	33.3
682.58	33.04
682.766	33.05
682.953	32.87
683.14	32.72
683.326	33.02
683.513	32.94
683.7	32.59
683.886	32.44
684.073	32.3
684.259	32.55
684.446	32.64
684.632	32.7
684.819	32.7
685.005	32.56
685.192	32.54
685.378	32.6
685.565	32.78
685.751	33.27
685.938	33.33
686.124	33.55
686.31	33.28
686.497	33.37
686.683	33.58
686.87	33.29
687.056	33.42
687.242	33.4
687.429	33.37
687.615	33
687.801	32.61
687.987	32.69
688.174	32.78
688.36	33.37
688.546	33.12
688.732	32.84
688.918	32.98
689.105	33.32
689.291	33.59
689.477	33.43
689.663	33.87
689.849	33.99
690.035	34.15
690.221	33.98
690.407	33.92
690.593	34.04
690.779	34.14
690.965	34.1
691.151	33.83
691.337	33.55
691.523	33.55
691.709	33.34
691.895	33.44
692.081	33.39
692.267	33.64
692.453	33.57
692.639	33.5
692.825	33.39
693.011	33.49
693.196	33.51
693.382	33.51
693.568	33.24
693.754	33.33
693.94	33.26
694.125	33.06
694.311	32.87
694.497	32.91
694.682	33.35
694.868	33.54
695.054	33.38
695.239	33.61
695.425	33.63
695.611	33.92
695.796	34.14
695.982	34.31
696.168	34.39
696.353	34.45
696.539	34.71
696.724	34.56
696.91	34.59
697.095	34.8
697.281	34.7
697.466	34.79
697.652	34.85
697.837	34.67
698.023	34.67
698.208	34.62
698.393	34.81
698.579	34.55
698.764	34.61
698.949	34.66
699.135	34.52
699.32	34.66
699.505	34.67
699.691	34.77
699.876	34.75
700.061	34.5
700.246	34.48
700.432	34.08
700.617	33.89
700.802	33.85
700.987	33.85
701.172	34.18
701.358	34.18
701.543	34.13
701.728	33.53
701.913	33.78
702.098	33.9
702.283	34.1
702.468	34.17
702.653	34.31
702.838	34.42
703.023	34.23
703.208	34.11
703.393	34.07
703.578	34.23
703.763	34.91
703.948	34.9
704.133	34.98
704.318	35.06
704.503	35.39
704.688	35.5
704.873	35.13
705.057	35.23
705.242	35.45
705.427	35.29
705.612	35.11
705.797	34.79
705.981	34.52
706.166	34.13
706.351	34.21
706.536	33.91
706.72	34.01
706.905	33.78
707.09	33.65
707.274	33.78
707.459	33.78
707.644	34.13
707.828	34.45
708.013	34.35
708.197	35.19
708.382	35.05
708.567	35.21
708.751	35.07
708.936	35.57
709.12	35.78
709.305	35.24
709.489	35.38
709.673	35.04
709.858	34.91
710.042	34.9
710.227	34.58
710.411	34.69
710.596	34.42
710.78	34.51
710.964	34.38
711.149	33.9
711.333	34.2
711.517	34
711.702	34
711.886	33.87
712.07	34.11
712.254	34.06
712.438	33.66
712.623	33.78
712.807	33.58
712.991	33.56
713.175	33.91
713.359	33.8
713.544	33.81
713.728	34
713.912	33.78
714.096	33.52
714.28	33.56
714.464	33.73
714.648	34
714.832	34.16
715.016	34.13
715.2	34.34
715.384	34.38
715.568	34.43
715.752	33.98
715.936	34.16
716.12	34.96
716.304	35.17
716.488	34.99
716.671	34.76
716.855	34.95
717.039	35.18
717.223	35.08
717.407	35.26
717.59	35.36
717.774	35.98
717.958	36.28
718.142	36
718.325	35.97
718.509	36.67
718.693	37.02
718.877	36.57
719.06	36.34
719.244	36.64
719.428	36.13
719.611	36.18
719.795	36.29
719.978	36.05
720.162	35.73
720.345	35.78
720.529	35.11
720.713	34.9
720.896	35.18
721.08	35.17
721.263	34.77
721.446	34.91
721.63	34.87
721.813	34.2
721.997	34.3
722.18	34.21
722.364	34.45
722.547	34.63
722.73	34.7
722.914	34.68
723.097	34.7
723.28	34.65
723.464	34.57
723.647	34.29
723.83	34.86
724.013	35.09
724.197	34.78
724.38	34.16
724.563	34.87
724.746	34.67
724.929	34.68
725.112	34.75
725.296	34.71
725.479	35.26
725.662	35.36
725.845	35.49
726.028	35.15
726.211	35.71
726.394	36.06
726.577	35.5
726.76	35.52
726.943	35.88
727.126	35.87
727.309	36.18
727.492	36.15
727.675	36.58
727.858	36.53
728.041	36.67
728.224	36.75
728.407	36.62
728.589	36.7
728.772	36.72
728.955	36.51
729.138	36.5
729.321	35.91
729.503	35.87
729.686	35.65
729.869	35.46
730.052	35.72
730.234	35.45
730.417	35.41
730.6	35.06
730.782	35.12
730.965	35.02
731.148	35.07
731.33	35.87
731.513	35.91
731.695	36.34
731.878	36.19
732.061	36.26
732.243	36.45
732.426	36.43
732.608	36.93
732.791	36.63
732.973	36.36
733.156	36.16
733.338	35.86
733.52	35.54
733.703	35.03
733.885	35.16
734.068	35.17
734.25	35.48
734.432	35.3
734.615	35.14
734.797	35.33
734.979	35.42
735.162	35.75
735.344	35.64
735.526	36.07
735.708	35.89
735.891	35.92
736.073	35.67
736.255	35.02
736.437	35.01
736.619	34.89
736.802	35.39
736.984	35.87
737.166	35.54
737.348	35.39
737.53	34.76
737.712	35.34
737.894	35.45
738.076	35.18
738.258	35.31
738.44	35.72
738.622	35.69
738.804	35.38
738.986	35.12
739.168	35.36
739.35	35.09
739.532	35.74
739.714	35.6
739.896	35.16
740.078	35.32
740.259	36.05
740.441	36.18
740.623	35.96
740.805	36.35
740.987	36.1
741.168	36.1
741.35	36.94
741.532	36.63
741.714	36.81
741.895	37
742.077	36.85
742.259	36.26
742.44	35.58
742.622	36.13
742.804	35.81
742.985	36.33
743.167	36.26
743.348	35.59
743.53	35.87
743.711	35.38
743.893	35.11
744.075	35.61
744.256	34.99
744.438	35.26
744.619	34.8
744.8	34.22
744.982	33.92
745.163	34.11
745.345	34.12
745.526	34.09
745.707	34.21
745.889	34.68
746.07	34.23
746.252	34.6
746.433	34.18
746.614	34.84
746.795	35.83
746.977	36.02
747.158	35.94
747.339	36.08
747.52	35.82
747.702	35.81
747.883	35.55
748.064	35.99
748.245	35.76
748.426	36.63
748.607	36.91
748.788	36.89
748.97	36.55
749.151	36.22
749.332	36.68
749.513	37.22
749.694	36.68
749.875	37.07
750.056	36.76
750.237	36.41
750.418	36.25
750.599	35.53
750.78	35.22
750.96	35.42
751.141	35.53
751.322	35.7
751.503	35.22
751.684	35.49
751.865	35.67
752.046	35.87
752.226	36.49
752.407	35.7
752.588	35.79
752.769	36.27
752.949	36.84
753.13	37.18
753.311	36.84
753.492	36.98
753.672	37.62
753.853	37.51
754.034	36.97
754.214	36.9
754.395	37.59
754.575	37.75
754.756	37.69
754.937	36.94
755.117	36.77
755.298	36.47
755.478	35.97
755.659	35.64
755.839	36.19
756.02	36.48
756.2	36.64
756.381	36.66
756.561	35.96
756.741	35.85
756.922	35.86
757.102	35.47
757.283	36.26
757.463	36.18
757.643	35.74
757.823	34.83
758.004	34.53
758.184	34.59
758.364	34.31
758.545	35.54
758.725	35.17
758.905	35.45
759.085	35.52
759.265	34.99
759.446	35.27
759.626	35.85
759.806	36.61
759.986	36.83
760.166	36.54
760.346	36.53
760.526	36.01
760.706	35.92
760.886	35.71
761.066	35.99
761.246	35.45
761.426	35.02
761.606	34.68
761.786	33.97
761.966	34.73
762.146	34.07
762.326	34.03
762.506	34.24
762.686	34.25
762.866	34.51
763.046	34.51
763.225	35
763.405	35.51
763.585	35.49
763.765	35.83
763.945	35.54
764.124	36.15
764.304	36.47
764.484	36.16
764.664	36.13
764.843	36.17
765.023	36.09
765.203	36.06
765.382	35.69
765.562	35.88
765.741	36.04
765.921	35.72
766.101	35.97
766.28	35.71
766.46	36.01
766.639	36.25
766.819	35.66
766.998	35.86
767.178	35.48
767.357	35.18
767.537	34.91
767.716	34.37
767.896	34.43
768.075	34.75
768.254	35
768.434	35.54
768.613	35.4
768.792	35.77
768.972	35.9
769.151	35.6
769.33	36.5
769.51	36.82
769.689	37.63
769.868	37.63
770.047	37.55
770.226	37.29
770.406	36.58
770.585	37.16
770.764	37.16
770.943	36.78
771.122	36.55
771.301	36.34
771.48	36.67
771.66	36.35
771.839	35.88
772.018	35.36
772.197	35.51
772.376	35.69
772.555	35.36
772.734	35.26
772.913	35.01
773.092	36.04
773.271	35.7
773.449	35
773.628	34.73
773.807	35.86
773.986	36.09
774.165	35.7
774.344	35.01
774.523	34.77
774.701	34.59
774.88	35.37
775.059	35.29
775.238	35.47
775.417	36.02
775.595	35.89
775.774	35.67
775.953	36.11
776.131	36.03
776.31	35.91
776.489	35.86
776.667	35.91
776.846	35.97
777.025	36.23
777.203	36.46
777.382	36.44
777.56	36.87
777.739	36.27
777.917	36.03
778.096	36.17
778.274	35.85
778.453	35.9
778.631	36.37
778.81	35.08
778.988	35.2
779.166	35.35
779.345	34.98
779.523	34.68
779.702	34.4
779.88	33.55
780.058	33.9
780.237	34.29
780.415	34.46
780.593	33.9
780.771	34.14
780.95	33.65
781.128	33.39
781.306	33.15
781.484	32.7
781.662	32.33
781.841	32.57
782.019	32.61
782.197	32.46
782.375	31.7
782.553	32.43
782.731	32.58
782.909	31.87
783.087	31.95
783.265	32.32
783.443	33.1
783.621	33.78
783.799	34.46
783.977	34.4
784.155	34.16
784.333	35.29
784.511	35.09
784.689	34.88
784.867	35.56
785.045	34.61
785.223	34.81
785.4	34.67
785.578	34.77
785.756	33.85
785.934	33.27
786.112	34.96
786.289	33.57
786.467	33.53
786.645	33.82
786.823	34.14
787	34.04
787.178	32.84
787.356	32.9
787.533	32.97
787.711	33.1
787.889	35.02
788.066	34.43
788.244	35.8
788.421	35.65
788.599	36.49
788.776	36.59
788.954	37.01
789.131	38.06
789.309	38.18
789.486	38.3
789.664	38.93
789.841	37.68
790.019	37.63
790.196	36.9
790.373	37.81
790.551	37.03
790.728	36.28
790.906	37.25
791.083	35.83
791.26	35.42
791.437	34.72
791.615	34.53
791.792	34.43
791.969	34.14
792.146	34.86
792.324	33.5
792.501	33.33
792.678	34.14
792.855	33.17
793.032	34.46
793.209	35.12
793.387	35.72
793.564	36.06
793.741	36.15
793.918	36.57
794.095	36.34
794.272	36.63
794.449	37.88
794.626	37.78
794.803	37.36
794.98	36.21
795.157	35.6
795.334	35.28
795.511	35.2
795.688	35.24
795.864	35.03
796.041	34.88
796.218	35.27
796.395	33.54
796.572	33.44
796.749	33.98
796.925	34.92
797.102	35.69
797.279	35.87
797.456	35.43
797.632	35.03
797.809	34.08
797.986	33.03
798.162	33.43
798.339	35.06
798.516	34.96
798.692	36.1
798.869	36.7
799.046	36.34
799.222	36.54
799.399	36.18
799.575	36.01
799.752	37.56
799.928	38.48
800.105	38.08
800.281	37.29
800.458	36.2
800.634	35.71
800.811	34.88
800.987	34.46
801.163	33.84
801.34	33.92
801.516	34.72
801.692	33.34
801.869	33.25
802.045	33.17
802.221	34.12
802.398	35.05
802.574	35.09
802.75	34.21
802.926	33
803.103	33.83
803.279	33.63
803.455	33.18
803.631	33.18
803.807	32.97
803.983	32.7
804.16	32.08
804.336	32.2
804.512	32.28
804.688	34.6
804.864	36.84
805.04	36.11
805.216	37.33
805.392	38.03
805.568	38.79
805.744	39.04
805.92	38.06
806.096	38.05
806.272	38.33
806.448	38.39
806.623	36.81
806.799	36.08
806.975	36.69
807.151	36.16
807.327	35.56
807.503	35.42
807.678	36.36
807.854	37.46
808.03	37.12
808.206	36.93
808.381	36.02
808.557	36.4
808.733	37.24
808.908	37.39
809.084	37.42
809.26	37.92
809.435	36.71
809.611	36.32
809.787	36.2
809.962	37.53
810.138	37.7
810.313	38.89
810.489	38.9
810.664	38.35
810.84	38.03
811.015	37.65
811.191	37.6
811.366	38.29
811.542	37.12
811.717	37.08
811.892	36.86
812.068	36.08
812.243	35.2
812.419	36.48
812.594	34.75
812.769	34.47
812.944	34.05
813.12	33.22
813.295	34.03
813.47	34.53
813.645	34.9
813.821	32.94
813.996	33.47
814.171	32.38
814.346	32.49
814.521	34.44
814.697	34.71
814.872	34.81
815.047	35.46
815.222	35.51
815.397	34.6
815.572	33.39
815.747	33.37
815.922	33.98
816.097	34.24
816.272	33.38
816.447	31.77
816.622	32.36
816.797	33.67
816.972	34.01
817.147	33.38
817.322	33.94
817.496	34.16
817.671	35.38
817.846	35.38
818.021	36.24
818.196	36.18
818.371	36.6
818.545	36.33
818.72	35.76
818.895	36.52
819.069	36.88
819.244	37.63
819.419	38.77
819.594	38.19
819.768	37.65
819.943	37.76
820.117	37.37
820.292	37.33
820.467	37.53
820.641	36.99
820.816	36.45
820.99	36.51
821.165	36.1
821.339	35.89
821.514	36.01
821.688	36.05
821.863	36.11
822.037	35.95
822.212	35.86
822.386	35.26
822.56	35.31
822.735	34.93
822.909	34.65
823.084	35.07
823.258	34.87
823.432	35.05
823.606	34.94
823.781	34.71
823.955	34.92
824.129	34.86
824.303	35.38
824.478	35.46
824.652	35.93
824.826	35.9
825	35.21
825.174	35.17
825.348	34.32
825.523	34.13
825.697	33.92
825.871	33.94
826.045	34.16
826.219	34.46
826.393	33.95
826.567	33.88
826.741	34.29
826.915	34.37
827.089	34.37
827.263	34.71
827.437	34.89
827.611	34.87
827.784	34.86
827.958	34.79
828.132	34.09
828.306	34.85
828.48	34.84
828.654	34.57
828.827	34.16
829.001	34.39
829.175	34.96
829.349	34.83
829.522	35.23
829.696	35.58
829.87	36.2
830.044	36.98
830.217	37.15
830.391	37.67
830.565	37.43
830.738	39.21
830.912	39.42
831.085	36.84
831.259	37.21
831.432	35.94
831.606	34.61
831.779	33.87
831.953	33.16
832.126	32.38
832.3	32.05
832.473	32.36
832.647	31.32
832.82	30.68
832.994	32.56
833.167	32.48
833.34	33.34
833.514	34.06
833.687	33.88
833.86	34.74
834.034	34.75
834.207	35.05
834.38	35.46
834.553	35.74
834.727	36.2
834.9	35.75
835.073	36.04
835.246	36.79
835.419	36.72
835.593	37.12
835.766	36.02
835.939	36.87
836.112	36.8
836.285	36.3
836.458	36.11
836.631	36.02
836.804	36.73
836.977	36.2
837.15	36.19
837.323	35.61
837.496	34.93
837.669	33.95
837.842	34.41
838.015	34.18
838.188	34.95
838.361	34.89
838.533	36.7
838.706	36.84
838.879	35.73
839.052	33.14
839.225	32.96
839.398	32.36
839.57	34
839.743	33
839.916	32.68
840.088	32.86
840.261	32.89
840.434	32.02
840.607	30.86
840.779	30.98
840.952	32.4
841.124	33.12
841.297	33.22
841.47	32.96
841.642	33.12
841.815	31.03
841.987	29.28
842.16	30.31
842.332	29.78
842.505	27.87
842.677	31.44
842.85	31.71
843.022	30.6
843.194	30.91
843.367	30.08
843.539	31.2
843.712	33.09
843.884	32.84
844.056	29.79
844.229	29.21
844.401	32.46
844.573	31.38
844.745	31.45
844.918	34.33
845.09	37.76
845.262	40.09
845.434	38.3
845.606	40.52
845.779	44.56
845.951	47.79
846.123	46.55
846.295	44.89
846.467	45.49
846.639	46.25
846.811	44.56
846.983	42.64
847.155	42.7
847.327	44.13
847.499	43.72
847.671	41.46
847.843	41.99
848.015	42.72
848.187	43.53
848.359	42.38
848.531	43.1
848.703	43.25
848.875	43.91
849.047	44.29
849.218	42.5
849.39	42.85
849.562	41.24
849.734	40.98
849.905	41.3
850.077	45.53
850.249	44.27
850.421	41.85
850.592	39.88
850.764	38.33
850.936	33.76
851.107	31.67
851.279	30.85
851.451	32.47
851.622	33.17
851.794	36.78
851.965	32.41
852.137	31.76
852.308	31.12
852.48	37.13
852.651	37.13
852.823	38.99
852.994	37.73
853.166	35
853.337	35.35
853.509	33.74
853.68	34.42
853.851	35.63
854.023	37.36
854.194	39.21
854.365	33.66
854.537	35.41
854.708	36.81
854.879	39.67
855.05	40.51
855.222	39.65
855.393	41.52
855.564	41.06
855.735	42.33
855.906	40.15
856.078	38.24
856.249	42.32
856.42	43.65
856.591	44.62
856.762	48
856.933	46.93
857.104	47.09
857.275	45.69
857.446	43.17
857.617	41.34
857.788	45.13
857.959	45.98
858.13	44.23
858.301	43.53
858.472	45.69
858.643	45.02
858.814	47
858.985	45.1
859.155	45.32
859.326	44.86
859.497	44.29
859.668	44.26
859.839	42.78
860.009	43.27
860.18	43.59
860.351	36.12
860.522	36.38
860.692	34.88
860.863	33.22
861.034	32.43
861.204	32.63
861.375	35.3
861.546	33.46
861.716	36.38
861.887	32.93
862.057	33.04
862.228	37.8
862.398	33.77
862.569	38.39
862.739	46.23
862.91	44.67
863.08	44.2
863.251	42.38
863.421	38.97
863.592	35.83
863.762	39.67
863.932	38.77
864.103	42.1
864.273	44.03
864.443	40.05
864.614	35.26
864.784	36.14
864.954	37.88
865.125	40.38
865.295	40.56
865.465	41.19
865.635	37.11
865.805	37.65
865.976	29.51
866.146	28.2
866.316	26.52
866.486	23.13
866.656	30.2
866.826	29.32
866.996	25.22
867.166	27.25
867.336	26.59
867.506	26.66
867.676	24.88
867.846	27.98
868.016	25.48
868.186	29.36
868.356	36.17
868.526	26.55
868.696	28.14
868.866	28.69
869.036	30.3
869.206	26.69
869.376	33.6
869.545	34.89
869.715	38.48
869.885	40.01
870.055	35.62
870.224	34.79
870.394	34.75
870.564	35
870.734	37.17
870.903	35.79
871.073	38.53
871.243	33.86
871.412	31.74
871.582	27.44
871.751	29.61
871.921	33.4
872.091	28.46
872.26	31.02
872.43	30.56
872.599	28.31
872.769	29.01
872.938	27.38
873.108	30.44
873.277	33.47
873.446	39.55
873.616	41.52
873.785	42.54
873.955	46.21
874.124	45.04
874.293	41.79
874.463	40.97
874.632	40.48
874.801	43.21
874.971	41.18
875.14	42.77
875.309	39.97
875.478	34.81
875.647	35.02
875.817	34.24
875.986	38.29
876.155	42.04
876.324	39.14
876.493	39.61
876.662	37.78
876.831	40.22
877	39.68
877.17	37.06
877.339	38.27
877.508	35.56
877.677	38.25
877.846	36.65
878.015	36.2
878.184	41.49
878.352	42.33
878.521	41.45
878.69	41.61
878.859	42.08
879.028	39.76
879.197	40.04
879.366	37.94
879.534	35.28
879.703	36.81
879.872	37.68
880.041	36.34
880.21	35.54
880.378	36.63
880.547	36.02
880.716	35.51
880.884	36.29
881.053	36.02
881.222	37.61
881.39	37.83
881.559	38.13
881.727	37.6
881.896	36.95
882.065	36.33
882.233	35.8
882.402	35.82
882.57	35.88
882.739	35.91
882.907	36.75
883.076	36.16
883.244	35.63
883.412	34.91
883.581	34.63
883.749	35.32
883.918	35.75
884.086	36.37
884.254	36.46
884.423	35.08
884.591	34.56
884.759	33.6
884.927	34.16
885.096	34.77
885.264	34.28
885.432	34.13
885.6	33.75
885.769	33.99
885.937	34.4
886.105	34.37
886.273	37.38
886.441	38.93
886.609	39.5
886.777	38.14
886.945	37.99
887.113	38.82
887.281	38.35
887.449	37.64
887.617	36.7
887.785	37.22
887.953	35.73
888.121	32.73
888.289	33.13
888.457	32.45
888.625	31.8
888.793	30.25
888.961	29.93
889.129	31.71
889.296	30.69
889.464	31.65
889.632	29.31
889.8	30.21
889.967	30.68
890.135	28.65
