Data from 2938573_Reflection_1.txt Node
Date: Sun Jun 14 21:49:39 EDT 2015
User: robert
Spectrometer: USB4E03002
Autoset integration time: false
Trigger mode: 4
Integration Time (sec): 1.000000E-1
Scans to average: 10
Electric dark correction enabled: true
Nonlinearity correction enabled: false
Boxcar width: 5
Stray light correction enabled: false
XAxis mode: Wavelengths
Stop averaging: false
Number of Pixels in Spectrum: 3648
>>>>>Begin Spectral Data<<<<<
177.575	398.01
177.794	654.03
178.014	9803.9
178.233	-26290.62
178.452	-2099.38
178.672	-985.15
178.891	116.66
179.11	327.63
179.33	271.08
179.549	359.4
179.768	660.31
179.987	419.47
180.207	512.21
180.426	856.7
180.645	863.24
180.864	482.13
181.084	412.97
181.303	464.14
181.522	335.32
181.741	319.29
181.96	241.32
182.179	247.99
182.398	234.8
182.618	275.53
182.837	220.1
183.056	177.89
183.275	220.82
183.494	255.03
183.713	205.33
183.932	178.8
184.151	185.56
184.37	206.95
184.589	204.31
184.808	199.1
185.027	161.45
185.246	190.07
185.465	216.13
185.684	214.03
185.903	274.26
186.122	274.23
186.341	324.37
186.56	333.76
186.779	267.23
186.998	226.24
187.216	278.11
187.435	289.54
187.654	307.51
187.873	350.19
188.092	398.52
188.311	282.16
188.53	345.19
188.748	382.18
188.967	780.75
189.186	656.78
189.405	-2454.75
189.623	-53225
189.842	-828.64
190.061	-772.06
190.28	-887.05
190.498	-1967.31
190.717	-5152.71
190.936	1561.89
191.154	1653.57
191.373	557.42
191.592	1142.58
191.81	362.66
192.029	491.38
192.248	307.86
192.466	266.02
192.685	208.15
192.904	215.94
193.122	229.06
193.341	229.44
193.559	226.71
193.778	240.06
193.996	222.77
194.215	262.66
194.433	226.53
194.652	181.87
194.87	188.82
195.089	196.92
195.307	172.23
195.526	175.26
195.744	216.33
195.963	212.84
196.181	267.99
196.399	283.11
196.618	233.92
196.836	199.65
197.055	230.28
197.273	222.29
197.491	247.46
197.71	290.25
197.928	270.9
198.146	233.47
198.365	269.05
198.583	187.43
198.801	166.37
199.019	185.15
199.238	214.46
199.456	173.02
199.674	170.53
199.892	166.06
200.111	146.64
200.329	137.64
200.547	130.46
200.765	114.53
200.983	94.94
201.202	93.23
201.42	99.85
201.638	114.29
201.856	121.02
202.074	146.82
202.292	173.5
202.51	224.36
202.728	236.78
202.946	224.58
203.165	227.75
203.383	223.57
203.601	217.94
203.819	211.03
204.037	210.67
204.255	226.31
204.473	220.96
204.691	158.75
204.909	126.83
205.127	130.61
205.345	108.54
205.562	108.3
205.78	137.84
205.998	136.9
206.216	142.53
206.434	159.26
206.652	164.36
206.87	167.84
207.088	174.02
207.306	195.11
207.523	203.47
207.741	250.42
207.959	241.87
208.177	198.58
208.395	197.36
208.612	235.37
208.83	188.05
209.048	170.46
209.266	160.31
209.483	171
209.701	148.76
209.919	146
210.136	144.87
210.354	160.69
210.572	187.4
210.79	215.84
211.007	216.94
211.225	230.97
211.442	205.91
211.66	210.69
211.878	223
212.095	333.89
212.313	287.78
212.53	291.22
212.748	241.29
212.966	229.7
213.183	224.99
213.401	203.78
213.618	232.69
213.836	316.57
214.053	291.64
214.271	232.98
214.488	149.11
214.705	169.33
214.923	163.73
215.14	185.67
215.358	167.49
215.575	133.57
215.793	154.38
216.01	143.54
216.227	109.68
216.445	118.09
216.662	101.11
216.879	99.72
217.097	91.81
217.314	78.78
217.531	84.21
217.749	97.31
217.966	127.1
218.183	104.9
218.4	96.24
218.618	117.38
218.835	104.54
219.052	119.77
219.269	118.58
219.487	121.96
219.704	128.72
219.921	121.29
220.138	117.49
220.355	102.32
220.572	102.92
220.79	98.69
221.007	91.83
221.224	90.32
221.441	91.49
221.658	92.68
221.875	90.18
222.092	76.13
222.309	69.72
222.526	69.7
222.743	66.87
222.96	60.47
223.177	60.04
223.394	51.68
223.611	50.76
223.828	49.6
224.045	43.66
224.262	38.48
224.479	39.98
224.696	39.41
224.913	35.94
225.13	32.59
225.347	31.04
225.564	29.84
225.781	26.89
225.997	26.03
226.214	23.9
226.431	23.26
226.648	21.36
226.865	21.11
227.082	20.04
227.298	18.23
227.515	18.57
227.732	17.57
227.949	16.66
228.165	17.68
228.382	17.47
228.599	16.16
228.816	16.27
229.032	15.77
229.249	16.99
229.466	17.43
229.682	19.85
229.899	20.13
230.116	21.51
230.332	22.84
230.549	23.72
230.765	22.66
230.982	24.03
231.199	24.61
231.415	28.39
231.632	25.39
231.848	24.22
232.065	21.25
232.281	22.78
232.498	21.1
232.714	22.05
232.931	22.81
233.147	22.71
233.364	21.36
233.58	20.24
233.797	21.46
234.013	22.97
234.23	24.02
234.446	25.07
234.662	23.68
234.879	25.88
235.095	24.09
235.312	22.98
235.528	24.75
235.744	24.91
235.961	23.73
236.177	19.43
236.393	21.48
236.61	21.09
236.826	20.59
237.042	20.35
237.258	17.74
237.475	18.43
237.691	18.47
237.907	17.55
238.123	18.27
238.339	19.93
238.556	21.91
238.772	20.22
238.988	17.9
239.204	17.76
239.42	17.24
239.636	17.93
239.853	17.02
240.069	15.68
240.285	14.99
240.501	14.33
240.717	14.11
240.933	13
241.149	12.6
241.365	13.49
241.581	14.26
241.797	14.72
242.013	13.31
242.229	13.33
242.445	14.24
242.661	14.26
242.877	14.7
243.093	14.15
243.309	14.03
243.525	14.55
243.741	13.78
243.957	12.33
244.173	10.49
244.388	11.78
244.604	11.52
244.82	10.84
245.036	10.62
245.252	10.28
245.468	10.19
245.683	10.05
245.899	9.86
246.115	9.65
246.331	9.86
246.547	10.22
246.762	9.84
246.978	9.73
247.194	10.35
247.409	10.48
247.625	11.02
247.841	11.24
248.057	11.84
248.272	12.19
248.488	12.39
248.703	11.66
248.919	12.72
249.135	12.63
249.35	13.31
249.566	12.5
249.782	12.65
249.997	11.89
250.213	10.68
250.428	10.12
250.644	10.17
250.859	10.83
251.075	11.17
251.29	10.36
251.506	11.07
251.721	10.99
251.937	11.35
252.152	11.22
252.368	11.53
252.583	13.53
252.798	14.53
253.014	13.67
253.229	12.79
253.445	13.69
253.66	14.4
253.875	14.31
254.091	14.34
254.306	14.02
254.521	13.5
254.737	13.28
254.952	12.28
255.167	11.65
255.383	11.8
255.598	12.12
255.813	10.55
256.028	10.45
256.244	10.05
256.459	9.58
256.674	9.35
256.889	9.03
257.104	8.41
257.32	8.17
257.535	8.07
257.75	7.65
257.965	7.66
258.18	7.89
258.395	7.59
258.61	7.41
258.826	7.12
259.041	7.06
259.256	7.12
259.471	7.3
259.686	7.36
259.901	7.46
260.116	7.91
260.331	7.63
260.546	7.97
260.761	7.86
260.976	7.52
261.191	8.21
261.406	8.23
261.621	8.27
261.836	8.52
262.05	8.11
262.265	8.03
262.48	8.21
262.695	8.41
262.91	9.36
263.125	9.71
263.34	10.71
263.555	10.5
263.769	10.42
263.984	10.34
264.199	10.34
264.414	10.8
264.629	10.63
264.843	10.22
265.058	10.25
265.273	9.19
265.488	9.31
265.702	8.78
265.917	8.52
266.132	8.49
266.346	8.82
266.561	9.49
266.776	9.46
266.99	9.61
267.205	9.47
267.42	8.99
267.634	8.21
267.849	7.85
268.063	8.33
268.278	8.5
268.492	9.18
268.707	8.8
268.922	8.21
269.136	8.05
269.351	7.53
269.565	7.46
269.78	7.17
269.994	7.67
270.209	7.81
270.423	7.48
270.637	7.53
270.852	6.94
271.066	7.41
271.281	7.49
271.495	7.35
271.709	7.38
271.924	7.38
272.138	8.44
272.353	8.95
272.567	9.14
272.781	9.69
272.996	9.57
273.21	9.95
273.424	9.65
273.638	9.61
273.853	9.39
274.067	9.78
274.281	10.66
274.495	9.96
274.71	10.15
274.924	9.75
275.138	9.29
275.352	9.2
275.566	9.32
275.781	9.62
275.995	9.75
276.209	10.18
276.423	10.36
276.637	9.81
276.851	9.94
277.065	9.19
277.279	9.72
277.493	10
277.707	10.14
277.921	9.61
278.135	8.64
278.349	8.21
278.563	8.17
278.777	8.22
278.991	8.08
279.205	8.23
279.419	8.11
279.633	7.69
279.847	7.26
280.061	7.08
280.275	7.06
280.489	8.04
280.703	7.8
280.917	7.71
281.131	7.09
281.344	7.2
281.558	6.87
281.772	6.88
281.986	6.73
282.2	6.88
282.414	6.77
282.627	6.43
282.841	5.84
283.055	6.15
283.269	6.13
283.482	6.33
283.696	5.95
283.91	6.02
284.123	6
284.337	6.02
284.551	5.73
284.764	6.15
284.978	6.32
285.192	6.33
285.405	6.25
285.619	6.31
285.833	6.6
286.046	6.56
286.26	6.7
286.473	6.68
286.687	7.33
286.9	7.3
287.114	6.6
287.327	6.81
287.541	6.88
287.754	6.8
287.968	6.81
288.181	6.44
288.395	6.9
288.608	7.23
288.822	7
289.035	6.49
289.248	6.91
289.462	7.4
289.675	7.32
289.889	7.51
290.102	7.21
290.315	7.35
290.529	7.6
290.742	7.22
290.955	7.05
291.169	7.43
291.382	7.88
291.595	8.08
291.808	8.49
292.022	9
292.235	8.85
292.448	9.6
292.661	9.4
292.875	8.98
293.088	9.55
293.301	9.57
293.514	9.4
293.727	8.81
293.94	8.34
294.153	8.18
294.367	7.63
294.58	7.31
294.793	7.02
295.006	7.06
295.219	6.97
295.432	6.82
295.645	6.55
295.858	6.46
296.071	6.22
296.284	6.2
296.497	5.96
296.71	5.92
296.923	6.32
297.136	6.39
297.349	6.71
297.562	6.68
297.775	6.71
297.988	7
298.201	7.5
298.414	8.03
298.626	8.08
298.839	8.24
299.052	8.39
299.265	8.43
299.478	8.06
299.691	7.93
299.903	8.04
300.116	7.71
300.329	7.89
300.542	7.42
300.755	7.52
300.967	7.94
301.18	7.78
301.393	7.73
301.605	7.29
301.818	7.61
302.031	6.98
302.243	7.09
302.456	7.4
302.669	7.21
302.881	8.07
303.094	8
303.307	7.59
303.519	7.64
303.732	7.48
303.944	7.74
304.157	8.05
304.37	8.23
304.582	8.06
304.795	7.77
305.007	7.88
305.22	7.6
305.432	7.54
305.645	8.16
305.857	8.29
306.069	8.56
306.282	8.52
306.494	8.19
306.707	8.4
306.919	8.35
307.132	8.1
307.344	7.83
307.556	7.54
307.769	7.82
307.981	7.38
308.193	7.1
308.406	6.99
308.618	7.22
308.83	7.05
309.043	7.01
309.255	7.28
309.467	7.54
309.679	7.88
309.892	8.08
310.104	7.87
310.316	7.81
310.528	7.99
310.74	8.13
310.953	8.06
311.165	7.93
311.377	7.87
311.589	7.99
311.801	7.95
312.013	7.84
312.225	7.64
312.437	7.84
312.649	8.4
312.862	8.23
313.074	8.35
313.286	8.36
313.498	8.74
313.71	8.84
313.922	8.71
314.134	8.86
314.346	8.48
314.558	8.51
314.77	8.98
314.982	8.69
315.193	8.98
315.405	9.12
315.617	8.35
315.829	8.44
316.041	8.47
316.253	8.53
316.465	9.06
316.677	9.59
316.888	9.83
317.1	9.49
317.312	9.46
317.524	9.35
317.736	9.15
317.947	10.33
318.159	10.68
318.371	11.01
318.583	10.99
318.794	10.35
319.006	10
319.218	9.56
319.43	9.51
319.641	9.85
319.853	9.78
320.064	10.24
320.276	10.02
320.488	9.42
320.699	9.37
320.911	9.64
321.123	9.92
321.334	10.06
321.546	10.36
321.757	10.5
321.969	10.15
322.18	10.51
322.392	9.79
322.603	9.43
322.815	9.57
323.026	9.17
323.238	8.95
323.449	8.77
323.661	8.64
323.872	8.44
324.083	8.25
324.295	8.36
324.506	8.2
324.718	8.23
324.929	8.5
325.14	8.71
325.352	9.1
325.563	9.4
325.774	9.63
325.986	9.68
326.197	9.45
326.408	9.48
326.62	9.09
326.831	9.12
327.042	9.32
327.253	9.25
327.464	9.42
327.676	9.15
327.887	8.8
328.098	8.54
328.309	8.46
328.52	9.06
328.732	9.17
328.943	9.52
329.154	9.78
329.365	9.61
329.576	9.35
329.787	9.11
329.998	9.61
330.209	9.72
330.42	10.02
330.631	10.01
330.842	10.15
331.053	10.18
331.264	9.85
331.475	10.17
331.686	10.15
331.897	10.48
332.108	10.67
332.319	10.37
332.53	10.37
332.741	10.08
332.952	10.29
333.163	9.81
333.374	9.6
333.585	9.7
333.795	9.24
334.006	9.84
334.217	9.61
334.428	9.72
334.639	9.78
334.849	9.88
335.06	9.88
335.271	9.28
335.482	9.6
335.692	9.4
335.903	9.52
336.114	9.41
336.325	8.93
336.535	9.55
336.746	9.46
336.957	9.64
337.167	9.65
337.378	9.65
337.589	10.32
337.799	10.21
338.01	11
338.22	10.74
338.431	10.33
338.642	10.35
338.852	9.66
339.063	9.61
339.273	9.05
339.484	8.67
339.694	8.67
339.905	9.02
340.115	8.61
340.326	7.89
340.536	8.11
340.746	8.58
340.957	9.05
341.167	9.52
341.378	9.04
341.588	9.11
341.799	9.58
342.009	9.48
342.219	8.97
342.43	9.12
342.64	9.17
342.85	9.2
343.061	9.13
343.271	9.1
343.481	8.57
343.691	8.75
343.902	8.62
344.112	8.27
344.322	8.12
344.532	7.92
344.743	7.8
344.953	7.64
345.163	7.46
345.373	7.43
345.583	7.21
345.793	7.24
346.004	7.26
346.214	7.35
346.424	7.38
346.634	7.68
346.844	7.91
347.054	7.95
347.264	8.23
347.474	8.37
347.684	8.39
347.894	8.14
348.104	8.37
348.314	8.2
348.524	7.98
348.734	7.8
348.944	7.6
349.154	7.54
349.364	7.53
349.574	6.98
349.784	6.83
349.994	7
350.204	6.89
350.413	6.65
350.623	6.75
350.833	6.93
351.043	6.96
351.253	6.98
351.463	6.35
351.672	6.44
351.882	6.42
352.092	6.76
352.302	6.5
352.511	6.81
352.721	6.54
352.931	6.32
353.141	6.45
353.35	6.87
353.56	6.76
353.77	7.51
353.979	7.69
354.189	7.87
354.399	7.64
354.608	7.44
354.818	7.61
355.027	8.01
355.237	8.51
355.447	8.25
355.656	7.99
355.866	8.11
356.075	7.87
356.285	7.75
356.494	7.88
356.704	7.91
356.913	8
357.123	7.61
357.332	7.23
357.542	6.9
357.751	7.16
357.96	7.03
358.17	6.6
358.379	6.63
358.589	6.29
358.798	6.12
359.007	5.91
359.217	5.82
359.426	5.62
359.635	6.15
359.845	5.92
360.054	5.78
360.263	5.83
360.472	6.17
360.682	6.1
360.891	6.18
361.1	6.18
361.309	6.43
361.519	6.75
361.728	7.07
361.937	6.78
362.146	7.08
362.355	7.29
362.564	7.34
362.774	7.25
362.983	7.06
363.192	7.03
363.401	7
363.61	6.6
363.819	6.4
364.028	6.2
364.237	6.01
364.446	5.81
364.655	5.47
364.864	5.48
365.073	5.49
365.282	5.75
365.491	5.88
365.7	5.96
365.909	6.36
366.118	6.23
366.327	6.08
366.536	6.22
366.745	6.34
366.954	6.64
367.162	6.65
367.371	6.65
367.58	6.82
367.789	6.6
367.998	6.42
368.207	6.38
368.415	6.2
368.624	6.46
368.833	6.37
369.042	6.37
369.25	6.09
369.459	6.26
369.668	6.22
369.877	5.89
370.085	5.92
370.294	6.21
370.503	6.02
370.711	6.43
370.92	6.43
371.129	6.6
371.337	6.53
371.546	6.51
371.754	6.44
371.963	6.14
372.171	6.22
372.38	6.15
372.589	6.2
372.797	6.34
373.006	6.02
373.214	5.9
373.423	5.87
373.631	5.87
373.84	5.9
374.048	5.85
374.256	5.96
374.465	6.06
374.673	6.43
374.882	6.06
375.09	5.86
375.298	5.87
375.507	5.75
375.715	5.54
375.923	5.27
376.132	5.24
376.34	4.97
376.548	5.05
376.757	5.05
376.965	5.04
377.173	5.37
377.381	5.55
377.59	5.74
377.798	5.71
378.006	5.76
378.214	6.01
378.423	5.98
378.631	6.02
378.839	6.26
379.047	6.35
379.255	6.12
379.463	6.05
379.671	5.87
379.879	5.7
380.088	5.91
380.296	5.97
380.504	5.93
380.712	6.19
380.92	6.2
381.128	6.07
381.336	5.6
381.544	5.65
381.752	5.68
381.96	5.7
382.168	5.42
382.376	5.65
382.584	5.75
382.791	5.78
382.999	5.66
383.207	5.66
383.415	5.85
383.623	6.05
383.831	6.01
384.039	5.93
384.247	5.96
384.454	6.33
384.662	5.97
384.87	5.92
385.078	6.01
385.285	5.93
385.493	5.96
385.701	5.4
385.909	5.6
386.116	5.63
386.324	5.73
386.532	5.48
386.739	5.31
386.947	5.33
387.155	5.44
387.362	5.44
387.57	5.48
387.778	5.54
387.985	5.8
388.193	5.72
388.4	5.49
388.608	5.48
388.816	5.79
389.023	5.79
389.231	5.71
389.438	5.6
389.646	5.49
389.853	5.46
390.061	5.41
390.268	5.48
390.475	5.48
390.683	5.76
390.89	5.61
391.098	5.48
391.305	5.47
391.512	5.49
391.72	5.2
391.927	5.14
392.135	5.32
392.342	5.27
392.549	5.17
392.756	4.89
392.964	4.88
393.171	4.96
393.378	4.93
393.586	4.87
393.793	4.88
394	4.89
394.207	4.74
394.414	4.67
394.622	4.56
394.829	4.65
395.036	4.85
395.243	4.68
395.45	4.67
395.657	4.77
395.864	4.68
396.072	5.02
396.279	5.11
396.486	5.36
396.693	5.36
396.9	5.53
397.107	5.43
397.314	5.61
397.521	5.71
397.728	5.62
397.935	5.58
398.142	5.75
398.349	5.5
398.556	5.54
398.763	5.48
398.97	5.4
399.177	5.3
399.383	5.34
399.59	5.09
399.797	5.11
400.004	5.17
400.211	5.28
400.418	5.3
400.625	5.13
400.831	5.1
401.038	5.14
401.245	5.18
401.452	5.13
401.658	5.16
401.865	5.12
402.072	5.01
402.279	4.96
402.485	4.75
402.692	4.57
402.899	4.61
403.105	4.8
403.312	4.97
403.519	4.91
403.725	4.97
403.932	5.08
404.138	5.09
404.345	5.07
404.552	4.97
404.758	5.17
404.965	5.29
405.171	5.16
405.378	5
405.584	4.81
405.791	4.79
405.997	4.78
406.204	4.83
406.41	4.91
406.617	4.96
406.823	4.94
407.029	4.94
407.236	5.01
407.442	5.33
407.649	5.41
407.855	5.32
408.061	5.35
408.268	5.35
408.474	5.09
408.68	5.1
408.887	5.17
409.093	5.29
409.299	5.22
409.505	5.03
409.712	4.91
409.918	4.86
410.124	4.81
410.33	4.71
410.537	4.64
410.743	4.78
410.949	4.67
411.155	4.62
411.361	4.57
411.567	4.55
411.773	4.65
411.98	4.68
412.186	4.75
412.392	4.71
412.598	4.81
412.804	4.85
413.01	4.67
413.216	4.74
413.422	4.78
413.628	4.61
413.834	4.6
414.04	4.59
414.246	4.52
414.452	4.52
414.658	4.62
414.864	4.56
415.07	4.65
415.275	4.78
415.481	4.78
415.687	4.77
415.893	4.85
416.099	4.69
416.305	4.71
416.511	4.73
416.716	4.64
416.922	4.57
417.128	4.63
417.334	4.5
417.539	4.46
417.745	4.45
417.951	4.37
418.157	4.41
418.362	4.5
418.568	4.45
418.774	4.44
418.979	4.47
419.185	4.48
419.391	4.44
419.596	4.39
419.802	4.32
420.008	4.31
420.213	4.56
420.419	4.61
420.624	4.63
420.83	4.57
421.035	4.61
421.241	4.64
421.446	4.66
421.652	4.63
421.857	4.63
422.063	4.66
422.268	4.65
422.474	4.3
422.679	4.24
422.885	4.16
423.09	4.18
423.295	4.11
423.501	4.06
423.706	4.03
423.911	4.05
424.117	4.2
424.322	4.26
424.527	4.23
424.733	4.4
424.938	4.38
425.143	4.45
425.349	4.44
425.554	4.49
425.759	4.58
425.964	4.6
426.169	4.52
426.375	4.43
426.58	4.34
426.785	4.43
426.99	4.36
427.195	4.48
427.4	4.4
427.605	4.55
427.811	4.49
428.016	4.38
428.221	4.39
428.426	4.47
428.631	4.44
428.836	4.46
429.041	4.42
429.246	4.45
429.451	4.33
429.656	4.36
429.861	4.4
430.066	4.57
430.271	4.63
430.476	4.71
430.681	4.74
430.886	4.71
431.09	4.63
431.295	4.67
431.5	4.6
431.705	4.6
431.91	4.55
432.115	4.43
432.32	4.33
432.524	4.32
432.729	4.36
432.934	4.34
433.139	4.42
433.343	4.44
433.548	4.29
433.753	4.4
433.958	4.47
434.162	4.61
434.367	4.65
434.572	4.67
434.776	4.52
434.981	4.33
435.186	4.34
435.39	4.33
435.595	4.42
435.799	4.47
436.004	4.33
436.209	4.18
436.413	4.09
436.618	4.05
436.822	3.9
437.027	3.94
437.231	3.98
437.436	3.99
437.64	3.88
437.845	3.87
438.049	3.87
438.253	3.95
438.458	4.1
438.662	4.09
438.867	4.16
439.071	4.35
439.275	4.36
439.48	4.34
439.684	4.29
439.888	4.36
440.093	4.37
440.297	4.34
440.501	4.32
440.706	4.21
440.91	4.27
441.114	4.16
441.318	4.04
441.523	4.13
441.727	4.08
441.931	4.07
442.135	4.04
442.339	3.96
442.543	4.01
442.748	4.07
442.952	4.14
443.156	4.1
443.36	4.21
443.564	4.21
443.768	4.12
443.972	4.16
444.176	4.17
444.38	4.18
444.584	4.23
444.788	4.22
444.992	4.15
445.196	4.15
445.4	4.05
445.604	3.91
445.808	3.93
446.012	3.92
446.216	3.9
446.42	3.96
446.624	3.9
446.828	3.86
447.032	3.81
447.235	3.8
447.439	3.76
447.643	3.91
447.847	4
448.051	4.11
448.254	4.16
448.458	4.24
448.662	4.19
448.866	4.27
449.069	4.32
449.273	4.32
449.477	4.38
449.681	4.47
449.884	4.45
450.088	4.53
450.292	4.29
450.495	4.21
450.699	4.2
450.902	4.13
451.106	3.96
451.31	4.02
451.513	4.12
451.717	4.06
451.92	4.03
452.124	4.04
452.327	4.07
452.531	4.07
452.734	4.17
452.938	4.15
453.141	4.17
453.345	4.31
453.548	4.22
453.752	4.28
453.955	4.35
454.158	4.26
454.362	4.16
454.565	4.21
454.769	4.42
454.972	4.48
455.175	4.53
455.379	4.59
455.582	4.55
455.785	4.49
455.988	4.37
456.192	4.17
456.395	4.1
456.598	4.04
456.801	3.98
457.005	4.01
457.208	4.02
457.411	3.96
457.614	3.94
457.817	3.95
458.021	3.87
458.224	3.94
458.427	4.05
458.63	4.16
458.833	4.18
459.036	4.15
459.239	4.02
459.442	3.86
459.645	3.85
459.848	3.76
460.051	3.72
460.254	3.81
460.457	3.69
460.66	3.67
460.863	3.68
461.066	3.79
461.269	3.8
461.472	3.84
461.675	4
461.878	4.21
462.081	4.28
462.284	4.28
462.486	4.3
462.689	4.41
462.892	4.42
463.095	4.35
463.298	4.34
463.5	4.34
463.703	4.35
463.906	4.38
464.109	4.19
464.311	4.25
464.514	4.41
464.717	4.54
464.92	4.52
465.122	4.45
465.325	4.53
465.528	4.64
465.73	4.6
465.933	4.58
466.135	4.58
466.338	4.59
466.541	4.63
466.743	4.57
466.946	4.51
467.148	4.53
467.351	4.51
467.553	4.45
467.756	4.29
467.958	4.31
468.161	4.34
468.363	4.28
468.566	4.28
468.768	4.27
468.971	4.27
469.173	4.28
469.375	4.24
469.578	4.14
469.78	4.01
469.983	4.03
470.185	4
470.387	4.04
470.59	4.05
470.792	4.09
470.994	4.08
471.196	4.01
471.399	3.93
471.601	3.9
471.803	4.04
472.005	4.18
472.208	4.11
472.41	4.19
472.612	4.13
472.814	4.12
473.016	4.24
473.218	4.32
473.421	4.28
473.623	4.24
473.825	4.17
474.027	4.13
474.229	4.08
474.431	4.22
474.633	4.17
474.835	4.15
475.037	4.12
475.239	4.02
475.441	3.96
475.643	4.1
475.845	4.07
476.047	4.16
476.249	4.25
476.451	4.25
476.653	4.2
476.855	4.21
477.057	4.25
477.258	4.27
477.46	4.21
477.662	4.29
477.864	4.17
478.066	4.26
478.268	4.34
478.469	4.35
478.671	4.27
478.873	4.2
479.075	4.11
479.276	4.16
479.478	4.12
479.68	4.07
479.882	3.97
480.083	4.04
480.285	4.04
480.487	3.96
480.688	3.91
480.89	4.02
481.091	4.01
481.293	4
481.495	3.97
481.696	3.96
481.898	3.92
482.099	3.9
482.301	3.9
482.502	3.88
482.704	3.84
482.905	3.82
483.107	3.75
483.308	3.76
483.51	3.78
483.711	3.75
483.913	3.75
484.114	3.81
484.315	3.84
484.517	3.82
484.718	3.82
484.92	3.86
485.121	3.88
485.322	3.9
485.524	3.9
485.725	3.89
485.926	3.88
486.127	3.86
486.329	3.84
486.53	3.85
486.731	3.84
486.932	3.85
487.134	3.88
487.335	3.86
487.536	3.88
487.737	3.86
487.938	3.85
488.139	3.86
488.341	3.89
488.542	3.9
488.743	3.86
488.944	3.86
489.145	3.87
489.346	3.8
489.547	3.83
489.748	3.83
489.949	3.89
490.15	3.91
490.351	3.94
490.552	3.97
490.753	3.94
490.954	3.96
491.155	4.01
491.356	3.97
491.557	4.03
491.758	4.04
491.959	4.05
492.159	4.02
492.36	4.02
492.561	4.05
492.762	4.02
492.963	4.01
493.164	4
493.364	3.98
493.565	4.02
493.766	4.05
493.967	4.09
494.167	4.19
494.368	4.19
494.569	4.21
494.769	4.23
494.97	4.25
495.171	4.36
495.371	4.33
495.572	4.35
495.773	4.37
495.973	4.29
496.174	4.32
496.375	4.26
496.575	4.26
496.776	4.3
496.976	4.31
497.177	4.33
497.377	4.3
497.578	4.37
497.778	4.34
497.979	4.39
498.179	4.45
498.38	4.46
498.58	4.47
498.78	4.58
498.981	4.59
499.181	4.57
499.382	4.59
499.582	4.61
499.782	4.63
499.983	4.7
500.183	4.65
500.383	4.65
500.584	4.62
500.784	4.67
500.984	4.61
501.184	4.6
501.385	4.64
501.585	4.65
501.785	4.61
501.985	4.63
502.185	4.55
502.386	4.58
502.586	4.6
502.786	4.61
502.986	4.61
503.186	4.61
503.386	4.63
503.586	4.62
503.786	4.68
503.987	4.72
504.187	4.73
504.387	4.78
504.587	4.83
504.787	4.85
504.987	4.85
505.187	4.85
505.387	4.85
505.587	4.85
505.786	4.87
505.986	4.82
506.186	4.84
506.386	4.86
506.586	4.87
506.786	4.81
506.986	4.83
507.186	4.81
507.386	4.79
507.585	4.76
507.785	4.75
507.985	4.73
508.185	4.78
508.384	4.79
508.584	4.75
508.784	4.69
508.984	4.72
509.183	4.73
509.383	4.78
509.583	4.81
509.782	4.85
509.982	4.86
510.182	4.86
510.381	4.75
510.581	4.76
510.781	4.81
510.98	4.9
511.18	4.98
511.379	4.94
511.579	4.97
511.778	4.93
511.978	4.87
512.177	4.81
512.377	4.78
512.576	4.8
512.776	4.79
512.975	4.82
513.175	4.8
513.374	4.78
513.573	4.85
513.773	4.85
513.972	4.89
514.172	4.98
514.371	5.14
514.57	5.3
514.77	5.33
514.969	5.42
515.168	5.34
515.367	5.4
515.567	5.36
515.766	5.32
515.965	5.29
516.164	5.37
516.364	5.41
516.563	5.37
516.762	5.31
516.961	5.37
517.16	5.3
517.359	5.31
517.559	5.32
517.758	5.35
517.957	5.38
518.156	5.39
518.355	5.33
518.554	5.38
518.753	5.39
518.952	5.37
519.151	5.34
519.35	5.36
519.549	5.4
519.748	5.35
519.947	5.42
520.146	5.53
520.345	5.59
520.544	5.6
520.743	5.48
520.942	5.45
521.141	5.49
521.339	5.57
521.538	5.59
521.737	5.63
521.936	5.71
522.135	5.64
522.333	5.61
522.532	5.51
522.731	5.52
522.93	5.56
523.129	5.62
523.327	5.6
523.526	5.54
523.725	5.56
523.923	5.6
524.122	5.54
524.321	5.5
524.519	5.48
524.718	5.56
524.917	5.59
525.115	5.61
525.314	5.6
525.512	5.63
525.711	5.63
525.909	5.66
526.108	5.62
526.306	5.66
526.505	5.66
526.703	5.69
526.902	5.68
527.1	5.68
527.299	5.65
527.497	5.67
527.696	5.69
527.894	5.71
528.092	5.7
528.291	5.71
528.489	5.74
528.688	5.8
528.886	5.78
529.084	5.8
529.283	5.86
529.481	5.95
529.679	5.97
529.877	6.01
530.076	6.01
530.274	6.08
530.472	6.14
530.67	6.21
530.869	6.18
531.067	6.27
531.265	6.26
531.463	6.27
531.661	6.26
531.859	6.3
532.057	6.27
532.255	6.28
532.454	6.24
532.652	6.26
532.85	6.24
533.048	6.33
533.246	6.34
533.444	6.38
533.642	6.34
533.84	6.37
534.038	6.37
534.236	6.4
534.434	6.49
534.632	6.5
534.83	6.5
535.027	6.51
535.225	6.46
535.423	6.45
535.621	6.49
535.819	6.54
536.017	6.56
536.215	6.58
536.412	6.6
536.61	6.66
536.808	6.74
537.006	6.76
537.203	6.81
537.401	6.88
537.599	6.87
537.797	6.92
537.994	6.94
538.192	6.96
538.39	6.99
538.587	6.99
538.785	6.96
538.983	6.98
539.18	7.02
539.378	6.99
539.575	6.94
539.773	6.96
539.97	6.94
540.168	6.96
540.366	6.98
540.563	7.03
540.761	7.08
540.958	7.06
541.155	7.05
541.353	7.07
541.55	7.12
541.748	7.13
541.945	7.14
542.143	7.16
542.34	7.26
542.537	7.3
542.735	7.28
542.932	7.29
543.129	7.34
543.327	7.41
543.524	7.45
543.721	7.48
543.919	7.64
544.116	7.79
544.313	7.95
544.51	7.89
544.708	7.93
544.905	7.93
545.102	8.02
545.299	8.1
545.496	8.14
545.693	8.14
545.891	8.19
546.088	8.2
546.285	8.22
546.482	8.11
546.679	8.17
546.876	8.2
547.073	8.3
547.27	8.25
547.467	8.28
547.664	8.36
547.861	8.47
548.058	8.55
548.255	8.63
548.452	8.79
548.649	9.06
548.846	9.18
549.043	9.25
549.24	9.3
549.437	9.4
549.633	9.43
549.83	9.41
550.027	9.51
550.224	9.56
550.421	9.48
550.618	9.29
550.814	9.19
551.011	9.19
551.208	9.22
551.405	9.24
551.601	9.25
551.798	9.39
551.995	9.41
552.191	9.41
552.388	9.33
552.585	9.39
552.781	9.51
552.978	9.63
553.175	9.72
553.371	9.7
553.568	9.77
553.764	10.01
553.961	9.9
554.157	9.97
554.354	9.91
554.55	10.15
554.747	10.23
554.943	10.26
555.14	10.25
555.336	10.3
555.533	10.49
555.729	10.63
555.926	10.59
556.122	10.77
556.318	10.82
556.515	10.94
556.711	10.85
556.907	10.91
557.104	11.09
557.3	11.11
557.496	11.01
557.693	11
557.889	11.04
558.085	10.94
558.281	10.99
558.478	11.16
558.674	11.14
558.87	11.32
559.066	11.41
559.262	11.3
559.459	11.39
559.655	11.51
559.851	11.56
560.047	11.63
560.243	11.75
560.439	11.78
560.635	11.84
560.831	11.91
561.027	11.94
561.223	11.93
561.419	11.95
561.615	11.97
561.811	12.02
562.007	12.1
562.203	12.11
562.399	12.19
562.595	12.25
562.791	12.4
562.987	12.65
563.183	12.7
563.379	12.8
563.575	13
563.771	13.17
563.966	13.2
564.162	13.25
564.358	13.26
564.554	13.12
564.75	13.16
564.945	13.01
565.141	12.98
565.337	13.03
565.533	13.06
565.728	12.99
565.924	13.03
566.12	13.17
566.315	13.25
566.511	13.3
566.707	13.55
566.902	13.52
567.098	13.6
567.293	13.69
567.489	13.65
567.684	13.73
567.88	13.89
568.076	13.92
568.271	13.87
568.467	13.79
568.662	13.8
568.858	13.86
569.053	13.92
569.248	13.97
569.444	13.93
569.639	13.98
569.835	14
570.03	14.03
570.225	13.94
570.421	14.11
570.616	14.16
570.812	14.28
571.007	14.2
571.202	14.3
571.397	14.45
571.593	14.47
571.788	14.59
571.983	14.58
572.178	14.76
572.374	14.84
572.569	14.77
572.764	14.92
572.959	14.85
573.154	14.98
573.35	15.09
573.545	15.09
573.74	15.09
573.935	15
574.13	15.03
574.325	14.86
574.52	14.94
574.715	15.11
574.91	15.1
575.105	15.25
575.3	15.31
575.495	15.3
575.69	15.37
575.885	15.59
576.08	15.77
576.275	15.75
576.47	15.91
576.665	15.99
576.86	15.97
577.055	15.9
577.25	15.91
577.444	16.08
577.639	16.27
577.834	16.17
578.029	16.1
578.224	16.01
578.418	16.31
578.613	16.46
578.808	16.44
579.003	16.41
579.197	16.61
579.392	16.63
579.587	16.55
579.781	16.39
579.976	16.54
580.171	16.45
580.365	16.61
580.56	16.54
580.755	16.44
580.949	16.46
581.144	16.43
581.338	16.39
581.533	16.49
581.727	16.49
581.922	16.49
582.116	16.51
582.311	16.79
582.505	16.86
582.7	16.81
582.894	16.95
583.089	17.01
583.283	17.21
583.478	17.39
583.672	17.42
583.866	17.51
584.061	17.53
584.255	17.36
584.449	17.29
584.644	17.35
584.838	17.32
585.032	17.3
585.226	17.38
585.421	17.5
585.615	17.38
585.809	17.29
586.003	17.4
586.198	17.57
586.392	17.74
586.586	17.67
586.78	17.61
586.974	17.86
587.168	17.67
587.363	17.62
587.557	17.36
587.751	17.35
587.945	17.51
588.139	17.42
588.333	17.36
588.527	17.47
588.721	17.66
588.915	17.73
589.109	17.79
589.303	17.97
589.497	17.93
589.691	18.12
589.885	18.22
590.079	18.1
590.273	18.12
590.466	18.15
590.66	18.11
590.854	18.04
591.048	18.02
591.242	17.96
591.436	17.94
591.629	18.08
591.823	18.07
592.017	18.04
592.211	18.05
592.404	18.01
592.598	18.08
592.792	18.09
592.986	18.14
593.179	18.19
593.373	18.15
593.567	18.16
593.76	18.09
593.954	18.12
594.147	18.34
594.341	18.43
594.535	18.55
594.728	18.51
594.922	18.45
595.115	18.45
595.309	18.56
595.502	18.62
595.696	18.72
595.889	18.71
596.083	18.76
596.276	18.67
596.47	18.72
596.663	18.69
596.856	18.76
597.05	18.9
597.243	18.9
597.437	18.96
597.63	18.97
597.823	19.01
598.017	19.17
598.21	19.27
598.403	19.17
598.596	19.12
598.79	19.04
598.983	19.05
599.176	18.9
599.369	19.04
599.563	18.97
599.756	18.92
599.949	18.97
600.142	19
600.335	18.98
600.528	19.06
600.722	19.3
600.915	19.62
601.108	19.73
601.301	20
601.494	20.03
601.687	19.96
601.88	19.98
602.073	19.95
602.266	19.95
602.459	19.77
602.652	19.75
602.845	19.74
603.038	19.6
603.231	19.52
603.424	19.46
603.617	19.38
603.809	19.38
604.002	19.39
604.195	19.41
604.388	19.39
604.581	19.56
604.774	19.69
604.966	19.4
605.159	19.43
605.352	19.43
605.545	19.52
605.737	19.55
605.93	19.67
606.123	19.73
606.316	19.78
606.508	19.9
606.701	19.96
606.894	19.98
607.086	20.34
607.279	20.37
607.471	20.42
607.664	20.44
607.857	20.32
608.049	20.41
608.242	20.43
608.434	20.38
608.627	20.3
608.819	20.17
609.012	20.17
609.204	20.11
609.397	20.11
609.589	20.18
609.782	20.11
609.974	20.28
610.166	20.22
610.359	20.25
610.551	20.26
610.743	20.29
610.936	20.46
611.128	20.46
611.32	20.38
611.513	20.37
611.705	20.27
611.897	20.25
612.09	20.36
612.282	20.51
612.474	20.46
612.666	20.57
612.858	20.8
613.051	20.86
613.243	20.77
613.435	20.79
613.627	20.74
613.819	20.86
614.011	21.67
614.203	21.69
614.395	21.58
614.588	21.62
614.78	21.48
614.972	21.43
615.164	21.42
615.356	21.5
615.548	21.45
615.74	21.59
615.932	21.68
616.124	20.99
616.315	21.21
616.507	21.34
616.699	21.46
616.891	21.56
617.083	21.62
617.275	21.5
617.467	21.61
617.659	21.86
617.85	21.99
618.042	21.8
618.234	21.79
618.426	21.37
618.618	21.32
618.809	21.24
619.001	21.21
619.193	21.14
619.384	21.17
619.576	21.22
619.768	21.1
619.959	20.96
620.151	21.09
620.343	21.13
620.534	21.2
620.726	21.03
620.917	21.08
621.109	21.08
621.301	21.15
621.492	21.27
621.684	21.08
621.875	21.19
622.067	21.21
622.258	21.07
622.45	21.12
622.641	21.13
622.832	21.19
623.024	21.05
623.215	21.1
623.407	20.9
623.598	20.86
623.789	20.94
623.981	20.72
624.172	20.77
624.363	20.99
624.555	21.06
624.746	20.99
624.937	21.12
625.129	21.24
625.32	21.11
625.511	21.31
625.702	21.26
625.893	21.39
626.085	21.56
626.276	21.52
626.467	21.41
626.658	21.12
626.849	21.27
627.04	21.18
627.231	21.11
627.422	21.14
627.614	20.87
627.805	20.83
627.996	20.74
628.187	20.66
628.378	20.62
628.569	20.68
628.76	20.88
628.951	20.81
629.142	20.81
629.332	21
629.523	21.12
629.714	21.27
629.905	21.46
630.096	21.46
630.287	21.59
630.478	21.69
630.669	21.6
630.859	21.8
631.05	21.85
631.241	21.78
631.432	21.79
631.623	21.83
631.813	21.76
632.004	21.54
632.195	21.39
632.385	21.42
632.576	21.42
632.767	21.46
632.957	21.42
633.148	21.46
633.339	21.27
633.529	21.17
633.72	21.11
633.91	21.18
634.101	21.31
634.292	21.55
634.482	21.55
634.673	21.65
634.863	21.61
635.054	21.7
635.244	21.54
635.435	21.84
635.625	21.67
635.815	21.61
636.006	21.62
636.196	21.51
636.387	21.45
636.577	21.65
636.767	21.59
636.958	21.71
637.148	21.52
637.338	21.8
637.529	21.91
637.719	22.31
637.909	22.42
638.099	22.42
638.29	22.53
638.48	22.68
638.67	22.43
638.86	22.48
639.05	22.52
639.241	22.88
639.431	22.69
639.621	22.61
639.811	22.34
640.001	22.28
640.191	22.33
640.381	22.32
640.571	22.32
640.761	22.16
640.951	21.95
641.141	22
641.331	21.67
641.521	21.83
641.711	21.86
641.901	22.01
642.091	22.12
642.281	22.13
642.471	22.12
642.661	22.13
642.851	22.47
643.041	22.29
643.231	22.32
643.42	22.12
643.61	22.05
643.8	22.09
643.99	22.05
644.18	21.88
644.369	22.14
644.559	22.36
644.749	22.23
644.939	21.95
645.128	22.07
645.318	21.99
645.508	22.2
645.697	22.38
645.887	22.2
646.076	22.06
646.266	22.26
646.456	22.26
646.645	22.4
646.835	22.37
647.024	22.48
647.214	22.78
647.403	22.68
647.593	22.69
647.782	22.73
647.972	22.93
648.161	23.09
648.351	22.99
648.54	22.75
648.73	22.52
648.919	22.46
649.108	22.4
649.298	22.31
649.487	22.52
649.677	22.51
649.866	22.26
650.055	22.19
650.244	22.45
650.434	22.53
650.623	22.52
650.812	22.31
651.002	22.24
651.191	22.39
651.38	22.6
651.569	22.39
651.758	22.21
651.947	22.28
652.137	22.27
652.326	21.91
652.515	21.97
652.704	21.96
652.893	22.04
653.082	22.51
653.271	22.65
653.46	22.4
653.649	22.53
653.838	22.67
654.027	22.87
654.216	22.86
654.405	23.04
654.594	22.85
654.783	22.93
654.972	23.04
655.161	22.92
655.35	22.48
655.539	22.47
655.728	22.31
655.916	22.45
656.105	22.26
656.294	22.5
656.483	22.5
656.672	22.84
656.86	22.82
657.049	22.75
657.238	22.57
657.427	22.76
657.615	22.79
657.804	22.97
657.993	22.92
658.181	22.79
658.37	22.62
658.559	22.53
658.747	22.34
658.936	22.55
659.125	22.66
659.313	22.79
659.502	22.81
659.69	22.87
659.879	22.91
660.067	22.99
660.256	23.25
660.444	23.4
660.633	23.57
660.821	23.8
661.01	23.45
661.198	23.33
661.387	23.36
661.575	23.41
661.763	23.7
661.952	23.54
662.14	23.58
662.328	23.26
662.517	23.1
662.705	22.79
662.893	22.47
663.082	22.76
663.27	22.95
663.458	22.78
663.646	22.64
663.834	22.47
664.023	22.54
664.211	22.73
664.399	23.2
664.587	23.09
664.775	23.14
664.963	23.34
665.152	23.37
665.34	23.48
665.528	23.46
665.716	23.61
665.904	23.55
666.092	23.65
666.28	23.4
666.468	23.13
666.656	23.49
666.844	23.95
667.032	24.27
667.22	24.44
667.408	24.31
667.596	24.54
667.784	24.47
667.971	24.75
668.159	24.65
668.347	24.79
668.535	24.75
668.723	24.66
668.911	24.47
669.098	24.21
669.286	24.08
669.474	23.9
669.662	23.85
669.849	23.97
670.037	23.78
670.225	23.63
670.413	23.47
670.6	23.62
670.788	23.63
670.976	23.51
671.163	23.36
671.351	23.41
671.538	23.67
671.726	23.52
671.913	23.47
672.101	23.16
672.289	23.14
672.476	22.84
672.664	22.95
672.851	22.9
673.039	22.87
673.226	22.73
673.413	22.02
673.601	21.9
673.788	21.98
673.976	21.92
674.163	21.95
674.35	21.95
674.538	22.17
674.725	22.01
674.912	21.95
675.1	21.87
675.287	22.22
675.474	22.71
675.662	23.17
675.849	23.22
676.036	23.04
676.223	23.47
676.411	23.5
676.598	23.53
676.785	23.8
676.972	23.74
677.159	24.21
677.346	24.01
677.533	24.09
677.721	23.88
677.908	24.07
678.095	24.39
678.282	24.02
678.469	24.32
678.656	24.56
678.843	24.36
679.03	24.46
679.217	24.49
679.404	24.56
679.591	24.53
679.778	24.37
679.964	24.12
680.151	23.82
680.338	23.7
680.525	23.65
680.712	23.52
680.899	23.44
681.086	23.67
681.272	23.29
681.459	23.37
681.646	23.23
681.833	23.22
682.02	23.32
682.206	23.79
682.393	24.21
682.58	24.1
682.766	24.12
682.953	24.22
683.14	23.93
683.326	24.59
683.513	24.63
683.7	24.68
683.886	24.56
684.073	24.76
684.259	24.49
684.446	24.13
684.632	24.37
684.819	24.39
685.005	24.5
685.192	24.44
685.378	24.08
685.565	24.05
685.751	23.96
685.938	24.28
686.124	24.16
686.31	24.14
686.497	24.5
686.683	24.13
686.87	23.99
687.056	23.8
687.242	23.66
687.429	23.58
687.615	23.49
687.801	23.87
687.987	23.79
688.174	23.78
688.36	23.77
688.546	23.8
688.732	23.84
688.918	23.86
689.105	24.16
689.291	24.31
689.477	24.51
689.663	24.96
689.849	24.51
690.035	24.45
690.221	24.51
690.407	25.07
690.593	24.83
690.779	25.11
690.965	25.42
691.151	25.52
691.337	25.4
691.523	25.02
691.709	24.76
691.895	25.31
692.081	25.21
692.267	25.26
692.453	24.95
692.639	24.82
692.825	24.66
693.011	24.18
693.196	23.79
693.382	24.06
693.568	24.06
693.754	23.67
693.94	23.4
694.125	23.59
694.311	23.53
694.497	23.13
694.682	23.38
694.868	23.62
695.054	23.81
695.239	24.18
695.425	23.95
695.611	24.3
695.796	24.65
695.982	24.67
696.168	24.26
696.353	24.12
696.539	24.38
696.724	24.32
696.91	24.09
697.095	24.33
697.281	24.2
697.466	24.5
697.652	24.36
697.837	24.11
698.023	24.12
698.208	24.35
698.393	24.23
698.579	24.19
698.764	24.1
698.949	24.01
699.135	23.72
699.32	23.67
699.505	23.46
699.691	23.29
699.876	23.28
700.061	23.32
700.246	23.26
700.432	23.55
700.617	23.35
700.802	23.37
700.987	23.54
701.172	24.07
701.358	24.25
701.543	24.32
701.728	24.68
701.913	24.59
702.098	24.83
702.283	25.19
702.468	25.04
702.653	25.48
702.838	25.97
703.023	26.33
703.208	25.66
703.393	25.58
703.578	25.64
703.763	25.48
703.948	25.62
704.133	25.42
704.318	25.07
704.503	25.28
704.688	25.18
704.873	25.13
705.057	24.78
705.242	25.28
705.427	25.22
705.612	25.23
705.797	25.5
705.981	25.71
706.166	25.78
706.351	25.64
706.536	25.69
706.72	25.53
706.905	25.25
707.09	25.2
707.274	24.88
707.459	24.79
707.644	24.72
707.828	24.5
708.013	24.6
708.197	24.77
708.382	25.26
708.567	25.31
708.751	25.22
708.936	24.87
709.12	25.16
709.305	25.39
709.489	25.91
709.673	25.76
709.858	25.84
710.042	25.78
710.227	25.19
710.411	24.91
710.596	24.82
710.78	25.28
710.964	25.77
711.149	25.84
711.333	25.8
711.517	25.27
711.702	25.41
711.886	25.29
712.07	25.49
712.254	26.07
712.438	26.49
712.623	26.61
712.807	25.99
712.991	26.06
713.175	25.58
713.359	25.38
713.544	25.29
713.728	25.18
713.912	25.26
714.096	25.18
714.28	24.74
714.464	24.38
714.648	24.21
714.832	24.44
715.016	25.02
715.2	25.3
715.384	25.31
715.568	25.85
715.752	25.99
715.936	25.98
716.12	25.81
716.304	26.29
716.488	26.26
716.671	26.44
716.855	26.24
717.039	25.55
717.223	25.45
717.407	25.9
717.59	25.67
717.774	25.69
717.958	25.29
718.142	25.31
718.325	24.76
718.509	24.65
718.693	24.53
718.877	24.83
719.06	24.63
719.244	25
719.428	24.36
719.611	24.66
719.795	24.52
719.978	25.17
720.162	25.27
720.345	25.83
720.529	26.45
720.713	26.62
720.896	26.75
721.08	27.18
721.263	26.96
721.446	27.67
721.63	27.12
721.813	27.07
721.997	26.82
722.18	26.85
722.364	26.32
722.547	25.99
722.73	26.06
722.914	26.43
723.097	26.14
723.28	26.37
723.464	25.88
723.647	25.64
723.83	25.22
724.013	24.99
724.197	25.21
724.38	26.04
724.563	26.27
724.746	25.86
724.929	26.27
725.112	26.12
725.296	26.3
725.479	26.1
725.662	26.41
725.845	27.36
726.028	27.24
726.211	26.88
726.394	26.25
726.577	25.78
726.76	26.33
726.943	25.72
727.126	25.41
727.309	25.05
727.492	25.34
727.675	25.48
727.858	24.68
728.041	25.39
728.224	25.66
728.407	25.54
728.589	25.95
728.772	25.52
728.955	25.42
729.138	25.55
729.321	25.31
729.503	26.15
729.686	26.33
729.869	26.87
730.052	26.54
730.234	26.61
730.417	26.69
730.6	26.98
730.782	26.87
730.965	26.7
731.148	27.45
731.33	27.66
731.513	26.89
731.695	26.84
731.878	26.56
732.061	26.24
732.243	26.29
732.426	26.01
732.608	25.93
732.791	26.11
732.973	26.3
733.156	25.8
733.338	26.16
733.52	26.11
733.703	25.61
733.885	26.19
734.068	26.63
734.25	26.39
734.432	26.65
734.615	26.3
734.797	25.84
734.979	25.86
735.162	25.58
735.344	25.18
735.526	25.1
735.708	25.39
735.891	25.23
736.073	25.17
736.255	25.64
736.437	25.14
736.619	24.99
736.802	25.85
736.984	26.12
737.166	27.01
737.348	26.51
737.53	26.69
737.712	26.53
737.894	25.71
738.076	26.29
738.258	25.83
738.44	26.27
738.622	26.7
738.804	26.83
738.986	26.46
739.168	25.56
739.35	26.09
739.532	25.82
739.714	26.84
739.896	27.21
740.078	26.65
740.259	26.19
740.441	26.92
740.623	26.59
740.805	26.12
740.987	27.12
741.168	27.25
741.35	27.15
741.532	27.75
741.714	26.75
741.895	27.12
742.077	26.62
742.259	27.06
742.44	26.99
742.622	26.97
742.804	27.08
742.985	26.35
743.167	26.26
743.348	26.54
743.53	26.24
743.711	26.12
743.893	26.02
744.075	26.37
744.256	26.53
744.438	26.46
744.619	27.01
744.8	26.68
744.982	26.35
745.163	26.59
745.345	27.03
745.526	27.76
745.707	27.89
745.889	28.12
746.07	27.99
746.252	28.26
746.433	27.74
746.614	27.71
746.795	28.18
746.977	28.34
747.158	28.04
747.339	27.69
747.52	27.17
747.702	27.31
747.883	27.21
748.064	27
748.245	27.07
748.426	27.06
748.607	26.87
748.788	25.89
748.97	26.33
749.151	26.54
749.332	27.02
749.513	27.15
749.694	27.01
749.875	28.03
750.056	28.18
750.237	26.92
750.418	26.7
750.599	26.1
750.78	26.18
750.96	25.49
751.141	25.97
751.322	25.09
751.503	24.91
751.684	25.23
751.865	23.22
752.046	24.04
752.226	24.81
752.407	25.36
752.588	26.07
752.769	26.8
752.949	26.75
753.13	26.9
753.311	26.52
753.492	26.2
753.672	26.67
753.853	28.38
754.034	27.82
754.214	29.12
754.395	28.55
754.575	28.75
754.756	28.09
754.937	28.78
755.117	28.19
755.298	28.8
755.478	29.2
755.659	28.49
755.839	27.8
756.02	27.78
756.2	26.57
756.381	26.95
756.561	26.61
756.741	27.84
756.922	27.58
757.102	28.45
757.283	28.41
757.463	28.17
757.643	28.5
757.823	28.93
758.004	28.99
758.184	28.9
758.364	29.18
758.545	29.09
758.725	28.21
758.905	28.3
759.085	27.97
759.265	27.78
759.446	27.56
759.626	27.83
759.806	26.95
759.986	27.33
760.166	27.38
760.346	26.82
760.526	27
760.706	27.33
760.886	27.19
761.066	27.64
761.246	28.26
761.426	28.05
761.606	27.07
761.786	27.15
761.966	26.49
762.146	26.76
762.326	27.06
762.506	26.69
762.686	26.41
762.866	26.54
763.046	25.72
763.225	25.4
763.405	25.4
763.585	25.47
763.765	25.18
763.945	24.89
764.124	24.42
764.304	24.48
764.484	25.08
764.664	25.42
764.843	25.06
765.023	25.32
765.203	25
765.382	25.14
765.562	25.75
765.741	26.32
765.921	27.56
766.101	27.96
766.28	27.79
766.46	27.39
766.639	27.06
766.819	27.06
766.998	27.17
767.178	27.39
767.357	27.08
767.537	27.19
767.716	27.1
767.896	26.27
768.075	26.34
768.254	26.13
768.434	26.63
768.613	26.77
768.792	26.83
768.972	27.64
769.151	27.6
769.33	28.23
769.51	29.37
769.689	29.55
769.868	29.84
770.047	30.23
770.226	30.85
770.406	30.51
770.585	31.17
770.764	31.06
770.943	29.59
771.122	30.13
771.301	30.59
771.48	29.52
771.66	29.59
771.839	29.54
772.018	28.88
772.197	27.96
772.376	28.06
772.555	28.09
772.734	28.89
772.913	28.93
773.092	28.37
773.271	27.21
773.449	26.64
773.628	26.5
773.807	26.68
773.986	26.72
774.165	27.19
774.344	27.01
774.523	26.1
774.701	25.65
774.88	26.58
775.059	26.3
775.238	26.9
775.417	27.69
775.595	28.54
775.774	28.67
775.953	28.79
776.131	28.76
776.31	28.18
776.489	28.28
776.667	28.62
776.846	27.81
777.025	28
777.203	27.92
777.382	27.14
777.56	26.36
777.739	26.95
777.917	27.56
778.096	28.1
778.274	28.37
778.453	28.98
778.631	28.83
778.81	29.27
778.988	29.53
779.166	29.61
779.345	29.79
779.523	29.69
779.702	29.33
779.88	28.29
780.058	27.23
780.237	28.09
780.415	28.35
780.593	28.61
780.771	28.94
780.95	30.96
781.128	31.72
781.306	31.97
781.484	32.91
781.662	33.16
781.841	33.72
782.019	34.48
782.197	32.85
782.375	31.51
782.553	30.46
782.731	30.4
782.909	29.01
783.087	29.29
783.265	29.08
783.443	27.08
783.621	26.56
783.799	26.43
783.977	28.13
784.155	29.58
784.333	30.58
784.511	31.56
784.689	30.54
784.867	29.47
785.045	27.97
785.223	28.59
785.4	29.72
785.578	29.73
785.756	30.08
785.934	27.5
786.112	27.1
786.289	26.99
786.467	26.75
786.645	28
786.823	29.02
787	29.44
787.178	28.83
787.356	29.16
787.533	29.01
787.711	28.82
787.889	29.54
788.066	28.65
788.244	28.12
788.421	28.34
788.599	28.39
788.776	28.09
788.954	28.65
789.131	28.42
789.309	28.8
789.486	29.31
789.664	30.21
789.841	31.44
790.019	32.27
790.196	32.43
790.373	31.9
790.551	32.89
790.728	32.76
790.906	32.77
791.083	32.43
791.26	32.06
791.437	32.2
791.615	30.93
791.792	29.38
791.969	29.34
792.146	29.94
792.324	30.05
792.501	29.52
792.678	30.39
792.855	29.57
793.032	30.29
793.209	30.82
793.387	30.6
793.564	30.8
793.741	31.13
793.918	31.26
794.095	31.6
794.272	31.89
794.449	30.42
794.626	30.35
794.803	31.21
794.98	30.8
795.157	30.18
795.334	30.07
795.511	29.87
795.688	30.39
795.864	30
796.041	30.5
796.218	30.85
796.395	31.6
796.572	30.32
796.749	29.9
796.925	29.59
797.102	30.82
797.279	30.49
797.456	30.14
797.632	29.29
797.809	29.4
797.986	28.71
798.162	27.39
798.339	27.02
798.516	27.88
798.692	28.71
798.869	28.61
799.046	27.36
799.222	28.02
799.399	27.59
799.575	28.05
799.752	28.59
799.928	28.71
800.105	29.24
800.281	30.08
800.458	28.86
800.634	28.41
800.811	29.6
800.987	29.27
801.163	28.93
801.34	30.05
801.516	31.35
801.692	31.45
801.869	31.08
802.045	32.37
802.221	31.98
802.398	33.14
802.574	32.14
802.75	32.29
802.926	32.95
803.103	33.44
803.279	32.75
803.455	31.85
803.631	31.9
803.807	32.48
803.983	32.73
804.16	33.66
804.336	32.91
804.512	33.99
804.688	35.16
804.864	36.51
805.04	36.5
805.216	37.42
805.392	37.23
805.568	37.86
805.744	38.66
805.92	37.53
806.096	37.15
806.272	37.12
806.448	38.03
806.623	37.3
806.799	36.47
806.975	35.71
807.151	36.29
807.327	35.35
807.503	34.08
807.678	33.14
807.854	34.21
808.03	33.65
808.206	34.03
808.381	32.75
808.557	33.06
808.733	32.43
808.908	33.3
809.084	33.76
809.26	34.58
809.435	35.24
809.611	34.64
809.787	33.55
809.962	33.32
810.138	33.44
810.313	34.35
810.489	34.59
810.664	35.17
810.84	33.33
811.015	32.91
811.191	33.82
811.366	34.67
811.542	35.71
811.717	35.69
811.892	37.8
812.068	38.66
812.243	36.28
812.419	36.01
812.594	35.29
812.769	37.09
812.944	37.02
813.12	36.31
813.295	35.72
813.47	35.05
813.645	36.17
813.821	34.02
813.996	32.9
814.171	35.56
814.346	34.94
814.521	35.18
814.697	36.31
814.872	35.14
815.047	36.18
815.222	36.15
815.397	36.44
815.572	37.28
815.747	38.91
815.922	38.44
816.097	37.65
816.272	36.89
816.447	38.37
816.622	37.89
816.797	38.32
816.972	36.85
817.147	35.55
817.322	35.7
817.496	33.36
817.671	32.37
817.846	33.27
818.021	31.21
818.196	31.16
818.371	29.13
818.545	29.44
818.72	29.66
818.895	31.58
819.069	32.39
819.244	31.72
819.419	32.07
819.594	31.47
819.768	31.12
819.943	31.78
820.117	31.62
820.292	31.55
820.467	30.32
820.641	29.88
820.816	29
820.99	28.38
821.165	28.02
821.339	27.84
821.514	27.68
821.688	27.56
821.863	27.19
822.037	26.81
822.212	26.7
822.386	26.55
822.56	26.51
822.735	26.29
822.909	26.22
823.084	26.38
823.258	26.11
823.432	26.01
823.606	25.87
823.781	26.05
823.955	26.18
824.129	26.08
824.303	26.49
824.478	26.22
824.652	26.12
824.826	26.18
825	26.2
825.174	26.33
825.348	26.08
825.523	25.97
825.697	25.52
825.871	25.54
826.045	25.4
826.219	25.12
826.393	25.19
826.567	25.69
826.741	26.45
826.915	25.92
827.089	26.81
827.263	27.33
827.437	27.64
827.611	28.55
827.784	28.61
827.958	29.16
828.132	29.66
828.306	30.2
828.48	30.35
828.654	29.79
828.827	30.55
829.001	30.06
829.175	30.57
829.349	31.69
829.522	31.39
829.696	31.7
829.87	31.9
830.044	32.56
830.217	32.6
830.391	32.04
830.565	31.87
830.738	32.33
830.912	32.23
831.085	31.5
831.259	31.3
831.432	31.36
831.606	32.05
831.779	30.96
831.953	29.97
832.126	29.18
832.3	28.21
832.473	29.14
832.647	28.32
832.82	28.78
832.994	28.8
833.167	28.66
833.34	29.15
833.514	28.64
833.687	28.29
833.86	28.25
834.034	29.04
834.207	29.91
834.38	30.08
834.553	30.84
834.727	30.39
834.9	30.21
835.073	30.28
835.246	30.06
835.419	31.58
835.593	33.12
835.766	33.68
835.939	34.18
836.112	34.07
836.285	34.14
836.458	34.41
836.631	34.84
836.804	36.44
836.977	35.04
837.15	35.42
837.323	33.46
837.496	34.27
837.669	32.63
837.842	32.13
838.015	32.88
838.188	33.8
838.361	33.46
838.533	32.65
838.706	32.72
838.879	34.21
839.052	35.05
839.225	35.56
839.398	33.44
839.57	35.34
839.743	36.52
839.916	36.21
840.088	35.57
840.261	34.97
840.434	37.59
840.607	37.47
840.779	40.35
840.952	39.95
841.124	38.95
841.297	40.21
841.47	39.14
841.642	36.91
841.815	40.08
841.987	39.43
842.16	41.32
842.332	39.77
842.505	39.51
842.677	36.92
842.85	37.92
843.022	40.86
843.194	43.09
843.367	47.67
843.539	46.16
843.712	42.13
843.884	43.53
844.056	42.94
844.229	42.71
844.401	44.76
844.573	46.52
844.745	47.5
844.918	43.71
845.09	42.29
845.262	41.5
845.434	44.88
845.606	48.04
845.779	47.02
845.951	47.23
846.123	51.42
846.295	48.95
846.467	46.59
846.639	46.13
846.811	48.37
846.983	46.81
847.155	44.71
847.327	48.88
847.499	47.64
847.671	48.25
847.843	47.58
848.015	45.31
848.187	46.68
848.359	45.73
848.531	44.67
848.703	42.96
848.875	44.79
849.047	41.26
849.218	36.78
849.39	37.45
849.562	38.85
849.734	40.82
849.905	43.79
850.077	44.52
850.249	43.23
850.421	46.23
850.592	45.6
850.764	45.4
850.936	47.29
851.107	48.98
851.279	46.58
851.451	48.01
851.622	48.5
851.794	44.08
851.965	47.39
852.137	49.3
852.308	47.73
852.48	54.63
852.651	55.93
852.823	57.92
852.994	56.1
853.166	56.99
853.337	56.34
853.509	54.16
853.68	57.72
853.851	54.39
854.023	53.48
854.194	54.75
854.365	53.28
854.537	51.03
854.708	53.69
854.879	55.29
855.05	59.42
855.222	58.41
855.393	60.09
855.564	58.5
855.735	56.91
855.906	60.12
856.078	58.12
856.249	58.05
856.42	59.47
856.591	54.6
856.762	57.22
856.933	51.79
857.104	47.63
857.275	46.46
857.446	46.33
857.617	52.13
857.788	49.88
857.959	51.6
858.13	51.43
858.301	53.49
858.472	54.22
858.643	51.01
858.814	52.87
858.985	57.78
859.155	59.08
859.326	63.06
859.497	59.75
859.668	59.84
859.839	57.35
860.009	53.21
860.18	50
860.351	48.73
860.522	51.94
860.692	53.1
860.863	52.39
861.034	57.64
861.204	57.09
861.375	53.95
861.546	55.18
861.716	53.97
861.887	56.06
862.057	59.73
862.228	64
862.398	56.99
862.569	54.72
862.739	61.46
862.91	53.48
863.08	52.3
863.251	52.9
863.421	54.1
863.592	55.01
863.762	58.52
863.932	56.55
864.103	53.32
864.273	56.16
864.443	58.18
864.614	50.62
864.784	54.28
864.954	51.06
865.125	56.81
865.295	55.05
865.465	58
865.635	58.18
865.805	61.23
865.976	65.97
866.146	70.64
866.316	67.4
866.486	68.65
866.656	68.36
866.826	66.64
866.996	65.5
867.166	66.93
867.336	67.3
867.506	68.17
867.676	63.19
867.846	59.92
868.016	54.45
868.186	53.46
868.356	50.44
868.526	43.72
868.696	44.86
868.866	44.11
869.036	41.09
869.206	38.22
869.376	34.92
869.545	31.82
869.715	32.68
869.885	34
870.055	38.24
870.224	45.56
870.394	50.4
870.564	54.06
870.734	50.46
870.903	48.2
871.073	50.72
871.243	51.48
871.412	56.95
871.582	61.61
871.751	67.59
871.921	67.44
872.091	64.02
872.26	64.21
872.43	58.11
872.599	59.18
872.769	62.5
872.938	62.56
873.108	65.03
873.277	62.99
873.446	53.78
873.616	49.92
873.785	55.2
873.955	52.74
874.124	54.99
874.293	61.94
874.463	59.3
874.632	58.55
874.801	57.74
874.971	54.51
875.14	54.61
875.309	56.44
875.478	54.32
875.647	47.64
875.817	47.82
875.986	49.26
876.155	46.35
876.324	46.07
876.493	46.21
876.662	44.2
876.831	43.67
877	47.32
877.17	50.2
877.339	53.56
877.508	56.74
877.677	58.02
877.846	55.99
878.015	56
878.184	53.13
878.352	50.88
878.521	52.14
878.69	55.02
878.859	55.32
879.028	51.43
879.197	47.67
879.366	41.83
879.534	42.29
879.703	40.62
879.872	40.76
880.041	42.48
880.21	41.88
880.378	40.82
880.547	37.21
880.716	35.88
880.884	35.82
881.053	35.69
881.222	36.31
881.39	35.42
881.559	35.18
881.727	34.09
881.896	33.42
882.065	32.37
882.233	32.62
882.402	32.32
882.57	31.92
882.739	31.7
882.907	31.9
883.076	31.35
883.244	31.31
883.412	31.01
883.581	31.8
883.749	31.28
883.918	33.03
884.086	33.73
884.254	35.52
884.423	35.69
884.591	36.12
884.759	36.94
884.927	37.74
885.096	38.21
885.264	40.54
885.432	41.04
885.6	42.86
885.769	41.38
885.937	41.57
886.105	41.91
886.273	43.48
886.441	46.08
886.609	44.48
886.777	44.27
886.945	47.15
887.113	46.95
887.281	49.63
887.449	51.38
887.617	51.25
887.785	51.3
887.953	53.72
888.121	51.52
888.289	50.52
888.457	55.4
888.625	56.33
888.793	52.27
888.961	49.93
889.129	46.99
889.296	49.89
889.464	53.37
889.632	52.97
889.8	48.37
889.967	51.01
890.135	51.5
