Data from 2938573_Reflection_2.txt Node
Date: Sun Jun 14 21:49:55 EDT 2015
User: robert
Spectrometer: USB4E03002
Autoset integration time: false
Trigger mode: 4
Integration Time (sec): 1.000000E-1
Scans to average: 10
Electric dark correction enabled: true
Nonlinearity correction enabled: false
Boxcar width: 5
Stray light correction enabled: false
XAxis mode: Wavelengths
Stop averaging: false
Number of Pixels in Spectrum: 3648
>>>>>Begin Spectral Data<<<<<
177.575	378.04
177.794	540.72
178.014	7697.4
178.233	-20009.37
178.452	-1365.02
178.672	-853.71
178.891	0.18
179.11	260.82
179.33	196.54
179.549	315.47
179.768	586.46
179.987	430.23
180.207	488.5
180.426	833.55
180.645	865.67
180.864	457.24
181.084	444.31
181.303	565.34
181.522	366.6
181.741	382.62
181.96	283.53
182.179	297.4
182.398	280.38
182.618	288.48
182.837	221.94
183.056	180.32
183.275	218.93
183.494	272.43
183.713	273.53
183.932	258.87
184.151	251.92
184.37	291.01
184.589	263.94
184.808	255.57
185.027	249.22
185.246	329.01
185.465	341.18
185.684	343.36
185.903	381.74
186.122	318.93
186.341	357.34
186.56	346.59
186.779	287.55
186.998	257.89
187.216	288.43
187.435	273.13
187.654	274.9
187.873	305.7
188.092	380.37
188.311	313.99
188.53	373.26
188.748	438.36
188.967	950.02
189.186	763.42
189.405	-2916.86
189.623	-67825
189.842	-1042.89
190.061	-1034.23
190.28	-1270.86
190.498	-2415.01
190.717	-5896.12
190.936	1944.77
191.154	2093.7
191.373	716.7
191.592	1473.87
191.81	449.9
192.029	546.96
192.248	381.2
192.466	296.75
192.685	241.86
192.904	286.04
193.122	286.3
193.341	262.37
193.559	242.63
193.778	272.74
193.996	265.06
194.215	299.78
194.433	269.73
194.652	254.8
194.87	285.73
195.089	277.77
195.307	218.98
195.526	228.2
195.744	268.62
195.963	254.56
196.181	294.63
196.399	315.59
196.618	274.66
196.836	254.92
197.055	265.33
197.273	272.77
197.491	321.48
197.71	374.45
197.928	347.99
198.146	321.15
198.365	399.67
198.583	304.74
198.801	257.16
199.019	282.7
199.238	306.11
199.456	243
199.674	219.35
199.892	205.12
200.111	193.79
200.329	190.03
200.547	180.82
200.765	164.64
200.983	143.2
201.202	135
201.42	137.78
201.638	133
201.856	142.11
202.074	156.18
202.292	169.41
202.51	216.87
202.728	224.71
202.946	237.05
203.165	240.46
203.383	236.71
203.601	229.36
203.819	231.66
204.037	261.74
204.255	313.71
204.473	368.92
204.691	274.5
204.909	244.55
205.127	241.26
205.345	174.9
205.562	180.53
205.78	202.61
205.998	209.69
206.216	192.51
206.434	212.89
206.652	205.99
206.87	204.27
207.088	202.66
207.306	220.79
207.523	233.11
207.741	285.47
207.959	267.69
208.177	234.28
208.395	243.93
208.612	302.88
208.83	239.49
209.048	211.73
209.266	205.5
209.483	247.61
209.701	216.58
209.919	209.76
210.136	208.22
210.354	246.39
210.572	263.32
210.79	287.29
211.007	278.99
211.225	301.3
211.442	255.08
211.66	231.63
211.878	222.79
212.095	238.03
212.313	193.21
212.53	203.9
212.748	178.02
212.966	173.21
213.183	171.36
213.401	158.26
213.618	184.63
213.836	259.62
214.053	259.55
214.271	207.25
214.488	196.23
214.705	230.15
214.923	225.79
215.14	228.91
215.358	200.15
215.575	171.88
215.793	197.65
216.01	184.42
216.227	156.05
216.445	168.45
216.662	152.67
216.879	148.22
217.097	140.87
217.314	130.87
217.531	138.8
217.749	154.33
217.966	181.18
218.183	153.59
218.4	142.11
218.618	150.42
218.835	126.54
219.052	135.92
219.269	137.26
219.487	146.45
219.704	151.5
219.921	139.5
220.138	137.05
220.355	130.36
220.572	125.1
220.79	115.15
221.007	115.02
221.224	112.01
221.441	113.98
221.658	108.64
221.875	102.84
222.092	88.97
222.309	85.22
222.526	81.09
222.743	77.99
222.96	76.12
223.177	81.09
223.394	68.81
223.611	72.58
223.828	67.75
224.045	62.87
224.262	56.4
224.479	57.66
224.696	54.29
224.913	52.47
225.13	47.73
225.347	42.56
225.564	39.23
225.781	37.07
225.997	35.04
226.214	31.16
226.431	29.09
226.648	26.1
226.865	24
227.082	23.32
227.298	22.19
227.515	21.53
227.732	20.59
227.949	19.51
228.165	19.6
228.382	18.74
228.599	18.83
228.816	18.96
229.032	18.73
229.249	19.82
229.466	19.05
229.682	20.52
229.899	21.73
230.116	21.98
230.332	22.64
230.549	22.88
230.765	21.18
230.982	20.13
231.199	20.73
231.415	24.01
231.632	20.04
231.848	21.14
232.065	17.87
232.281	17.81
232.498	18.77
232.714	20.04
232.931	21.52
233.147	23.08
233.364	24.4
233.58	23.7
233.797	26.38
234.013	30.46
234.23	30.42
234.446	32.35
234.662	31.44
234.879	32.4
235.095	29.57
235.312	29.25
235.528	31.41
235.744	30.8
235.961	30.76
236.177	24.64
236.393	25.15
236.61	26.39
236.826	26.76
237.042	26.99
237.258	25.04
237.475	26.02
237.691	24.88
237.907	22.81
238.123	24.61
238.339	25.15
238.556	25.93
238.772	23.87
238.988	21.46
239.204	20.5
239.42	19.43
239.636	19.12
239.853	18.41
240.069	16.96
240.285	15.5
240.501	13.9
240.717	13.27
240.933	12.88
241.149	12.86
241.365	13.28
241.581	13.6
241.797	13.73
242.013	12.88
242.229	13.07
242.445	13.83
242.661	14.66
242.877	15.26
243.093	15.14
243.309	14.56
243.525	14.34
243.741	13.87
243.957	12.99
244.173	12.12
244.388	12.8
244.604	12.11
244.82	11.81
245.036	11.29
245.252	10.75
245.468	10.84
245.683	11.15
245.899	11.23
246.115	10.77
246.331	10.86
246.547	11.23
246.762	11.34
246.978	11.47
247.194	12.12
247.409	12.36
247.625	12.94
247.841	13.06
248.057	13.24
248.272	13.17
248.488	14.36
248.703	13.45
248.919	13.63
249.135	13
249.35	13.12
249.566	12.32
249.782	12.5
249.997	12.46
250.213	11.17
250.428	11.54
250.644	11.92
250.859	11.57
251.075	12.36
251.29	11.69
251.506	12.2
251.721	13.04
251.937	13.5
252.152	14.33
252.368	15.06
252.583	17.69
252.798	17.9
253.014	17.32
253.229	16.77
253.445	17.71
253.66	18.6
253.875	19.01
254.091	18.37
254.306	18.25
254.521	17.39
254.737	15.58
254.952	14.06
255.167	14.34
255.383	14.76
255.598	15.12
255.813	13.81
256.028	13.82
256.244	12.49
256.459	12.06
256.674	11.03
256.889	10.23
257.104	9.99
257.32	9.74
257.535	9.01
257.75	8.54
257.965	8.7
258.18	8.92
258.395	8.59
258.61	8.64
258.826	8.41
259.041	8.45
259.256	8.53
259.471	8.76
259.686	8.78
259.901	9.05
260.116	9.2
260.331	8.65
260.546	8.96
260.761	9.15
260.976	9.34
261.191	9.93
261.406	10.51
261.621	11.23
261.836	11.53
262.05	11.33
262.265	11.22
262.48	12.1
262.695	12.82
262.91	13.74
263.125	13.38
263.34	13.95
263.555	13.9
263.769	13.25
263.984	12.53
264.199	12.58
264.414	12.94
264.629	13.26
264.843	13.19
265.058	13.18
265.273	11.4
265.488	11.45
265.702	10.69
265.917	10.62
266.132	10.7
266.346	11.11
266.561	11.65
266.776	11.38
266.99	11.53
267.205	11.09
267.42	10.51
267.634	10.6
267.849	10.23
268.063	10.64
268.278	10.71
268.492	11.01
268.707	10.33
268.922	9.44
269.136	9.66
269.351	9.23
269.565	9.28
269.78	8.58
269.994	8.82
270.209	9.5
270.423	9.24
270.637	8.85
270.852	8.54
271.066	9.31
271.281	9.45
271.495	9.36
271.709	9.25
271.924	8.93
272.138	10.01
272.353	10.21
272.567	9.91
272.781	10.44
272.996	10.66
273.21	10.88
273.424	10.74
273.638	10.75
273.853	10.45
274.067	10.71
274.281	11.61
274.495	11.21
274.71	11.29
274.924	11.14
275.138	10.71
275.352	10.48
275.566	11.11
275.781	10.94
275.995	11.29
276.209	12.18
276.423	12.11
276.637	11.52
276.851	11.73
277.065	11.45
277.279	11.58
277.493	11.72
277.707	11.57
277.921	10.95
278.135	10.13
278.349	9.67
278.563	8.85
278.777	9.03
278.991	8.56
279.205	8.8
279.419	8.9
279.633	8.79
279.847	8.34
280.061	8.05
280.275	8.08
280.489	8.78
280.703	8.93
280.917	8.85
281.131	8.35
281.344	8.79
281.558	8.55
281.772	8.37
281.986	8.2
282.2	8.23
282.414	8.22
282.627	7.41
282.841	7.13
283.055	7.15
283.269	7.26
283.482	7.4
283.696	7.2
283.91	7.03
284.123	6.54
284.337	6.58
284.551	6.57
284.764	6.92
284.978	7.32
285.192	6.95
285.405	6.93
285.619	7.04
285.833	7.03
286.046	6.72
286.26	7.04
286.473	7.41
286.687	8.07
286.9	8.05
287.114	7.79
287.327	7.98
287.541	8.73
287.754	8.22
287.968	8.1
288.181	8.05
288.395	8.25
288.608	8.26
288.822	7.97
289.035	7.06
289.248	7.26
289.462	7.63
289.675	7.52
289.889	7.43
290.102	7.29
290.315	7.57
290.529	7.84
290.742	8
290.955	7.6
291.169	8.11
291.382	8.81
291.595	9
291.808	9.24
292.022	9.78
292.235	9.42
292.448	10.17
292.661	10.11
292.875	9.97
293.088	10.11
293.301	10.6
293.514	10.28
293.727	9.91
293.94	9.74
294.153	9.49
294.367	8.67
294.58	8.48
294.793	7.88
295.006	7.89
295.219	7.56
295.432	7.56
295.645	7.13
295.858	7.09
296.071	6.89
296.284	6.88
296.497	6.84
296.71	7.12
296.923	7.53
297.136	7.83
297.349	7.82
297.562	7.88
297.775	8.05
297.988	8.39
298.201	8.94
298.414	9.07
298.626	9.16
298.839	9.18
299.052	9.16
299.265	9.28
299.478	9.16
299.691	9.35
299.903	9.4
300.116	8.85
300.329	9.08
300.542	8.73
300.755	8.91
300.967	9.23
301.18	9.03
301.393	9.07
301.605	8.28
301.818	8.5
302.031	8.14
302.243	8.52
302.456	8.92
302.669	8.59
302.881	9.26
303.094	9.31
303.307	9
303.519	9.23
303.732	9.56
303.944	10.18
304.157	10.32
304.37	10.27
304.582	10.1
304.795	10.15
305.007	10.47
305.22	9.98
305.432	9.92
305.645	10.14
305.857	10.18
306.069	9.76
306.282	9.41
306.494	9.01
306.707	9
306.919	8.77
307.132	8.53
307.344	8.23
307.556	8.18
307.769	8.6
307.981	7.97
308.193	7.81
308.406	7.48
308.618	7.75
308.83	7.68
309.043	7.68
309.255	7.82
309.467	7.9
309.679	8.04
309.892	8.15
310.104	7.92
310.316	8.08
310.528	8.2
310.74	8.55
310.953	8.57
311.165	8.62
311.377	8.61
311.589	8.88
311.801	8.98
312.013	8.87
312.225	8.69
312.437	8.84
312.649	9.48
312.862	9.37
313.074	9.63
313.286	9.59
313.498	9.79
313.71	10.22
313.922	9.9
314.134	9.98
314.346	9.92
314.558	10.31
314.77	10.85
314.982	10.71
315.193	11.03
315.405	10.81
315.617	10.49
315.829	10.48
316.041	10.17
316.253	9.98
316.465	10.42
316.677	10.36
316.888	10.61
317.1	10.24
317.312	9.9
317.524	9.53
317.736	9.91
317.947	10.47
318.159	11.22
318.371	11.52
318.583	11.97
318.794	11.32
319.006	11.39
319.218	11
319.43	10.6
319.641	11.32
319.853	11.26
320.064	11.73
320.276	12.01
320.488	11.35
320.699	11.65
320.911	11.36
321.123	11.69
321.334	11.84
321.546	11.77
321.757	12.3
321.969	11.99
322.18	12.56
322.392	12.11
322.603	11.82
322.815	11.85
323.026	11.19
323.238	11.44
323.449	11.52
323.661	11.21
323.872	11.48
324.083	11.68
324.295	11.73
324.506	11.48
324.718	11.2
324.929	11.24
325.14	11.51
325.352	12.05
325.563	12
325.774	11.96
325.986	12.52
326.197	12.53
326.408	12.34
326.62	12.16
326.831	12.56
327.042	13.16
327.253	13.4
327.464	13.49
327.676	13.18
327.887	13.41
328.098	13.56
328.309	13.36
328.52	13.47
328.732	13.54
328.943	13.82
329.154	14.08
329.365	13.61
329.576	13.52
329.787	13.54
329.998	14.22
330.209	14.42
330.42	15.07
330.631	15.08
330.842	15.01
331.053	14.76
331.264	14.71
331.475	14.84
331.686	15.17
331.897	15.16
332.108	15.34
332.319	14.87
332.53	14.93
332.741	14.32
332.952	14.32
333.163	14.07
333.374	14.36
333.585	14.33
333.795	14.07
334.006	14.1
334.217	13.99
334.428	14.04
334.639	14.49
334.849	14.14
335.06	14.01
335.271	13.92
335.482	14.3
335.692	14.28
335.903	14.46
336.114	14.22
336.325	14.15
336.535	14.86
336.746	14.55
336.957	14.43
337.167	14.48
337.378	14.31
337.589	14.86
337.799	14.94
338.01	14.86
338.22	14.6
338.431	14.26
338.642	14.44
338.852	13.6
339.063	13.64
339.273	13.13
339.484	13.31
339.694	13.62
339.905	13.9
340.115	13.36
340.326	13.22
340.536	13.5
340.746	13.75
340.957	13.78
341.167	14.13
341.378	13.94
341.588	14.22
341.799	14.5
342.009	14.47
342.219	13.84
342.43	13.87
342.64	14.18
342.85	13.97
343.061	13.94
343.271	13.99
343.481	13.69
343.691	13.89
343.902	13.9
344.112	13.66
344.322	13.4
344.532	13.49
344.743	13.35
344.953	13.01
345.163	12.89
345.373	12.86
345.583	12.53
345.793	12.7
346.004	12.74
346.214	12.65
346.424	12.65
346.634	12.76
346.844	12.67
347.054	12.81
347.264	12.86
347.474	12.83
347.684	13.11
347.894	13.15
348.104	12.86
348.314	12.54
348.524	12.09
348.734	11.87
348.944	11.73
349.154	11.92
349.364	12.11
349.574	11.94
349.784	11.73
349.994	11.86
350.204	11.54
350.413	11.9
350.623	12.1
350.833	12.34
351.043	12.19
351.253	12.68
351.463	12.11
351.672	12.33
351.882	12.19
352.092	12.53
352.302	12.24
352.511	12.52
352.721	12
352.931	11.99
353.141	12.02
353.35	12.4
353.56	11.81
353.77	12.15
353.979	11.87
354.189	12.23
354.399	12.15
354.608	12.03
354.818	12.26
355.027	12.9
355.237	12.99
355.447	12.86
355.656	12.62
355.866	12.9
356.075	12.97
356.285	12.81
356.494	12.75
356.704	12.73
356.913	12.76
357.123	12.38
357.332	11.75
357.542	11.59
357.751	11.77
357.96	11.96
358.17	11.61
358.379	11.43
358.589	11.51
358.798	11.41
359.007	11.46
359.217	11.3
359.426	11.06
359.635	11.41
359.845	11.36
360.054	11.27
360.263	11.14
360.472	11.33
360.682	11.31
360.891	11.21
361.1	11.13
361.309	11.17
361.519	11.39
361.728	11.71
361.937	11.56
362.146	11.72
362.355	11.92
362.564	12.13
362.774	11.88
362.983	11.69
363.192	11.81
363.401	11.79
363.61	11.7
363.819	11.77
364.028	11.51
364.237	11.61
364.446	11.43
364.655	11
364.864	10.85
365.073	11.32
365.282	11.7
365.491	11.59
365.7	11.64
365.909	11.66
366.118	11.64
366.327	11.59
366.536	11.64
366.745	11.83
366.954	12.19
367.162	12.12
367.371	11.96
367.58	11.96
367.789	11.69
367.998	11.63
368.207	11.84
368.415	11.5
368.624	11.91
368.833	11.72
369.042	11.63
369.25	11.7
369.459	11.68
369.668	11.52
369.877	11.21
370.085	11.61
370.294	11.68
370.503	11.41
370.711	11.82
370.92	11.75
371.129	11.85
371.337	11.88
371.546	11.55
371.754	11.76
371.963	11.8
372.171	11.83
372.38	11.75
372.589	11.84
372.797	12.02
373.006	11.71
373.214	11.53
373.423	11.49
373.631	11.34
373.84	11.49
374.048	11.02
374.256	10.92
374.465	11.23
374.673	11.26
374.882	10.95
375.09	10.77
375.298	10.85
375.507	10.88
375.715	10.88
375.923	10.68
376.132	10.65
376.34	10.64
376.548	10.71
376.757	10.62
376.965	10.57
377.173	10.74
377.381	10.84
377.59	10.82
377.798	10.74
378.006	10.72
378.214	11.1
378.423	11.24
378.631	11.51
378.839	11.73
379.047	11.88
379.255	11.86
379.463	12.02
379.671	11.86
379.879	11.7
380.088	12.07
380.296	12.04
380.504	11.84
380.712	11.95
380.92	11.85
381.128	11.75
381.336	11.36
381.544	11.38
381.752	11.43
381.96	11.38
382.168	11.25
382.376	11.27
382.584	11.37
382.791	11.3
382.999	11.18
383.207	11.19
383.415	11.39
383.623	11.64
383.831	11.65
384.039	11.43
384.247	11.5
384.454	11.72
384.662	11.46
384.87	11.49
385.078	11.75
385.285	11.66
385.493	11.71
385.701	11.16
385.909	11.15
386.116	11.03
386.324	11.18
386.532	11.19
386.739	11.28
386.947	11.32
387.155	11.47
387.362	11.36
387.57	11.35
387.778	11.41
387.985	11.79
388.193	11.8
388.4	11.88
388.608	12.06
388.816	12.29
389.023	12.33
389.231	12.22
389.438	12.01
389.646	12.05
389.853	12.18
390.061	12
390.268	12.02
390.475	12.13
390.683	12.34
390.89	12.18
391.098	12.03
391.305	11.97
391.512	12
391.72	11.87
391.927	11.78
392.135	11.87
392.342	12.1
392.549	11.99
392.756	11.74
392.964	11.49
393.171	11.66
393.378	11.68
393.586	11.61
393.793	11.66
394	11.6
394.207	11.72
394.414	11.6
394.622	11.49
394.829	11.6
395.036	11.58
395.243	11.73
395.45	11.47
395.657	11.48
395.864	11.57
396.072	11.72
396.279	11.87
396.486	11.91
396.693	12.06
396.9	12.07
397.107	12.01
397.314	12.28
397.521	12.33
397.728	12.29
397.935	12.23
398.142	12.16
398.349	11.93
398.556	11.91
398.763	11.75
398.97	11.81
399.177	11.63
399.383	11.78
399.59	11.62
399.797	11.62
400.004	11.73
400.211	11.87
400.418	12.1
400.625	12.25
400.831	12.2
401.038	12.27
401.245	12.08
401.452	12.06
401.658	11.98
401.865	12.1
402.072	11.98
402.279	12.14
402.485	11.97
402.692	11.85
402.899	11.77
403.105	11.87
403.312	11.92
403.519	11.86
403.725	11.95
403.932	12.01
404.138	11.8
404.345	11.84
404.552	11.68
404.758	11.9
404.965	11.95
405.171	11.89
405.378	11.8
405.584	11.79
405.791	11.87
405.997	12.03
406.204	12.23
406.41	12.33
406.617	12.48
406.823	12.44
407.029	12.43
407.236	12.43
407.442	12.7
407.649	12.88
407.855	12.81
408.061	12.87
408.268	12.78
408.474	12.54
408.68	12.57
408.887	12.66
409.093	12.7
409.299	12.63
409.505	12.41
409.712	12.28
409.918	12.1
410.124	11.94
410.33	11.7
410.537	11.75
410.743	11.81
410.949	11.83
411.155	11.67
411.361	11.61
411.567	11.41
411.773	11.44
411.98	11.33
412.186	11.45
412.392	11.55
412.598	11.6
412.804	11.49
413.01	11.19
413.216	11.21
413.422	11.23
413.628	11.2
413.834	11.4
414.04	11.43
414.246	11.45
414.452	11.46
414.658	11.51
414.864	11.58
415.07	11.62
415.275	11.84
415.481	11.88
415.687	11.85
415.893	11.85
416.099	11.68
416.305	11.78
416.511	11.82
416.716	11.73
416.922	11.62
417.128	11.65
417.334	11.56
417.539	11.49
417.745	11.4
417.951	11.37
418.157	11.36
418.362	11.38
418.568	11.38
418.774	11.31
418.979	11.34
419.185	11.31
419.391	11.18
419.596	11.13
419.802	11
420.008	11.01
420.213	10.43
420.419	10.53
420.624	10.52
420.83	10.4
421.035	10.47
421.241	10.44
421.446	10.45
421.652	10.43
421.857	10.44
422.063	10.5
422.268	10.4
422.474	10.87
422.679	10.76
422.885	10.71
423.09	10.74
423.295	10.63
423.501	10.64
423.706	10.67
423.911	10.68
424.117	10.77
424.322	10.79
424.527	10.85
424.733	10.89
424.938	10.91
425.143	11.04
425.349	10.99
425.554	10.94
425.759	11.01
425.964	10.99
426.169	11
426.375	10.93
426.58	10.87
426.785	10.89
426.99	10.97
427.195	10.97
427.4	10.78
427.605	10.93
427.811	11.07
428.016	11.08
428.221	11.16
428.426	11.23
428.631	11.25
428.836	11.25
429.041	11.24
429.246	11.15
429.451	11.19
429.656	11.28
429.861	11.24
430.066	11.27
430.271	11.23
430.476	11.24
430.681	11.27
430.886	11.35
431.09	11.43
431.295	11.45
431.5	11.47
431.705	11.42
431.91	11.41
432.115	11.28
432.32	11.23
432.524	11.05
432.729	11.09
432.934	11.08
433.139	11.11
433.343	11.05
433.548	11.02
433.753	11.04
433.958	11.04
434.162	11.04
434.367	11.14
434.572	11.17
434.776	11.27
434.981	11.12
435.186	11.1
435.39	11
435.595	11.08
435.799	11.02
436.004	10.97
436.209	10.89
436.413	10.9
436.618	10.88
436.822	10.81
437.027	10.86
437.231	10.87
437.436	10.8
437.64	10.71
437.845	10.6
438.049	10.63
438.253	10.64
438.458	10.73
438.662	10.65
438.867	10.65
439.071	10.76
439.275	10.7
439.48	10.75
439.684	10.73
439.888	10.85
440.093	10.86
440.297	10.87
440.501	10.84
440.706	10.68
440.91	10.8
441.114	10.68
441.318	10.62
441.523	10.63
441.727	10.57
441.931	10.66
442.135	10.58
442.339	10.63
442.543	10.6
442.748	10.67
442.952	10.79
443.156	10.71
443.36	10.84
443.564	10.84
443.768	10.79
443.972	10.84
444.176	10.78
444.38	10.75
444.584	10.75
444.788	10.71
444.992	10.64
445.196	10.61
445.4	10.59
445.604	10.45
445.808	10.46
446.012	10.43
446.216	10.4
446.42	10.44
446.624	10.45
446.828	10.45
447.032	10.49
447.235	10.51
447.439	10.47
447.643	10.5
447.847	10.6
448.051	10.68
448.254	10.71
448.458	10.78
448.662	10.71
448.866	10.73
449.069	10.77
449.273	10.7
449.477	10.79
449.681	10.9
449.884	10.89
450.088	10.93
450.292	10.68
450.495	10.69
450.699	10.68
450.902	10.73
451.106	10.66
451.31	10.64
451.513	10.71
451.717	10.6
451.92	10.6
452.124	10.74
452.327	10.82
452.531	10.92
452.734	11
452.938	10.89
453.141	10.81
453.345	10.79
453.548	10.74
453.752	10.86
453.955	10.92
454.158	10.92
454.362	10.74
454.565	10.72
454.769	10.82
454.972	10.89
455.175	10.95
455.379	11.03
455.582	11.07
455.785	11.01
455.988	10.83
456.192	10.77
456.395	10.7
456.598	10.67
456.801	10.69
457.005	10.7
457.208	10.7
457.411	10.64
457.614	10.57
457.817	10.52
458.021	10.44
458.224	10.5
458.427	10.53
458.63	10.63
458.833	10.59
459.036	10.52
459.239	10.42
459.442	10.35
459.645	10.39
459.848	10.44
460.051	10.49
460.254	10.6
460.457	10.56
460.66	10.59
460.863	10.62
461.066	10.7
461.269	10.71
461.472	10.78
461.675	10.73
461.878	10.86
462.081	10.87
462.284	10.86
462.486	10.89
462.689	10.94
462.892	10.96
463.095	10.83
463.298	10.92
463.5	11.06
463.703	11.1
463.906	11.26
464.109	11.21
464.311	11.27
464.514	11.46
464.717	11.58
464.92	11.62
465.122	11.63
465.325	11.83
465.528	11.94
465.73	11.95
465.933	11.93
466.135	11.89
466.338	11.75
466.541	11.75
466.743	11.69
466.946	11.62
467.148	11.68
467.351	11.61
467.553	11.44
467.756	11.36
467.958	11.32
468.161	11.33
468.363	11.24
468.566	11.38
468.768	11.41
468.971	11.38
469.173	11.31
469.375	11.17
469.578	11.04
469.78	11.03
469.983	10.99
470.185	10.99
470.387	11.08
470.59	11.11
470.792	11.05
470.994	10.97
471.196	10.93
471.399	11.05
471.601	11.07
471.803	11.27
472.005	11.24
472.208	11.18
472.41	11.15
472.612	11.05
472.814	11.13
473.016	11.21
473.218	11.25
473.421	11.27
473.623	11.24
473.825	11.24
474.027	11.25
474.229	11.3
474.431	11.43
474.633	11.47
474.835	11.49
475.037	11.4
475.239	11.39
475.441	11.34
475.643	11.34
475.845	11.32
476.047	11.32
476.249	11.32
476.451	11.26
476.653	11.2
476.855	11.17
477.057	11.17
477.258	11.23
477.46	11.16
477.662	11.27
477.864	11.19
478.066	11.22
478.268	11.3
478.469	11.35
478.671	11.39
478.873	11.31
479.075	11.3
479.276	11.24
479.478	11.27
479.68	11.29
479.882	11.19
480.083	11.35
480.285	11.34
480.487	11.31
480.688	11.24
480.89	11.27
481.091	11.27
481.293	11.21
481.495	11.17
481.696	11.09
481.898	10.99
482.099	10.96
482.301	10.9
482.502	10.84
482.704	10.77
482.905	10.74
483.107	10.65
483.308	10.63
483.51	10.64
483.711	10.64
483.913	10.66
484.114	10.74
484.315	10.78
484.517	10.81
484.718	10.83
484.92	10.89
485.121	10.9
485.322	10.97
485.524	10.99
485.725	10.98
485.926	10.93
486.127	10.88
486.329	10.85
486.53	10.81
486.731	10.76
486.932	10.78
487.134	10.79
487.335	10.78
487.536	10.76
487.737	10.76
487.938	10.79
488.139	10.88
488.341	10.94
488.542	10.96
488.743	10.99
488.944	11.08
489.145	11.09
489.346	11.03
489.547	11.06
489.748	11.09
489.949	11.12
490.15	11.09
490.351	11.08
490.552	11.11
490.753	11.06
490.954	11.07
491.155	11.03
491.356	11.04
491.557	11.1
491.758	11.17
491.959	11.22
492.159	11.22
492.36	11.24
492.561	11.31
492.762	11.34
492.963	11.43
493.164	11.44
493.364	11.55
493.565	11.59
493.766	11.61
493.967	11.6
494.167	11.63
494.368	11.68
494.569	11.71
494.769	11.63
494.97	11.64
495.171	11.75
495.371	11.74
495.572	11.78
495.773	11.74
495.973	11.73
496.174	11.73
496.375	11.74
496.575	11.74
496.776	11.78
496.976	11.81
497.177	11.86
497.377	11.79
497.578	11.83
497.778	11.74
497.979	11.81
498.179	11.89
498.38	11.9
498.58	11.87
498.78	11.95
498.981	11.98
499.181	12.05
499.382	12.03
499.582	12.07
499.782	12.18
499.983	12.29
500.183	12.35
500.383	12.36
500.584	12.37
500.784	12.43
500.984	12.38
501.184	12.33
501.385	12.38
501.585	12.38
501.785	12.37
501.985	12.4
502.185	12.3
502.386	12.26
502.586	12.28
502.786	12.37
502.986	12.44
503.186	12.44
503.386	12.52
503.586	12.38
503.786	12.44
503.987	12.5
504.187	12.42
504.387	12.5
504.587	12.56
504.787	12.52
504.987	12.52
505.187	12.56
505.387	12.53
505.587	12.52
505.786	12.68
505.986	12.66
506.186	12.67
506.386	12.79
506.586	12.86
506.786	12.78
506.986	12.78
507.186	12.76
507.386	12.72
507.585	12.73
507.785	12.8
507.985	12.75
508.185	12.8
508.384	12.8
508.584	12.73
508.784	12.7
508.984	12.74
509.183	12.77
509.383	12.79
509.583	12.81
509.782	12.87
509.982	12.9
510.182	12.96
510.381	12.85
510.581	12.95
510.781	12.98
510.98	13.09
511.18	13.19
511.379	13.27
511.579	13.35
511.778	13.4
511.978	13.38
512.177	13.3
512.377	13.28
512.576	13.35
512.776	13.36
512.975	13.47
513.175	13.41
513.374	13.43
513.573	13.5
513.773	13.39
513.972	13.38
514.172	13.49
514.371	13.66
514.57	13.66
514.77	13.76
514.969	13.7
515.168	13.67
515.367	13.68
515.567	13.7
515.766	13.59
515.965	13.58
516.164	13.57
516.364	13.53
516.563	13.46
516.762	13.53
516.961	13.52
517.16	13.49
517.359	13.48
517.559	13.51
517.758	13.51
517.957	13.56
518.156	13.63
518.355	13.65
518.554	13.75
518.753	13.84
518.952	13.84
519.151	13.79
519.35	13.93
519.549	13.97
519.748	13.96
519.947	14.09
520.146	14.16
520.345	14.2
520.544	14.15
520.743	14.14
520.942	14.1
521.141	14.13
521.339	14.26
521.538	14.25
521.737	14.19
521.936	14.26
522.135	14.12
522.333	14.17
522.532	14.12
522.731	14.16
522.93	14.18
523.129	14.2
523.327	14.2
523.526	14.16
523.725	14.12
523.923	14.14
524.122	14.08
524.321	14.14
524.519	14.1
524.718	14.14
524.917	14.22
525.115	14.25
525.314	14.24
525.512	14.22
525.711	14.25
525.909	14.28
526.108	14.3
526.306	14.34
526.505	14.28
526.703	14.27
526.902	14.25
527.1	14.2
527.299	14.15
527.497	14.13
527.696	14.16
527.894	14.16
528.092	14.13
528.291	14.12
528.489	14.13
528.688	14.15
528.886	14.17
529.084	14.22
529.283	14.3
529.481	14.37
529.679	14.46
529.877	14.52
530.076	14.57
530.274	14.69
530.472	14.76
530.67	14.78
530.869	14.79
531.067	14.83
531.265	14.82
531.463	14.8
531.661	14.81
531.859	14.85
532.057	14.79
532.255	14.79
532.454	14.8
532.652	14.8
532.85	14.81
533.048	14.89
533.246	14.93
533.444	14.98
533.642	14.97
533.84	15.01
534.038	15.05
534.236	15.09
534.434	15.12
534.632	15.07
534.83	15.16
535.027	15.2
535.225	15.2
535.423	15.2
535.621	15.19
535.819	15.27
536.017	15.34
536.215	15.25
536.412	15.28
536.61	15.39
536.808	15.47
537.006	15.46
537.203	15.54
537.401	15.6
537.599	15.62
537.797	15.71
537.994	15.74
538.192	15.76
538.39	15.92
538.587	15.95
538.785	15.89
538.983	15.9
539.18	15.91
539.378	15.8
539.575	15.75
539.773	15.74
539.97	15.77
540.168	15.76
540.366	15.76
540.563	15.74
540.761	15.75
540.958	15.75
541.155	15.77
541.353	15.84
541.55	15.87
541.748	15.91
541.945	15.89
542.143	15.9
542.34	15.94
542.537	15.96
542.735	16.01
542.932	16.05
543.129	16.11
543.327	16.13
543.524	16.15
543.721	16.23
543.919	16.3
544.116	16.46
544.313	16.54
544.51	16.55
544.708	16.57
544.905	16.57
545.102	16.63
545.299	16.7
545.496	16.75
545.693	16.72
545.891	16.82
546.088	16.86
546.285	16.89
546.482	16.87
546.679	16.91
546.876	16.9
547.073	17
547.27	17.02
547.467	17.1
547.664	17.18
547.861	17.33
548.058	17.4
548.255	17.48
548.452	17.61
548.649	17.76
548.846	18.02
549.043	18.15
549.24	18.12
549.437	18.25
549.633	18.16
549.83	18.22
550.027	18.3
550.224	18.18
550.421	18.2
550.618	18.17
550.814	18.1
551.011	18.02
551.208	18.07
551.405	18.13
551.601	18.18
551.798	18.29
551.995	18.23
552.191	18.19
552.388	18.23
552.585	18.28
552.781	18.37
552.978	18.52
553.175	18.68
553.371	18.74
553.568	18.74
553.764	18.82
553.961	18.79
554.157	18.88
554.354	18.93
554.55	19.16
554.747	19.17
554.943	19.35
555.14	19.3
555.336	19.23
555.533	19.28
555.729	19.49
555.926	19.49
556.122	19.72
556.318	19.82
556.515	19.95
556.711	19.79
556.907	19.89
557.104	19.95
557.3	19.94
557.496	19.83
557.693	19.84
557.889	19.84
558.085	19.78
558.281	19.87
558.478	19.99
558.674	19.82
558.87	20
559.066	20.07
559.262	19.97
559.459	19.97
559.655	20.25
559.851	20.42
560.047	20.49
560.243	20.6
560.439	20.59
560.635	20.58
560.831	20.73
561.027	20.78
561.223	20.68
561.419	20.67
561.615	20.85
561.811	20.9
562.007	20.94
562.203	20.93
562.399	20.87
562.595	20.86
562.791	21.14
562.987	21.41
563.183	21.52
563.379	21.77
563.575	21.87
563.771	21.98
563.966	21.93
564.162	21.98
564.358	22.09
564.554	22.11
564.75	22.09
564.945	21.91
565.141	21.79
565.337	21.78
565.533	21.81
565.728	21.82
565.924	21.88
566.12	21.97
566.315	22.02
566.511	21.96
566.707	22.18
566.902	22.36
567.098	22.49
567.293	22.57
567.489	22.6
567.684	22.64
567.88	22.71
568.076	22.72
568.271	22.7
568.467	22.65
568.662	22.84
568.858	22.78
569.053	22.82
569.248	22.71
569.444	22.81
569.639	22.92
569.835	23
570.03	23.08
570.225	23
570.421	23.16
570.616	23.25
570.812	23.21
571.007	23.28
571.202	23.36
571.397	23.61
571.593	23.56
571.788	23.65
571.983	23.62
572.178	23.68
572.374	23.84
572.569	23.94
572.764	24.11
572.959	24.13
573.154	24.17
573.35	24.16
573.545	24.1
573.74	24.14
573.935	24.11
574.13	24.11
574.325	24.08
574.52	24.13
574.715	24.07
574.91	23.92
575.105	24.01
575.3	24.12
575.495	24.26
575.69	24.41
575.885	24.67
576.08	24.81
576.275	25.06
576.47	25.24
576.665	25.26
576.86	25.47
577.055	25.49
577.25	25.55
577.444	25.54
577.639	25.58
577.834	25.57
578.029	25.4
578.224	25.32
578.418	25.36
578.613	25.46
578.808	25.64
579.003	25.5
579.197	25.82
579.392	25.89
579.587	26.04
579.781	26.07
579.976	26.1
580.171	26.18
580.365	26.28
580.56	26.16
580.755	26.12
580.949	26.09
581.144	26.2
581.338	26.12
581.533	26.29
581.727	26.29
581.922	26.17
582.116	26.36
582.311	26.59
582.505	26.59
582.7	26.59
582.894	26.85
583.089	26.8
583.283	27.03
583.478	27.18
583.672	27.16
583.866	27.17
584.061	27.19
584.255	26.99
584.449	26.99
584.644	27.23
584.838	27.37
585.032	27.28
585.226	27.43
585.421	27.35
585.615	27.25
585.809	27.25
586.003	27.34
586.198	27.6
586.392	27.82
586.586	27.72
586.78	27.64
586.974	27.75
587.168	27.69
587.363	27.71
587.557	27.69
587.751	27.73
587.945	27.79
588.139	27.76
588.333	27.71
588.527	27.65
588.721	27.68
588.915	27.75
589.109	27.79
589.303	27.84
589.497	27.82
589.691	27.87
589.885	27.94
590.079	27.79
590.273	27.72
590.466	27.76
590.66	27.74
590.854	27.9
591.048	27.81
591.242	27.77
591.436	27.62
591.629	27.67
591.823	27.62
592.017	27.62
592.211	27.85
592.404	28.02
592.598	27.94
592.792	28.08
592.986	28.02
593.179	28.04
593.373	28.03
593.567	28.21
593.76	28.18
593.954	28.28
594.147	28.37
594.341	28.34
594.535	28.34
594.728	28.39
594.922	28.32
595.115	28.27
595.309	28.31
595.502	28.46
595.696	28.48
595.889	28.56
596.083	28.53
596.276	28.46
596.47	28.52
596.663	28.51
596.856	28.59
597.05	28.8
597.243	28.93
597.437	29.04
597.63	28.96
597.823	29.01
598.017	28.99
598.21	29.19
598.403	29.22
598.596	29.23
598.79	29.15
598.983	29.17
599.176	28.97
599.369	29.12
599.563	29.09
599.756	29.04
599.949	29.11
600.142	29.03
600.335	29.02
600.528	29.12
600.722	29.26
600.915	29.47
601.108	29.73
601.301	29.89
601.494	29.78
601.687	29.78
601.88	29.84
602.073	29.75
602.266	29.98
602.459	29.84
602.652	29.85
602.845	29.8
603.038	29.77
603.231	29.61
603.424	29.51
603.617	29.5
603.809	29.57
604.002	29.5
604.195	29.45
604.388	29.43
604.581	29.59
604.774	29.57
604.966	29.4
605.159	29.3
605.352	29.19
605.545	29.22
605.737	29.21
605.93	29.18
606.123	29.43
606.316	29.68
606.508	29.82
606.701	29.88
606.894	29.94
607.086	30.26
607.279	30.4
607.471	30.62
607.664	30.72
607.857	30.74
608.049	30.97
608.242	30.84
608.434	30.6
608.627	30.45
608.819	30.29
609.012	30.29
609.204	30.23
609.397	30.26
609.589	30.29
609.782	30.22
609.974	30.31
610.166	30.13
610.359	30.23
610.551	30.5
610.743	30.53
610.936	30.66
611.128	30.67
611.32	30.65
611.513	30.66
611.705	30.55
611.897	30.52
612.09	30.61
612.282	30.71
612.474	30.74
612.666	30.81
612.858	31.11
613.051	31.35
613.243	31.35
613.435	31.43
613.627	31.44
613.819	31.45
614.011	32.21
614.203	32.27
614.395	32.21
614.588	32.2
614.78	32.11
614.972	32.05
615.164	31.87
615.356	31.9
615.548	31.73
615.74	31.88
615.932	31.98
616.124	31.29
616.315	31.57
616.507	31.71
616.699	31.75
616.891	31.76
617.083	31.74
617.275	31.64
617.467	31.67
617.659	32
617.85	32.12
618.042	32.09
618.234	32.16
618.426	31.78
618.618	31.74
618.809	31.57
619.001	31.49
619.193	31.37
619.384	31.56
619.576	31.67
619.768	31.36
619.959	31.08
620.151	31.03
620.343	31.12
620.534	31.05
620.726	30.95
620.917	31.33
621.109	31.26
621.301	31.36
621.492	31.46
621.684	31.22
621.875	31.49
622.067	31.53
622.258	31.47
622.45	31.49
622.641	31.52
622.832	31.41
623.024	31.2
623.215	31.47
623.407	31.38
623.598	31.35
623.789	31.48
623.981	31.16
624.172	31.36
624.363	31.42
624.555	31.46
624.746	31.46
624.937	31.61
625.129	31.75
625.32	31.65
625.511	31.74
625.702	31.65
625.893	31.7
626.085	31.88
626.276	31.75
626.467	31.73
626.658	31.45
626.849	31.42
627.04	31.38
627.231	31.37
627.422	31.44
627.614	31.36
627.805	31.29
627.996	31.25
628.187	31.23
628.378	31.22
628.569	31.25
628.76	31.51
628.951	31.53
629.142	31.47
629.332	31.41
629.523	31.36
629.714	31.15
629.905	31.34
630.096	31.32
630.287	31.56
630.478	31.67
630.669	31.66
630.859	31.83
631.05	31.98
631.241	32.11
631.432	32
631.623	32.07
631.813	32.36
632.004	32.07
632.195	32.03
632.385	31.95
632.576	31.92
632.767	31.95
632.957	31.86
633.148	32.12
633.339	32.15
633.529	32.38
633.72	32.34
633.91	32.35
634.101	32.43
634.292	32.7
634.482	32.73
634.673	32.86
634.863	32.88
635.054	33.02
635.244	32.8
635.435	32.79
635.625	32.49
635.815	32.42
636.006	32.38
636.196	32.42
636.387	32.38
636.577	32.26
636.767	32.25
636.958	32.43
637.148	32.26
637.338	32.21
637.529	32.18
637.719	32.39
637.909	32.58
638.099	32.61
638.29	32.72
638.48	32.8
638.67	32.85
638.86	32.77
639.05	32.55
639.241	32.87
639.431	32.85
639.621	32.86
639.811	32.68
640.001	32.56
640.191	32.58
640.381	32.61
640.571	32.35
640.761	32.44
640.951	32.51
641.141	32.7
641.331	32.27
641.521	32.32
641.711	32.4
641.901	32.53
642.091	32.71
642.281	32.57
642.471	32.35
642.661	32.7
642.851	32.93
643.041	32.75
643.231	32.7
643.42	32.84
643.61	32.99
643.8	32.8
643.99	32.7
644.18	32.71
644.369	33.1
644.559	33.56
644.749	33.5
644.939	33.03
645.128	33.23
645.318	33.24
645.508	33.29
645.697	33.31
645.887	33.65
646.076	33.78
646.266	33.64
646.456	33.46
646.645	33.54
646.835	33.22
647.024	33.34
647.214	33.35
647.403	33.41
647.593	33.38
647.782	33.25
647.972	33.08
648.161	33.11
648.351	33.08
648.54	33.1
648.73	32.65
648.919	32.76
649.108	32.71
649.298	32.65
649.487	32.62
649.677	32.5
649.866	32.45
650.055	32.52
650.244	32.54
650.434	32.71
650.623	32.67
650.812	32.73
651.002	32.8
651.191	33.08
651.38	33
651.569	33.11
651.758	33.05
651.947	32.96
652.137	32.92
652.326	32.79
652.515	32.91
652.704	32.8
652.893	32.88
653.082	32.71
653.271	32.74
653.46	32.68
653.649	32.48
653.838	32.53
654.027	32.85
654.216	32.84
654.405	32.95
654.594	32.6
654.783	32.79
654.972	32.75
655.161	32.87
655.35	32.51
655.539	32.61
655.728	32.72
655.916	32.74
656.105	32.69
656.294	32.83
656.483	32.84
656.672	33.08
656.86	32.89
657.049	32.95
657.238	32.88
657.427	32.99
657.615	32.84
657.804	32.8
657.993	32.8
658.181	32.65
658.37	32.65
658.559	32.44
658.747	32.41
658.936	32.56
659.125	32.43
659.313	32.78
659.502	32.96
659.69	32.96
659.879	33.22
660.067	33.26
660.256	33.44
660.444	33.49
660.633	33.82
660.821	34.01
661.01	33.95
661.198	34.04
661.387	33.64
661.575	33.47
661.763	34.07
661.952	33.69
662.14	33.74
662.328	33.49
662.517	33.51
662.705	33.22
662.893	33.09
663.082	33.27
663.27	33.31
663.458	33.48
663.646	33.47
663.834	33.17
664.023	33.38
664.211	33.65
664.399	33.96
664.587	33.65
664.775	33.59
664.963	33.34
665.152	33.45
665.34	33.73
665.528	33.75
665.716	33.82
665.904	33.83
666.092	33.99
666.28	33.82
666.468	33.55
666.656	33.94
666.844	34.52
667.032	34.73
667.22	34.81
667.408	34.64
667.596	34.79
667.784	34.77
667.971	35.14
668.159	34.86
668.347	34.85
668.535	34.91
668.723	34.78
668.911	34.7
669.098	34.6
669.286	34.48
669.474	34.62
669.662	34.58
669.849	34.56
670.037	34.27
670.225	34.39
670.413	34.18
670.6	34.23
670.788	34.24
670.976	33.99
671.163	34.04
671.351	34.26
671.538	34.2
671.726	34.02
671.913	34.04
672.101	33.77
672.289	33.6
672.476	33.67
672.664	34.06
672.851	34.08
673.039	34.16
673.226	34.02
673.413	33.62
673.601	33.57
673.788	33.82
673.976	33.88
674.163	33.93
674.35	33.82
674.538	33.95
674.725	33.55
674.912	33.41
675.1	33.17
675.287	33.28
675.474	33.3
675.662	33.67
675.849	33.61
676.036	33.38
676.223	33.61
676.411	33.86
676.598	34.08
676.785	34.25
676.972	34.3
677.159	34.68
677.346	34.58
677.533	34.55
677.721	34.36
677.908	34.43
678.095	34.75
678.282	34.72
678.469	34.84
678.656	34.58
678.843	34.49
679.03	34.4
679.217	34.56
679.404	34.84
679.591	34.9
679.778	34.92
679.964	34.53
680.151	34.17
680.338	33.83
680.525	33.66
680.712	33.78
680.899	33.89
681.086	34.37
681.272	34.05
681.459	33.83
681.646	33.81
681.833	33.5
682.02	33.86
682.206	34.3
682.393	34.75
682.58	34.88
682.766	34.77
682.953	34.7
683.14	34.39
683.326	34.9
683.513	34.95
683.7	35.15
683.886	35.31
684.073	35.19
684.259	35.18
684.446	34.99
684.632	35.11
684.819	35.4
685.005	35.39
685.192	35.45
685.378	35.12
685.565	35.17
685.751	34.75
685.938	35.16
686.124	35.19
686.31	34.95
686.497	35.22
686.683	34.98
686.87	34.76
687.056	34.8
687.242	34.51
687.429	34.33
687.615	34.47
687.801	34.92
687.987	34.61
688.174	34.58
688.36	34.61
688.546	34.59
688.732	34.56
688.918	34.48
689.105	34.32
689.291	34.55
689.477	34.84
689.663	34.8
689.849	34.38
690.035	34.27
690.221	34.49
690.407	35.11
690.593	35.04
690.779	35.19
690.965	35.54
691.151	35.73
691.337	35.57
691.523	35.37
691.709	35.43
691.895	35.88
692.081	35.93
692.267	35.81
692.453	35.56
692.639	35.24
692.825	35.23
693.011	34.94
693.196	35.04
693.382	35.28
693.568	35.45
693.754	35.12
693.94	34.89
694.125	35.11
694.311	34.92
694.497	34.67
694.682	34.95
694.868	35.02
695.054	35.1
695.239	35.09
695.425	34.92
695.611	34.84
695.796	35.05
695.982	35.07
696.168	34.93
696.353	34.84
696.539	34.9
696.724	34.87
696.91	34.62
697.095	34.77
697.281	34.84
697.466	34.68
697.652	34.84
697.837	34.76
698.023	34.82
698.208	34.48
698.393	34.6
698.579	34.51
698.764	34.25
698.949	34.32
699.135	34.04
699.32	33.75
699.505	33.7
699.691	33.29
699.876	33.11
700.061	33.06
700.246	33.34
700.432	33.37
700.617	33.21
700.802	33.38
700.987	33.46
701.172	34.02
701.358	34.34
701.543	34.54
701.728	34.97
701.913	35.29
702.098	35.39
702.283	35.66
702.468	35.33
702.653	35.51
702.838	36.26
703.023	36.41
703.208	36.02
703.393	36.11
703.578	36.72
703.763	36.76
703.948	36.5
704.133	36.52
704.318	36.41
704.503	36.77
704.688	36.81
704.873	35.95
705.057	35.83
705.242	35.94
705.427	35.32
705.612	34.79
705.797	34.84
705.981	35.4
706.166	35.18
706.351	35.39
706.536	35.31
706.72	35.14
706.905	35.36
707.09	35.23
707.274	35.01
707.459	35.27
707.644	35.28
707.828	34.96
708.013	34.83
708.197	34.92
708.382	34.75
708.567	34.84
708.751	34.82
708.936	34.55
709.12	34.9
709.305	34.88
709.489	35.14
709.673	35.18
709.858	35.3
710.042	35.48
710.227	35.38
710.411	35.45
710.596	35.5
710.78	35.89
710.964	36.43
711.149	36.49
711.333	36.87
711.517	36.77
711.702	36.98
711.886	36.84
712.07	36.31
712.254	36.7
712.438	36.95
712.623	36.84
712.807	36.64
712.991	36.64
713.175	36.39
713.359	36.15
713.544	36.12
713.728	35.94
713.912	35.91
714.096	36.02
714.28	35.51
714.464	35.26
714.648	35.2
714.832	35.22
715.016	35.1
715.2	35.2
715.384	35.03
715.568	35.09
715.752	35.09
715.936	35.27
716.12	35.26
716.304	35.79
716.488	35.43
716.671	35.61
716.855	35.82
717.039	35.89
717.223	35.32
717.407	35.79
717.59	35.92
717.774	36.08
717.958	35.76
718.142	35.61
718.325	34.88
718.509	35.4
718.693	35.25
718.877	34.58
719.06	34.54
719.244	35.46
719.428	35.28
719.611	35.1
719.795	35.05
719.978	35.68
720.162	36.26
720.345	36.79
720.529	36.53
720.713	36.87
720.896	37.21
721.08	37.21
721.263	37.31
721.446	37.9
721.63	37.97
721.813	37.87
721.997	37.36
722.18	37.05
722.364	36.76
722.547	37.21
722.73	37.29
722.914	37.63
723.097	37.52
723.28	36.97
723.464	36.13
723.647	35.9
723.83	35.54
724.013	35.76
724.197	36.14
724.38	36.93
724.563	36.62
724.746	36.4
724.929	36.56
725.112	36.61
725.296	37.04
725.479	37.07
725.662	37.15
725.845	38
726.028	37.8
726.211	37.59
726.394	36.63
726.577	36.68
726.76	36.92
726.943	36.42
727.126	35.75
727.309	35.67
727.492	35.71
727.675	35.69
727.858	35.15
728.041	35.54
728.224	35.63
728.407	35.63
728.589	35.71
728.772	35.29
728.955	35.4
729.138	35.68
729.321	35.34
729.503	35.67
729.686	35.91
729.869	35.9
730.052	35.95
730.234	35.98
730.417	36.51
730.6	36.58
730.782	36.52
730.965	36.64
731.148	37.54
731.33	37.58
731.513	37.53
731.695	37.72
731.878	37.37
732.061	36.99
732.243	37.1
732.426	36.73
732.608	36.61
732.791	36.87
732.973	36.73
733.156	35.96
733.338	36.37
733.52	36.35
733.703	35.47
733.885	36.2
734.068	36.19
734.25	35.6
734.432	35.49
734.615	35.33
734.797	35.09
734.979	35.27
735.162	35.7
735.344	35.18
735.526	35.09
735.708	35.92
735.891	35.89
736.073	36.08
736.255	36.41
736.437	36.29
736.619	35.94
736.802	36.3
736.984	36.21
737.166	36.64
737.348	36.85
737.53	36.85
737.712	36.42
737.894	35.81
738.076	35.72
738.258	35.64
738.44	36.01
738.622	36.86
738.804	36.6
738.986	36.95
739.168	35.92
739.35	35.9
739.532	35.84
739.714	36.07
739.896	36.49
740.078	36.9
740.259	36.99
740.441	37.42
740.623	37.23
740.805	37.37
740.987	37.66
741.168	37.99
741.35	38.01
741.532	38.04
741.714	37.77
741.895	38.21
742.077	37.54
742.259	37.63
742.44	37.43
742.622	37.1
742.804	36.91
742.985	35.99
743.167	35.88
743.348	35.98
743.53	35.81
743.711	35.94
743.893	35.76
744.075	35.78
744.256	35.48
744.438	35.75
744.619	35.89
744.8	36.02
744.982	35.9
745.163	36.17
745.345	36.47
745.526	37.6
745.707	37.97
745.889	37.82
746.07	37.87
746.252	38.11
746.433	37.85
746.614	38.62
746.795	38.92
746.977	39.6
747.158	39.06
747.339	38.84
747.52	38.85
747.702	38.28
747.883	38.69
748.064	39.08
748.245	39.23
748.426	39.24
748.607	38.82
748.788	38.9
748.97	38.94
749.151	39.07
749.332	39.33
749.513	38.93
749.694	38.85
749.875	38.99
750.056	38.81
750.237	38.12
750.418	37.73
750.599	37.13
750.78	36.42
750.96	35.82
751.141	36.46
751.322	35.96
751.503	35.69
751.684	36.54
751.865	35.12
752.046	34.58
752.226	35.14
752.407	35.45
752.588	36.13
752.769	37.28
752.949	37.07
753.13	37.3
753.311	37.05
753.492	36.53
753.672	36.35
753.853	37.45
754.034	38.05
754.214	39.09
754.395	38.93
754.575	39.11
754.756	38.46
754.937	39.23
755.117	38.16
755.298	38.08
755.478	38.55
755.659	38.02
755.839	38.03
756.02	38.34
756.2	36.89
756.381	36.96
756.561	36.74
756.741	36.81
756.922	36.81
757.102	37.62
757.283	38.62
757.463	38.22
757.643	38.42
757.823	38.76
758.004	38.63
758.184	39.07
758.364	39.74
758.545	39.49
758.725	39.15
758.905	38.86
759.085	39.04
759.265	38.33
759.446	38.72
759.626	39.21
759.806	38.17
759.986	38.27
760.166	38.17
760.346	37.65
760.526	37.93
760.706	38.8
760.886	38.51
761.066	39.13
761.246	39.63
761.426	38.97
761.606	37.81
761.786	38.17
761.966	37.52
762.146	37.23
762.326	37.18
762.506	36.91
762.686	36.59
762.866	36.66
763.046	35.51
763.225	35.21
763.405	35.47
763.585	35.75
763.765	35.17
763.945	35.2
764.124	35.3
764.304	35.59
764.484	36.04
764.664	35.82
764.843	35.63
765.023	36.23
765.203	36.27
765.382	36.07
765.562	36.83
765.741	37.28
765.921	37.63
766.101	37.55
766.28	37.25
766.46	36.8
766.639	36.62
766.819	36.8
766.998	36.98
767.178	36.9
767.357	36.86
767.537	36.85
767.716	37.66
767.896	38.05
768.075	38.73
768.254	38.27
768.434	38.39
768.613	39.2
768.792	39.99
768.972	39.97
769.151	39.75
769.33	40.39
769.51	40.82
769.689	40.27
769.868	40.46
770.047	40.44
770.226	41.08
770.406	40.73
770.585	40.17
770.764	39.58
770.943	39.62
771.122	39.47
771.301	39.86
771.48	39.21
771.66	38.68
771.839	37.96
772.018	37.97
772.197	37.76
772.376	38.16
772.555	39.01
772.734	39.36
772.913	38.6
773.092	38.94
773.271	38.02
773.449	37.74
773.628	38.97
773.807	39.14
773.986	39.1
774.165	38.91
774.344	39.16
774.523	38.03
774.701	37.76
774.88	38.51
775.059	38.42
775.238	38.83
775.417	39.61
775.595	39.27
775.774	38.93
775.953	38.23
776.131	38.88
776.31	38.46
776.489	38.47
776.667	38.69
776.846	38.63
777.025	38.25
777.203	37.76
777.382	37.34
777.56	37
777.739	38.06
777.917	39.04
778.096	38.98
778.274	38.74
778.453	39.53
778.631	39.71
778.81	39.3
778.988	40.6
779.166	40.44
779.345	40.24
779.523	40.25
779.702	40.78
779.88	40.19
780.058	39.46
780.237	39.96
780.415	39.92
780.593	40.13
780.771	40.61
780.95	41.64
781.128	42.17
781.306	42.92
781.484	43.47
781.662	42.56
781.841	42.16
782.019	42.99
782.197	42.29
782.375	41.29
782.553	40.67
782.731	40.31
782.909	39.3
783.087	39.85
783.265	39.28
783.443	38.25
783.621	37.64
783.799	38.36
783.977	39.15
784.155	39.55
784.333	40.49
784.511	40.46
784.689	39.84
784.867	39.2
785.045	38.38
785.223	38.81
785.4	38.71
785.578	39.21
785.756	38.81
785.934	36.81
786.112	37.14
786.289	36.85
786.467	36.99
786.645	37.91
786.823	39.24
787	39.94
787.178	39.04
787.356	39.64
787.533	39.27
787.711	39.65
787.889	40.35
788.066	39.47
788.244	38.95
788.421	38.7
788.599	37.99
788.776	37
788.954	36.31
789.131	36.93
789.309	37.18
789.486	38.07
789.664	38.13
789.841	38.68
790.019	38.53
790.196	39.69
790.373	40.27
790.551	42.77
790.728	42.45
790.906	44.41
791.083	43.72
791.26	44.11
791.437	43.61
791.615	42.48
791.792	41.33
791.969	42.51
792.146	42.29
792.324	41.95
792.501	40.85
792.678	40.86
792.855	39.41
793.032	40.62
793.209	41.1
793.387	41.81
793.564	41.74
793.741	42.08
793.918	41.44
794.095	41.25
794.272	41.5
794.449	40.98
794.626	41.74
794.803	41.19
794.98	40.38
795.157	38.81
795.334	38.38
795.511	38.27
795.688	38.36
795.864	38.8
796.041	39.21
796.218	39.93
796.395	39.81
796.572	39.57
796.749	40.22
796.925	39.63
797.102	41.1
797.279	40.97
797.456	42.54
797.632	42.74
797.809	42.36
797.986	42.12
798.162	40.93
798.339	39.9
798.516	39.36
798.692	39.96
798.869	40.31
799.046	38.79
799.222	38.06
799.399	36.93
799.575	37.26
799.752	38.02
799.928	37.86
800.105	38.77
800.281	40.46
800.458	40.54
800.634	39.71
800.811	40
800.987	41.33
801.163	43.19
801.34	44.78
801.516	45.96
801.692	45.43
801.869	45.99
802.045	46.27
802.221	45.3
802.398	45.18
802.574	44.61
802.75	45.62
802.926	44.83
803.103	44.01
803.279	43.1
803.455	41.59
803.631	42.83
803.807	42.51
803.983	42.73
804.16	43.73
804.336	43.97
804.512	44.87
804.688	44.46
804.864	45.58
805.04	45.71
805.216	45.64
805.392	45.45
805.568	45.91
805.744	45.98
805.92	46.28
806.096	45.39
806.272	45.12
806.448	45.38
806.623	45.3
806.799	45.5
806.975	45.16
807.151	45.7
807.327	45.72
807.503	44.04
807.678	44.3
807.854	43.08
808.03	42.59
808.206	43.26
808.381	43.05
808.557	43.67
808.733	42.58
808.908	42.3
809.084	41.76
809.26	41.19
809.435	41.76
809.611	41.09
809.787	40.37
809.962	40.89
810.138	41.06
810.313	41.46
810.489	42.97
810.664	43.62
810.84	42.47
811.015	43.35
811.191	45.07
811.366	46.23
811.542	46.81
811.717	47.42
811.892	48.35
812.068	48.75
812.243	47.48
812.419	46.14
812.594	46.66
812.769	48.45
812.944	48.48
813.12	47.77
813.295	46.55
813.47	45.26
813.645	46.73
813.821	46.7
813.996	45.27
814.171	46.02
814.346	44.65
814.521	44.91
814.697	45.24
814.872	44.19
815.047	44.47
815.222	44.77
815.397	44.72
815.572	43.91
815.747	43.34
815.922	44.14
816.097	45.05
816.272	45.81
816.447	45.49
816.622	45.46
816.797	46.32
816.972	45.19
817.147	44.54
817.322	45.36
817.496	44.46
817.671	45.21
817.846	44.53
818.021	42.99
818.196	42.67
818.371	41.25
818.545	40.55
818.72	40.32
818.895	42.21
819.069	42.29
819.244	41.86
819.419	42.16
819.594	40.88
819.768	40.41
819.943	40.54
820.117	40.1
820.292	40.01
820.467	40.14
820.641	39.63
820.816	38.5
820.99	38.01
821.165	37.68
821.339	37.5
821.514	37.63
821.688	37.66
821.863	36.89
822.037	36.1
822.212	35.97
822.386	35.37
822.56	35.1
822.735	35.17
822.909	35.37
823.084	35.48
823.258	35.15
823.432	34.74
823.606	34.54
823.781	35
823.955	35.69
824.129	35.44
824.303	35.81
824.478	35.98
824.652	36
824.826	35.7
825	35.93
825.174	36.01
825.348	35.91
825.523	36.14
825.697	35.97
825.871	35.68
826.045	36.05
826.219	36.17
826.393	36.19
826.567	35.59
826.741	35.94
826.915	35.58
827.089	36.09
827.263	36.63
827.437	36.66
827.611	37.2
827.784	37.84
827.958	37.97
828.132	37.79
828.306	38.18
828.48	39.15
828.654	39.2
828.827	39.22
829.001	39.63
829.175	40.35
829.349	41.09
829.522	41.04
829.696	41.2
829.87	41.48
830.044	43.42
830.217	43.97
830.391	44.43
830.565	43.58
830.738	44.44
830.912	43.99
831.085	43.29
831.259	43.22
831.432	43.75
831.606	44.13
831.779	43.18
831.953	41.21
832.126	40.31
832.3	38.8
832.473	39.49
832.647	38.92
832.82	38.93
832.994	39.07
833.167	39.32
833.34	39.03
833.514	38.93
833.687	38.51
833.86	38.39
834.034	38.65
834.207	39.48
834.38	39.6
834.553	39.73
834.727	39.69
834.9	39.51
835.073	39.17
835.246	39.6
835.419	39.36
835.593	40.91
835.766	42.35
835.939	42.78
836.112	42.35
836.285	42.49
836.458	43.32
836.631	43.41
836.804	45.44
836.977	44.7
837.15	44.89
837.323	43.3
837.496	43.75
837.669	41.26
837.842	41.9
838.015	43.13
838.188	43.59
838.361	43.11
838.533	41.06
838.706	37.82
838.879	38.05
839.052	38.11
839.225	40.19
839.398	39.38
839.57	43.09
839.743	42.68
839.916	43.43
840.088	43.86
840.261	44.08
840.434	47.01
840.607	48.64
840.779	50.96
840.952	51.11
841.124	49.44
841.297	50.56
841.47	49.1
841.642	48.08
841.815	48.65
841.987	48.54
842.16	48.46
842.332	49.09
842.505	49.34
842.677	50.02
842.85	48.64
843.022	52.01
843.194	53.6
843.367	56.98
843.539	57.25
843.712	56.83
843.884	57.81
844.056	58.62
844.229	58.18
844.401	58.72
844.573	57.65
844.745	61.69
844.918	61.09
845.09	60.09
845.262	59.5
845.434	61.67
845.606	63.14
845.779	62.48
845.951	62.85
846.123	62.72
846.295	62.27
846.467	61.22
846.639	59.59
846.811	59.09
846.983	58.71
847.155	55.97
847.327	55.63
847.499	54.9
847.671	55.45
847.843	54.07
848.015	54.5
848.187	55.19
848.359	54.08
848.531	54.95
848.703	53.62
848.875	54.61
849.047	52.7
849.218	55.54
849.39	55.59
849.562	54.42
849.734	57.81
849.905	62.54
850.077	66.22
850.249	66.13
850.421	68.01
850.592	67.12
850.764	67.39
850.936	68.32
851.107	66.11
851.279	64.26
851.451	67.1
851.622	69.01
851.794	63.17
851.965	65.97
852.137	66.72
852.308	64.46
852.48	71.78
852.651	70.95
852.823	74.54
852.994	72.78
853.166	69.8
853.337	71.75
853.509	65.71
853.68	68.74
853.851	63.49
854.023	63.96
854.194	65.1
854.365	59.45
854.537	57.28
854.708	56.52
854.879	62.16
855.05	67.62
855.222	63.02
855.393	68.11
855.564	68.46
855.735	67.3
855.906	70.46
856.078	69.59
856.249	71.4
856.42	73.11
856.591	71.61
856.762	67.38
856.933	64.54
857.104	63.31
857.275	63.61
857.446	63.89
857.617	66.69
857.788	62.29
857.959	62.36
858.13	62.99
858.301	68.05
858.472	62.56
858.643	64.84
858.814	65.57
858.985	72.06
859.155	69.87
859.326	70.24
859.497	66.82
859.668	69
859.839	69.04
860.009	67.32
860.18	59.46
860.351	63.54
860.522	62.05
860.692	62.08
860.863	59.15
861.034	60.81
861.204	63.13
861.375	63.13
861.546	63.56
861.716	61.29
861.887	63.22
862.057	69.6
862.228	71.34
862.398	66.96
862.569	66.19
862.739	70.74
862.91	68.82
863.08	65.57
863.251	66.83
863.421	69.25
863.592	70.34
863.762	68.47
863.932	65.17
864.103	65.98
864.273	69.34
864.443	71.52
864.614	67.35
864.784	68
864.954	65.06
865.125	68.19
865.295	63.15
865.465	62.98
865.635	65.21
865.805	73.35
865.976	71.46
866.146	73.59
866.316	73.18
866.486	78.36
866.656	79.98
866.826	80.12
866.996	77.14
867.166	79.06
867.336	80.27
867.506	81.32
867.676	72.17
867.846	76.19
868.016	71.98
868.186	70.16
868.356	64.54
868.526	59.82
868.696	59.19
868.866	58.72
869.036	55.77
869.206	52.99
869.376	48.13
869.545	51.59
869.715	50.97
869.885	55.12
870.055	58.67
870.224	64.02
870.394	69.39
870.564	73.75
870.734	69.21
870.903	67.24
871.073	72.08
871.243	74.67
871.412	72.58
871.582	72.07
871.751	72.28
871.921	73.62
872.091	68.91
872.26	64.69
872.43	60.54
872.599	66.87
872.769	71.29
872.938	72.61
873.108	73.73
873.277	73.36
873.446	68.92
873.616	69.55
873.785	71.82
873.955	70.97
874.124	72.39
874.293	75.75
874.463	72.96
874.632	72.61
874.801	70.14
874.971	70.13
875.14	71.41
875.309	73.39
875.478	67.85
875.647	59.79
875.817	60.44
875.986	59.18
876.155	58.1
876.324	60.46
876.493	58.92
876.662	58.91
876.831	58.64
877	59.75
877.17	62.22
877.339	66.56
877.508	71.62
877.677	71.57
877.846	72.97
878.015	71.93
878.184	66.11
878.352	64.6
878.521	62.82
878.69	64.95
878.859	63.17
879.028	59.66
879.197	54.24
879.366	49.51
879.534	51.32
879.703	48.35
879.872	48.53
880.041	51.15
880.21	50.47
880.378	48.59
880.547	44.71
880.716	43.65
880.884	43.04
881.053	43.89
881.222	44.36
881.39	43.03
881.559	43.47
881.727	42.04
881.896	41.85
882.065	41.26
882.233	41.38
882.402	41.54
882.57	41.18
882.739	41.32
882.907	41.32
883.076	40.89
883.244	40.93
883.412	41.02
883.581	42.53
883.749	41.82
883.918	42.15
884.086	43.31
884.254	44.24
884.423	46.03
884.591	47.11
884.759	47.67
884.927	48.71
885.096	48.83
885.264	50.12
885.432	50.44
885.6	51.13
885.769	50.54
885.937	50.61
886.105	51.49
886.273	52.39
886.441	51.45
886.609	51.79
886.777	51.23
886.945	53.98
887.113	55.3
887.281	53.31
887.449	56.04
887.617	58.21
887.785	59.81
887.953	62.04
888.121	60.12
888.289	61.65
888.457	63.15
888.625	65.61
888.793	65.65
888.961	65.44
889.129	67.56
889.296	69.7
889.464	73.62
889.632	73.35
889.8	70.71
889.967	71.94
890.135	75.1
