Data from 2938543_Reflection_3.txt Node
Date: Mon Jun 15 00:33:03 EDT 2015
User: robert
Spectrometer: USB4E03002
Autoset integration time: false
Trigger mode: 4
Integration Time (sec): 1.000000E-1
Scans to average: 10
Electric dark correction enabled: true
Nonlinearity correction enabled: false
Boxcar width: 5
Stray light correction enabled: false
XAxis mode: Wavelengths
Stop averaging: false
Number of Pixels in Spectrum: 3648
>>>>>Begin Spectral Data<<<<<
177.575	-52.85
177.794	-108.25
178.014	-168.31
178.233	-1007.89
178.452	5704.88
178.672	-220.36
178.891	36.93
179.11	-20.12
179.33	-21.06
179.549	-32.24
179.768	-28.52
179.987	-157.36
180.207	-603.43
180.426	-559.85
180.645	-462.2
180.864	-344.48
181.084	-278.3
181.303	-190.71
181.522	-125.11
181.741	-165.64
181.96	-165.2
182.179	-197.84
182.398	-125.53
182.618	-84.66
182.837	-99.25
183.056	-96.82
183.275	-78.56
183.494	-89.94
183.713	-118.42
183.932	-97.82
184.151	-119.13
184.37	-93.91
184.589	-50.14
184.808	-26.7
185.027	-25.93
185.246	-21.38
185.465	10.56
185.684	-16.55
185.903	14.58
186.122	-0.89
186.341	-12.05
186.56	10.98
186.779	9.93
186.998	5.36
187.216	2.81
187.435	-0.41
187.654	5.45
187.873	-15.36
188.092	-14.24
188.311	-27.34
188.53	-24.91
188.748	-9.42
188.967	-25.32
189.186	-40.09
189.405	-41.27
189.623	-23.75
189.842	-47.29
190.061	-37.78
190.28	-32.12
190.498	-22.3
190.717	-19.25
190.936	-23.15
191.154	-36.08
191.373	-15.41
191.592	-20.76
191.81	-9.49
192.029	-12.52
192.248	-8.32
192.466	-22.99
192.685	-27.62
192.904	-17.4
193.122	-33.64
193.341	-26.8
193.559	-29.61
193.778	-99.01
193.996	-99.52
194.215	-145.48
194.433	-142.74
194.652	-53.99
194.87	-54.18
195.089	-31.93
195.307	-45.7
195.526	-34.9
195.744	-10.61
195.963	-7.65
196.181	19.44
196.399	28.98
196.618	-16.06
196.836	-29.68
197.055	-144.63
197.273	-170.03
197.491	-392.21
197.71	-101.49
197.928	-82.05
198.146	-66.02
198.365	-157.46
198.583	-117.51
198.801	-65.25
199.019	-61.27
199.238	-29.14
199.456	-17.87
199.674	-10.43
199.892	-19.55
200.111	-55.35
200.329	-36.6
200.547	-49.53
200.765	-40.62
200.983	-48.09
201.202	-37.79
201.42	-29.77
201.638	-47.35
201.856	-20.81
202.074	-46.15
202.292	-39.86
202.51	-18.65
202.728	-25.18
202.946	-26.11
203.165	-26.35
203.383	-25.84
203.601	-43.42
203.819	-27.76
204.037	-21.97
204.255	-28.19
204.473	-3
204.691	-9.12
204.909	0.97
205.127	-2.55
205.345	-29.16
205.562	-34.52
205.78	-28.33
205.998	-20.86
206.216	-24.05
206.434	-22.61
206.652	-38.13
206.87	-55.46
207.088	-40.58
207.306	-39.3
207.523	-37.61
207.741	-2.26
207.959	-4.97
208.177	-7.25
208.395	6.81
208.612	2.25
208.83	-6.83
209.048	-7.67
209.266	6.55
209.483	5.36
209.701	-14.54
209.919	-18.07
210.136	-25.67
210.354	-12.97
210.572	-23
210.79	-24.93
211.007	-28.76
211.225	-42.6
211.442	-28.34
211.66	-42.95
211.878	-39.56
212.095	-25.83
212.313	-15.83
212.53	-1.69
212.748	8.16
212.966	20.21
213.183	11.8
213.401	12.76
213.618	34.29
213.836	25.88
214.053	11.98
214.271	6.14
214.488	6.7
214.705	0.17
214.923	-12.3
215.14	-35.61
215.358	-48.26
215.575	-48.74
215.793	-28.55
216.01	-35.45
216.227	-37.09
216.445	-12.98
216.662	-22.29
216.879	-21.65
217.097	-30.55
217.314	-32.53
217.531	-30.82
217.749	-27.77
217.966	-15.16
218.183	-14.26
218.4	-30.17
218.618	-35.64
218.835	-39.92
219.052	-30.54
219.269	-32.38
219.487	-14.68
219.704	-9.09
219.921	-1.01
220.138	6.9
220.355	0.62
220.572	-3.25
220.79	0.03
221.007	2.13
221.224	1.12
221.441	0.12
221.658	5.21
221.875	-1.25
222.092	-7.06
222.309	-5.88
222.526	-8.35
222.743	-0.06
222.96	1.31
223.177	7.03
223.394	8.48
223.611	2.08
223.828	-7.44
224.045	-12.87
224.262	-14.9
224.479	-8.97
224.696	-8.21
224.913	-10.3
225.13	-10.21
225.347	-6.01
225.564	-2.42
225.781	-1.15
225.997	3.31
226.214	6.02
226.431	7.67
226.648	9.75
226.865	10.26
227.082	9.61
227.298	9.28
227.515	8.92
227.732	8.13
227.949	7.47
228.165	8.12
228.382	7.76
228.599	8.02
228.816	7.11
229.032	6.64
229.249	6.34
229.466	5.42
229.682	6.08
229.899	6.43
230.116	6.37
230.332	5.53
230.549	4.97
230.765	5.38
230.982	6.07
231.199	6.33
231.415	6.86
231.632	6.97
231.848	8.06
232.065	9.16
232.281	8.72
232.498	9.39
232.714	9.31
232.931	8.34
233.147	7.27
233.364	7.41
233.58	8.48
233.797	6.74
234.013	5.96
234.23	5.66
234.446	4.63
234.662	7.19
234.879	7.97
235.095	6.86
235.312	8.39
235.528	6.53
235.744	6.48
235.961	4.83
236.177	6.85
236.393	6.58
236.61	7.75
236.826	6.17
237.042	4.53
237.258	3.51
237.475	2.82
237.691	1.44
237.907	4.9
238.123	4.56
238.339	3.85
238.556	3.64
238.772	3.62
238.988	3.8
239.204	5.14
239.42	4.1
239.636	3.52
239.853	5
240.069	4.78
240.285	4.35
240.501	4.75
240.717	5.81
240.933	5.9
241.149	6.6
241.365	5.63
241.581	5.34
241.797	5.25
242.013	5.55
242.229	4.86
242.445	6.01
242.661	6.1
242.877	5.52
243.093	4.84
243.309	4.83
243.525	4.16
243.741	4.35
243.957	4.45
244.173	5.03
244.388	5.04
244.604	5.74
244.82	5.56
245.036	4.99
245.252	5.25
245.468	5.5
245.683	5.34
245.899	5.69
246.115	6.29
246.331	6.65
246.547	6.78
246.762	6.86
246.978	6.61
247.194	6.1
247.409	6.72
247.625	6.67
247.841	6.51
248.057	7
248.272	6.85
248.488	6.79
248.703	6.45
248.919	5.73
249.135	5.6
249.35	5.09
249.566	5.87
249.782	5.42
249.997	5.33
250.213	5.7
250.428	4.83
250.644	4.62
250.859	3.9
251.075	3.87
251.29	4.34
251.506	3.13
251.721	4.16
251.937	3.32
252.152	3.46
252.368	3.67
252.583	2.66
252.798	2.6
253.014	1.81
253.229	1.49
253.445	1.02
253.66	0.93
253.875	2.72
254.091	0.7
254.306	1.98
254.521	1.45
254.737	1.99
254.952	3.3
255.167	3.85
255.383	5.32
255.598	6.11
255.813	5.92
256.028	5.39
256.244	5
256.459	5.49
256.674	5.39
256.889	5.42
257.104	4.66
257.32	4.45
257.535	4.32
257.75	4.02
257.965	3.82
258.18	3.78
258.395	3.53
258.61	3.58
258.826	3.56
259.041	3.34
259.256	3.45
259.471	3.64
259.686	3.6
259.901	3.58
260.116	3.81
260.331	3.85
260.546	3.79
260.761	3.98
260.976	4.02
261.191	3.96
261.406	3.65
261.621	3.74
261.836	3.6
262.05	3.52
262.265	3.38
262.48	2.55
262.695	2.52
262.91	2.66
263.125	2.89
263.34	2.99
263.555	2.67
263.769	3.17
263.984	2.18
264.199	2.08
264.414	2.18
264.629	2.29
264.843	2.52
265.058	2.43
265.273	2.29
265.488	2.22
265.702	2.3
265.917	2.4
266.132	2.45
266.346	2.48
266.561	2.37
266.776	2.16
266.99	1.93
267.205	2.28
267.42	2.45
267.634	2.76
267.849	2.62
268.063	3.06
268.278	3.07
268.492	2.42
268.707	2.78
268.922	3.35
269.136	3.53
269.351	3.65
269.565	3.17
269.78	3.14
269.994	3.19
270.209	3.48
270.423	2.86
270.637	2.79
270.852	3.38
271.066	3.48
271.281	3.45
271.495	2.98
271.709	2.95
271.924	2.9
272.138	3.41
272.353	3.01
272.567	2.84
272.781	3.06
272.996	2.98
273.21	2.39
273.424	2.18
273.638	1.74
273.853	2.11
274.067	2.08
274.281	2.7
274.495	2.12
274.71	2.09
274.924	1.67
275.138	1.68
275.352	1.78
275.566	2.06
275.781	2.14
275.995	2.37
276.209	2.28
276.423	2.05
276.637	1.29
276.851	0.47
277.065	0.64
277.279	0.82
277.493	0.3
277.707	0.81
277.921	0.75
278.135	0.87
278.349	0.63
278.563	0.71
278.777	1.1
278.991	1.46
279.205	2.05
279.419	1.87
279.633	2.4
279.847	2.7
280.061	2.27
280.275	2.24
280.489	1.85
280.703	1.89
280.917	2.19
281.131	2.11
281.344	1.9
281.558	1.97
281.772	2.34
281.986	2.23
282.2	1.95
282.414	2.08
282.627	1.78
282.841	2.08
283.055	2.2
283.269	2.15
283.482	2.46
283.696	2.74
283.91	2.84
284.123	2.55
284.337	2.5
284.551	2.76
284.764	2.29
284.978	2.96
285.192	3.14
285.405	2.83
285.619	2.79
285.833	2.48
286.046	2.22
286.26	2.42
286.473	2.91
286.687	2.85
286.9	3.24
287.114	3.55
287.327	3.06
287.541	2.65
287.754	3.06
287.968	2.91
288.181	2.79
288.395	2.72
288.608	2.18
288.822	1.8
289.035	2.11
289.248	1.6
289.462	1.71
289.675	1.98
289.889	2.3
290.102	2.06
290.315	2.22
290.529	2.65
290.742	2.52
290.955	2.46
291.169	2.51
291.382	1.85
291.595	2.07
291.808	2.19
292.022	2.21
292.235	1.95
292.448	2.19
292.661	2.25
292.875	1.82
293.088	2.13
293.301	2.41
293.514	2.35
293.727	2.81
293.94	2.76
294.153	2.6
294.367	2.52
294.58	2.46
294.793	2.33
295.006	2.36
295.219	2.45
295.432	2.6
295.645	2.47
295.858	2.62
296.071	2.55
296.284	2.47
296.497	2.55
296.71	2.37
296.923	2.65
297.136	2.7
297.349	2.75
297.562	2.74
297.775	2.42
297.988	2.54
298.201	2.82
298.414	2.99
298.626	3.2
298.839	3.23
299.052	3.32
299.265	3.18
299.478	3.09
299.691	2.55
299.903	2.7
300.116	2.71
300.329	2.91
300.542	2.72
300.755	2.29
300.967	1.86
301.18	1.62
301.393	1.38
301.605	1.28
301.818	1.26
302.031	1.32
302.243	1.28
302.456	1.54
302.669	1.4
302.881	1.3
303.094	1.71
303.307	1.87
303.519	2.08
303.732	2.5
303.944	2.51
304.157	2.33
304.37	2.54
304.582	2.61
304.795	2.54
305.007	2.27
305.22	1.92
305.432	1.94
305.645	1.94
305.857	2.08
306.069	2.24
306.282	1.87
306.494	1.96
306.707	2.47
306.919	2.19
307.132	2.23
307.344	2.22
307.556	2.45
307.769	1.9
307.981	2.07
308.193	2.21
308.406	2.14
308.618	2.6
308.83	2.98
309.043	2.97
309.255	2.94
309.467	2.96
309.679	2.76
309.892	3.06
310.104	3.29
310.316	3.35
310.528	3.2
310.74	3.23
310.953	2.69
311.165	2.36
311.377	2.01
311.589	2.23
311.801	1.95
312.013	2.38
312.225	2.14
312.437	2.66
312.649	2.65
312.862	2.42
313.074	2.39
313.286	3.12
313.498	3.22
313.71	3.13
313.922	2.96
314.134	3.15
314.346	3.19
314.558	2.82
314.77	2.38
314.982	2.41
315.193	2.41
315.405	1.65
315.617	1.5
315.829	1.28
316.041	1.65
316.253	1.72
316.465	1.73
316.677	1.45
316.888	1.55
317.1	1.58
317.312	1.56
317.524	1.78
317.736	2.47
317.947	2.51
318.159	2.44
318.371	2.16
318.583	2.36
318.794	2.49
319.006	3.01
319.218	3.71
319.43	4.17
319.641	3.92
319.853	3.81
320.064	3.08
320.276	2.71
320.488	2.98
320.699	2.95
320.911	3.03
321.123	2.89
321.334	2.99
321.546	2.76
321.757	2.21
321.969	2.29
322.18	2.23
322.392	3.1
322.603	3.66
322.815	3.85
323.026	4.17
323.238	3.95
323.449	4.08
323.661	3.84
323.872	3.76
324.083	3.64
324.295	3.7
324.506	3.77
324.718	3.4
324.929	3.41
325.14	2.83
325.352	2.92
325.563	3.34
325.774	3.08
325.986	2.86
326.197	2.35
326.408	2.67
326.62	2.91
326.831	2.35
327.042	2.21
327.253	1.91
327.464	2.34
327.676	1.8
327.887	0.92
328.098	1.33
328.309	1.4
328.52	1.85
328.732	1.47
328.943	1.06
329.154	1.71
329.365	2.43
329.576	2.59
329.787	2.56
329.998	2.59
330.209	2.75
330.42	2.5
330.631	2.35
330.842	2.53
331.053	2.67
331.264	2.65
331.475	2.54
331.686	2.27
331.897	1.86
332.108	1.62
332.319	1.95
332.53	2.81
332.741	3.1
332.952	3.32
333.163	2.84
333.374	3.04
333.585	3.2
333.795	3.15
334.006	3.28
334.217	3.44
334.428	3.58
334.639	3.46
334.849	2.89
335.06	2.59
335.271	2.3
335.482	2.36
335.692	2.06
335.903	2.23
336.114	2.26
336.325	1.97
336.535	2.05
336.746	2.08
336.957	2.03
337.167	2.08
337.378	1.95
337.589	2.09
337.799	2.05
338.01	2.3
338.22	1.9
338.431	2.03
338.642	1.7
338.852	1.65
339.063	1.84
339.273	1.89
339.484	1.59
339.694	1.47
339.905	1.46
340.115	1.87
340.326	1.63
340.536	2.01
340.746	2.15
340.957	2.34
341.167	2.1
341.378	2.06
341.588	2.21
341.799	2.42
342.009	2.51
342.219	2.28
342.43	2.13
342.64	2.01
342.85	1.91
343.061	1.75
343.271	2.45
343.481	2.61
343.691	2.6
343.902	2.44
344.112	2.47
344.322	2.57
344.532	2.86
344.743	2.92
344.953	3.17
345.163	2.99
345.373	3.13
345.583	2.34
345.793	2.48
346.004	2.74
346.214	2.81
346.424	3.1
346.634	3.03
346.844	3.25
347.054	3.17
347.264	3.01
347.474	3.02
347.684	2.63
347.894	3.17
348.104	3.1
348.314	2.42
348.524	2.47
348.734	2.12
348.944	2.07
349.154	1.67
349.364	1.76
349.574	1.85
349.784	1.82
349.994	2
350.204	1.76
350.413	1.64
350.623	1.71
350.833	1.73
351.043	1.77
351.253	1.78
351.463	1.91
351.672	1.75
351.882	1.68
352.092	1.6
352.302	1.66
352.511	1.6
352.721	1.66
352.931	1.79
353.141	1.34
353.35	1.11
353.56	1.19
353.77	0.82
353.979	0.85
354.189	0.95
354.399	0.93
354.608	1.03
354.818	0.96
355.027	1.17
355.237	1.31
355.447	1.68
355.656	1.96
355.866	1.95
356.075	2.3
356.285	2.17
356.494	1.99
356.704	1.93
356.913	1.77
357.123	2.09
357.332	1.95
357.542	1.93
357.751	1.65
357.96	1.49
358.17	1.58
358.379	1.7
358.589	1.75
358.798	1.83
359.007	2.02
359.217	2.23
359.426	2.08
359.635	1.94
359.845	2
360.054	2.13
360.263	2.31
360.472	1.98
360.682	1.94
360.891	2.03
361.1	2.15
361.309	2.23
361.519	2.12
361.728	1.99
361.937	2.07
362.146	1.92
362.355	2.14
362.564	2.01
362.774	2.34
362.983	2.26
363.192	2.11
363.401	2.05
363.61	1.99
363.819	2.26
364.028	2.2
364.237	2.23
364.446	2.36
364.655	2
364.864	1.91
365.073	1.83
365.282	1.75
365.491	1.46
365.7	1.48
365.909	1.21
366.118	0.79
366.327	0.76
366.536	0.76
366.745	0.73
366.954	0.87
367.162	0.87
367.371	1.01
367.58	1.02
367.789	1.4
367.998	1.31
368.207	1.79
368.415	1.83
368.624	1.99
368.833	1.85
369.042	1.94
369.25	1.87
369.459	1.7
369.668	1.48
369.877	1.34
370.085	1.27
370.294	1.42
370.503	0.97
370.711	0.81
370.92	0.6
371.129	0.68
371.337	0.67
371.546	0.61
371.754	0.98
371.963	1.16
372.171	1.5
372.38	1.49
372.589	1.59
372.797	1.84
373.006	1.78
373.214	2.05
373.423	2.03
373.631	1.87
373.84	1.93
374.048	1.7
374.256	1.6
374.465	1.44
374.673	1.5
374.882	1.23
375.09	0.97
375.298	1.11
375.507	0.96
375.715	1.11
375.923	1.42
376.132	1.26
376.34	1.24
376.548	1.28
376.757	1.36
376.965	1.4
377.173	1.29
377.381	1.55
377.59	1.42
377.798	1.49
378.006	1.47
378.214	1.27
378.423	1.52
378.631	1.66
378.839	1.78
379.047	1.69
379.255	1.73
379.463	1.98
379.671	1.85
379.879	2.07
380.088	2.15
380.296	1.94
380.504	1.85
380.712	1.61
380.92	1.49
381.128	1.31
381.336	1.32
381.544	1.12
381.752	1.17
381.96	1.38
382.168	1.56
382.376	1.54
382.584	1.68
382.791	1.59
382.999	1.66
383.207	1.61
383.415	1.68
383.623	1.72
383.831	1.86
384.039	1.76
384.247	1.66
384.454	1.49
384.662	1.34
384.87	1.38
385.078	1.18
385.285	1.33
385.493	1.3
385.701	1.36
385.909	1.31
386.116	1.39
386.324	1.35
386.532	1.2
386.739	1.13
386.947	1.26
387.155	1.19
387.362	1.29
387.57	1.28
387.778	1.2
387.985	1.23
388.193	1.21
388.4	0.92
388.608	0.88
388.816	1.08
389.023	1.18
389.231	1.19
389.438	0.96
389.646	1.04
389.853	1.03
390.061	1.25
390.268	1.23
390.475	1.18
390.683	1.48
390.89	1.6
391.098	1.6
391.305	1.45
391.512	1.57
391.72	1.78
391.927	1.76
392.135	1.66
392.342	1.53
392.549	1.35
392.756	1.43
392.964	1.15
393.171	1.06
393.378	1.1
393.586	1.1
393.793	1.08
394	1.02
394.207	1.08
394.414	1.03
394.622	1
394.829	1.15
395.036	1.03
395.243	1.29
395.45	1.19
395.657	1.13
395.864	1.11
396.072	0.96
396.279	1.1
396.486	1.05
396.693	1.21
396.9	1.12
397.107	1.09
397.314	0.97
397.521	0.89
397.728	0.97
397.935	0.89
398.142	0.97
398.349	0.81
398.556	0.65
398.763	0.79
398.97	0.7
399.177	0.99
399.383	1
399.59	1.39
399.797	1.25
400.004	1.26
400.211	1.05
400.418	1.17
400.625	1.29
400.831	1.42
401.038	1.37
401.245	1.38
401.452	1.44
401.658	1.61
401.865	1.43
402.072	1.46
402.279	1.35
402.485	1.5
402.692	1.34
402.899	1.2
403.105	1.25
403.312	1.07
403.519	1.09
403.725	0.95
403.932	0.93
404.138	0.74
404.345	0.77
404.552	0.9
404.758	1.01
404.965	0.94
405.171	1
405.378	0.83
405.584	0.89
405.791	0.89
405.997	0.79
406.204	0.67
406.41	0.88
406.617	0.91
406.823	0.76
407.029	0.73
407.236	0.91
407.442	1.12
407.649	1.15
407.855	1.14
408.061	1.09
408.268	1.08
408.474	0.99
408.68	0.91
408.887	0.86
409.093	0.96
409.299	0.95
409.505	0.85
409.712	0.79
409.918	0.7
410.124	0.75
410.33	0.7
410.537	0.75
410.743	0.58
410.949	0.5
411.155	0.61
411.361	0.48
411.567	0.4
411.773	0.5
411.98	0.35
412.186	0.42
412.392	0.48
412.598	0.5
412.804	0.38
413.01	0.61
413.216	0.7
413.422	0.42
413.628	0.63
413.834	0.51
414.04	0.69
414.246	0.72
414.452	0.53
414.658	0.48
414.864	0.6
415.07	0.64
415.275	0.51
415.481	0.5
415.687	0.67
415.893	0.67
416.099	0.79
416.305	0.68
416.511	0.58
416.716	0.68
416.922	0.63
417.128	0.53
417.334	0.54
417.539	0.7
417.745	0.78
417.951	0.74
418.157	0.68
418.362	0.69
418.568	0.66
418.774	0.72
418.979	0.78
419.185	0.84
419.391	0.85
419.596	0.86
419.802	0.76
420.008	0.71
420.213	-0.04
420.419	0.03
420.624	-0.01
420.83	-0.01
421.035	-0.05
421.241	-0.07
421.446	-0.19
421.652	-0.2
421.857	-0.18
422.063	-0.14
422.268	-0.16
422.474	0.61
422.679	0.51
422.885	0.58
423.09	0.57
423.295	0.64
423.501	0.65
423.706	0.67
423.911	0.76
424.117	0.76
424.322	0.76
424.527	0.77
424.733	0.68
424.938	0.66
425.143	0.59
425.349	0.62
425.554	0.59
425.759	0.59
425.964	0.69
426.169	0.62
426.375	0.55
426.58	0.6
426.785	0.48
426.99	0.52
427.195	0.63
427.4	0.61
427.605	0.42
427.811	0.22
428.016	0.21
428.221	0.13
428.426	0.06
428.631	0.17
428.836	0.27
429.041	0.29
429.246	0.29
429.451	0.2
429.656	0.21
429.861	0.33
430.066	0.61
430.271	0.49
430.476	0.56
430.681	0.63
430.886	0.66
431.09	0.56
431.295	0.65
431.5	0.69
431.705	0.77
431.91	0.78
432.115	0.81
432.32	0.74
432.524	0.88
432.729	0.79
432.934	0.8
433.139	0.73
433.343	0.71
433.548	0.67
433.753	0.69
433.958	0.63
434.162	0.53
434.367	0.53
434.572	0.7
434.776	0.59
434.981	0.73
435.186	0.69
435.39	0.69
435.595	0.69
435.799	0.66
436.004	0.61
436.209	0.63
436.413	0.7
436.618	0.71
436.822	0.5
437.027	0.49
437.231	0.38
437.436	0.41
437.64	0.45
437.845	0.48
438.049	0.47
438.253	0.52
438.458	0.51
438.662	0.47
438.867	0.44
439.071	0.5
439.275	0.51
439.48	0.58
439.684	0.54
439.888	0.47
440.093	0.37
440.297	0.5
440.501	0.53
440.706	0.49
440.91	0.51
441.114	0.44
441.318	0.4
441.523	0.35
441.727	0.28
441.931	0.27
442.135	0.28
442.339	0.33
442.543	0.27
442.748	0.22
442.952	0.23
443.156	0.27
443.36	0.36
443.564	0.44
443.768	0.54
443.972	0.57
444.176	0.58
444.38	0.66
444.584	0.69
444.788	0.65
444.992	0.59
445.196	0.62
445.4	0.66
445.604	0.64
445.808	0.62
446.012	0.65
446.216	0.6
446.42	0.63
446.624	0.52
446.828	0.47
447.032	0.48
447.235	0.47
447.439	0.48
447.643	0.39
447.847	0.4
448.051	0.34
448.254	0.35
448.458	0.28
448.662	0.22
448.866	0.27
449.069	0.34
449.273	0.33
449.477	0.41
449.681	0.39
449.884	0.35
450.088	0.37
450.292	0.34
450.495	0.22
450.699	0.4
450.902	0.33
451.106	0.41
451.31	0.39
451.513	0.39
451.717	0.41
451.92	0.47
452.124	0.56
452.327	0.56
452.531	0.68
452.734	0.63
452.938	0.5
453.141	0.57
453.345	0.46
453.548	0.5
453.752	0.54
453.955	0.48
454.158	0.35
454.362	0.27
454.565	0.17
454.769	0.18
454.972	0.24
455.175	0.19
455.379	0.22
455.582	0.24
455.785	0.28
455.988	0.25
456.192	0.2
456.395	0.24
456.598	0.33
456.801	0.42
457.005	0.35
457.208	0.38
457.411	0.41
457.614	0.46
457.817	0.53
458.021	0.5
458.224	0.46
458.427	0.55
458.63	0.59
458.833	0.52
459.036	0.48
459.239	0.48
459.442	0.45
459.645	0.46
459.848	0.34
460.051	0.31
460.254	0.33
460.457	0.4
460.66	0.33
460.863	0.28
461.066	0.27
461.269	0.31
461.472	0.31
461.675	0.24
461.878	0.25
462.081	0.3
462.284	0.34
462.486	0.28
462.689	0.21
462.892	0.23
463.095	0.31
463.298	0.39
463.5	0.32
463.703	0.28
463.906	0.39
464.109	0.46
464.311	0.47
464.514	0.42
464.717	0.33
464.92	0.3
465.122	0.32
465.325	0.29
465.528	0.26
465.73	0.27
465.933	0.29
466.135	0.3
466.338	0.27
466.541	0.2
466.743	0.18
466.946	0.2
467.148	0.31
467.351	0.32
467.553	0.37
467.756	0.27
467.958	0.29
468.161	0.3
468.363	0.38
468.566	0.42
468.768	0.48
468.971	0.37
469.173	0.34
469.375	0.21
469.578	0.25
469.78	0.23
469.983	0.32
470.185	0.32
470.387	0.43
470.59	0.36
470.792	0.21
470.994	0.18
471.196	0.28
471.399	0.37
471.601	0.45
471.803	0.49
472.005	0.41
472.208	0.45
472.41	0.53
472.612	0.47
472.814	0.5
473.016	0.58
473.218	0.61
473.421	0.66
473.623	0.66
473.825	0.63
474.027	0.54
474.229	0.55
474.431	0.56
474.633	0.51
474.835	0.53
475.037	0.51
475.239	0.52
475.441	0.52
475.643	0.48
475.845	0.45
476.047	0.39
476.249	0.4
476.451	0.39
476.653	0.28
476.855	0.28
477.057	0.2
477.258	0.1
477.46	0.08
477.662	0.11
477.864	0.14
478.066	0.21
478.268	0.26
478.469	0.27
478.671	0.31
478.873	0.28
479.075	0.24
479.276	0.33
479.478	0.41
479.68	0.37
479.882	0.35
480.083	0.28
480.285	0.21
480.487	0.21
480.688	0.2
480.89	0.15
481.091	0.26
481.293	0.27
481.495	0.26
481.696	0.29
481.898	0.32
482.099	0.36
482.301	0.38
482.502	0.37
482.704	0.4
482.905	0.42
483.107	0.44
483.308	0.41
483.51	0.43
483.711	0.42
483.913	0.42
484.114	0.46
484.315	0.44
484.517	0.45
484.718	0.45
484.92	0.44
485.121	0.44
485.322	0.47
485.524	0.48
485.725	0.47
485.926	0.49
486.127	0.48
486.329	0.45
486.53	0.45
486.731	0.49
486.932	0.51
487.134	0.49
487.335	0.47
487.536	0.47
487.737	0.47
487.938	0.48
488.139	0.46
488.341	0.43
488.542	0.44
488.743	0.44
488.944	0.34
489.145	0.38
489.346	0.39
489.547	0.4
489.748	0.37
489.949	0.39
490.15	0.37
490.351	0.42
490.552	0.43
490.753	0.42
490.954	0.44
491.155	0.49
491.356	0.45
491.557	0.43
491.758	0.43
491.959	0.48
492.159	0.47
492.36	0.51
492.561	0.5
492.762	0.44
492.963	0.43
493.164	0.44
493.364	0.45
493.565	0.44
493.766	0.45
493.967	0.46
494.167	0.39
494.368	0.37
494.569	0.44
494.769	0.38
494.97	0.42
495.171	0.42
495.371	0.42
495.572	0.4
495.773	0.43
495.973	0.42
496.174	0.44
496.375	0.47
496.575	0.52
496.776	0.5
496.976	0.54
497.177	0.52
497.377	0.51
497.578	0.51
497.778	0.55
497.979	0.49
498.179	0.45
498.38	0.41
498.58	0.42
498.78	0.41
498.981	0.3
499.181	0.35
499.382	0.42
499.582	0.45
499.782	0.5
499.983	0.49
500.183	0.67
500.383	0.77
500.584	0.74
500.784	0.73
500.984	0.63
501.184	0.71
501.385	0.56
501.585	0.6
501.785	0.54
501.985	0.55
502.185	0.48
502.386	0.34
502.586	0.29
502.786	0.32
502.986	0.32
503.186	0.35
503.386	0.32
503.586	0.44
503.786	0.39
503.987	0.42
504.187	0.41
504.387	0.43
504.587	0.53
504.787	0.54
504.987	0.52
505.187	0.54
505.387	0.58
505.587	0.61
505.786	0.59
505.986	0.54
506.186	0.53
506.386	0.57
506.586	0.57
506.786	0.54
506.986	0.54
507.186	0.53
507.386	0.56
507.585	0.55
507.785	0.53
507.985	0.49
508.185	0.63
508.384	0.67
508.584	0.63
508.784	0.65
508.984	0.64
509.183	0.66
509.383	0.65
509.583	0.59
509.782	0.62
509.982	0.63
510.182	0.7
510.381	0.65
510.581	0.59
510.781	0.51
510.98	0.43
511.18	0.44
511.379	0.52
511.579	0.53
511.778	0.53
511.978	0.53
512.177	0.57
512.377	0.53
512.576	0.44
512.776	0.44
512.975	0.34
513.175	0.43
513.374	0.37
513.573	0.32
513.773	0.4
513.972	0.49
514.172	0.45
514.371	0.39
514.57	0.36
514.77	0.29
514.969	0.35
515.168	0.51
515.367	0.5
515.567	0.54
515.766	0.58
515.965	0.55
516.164	0.46
516.364	0.51
516.563	0.54
516.762	0.6
516.961	0.67
517.16	0.65
517.359	0.66
517.559	0.68
517.758	0.71
517.957	0.72
518.156	0.73
518.355	0.79
518.554	0.78
518.753	0.79
518.952	0.8
519.151	0.84
519.35	0.9
519.549	0.9
519.748	0.94
519.947	0.95
520.146	0.93
520.345	0.97
520.544	0.93
520.743	0.86
520.942	0.85
521.141	0.91
521.339	0.86
521.538	0.82
521.737	0.87
521.936	0.77
522.135	0.77
522.333	0.75
522.532	0.75
522.731	0.79
522.93	0.85
523.129	0.91
523.327	0.91
523.526	0.99
523.725	1.07
523.923	0.93
524.122	0.99
524.321	1
524.519	1.04
524.718	1.04
524.917	1.06
525.115	1.05
525.314	1.05
525.512	1.02
525.711	1
525.909	0.99
526.108	1.11
526.306	1.15
526.505	1.17
526.703	1.16
526.902	1.2
527.1	1.21
527.299	1.23
527.497	1.26
527.696	1.28
527.894	1.29
528.092	1.34
528.291	1.36
528.489	1.35
528.688	1.36
528.886	1.39
529.084	1.42
529.283	1.42
529.481	1.46
529.679	1.44
529.877	1.48
530.076	1.47
530.274	1.38
530.472	1.33
530.67	1.38
530.869	1.36
531.067	1.35
531.265	1.34
531.463	1.39
531.661	1.41
531.859	1.45
532.057	1.43
532.255	1.44
532.454	1.5
532.652	1.48
532.85	1.49
533.048	1.5
533.246	1.55
533.444	1.54
533.642	1.52
533.84	1.53
534.038	1.46
534.236	1.47
534.434	1.51
534.632	1.53
534.83	1.63
535.027	1.64
535.225	1.67
535.423	1.62
535.621	1.61
535.819	1.62
536.017	1.52
536.215	1.61
536.412	1.63
536.61	1.66
536.808	1.64
537.006	1.64
537.203	1.61
537.401	1.64
537.599	1.69
537.797	1.77
537.994	1.8
538.192	1.87
538.39	1.86
538.587	1.92
538.785	1.94
538.983	1.99
539.18	2
539.378	2.06
539.575	2.04
539.773	2.07
539.97	2.11
540.168	2.16
540.366	2.21
540.563	2.21
540.761	2.22
540.958	2.25
541.155	2.28
541.353	2.27
541.55	2.24
541.748	2.28
541.945	2.29
542.143	2.25
542.34	2.27
542.537	2.3
542.735	2.36
542.932	2.39
543.129	2.41
543.327	2.4
543.524	2.47
543.721	2.57
543.919	2.6
544.116	2.61
544.313	2.66
544.51	2.66
544.708	2.66
544.905	2.65
545.102	2.71
545.299	2.71
545.496	2.77
545.693	2.73
545.891	2.71
546.088	2.75
546.285	2.86
546.482	2.9
546.679	2.93
546.876	3
547.073	3.07
547.27	3.14
547.467	3.17
547.664	3.22
547.861	3.34
548.058	3.49
548.255	3.55
548.452	3.5
548.649	3.52
548.846	3.58
549.043	3.54
549.24	3.53
549.437	3.5
549.633	3.59
549.83	3.51
550.027	3.5
550.224	3.31
550.421	3.28
550.618	3.32
550.814	3.45
551.011	3.45
551.208	3.56
551.405	3.67
551.601	3.77
551.798	3.86
551.995	3.9
552.191	3.99
552.388	4.28
552.585	4.44
552.781	4.59
552.978	4.59
553.175	4.6
553.371	4.68
553.568	4.62
553.764	4.59
553.961	4.54
554.157	4.66
554.354	4.69
554.55	4.54
554.747	4.54
554.943	4.58
555.14	4.67
555.336	4.7
555.533	4.68
555.729	4.71
555.926	4.77
556.122	4.67
556.318	4.75
556.515	4.82
556.711	5.01
556.907	4.98
557.104	4.96
557.3	4.94
557.496	5.04
557.693	5.15
557.889	5.3
558.085	5.32
558.281	5.46
558.478	5.47
558.674	5.54
558.87	5.5
559.066	5.66
559.262	5.7
559.459	5.75
559.655	5.89
559.851	5.82
560.047	5.89
560.243	5.98
560.439	6.11
560.635	6.13
560.831	6.17
561.027	6.26
561.223	6.22
561.419	6.37
561.615	6.52
561.811	6.52
562.007	6.61
562.203	6.67
562.399	6.76
562.595	6.91
562.791	7.03
562.987	7.1
563.183	7.16
563.379	7.25
563.575	7.25
563.771	7.33
563.966	7.49
564.162	7.54
564.358	7.51
564.554	7.55
564.75	7.65
564.945	7.71
565.141	7.8
565.337	7.83
565.533	7.91
565.728	7.92
565.924	7.96
566.12	7.89
566.315	7.94
566.511	8.05
566.707	8.11
566.902	8.06
567.098	8.11
567.293	8.09
567.489	8.17
567.684	8.19
567.88	8.27
568.076	8.28
568.271	8.34
568.467	8.43
568.662	8.58
568.858	8.69
569.053	8.85
569.248	8.93
569.444	9.03
569.639	9.15
569.835	9.3
570.03	9.34
570.225	9.51
570.421	9.66
570.616	9.76
570.812	9.86
571.007	9.9
571.202	9.9
571.397	9.92
571.593	9.97
571.788	9.92
571.983	9.87
572.178	9.93
572.374	9.95
572.569	9.94
572.764	10.04
572.959	10.04
573.154	10.03
573.35	10.13
573.545	10.14
573.74	10.29
573.935	10.4
574.13	10.52
574.325	10.58
574.52	10.58
574.715	10.58
574.91	10.54
575.105	10.54
575.3	10.63
575.495	10.65
575.69	10.75
575.885	10.68
576.08	10.79
576.275	10.78
576.47	10.92
576.665	10.87
576.86	10.99
577.055	11.13
577.25	11.14
577.444	11.22
577.639	11.28
577.834	11.35
578.029	11.33
578.224	11.41
578.418	11.51
578.613	11.51
578.808	11.65
579.003	11.67
579.197	11.73
579.392	11.84
579.587	11.83
579.781	11.77
579.976	11.88
580.171	11.93
580.365	11.76
580.56	11.89
580.755	11.88
580.949	11.93
581.144	12.13
581.338	12.02
581.533	12
581.727	12.13
581.922	12.22
582.116	12.21
582.311	12.38
582.505	12.57
582.7	12.53
582.894	12.54
583.089	12.55
583.283	12.43
583.478	12.52
583.672	12.71
583.866	12.72
584.061	12.75
584.255	12.86
584.449	12.81
584.644	12.9
584.838	12.98
585.032	13.06
585.226	13.29
585.421	13.25
585.615	13.43
585.809	13.35
586.003	13.28
586.198	13.3
586.392	13.3
586.586	13.37
586.78	13.23
586.974	13.26
587.168	13.27
587.363	13.19
587.557	13.37
587.751	13.31
587.945	13.33
588.139	13.51
588.333	13.62
588.527	13.67
588.721	13.68
588.915	13.85
589.109	13.89
589.303	13.98
589.497	13.95
589.691	14.01
589.885	14.09
590.079	14.33
590.273	14.39
590.466	14.46
590.66	14.41
590.854	14.54
591.048	14.68
591.242	14.66
591.436	14.76
591.629	14.81
591.823	14.82
592.017	14.8
592.211	14.73
592.404	14.8
592.598	14.92
592.792	15.08
592.986	15.16
593.179	15.05
593.373	15.19
593.567	15.14
593.76	15.15
593.954	15.13
594.147	15.19
594.341	15.18
594.535	15.14
594.728	15.11
594.922	15.12
595.115	14.97
595.309	14.92
595.502	14.96
595.696	14.95
595.889	14.97
596.083	14.96
596.276	14.9
596.47	14.91
596.663	14.86
596.856	14.79
597.05	14.83
597.243	15
597.437	15.02
597.63	14.94
597.823	15.11
598.017	15.07
598.21	15.21
598.403	15.25
598.596	15.31
598.79	15.45
598.983	15.48
599.176	15.26
599.369	15.2
599.563	15.37
599.756	15.35
599.949	15.3
600.142	15.42
600.335	15.28
600.528	15.46
600.722	15.49
600.915	15.39
601.108	15.33
601.301	15.52
601.494	15.57
601.687	15.58
601.88	15.61
602.073	15.48
602.266	15.35
602.459	15.5
602.652	15.41
602.845	15.45
603.038	15.65
603.231	15.81
603.424	15.89
603.617	15.95
603.809	15.97
604.002	15.97
604.195	16.15
604.388	16.43
604.581	16.4
604.774	16.61
604.966	16.55
605.159	16.4
605.352	16.45
605.545	16.37
605.737	16.34
605.93	16.33
606.123	16.42
606.316	16.39
606.508	16.39
606.701	16.48
606.894	16.29
607.086	16.28
607.279	16.4
607.471	16.41
607.664	16.46
607.857	16.56
608.049	16.62
608.242	16.76
608.434	16.87
608.627	16.89
608.819	16.92
609.012	16.94
609.204	17.08
609.397	17.16
609.589	17.15
609.782	17.06
609.974	16.95
610.166	17
610.359	16.88
610.551	16.77
610.743	16.76
610.936	16.7
611.128	16.92
611.32	16.64
611.513	16.6
611.705	16.5
611.897	16.62
612.09	16.73
612.282	16.69
612.474	16.85
612.666	16.94
612.858	16.97
613.051	16.89
613.243	16.9
613.435	17.21
613.627	17.13
613.819	17.2
614.011	17.28
614.203	17.19
614.395	17.2
614.588	17.29
614.78	17.16
614.972	17.03
615.164	17.36
615.356	17.33
615.548	17.24
615.74	17.36
615.932	17.45
616.124	17.43
616.315	17.51
616.507	17.66
616.699	17.52
616.891	17.66
617.083	17.69
617.275	17.54
617.467	17.53
617.659	17.64
617.85	17.63
618.042	17.54
618.234	17.66
618.426	17.72
618.618	17.53
618.809	17.63
619.001	17.58
619.193	17.71
619.384	17.65
619.576	17.67
619.768	17.73
619.959	17.72
620.151	17.79
620.343	17.75
620.534	17.85
620.726	18.06
620.917	18.01
621.109	17.97
621.301	17.81
621.492	17.86
621.684	17.85
621.875	17.83
622.067	17.77
622.258	17.76
622.45	17.73
622.641	17.63
622.832	17.58
623.024	17.46
623.215	17.43
623.407	17.57
623.598	17.64
623.789	17.66
623.981	17.6
624.172	17.73
624.363	17.85
624.555	17.88
624.746	18.01
624.937	18.14
625.129	18.26
625.32	18.57
625.511	18.46
625.702	18.45
625.893	18.45
626.085	18.48
626.276	18.53
626.467	18.48
626.658	18.59
626.849	18.58
627.04	18.51
627.231	18.57
627.422	18.36
627.614	18.41
627.805	18.42
627.996	18.42
628.187	18.52
628.378	18.38
628.569	18.47
628.76	18.28
628.951	18.27
629.142	18.18
629.332	18.03
629.523	17.98
629.714	18.15
629.905	18.11
630.096	18.18
630.287	18.12
630.478	18.27
630.669	18.13
630.859	18.51
631.05	18.43
631.241	18.59
631.432	18.66
631.623	18.76
631.813	18.86
632.004	18.87
632.195	18.8
632.385	18.73
632.576	18.72
632.767	18.83
632.957	18.71
633.148	18.79
633.339	18.84
633.529	18.77
633.72	18.82
633.91	18.72
634.101	18.79
634.292	18.93
634.482	18.92
634.673	18.91
634.863	18.95
635.054	18.89
635.244	18.89
635.435	18.9
635.625	19.16
635.815	19.25
636.006	19.12
636.196	19.18
636.387	19.1
636.577	19.43
636.767	19.54
636.958	19.29
637.148	19.17
637.338	19.11
637.529	18.94
637.719	18.8
637.909	18.75
638.099	18.95
638.29	19.06
638.48	19.09
638.67	19
638.86	18.97
639.05	19.18
639.241	19.28
639.431	19.28
639.621	19.47
639.811	19.47
640.001	19.59
640.191	19.53
640.381	19.4
640.571	19.5
640.761	19.43
640.951	19.24
641.141	19.22
641.331	19.31
641.521	19.41
641.711	19.34
641.901	19.5
642.091	19.37
642.281	19.31
642.471	19.37
642.661	19.37
642.851	19.57
643.041	19.87
643.231	19.68
643.42	19.73
643.61	19.88
643.8	19.82
643.99	19.77
644.18	19.81
644.369	19.9
644.559	19.93
644.749	19.88
644.939	19.74
645.128	19.63
645.318	20.06
645.508	19.95
645.697	19.87
645.887	19.85
646.076	19.74
646.266	19.84
646.456	19.9
646.645	19.73
646.835	19.72
647.024	19.69
647.214	19.62
647.403	19.56
647.593	19.58
647.782	19.48
647.972	19.63
648.161	19.71
648.351	19.56
648.54	19.68
648.73	19.81
648.919	20.1
649.108	20.13
649.298	20.27
649.487	20.39
649.677	20.36
649.866	20.56
650.055	20.54
650.244	20.46
650.434	20.53
650.623	20.6
650.812	20.67
651.002	20.63
651.191	20.62
651.38	20.67
651.569	20.32
651.758	20.24
651.947	20.07
652.137	20.06
652.326	20.03
652.515	20.09
652.704	19.96
652.893	19.93
653.082	19.92
653.271	20.11
653.46	20.2
653.649	20.51
653.838	20.71
654.027	20.83
654.216	20.83
654.405	20.89
654.594	21
654.783	20.81
654.972	20.9
655.161	20.93
655.35	20.93
655.539	20.79
655.728	20.77
655.916	20.92
656.105	20.91
656.294	20.84
656.483	20.92
656.672	20.87
656.86	20.98
657.049	20.81
657.238	20.74
657.427	20.77
657.615	20.88
657.804	20.96
657.993	20.93
658.181	20.92
658.37	20.96
658.559	20.93
658.747	20.88
658.936	20.9
659.125	21.46
659.313	21.5
659.502	21.51
659.69	21.59
659.879	21.48
660.067	21.47
660.256	21.48
660.444	21.7
660.633	21.95
660.821	22.02
661.01	22.14
661.198	21.68
661.387	21.62
661.575	21.38
661.763	21.17
661.952	21.18
662.14	21.18
662.328	21.34
662.517	21.2
662.705	21.08
662.893	21.26
663.082	21.31
663.27	21.2
663.458	21.12
663.646	21.44
663.834	21.63
664.023	21.76
664.211	21.69
664.399	21.74
664.587	21.97
664.775	22.14
664.963	21.89
665.152	22.11
665.34	22.44
665.528	22.61
665.716	22.44
665.904	22.44
666.092	22.39
666.28	22.42
666.468	22.44
666.656	22.44
666.844	22.29
667.032	22.43
667.22	22.23
667.408	22.04
667.596	22.01
667.784	22.15
667.971	22.11
668.159	22.14
668.347	22.22
668.535	22.35
668.723	22.42
668.911	22.43
669.098	22.45
669.286	22.48
669.474	22.39
669.662	22.67
669.849	22.65
670.037	22.68
670.225	22.7
670.413	22.47
670.6	22.12
670.788	21.85
670.976	21.64
671.163	21.77
671.351	21.71
671.538	21.88
671.726	21.54
671.913	21.35
672.101	21.19
672.289	21.1
672.476	21.33
672.664	21.79
672.851	21.9
673.039	22.13
673.226	21.91
673.413	22.07
673.601	22.15
673.788	22.26
673.976	22.46
674.163	22.86
674.35	22.84
674.538	22.62
674.725	22.25
674.912	22.37
675.1	22.26
675.287	22.57
675.474	22.49
675.662	22.45
675.849	22.58
676.036	22.47
676.223	22.26
676.411	22.37
676.598	22.45
676.785	22.42
676.972	22.24
677.159	22.48
677.346	22.5
677.533	22.66
677.721	22.67
677.908	22.38
678.095	22.39
678.282	22.46
678.469	22.37
678.656	22.42
678.843	22.47
679.03	22.65
679.217	22.54
679.404	22.49
679.591	22.4
679.778	22.26
679.964	22.41
680.151	22.45
680.338	22.41
680.525	22.42
680.712	22.44
680.899	22.43
681.086	22.54
681.272	22.49
681.459	22.3
681.646	22.34
681.833	22.26
682.02	22.37
682.206	22.24
682.393	22.46
682.58	22.6
682.766	22.53
682.953	22.67
683.14	22.62
683.326	22.79
683.513	23.16
683.7	23.1
683.886	23.22
684.073	23.15
684.259	23.36
684.446	23.07
684.632	23.21
684.819	23.59
685.005	23.59
685.192	23.58
685.378	23.48
685.565	23.2
685.751	23.17
685.938	23.32
686.124	23.28
686.31	23.29
686.497	23.3
686.683	23.4
686.87	23.28
687.056	23.33
687.242	23.36
687.429	23.53
687.615	23.76
687.801	23.95
687.987	23.91
688.174	23.92
688.36	23.97
688.546	24.09
688.732	24.21
688.918	24.39
689.105	24.21
689.291	24.19
689.477	24.07
689.663	23.74
689.849	23.55
690.035	23.75
690.221	24.03
690.407	24.07
690.593	23.9
690.779	23.51
690.965	23.46
691.151	23.79
691.337	23.56
691.523	23.63
691.709	23.88
691.895	24.03
692.081	23.92
692.267	23.63
692.453	23.75
692.639	23.85
692.825	24.03
693.011	23.96
693.196	23.81
693.382	23.89
693.568	23.99
693.754	24.13
693.94	23.89
694.125	23.89
694.311	24.06
694.497	24.42
694.682	24.46
694.868	24.37
695.054	24.36
695.239	24.51
695.425	24.5
695.611	24.49
695.796	24.27
695.982	24.06
696.168	24.22
696.353	24.06
696.539	23.93
696.724	23.98
696.91	24.3
697.095	24.24
697.281	24.09
697.466	24.21
697.652	24.01
697.837	24.13
698.023	24.49
698.208	24.45
698.393	24.61
698.579	24.51
698.764	24.58
698.949	24.2
699.135	24.39
699.32	24.49
699.505	24.33
699.691	24.39
699.876	24.43
700.061	24.47
700.246	24.32
700.432	24.54
700.617	24.61
700.802	24.58
700.987	24.79
701.172	24.67
701.358	24.85
701.543	25.17
701.728	25.26
701.913	24.94
702.098	24.81
702.283	24.56
702.468	24.49
702.653	24.43
702.838	24.33
703.023	24.43
703.208	24.12
703.393	23.67
703.578	23.33
703.763	23.23
703.948	23.41
704.133	23.35
704.318	23.73
704.503	23.26
704.688	23.15
704.873	22.98
705.057	22.9
705.242	22.83
705.427	23.19
705.612	23.38
705.797	23.65
705.981	23.91
706.166	23.82
706.351	23.64
706.536	23.94
706.72	23.71
706.905	23.97
707.09	23.89
707.274	24.28
707.459	24.21
707.644	23.93
707.828	23.93
708.013	23.75
708.197	23.94
708.382	24.48
708.567	24.29
708.751	24.61
708.936	24.39
709.12	24.38
709.305	23.95
709.489	23.64
709.673	24.11
709.858	24.01
710.042	24.21
710.227	23.92
710.411	23.77
710.596	24.01
710.78	23.68
710.964	23.86
711.149	23.81
711.333	24.06
711.517	24.6
711.702	24.09
711.886	24.35
712.07	24.02
712.254	24.26
712.438	23.77
712.623	23.75
712.807	24.01
712.991	24.02
713.175	24.17
713.359	24.5
713.544	24.31
713.728	24.59
713.912	24.56
714.096	24.52
714.28	24.78
714.464	25.3
714.648	25.29
714.832	25.24
715.016	25.11
715.2	25.08
715.384	24.88
715.568	24.98
715.752	24.92
715.936	24.9
716.12	25.07
716.304	24.88
716.488	24.38
716.671	24.28
716.855	24.47
717.039	24.53
717.223	24.49
717.407	24.51
717.59	24.39
717.774	24.43
717.958	24.29
718.142	24.19
718.325	24.09
718.509	24.54
718.693	24.62
718.877	24.74
719.06	25.02
719.244	25.5
719.428	25.03
719.611	25.18
719.795	25.36
719.978	25.3
720.162	25.39
720.345	25.55
720.529	25.73
720.713	25.47
720.896	24.97
721.08	24.92
721.263	24.44
721.446	25.2
721.63	25.44
721.813	25.27
721.997	25.24
722.18	25.69
722.364	25.72
722.547	25.61
722.73	25.98
722.914	26.06
723.097	26.3
723.28	26.62
723.464	26.27
723.647	25.68
723.83	25.92
724.013	25.79
724.197	25.51
724.38	25.48
724.563	25.46
724.746	25.59
724.929	25.46
725.112	24.97
725.296	24.71
725.479	24.68
725.662	25.16
725.845	24.93
726.028	25.14
726.211	25.12
726.394	24.69
726.577	24.6
726.76	24.66
726.943	24.45
727.126	24.69
727.309	25.24
727.492	25.44
727.675	25.18
727.858	24.9
728.041	25.04
728.224	24.71
728.407	25.3
728.589	25.35
728.772	25.08
728.955	25.42
729.138	25.34
729.321	24.92
729.503	24.48
729.686	24.41
729.869	25.05
730.052	24.78
730.234	24.95
730.417	24.81
730.6	24.67
730.782	25
730.965	25.2
731.148	25.38
731.33	25.24
731.513	25.77
731.695	25.81
731.878	25.5
732.061	25.55
732.243	25.59
732.426	25.46
732.608	25.47
732.791	25.25
732.973	25.05
733.156	24.92
733.338	24.59
733.52	24.47
733.703	24.64
733.885	24.2
734.068	24.24
734.25	24.43
734.432	24.14
734.615	24.55
734.797	24.44
734.979	24.48
735.162	24.45
735.344	24.61
735.526	24.34
735.708	23.92
735.891	23.88
736.073	23.49
736.255	23.71
736.437	23.98
736.619	23.6
736.802	23.41
736.984	23.61
737.166	23.7
737.348	23.49
737.53	23.1
737.712	23.58
737.894	23.98
738.076	24.48
738.258	23.88
738.44	24.14
738.622	24.09
738.804	24.67
738.986	24.36
739.168	24.36
739.35	24.6
739.532	25.05
739.714	24.98
739.896	24.93
740.078	25.25
740.259	25.64
740.441	24.82
740.623	25.27
740.805	24.58
740.987	24.88
741.168	24.64
741.35	24.86
741.532	24.96
741.714	24.65
741.895	25.18
742.077	24.49
742.259	24.61
742.44	25.24
742.622	24.61
742.804	25.12
742.985	25.24
743.167	25.63
743.348	25.82
743.53	25.62
743.711	26.31
743.893	25.75
744.075	25.89
744.256	25.03
744.438	25.28
744.619	25.64
744.8	25.29
744.982	24.97
745.163	24.88
745.345	24.2
745.526	24.61
745.707	24.47
745.889	24.53
746.07	24.39
746.252	24.7
746.433	24.51
746.614	24.02
746.795	23.95
746.977	24.13
747.158	23.52
747.339	24.22
747.52	23.86
747.702	23.24
747.883	23.29
748.064	24.04
748.245	24.46
748.426	24.28
748.607	24.7
748.788	24.96
748.97	24.65
749.151	24.6
749.332	24.69
749.513	25.08
749.694	25.59
749.875	25.81
750.056	25.14
750.237	24.85
750.418	24.79
750.599	24.5
750.78	24.15
750.96	24.67
751.141	24.6
751.322	24.05
751.503	23.13
751.684	22.94
751.865	22.53
752.046	22.76
752.226	22.79
752.407	23.24
752.588	23.52
752.769	24.17
752.949	23.82
753.13	24.31
753.311	24.16
753.492	24.63
753.672	24.88
753.853	25.59
754.034	25.73
754.214	25.75
754.395	25.66
754.575	25.99
754.756	25.02
754.937	25.48
755.117	24.82
755.298	25.07
755.478	25.79
755.659	25.84
755.839	25.79
756.02	25.87
756.2	25.59
756.381	25.59
756.561	25.16
756.741	26.06
756.922	25.57
757.102	26.27
757.283	25.97
757.463	25.92
757.643	25.6
757.823	25.75
758.004	25.55
758.184	25.55
758.364	25.35
758.545	25.44
758.725	25.03
758.905	24.72
759.085	24.52
759.265	24.99
759.446	24.62
759.626	24.18
759.806	23.98
759.986	23.93
760.166	24.14
760.346	24.13
760.526	24.17
760.706	24.06
760.886	24.93
761.066	24.95
761.246	25.15
761.426	24.84
761.606	25.5
761.786	25.46
761.966	25.58
762.146	26.17
762.326	26.45
762.506	26.51
762.686	26.63
762.866	26.62
763.046	27.07
763.225	27.13
763.405	27.37
763.585	27.3
763.765	27.12
763.945	27.33
764.124	26.59
764.304	26.51
764.484	26.4
764.664	26.19
764.843	26.06
765.023	25.62
765.203	25.73
765.382	25.77
765.562	25.35
765.741	25.98
765.921	26.04
766.101	26.17
766.28	25.93
766.46	26.26
766.639	26.43
766.819	26.1
766.998	26.06
767.178	25.6
767.357	25.75
767.537	26.11
767.716	25.58
767.896	25.45
768.075	26.1
768.254	26.32
768.434	25.93
768.613	26.11
768.792	26.83
768.972	26.5
769.151	26.97
769.33	26.16
769.51	25.74
769.689	25.75
769.868	25.48
770.047	25.41
770.226	25.08
770.406	24.88
770.585	25
770.764	23.59
770.943	23.96
771.122	24.11
771.301	24.81
771.48	24.85
771.66	24.93
771.839	25.18
772.018	24.63
772.197	24.97
772.376	25.11
772.555	25.65
772.734	26.07
772.913	25.87
773.092	25.32
773.271	25.22
773.449	25.77
773.628	25.93
773.807	26.52
773.986	26.8
774.165	26.93
774.344	26.79
774.523	26.09
774.701	26.25
774.88	26.22
775.059	26.23
775.238	25.72
775.417	24.87
775.595	24.63
775.774	23.74
775.953	23.87
776.131	23.44
776.31	24.33
776.489	23.65
776.667	24.02
776.846	24.68
777.025	25.03
777.203	25.46
777.382	26.69
777.56	26.79
777.739	26.15
777.917	25.2
778.096	25.14
778.274	24.62
778.453	25.03
778.631	25.09
778.81	24.56
778.988	24.06
779.166	24.19
779.345	23.91
779.523	23.7
779.702	24.76
779.88	25.47
780.058	24.99
780.237	24.52
780.415	25.2
780.593	24.58
780.771	25.59
780.95	25.37
781.128	26.18
781.306	25.32
781.484	25.6
781.662	25.4
781.841	25.61
782.019	26.96
782.197	27.18
782.375	27.46
782.553	28.27
782.731	27.68
782.909	27.85
783.087	27.03
783.265	26.79
783.443	26.94
783.621	27.43
783.799	26.72
783.977	25.59
784.155	26.27
784.333	26.85
784.511	26.62
784.689	25.78
784.867	26.32
785.045	25.72
785.223	26.38
785.4	26.28
785.578	25.7
785.756	26.71
785.934	27.14
786.112	26.97
786.289	25.78
786.467	26.03
786.645	27.32
786.823	27.06
787	27.27
787.178	26.76
787.356	26.49
787.533	26.19
787.711	25.38
787.889	24.75
788.066	24.3
788.244	24.96
788.421	24.31
788.599	23.6
788.776	23.26
788.954	23.51
789.131	24.43
789.309	24.45
789.486	24.95
789.664	26
789.841	27.18
790.019	27.12
790.196	26.28
790.373	26.58
790.551	26.25
790.728	26.18
790.906	25.66
791.083	23.57
791.26	23.31
791.437	24.01
791.615	24.18
791.792	23.21
791.969	23.44
792.146	23.92
792.324	23.81
792.501	24.78
792.678	24.97
792.855	25.88
793.032	28.37
793.209	28.36
793.387	27.34
793.564	26.35
793.741	26.5
793.918	26.73
794.095	26.81
794.272	26.87
794.449	27.06
794.626	27.4
794.803	27.22
794.98	27.24
795.157	28.01
795.334	28.06
795.511	28.91
795.688	28.88
795.864	28.41
796.041	28
796.218	27.14
796.395	26.84
796.572	26.6
796.749	26.39
796.925	26.12
797.102	25
797.279	24.58
797.456	24.39
797.632	24.72
797.809	26.17
797.986	25.43
798.162	26.94
798.339	26.67
798.516	26.6
798.692	26.16
798.869	26.17
799.046	26.83
799.222	26.58
799.399	27.06
799.575	27.07
799.752	25.78
799.928	26.59
800.105	26.17
800.281	25.98
800.458	26.63
800.634	27.82
800.811	26.7
800.987	26.7
801.163	26.78
801.34	24.81
801.516	23.31
801.692	24.47
801.869	24.21
802.045	22.68
802.221	22.68
802.398	21.81
802.574	20.33
802.75	21.49
802.926	20.78
803.103	20.84
803.279	22.83
803.455	24.08
803.631	22.78
803.807	22.36
803.983	23.51
804.16	23.05
804.336	23.53
804.512	22.9
804.688	22.7
804.864	22.93
805.04	22.55
805.216	20.78
805.392	19.93
805.568	20.65
805.744	20.7
805.92	21.09
806.096	21.71
806.272	22.18
806.448	24.03
806.623	23.49
806.799	23.56
806.975	24.65
807.151	25.81
807.327	26.43
807.503	25.21
807.678	26.32
807.854	25.66
808.03	25.62
808.206	25.04
808.381	24.22
808.557	23.67
808.733	24.46
808.908	25.17
809.084	24.35
809.26	24.75
809.435	25.62
809.611	25.46
809.787	26.12
809.962	25.89
810.138	25.59
810.313	26.78
810.489	28.22
810.664	27.87
810.84	26.35
811.015	26.91
811.191	26.68
811.366	27.12
811.542	26.28
811.717	26.5
811.892	26.58
812.068	27.37
812.243	26.54
812.419	25.15
812.594	24.62
812.769	24.49
812.944	23.98
813.12	24.83
813.295	23.65
813.47	23.69
813.645	23.23
813.821	22.71
813.996	20.68
814.171	20.27
814.346	20.01
814.521	20.1
814.697	20.02
814.872	20.16
815.047	20.03
815.222	20.39
815.397	20.86
815.572	20.27
815.747	22.51
815.922	23.55
816.097	23.75
816.272	23.76
816.447	24.24
816.622	26.25
816.797	26.58
816.972	26.05
817.147	26.68
817.322	26.84
817.496	26.76
817.671	26.03
817.846	26.39
818.021	26.46
818.196	27.05
818.371	26.85
818.545	25.19
818.72	25.54
818.895	25.49
819.069	25.23
819.244	24.81
819.419	25.23
819.594	24.01
819.768	24.21
819.943	24.31
820.117	24.52
820.292	24.77
820.467	25.35
820.641	25.59
820.816	25.41
820.99	25.64
821.165	25.97
821.339	26.15
821.514	26.54
821.688	26.6
821.863	26.71
822.037	26.95
822.212	26.93
822.386	26.97
822.56	26.81
822.735	26.81
822.909	26.73
823.084	26.73
823.258	26.9
823.432	26.83
823.606	26.9
823.781	26.56
823.955	26.57
824.129	26.62
824.303	26.65
824.478	26.73
824.652	26.97
824.826	26.9
825	26.47
825.174	25.99
825.348	26
825.523	25.53
825.697	26.76
825.871	26.04
826.045	26.24
826.219	26.25
826.393	26.61
826.567	26.91
826.741	26.96
826.915	27.38
827.089	27.68
827.263	27.5
827.437	27.92
827.611	27.44
827.784	28.23
827.958	27.99
828.132	27.94
828.306	27.43
828.48	27.19
828.654	27.84
828.827	28.1
829.001	27.92
829.175	28.46
829.349	27.56
829.522	26.28
829.696	25.32
829.87	25.6
830.044	24.87
830.217	25.16
830.391	25.26
830.565	24.54
830.738	24.55
830.912	24.23
831.085	23.92
831.259	24.86
831.432	25.69
831.606	25.6
831.779	26.01
831.953	25.35
832.126	25.09
832.3	25.13
832.473	25.54
832.647	25.52
832.82	26.34
832.994	26.61
833.167	26.7
833.34	27.07
833.514	27.49
833.687	27.59
833.86	28.18
834.034	27.63
834.207	28.13
834.38	27.77
834.553	27.69
834.727	27.65
834.9	27.71
835.073	27.3
835.246	27.24
835.419	26.5
835.593	25.57
835.766	25.33
835.939	26.09
836.112	25.64
836.285	26.12
836.458	25.93
836.631	25.28
836.804	25.7
836.977	26.92
837.15	26.94
837.323	28.02
837.496	27.69
837.669	28.23
837.842	28.55
838.015	28.46
838.188	28.03
838.361	28.15
838.533	28.67
838.706	27.45
838.879	26.81
839.052	25.98
839.225	25.78
839.398	26.31
839.57	27.45
839.743	27.64
839.916	26.88
840.088	26.92
840.261	26.8
840.434	27.12
840.607	27.14
840.779	27.99
840.952	28.24
841.124	28.25
841.297	28.21
841.47	26.61
841.642	26.74
841.815	26.09
841.987	26.55
842.16	25.92
842.332	23.36
842.505	23.02
842.677	22.72
842.85	24.45
843.022	24.31
843.194	21.61
843.367	20.76
843.539	19.28
843.712	20.15
843.884	19.05
844.056	20.44
844.229	23.03
844.401	23.1
844.573	22.08
844.745	18.41
844.918	19.47
845.09	22.18
845.262	22.27
845.434	23.84
845.606	23.61
845.779	25.1
845.951	24.45
846.123	24.16
846.295	23.52
846.467	24.54
846.639	25.24
846.811	24.63
846.983	24.84
847.155	27.65
847.327	27.57
847.499	29.1
847.671	25.97
847.843	25.59
848.015	25.51
848.187	25.24
848.359	22.72
848.531	25
848.703	23.96
848.875	23.29
849.047	20.82
849.218	18.68
849.39	15.5
849.562	18.42
849.734	18.76
849.905	17.84
850.077	18.46
850.249	18.26
850.421	15.42
850.592	13.9
850.764	15.74
850.936	16.97
851.107	14.58
851.279	15.25
851.451	9.79
851.622	7.25
851.794	9.34
851.965	12.4
852.137	16.33
852.308	17.51
852.48	18.43
852.651	15.24
852.823	14.59
852.994	18.39
853.166	17.79
853.337	18.57
853.509	19.75
853.68	16.46
853.851	16.15
854.023	12.94
854.194	10.28
854.365	10.83
854.537	14.98
854.708	17.11
854.879	16.81
855.05	19.02
855.222	23.23
855.393	23.74
855.564	24.5
855.735	21.57
855.906	23.11
856.078	25.37
856.249	27.39
856.42	25.53
856.591	26.06
856.762	27.65
856.933	30.82
857.104	29.19
857.275	29.16
857.446	28.52
857.617	27.46
857.788	25.05
857.959	20.08
858.13	17.61
858.301	16.09
858.472	12.26
858.643	9.11
858.814	3.6
858.985	1.39
859.155	2.33
859.326	5.29
859.497	6.02
859.668	6.05
859.839	12.34
860.009	16.81
860.18	21.23
860.351	20.36
860.522	21.07
860.692	21.39
860.863	20.41
861.034	20.38
861.204	21.36
861.375	26.65
861.546	28.51
861.716	23.95
861.887	21.74
862.057	19.12
862.228	22.85
862.398	24.67
862.569	22.33
862.739	24.62
862.91	23.5
863.08	19.76
863.251	13.23
863.421	15.03
863.592	17.82
863.762	13.81
863.932	16.47
864.103	13.94
864.273	16.15
864.443	18.57
864.614	18.37
864.784	14.73
864.954	16.21
865.125	20.25
865.295	14.66
865.465	17.05
865.635	16.56
865.805	8.96
865.976	8.4
866.146	2.48
866.316	5.99
866.486	7.09
866.656	8.64
866.826	9.54
866.996	4.5
867.166	8.41
867.336	9.38
867.506	12.42
867.676	21.04
867.846	21.27
868.016	23.49
868.186	21.09
868.356	21.06
868.526	21.97
868.696	19.65
868.866	21.39
869.036	18.94
869.206	15.3
869.376	18.59
869.545	14.33
869.715	18.09
869.885	17.04
870.055	17.23
870.224	19.33
870.394	20.52
870.564	23.57
870.734	25.07
870.903	30.3
871.073	29.32
871.243	24.3
871.412	25.99
871.582	25.73
871.751	26.82
871.921	25.57
872.091	25.02
872.26	26.01
872.43	23.75
872.599	22.49
872.769	20.17
872.938	22.96
873.108	24.14
873.277	23.31
873.446	19.45
873.616	21.49
873.785	20.91
873.955	19.35
874.124	19.77
874.293	22.46
874.463	24.25
874.632	23.58
874.801	24.7
874.971	24.4
875.14	24.19
875.309	25.41
875.478	23.15
875.647	25.7
875.817	26.12
875.986	24.72
876.155	24.25
876.324	24.37
876.493	27.98
876.662	23.78
876.831	26.69
877	28.05
877.17	26.8
877.339	28.77
877.508	31.12
877.677	30.28
877.846	30.84
878.015	31.1
878.184	33.6
878.352	26.96
878.521	27.26
878.69	24.38
878.859	23.65
879.028	26.67
879.197	25.75
879.366	25.46
879.534	26.58
879.703	25.81
879.872	27.93
880.041	26.6
880.21	26.6
880.378	26.6
880.547	27.35
880.716	28.41
880.884	27.89
881.053	28.18
881.222	26.45
881.39	26.05
881.559	26.47
881.727	27.19
881.896	26.4
882.065	27.25
882.233	27.75
882.402	28.35
882.57	27.48
882.739	27.79
882.907	27.49
883.076	28.03
883.244	28.37
883.412	28.86
883.581	27.44
883.749	28.18
883.918	28.89
884.086	28.31
884.254	27.31
884.423	27.98
884.591	28.13
884.759	26.99
884.927	26.79
885.096	25.46
885.264	24.86
885.432	23.51
885.6	23.79
885.769	21.6
885.937	22.3
886.105	23.43
886.273	20.79
886.441	17.32
886.609	19.95
886.777	18.78
886.945	21.04
887.113	20.31
887.281	21.46
887.449	21.66
887.617	23.43
887.785	24.25
887.953	20.18
888.121	22.27
888.289	23.72
888.457	22.27
888.625	28.35
888.793	26.48
888.961	24.22
889.129	27.11
889.296	23.48
889.464	21.34
889.632	18.84
889.8	23.05
889.967	24.2
890.135	27.47
