Data from 2938506_Reflection_3.txt Node
Date: Tue Jun 16 23:03:11 EDT 2015
User: robert
Spectrometer: USB4E03002
Autoset integration time: false
Trigger mode: 4
Integration Time (sec): 1.000000E-1
Scans to average: 10
Electric dark correction enabled: true
Nonlinearity correction enabled: false
Boxcar width: 5
Stray light correction enabled: false
XAxis mode: Wavelengths
Stop averaging: false
Number of Pixels in Spectrum: 3648
>>>>>Begin Spectral Data<<<<<
177.575	989
177.794	-29.49
178.014	30.46
178.233	39.11
178.452	36.56
178.672	95.75
178.891	-41.21
179.11	-8962.5
179.33	1085.42
179.549	-42.44
179.768	22.24
179.987	895.1
180.207	-65.26
180.426	-12.85
180.645	7.92
180.864	27.97
181.084	48.34
181.303	38.72
181.522	24.08
181.741	28.02
181.96	38.78
182.179	33.25
182.398	36.81
182.618	42.75
182.837	48.78
183.056	37.1
183.275	25.52
183.494	33.28
183.713	35.89
183.932	60.71
184.151	67.66
184.37	66.02
184.589	71.92
184.808	80.34
185.027	91.72
185.246	87.11
185.465	79.8
185.684	79.72
185.903	70.57
186.122	54.75
186.341	29.93
186.56	-36.58
186.779	-23.46
186.998	20.5
187.216	18.37
187.435	15.64
187.654	0.5
187.873	58.12
188.092	85.57
188.311	122.63
188.53	122.51
188.748	101.6
188.967	109.09
189.186	57.59
189.405	58.38
189.623	64.97
189.842	65.48
190.061	46.52
190.28	37.85
190.498	32.46
190.717	-5.41
190.936	9.66
191.154	20.03
191.373	30.12
191.592	37.49
191.81	34.17
192.029	19.58
192.248	4.25
192.466	19.65
192.685	-0.73
192.904	14.31
193.122	38.39
193.341	32.43
193.559	37.59
193.778	34.85
193.996	33.52
194.215	23.94
194.433	40.99
194.652	45.31
194.87	47
195.089	55.68
195.307	39.11
195.526	26.19
195.744	33.14
195.963	24.87
196.181	-39.37
196.399	-24.58
196.618	-18.28
196.836	-24.84
197.055	-21.2
197.273	-26.93
197.491	-18.51
197.71	-13.9
197.928	-0.94
198.146	-8.46
198.365	16.84
198.583	38.88
198.801	65.43
199.019	66.77
199.238	62.38
199.456	42.38
199.674	66.8
199.892	74.07
200.111	75
200.329	81.33
200.547	92.76
200.765	80.51
200.983	79.96
201.202	66.51
201.42	100.11
201.638	94.39
201.856	144.75
202.074	70.95
202.292	53.5
202.51	34.55
202.728	11.38
202.946	-15.03
203.165	35.32
203.383	26.87
203.601	32.79
203.819	-7.3
204.037	-9.32
204.255	6.72
204.473	35.89
204.691	22.3
204.909	39.67
205.127	33.14
205.345	27.51
205.562	16.33
205.78	21.59
205.998	9.26
206.216	18.78
206.434	12.62
206.652	17.8
206.87	13.94
207.088	22.26
207.306	24.15
207.523	40.88
207.741	47.4
207.959	40.62
208.177	41.89
208.395	38.21
208.612	39.53
208.83	32.27
209.048	18.03
209.266	8.81
209.483	9.14
209.701	10.73
209.919	6.86
210.136	6.63
210.354	5.9
210.572	5.58
210.79	3.91
211.007	19.88
211.225	24.29
211.442	34.61
211.66	25.41
211.878	40.5
212.095	39.39
212.313	49.03
212.53	62.21
212.748	63.01
212.966	63.39
213.183	67.13
213.401	54.01
213.618	64.44
213.836	54.95
214.053	47.73
214.271	31.8
214.488	19.49
214.705	-7.7
214.923	-15.64
215.14	-45.26
215.358	-13.96
215.575	-15.7
215.793	4.62
216.01	7.76
216.227	14.44
216.445	10.28
216.662	14.88
216.879	21.36
217.097	26.69
217.314	21.65
217.531	25.4
217.749	14.37
217.966	20.63
218.183	12.9
218.4	11.86
218.618	8.39
218.835	27.67
219.052	25.15
219.269	22.91
219.487	30.03
219.704	28.84
219.921	35
220.138	25.16
220.355	14.84
220.572	23.5
220.79	28.85
221.007	25.86
221.224	22.46
221.441	16.13
221.658	22.32
221.875	15.34
222.092	19.76
222.309	22.38
222.526	27.47
222.743	26.68
222.96	29.45
223.177	27.4
223.394	23.26
223.611	24.27
223.828	22.68
224.045	16.64
224.262	20.98
224.479	19.15
224.696	16.84
224.913	13.32
225.13	14.05
225.347	9.99
225.564	8.69
225.781	10.89
225.997	9.91
226.214	11.52
226.431	10.92
226.648	9.85
226.865	8.81
227.082	8.45
227.298	8.83
227.515	7.62
227.732	7.52
227.949	7.36
228.165	7.39
228.382	5.95
228.599	4.85
228.816	5.45
229.032	4.95
229.249	5.5
229.466	5.41
229.682	4.87
229.899	4.03
230.116	4.16
230.332	4.08
230.549	6.12
230.765	7.15
230.982	8.95
231.199	8.89
231.415	9.42
231.632	8.16
231.848	8.38
232.065	11.78
232.281	14.56
232.498	14.43
232.714	14.25
232.931	12.8
233.147	13.83
233.364	12.33
233.58	12
233.797	8.95
234.013	9.59
234.23	9.33
234.446	7.12
234.662	3.97
234.879	4.41
235.095	3.18
235.312	0.31
235.528	-1.02
235.744	-1.38
235.961	-0.09
236.177	2.62
236.393	1.8
236.61	2.48
236.826	1
237.042	1.61
237.258	0.24
237.475	0.8
237.691	1.69
237.907	1.38
238.123	4.04
238.339	4.15
238.556	3.75
238.772	5.74
238.988	5.95
239.204	7.53
239.42	8.29
239.636	8.36
239.853	8.07
240.069	9.11
240.285	8.71
240.501	7.69
240.717	8.08
240.933	7.76
241.149	7.29
241.365	7.61
241.581	6.97
241.797	7
242.013	6.96
242.229	7.54
242.445	6.98
242.661	7.66
242.877	8.01
243.093	7.89
243.309	8.76
243.525	8.75
243.741	7.16
243.957	6.77
244.173	6.3
244.388	6.69
244.604	6.16
244.82	5.89
245.036	5.47
245.252	5.18
245.468	4.85
245.683	4.64
245.899	4.81
246.115	5.16
246.331	5.15
246.547	5.47
246.762	5.32
246.978	5.51
247.194	5.48
247.409	5.99
247.625	6.27
247.841	6.13
248.057	6.38
248.272	5.87
248.488	5.45
248.703	6.49
248.919	5.69
249.135	5.84
249.35	5.34
249.566	5.75
249.782	4.96
249.997	4.95
250.213	5.4
250.428	4.89
250.644	5.67
250.859	6.58
251.075	6.11
251.29	6.17
251.506	5.55
251.721	5.42
251.937	4.92
252.152	5.27
252.368	5.46
252.583	4.64
252.798	5.09
253.014	4.49
253.229	4.05
253.445	4.78
253.66	5.52
253.875	5.77
254.091	6.29
254.306	7.03
254.521	7.74
254.737	7.1
254.952	7.14
255.167	6.67
255.383	6
255.598	5.77
255.813	4.8
256.028	4.53
256.244	4.75
256.459	4.05
256.674	3.5
256.889	3.34
257.104	3.77
257.32	4.06
257.535	3.93
257.75	4.11
257.965	3.78
258.18	3.97
258.395	3.87
258.61	4.31
258.826	4.65
259.041	4.89
259.256	4.99
259.471	4.98
259.686	4.59
259.901	4.86
260.116	4.89
260.331	5.31
260.546	5.54
260.761	5.43
260.976	4.82
261.191	4.91
261.406	4.42
261.621	3.92
261.836	4.35
262.05	5.51
262.265	5.12
262.48	5.19
262.695	5.25
262.91	5.07
263.125	5.39
263.34	5.24
263.555	5
263.769	6.34
263.984	6.42
264.199	6.05
264.414	5.77
264.629	5.44
264.843	5.32
265.058	5.1
265.273	4.92
265.488	5.51
265.702	5.9
265.917	5.48
266.132	4.53
266.346	4.73
266.561	4.21
266.776	3.89
266.99	4.16
267.205	3.76
267.42	3.8
267.634	3.36
267.849	2.64
268.063	2.12
268.278	2.34
268.492	2.44
268.707	2.5
268.922	2.7
269.136	2.55
269.351	2.98
269.565	3.17
269.78	3.2
269.994	3.22
270.209	3.51
270.423	4.05
270.637	4.23
270.852	4.55
271.066	4.51
271.281	4.26
271.495	4.48
271.709	3.94
271.924	4.28
272.138	4.61
272.353	4.63
272.567	4.4
272.781	3.91
272.996	3.95
273.21	3.49
273.424	3.23
273.638	3.53
273.853	3.58
274.067	4.07
274.281	3.63
274.495	3.51
274.71	3.78
274.924	4.25
275.138	3.94
275.352	3.87
275.566	4.02
275.781	3.51
275.995	3.57
276.209	3.92
276.423	3.61
276.637	4.21
276.851	3.53
277.065	3.43
277.279	4.17
277.493	5.36
277.707	5.59
277.921	5.76
278.135	5.99
278.349	5.94
278.563	5.63
278.777	5.69
278.991	5.52
279.205	6.05
279.419	6.05
279.633	5.19
279.847	4.58
280.061	4.44
280.275	4.02
280.489	4.3
280.703	4.65
280.917	4.76
281.131	4.84
281.344	4.26
281.558	4.39
281.772	4.19
281.986	4.13
282.2	3.58
282.414	3.26
282.627	3.5
282.841	3.35
283.055	3.11
283.269	2.98
283.482	3.16
283.696	3.11
283.91	2.84
284.123	3.51
284.337	3.41
284.551	4.06
284.764	4.58
284.978	4.95
285.192	5
285.405	5.18
285.619	5.36
285.833	5.17
286.046	5.7
286.26	5.75
286.473	5.2
286.687	5.48
286.9	5.52
287.114	4.91
287.327	4.77
287.541	4.66
287.754	4.13
287.968	3.93
288.181	4.26
288.395	4.24
288.608	4.41
288.822	4.46
289.035	4.38
289.248	4.02
289.462	4.19
289.675	4.11
289.889	4.43
290.102	4.5
290.315	4.43
290.529	4.13
290.742	3.89
290.955	3.72
291.169	4.1
291.382	4.33
291.595	4.11
291.808	4.38
292.022	4.29
292.235	4.27
292.448	4.4
292.661	4.86
292.875	5.4
293.088	5.51
293.301	5.61
293.514	5.48
293.727	5.34
293.94	5.57
294.153	5.47
294.367	5.63
294.58	5.55
294.793	5.61
295.006	6.01
295.219	5.73
295.432	5.83
295.645	5.86
295.858	5.73
296.071	6
296.284	6.13
296.497	6.14
296.71	6.05
296.923	6.13
297.136	6.31
297.349	5.87
297.562	5.98
297.775	5.72
297.988	5.9
298.201	5.91
298.414	5.71
298.626	5.7
298.839	5.48
299.052	5.88
299.265	5.79
299.478	5.71
299.691	5.42
299.903	5.39
300.116	5.97
300.329	5.97
300.542	6.41
300.755	7.01
300.967	7.21
301.18	7.85
301.393	7.6
301.605	7.85
301.818	8.11
302.031	8.22
302.243	8.22
302.456	8.26
302.669	8.03
302.881	8.1
303.094	7.59
303.307	7.55
303.519	7.48
303.732	7.38
303.944	7.39
304.157	7.31
304.37	7.35
304.582	7.44
304.795	7.53
305.007	7.94
305.22	7.8
305.432	7.72
305.645	7.53
305.857	7.27
306.069	7.57
306.282	7.55
306.494	7.85
306.707	8.13
306.919	8.09
307.132	7.99
307.344	8.05
307.556	8.14
307.769	7.85
307.981	8.09
308.193	8.36
308.406	8.13
308.618	8.18
308.83	8.02
309.043	7.95
309.255	8.14
309.467	8.4
309.679	8.16
309.892	8.17
310.104	8.45
310.316	8.31
310.528	8.47
310.74	8.75
310.953	8.79
311.165	8.6
311.377	9.14
311.589	9.18
311.801	8.81
312.013	8.82
312.225	8.22
312.437	8.11
312.649	8.49
312.862	8.18
313.074	8.41
313.286	7.85
313.498	7.89
313.71	7.46
313.922	7.62
314.134	7.83
314.346	7.73
314.558	8.33
314.77	8.8
314.982	8.79
315.193	8.95
315.405	8.45
315.617	8.96
315.829	9.18
316.041	9.53
316.253	9.22
316.465	9.32
316.677	9.39
316.888	9.43
317.1	9.38
317.312	9.2
317.524	8.97
317.736	8.89
317.947	9.05
318.159	8.93
318.371	8.53
318.583	8.96
318.794	8.94
319.006	9.17
319.218	9.02
319.43	8.32
319.641	8.72
319.853	9.29
320.064	9.4
320.276	9.23
320.488	9.18
320.699	9.49
320.911	9.55
321.123	9.78
321.334	10.35
321.546	10.94
321.757	11.56
321.969	11.32
322.18	11.07
322.392	11.68
322.603	12.25
322.815	12.75
323.026	12.48
323.238	12.42
323.449	12.37
323.661	12.68
323.872	12.83
324.083	12.63
324.295	12.78
324.506	13.59
324.718	13.71
324.929	13.9
325.14	14.03
325.352	14.49
325.563	14.55
325.774	14.96
325.986	14.89
326.197	15.13
326.408	15.72
326.62	16.11
326.831	16.27
327.042	16.05
327.253	16.16
327.464	16.5
327.676	16.64
327.887	17.03
328.098	16.83
328.309	16.74
328.52	17.4
328.732	17.66
328.943	17.46
329.154	17.59
329.365	18.13
329.576	17.99
329.787	18.11
329.998	18.84
330.209	19.31
330.42	20.02
330.631	20.46
330.842	19.85
331.053	20.01
331.264	20.41
331.475	20.12
331.686	20.29
331.897	20.64
332.108	20.68
332.319	20.39
332.53	20.24
332.741	20.26
332.952	20.22
333.163	20.49
333.374	20.81
333.585	21.1
333.795	21.52
334.006	21.34
334.217	21.5
334.428	21.66
334.639	21.91
334.849	22.02
335.06	22
335.271	22.03
335.482	21.92
335.692	21.99
335.903	22.18
336.114	21.94
336.325	22.56
336.535	22.78
336.746	22.82
336.957	22.84
337.167	22.78
337.378	23.25
337.589	23.19
337.799	23.45
338.01	23.21
338.22	23.34
338.431	23.47
338.642	23.15
338.852	23.08
339.063	23.19
339.273	23.17
339.484	23.37
339.694	22.75
339.905	23.44
340.115	23.37
340.326	23.65
340.536	23.34
340.746	23.33
340.957	23.29
341.167	23
341.378	22.83
341.588	22.6
341.799	22.49
342.009	22.42
342.219	21.6
342.43	21.71
342.64	21.16
342.85	21.05
343.061	21.49
343.271	21.27
343.481	21.54
343.691	21.77
343.902	22.1
344.112	22.05
344.322	22.19
344.532	22.49
344.743	22.14
344.953	22.77
345.163	22.89
345.373	22.59
345.583	22.8
345.793	22.8
346.004	22.49
346.214	22.45
346.424	22.5
346.634	22.58
346.844	22.89
347.054	23.43
347.264	23.18
347.474	23.48
347.684	23.56
347.894	23.57
348.104	23.53
348.314	23.62
348.524	23.31
348.734	23.19
348.944	23.16
349.154	22.75
349.364	22.55
349.574	22.62
349.784	22.49
349.994	22.37
350.204	22.64
350.413	22.84
350.623	22.93
350.833	23.18
351.043	23.18
351.253	23.09
351.463	22.93
351.672	23.21
351.882	23.15
352.092	23.18
352.302	23.2
352.511	22.94
352.721	22.67
352.931	22.42
353.141	22.43
353.35	22.61
353.56	22.91
353.77	23.24
353.979	23.12
354.189	23.26
354.399	23.25
354.608	23.35
354.818	23.31
355.027	23.5
355.237	23.84
355.447	23.75
355.656	23.49
355.866	23.16
356.075	22.98
356.285	22.68
356.494	22.45
356.704	22.24
356.913	22.23
357.123	22.13
357.332	21.75
357.542	21.49
357.751	21.67
357.96	22
358.17	22.26
358.379	22.58
358.589	22.77
358.798	22.79
359.007	22.77
359.217	22.71
359.426	22.71
359.635	22.82
359.845	22.93
360.054	22.73
360.263	22.42
360.472	22.1
360.682	21.83
360.891	21.98
361.1	21.97
361.309	21.87
361.519	21.75
361.728	22.07
361.937	22.33
362.146	22.24
362.355	22.46
362.564	22.67
362.774	22.93
362.983	23.01
363.192	22.72
363.401	22.55
363.61	22.72
363.819	22.88
364.028	22.52
364.237	22.15
364.446	22.22
364.655	22.15
364.864	22.28
365.073	22.06
365.282	22.14
365.491	22.25
365.7	22.43
365.909	22.19
366.118	21.96
366.327	22.12
366.536	22.34
366.745	22.4
366.954	22.18
367.162	21.94
367.371	22.17
367.58	22.08
367.789	22.13
367.998	22.16
368.207	22.32
368.415	22.33
368.624	22.31
368.833	22.35
369.042	22.16
369.25	22.12
369.459	22.11
369.668	22.07
369.877	22.04
370.085	21.81
370.294	21.72
370.503	21.87
370.711	21.67
370.92	21.61
371.129	21.42
371.337	21.4
371.546	21.29
371.754	21.07
371.963	20.99
372.171	21.04
372.38	21.36
372.589	21.15
372.797	21.03
373.006	20.99
373.214	21.09
373.423	21.05
373.631	21.19
373.84	21.27
374.048	21.35
374.256	21.45
374.465	21.25
374.673	21.09
374.882	21.22
375.09	21.39
375.298	21.6
375.507	21.37
375.715	21.34
375.923	21.14
376.132	20.97
376.34	21.03
376.548	21
376.757	21.18
376.965	21.14
377.173	21.22
377.381	21.09
377.59	20.84
377.798	20.79
378.006	20.74
378.214	20.72
378.423	20.71
378.631	20.54
378.839	20.63
379.047	20.63
379.255	20.6
379.463	20.41
379.671	20.28
379.879	20.52
380.088	20.56
380.296	20.44
380.504	20.5
380.712	20.73
380.92	20.88
381.128	20.71
381.336	20.5
381.544	20.68
381.752	20.73
381.96	20.7
382.168	20.47
382.376	20.52
382.584	20.71
382.791	20.59
382.999	20.64
383.207	20.78
383.415	20.77
383.623	20.68
383.831	20.39
384.039	20.44
384.247	20.42
384.454	20.33
384.662	20.11
384.87	20.12
385.078	20.09
385.285	19.96
385.493	20.05
385.701	19.81
385.909	20.18
386.116	20.16
386.324	20.03
386.532	20.19
386.739	20.5
386.947	20.79
387.155	20.74
387.362	20.95
387.57	21.04
387.778	20.58
387.985	20.63
388.193	20.37
388.4	20.53
388.608	20.51
388.816	20.59
389.023	20.68
389.231	20.68
389.438	20.83
389.646	20.87
389.853	20.79
390.061	20.95
390.268	20.96
390.475	21.16
390.683	21.35
390.89	21.49
391.098	21.48
391.305	21.31
391.512	21.49
391.72	21.27
391.927	21.33
392.135	21.35
392.342	21.61
392.549	21.85
392.756	21.78
392.964	21.62
393.171	21.63
393.378	21.38
393.586	21.32
393.793	21.18
394	21.42
394.207	21.55
394.414	21.56
394.622	21.22
394.829	21.28
395.036	21.26
395.243	21.22
395.45	21.35
395.657	21.59
395.864	21.85
396.072	21.75
396.279	21.67
396.486	21.52
396.693	21.67
396.9	21.81
397.107	21.82
397.314	21.66
397.521	21.86
397.728	21.73
397.935	21.84
398.142	21.87
398.349	21.89
398.556	22.09
398.763	21.86
398.97	21.83
399.177	21.92
399.383	21.61
399.59	21.78
399.797	21.85
400.004	21.62
400.211	21.61
400.418	21.42
400.625	21.29
400.831	21.09
401.038	21.26
401.245	21.17
401.452	21.21
401.658	21.31
401.865	21.41
402.072	21.03
402.279	21.07
402.485	21.03
402.692	21.03
402.899	21.16
403.105	21.19
403.312	21.14
403.519	21.19
403.725	21.08
403.932	21.02
404.138	20.84
404.345	20.8
404.552	20.94
404.758	20.76
404.965	20.92
405.171	20.83
405.378	20.9
405.584	20.95
405.791	20.89
405.997	20.89
406.204	20.92
406.41	21.07
406.617	21.26
406.823	21.18
407.029	21.26
407.236	21.11
407.442	20.95
407.649	20.78
407.855	20.85
408.061	20.93
408.268	20.91
408.474	20.91
408.68	20.74
408.887	20.73
409.093	20.84
409.299	20.75
409.505	20.77
409.712	21.01
409.918	21.09
410.124	20.88
410.33	20.83
410.537	20.79
410.743	20.89
410.949	20.89
411.155	21.01
411.361	20.96
411.567	20.96
411.773	20.99
411.98	20.85
412.186	20.73
412.392	20.7
412.598	20.68
412.804	20.74
413.01	20.72
413.216	20.76
413.422	20.55
413.628	20.47
413.834	20.47
414.04	20.3
414.246	20.38
414.452	20.42
414.658	20.47
414.864	20.49
415.07	20.32
415.275	20.26
415.481	20.28
415.687	20.3
415.893	20.35
416.099	20.22
416.305	20.11
416.511	20.03
416.716	19.91
416.922	19.72
417.128	19.61
417.334	19.66
417.539	19.62
417.745	19.65
417.951	19.51
418.157	19.34
418.362	19.41
418.568	19.52
418.774	19.51
418.979	19.55
419.185	19.64
419.391	19.72
419.596	19.75
419.802	19.66
420.008	19.54
420.213	20.15
420.419	20.2
420.624	20.17
420.83	20.15
421.035	20.07
421.241	20.02
421.446	19.93
421.652	19.7
421.857	19.6
422.063	19.66
422.268	19.62
422.474	19.08
422.679	19.01
422.885	19
423.09	18.97
423.295	18.98
423.501	18.93
423.706	19.01
423.911	19.15
424.117	19.12
424.322	19
424.527	19.03
424.733	18.99
424.938	18.99
425.143	18.95
425.349	18.95
425.554	18.89
425.759	18.87
425.964	18.83
426.169	18.73
426.375	18.78
426.58	18.78
426.785	18.73
426.99	18.65
427.195	18.78
427.4	18.74
427.605	18.63
427.811	18.62
428.016	18.67
428.221	18.69
428.426	18.69
428.631	18.7
428.836	18.75
429.041	18.83
429.246	18.87
429.451	18.82
429.656	18.82
429.861	18.98
430.066	18.97
430.271	18.94
430.476	18.9
430.681	18.84
430.886	18.77
431.09	18.89
431.295	18.8
431.5	18.7
431.705	18.53
431.91	18.65
432.115	18.65
432.32	18.74
432.524	18.7
432.729	18.67
432.934	18.66
433.139	18.69
433.343	18.44
433.548	18.52
433.753	18.6
433.958	18.65
434.162	18.51
434.367	18.4
434.572	18.36
434.776	18.49
434.981	18.45
435.186	18.33
435.39	18.33
435.595	18.46
435.799	18.33
436.004	18.36
436.209	18.34
436.413	18.4
436.618	18.42
436.822	18.46
437.027	18.39
437.231	18.47
437.436	18.6
437.64	18.63
437.845	18.56
438.049	18.55
438.253	18.55
438.458	18.62
438.662	18.57
438.867	18.54
439.071	18.45
439.275	18.44
439.48	18.43
439.684	18.49
439.888	18.34
440.093	18.44
440.297	18.44
440.501	18.38
440.706	18.28
440.91	18.28
441.114	18.27
441.318	18.28
441.523	18.28
441.727	18.24
441.931	18.21
442.135	18.28
442.339	18.21
442.543	18.24
442.748	18.25
442.952	18.29
443.156	18.22
443.36	18.2
443.564	18.25
443.768	18.2
443.972	18.16
444.176	18.11
444.38	18.1
444.584	18.1
444.788	18.1
444.992	18.08
445.196	18.01
445.4	18
445.604	17.93
445.808	17.82
446.012	17.83
446.216	17.81
446.42	17.77
446.624	17.77
446.828	17.72
447.032	17.65
447.235	17.64
447.439	17.73
447.643	17.7
447.847	17.74
448.051	17.77
448.254	17.87
448.458	17.88
448.662	17.9
448.866	17.92
449.069	17.94
449.273	17.93
449.477	18.03
449.681	18
449.884	17.96
450.088	17.9
450.292	17.79
450.495	17.7
450.699	17.64
450.902	17.55
451.106	17.53
451.31	17.46
451.513	17.47
451.717	17.3
451.92	17.29
452.124	17.32
452.327	17.28
452.531	17.35
452.734	17.28
452.938	17.34
453.141	17.28
453.345	17.3
453.548	17.27
453.752	17.21
453.955	17.29
454.158	17.27
454.362	17.15
454.565	17.23
454.769	17.22
454.972	17.19
455.175	17.21
455.379	17.37
455.582	17.25
455.785	17.27
455.988	17.34
456.192	17.43
456.395	17.37
456.598	17.57
456.801	17.53
457.005	17.54
457.208	17.57
457.411	17.62
457.614	17.6
457.817	17.63
458.021	17.59
458.224	17.6
458.427	17.58
458.63	17.65
458.833	17.63
459.036	17.64
459.239	17.59
459.442	17.65
459.645	17.58
459.848	17.57
460.051	17.49
460.254	17.58
460.457	17.61
460.66	17.58
460.863	17.5
461.066	17.5
461.269	17.49
461.472	17.49
461.675	17.47
461.878	17.67
462.081	17.63
462.284	17.86
462.486	17.86
462.689	17.89
462.892	17.92
463.095	18.03
463.298	18.16
463.5	18.23
463.703	18.38
463.906	18.3
464.109	18.22
464.311	18.27
464.514	18.31
464.717	18.31
464.92	18.28
465.122	18.28
465.325	18.23
465.528	18.16
465.73	18.15
465.933	18.12
466.135	18.2
466.338	18.27
466.541	18.31
466.743	18.28
466.946	18.32
467.148	18.33
467.351	18.37
467.553	18.35
467.756	18.28
467.958	18.37
468.161	18.49
468.363	18.45
468.566	18.38
468.768	18.39
468.971	18.21
469.173	18.28
469.375	18.44
469.578	18.45
469.78	18.62
469.983	18.59
470.185	18.57
470.387	18.43
470.59	18.44
470.792	18.41
470.994	18.53
471.196	18.77
471.399	18.78
471.601	18.73
471.803	18.69
472.005	18.56
472.208	18.72
472.41	18.7
472.612	18.71
472.814	18.79
473.016	18.75
473.218	18.71
473.421	18.58
473.623	18.55
473.825	18.49
474.027	18.54
474.229	18.66
474.431	18.64
474.633	18.64
474.835	18.67
475.037	18.57
475.239	18.53
475.441	18.56
475.643	18.65
475.845	18.65
476.047	18.57
476.249	18.48
476.451	18.31
476.653	18.3
476.855	18.36
477.057	18.42
477.258	18.42
477.46	18.45
477.662	18.43
477.864	18.37
478.066	18.33
478.268	18.39
478.469	18.43
478.671	18.53
478.873	18.53
479.075	18.49
479.276	18.34
479.478	18.35
479.68	18.33
479.882	18.32
480.083	18.33
480.285	18.37
480.487	18.36
480.688	18.33
480.89	18.32
481.091	18.27
481.293	18.29
481.495	18.33
481.696	18.35
481.898	18.32
482.099	18.3
482.301	18.27
482.502	18.24
482.704	18.22
482.905	18.22
483.107	18.22
483.308	18.21
483.51	18.16
483.711	18.16
483.913	18.15
484.114	18.16
484.315	18.16
484.517	18.17
484.718	18.18
484.92	18.2
485.121	18.16
485.322	18.17
485.524	18.23
485.725	18.27
485.926	18.24
486.127	18.21
486.329	18.16
486.53	18.15
486.731	18.15
486.932	18.12
487.134	18.07
487.335	18.13
487.536	18.08
487.737	18.02
487.938	18.04
488.139	18.05
488.341	18.09
488.542	18.21
488.743	18.27
488.944	18.29
489.145	18.38
489.346	18.43
489.547	18.43
489.748	18.49
489.949	18.51
490.15	18.48
490.351	18.49
490.552	18.48
490.753	18.45
490.954	18.44
491.155	18.46
491.356	18.47
491.557	18.53
491.758	18.57
491.959	18.6
492.159	18.67
492.36	18.75
492.561	18.8
492.762	18.91
492.963	18.96
493.164	19.01
493.364	19.06
493.565	19.06
493.766	19.11
493.967	19.16
494.167	19.16
494.368	19.13
494.569	19.07
494.769	19.11
494.97	19.09
495.171	19.15
495.371	19.15
495.572	19.22
495.773	19.23
495.973	19.21
496.174	19.18
496.375	19.2
496.575	19.33
496.776	19.48
496.976	19.44
497.177	19.45
497.377	19.47
497.578	19.54
497.778	19.53
497.979	19.62
498.179	19.62
498.38	19.72
498.58	19.77
498.78	19.76
498.981	19.75
499.181	19.91
499.382	19.97
499.582	20
499.782	20.08
499.983	20.17
500.183	20.18
500.383	20.36
500.584	20.33
500.784	20.41
500.984	20.42
501.184	20.5
501.385	20.55
501.585	20.69
501.785	20.78
501.985	20.77
502.185	20.83
502.386	20.91
502.586	20.99
502.786	21.17
502.986	21.28
503.186	21.36
503.386	21.43
503.586	21.53
503.786	21.5
503.987	21.55
504.187	21.63
504.387	21.73
504.587	21.75
504.787	21.73
504.987	21.82
505.187	21.85
505.387	21.92
505.587	22.05
505.786	22.06
505.986	22.17
506.186	22.3
506.386	22.48
506.586	22.57
506.786	22.73
506.986	22.8
507.186	22.86
507.386	22.96
507.585	23.09
507.785	23.16
507.985	23.31
508.185	23.44
508.384	23.5
508.584	23.54
508.784	23.54
508.984	23.59
509.183	23.73
509.383	23.77
509.583	23.86
509.782	23.97
509.982	24.03
510.182	24.07
510.381	24.12
510.581	24.21
510.781	24.27
510.98	24.33
511.18	24.45
511.379	24.44
511.579	24.57
511.778	24.68
511.978	24.72
512.177	24.84
512.377	24.91
512.576	25
512.776	25
512.975	25.18
513.175	25.38
513.374	25.53
513.573	25.72
513.773	25.89
513.972	25.98
514.172	26.16
514.371	26.3
514.57	26.49
514.77	26.66
514.969	26.99
515.168	27.08
515.367	27.24
515.567	27.27
515.766	27.43
515.965	27.52
516.164	27.7
516.364	27.82
516.563	27.93
516.762	28.04
516.961	28.17
517.16	28.16
517.359	28.26
517.559	28.31
517.758	28.44
517.957	28.56
518.156	28.63
518.355	28.67
518.554	28.74
518.753	28.83
518.952	28.92
519.151	28.99
519.35	29.15
519.549	29.2
519.748	29.35
519.947	29.54
520.146	29.57
520.345	29.68
520.544	29.72
520.743	29.87
520.942	29.93
521.141	30.06
521.339	30.18
521.538	30.29
521.737	30.5
521.936	30.63
522.135	30.73
522.333	30.93
522.532	31.05
522.731	31.22
522.93	31.36
523.129	31.54
523.327	31.64
523.526	31.86
523.725	31.99
523.923	32.11
524.122	32.2
524.321	32.22
524.519	32.25
524.718	32.35
524.917	32.43
525.115	32.56
525.314	32.64
525.512	32.76
525.711	32.72
525.909	32.84
526.108	32.95
526.306	33.08
526.505	33.17
526.703	33.28
526.902	33.34
527.1	33.4
527.299	33.41
527.497	33.44
527.696	33.46
527.894	33.54
528.092	33.53
528.291	33.54
528.489	33.57
528.688	33.62
528.886	33.64
529.084	33.64
529.283	33.69
529.481	33.77
529.679	33.88
529.877	33.98
530.076	34.11
530.274	34.24
530.472	34.41
530.67	34.47
530.869	34.55
531.067	34.66
531.265	34.86
531.463	34.94
531.661	34.97
531.859	34.98
532.057	35.02
532.255	35.01
532.454	35.08
532.652	35.13
532.85	35.15
533.048	35.19
533.246	35.23
533.444	35.24
533.642	35.32
533.84	35.44
534.038	35.6
534.236	35.75
534.434	35.87
534.632	35.88
534.83	35.89
535.027	35.99
535.225	36.07
535.423	36.12
535.621	36.11
535.819	36.14
536.017	36.15
536.215	36.14
536.412	36.1
536.61	36.09
536.808	36.13
537.006	36.14
537.203	36.13
537.401	36.2
537.599	36.26
537.797	36.39
537.994	36.52
538.192	36.62
538.39	36.64
538.587	36.74
538.785	36.92
538.983	37.04
539.18	37.16
539.378	37.26
539.575	37.31
539.773	37.4
539.97	37.37
540.168	37.38
540.366	37.44
540.563	37.46
540.761	37.51
540.958	37.46
541.155	37.48
541.353	37.5
541.55	37.42
541.748	37.39
541.945	37.38
542.143	37.47
542.34	37.43
542.537	37.37
542.735	37.35
542.932	37.33
543.129	37.33
543.327	37.31
543.524	37.3
543.721	37.46
543.919	37.55
544.116	37.55
544.313	37.54
544.51	37.69
544.708	37.75
544.905	37.89
545.102	37.96
545.299	38.02
545.496	38.11
545.693	38.08
545.891	37.98
546.088	37.91
546.285	37.91
546.482	37.89
546.679	37.81
546.876	37.79
547.073	37.7
547.27	37.64
547.467	37.61
547.664	37.59
547.861	37.61
548.058	37.62
548.255	37.66
548.452	37.64
548.649	37.79
548.846	37.86
549.043	38.03
549.24	38.11
549.437	38.1
549.633	38.2
549.83	38.13
550.027	38.26
550.224	38.49
550.421	38.62
550.618	38.67
550.814	38.66
551.011	38.6
551.208	38.46
551.405	38.41
551.601	38.52
551.798	38.51
551.995	38.67
552.191	38.68
552.388	38.52
552.585	38.43
552.781	38.43
552.978	38.29
553.175	38.34
553.371	38.46
553.568	38.51
553.764	38.61
553.961	38.64
554.157	38.55
554.354	38.53
554.55	38.74
554.747	38.85
554.943	38.89
555.14	39.04
555.336	39.12
555.533	39.11
555.729	39.2
555.926	39.1
556.122	39.04
556.318	38.98
556.515	38.87
556.711	38.84
556.907	38.76
557.104	38.74
557.3	38.85
557.496	38.78
557.693	38.77
557.889	38.76
558.085	38.63
558.281	38.69
558.478	38.74
558.674	38.93
558.87	38.9
559.066	38.85
559.262	38.83
559.459	38.72
559.655	38.72
559.851	38.69
560.047	38.76
560.243	38.88
560.439	38.96
560.635	38.95
560.831	39
561.027	39
561.223	39.14
561.419	39.32
561.615	39.39
561.811	39.55
562.007	39.66
562.203	39.47
562.399	39.55
562.595	39.5
562.791	39.59
562.987	39.49
563.183	39.54
563.379	39.56
563.575	39.43
563.771	39.48
563.966	39.41
564.162	39.5
564.358	39.7
564.554	39.74
564.75	39.77
564.945	39.82
565.141	39.86
565.337	39.91
565.533	39.89
565.728	39.95
565.924	39.86
566.12	39.9
566.315	39.87
566.511	39.8
566.707	39.73
566.902	39.73
567.098	39.69
567.293	39.7
567.489	39.59
567.684	39.66
567.88	39.66
568.076	39.81
568.271	39.76
568.467	39.89
568.662	40
568.858	40.09
569.053	40.19
569.248	40.27
569.444	40.28
569.639	40.51
569.835	40.71
570.03	40.78
570.225	40.8
570.421	40.95
570.616	40.93
570.812	41
571.007	40.89
571.202	40.8
571.397	40.84
571.593	40.85
571.788	40.79
571.983	40.7
572.178	40.69
572.374	40.76
572.569	40.64
572.764	40.66
572.959	40.56
573.154	40.66
573.35	40.81
573.545	40.79
573.74	40.79
573.935	40.73
574.13	40.64
574.325	40.63
574.52	40.56
574.715	40.62
574.91	40.55
575.105	40.58
575.3	40.5
575.495	40.27
575.69	40.23
575.885	40.21
576.08	40.26
576.275	40.26
576.47	40.14
576.665	40.03
576.86	39.98
577.055	39.85
577.25	39.75
577.444	39.92
577.639	40.17
577.834	40.14
578.029	40.09
578.224	40.1
578.418	40.15
578.613	40.21
578.808	40.38
579.003	40.5
579.197	40.66
579.392	40.73
579.587	40.66
579.781	40.45
579.976	40.62
580.171	40.53
580.365	40.5
580.56	40.58
580.755	40.83
580.949	40.75
581.144	40.72
581.338	40.82
581.533	40.95
581.727	40.87
581.922	41.08
582.116	40.89
582.311	41.1
582.505	41.12
582.7	41.15
582.894	41.02
583.089	41.05
583.283	41.15
583.478	40.96
583.672	40.91
583.866	41.06
584.061	41.04
584.255	41.21
584.449	41.29
584.644	41.36
584.838	41.55
585.032	41.6
585.226	41.74
585.421	41.67
585.615	41.79
585.809	41.88
586.003	41.86
586.198	41.9
586.392	41.96
586.586	42.1
586.78	42.09
586.974	41.92
587.168	41.9
587.363	41.85
587.557	41.87
587.751	41.95
587.945	41.87
588.139	41.92
588.333	41.94
588.527	41.86
588.721	41.73
588.915	41.82
589.109	41.75
589.303	41.92
589.497	41.95
589.691	41.96
589.885	42.05
590.079	42.11
590.273	42.11
590.466	42.11
590.66	42.07
590.854	42.18
591.048	42.07
591.242	42.25
591.436	42.11
591.629	42.03
591.823	41.95
592.017	42.02
592.211	42.03
592.404	42.1
592.598	42.28
592.792	42.54
592.986	42.51
593.179	42.69
593.373	42.65
593.567	42.73
593.76	42.94
593.954	43.08
594.147	43.08
594.341	43.18
594.535	43.2
594.728	43.18
594.922	43.18
595.115	43.31
595.309	43.26
595.502	43.28
595.696	43.3
595.889	43.18
596.083	43.24
596.276	43.2
596.47	43.13
596.663	43.17
596.856	43.05
597.05	42.92
597.243	42.64
597.437	42.51
597.63	42.53
597.823	42.48
598.017	42.58
598.21	42.43
598.403	42.49
598.596	42.54
598.79	42.44
598.983	42.59
599.176	42.58
599.369	42.79
599.563	42.98
599.756	43.02
599.949	43.01
600.142	43.04
600.335	43.12
600.528	43
600.722	43.11
600.915	43.07
601.108	43.06
601.301	43.33
601.494	43.43
601.687	43.58
601.88	43.62
602.073	43.75
602.266	43.66
602.459	43.81
602.652	43.96
602.845	44.09
603.038	44.16
603.231	44.24
603.424	44.17
603.617	44.12
603.809	43.96
604.002	43.83
604.195	43.92
604.388	44.03
604.581	44.02
604.774	43.92
604.966	43.82
605.159	43.74
605.352	43.65
605.545	43.66
605.737	43.71
605.93	43.75
606.123	43.92
606.316	43.68
606.508	43.66
606.701	43.6
606.894	43.55
607.086	43.59
607.279	43.76
607.471	43.99
607.664	43.97
607.857	43.94
608.049	44.07
608.242	43.97
608.434	44.03
608.627	43.92
608.819	44
609.012	44.08
609.204	43.93
609.397	43.84
609.589	43.5
609.782	43.37
609.974	43.36
610.166	43.13
610.359	43.2
610.551	43.24
610.743	43.42
610.936	43.33
611.128	43.29
611.32	43.37
611.513	43.36
611.705	43.52
611.897	43.79
612.09	43.84
612.282	43.78
612.474	43.83
612.666	43.83
612.858	43.68
613.051	43.63
613.243	43.54
613.435	43.63
613.627	43.82
613.819	43.78
614.011	43.61
614.203	43.54
614.395	43.67
614.588	43.68
614.78	43.64
614.972	43.72
615.164	43.82
615.356	43.76
615.548	43.58
615.74	43.6
615.932	43.73
616.124	43.73
616.315	43.78
616.507	43.9
616.699	43.89
616.891	43.92
617.083	43.91
617.275	43.95
617.467	44.21
617.659	44.37
617.85	44.44
618.042	44.51
618.234	44.45
618.426	44.39
618.618	44.5
618.809	44.31
619.001	44.33
619.193	44.33
619.384	44.38
619.576	44.2
619.768	44.04
619.959	43.81
620.151	43.9
620.343	43.97
620.534	43.9
620.726	43.8
620.917	44.03
621.109	43.94
621.301	43.94
621.492	43.87
621.684	43.81
621.875	43.96
622.067	44.03
622.258	43.83
622.45	43.94
622.641	44.13
622.832	44.06
623.024	44.04
623.215	44.15
623.407	44.3
623.598	44.43
623.789	44.63
623.981	44.66
624.172	44.85
624.363	45.01
624.555	44.89
624.746	44.93
624.937	44.92
625.129	44.85
625.32	44.81
625.511	44.59
625.702	44.55
625.893	44.46
626.085	44.42
626.276	44.25
626.467	44.18
626.658	44.19
626.849	44.06
627.04	44.15
627.231	44.17
627.422	44.24
627.614	44.26
627.805	44.08
627.996	44.09
628.187	43.99
628.378	43.99
628.569	43.95
628.76	43.84
628.951	43.9
629.142	43.76
629.332	43.71
629.523	43.5
629.714	43.49
629.905	43.55
630.096	43.69
630.287	43.86
630.478	43.95
630.669	44.03
630.859	44.04
631.05	44.11
631.241	44.15
631.432	44.11
631.623	44.25
631.813	44.46
632.004	44.37
632.195	44.3
632.385	44.18
632.576	43.98
632.767	43.89
632.957	43.93
633.148	43.92
633.339	43.92
633.529	44.06
633.72	44.12
633.91	44.06
634.101	44.19
634.292	44.23
634.482	44.41
634.673	44.58
634.863	44.64
635.054	44.79
635.244	44.77
635.435	44.71
635.625	44.64
635.815	44.73
636.006	44.71
636.196	44.57
636.387	44.62
636.577	44.6
636.767	44.52
636.958	44.42
637.148	44.41
637.338	44.42
637.529	44.4
637.719	44.52
637.909	44.4
638.099	44.3
638.29	44.22
638.48	44.14
638.67	43.94
638.86	43.77
639.05	43.94
639.241	43.78
639.431	43.83
639.621	43.85
639.811	44.02
640.001	43.85
640.191	44.01
640.381	44.16
640.571	44.02
640.761	43.99
640.951	44.12
641.141	44.05
641.331	44.13
641.521	44.1
641.711	44.19
641.901	43.9
642.091	44.13
642.281	44.1
642.471	43.99
642.661	44.11
642.851	44.32
643.041	44.18
643.231	44.03
643.42	43.92
643.61	44.01
643.8	44.12
643.99	43.96
644.18	43.76
644.369	43.62
644.559	43.89
644.749	44.2
644.939	43.87
645.128	44.02
645.318	44
645.508	44.16
645.697	43.96
645.887	43.79
646.076	44.01
646.266	44.16
646.456	44.21
646.645	43.96
646.835	43.61
647.024	43.66
647.214	43.91
647.403	44.23
647.593	44.21
647.782	44.17
647.972	44.12
648.161	44.16
648.351	44.15
648.54	44.37
648.73	44.4
648.919	44.52
649.108	44.69
649.298	44.54
649.487	44.52
649.677	44.5
649.866	44.5
650.055	44.62
650.244	44.52
650.434	44.58
650.623	44.59
650.812	44.68
651.002	44.62
651.191	44.56
651.38	44.65
651.569	44.47
651.758	44.54
651.947	44.67
652.137	44.67
652.326	44.66
652.515	44.56
652.704	44.32
652.893	44.36
653.082	44.41
653.271	44.44
653.46	44.21
653.649	44.38
653.838	44.3
654.027	44.22
654.216	44.25
654.405	44.35
654.594	44.33
654.783	44.33
654.972	44.43
655.161	44.44
655.35	44.4
655.539	44.61
655.728	44.51
655.916	44.43
656.105	44.5
656.294	44.34
656.483	44.36
656.672	44.46
656.86	44.62
657.049	44.54
657.238	44.57
657.427	44.75
657.615	44.75
657.804	44.6
657.993	44.53
658.181	44.7
658.37	44.93
658.559	44.96
658.747	45.03
658.936	44.75
659.125	44.51
659.313	44.41
659.502	44.33
659.69	44.21
659.879	44.29
660.067	44.35
660.256	44.08
660.444	44
660.633	44.06
660.821	43.9
661.01	44.25
661.198	44.57
661.387	44.54
661.575	44.71
661.763	44.6
661.952	44.56
662.14	44.47
662.328	44.46
662.517	44.35
662.705	44.07
662.893	43.9
663.082	43.7
663.27	43.61
663.458	43.8
663.646	43.76
663.834	43.86
664.023	43.88
664.211	44.17
664.399	43.82
664.587	43.82
664.775	43.75
664.963	44.09
665.152	44.01
665.34	43.78
665.528	43.85
665.716	43.64
665.904	43.9
666.092	43.78
666.28	43.8
666.468	44.17
666.656	44.33
666.844	44.51
667.032	44.34
667.22	44.45
667.408	44.62
667.596	44.25
667.784	44.26
667.971	44.05
668.159	44.05
668.347	43.82
668.535	43.79
668.723	43.58
668.911	43.68
669.098	43.82
669.286	43.83
669.474	44.23
669.662	44.34
669.849	44.42
670.037	44.39
670.225	44.64
670.413	44.56
670.6	44.56
670.788	44.91
670.976	44.92
671.163	44.87
671.351	44.91
671.538	44.68
671.726	44.6
671.913	44.53
672.101	44.43
672.289	44.3
672.476	44.43
672.664	44.56
672.851	44.22
673.039	43.99
673.226	44.2
673.413	43.94
673.601	43.67
673.788	43.72
673.976	43.48
674.163	43.83
674.35	43.83
674.538	43.97
674.725	43.92
674.912	43.9
675.1	44.07
675.287	43.94
675.474	44.17
675.662	44.42
675.849	44.61
676.036	44.8
676.223	44.82
676.411	44.92
676.598	45.07
676.785	45.17
676.972	45.35
677.159	45.19
677.346	45.22
677.533	45.22
677.721	45.09
677.908	44.8
678.095	45
678.282	44.74
678.469	44.76
678.656	44.8
678.843	44.59
679.03	44.46
679.217	44.45
679.404	44.29
679.591	44.27
679.778	44.23
679.964	44.58
680.151	44.36
680.338	44.41
680.525	44.25
680.712	44.06
680.899	44.14
681.086	44.25
681.272	44.32
681.459	44.39
681.646	44.29
681.833	44.48
682.02	44.42
682.206	44.26
682.393	44.12
682.58	44.39
682.766	44.69
682.953	44.72
683.14	44.6
683.326	44.82
683.513	45.03
683.7	44.89
683.886	44.98
684.073	44.9
684.259	44.97
684.446	45.4
684.632	45.42
684.819	45.04
685.005	44.82
685.192	44.58
685.378	44.42
685.565	43.99
685.751	43.89
685.938	43.7
686.124	43.63
686.31	44.08
686.497	43.84
686.683	43.74
686.87	43.79
687.056	43.9
687.242	44.09
687.429	44
687.615	44.29
687.801	44.52
687.987	44.66
688.174	44.6
688.36	44.23
688.546	44.2
688.732	44.14
688.918	44.14
689.105	44.21
689.291	44.02
689.477	43.75
689.663	43.75
689.849	43.78
690.035	43.89
690.221	43.8
690.407	43.86
690.593	43.95
690.779	43.72
690.965	43.46
691.151	43.59
691.337	43.85
691.523	44.07
691.709	43.89
691.895	43.73
692.081	43.34
692.267	43.13
692.453	43.03
692.639	43.06
692.825	43.04
693.011	43.58
693.196	43.69
693.382	44
693.568	43.97
693.754	44.28
693.94	44.48
694.125	44.54
694.311	44.64
694.497	44.68
694.682	44.5
694.868	44.61
695.054	44.14
695.239	44.14
695.425	43.85
695.611	44.22
695.796	44.14
695.982	44.23
696.168	44.35
696.353	44.8
696.539	45.02
696.724	45.08
696.91	45.27
697.095	45.21
697.281	45.1
697.466	45.17
697.652	45
697.837	44.86
698.023	44.89
698.208	44.86
698.393	44.64
698.579	44.46
698.764	44.67
698.949	44.73
699.135	44.8
699.32	44.71
699.505	44.46
699.691	44.54
699.876	44.79
700.061	44.94
700.246	44.88
700.432	44.81
700.617	45.01
700.802	44.43
700.987	44.04
701.172	44.48
701.358	44.45
701.543	44.55
701.728	44.18
701.913	43.45
702.098	43.13
702.283	43.11
702.468	43.13
702.653	42.78
702.838	43.21
703.023	43.38
703.208	42.88
703.393	42.96
703.578	43.15
703.763	43.44
703.948	43.54
704.133	43.62
704.318	43.72
704.503	44.01
704.688	44.13
704.873	44.23
705.057	44.11
705.242	44.43
705.427	44.13
705.612	43.84
705.797	43.91
705.981	44.22
706.166	44.16
706.351	44.22
706.536	43.91
706.72	43.73
706.905	43.41
707.09	43.87
707.274	43.51
707.459	43.83
707.644	44.26
707.828	44
708.013	43.94
708.197	43.99
708.382	43.75
708.567	43.9
708.751	43.87
708.936	43.97
709.12	43.31
709.305	43.23
709.489	43.21
709.673	43.12
709.858	43.34
710.042	43.37
710.227	43.31
710.411	43.43
710.596	43.07
710.78	43.34
710.964	43.2
711.149	43.26
711.333	43.35
711.517	43.5
711.702	43.27
711.886	42.97
712.07	42.78
712.254	42.5
712.438	42.64
712.623	43.11
712.807	42.97
712.991	43.19
713.175	43.54
713.359	43.44
713.544	43.5
713.728	43.34
713.912	43.4
714.096	43.77
714.28	43.89
714.464	43.79
714.648	43.49
714.832	43.52
715.016	43.39
715.2	42.95
715.384	43.15
715.568	42.86
715.752	43.26
715.936	43.02
716.12	43.06
716.304	43.02
716.488	43.12
716.671	42.94
716.855	42.95
717.039	42.76
717.223	43.22
717.407	43.51
717.59	43.32
717.774	42.78
717.958	43.28
718.142	42.59
718.325	42.73
718.509	42.86
718.693	43.27
718.877	43.34
719.06	43.55
719.244	43.19
719.428	43.18
719.611	43.59
719.795	43.79
719.978	43.73
720.162	43.99
720.345	44.06
720.529	43.2
720.713	43.41
720.896	43.56
721.08	43.3
721.263	43.87
721.446	43.14
721.63	42.9
721.813	43.39
721.997	42.82
722.18	43.21
722.364	43.18
722.547	43.58
722.73	43.58
722.914	43.33
723.097	44
723.28	43.71
723.464	44.01
723.647	43.98
723.83	43.62
724.013	43.88
724.197	43.95
724.38	44.25
724.563	44.2
724.746	44.03
724.929	44.53
725.112	44.32
725.296	44.32
725.479	44.27
725.662	44.63
725.845	44.45
726.028	44.69
726.211	44.51
726.394	44.34
726.577	44.35
726.76	44.23
726.943	43.71
727.126	43.35
727.309	43.4
727.492	43.46
727.675	43.15
727.858	43.47
728.041	43.41
728.224	43.48
728.407	43.56
728.589	43.8
728.772	43.71
728.955	44.02
729.138	44.02
729.321	43.97
729.503	43.94
729.686	43.82
729.869	43.9
730.052	43.87
730.234	43.89
730.417	43.78
730.6	43.93
730.782	44.04
730.965	43.69
731.148	43.98
731.33	43.8
731.513	43.79
731.695	44.46
731.878	44.31
732.061	44.48
732.243	44.64
732.426	44.35
732.608	44.13
732.791	44.33
732.973	44.52
733.156	44.35
733.338	44.56
733.52	44.9
733.703	44.37
733.885	44.3
734.068	44.45
734.25	44.13
734.432	44.48
734.615	44.28
734.797	44.11
734.979	44
735.162	44.1
735.344	43.85
735.526	43.79
735.708	44.24
735.891	44.13
736.073	43.57
736.255	43.81
736.437	43.2
736.619	43.14
736.802	43.39
736.984	43.64
737.166	43.35
737.348	43.43
737.53	43.3
737.712	43
737.894	42.91
738.076	43.45
738.258	43.42
738.44	43.82
738.622	43.76
738.804	43.61
738.986	43.34
739.168	43.63
739.35	43.71
739.532	43.59
739.714	43.52
739.896	43.79
740.078	43.68
740.259	43.37
740.441	43.21
740.623	43.72
740.805	43.56
740.987	43.79
741.168	43.19
741.35	43.41
741.532	42.87
741.714	42.82
741.895	42.55
742.077	42.5
742.259	42.84
742.44	43.48
742.622	43.56
742.804	43.73
742.985	43.61
743.167	44.11
743.348	44.28
743.53	44.73
743.711	44.34
743.893	44.47
744.075	44.39
744.256	43.79
744.438	42.73
744.619	42.03
744.8	41.75
744.982	41.74
745.163	42.1
745.345	41.43
745.526	41.63
745.707	42.63
745.889	42.45
746.07	42.74
746.252	42.61
746.433	43.1
746.614	43.66
746.795	43.14
746.977	42.59
747.158	41.85
747.339	42.16
747.52	41.89
747.702	41.06
747.883	41.51
748.064	40.68
748.245	41.02
748.426	40.92
748.607	40.77
748.788	41.94
748.97	42.23
749.151	42.05
749.332	41.65
749.513	41.58
749.694	41.32
749.875	41.12
750.056	41.55
750.237	41.28
750.418	41.07
750.599	40.93
750.78	40.24
750.96	40.01
751.141	40.31
751.322	40.57
751.503	40.35
751.684	40.98
751.865	40.98
752.046	40.54
752.226	41.92
752.407	42.2
752.588	42.12
752.769	42.84
752.949	43.91
753.13	44.34
753.311	44.74
753.492	44.76
753.672	44.98
753.853	45.05
754.034	45.69
754.214	44.73
754.395	44.61
754.575	45.3
754.756	44.8
754.937	44.42
755.117	43.99
755.298	43.66
755.478	43.54
755.659	42.95
755.839	42.53
756.02	42.32
756.2	42.44
756.381	42.6
756.561	42.02
756.741	41.94
756.922	41.89
757.102	41.95
757.283	42.32
757.463	43.45
757.643	43.35
757.823	43.49
758.004	43.83
758.184	43.35
758.364	43.44
758.545	43
758.725	43.13
758.905	42.48
759.085	42.92
759.265	42.82
759.446	42.41
759.626	43.26
759.806	42.95
759.986	41.89
760.166	42.75
760.346	42.48
760.526	42.7
760.706	42.36
760.886	43.01
761.066	43.05
761.246	43.15
761.426	42.98
761.606	42.22
761.786	42.76
761.966	43.12
762.146	42.66
762.326	43.01
762.506	43.28
762.686	43.28
762.866	43.28
763.046	43.28
763.225	42.5
763.405	42.63
763.585	42.75
763.765	42.55
763.945	42.32
764.124	42.22
764.304	42.04
764.484	41.77
764.664	41.58
764.843	41.11
765.023	40.99
765.203	41.81
765.382	41.49
765.562	41.44
765.741	41.19
765.921	41.75
766.101	41.87
766.28	42.22
766.46	42.09
766.639	42.61
766.819	42.68
766.998	42.27
767.178	42.07
767.357	41.96
767.537	42.03
767.716	42.7
767.896	41.9
768.075	42.32
768.254	41.65
768.434	41.24
768.613	40.42
768.792	40.47
768.972	39.98
769.151	39.64
769.33	40.27
769.51	40.51
769.689	38.96
769.868	40.15
770.047	39.05
770.226	39.04
770.406	40.01
770.585	40.6
770.764	40.3
770.943	40.88
771.122	41.55
771.301	41.68
771.48	42.03
771.66	42.48
771.839	41.65
772.018	42.47
772.197	43.1
772.376	43.33
772.555	43.7
772.734	44.04
772.913	44.31
773.092	43.41
773.271	42.55
773.449	41.8
773.628	42.56
773.807	42.9
773.986	42.42
774.165	42.02
774.344	42.05
774.523	40.72
774.701	41.37
774.88	41.27
775.059	41.49
775.238	42.06
775.417	41.72
775.595	41.92
775.774	41.61
775.953	41.89
776.131	42.42
776.31	41.21
776.489	42.49
776.667	41.86
776.846	41.65
777.025	41.55
777.203	41.07
777.382	41.37
777.56	41.67
777.739	42.42
777.917	42.92
778.096	42.01
778.274	43.2
778.453	42.81
778.631	42.2
778.81	41.88
778.988	42.83
779.166	43.4
779.345	43.61
779.523	43.42
779.702	43.16
779.88	42.51
780.058	43.07
780.237	43.5
780.415	43.4
780.593	43.81
780.771	43.53
780.95	42.9
781.128	42.35
781.306	43
781.484	42.43
781.662	41.87
781.841	41.22
782.019	40.64
782.197	38.79
782.375	39.05
782.553	39.63
782.731	39.75
782.909	39.7
783.087	39.75
783.265	38.88
783.443	39.73
783.621	39.49
783.799	39.3
783.977	40.04
784.155	40.11
784.333	40.75
784.511	40.59
784.689	40.81
784.867	41.1
785.045	41.29
785.223	40.01
785.4	39.42
785.578	40.01
785.756	40.32
785.934	40.26
786.112	40.02
786.289	39.39
786.467	39.02
786.645	38.87
786.823	38.45
787	38.38
787.178	39.82
787.356	39.02
787.533	39.63
787.711	40.72
787.889	40.72
788.066	41.44
788.244	41.29
788.421	41.14
788.599	41.66
788.776	41.74
788.954	41.53
789.131	41.97
789.309	42.73
789.486	42.13
789.664	41.66
789.841	41.59
790.019	42.15
790.196	42.2
790.373	42.18
790.551	41.94
790.728	41.38
790.906	41.01
791.083	41.83
791.26	41.37
791.437	40.77
791.615	41.21
791.792	41.08
791.969	40.63
792.146	40.36
792.324	40.97
792.501	41.86
792.678	41.77
792.855	42.47
793.032	40.28
793.209	41.06
793.387	41.87
793.564	41.57
793.741	41.35
793.918	41.91
794.095	42.98
794.272	42.65
794.449	42.2
794.626	43.02
794.803	43.78
794.98	44.1
795.157	43.88
795.334	44.36
795.511	44.14
795.688	44.59
795.864	44.04
796.041	43.25
796.218	43.29
796.395	42.88
796.572	43.26
796.749	42.01
796.925	41.83
797.102	41.66
797.279	40.62
797.456	39.95
797.632	39.96
797.809	39.8
797.986	39.76
798.162	39.44
798.339	38.87
798.516	39.07
798.692	38.84
798.869	39.79
799.046	39.96
799.222	39.61
799.399	40.07
799.575	39.27
799.752	39.29
799.928	39.17
800.105	39.73
800.281	41.3
800.458	40.66
800.634	40.58
800.811	39.94
800.987	39.81
801.163	41.41
801.34	42.14
801.516	42.54
801.692	42.87
801.869	43.03
802.045	43.1
802.221	41.45
802.398	42.15
802.574	43.01
802.75	43.71
802.926	43.51
803.103	43.39
803.279	42.33
803.455	42.02
803.631	40.67
803.807	40.17
803.983	39.4
804.16	40.03
804.336	39.25
804.512	38.88
804.688	38.02
804.864	37.66
805.04	37.19
805.216	36.54
805.392	37.47
805.568	39.04
805.744	38.98
805.92	39.32
806.096	38.29
806.272	37.81
806.448	38.13
806.623	37.68
806.799	38.24
806.975	36.93
807.151	37.77
807.327	37.44
807.503	37.49
807.678	38.29
807.854	38.72
808.03	39.57
808.206	40.62
808.381	42.01
808.557	42.48
808.733	42.47
808.908	43.09
809.084	42.28
809.26	42.37
809.435	41.37
809.611	39.92
809.787	39.49
809.962	39.92
810.138	38.85
810.313	37.57
810.489	38.64
810.664	38.22
810.84	39.02
811.015	39.86
811.191	39.72
811.366	40.04
811.542	40.99
811.717	40.88
811.892	40.83
812.068	41.78
812.243	41.64
812.419	41.51
812.594	42.95
812.769	42.08
812.944	41.77
813.12	41.18
813.295	41.18
813.47	41.77
813.645	41.36
813.821	40.9
813.996	39.5
814.171	40.85
814.346	39.64
814.521	37.89
814.697	39.28
814.872	40.71
815.047	40.54
815.222	41
815.397	39.73
815.572	39.71
815.747	39.1
815.922	40.59
816.097	39.23
816.272	39.45
816.447	39.45
816.622	39.16
816.797	38.32
816.972	38.45
817.147	38.71
817.322	39.4
817.496	39.5
817.671	40.86
817.846	40.47
818.021	41.62
818.196	41.75
818.371	42.63
818.545	42.23
818.72	42.77
818.895	43.05
819.069	42.75
819.244	43.45
819.419	43.7
819.594	43.04
819.768	42.42
819.943	41.56
820.117	41.87
820.292	41.62
820.467	41.59
820.641	40.95
820.816	41.09
820.99	40.7
821.165	40.55
821.339	40.57
821.514	40.56
821.688	40.77
821.863	40.71
822.037	40.58
822.212	40.56
822.386	40.47
822.56	40.78
822.735	40.72
822.909	40.82
823.084	40.72
823.258	40.57
823.432	40.69
823.606	40.4
823.781	40.38
823.955	40.24
824.129	39.98
824.303	40.37
824.478	39.99
824.652	40.04
824.826	39.82
825	39.97
825.174	40.3
825.348	40.17
825.523	40.36
825.697	40.32
825.871	40.45
826.045	40.6
826.219	40.26
826.393	40.18
826.567	39.98
826.741	40.06
826.915	39.96
827.089	39.91
827.263	40.17
827.437	40.23
827.611	40.61
827.784	40.58
827.958	40.5
828.132	40.44
828.306	40.55
828.48	40.6
828.654	40.55
828.827	39.99
829.001	39.6
829.175	39.09
829.349	39.45
829.522	38.91
829.696	38.61
829.87	38.46
830.044	38.12
830.217	38.1
830.391	37.72
830.565	38.02
830.738	38.74
830.912	38.79
831.085	38.36
831.259	36.46
831.432	36.48
831.606	37.58
831.779	37.31
831.953	37.39
832.126	37.65
832.3	37.53
832.473	37.82
832.647	37.79
832.82	37.4
832.994	38.17
833.167	38.62
833.34	37.88
833.514	36.74
833.687	37.22
833.86	36.76
834.034	37.05
834.207	37.14
834.38	37.1
834.553	36.69
834.727	37.92
834.9	37.17
835.073	37.29
835.246	37.6
835.419	38.58
835.593	38.64
835.766	39.17
835.939	38.16
836.112	38.29
836.285	38.2
836.458	38.68
836.631	37.37
836.804	38
836.977	38.89
837.15	38.71
837.323	39.39
837.496	38.67
837.669	37.53
837.842	38.67
838.015	38.78
838.188	38.67
838.361	39.4
838.533	39.26
838.706	39.18
838.879	37.66
839.052	38.8
839.225	37.79
839.398	39.94
839.57	41.59
839.743	42.82
839.916	42.52
840.088	42.33
840.261	40.94
840.434	40.42
840.607	41.8
840.779	41.66
840.952	41.37
841.124	40.37
841.297	40.05
841.47	38.84
841.642	37.04
841.815	35.57
841.987	35.53
842.16	35.53
842.332	37.71
842.505	36.53
842.677	38.06
842.85	36.81
843.022	38.49
843.194	37.47
843.367	37.89
843.539	38.91
843.712	40.25
843.884	40.04
844.056	43.23
844.229	40.48
844.401	41.11
844.573	42.43
844.745	42.57
844.918	42.35
845.09	42.41
845.262	41.4
845.434	41.15
845.606	43.8
845.779	47.81
845.951	44.95
846.123	45.86
846.295	43.05
846.467	38.8
846.639	41.52
846.811	39.98
846.983	38.49
847.155	39.47
847.327	39.27
847.499	36.1
847.671	31.35
847.843	30.55
848.015	31.8
848.187	34.53
848.359	36.97
848.531	40.04
848.703	41.55
848.875	43.4
849.047	45.17
849.218	41.27
849.39	42.03
849.562	41.36
849.734	40.25
849.905	38.55
850.077	35.84
850.249	34.42
850.421	29.82
850.592	28.42
850.764	26.35
850.936	25.69
851.107	27.84
851.279	25.89
851.451	29.91
851.622	32.04
851.794	34.02
851.965	35.02
852.137	38.38
852.308	37.73
852.48	37.98
852.651	38.57
852.823	38.22
852.994	38.92
853.166	44.04
853.337	44.64
853.509	44.76
853.68	43.17
853.851	44.7
854.023	43.42
854.194	47.51
854.365	46.51
854.537	47.89
854.708	48.5
854.879	49.22
855.05	45.24
855.222	40.31
855.393	40.37
855.564	41.97
855.735	39.79
855.906	37.01
856.078	33.53
856.249	32.39
856.42	30.99
856.591	29.74
856.762	27.93
856.933	28.45
857.104	30.04
857.275	29.63
857.446	30.1
857.617	30.12
857.788	31.61
857.959	32.08
858.13	36.56
858.301	38.41
858.472	36.17
858.643	37.26
858.814	37.2
858.985	38.41
859.155	39.23
859.326	38.86
859.497	40.76
859.668	43.83
859.839	43.39
860.009	39.23
860.18	37.36
860.351	39.62
860.522	43.26
860.692	44.03
860.863	42.59
861.034	40.61
861.204	37.93
861.375	34.81
861.546	33.12
861.716	33.6
861.887	35.9
862.057	37.96
862.228	38.19
862.398	34.64
862.569	32.09
862.739	32.62
862.91	34.85
863.08	36.09
863.251	38.82
863.421	37.96
863.592	36.15
863.762	33.27
863.932	32.33
864.103	30.03
864.273	28.26
864.443	30.3
864.614	29.75
864.784	28.03
864.954	27.7
865.125	31.04
865.295	33.33
865.465	35.02
865.635	36.96
865.805	36.12
865.976	42.01
866.146	45.06
866.316	46.67
866.486	46.25
866.656	43.78
866.826	43.66
866.996	36.94
867.166	35.97
867.336	35.5
867.506	37.39
867.676	39.23
867.846	36.36
868.016	36.85
868.186	32.89
868.356	31.32
868.526	35.54
868.696	34.98
868.866	37.63
869.036	37.31
869.206	32.69
869.376	31.94
869.545	28.31
869.715	27.59
869.885	24.3
870.055	25.7
870.224	24.47
870.394	22.46
870.564	24.56
870.734	27.26
870.903	27.07
871.073	32.86
871.243	30.77
871.412	31.07
871.582	33.29
871.751	36.59
871.921	38.89
872.091	42.01
872.26	39.04
872.43	37.37
872.599	37.54
872.769	34.22
872.938	34.24
873.108	37.25
873.277	41.22
873.446	39.28
873.616	38.92
873.785	36.96
873.955	36.16
874.124	36.19
874.293	38.81
874.463	34.92
874.632	36.47
874.801	35.68
874.971	36.23
875.14	32.64
875.309	33.72
875.478	34.91
875.647	37.79
875.817	41.51
875.986	41.52
876.155	41.03
876.324	41.65
876.493	41.79
876.662	42.19
876.831	37.18
877	36.9
877.17	37.88
877.339	35.59
877.508	34.47
877.677	30.64
877.846	34.82
878.015	36.04
878.184	37.05
878.352	39.17
878.521	36.81
878.69	38.53
878.859	39.43
879.028	38.15
879.197	38.95
879.366	37.48
879.534	38.95
879.703	37.39
879.872	35.3
880.041	34.69
880.21	34.35
880.378	36.01
880.547	35.78
880.716	34.9
880.884	35.62
881.053	35.46
881.222	36.11
881.39	36.13
881.559	36.2
881.727	36.41
881.896	36.99
882.065	37.72
882.233	37.62
882.402	37.94
882.57	37.82
882.739	36.96
882.907	36.44
883.076	36
883.244	35.6
883.412	35.33
883.581	35.11
883.749	35.02
883.918	33.51
884.086	32.84
884.254	32.73
884.423	32.52
884.591	31.71
884.759	32.03
884.927	32.08
885.096	31.83
885.264	31.4
885.432	30.85
885.6	30.82
885.769	29.8
885.937	30.03
886.105	28.78
886.273	30.3
886.441	32.1
886.609	31.02
886.777	30.7
886.945	30.96
887.113	32.12
887.281	32.7
887.449	31.97
887.617	33.68
887.785	33.65
887.953	34.23
888.121	29.1
888.289	30.53
888.457	31.12
888.625	33.97
888.793	31.62
888.961	30.29
889.129	30.8
889.296	30.49
889.464	30.48
889.632	30.59
889.8	29.71
889.967	36.23
890.135	34
