Data from 2938511_Reflection_3.txt Node
Date: Tue Jun 16 22:47:32 EDT 2015
User: robert
Spectrometer: USB4E03002
Autoset integration time: false
Trigger mode: 4
Integration Time (sec): 1.000000E-1
Scans to average: 10
Electric dark correction enabled: true
Nonlinearity correction enabled: false
Boxcar width: 5
Stray light correction enabled: false
XAxis mode: Wavelengths
Stop averaging: false
Number of Pixels in Spectrum: 3648
>>>>>Begin Spectral Data<<<<<
177.575	-93.39
177.794	-101.27
178.014	-52.1
178.233	-82.01
178.452	2.11
178.672	-164.72
178.891	701.61
179.11	-973.18
179.33	-2077.42
179.549	-99.86
179.768	-157.41
179.987	-117.55
180.207	-148.91
180.426	-79.36
180.645	-1485.52
180.864	649.65
181.084	104.8
181.303	91.49
181.522	77.65
181.741	92.92
181.96	77.86
182.179	71.43
182.398	124.28
182.618	109.24
182.837	118.4
183.056	104.49
183.275	105.16
183.494	118.04
183.713	-84.08
183.932	-211.02
184.151	-199.6
184.37	-1365.53
184.589	237.14
184.808	139.29
185.027	147.04
185.246	124.02
185.465	139.43
185.684	127
185.903	168.67
186.122	133.88
186.341	148.71
186.56	134.73
186.779	233.86
186.998	372.54
187.216	499.75
187.435	325.35
187.654	261.67
187.873	485.57
188.092	489.33
188.311	359.52
188.53	262.12
188.748	750.44
188.967	5177.42
189.186	116.12
189.405	112.7
189.623	66.12
189.842	91.58
190.061	142.78
190.28	116.68
190.498	91.35
190.717	72.58
190.936	100.99
191.154	85.4
191.373	98.66
191.592	118.98
191.81	133.92
192.029	181.82
192.248	221.66
192.466	296.98
192.685	277.48
192.904	423.69
193.122	623.74
193.341	-381.01
193.559	-142.4
193.778	-150.54
193.996	-106.93
194.215	-526.37
194.433	-186.62
194.652	-447.66
194.87	383.13
195.089	-36.14
195.307	92.53
195.526	86.53
195.744	152.84
195.963	145.65
196.181	110.21
196.399	119.24
196.618	132.4
196.836	131.46
197.055	111.94
197.273	126.54
197.491	149.03
197.71	104.26
197.928	97.26
198.146	83.69
198.365	63.08
198.583	64.91
198.801	84.62
199.019	38.69
199.238	21.81
199.456	-115.87
199.674	-53.82
199.892	-28.42
200.111	-4.7
200.329	26.74
200.547	18.76
200.765	15.2
200.983	34.46
201.202	1.86
201.42	18.56
201.638	16.65
201.856	35.73
202.074	45.4
202.292	52.11
202.51	45.96
202.728	39.23
202.946	49.16
203.165	72.95
203.383	59.87
203.601	86.3
203.819	119.26
204.037	123.35
204.255	105.4
204.473	123.52
204.691	105.49
204.909	107.53
205.127	164.39
205.345	152.77
205.562	128.79
205.78	122.95
205.998	102.16
206.216	71.99
206.434	78.5
206.652	112.33
206.87	92.34
207.088	107.92
207.306	92.48
207.523	63.85
207.741	67.96
207.959	87.28
208.177	65.9
208.395	77.02
208.612	75.93
208.83	68.21
209.048	72
209.266	61.35
209.483	48.62
209.701	54.17
209.919	68.22
210.136	72.96
210.354	64.53
210.572	75.91
210.79	66.78
211.007	58.7
211.225	62.11
211.442	64.43
211.66	60.73
211.878	63.14
212.095	34.71
212.313	24.44
212.53	23.72
212.748	24.02
212.966	19.77
213.183	28.43
213.401	35.82
213.618	32.16
213.836	28.51
214.053	37.25
214.271	36.14
214.488	80.1
214.705	98.6
214.923	85.4
215.14	69.93
215.358	62.16
215.575	49.43
215.793	37.27
216.01	32.36
216.227	34.94
216.445	24.56
216.662	31.23
216.879	35.01
217.097	28.74
217.314	30.24
217.531	31.93
217.749	21.67
217.966	39.08
218.183	37.96
218.4	44.79
218.618	32.38
218.835	28.87
219.052	13.89
219.269	-1.83
219.487	4.63
219.704	1.73
219.921	-2.49
220.138	3.65
220.355	-1.12
220.572	-2.16
220.79	-0.41
221.007	9.94
221.224	9.62
221.441	21
221.658	24.37
221.875	24.74
222.092	30.24
222.309	26.3
222.526	22.6
222.743	18.24
222.96	17.4
223.177	19.81
223.394	20.81
223.611	20.42
223.828	19.13
224.045	19.3
224.262	19.29
224.479	20.89
224.696	23.17
224.913	24.2
225.13	22.16
225.347	21.93
225.564	18.92
225.781	16.19
225.997	15.04
226.214	14.6
226.431	14.53
226.648	12.77
226.865	11.89
227.082	10.45
227.298	10.65
227.515	10.4
227.732	10.53
227.949	11.09
228.165	10.41
228.382	11.02
228.599	10.37
228.816	10.07
229.032	10.88
229.249	10.4
229.466	11.81
229.682	10.94
229.899	11.69
230.116	9.93
230.332	9.47
230.549	9.46
230.765	8.97
230.982	9.43
231.199	11.1
231.415	11.46
231.632	12.47
231.848	12.66
232.065	13.81
232.281	13.31
232.498	12.77
232.714	12.71
232.931	13.72
233.147	13.12
233.364	12.13
233.58	9.14
233.797	6.35
234.013	4.43
234.23	3.48
234.446	4.21
234.662	4.16
234.879	6.79
235.095	7.78
235.312	8.22
235.528	10.62
235.744	11.32
235.961	14.12
236.177	16.86
236.393	20.77
236.61	22.18
236.826	20.16
237.042	20.77
237.258	20.03
237.475	18.85
237.691	17.88
237.907	15.95
238.123	14.5
238.339	13.96
238.556	14.39
238.772	12.11
238.988	11.07
239.204	12.07
239.42	11.39
239.636	10.87
239.853	10.81
240.069	10.52
240.285	10.59
240.501	10.91
240.717	10.22
240.933	10.34
241.149	10.37
241.365	10.17
241.581	9.71
241.797	9.44
242.013	9.6
242.229	9.32
242.445	9.18
242.661	8.79
242.877	8.87
243.093	9.28
243.309	8.71
243.525	8.37
243.741	8.08
243.957	7.61
244.173	7.57
244.388	7.55
244.604	7.31
244.82	7.27
245.036	6.83
245.252	7.04
245.468	6.78
245.683	6.35
245.899	6.36
246.115	6.4
246.331	6.59
246.547	6.23
246.762	5.86
246.978	6.34
247.194	6.37
247.409	6.77
247.625	6.37
247.841	6.33
248.057	6.32
248.272	6.32
248.488	6.64
248.703	5.61
248.919	6.38
249.135	7.13
249.35	6.27
249.566	6.62
249.782	5.91
249.997	5.74
250.213	6.52
250.428	6.8
250.644	6.9
250.859	6.65
251.075	7.61
251.29	6.63
251.506	6.58
251.721	6.62
251.937	7.02
252.152	7.38
252.368	8.1
252.583	7.31
252.798	7.64
253.014	8.14
253.229	8.93
253.445	9.19
253.66	10.56
253.875	9.75
254.091	9.93
254.306	9.9
254.521	10.42
254.737	9.43
254.952	9.23
255.167	8.13
255.383	6.74
255.598	6.05
255.813	5.39
256.028	4.89
256.244	5.48
256.459	5.67
256.674	4.95
256.889	4.91
257.104	4.91
257.32	4.63
257.535	4.8
257.75	5.06
257.965	4.93
258.18	4.69
258.395	4.64
258.61	4.89
258.826	4.74
259.041	5.03
259.256	4.79
259.471	4.99
259.686	5.3
259.901	5.35
260.116	5.26
260.331	5.4
260.546	5.9
260.761	5.62
260.976	5.08
261.191	5.32
261.406	4.5
261.621	5.15
261.836	4.82
262.05	4.73
262.265	4.53
262.48	4.61
262.695	4.87
262.91	4.42
263.125	5.4
263.34	5.35
263.555	5.36
263.769	6.18
263.984	5.38
264.199	5.9
264.414	5.84
264.629	5.97
264.843	6.48
265.058	6.33
265.273	6.53
265.488	6.63
265.702	6.58
265.917	6.33
266.132	5.82
266.346	6.22
266.561	6.16
266.776	6.1
266.99	5.92
267.205	5.88
267.42	6.04
267.634	6.01
267.849	5.41
268.063	5.81
268.278	5.71
268.492	5.87
268.707	5.94
268.922	5.98
269.136	6.47
269.351	6.62
269.565	6.02
269.78	5.75
269.994	5.69
270.209	5.87
270.423	5.48
270.637	5.49
270.852	5.45
271.066	5.28
271.281	5.44
271.495	4.95
271.709	5.1
271.924	5.26
272.138	5.25
272.353	5.81
272.567	6.13
272.781	6.07
272.996	5.88
273.21	5.59
273.424	5.81
273.638	5.36
273.853	5.16
274.067	5.11
274.281	5.08
274.495	5.01
274.71	4.72
274.924	4.4
275.138	4.65
275.352	4.72
275.566	5.79
275.781	5.57
275.995	5.71
276.209	6.07
276.423	6.09
276.637	6.18
276.851	6.39
277.065	5.75
277.279	6.37
277.493	6.43
277.707	6.24
277.921	5.93
278.135	6.38
278.349	5.84
278.563	5.7
278.777	5.42
278.991	5.84
279.205	5.76
279.419	5.86
279.633	5.55
279.847	5.46
280.061	5.81
280.275	5.76
280.489	5.32
280.703	5.5
280.917	5.54
281.131	5.56
281.344	5.11
281.558	5.06
281.772	5.11
281.986	4.82
282.2	4.78
282.414	4.57
282.627	4.53
282.841	4.63
283.055	4.62
283.269	4.14
283.482	4.39
283.696	4.44
283.91	4.03
284.123	4.24
284.337	4.43
284.551	4.6
284.764	4.52
284.978	4.3
285.192	4.3
285.405	4.19
285.619	4.86
285.833	4.65
286.046	4.77
286.26	5.05
286.473	4.55
286.687	4.87
286.9	4.53
287.114	4.89
287.327	5.11
287.541	5.12
287.754	5.43
287.968	5.33
288.181	5.41
288.395	5.24
288.608	5.37
288.822	5.77
289.035	5.37
289.248	5.71
289.462	5.52
289.675	5.12
289.889	5.08
290.102	4.94
290.315	4.93
290.529	5.21
290.742	5.36
290.955	5.44
291.169	5.6
291.382	5.46
291.595	5.31
291.808	5.52
292.022	5.54
292.235	5.61
292.448	5.99
292.661	6.21
292.875	6
293.088	5.8
293.301	6.06
293.514	6.05
293.727	6.36
293.94	6.25
294.153	6.38
294.367	6.73
294.58	6.7
294.793	6.76
295.006	6.55
295.219	6.42
295.432	6.46
295.645	6.15
295.858	6.23
296.071	6.14
296.284	6.33
296.497	6.24
296.71	6.33
296.923	6.65
297.136	6.56
297.349	6.92
297.562	7
297.775	6.94
297.988	7.22
298.201	7.14
298.414	7.37
298.626	7.07
298.839	7.23
299.052	6.8
299.265	6.45
299.478	6.29
299.691	5.71
299.903	5.54
300.116	5.76
300.329	5.41
300.542	5.48
300.755	5.69
300.967	5.83
301.18	6.12
301.393	6.38
301.605	6.87
301.818	6.94
302.031	7.13
302.243	7.57
302.456	7.49
302.669	8.07
302.881	7.92
303.094	7.79
303.307	8.07
303.519	7.94
303.732	8.21
303.944	7.84
304.157	7.68
304.37	7.5
304.582	7.38
304.795	7.52
305.007	7.35
305.22	7.36
305.432	7.65
305.645	7.66
305.857	7.7
306.069	7.28
306.282	7.51
306.494	7.47
306.707	7.31
306.919	7.31
307.132	7.18
307.344	7.1
307.556	7.42
307.769	7.06
307.981	7.02
308.193	6.86
308.406	6.95
308.618	6.75
308.83	6.96
309.043	7.9
309.255	8.01
309.467	7.86
309.679	7.71
309.892	7.54
310.104	7.35
310.316	7.35
310.528	7.38
310.74	7.5
310.953	7.61
311.165	7.63
311.377	7.03
311.589	7.15
311.801	7.69
312.013	8.36
312.225	8.29
312.437	8.61
312.649	8.63
312.862	8.58
313.074	8.78
313.286	8.91
313.498	8.74
313.71	8.51
313.922	8.39
314.134	7.64
314.346	7.16
314.558	7.78
314.77	8.05
314.982	8.12
315.193	7.96
315.405	8.1
315.617	7.98
315.829	8.1
316.041	7.92
316.253	7.79
316.465	8.57
316.677	8.59
316.888	8
317.1	7.45
317.312	7.32
317.524	7.19
317.736	6.76
317.947	7.02
318.159	7.34
318.371	7.55
318.583	7.74
318.794	7.13
319.006	7.15
319.218	7.12
319.43	7.56
319.641	7.17
319.853	7.6
320.064	7.65
320.276	7.66
320.488	7.38
320.699	7.53
320.911	7.65
321.123	8.31
321.334	8.26
321.546	8.85
321.757	8.83
321.969	9.38
322.18	8.97
322.392	8.84
322.603	9.05
322.815	9.02
323.026	9.26
323.238	8.97
323.449	8.74
323.661	8.28
323.872	8.12
324.083	8.36
324.295	8.47
324.506	9.68
324.718	9.8
324.929	9.45
325.14	9.44
325.352	9.2
325.563	9.33
325.774	9.81
325.986	10.21
326.197	10.07
326.408	9.82
326.62	9.83
326.831	8.97
327.042	8.79
327.253	8.78
327.464	8.81
327.676	9.24
327.887	9.18
328.098	8.54
328.309	8.79
328.52	8.95
328.732	8.7
328.943	9.02
329.154	9.17
329.365	9.21
329.576	9.32
329.787	9.75
329.998	9.44
330.209	10.01
330.42	10.5
330.631	10.55
330.842	10.75
331.053	11.32
331.264	10.77
331.475	10.92
331.686	11.62
331.897	11.76
332.108	11.7
332.319	12.33
332.53	12.29
332.741	12.22
332.952	12.13
333.163	11.92
333.374	11.89
333.585	11.83
333.795	11.66
334.006	11.71
334.217	11.7
334.428	11.8
334.639	11.34
334.849	11.32
335.06	11.43
335.271	11.59
335.482	11.49
335.692	11.27
335.903	11.56
336.114	11.72
336.325	11.88
336.535	11.87
336.746	11.81
336.957	12.13
337.167	12.09
337.378	12.27
337.589	11.76
337.799	11.99
338.01	12.26
338.22	12.41
338.431	12.19
338.642	11.82
338.852	11.84
339.063	11.58
339.273	11.43
339.484	11.37
339.694	11.39
339.905	12.2
340.115	12.54
340.326	12.26
340.536	12.22
340.746	12.59
340.957	11.88
341.167	11.7
341.378	11.78
341.588	11.79
341.799	11.68
342.009	11.46
342.219	10.72
342.43	10.19
342.64	10.39
342.85	10.18
343.061	10.17
343.271	11.09
343.481	11.2
343.691	11.36
343.902	11.03
344.112	11.29
344.322	11.37
344.532	11.48
344.743	11.76
344.953	11.55
345.163	12.06
345.373	11.74
345.583	11.42
345.793	11.45
346.004	11.53
346.214	11.45
346.424	10.99
346.634	10.76
346.844	10.54
347.054	10.32
347.264	10.52
347.474	10.07
347.684	10.21
347.894	10.04
348.104	9.77
348.314	9.44
348.524	9.6
348.734	9.61
348.944	9.75
349.154	10.37
349.364	10.28
349.574	10.35
349.784	10.26
349.994	10.19
350.204	10.3
350.413	10.82
350.623	10.72
350.833	10.66
351.043	10.87
351.253	10.87
351.463	10.64
351.672	10.56
351.882	10.25
352.092	10.41
352.302	10.6
352.511	10.7
352.721	10.47
352.931	10.58
353.141	10.69
353.35	10.53
353.56	10.62
353.77	10.29
353.979	10.32
354.189	10.44
354.399	10.24
354.608	10.23
354.818	10.25
355.027	10.25
355.237	10.31
355.447	10.31
355.656	10.52
355.866	10.24
356.075	10.67
356.285	10.82
356.494	10.84
356.704	10.74
356.913	10.58
357.123	10.7
357.332	10.54
357.542	10.39
357.751	10.42
357.96	10.55
358.17	10.52
358.379	10.53
358.589	10.5
358.798	10.06
359.007	10.23
359.217	10.19
359.426	9.92
359.635	9.94
359.845	9.81
360.054	9.77
360.263	9.46
360.472	9.44
360.682	9.12
360.891	9.06
361.1	9.45
361.309	9.22
361.519	9
361.728	9.08
361.937	9.17
362.146	9.07
362.355	9.09
362.564	8.83
362.774	9.08
362.983	9.52
363.192	9.57
363.401	9.31
363.61	9.63
363.819	9.72
364.028	9.55
364.237	9.44
364.446	9.83
364.655	9.68
364.864	10.04
365.073	9.74
365.282	9.13
365.491	9.23
365.7	9.52
365.909	9.22
366.118	9.2
366.327	9.08
366.536	8.94
366.745	9.04
366.954	9.04
367.162	8.7
367.371	8.73
367.58	8.75
367.789	8.6
367.998	8.26
368.207	8.42
368.415	8.59
368.624	8.89
368.833	8.85
369.042	8.7
369.25	8.66
369.459	8.89
369.668	8.73
369.877	8.81
370.085	8.89
370.294	8.87
370.503	8.81
370.711	8.78
370.92	8.71
371.129	8.69
371.337	8.49
371.546	8.55
371.754	8.39
371.963	8.67
372.171	8.64
372.38	8.23
372.589	8.25
372.797	8.14
373.006	8.13
373.214	7.84
373.423	7.95
373.631	8.07
373.84	8.1
374.048	8.06
374.256	7.83
374.465	7.9
374.673	8.11
374.882	8.14
375.09	8.08
375.298	7.92
375.507	7.9
375.715	7.8
375.923	7.73
376.132	7.47
376.34	7.4
376.548	7.53
376.757	7.4
376.965	7.39
377.173	7.17
377.381	7.15
377.59	7.41
377.798	7.45
378.006	7.5
378.214	7.69
378.423	7.97
378.631	8.03
378.839	7.88
379.047	7.91
379.255	7.84
379.463	7.89
379.671	8.1
379.879	7.71
380.088	7.87
380.296	7.7
380.504	7.44
380.712	7.43
380.92	7.42
381.128	7.45
381.336	7.26
381.544	7.24
381.752	7.27
381.96	7.02
382.168	7.15
382.376	6.8
382.584	6.78
382.791	6.64
382.999	6.35
383.207	6.37
383.415	6.22
383.623	6.36
383.831	6.48
384.039	6.31
384.247	6.44
384.454	6.45
384.662	6.58
384.87	6.65
385.078	6.74
385.285	6.85
385.493	6.69
385.701	6.8
385.909	6.71
386.116	6.52
386.324	6.74
386.532	6.62
386.739	6.7
386.947	6.78
387.155	6.77
387.362	6.7
387.57	6.87
387.778	7.06
387.985	6.89
388.193	7.12
388.4	7.13
388.608	7.34
388.816	7.35
389.023	7.42
389.231	7.2
389.438	7.16
389.646	7.28
389.853	7.06
390.061	6.93
390.268	6.98
390.475	6.81
390.683	6.74
390.89	6.43
391.098	6.43
391.305	6.52
391.512	6.57
391.72	6.47
391.927	6.44
392.135	6.55
392.342	6.72
392.549	6.86
392.756	6.84
392.964	6.96
393.171	6.91
393.378	6.88
393.586	6.65
393.793	6.7
394	6.81
394.207	6.84
394.414	6.6
394.622	6.38
394.829	6.27
395.036	6.07
395.243	5.92
395.45	5.86
395.657	5.81
395.864	5.64
396.072	5.82
396.279	5.9
396.486	5.67
396.693	5.89
396.9	5.8
397.107	5.81
397.314	5.97
397.521	5.98
397.728	6.01
397.935	5.93
398.142	6.05
398.349	5.8
398.556	5.64
398.763	5.76
398.97	5.74
399.177	6.09
399.383	5.97
399.59	6.02
399.797	6.01
400.004	5.95
400.211	5.9
400.418	5.67
400.625	5.65
400.831	5.69
401.038	5.64
401.245	5.27
401.452	5
401.658	5.01
401.865	5.02
402.072	4.93
402.279	4.99
402.485	5.18
402.692	5.36
402.899	5.27
403.105	5.26
403.312	5.12
403.519	5.3
403.725	5.17
403.932	5.24
404.138	5.08
404.345	5.09
404.552	5.2
404.758	5.16
404.965	5.04
405.171	4.99
405.378	5.14
405.584	5.02
405.791	4.89
405.997	5.05
406.204	4.86
406.41	4.99
406.617	5.04
406.823	5.02
407.029	4.85
407.236	4.91
407.442	5.13
407.649	4.99
407.855	5.17
408.061	5.26
408.268	5.24
408.474	5.29
408.68	5.14
408.887	5.11
409.093	4.88
409.299	5.07
409.505	5.02
409.712	4.87
409.918	4.74
410.124	4.81
410.33	4.78
410.537	4.69
410.743	4.72
410.949	4.69
411.155	4.78
411.361	4.82
411.567	4.71
411.773	4.84
411.98	4.91
412.186	4.83
412.392	4.69
412.598	4.66
412.804	4.64
413.01	4.68
413.216	4.87
413.422	4.83
413.628	4.88
413.834	4.92
414.04	4.75
414.246	4.64
414.452	4.63
414.658	4.64
414.864	4.63
415.07	4.69
415.275	4.54
415.481	4.44
415.687	4.29
415.893	4.29
416.099	4.28
416.305	4.29
416.511	4.34
416.716	4.38
416.922	4.37
417.128	4.31
417.334	4.35
417.539	4.45
417.745	4.42
417.951	4.44
418.157	4.42
418.362	4.28
418.568	4.27
418.774	4.2
418.979	4.21
419.185	4.3
419.391	4.4
419.596	4.19
419.802	4.2
420.008	4.22
420.213	4.55
420.419	4.57
420.624	4.64
420.83	4.61
421.035	4.58
421.241	4.53
421.446	4.35
421.652	4.2
421.857	4.21
422.063	4.11
422.268	3.99
422.474	3.59
422.679	3.55
422.885	3.45
423.09	3.48
423.295	3.52
423.501	3.5
423.706	3.55
423.911	3.65
424.117	3.77
424.322	3.78
424.527	3.89
424.733	3.95
424.938	3.92
425.143	3.97
425.349	3.92
425.554	3.93
425.759	3.97
425.964	3.97
426.169	3.93
426.375	3.9
426.58	3.87
426.785	3.85
426.99	3.96
427.195	3.99
427.4	4.04
427.605	4.12
427.811	4.12
428.016	4.18
428.221	4.15
428.426	4.06
428.631	4.01
428.836	4.03
429.041	4.05
429.246	3.93
429.451	3.9
429.656	3.95
429.861	3.9
430.066	3.87
430.271	3.8
430.476	3.93
430.681	3.92
430.886	3.99
431.09	3.99
431.295	3.97
431.5	4.09
431.705	4.01
431.91	3.9
432.115	3.91
432.32	3.93
432.524	3.89
432.729	3.91
432.934	3.97
433.139	3.89
433.343	3.88
433.548	3.79
433.753	3.64
433.958	3.64
434.162	3.63
434.367	3.58
434.572	3.46
434.776	3.51
434.981	3.3
435.186	3.36
435.39	3.39
435.595	3.38
435.799	3.34
436.004	3.27
436.209	3.41
436.413	3.55
436.618	3.62
436.822	3.66
437.027	3.63
437.231	3.74
437.436	3.66
437.64	3.66
437.845	3.65
438.049	3.72
438.253	3.72
438.458	3.72
438.662	3.58
438.867	3.54
439.071	3.56
439.275	3.63
439.48	3.67
439.684	3.7
439.888	3.67
440.093	3.69
440.297	3.66
440.501	3.66
440.706	3.65
440.91	3.63
441.114	3.63
441.318	3.63
441.523	3.6
441.727	3.52
441.931	3.52
442.135	3.59
442.339	3.55
442.543	3.57
442.748	3.68
442.952	3.68
443.156	3.74
443.36	3.74
443.564	3.67
443.768	3.6
443.972	3.58
444.176	3.56
444.38	3.51
444.584	3.49
444.788	3.44
444.992	3.27
445.196	3.31
445.4	3.21
445.604	3.18
445.808	3.25
446.012	3.28
446.216	3.3
446.42	3.26
446.624	3.27
446.828	3.36
447.032	3.43
447.235	3.57
447.439	3.53
447.643	3.64
447.847	3.7
448.051	3.72
448.254	3.74
448.458	3.72
448.662	3.66
448.866	3.62
449.069	3.6
449.273	3.61
449.477	3.62
449.681	3.53
449.884	3.51
450.088	3.48
450.292	3.46
450.495	3.45
450.699	3.47
450.902	3.53
451.106	3.48
451.31	3.33
451.513	3.26
451.717	3.2
451.92	3.2
452.124	3.2
452.327	3.21
452.531	3.18
452.734	3.2
452.938	3.2
453.141	3.24
453.345	3.28
453.548	3.5
453.752	3.53
453.955	3.63
454.158	3.57
454.362	3.51
454.565	3.6
454.769	3.57
454.972	3.49
455.175	3.54
455.379	3.5
455.582	3.55
455.785	3.36
455.988	3.34
456.192	3.31
456.395	3.35
456.598	3.39
456.801	3.31
457.005	3.27
457.208	3.27
457.411	3.19
457.614	3.18
457.817	3.17
458.021	3.21
458.224	3.22
458.427	3.17
458.63	3.18
458.833	3.2
459.036	3.13
459.239	3.21
459.442	3.22
459.645	3.29
459.848	3.26
460.051	3.3
460.254	3.31
460.457	3.26
460.66	3.27
460.863	3.36
461.066	3.31
461.269	3.42
461.472	3.36
461.675	3.37
461.878	3.35
462.081	3.31
462.284	3.28
462.486	3.23
462.689	3.29
462.892	3.35
463.095	3.27
463.298	3.36
463.5	3.29
463.703	3.35
463.906	3.34
464.109	3.32
464.311	3.45
464.514	3.33
464.717	3.45
464.92	3.47
465.122	3.47
465.325	3.5
465.528	3.48
465.73	3.53
465.933	3.51
466.135	3.57
466.338	3.54
466.541	3.51
466.743	3.71
466.946	3.67
467.148	3.67
467.351	3.61
467.553	3.63
467.756	3.62
467.958	3.57
468.161	3.56
468.363	3.56
468.566	3.72
468.768	3.84
468.971	3.71
469.173	3.65
469.375	3.68
469.578	3.67
469.78	3.75
469.983	3.75
470.185	3.75
470.387	3.8
470.59	3.75
470.792	3.6
470.994	3.54
471.196	3.57
471.399	3.63
471.601	3.6
471.803	3.61
472.005	3.63
472.208	3.62
472.41	3.75
472.612	3.78
472.814	3.79
473.016	3.85
473.218	3.89
473.421	3.95
473.623	3.95
473.825	3.83
474.027	3.92
474.229	3.74
474.431	3.68
474.633	3.64
474.835	3.6
475.037	3.58
475.239	3.59
475.441	3.49
475.643	3.42
475.845	3.31
476.047	3.4
476.249	3.35
476.451	3.29
476.653	3.37
476.855	3.33
477.057	3.24
477.258	3.27
477.46	3.2
477.662	3.19
477.864	3.22
478.066	3.33
478.268	3.38
478.469	3.39
478.671	3.51
478.873	3.45
479.075	3.49
479.276	3.6
479.478	3.62
479.68	3.61
479.882	3.63
480.083	3.57
480.285	3.54
480.487	3.5
480.688	3.54
480.89	3.47
481.091	3.47
481.293	3.43
481.495	3.4
481.696	3.37
481.898	3.35
482.099	3.31
482.301	3.33
482.502	3.31
482.704	3.31
482.905	3.27
483.107	3.25
483.308	3.24
483.51	3.24
483.711	3.22
483.913	3.23
484.114	3.28
484.315	3.29
484.517	3.3
484.718	3.34
484.92	3.33
485.121	3.33
485.322	3.36
485.524	3.37
485.725	3.38
485.926	3.39
486.127	3.35
486.329	3.3
486.53	3.34
486.731	3.3
486.932	3.28
487.134	3.32
487.335	3.36
487.536	3.39
487.737	3.39
487.938	3.39
488.139	3.42
488.341	3.48
488.542	3.53
488.743	3.53
488.944	3.57
489.145	3.6
489.346	3.55
489.547	3.52
489.748	3.48
489.949	3.54
490.15	3.52
490.351	3.52
490.552	3.51
490.753	3.51
490.954	3.52
491.155	3.53
491.356	3.57
491.557	3.63
491.758	3.66
491.959	3.71
492.159	3.73
492.36	3.82
492.561	3.86
492.762	3.94
492.963	4.01
493.164	4.02
493.364	3.95
493.565	3.9
493.766	3.84
493.967	3.78
494.167	3.73
494.368	3.66
494.569	3.63
494.769	3.58
494.97	3.54
495.171	3.54
495.371	3.56
495.572	3.65
495.773	3.71
495.973	3.72
496.174	3.79
496.375	3.87
496.575	3.89
496.776	3.95
496.976	4.04
497.177	4.05
497.377	4.09
497.578	4.15
497.778	4.14
497.979	4.1
498.179	4.17
498.38	4.2
498.58	4.21
498.78	4.25
498.981	4.26
499.181	4.21
499.382	4.19
499.582	4.15
499.782	4.15
499.983	4.12
500.183	4.19
500.383	4.22
500.584	4.3
500.784	4.28
500.984	4.31
501.184	4.32
501.385	4.34
501.585	4.41
501.785	4.5
501.985	4.5
502.185	4.58
502.386	4.65
502.586	4.69
502.786	4.6
502.986	4.69
503.186	4.72
503.386	4.74
503.586	4.82
503.786	4.84
503.987	4.88
504.187	4.99
504.387	5.04
504.587	5.01
504.787	4.98
504.987	5.12
505.187	5.08
505.387	5.15
505.587	5.19
505.786	5.17
505.986	5.16
506.186	5.16
506.386	5.13
506.586	5.1
506.786	5.08
506.986	5.17
507.186	5.15
507.386	5.32
507.585	5.29
507.785	5.31
507.985	5.34
508.185	5.43
508.384	5.48
508.584	5.5
508.784	5.55
508.984	5.65
509.183	5.61
509.383	5.61
509.583	5.62
509.782	5.61
509.982	5.62
510.182	5.66
510.381	5.61
510.581	5.62
510.781	5.65
510.98	5.68
511.18	5.67
511.379	5.69
511.579	5.77
511.778	5.7
511.978	5.78
512.177	5.76
512.377	5.76
512.576	5.89
512.776	5.95
512.975	6.02
513.175	6.11
513.374	6.23
513.573	6.36
513.773	6.39
513.972	6.48
514.172	6.52
514.371	6.69
514.57	6.76
514.77	6.86
514.969	6.91
515.168	6.94
515.367	6.96
515.567	6.91
515.766	6.9
515.965	6.94
516.164	6.95
516.364	6.98
516.563	6.99
516.762	7.06
516.961	6.96
517.16	6.91
517.359	7
517.559	7.03
517.758	7.09
517.957	7.13
518.156	7.13
518.355	7.24
518.554	7.3
518.753	7.21
518.952	7.24
519.151	7.34
519.35	7.46
519.549	7.49
519.748	7.57
519.947	7.67
520.146	7.72
520.345	7.82
520.544	7.85
520.743	7.84
520.942	7.97
521.141	7.98
521.339	8
521.538	7.9
521.737	7.91
521.936	7.92
522.135	7.84
522.333	7.88
522.532	7.93
522.731	7.92
522.93	8.03
523.129	8.09
523.327	8.14
523.526	8.17
523.725	8.28
523.923	8.29
524.122	8.36
524.321	8.36
524.519	8.41
524.718	8.39
524.917	8.45
525.115	8.44
525.314	8.45
525.512	8.48
525.711	8.56
525.909	8.59
526.108	8.63
526.306	8.6
526.505	8.65
526.703	8.63
526.902	8.64
527.1	8.64
527.299	8.66
527.497	8.69
527.696	8.75
527.894	8.76
528.092	8.78
528.291	8.84
528.489	8.92
528.688	8.99
528.886	9.03
529.084	9.13
529.283	9.14
529.481	9.21
529.679	9.28
529.877	9.35
530.076	9.37
530.274	9.45
530.472	9.45
530.67	9.47
530.869	9.47
531.067	9.53
531.265	9.51
531.463	9.61
531.661	9.63
531.859	9.68
532.057	9.67
532.255	9.73
532.454	9.73
532.652	9.8
532.85	9.82
533.048	9.89
533.246	9.96
533.444	10.04
533.642	10.1
533.84	10.16
534.038	10.15
534.236	10.15
534.434	10.16
534.632	10.15
534.83	10.19
535.027	10.16
535.225	10.18
535.423	10.16
535.621	10.22
535.819	10.23
536.017	10.21
536.215	10.3
536.412	10.42
536.61	10.49
536.808	10.56
537.006	10.6
537.203	10.69
537.401	10.72
537.599	10.77
537.797	10.78
537.994	10.81
538.192	10.84
538.39	10.74
538.587	10.64
538.785	10.66
538.983	10.68
539.18	10.64
539.378	10.65
539.575	10.67
539.773	10.68
539.97	10.66
540.168	10.64
540.366	10.65
540.563	10.7
540.761	10.77
540.958	10.78
541.155	10.87
541.353	10.95
541.55	10.98
541.748	11.01
541.945	11.06
542.143	11.06
542.34	11.13
542.537	11.19
542.735	11.29
542.932	11.31
543.129	11.37
543.327	11.33
543.524	11.34
543.721	11.37
543.919	11.38
544.116	11.51
544.313	11.63
544.51	11.67
544.708	11.77
544.905	11.74
545.102	11.75
545.299	11.78
545.496	11.83
545.693	11.86
545.891	11.87
546.088	11.97
546.285	11.97
546.482	11.97
546.679	12.04
546.876	12.01
547.073	12.1
547.27	12.18
547.467	12.24
547.664	12.25
547.861	12.4
548.058	12.47
548.255	12.47
548.452	12.49
548.649	12.52
548.846	12.66
549.043	12.75
549.24	12.78
549.437	12.87
549.633	12.93
549.83	13.1
550.027	13.08
550.224	13.08
550.421	13.17
550.618	13.22
550.814	13.36
551.011	13.3
551.208	13.36
551.405	13.36
551.601	13.43
551.798	13.37
551.995	13.36
552.191	13.37
552.388	13.47
552.585	13.51
552.781	13.52
552.978	13.42
553.175	13.49
553.371	13.55
553.568	13.66
553.764	13.66
553.961	13.84
554.157	13.87
554.354	13.91
554.55	13.94
554.747	13.99
554.943	14.07
555.14	14.28
555.336	14.28
555.533	14.31
555.729	14.28
555.926	14.26
556.122	14.22
556.318	14.38
556.515	14.44
556.711	14.51
556.907	14.64
557.104	14.65
557.3	14.67
557.496	14.7
557.693	14.76
557.889	14.97
558.085	15.08
558.281	15.1
558.478	15.13
558.674	15.15
558.87	15.26
559.066	15.26
559.262	15.34
559.459	15.36
559.655	15.49
559.851	15.43
560.047	15.39
560.243	15.4
560.439	15.59
560.635	15.54
560.831	15.66
561.027	15.62
561.223	15.61
561.419	15.69
561.615	15.75
561.811	15.85
562.007	15.99
562.203	16.06
562.399	16.1
562.595	16.12
562.791	16.1
562.987	16.09
563.183	16.14
563.379	16.24
563.575	16.2
563.771	16.29
563.966	16.32
564.162	16.33
564.358	16.33
564.554	16.35
564.75	16.32
564.945	16.4
565.141	16.35
565.337	16.37
565.533	16.39
565.728	16.51
565.924	16.48
566.12	16.51
566.315	16.58
566.511	16.71
566.707	16.75
566.902	16.92
567.098	17
567.293	17.14
567.489	17.21
567.684	17.22
567.88	17.16
568.076	17.26
568.271	17.24
568.467	17.28
568.662	17.33
568.858	17.4
569.053	17.39
569.248	17.47
569.444	17.71
569.639	17.77
569.835	17.74
570.03	17.82
570.225	17.75
570.421	17.78
570.616	17.8
570.812	17.85
571.007	17.94
571.202	17.92
571.397	18.02
571.593	17.83
571.788	17.93
571.983	18.11
572.178	18.16
572.374	18.31
572.569	18.36
572.764	18.44
572.959	18.45
573.154	18.51
573.35	18.59
573.545	18.6
573.74	18.66
573.935	18.65
574.13	18.7
574.325	18.78
574.52	18.81
574.715	18.9
574.91	18.98
575.105	19
575.3	18.92
575.495	18.87
575.69	18.89
575.885	19
576.08	19.03
576.275	18.97
576.47	19
576.665	19.12
576.86	19.2
577.055	19.18
577.25	19.11
577.444	19.2
577.639	19.45
577.834	19.41
578.029	19.39
578.224	19.45
578.418	19.56
578.613	19.61
578.808	19.59
579.003	19.57
579.197	19.55
579.392	19.8
579.587	19.83
579.781	19.8
579.976	19.94
580.171	20.04
580.365	20.04
580.56	20.21
580.755	20.36
580.949	20.48
581.144	20.42
581.338	20.64
581.533	20.47
581.727	20.61
581.922	20.66
582.116	20.71
582.311	20.76
582.505	20.72
582.7	20.61
582.894	20.72
583.089	20.71
583.283	20.89
583.478	20.9
583.672	21.14
583.866	21.05
584.061	21.18
584.255	21.16
584.449	21.25
584.644	21.47
584.838	21.32
585.032	21.21
585.226	21.24
585.421	21.26
585.615	21.17
585.809	21.12
586.003	21.23
586.198	21.19
586.392	21.15
586.586	21.07
586.78	20.97
586.974	21.08
587.168	20.91
587.363	20.9
587.557	20.94
587.751	21.16
587.945	21.18
588.139	21.2
588.333	21.07
588.527	21.11
588.721	21.12
588.915	21.21
589.109	21.36
589.303	21.4
589.497	21.49
589.691	21.49
589.885	21.45
590.079	21.57
590.273	21.72
590.466	21.8
590.66	21.83
590.854	21.93
591.048	22.03
591.242	21.96
591.436	22.18
591.629	22.32
591.823	22.34
592.017	22.27
592.211	22.09
592.404	22.09
592.598	22.18
592.792	22.25
592.986	22.25
593.179	22.21
593.373	22.35
593.567	22.3
593.76	22.24
593.954	22.19
594.147	22.27
594.341	22.5
594.535	22.49
594.728	22.41
594.922	22.53
595.115	22.57
595.309	22.53
595.502	22.54
595.696	22.55
595.889	22.44
596.083	22.55
596.276	22.48
596.47	22.51
596.663	22.57
596.856	22.64
597.05	22.66
597.243	22.68
597.437	22.78
597.63	22.81
597.823	22.84
598.017	22.88
598.21	22.84
598.403	22.79
598.596	22.72
598.79	22.83
598.983	22.69
599.176	22.59
599.369	22.72
599.563	22.76
599.756	22.82
599.949	22.93
600.142	23.06
600.335	23
600.528	23
600.722	23.04
600.915	22.98
601.108	23.15
601.301	23.1
601.494	22.98
601.687	23.06
601.88	22.97
602.073	22.98
602.266	22.9
602.459	22.99
602.652	23.1
602.845	22.96
603.038	22.94
603.231	22.99
603.424	23.07
603.617	23.11
603.809	23.07
604.002	23.07
604.195	23.01
604.388	23.16
604.581	23.16
604.774	23.28
604.966	23.47
605.159	23.5
605.352	23.49
605.545	23.62
605.737	23.8
605.93	23.9
606.123	23.86
606.316	23.78
606.508	23.75
606.701	23.8
606.894	23.63
607.086	23.56
607.279	23.57
607.471	23.56
607.664	23.44
607.857	23.23
608.049	23.09
608.242	23.14
608.434	23.3
608.627	23.24
608.819	23.31
609.012	23.41
609.204	23.38
609.397	23.36
609.589	23.44
609.782	23.57
609.974	23.71
610.166	23.86
610.359	23.99
610.551	23.99
610.743	24.15
610.936	24.07
611.128	23.92
611.32	23.96
611.513	24.07
611.705	24.05
611.897	24.06
612.09	24.03
612.282	24.16
612.474	24.15
612.666	24.32
612.858	24.36
613.051	24.47
613.243	24.52
613.435	24.72
613.627	24.45
613.819	24.6
614.011	24.4
614.203	24.43
614.395	24.42
614.588	24.5
614.78	24.2
614.972	24.16
615.164	24.13
615.356	24.23
615.548	24.08
615.74	24.36
615.932	24.32
616.124	24.43
616.315	24.43
616.507	24.44
616.699	24.42
616.891	24.78
617.083	24.84
617.275	24.96
617.467	24.91
617.659	24.85
617.85	24.89
618.042	24.93
618.234	24.91
618.426	24.94
618.618	24.86
618.809	24.79
619.001	24.52
619.193	24.43
619.384	24.34
619.576	24.66
619.768	24.75
619.959	24.72
620.151	24.81
620.343	24.9
620.534	24.96
620.726	24.95
620.917	25.05
621.109	25.2
621.301	25.07
621.492	24.98
621.684	24.76
621.875	24.99
622.067	24.77
622.258	24.78
622.45	24.75
622.641	24.72
622.832	24.84
623.024	24.8
623.215	24.96
623.407	25.15
623.598	25.28
623.789	25.38
623.981	25.22
624.172	25.34
624.363	25.09
624.555	25.01
624.746	24.99
624.937	24.77
625.129	24.7
625.32	24.6
625.511	24.64
625.702	24.58
625.893	24.47
626.085	24.56
626.276	24.68
626.467	24.83
626.658	24.98
626.849	25.12
627.04	25.37
627.231	25.46
627.422	25.33
627.614	25.26
627.805	25.36
627.996	25.29
628.187	25.25
628.378	25.21
628.569	25.08
628.76	25.05
628.951	24.9
629.142	24.83
629.332	24.85
629.523	24.96
629.714	25.12
629.905	25.18
630.096	25.27
630.287	25.27
630.478	25.32
630.669	25.48
630.859	25.45
631.05	25.44
631.241	25.33
631.432	25.31
631.623	25.33
631.813	25.26
632.004	25.18
632.195	25.34
632.385	25.34
632.576	25.31
632.767	25.32
632.957	25.26
633.148	25.48
633.339	25.53
633.529	25.55
633.72	25.7
633.91	25.68
634.101	25.62
634.292	25.58
634.482	25.48
634.673	25.35
634.863	25.34
635.054	25.39
635.244	25.17
635.435	25.13
635.625	25.17
635.815	24.91
636.006	24.8
636.196	24.66
636.387	24.79
636.577	24.94
636.767	25.17
636.958	25.12
637.148	25.14
637.338	25.31
637.529	25.57
637.719	25.76
637.909	26
638.099	26.09
638.29	26.34
638.48	26.32
638.67	26.21
638.86	26.27
639.05	26.39
639.241	26.45
639.431	26.42
639.621	26.24
639.811	26.01
640.001	26
640.191	26.14
640.381	26.2
640.571	26.19
640.761	26.47
640.951	26.38
641.141	26.37
641.331	26.44
641.521	26.52
641.711	26.61
641.901	26.6
642.091	26.6
642.281	26.65
642.471	26.7
642.661	26.57
642.851	26.42
643.041	26.29
643.231	26.38
643.42	26.5
643.61	26.18
643.8	26.24
643.99	26.32
644.18	26.41
644.369	26.3
644.559	26.29
644.749	26.37
644.939	26.49
645.128	26.7
645.318	26.65
645.508	26.57
645.697	26.7
645.887	26.79
646.076	26.69
646.266	26.44
646.456	26.33
646.645	26.27
646.835	26.32
647.024	26.23
647.214	26.01
647.403	26.01
647.593	25.93
647.782	25.96
647.972	25.75
648.161	25.9
648.351	26.09
648.54	26.12
648.73	25.95
648.919	25.93
649.108	25.92
649.298	25.96
649.487	25.96
649.677	26.12
649.866	26.3
650.055	26.53
650.244	26.6
650.434	26.69
650.623	26.94
650.812	27.31
651.002	27.31
651.191	27.47
651.38	27.67
651.569	27.63
651.758	27.52
651.947	27.56
652.137	27.35
652.326	27.31
652.515	27.21
652.704	27.16
652.893	26.88
653.082	26.8
653.271	26.64
653.46	26.68
653.649	26.65
653.838	26.57
654.027	26.46
654.216	26.67
654.405	26.71
654.594	26.67
654.783	26.68
654.972	26.97
655.161	27.09
655.35	27.08
655.539	26.72
655.728	26.84
655.916	26.75
656.105	26.82
656.294	26.77
656.483	26.41
656.672	26.3
656.86	26.15
657.049	25.87
657.238	26
657.427	26.01
657.615	26.1
657.804	26.01
657.993	26.17
658.181	26.11
658.37	26.14
658.559	26.36
658.747	26.44
658.936	26.46
659.125	26.88
659.313	26.72
659.502	26.84
659.69	27.01
659.879	27.06
660.067	27.15
660.256	27.3
660.444	27.31
660.633	27.34
660.821	27.5
661.01	27.65
661.198	27.57
661.387	27.78
661.575	27.93
661.763	27.97
661.952	27.96
662.14	27.79
662.328	27.82
662.517	27.79
662.705	27.87
662.893	27.83
663.082	27.82
663.27	27.37
663.458	27.13
663.646	27.01
663.834	27
664.023	26.93
664.211	26.87
664.399	26.94
664.587	26.99
664.775	26.82
664.963	26.67
665.152	26.78
665.34	27.08
665.528	27.19
665.716	27.34
665.904	27.36
666.092	27.56
666.28	27.64
666.468	27.41
666.656	27.21
666.844	27.18
667.032	27.35
667.22	27.04
667.408	26.87
667.596	27.16
667.784	26.99
667.971	26.9
668.159	26.66
668.347	26.95
668.535	26.95
668.723	26.9
668.911	27.14
669.098	27.21
669.286	27.28
669.474	27.5
669.662	27.02
669.849	26.95
670.037	26.87
670.225	27.36
670.413	27.22
670.6	27.22
670.788	27.48
670.976	27.45
671.163	27.66
671.351	27.78
671.538	27.61
671.726	27.72
671.913	27.78
672.101	27.94
672.289	27.56
672.476	27.69
672.664	27.78
672.851	27.54
673.039	27.26
673.226	27.14
673.413	27.28
673.601	27.2
673.788	27.35
673.976	27.57
674.163	27.55
674.35	27.5
674.538	27.12
674.725	27.19
674.912	27.28
675.1	27.3
675.287	27.07
675.474	26.79
675.662	26.81
675.849	26.87
676.036	26.8
676.223	26.62
676.411	26.97
676.598	27.08
676.785	27.37
676.972	27.54
677.159	27.7
677.346	27.97
677.533	28.08
677.721	28.07
677.908	28.07
678.095	27.95
678.282	28.16
678.469	27.84
678.656	27.94
678.843	27.69
679.03	27.51
679.217	27.58
679.404	27.58
679.591	27.58
679.778	27.63
679.964	27.43
680.151	27.42
680.338	27.44
680.525	27.65
680.712	27.63
680.899	27.66
681.086	27.63
681.272	27.64
681.459	27.51
681.646	27.54
681.833	27.57
682.02	28.1
682.206	28.28
682.393	28.31
682.58	28.62
682.766	28.49
682.953	28.48
683.14	28.65
683.326	28.76
683.513	28.81
683.7	28.57
683.886	28.82
684.073	28.44
684.259	28.15
684.446	28.03
684.632	27.76
684.819	28.14
685.005	28.07
685.192	27.99
685.378	28.31
685.565	28.31
685.751	28.32
685.938	28.42
686.124	28.58
686.31	28.72
686.497	28.77
686.683	28.89
686.87	28.73
687.056	28.83
687.242	28.83
687.429	28.61
687.615	28.39
687.801	28.82
687.987	28.4
688.174	28.57
688.36	28.69
688.546	28.74
688.732	28.69
688.918	28.45
689.105	28.16
689.291	28.4
689.477	28.29
689.663	28.46
689.849	28.31
690.035	28.24
690.221	28.1
690.407	28.41
690.593	28.2
690.779	28.02
690.965	28.07
691.151	28.36
691.337	28.21
691.523	28.21
691.709	28.36
691.895	28.32
692.081	28.57
692.267	28.53
692.453	28.11
692.639	28.27
692.825	28.04
693.011	28.35
693.196	28.34
693.382	28.32
693.568	28.28
693.754	28.29
693.94	28.4
694.125	28.63
694.311	28.64
694.497	28.59
694.682	28.53
694.868	28.98
695.054	28.78
695.239	28.8
695.425	28.72
695.611	28.82
695.796	28.58
695.982	28.42
696.168	28.2
696.353	28.13
696.539	28.13
696.724	28.05
696.91	27.9
697.095	28.08
697.281	27.81
697.466	28.01
697.652	28.04
697.837	28.09
698.023	28.12
698.208	28.19
698.393	28.27
698.579	28.23
698.764	28.35
698.949	28.56
699.135	28.55
699.32	29.18
699.505	29.07
699.691	29.01
699.876	29.15
700.061	29.33
700.246	29.24
700.432	29.19
700.617	29.28
700.802	29.28
700.987	28.59
701.172	28.52
701.358	28.29
701.543	28.44
701.728	28.53
701.913	28.15
702.098	28.45
702.283	28.61
702.468	28.75
702.653	29.01
702.838	29.09
703.023	29.7
703.208	29.47
703.393	28.94
703.578	28.69
703.763	28.54
703.948	29.12
704.133	28.33
704.318	28.46
704.503	28.69
704.688	28.54
704.873	28.95
705.057	28.92
705.242	29.14
705.427	29.67
705.612	29.8
705.797	30.01
705.981	30
706.166	30.42
706.351	30.69
706.536	30.35
706.72	30.31
706.905	29.82
707.09	29.78
707.274	29.59
707.459	29.26
707.644	29.24
707.828	29.11
708.013	28.93
708.197	28.86
708.382	28.45
708.567	28.46
708.751	28.36
708.936	28.61
709.12	28.79
709.305	28.9
709.489	28.8
709.673	28.88
709.858	28.99
710.042	29.18
710.227	29.31
710.411	29.12
710.596	29.07
710.78	29.12
710.964	29.09
711.149	28.92
711.333	29.03
711.517	29.12
711.702	28.76
711.886	28.49
712.07	28.32
712.254	28.17
712.438	28.59
712.623	28.57
712.807	28.67
712.991	28.49
713.175	28.54
713.359	28.33
713.544	28.3
713.728	28.55
713.912	28.5
714.096	28.6
714.28	28.69
714.464	28.53
714.648	28.32
714.832	28.05
715.016	28.22
715.2	28.26
715.384	28.18
715.568	28.06
715.752	27.99
715.936	28.11
716.12	28.02
716.304	28.04
716.488	28.07
716.671	28.46
716.855	28.58
717.039	28.78
717.223	28.98
717.407	29.08
717.59	29.16
717.774	29.15
717.958	29.03
718.142	28.94
718.325	28.65
718.509	28.31
718.693	28.08
718.877	28.15
719.06	27.59
719.244	27.1
719.428	27.26
719.611	27.26
719.795	27.74
719.978	27.65
720.162	27.49
720.345	27.68
720.529	28.19
720.713	28.26
720.896	28.39
721.08	28.56
721.263	29.45
721.446	29.63
721.63	29.82
721.813	29.72
721.997	29.89
722.18	29.75
722.364	30.05
722.547	29.8
722.73	29.96
722.914	29.72
723.097	29.46
723.28	28.86
723.464	28.65
723.647	28.39
723.83	28.03
724.013	28.08
724.197	28.54
724.38	28.36
724.563	28.41
724.746	28.29
724.929	28.55
725.112	29.02
725.296	29.01
725.479	29.03
725.662	29.19
725.845	29.34
726.028	29.27
726.211	29.21
726.394	29.02
726.577	28.92
726.76	28.84
726.943	28.51
727.126	28.07
727.309	28
727.492	27.79
727.675	27.8
727.858	27.77
728.041	27.93
728.224	28.24
728.407	28.41
728.589	28.24
728.772	28.24
728.955	28.57
729.138	28.59
729.321	28.68
729.503	29.09
729.686	29.17
729.869	29.1
730.052	29.04
730.234	28.57
730.417	28.38
730.6	28.6
730.782	28.72
730.965	28.6
731.148	28.73
731.33	28.35
731.513	28.2
731.695	28.02
731.878	28.05
732.061	28.13
732.243	27.92
732.426	28.28
732.608	28.22
732.791	28.17
732.973	28.24
733.156	28.54
733.338	28.67
733.52	28.86
733.703	29.25
733.885	29.53
734.068	29.28
734.25	29.73
734.432	29.8
734.615	29.72
734.797	29.79
734.979	29.91
735.162	29.8
735.344	29.91
735.526	29.68
735.708	29.69
735.891	29.08
736.073	29.36
736.255	29.5
736.437	29.28
736.619	29.56
736.802	29.56
736.984	29.4
737.166	29.29
737.348	29.81
737.53	29.56
737.712	29.34
737.894	29.78
738.076	29.74
738.258	29.28
738.44	29.4
738.622	29.61
738.804	29.52
738.986	29.42
739.168	29.28
739.35	28.8
739.532	28.59
739.714	28.49
739.896	28.23
740.078	28.08
740.259	28.54
740.441	28.19
740.623	27.87
740.805	28.35
740.987	28.59
741.168	28.61
741.35	29.06
741.532	29.63
741.714	29.71
741.895	30.29
742.077	30.45
742.259	30.2
742.44	30.84
742.622	30.44
742.804	29.73
742.985	29.81
743.167	30.22
743.348	30.3
743.53	29.77
743.711	29.68
743.893	29.32
744.075	29.58
744.256	29.5
744.438	28.86
744.619	28.99
744.8	29.33
744.982	29.86
745.163	29.82
745.345	28.8
745.526	28.82
745.707	29.06
745.889	29.41
746.07	28.51
746.252	28.49
746.433	28.47
746.614	28.34
746.795	27.94
746.977	27.93
747.158	27.24
747.339	28.51
747.52	29.44
747.702	29.96
747.883	29.35
748.064	30.16
748.245	30.26
748.426	30.72
748.607	30.84
748.788	31.29
748.97	30.06
749.151	30.26
749.332	29.73
749.513	29.42
749.694	29.34
749.875	29.42
750.056	29.41
750.237	29.92
750.418	29.68
750.599	30.18
750.78	30.36
750.96	30.74
751.141	31.08
751.322	31.05
751.503	31.08
751.684	30.69
751.865	30.66
752.046	29.87
752.226	29.26
752.407	29.32
752.588	28.81
752.769	28.63
752.949	29.11
753.13	29.28
753.311	28.88
753.492	28.71
753.672	28.75
753.853	29.01
754.034	29.69
754.214	29.81
754.395	30.53
754.575	31.04
754.756	30.41
754.937	30.14
755.117	30.12
755.298	30.97
755.478	30.97
755.659	31.02
755.839	30.18
756.02	29.91
756.2	29.9
756.381	28.7
756.561	28.86
756.741	30.01
756.922	29.82
757.102	29.75
757.283	29.4
757.463	29.52
757.643	28.93
757.823	30.15
758.004	30.83
758.184	30.81
758.364	30.9
758.545	30.62
758.725	29.98
758.905	30.23
759.085	29.59
759.265	29.23
759.446	29.07
759.626	29.37
759.806	28.63
759.986	28.07
760.166	28.09
760.346	27.41
760.526	27.06
760.706	27.33
760.886	26.97
761.066	27.53
761.246	28.02
761.426	28.06
761.606	27.96
761.786	28.42
761.966	28.93
762.146	29.05
762.326	29.3
762.506	29.86
762.686	29.56
762.866	29.73
763.046	29.64
763.225	29.5
763.405	29.28
763.585	29.58
763.765	28.96
763.945	28.55
764.124	28.57
764.304	28.92
764.484	28.63
764.664	28.62
764.843	28.7
765.023	28.6
765.203	28.44
765.382	28.47
765.562	28.27
765.741	28.88
765.921	29.27
766.101	29.25
766.28	28.94
766.46	28.5
766.639	28.53
766.819	28.09
766.998	28.66
767.178	28.6
767.357	28.69
767.537	28.76
767.716	28.88
767.896	29.13
768.075	29.44
768.254	30.09
768.434	30.35
768.613	30.33
768.792	30.56
768.972	30.13
769.151	30.63
769.33	31.53
769.51	31.28
769.689	30.68
769.868	29.87
770.047	29.94
770.226	29.77
770.406	29.91
770.585	30.59
770.764	31.15
770.943	30.87
771.122	30.6
771.301	29.4
771.48	29.38
771.66	30.4
771.839	30.04
772.018	29.46
772.197	29.26
772.376	29.13
772.555	28.55
772.734	28.23
772.913	28.48
773.092	27.86
773.271	28.58
773.449	29.64
773.628	28.5
773.807	29.17
773.986	28.55
774.165	28.55
774.344	28.28
774.523	27.97
774.701	28.02
774.88	28.72
775.059	28.16
775.238	28.11
775.417	27.14
775.595	28.26
775.774	28.1
775.953	28.68
776.131	28.84
776.31	29.76
776.489	30.24
776.667	29.75
776.846	28.62
777.025	29.13
777.203	28.65
777.382	29.11
777.56	28.22
777.739	27.69
777.917	27.99
778.096	27.6
778.274	26.73
778.453	26.33
778.631	26.96
778.81	27.47
778.988	27.97
779.166	27.52
779.345	27.82
779.523	28.08
779.702	27.99
779.88	27.94
780.058	28.07
780.237	28.29
780.415	28.67
780.593	28.22
780.771	28.66
780.95	28.77
781.128	29.82
781.306	28.9
781.484	29.25
781.662	30.5
781.841	29.74
782.019	29.34
782.197	29.18
782.375	29.23
782.553	30.1
782.731	29.4
782.909	29.56
783.087	29.49
783.265	29.23
783.443	28.47
783.621	28.26
783.799	28.94
783.977	29.72
784.155	30.03
784.333	29.48
784.511	28.96
784.689	29.69
784.867	28.86
785.045	28.52
785.223	28.73
785.4	29.08
785.578	28.98
785.756	29.41
785.934	28.97
786.112	28.8
786.289	29.28
786.467	28.22
786.645	28.32
786.823	28.74
787	28.77
787.178	29.65
787.356	30.09
787.533	30.46
787.711	29.72
787.889	30.41
788.066	30.62
788.244	30.85
788.421	31.77
788.599	31.09
788.776	31.49
788.954	31.33
789.131	30.37
789.309	30.05
789.486	29.62
789.664	29.74
789.841	30.09
790.019	30.65
790.196	30.71
790.373	31.22
790.551	30.98
790.728	30.52
790.906	31.42
791.083	31.19
791.26	30.36
791.437	29.65
791.615	29.86
791.792	29.15
791.969	28.22
792.146	28.43
792.324	27.19
792.501	28.43
792.678	28.17
792.855	28.19
793.032	28.88
793.209	28.92
793.387	29.18
793.564	28.6
793.741	28.37
793.918	29.13
794.095	29.04
794.272	29.71
794.449	29.2
794.626	29.53
794.803	29.58
794.98	29.85
795.157	30.82
795.334	31.25
795.511	32.49
795.688	32.54
795.864	32.82
796.041	31.6
796.218	31.2
796.395	30.18
796.572	30.89
796.749	30.48
796.925	30.51
797.102	30.66
797.279	30.82
797.456	30.12
797.632	31.1
797.809	30.64
797.986	31.17
798.162	31.36
798.339	32.46
798.516	31.59
798.692	31
798.869	30.6
799.046	30.26
799.222	30.3
799.399	30.64
799.575	29.9
799.752	30.05
799.928	30.6
800.105	31.14
800.281	30.2
800.458	29.99
800.634	30.88
800.811	30.99
800.987	30.67
801.163	30.58
801.34	29.48
801.516	29.01
801.692	28.88
801.869	27.77
802.045	28.07
802.221	29.09
802.398	31.12
802.574	31.66
802.75	31.25
802.926	32.26
803.103	32.19
803.279	33.48
803.455	33.43
803.631	34.08
803.807	34.63
803.983	34.4
804.16	34.81
804.336	33.59
804.512	32.42
804.688	32.77
804.864	32.36
805.04	32.43
805.216	32.48
805.392	32.4
805.568	31.51
805.744	31.13
805.92	30.3
806.096	30.04
806.272	29.03
806.448	29.69
806.623	30.14
806.799	29.94
806.975	29.93
807.151	29.63
807.327	30.18
807.503	31.3
807.678	31.04
807.854	31.97
808.03	31.78
808.206	33.83
808.381	33.28
808.557	33.99
808.733	33.44
808.908	31.82
809.084	31.98
809.26	32.24
809.435	31.23
809.611	31.81
809.787	31.32
809.962	32.17
810.138	29.88
810.313	30.02
810.489	28.84
810.664	28.06
810.84	29.05
811.015	28.49
811.191	28.25
811.366	28.39
811.542	28.9
811.717	29.27
811.892	28.36
812.068	30.35
812.243	30.92
812.419	31.13
812.594	31.62
812.769	32.29
812.944	32.07
813.12	31.45
813.295	30.86
813.47	30.79
813.645	30.57
813.821	29.29
813.996	29.45
814.171	27.77
814.346	28.21
814.521	28.42
814.697	28.29
814.872	27.75
815.047	28.75
815.222	28.28
815.397	28.44
815.572	28.62
815.747	29.08
815.922	28.46
816.097	29.98
816.272	28.76
816.447	28.69
816.622	29.3
816.797	28.54
816.972	28.2
817.147	29.6
817.322	30.43
817.496	30.77
817.671	31.8
817.846	31.07
818.021	31.39
818.196	31.91
818.371	32.12
818.545	31.3
818.72	32.16
818.895	32.17
819.069	31.61
819.244	30.83
819.419	29.76
819.594	29.25
819.768	29.52
819.943	29.07
820.117	28.58
820.292	29.01
820.467	29.18
820.641	28.93
820.816	29.13
820.99	29.01
821.165	28.74
821.339	28.82
821.514	28.9
821.688	28.69
821.863	28.65
822.037	28.86
822.212	28.94
822.386	28.72
822.56	28.88
822.735	28.93
822.909	28.99
823.084	29.16
823.258	29.55
823.432	29.31
823.606	29.79
823.781	29.89
823.955	29.99
824.129	29.57
824.303	29.75
824.478	29.77
824.652	29.38
824.826	29.27
825	29.38
825.174	29.02
825.348	29.23
825.523	28.63
825.697	28.35
825.871	28.22
826.045	28.28
826.219	28.81
826.393	28.89
826.567	28.6
826.741	29.02
826.915	28.67
827.089	28.61
827.263	28.64
827.437	28.48
827.611	28.8
827.784	28.67
827.958	28.95
828.132	28.37
828.306	28.41
828.48	29.24
828.654	28.92
828.827	29.65
829.001	29.74
829.175	29.6
829.349	29.93
829.522	29.46
829.696	30.42
829.87	31.33
830.044	31.42
830.217	31.28
830.391	30.03
830.565	30.18
830.738	28.89
830.912	29.04
831.085	30.29
831.259	29.57
831.432	29.86
831.606	29.3
831.779	28.02
831.953	28.72
832.126	28.74
832.3	29.01
832.473	28.55
832.647	28.61
832.82	28.42
832.994	27.64
833.167	28.2
833.34	28.43
833.514	28.14
833.687	27.85
833.86	27.72
834.034	27.57
834.207	27.71
834.38	28.79
834.553	29.63
834.727	29.82
834.9	30.16
835.073	30.58
835.246	30.63
835.419	30.21
835.593	30.89
835.766	30.62
835.939	31.82
836.112	31.97
836.285	31.56
836.458	31.27
836.631	30.4
836.804	30.94
836.977	31.49
837.15	30.75
837.323	31.55
837.496	31.89
837.669	31.51
837.842	30.03
838.015	30.87
838.188	29.29
838.361	28.9
838.533	29.64
838.706	30.04
838.879	29.84
839.052	30.79
839.225	30.01
839.398	30.02
839.57	30.8
839.743	31.35
839.916	30.09
840.088	30.68
840.261	30.61
840.434	31.55
840.607	29.49
840.779	28.53
840.952	28.32
841.124	29.26
841.297	29.71
841.47	29.56
841.642	31.19
841.815	31.48
841.987	32.14
842.16	31.98
842.332	31.33
842.505	32.11
842.677	31.89
842.85	32.33
843.022	30.81
843.194	29.71
843.367	28.32
843.539	24.66
843.712	25.08
843.884	25.03
844.056	26.06
844.229	25.52
844.401	27.5
844.573	28.87
844.745	29.75
844.918	32.91
845.09	32.95
845.262	36.14
845.434	38.04
845.606	38.04
845.779	37.16
845.951	37.6
846.123	36.57
846.295	32.54
846.467	31.8
846.639	30.71
846.811	28.03
846.983	28.28
847.155	26.73
847.327	25.42
847.499	28.28
847.671	30.2
847.843	27.36
848.015	30.06
848.187	33.26
848.359	34.25
848.531	35.49
848.703	39.22
848.875	41.8
849.047	46.04
849.218	47.32
849.39	40.7
849.562	39.34
849.734	41.43
849.905	39.97
850.077	37.24
850.249	36.92
850.421	32.69
850.592	32.46
850.764	32.41
850.936	29.58
851.107	26.03
851.279	30.53
851.451	27.99
851.622	24.31
851.794	27.47
851.965	27.83
852.137	28.84
852.308	32.63
852.48	31.49
852.651	29.62
852.823	28.63
852.994	30.53
853.166	32.56
853.337	34.24
853.509	40.7
853.68	40.06
853.851	40.26
854.023	41.27
854.194	43.32
854.365	42.49
854.537	42.58
854.708	42.43
854.879	46.59
855.05	41.56
855.222	45.17
855.393	44.25
855.564	42.22
855.735	44.18
855.906	41.26
856.078	36.55
856.249	39.41
856.42	39.84
856.591	40.82
856.762	35.61
856.933	40.33
857.104	39.76
857.275	39.63
857.446	40.04
857.617	37.23
857.788	34.11
857.959	32.48
858.13	30.78
858.301	32.26
858.472	31.17
858.643	33.24
858.814	29.34
858.985	27.36
859.155	25.54
859.326	27.74
859.497	32.84
859.668	37.45
859.839	44.28
860.009	43.85
860.18	41.59
860.351	40.7
860.522	36.55
860.692	40.5
860.863	43.09
861.034	46.38
861.204	41.57
861.375	40.15
861.546	36.95
861.716	32.76
861.887	34.61
862.057	31.9
862.228	33.87
862.398	35.69
862.569	38.22
862.739	35.4
862.91	30.8
863.08	35.04
863.251	38.71
863.421	41.02
863.592	41.66
863.762	39.52
863.932	44.59
864.103	44.17
864.273	46.88
864.443	39.26
864.614	38.3
864.784	39.96
864.954	38.56
865.125	37.85
865.295	36.6
865.465	35.01
865.635	34.72
865.805	33.01
865.976	33.59
866.146	30.35
866.316	33.75
866.486	34.26
866.656	33.65
866.826	31.78
866.996	28.43
867.166	27.72
867.336	25.35
867.506	27.79
867.676	26.7
867.846	23.59
868.016	26.81
868.186	26.44
868.356	25.63
868.526	25.38
868.696	27.33
868.866	28.01
869.036	30.17
869.206	34.28
869.376	28.43
869.545	23.89
869.715	22.19
869.885	22.19
870.055	24.06
870.224	28.86
870.394	30.04
870.564	33.99
870.734	34.99
870.903	34.17
871.073	35.86
871.243	39.17
871.412	44.09
871.582	48.22
871.751	46.42
871.921	46.54
872.091	44.44
872.26	46.36
872.43	44.12
872.599	43.15
872.769	41.56
872.938	39.38
873.108	40.13
873.277	38.32
873.446	32.49
873.616	32.86
873.785	30.2
873.955	27.17
874.124	24.68
874.293	27.02
874.463	22.81
874.632	26.11
874.801	27.68
874.971	23.7
875.14	21.68
875.309	23.08
875.478	27.12
875.647	29.27
875.817	31.37
875.986	33.85
876.155	31.65
876.324	33.3
876.493	31.33
876.662	30.11
876.831	31.01
877	30.75
877.17	37.37
877.339	38.4
877.508	38.74
877.677	35.83
877.846	35.43
878.015	37.89
878.184	41.17
878.352	42.33
878.521	38.01
878.69	40.12
878.859	40.85
879.028	38.89
879.197	39.69
879.366	37.54
879.534	38.02
879.703	37.53
879.872	34.68
880.041	30.76
880.21	29.59
880.378	31.36
880.547	29.06
880.716	28.41
880.884	27.04
881.053	24.93
881.222	25.25
881.39	24.91
881.559	24.29
881.727	25.77
881.896	26.54
882.065	26.94
882.233	26.74
882.402	27.59
882.57	27.57
882.739	29.08
882.907	29.62
883.076	30.12
883.244	30.82
883.412	30.72
883.581	30.34
883.749	30.4
883.918	29.53
884.086	30.55
884.254	30.27
884.423	30.37
884.591	29.12
884.759	28.78
884.927	27.92
885.096	26.77
885.264	27.38
885.432	26.42
885.6	27.45
885.769	27.98
885.937	25.02
886.105	24.63
886.273	26.35
886.441	25.35
886.609	24.83
886.777	26.07
886.945	26.4
887.113	26.89
887.281	28.57
887.449	25.08
887.617	25.7
887.785	27.69
887.953	28.24
888.121	26.58
888.289	29.23
888.457	30.32
888.625	27.84
888.793	28.13
888.961	28.65
889.129	27.05
889.296	33.54
889.464	35.42
889.632	36.4
889.8	38.59
889.967	39.36
890.135	39.78
