Data from 2938477_Reflection_1.txt Node
Date: Wed Jun 17 01:25:08 EDT 2015
User: robert
Spectrometer: USB4E03002
Autoset integration time: false
Trigger mode: 4
Integration Time (sec): 1.000000E-1
Scans to average: 10
Electric dark correction enabled: true
Nonlinearity correction enabled: false
Boxcar width: 5
Stray light correction enabled: false
XAxis mode: Wavelengths
Stop averaging: false
Number of Pixels in Spectrum: 3648
>>>>>Begin Spectral Data<<<<<
177.575	15.16
177.794	-53.7
178.014	-40.56
178.233	-84.54
178.452	-23.39
178.672	25.78
178.891	243.64
179.11	-75
179.33	-81.61
179.549	-47.34
179.768	-32.69
179.987	-42.53
180.207	-78.41
180.426	-21.62
180.645	-31.38
180.864	-21.21
181.084	1.45
181.303	4.56
181.522	-26.09
181.741	-34.11
181.96	-34.68
182.179	-73.14
182.398	-78.64
182.618	-94.52
182.837	-2458.85
183.056	48566.67
183.275	220.6
183.494	160.69
183.713	153.99
183.932	107.53
184.151	121.99
184.37	181.82
184.589	147.43
184.808	133.28
185.027	146.53
185.246	189.03
185.465	161.13
185.684	305.69
185.903	-1338.31
186.122	328.92
186.341	239.22
186.56	-314.11
186.779	5509.09
186.998	397.49
187.216	270.86
187.435	351.39
187.654	150.03
187.873	139.62
188.092	204.9
188.311	529.36
188.53	89.47
188.748	201.08
188.967	714.29
189.186	16.38
189.405	115.07
189.623	113.87
189.842	130.88
190.061	71.47
190.28	-19.61
190.498	-60.37
190.717	523.52
190.936	-93.15
191.154	-72.39
191.373	-1.66
191.592	96.82
191.81	575
192.029	230.64
192.248	-48.65
192.466	45.41
192.685	136.24
192.904	128.3
193.122	93.49
193.341	109.42
193.559	188.46
193.778	116.12
193.996	98.76
194.215	103.69
194.433	98.26
194.652	82.72
194.87	81.02
195.089	78.89
195.307	98.22
195.526	108.39
195.744	89.53
195.963	77.38
196.181	82.2
196.399	53.36
196.618	46.1
196.836	40.56
197.055	26.71
197.273	-59.47
197.491	-118.15
197.71	-75.65
197.928	-360.41
198.146	-254.29
198.365	-10252.63
198.583	-1075.07
198.801	168.31
199.019	-269.35
199.238	-221.83
199.456	-59.26
199.674	-45.67
199.892	-38.36
200.111	29.48
200.329	-94.76
200.547	-79.06
200.765	-67.8
200.983	21.1
201.202	-51.82
201.42	-25.27
201.638	342.64
201.856	110.54
202.074	139.23
202.292	92.48
202.51	44.3
202.728	73.13
202.946	103.35
203.165	104.35
203.383	98.93
203.601	68.47
203.819	98.57
204.037	60.97
204.255	113.62
204.473	156.19
204.691	56.47
204.909	51.27
205.127	47.93
205.345	82.67
205.562	116.2
205.78	96.9
205.998	105.33
206.216	183.18
206.434	139.71
206.652	69.7
206.87	87.02
207.088	70.67
207.306	112.77
207.523	103.78
207.741	116.89
207.959	73.52
208.177	123.83
208.395	194.13
208.612	55.53
208.83	1047.17
209.048	-191.77
209.266	-115.93
209.483	-52.56
209.701	-94.85
209.919	-101.73
210.136	-96.45
210.354	2391.8
210.572	-366.02
210.79	290.55
211.007	281.05
211.225	402.62
211.442	294.27
211.66	229.33
211.878	294.19
212.095	435.49
212.313	-63.97
212.53	-109.91
212.748	-18.42
212.966	-92.05
213.183	-47.03
213.401	-457.88
213.618	-215.81
213.836	-132.85
214.053	-214.67
214.271	-364.75
214.488	-101.85
214.705	-124.34
214.923	-127.42
215.14	-246.57
215.358	-211.37
215.575	-185.89
215.793	-70.24
216.01	-66.04
216.227	-186.92
216.445	-189.62
216.662	-75.65
216.879	-82.85
217.097	-112.18
217.314	-9.56
217.531	19.91
217.749	10.11
217.966	13.91
218.183	14.3
218.4	44.14
218.618	13.95
218.835	38.09
219.052	19.58
219.269	20.34
219.487	34.69
219.704	27.62
219.921	25.96
220.138	23.71
220.355	29.8
220.572	28.12
220.79	10.32
221.007	35.55
221.224	46
221.441	50.73
221.658	39.4
221.875	28.29
222.092	26.37
222.309	26.8
222.526	38.28
222.743	38.73
222.96	37.45
223.177	39.89
223.394	34.45
223.611	20.58
223.828	18.69
224.045	21.51
224.262	23.12
224.479	20.28
224.696	16.46
224.913	12.07
225.13	9.86
225.347	8.56
225.564	8.9
225.781	10.17
225.997	10.29
226.214	9.38
226.431	9.17
226.648	8.4
226.865	8.09
227.082	8.37
227.298	7.79
227.515	5.96
227.732	4.75
227.949	3.33
228.165	1.99
228.382	1.84
228.599	0.85
228.816	1.42
229.032	1.96
229.249	1.09
229.466	0.56
229.682	0.63
229.899	1.1
230.116	3.14
230.332	5.61
230.549	7.51
230.765	10.89
230.982	14.09
231.199	15.24
231.415	15.15
231.632	14.54
231.848	15.55
232.065	15.28
232.281	14.74
232.498	13.7
232.714	12.92
232.931	10.7
233.147	8.02
233.364	5.7
233.58	4.49
233.797	2.54
234.013	1.71
234.23	0.85
234.446	1.64
234.662	3.06
234.879	3.01
235.095	2.3
235.312	1.27
235.528	0.91
235.744	1.14
235.961	1.21
236.177	3.44
236.393	4.73
236.61	6.74
236.826	3.82
237.042	5.24
237.258	7.68
237.475	8.68
237.691	10.68
237.907	10.37
238.123	9.28
238.339	7.57
238.556	5.64
238.772	7.93
238.988	6.06
239.204	8.14
239.42	7.81
239.636	6.46
239.853	6.24
240.069	6.15
240.285	6.28
240.501	7.02
240.717	7.98
240.933	7.62
241.149	7.06
241.365	7.72
241.581	7.91
241.797	7.76
242.013	7.67
242.229	8.11
242.445	7.38
242.661	7.18
242.877	6.89
243.093	6.89
243.309	6.89
243.525	7.12
243.741	7.28
243.957	6.52
244.173	6.32
244.388	6.44
244.604	5.79
244.82	6.15
245.036	6.12
245.252	6.37
245.468	6.19
245.683	6.2
245.899	6.15
246.115	5.7
246.331	5.77
246.547	6.14
246.762	6.09
246.978	6.4
247.194	6.71
247.409	6.49
247.625	6.2
247.841	6.02
248.057	5.88
248.272	5.71
248.488	5.58
248.703	5.23
248.919	5.78
249.135	6.49
249.35	5.31
249.566	4.58
249.782	6.01
249.997	5.51
250.213	5.17
250.428	6.22
250.644	5.57
250.859	5.42
251.075	5.82
251.29	4.79
251.506	3.2
251.721	4.14
251.937	4.59
252.152	3.47
252.368	3.9
252.583	4.1
252.798	3.62
253.014	4.95
253.229	5.15
253.445	4.22
253.66	3.08
253.875	5.45
254.091	5.85
254.306	5.35
254.521	6.07
254.737	5.6
254.952	6
255.167	5.64
255.383	5.89
255.598	6.2
255.813	5.9
256.028	6.05
256.244	4.35
256.459	3.64
256.674	3.82
256.889	3.61
257.104	3.95
257.32	4.17
257.535	4.31
257.75	3.93
257.965	4.02
258.18	4.24
258.395	4.43
258.61	4.86
258.826	4.75
259.041	4.89
259.256	5.07
259.471	4.85
259.686	4.53
259.901	4.27
260.116	3.9
260.331	3.64
260.546	3.58
260.761	3.65
260.976	3.22
261.191	3.23
261.406	2.52
261.621	2.77
261.836	3.08
262.05	2.74
262.265	3.54
262.48	3.77
262.695	3.84
262.91	3.42
263.125	2.48
263.34	2.82
263.555	3.44
263.769	3.49
263.984	2.59
264.199	2.87
264.414	2.92
264.629	2.37
264.843	3.32
265.058	3.77
265.273	3.31
265.488	3.75
265.702	3.67
265.917	3.06
266.132	3.5
266.346	4.04
266.561	3.58
266.776	3.98
266.99	4.39
267.205	3.93
267.42	3.29
267.634	4.35
267.849	4.48
268.063	4.71
268.278	4.76
268.492	4.89
268.707	4.13
268.922	3.92
269.136	3.45
269.351	3.64
269.565	4.03
269.78	4.41
269.994	3.53
270.209	3.52
270.423	2.92
270.637	3.12
270.852	2.43
271.066	3.08
271.281	3.41
271.495	3.75
271.709	3.15
271.924	2.9
272.138	2.68
272.353	3.71
272.567	4.05
272.781	4.97
272.996	4.48
273.21	5.38
273.424	4.54
273.638	4.56
273.853	4.17
274.067	4.03
274.281	3.46
274.495	3.32
274.71	2.73
274.924	2.61
275.138	1.89
275.352	2.41
275.566	2.17
275.781	2.45
275.995	2.49
276.209	3.08
276.423	3.29
276.637	3.49
276.851	3.74
277.065	3.88
277.279	3.25
277.493	3.42
277.707	3.96
277.921	3.21
278.135	2.91
278.349	2.84
278.563	2.76
278.777	2.33
278.991	2.42
279.205	1.96
279.419	2.22
279.633	2.76
279.847	2.83
280.061	2.65
280.275	3.53
280.489	3.69
280.703	4.39
280.917	4.46
281.131	4.75
281.344	4.73
281.558	4.96
281.772	5.02
281.986	5.04
282.2	5.28
282.414	5.1
282.627	4.76
282.841	5.08
283.055	4.63
283.269	4.59
283.482	4.94
283.696	4.83
283.91	5.08
284.123	4.73
284.337	4.33
284.551	3.93
284.764	3.85
284.978	3.77
285.192	3.57
285.405	2.99
285.619	2.43
285.833	2.24
286.046	2.46
286.26	2.17
286.473	2.24
286.687	2.64
286.9	3
287.114	2.83
287.327	2.73
287.541	2.81
287.754	3.35
287.968	4.24
288.181	4.32
288.395	4.32
288.608	4.45
288.822	4.88
289.035	4.69
289.248	4.57
289.462	4.45
289.675	4.26
289.889	4.18
290.102	3.85
290.315	3.45
290.529	3.07
290.742	2.96
290.955	3.19
291.169	2.84
291.382	2.97
291.595	2.7
291.808	3.2
292.022	3.43
292.235	3.49
292.448	4.26
292.661	3.86
292.875	4.39
293.088	4.8
293.301	4.51
293.514	4.3
293.727	4.35
293.94	4.85
294.153	5.27
294.367	5.22
294.58	5.58
294.793	5.35
295.006	5.36
295.219	5.45
295.432	5.28
295.645	5.44
295.858	5.4
296.071	5.32
296.284	5.1
296.497	4.79
296.71	4.87
296.923	4.74
297.136	4.4
297.349	4.56
297.562	4.28
297.775	3.9
297.988	3.8
298.201	3.85
298.414	3.94
298.626	4.24
298.839	4.01
299.052	4.04
299.265	4.08
299.478	4.63
299.691	4.75
299.903	4.67
300.116	4.77
300.329	4.98
300.542	5.8
300.755	5.44
300.967	5.13
301.18	5.25
301.393	5.25
301.605	5.24
301.818	4.95
302.031	5
302.243	4.3
302.456	4.89
302.669	4.75
302.881	3.65
303.094	4.03
303.307	3.97
303.519	4.04
303.732	4.21
303.944	4.06
304.157	4.07
304.37	3.84
304.582	4.89
304.795	4.62
305.007	4.57
305.22	5.1
305.432	5
305.645	5.05
305.857	5.28
306.069	5.25
306.282	5.46
306.494	5.64
306.707	6.07
306.919	5.66
307.132	5.45
307.344	5.07
307.556	4.83
307.769	4.57
307.981	4.5
308.193	4.56
308.406	4.64
308.618	4.39
308.83	3.98
309.043	3.75
309.255	3.95
309.467	4.19
309.679	4.57
309.892	4.83
310.104	4.83
310.316	5.07
310.528	4.6
310.74	4.58
310.953	4.36
311.165	4.74
311.377	4.66
311.589	4.68
311.801	4.82
312.013	4.9
312.225	5.23
312.437	5.29
312.649	4.74
312.862	5.29
313.074	5.19
313.286	5.54
313.498	5.58
313.71	5.82
313.922	6.12
314.134	5.64
314.346	5.7
314.558	5.42
314.77	5.82
314.982	6.28
315.193	6.34
315.405	6.39
315.617	6.38
315.829	6.04
316.041	5.78
316.253	5.46
316.465	5.14
316.677	4.77
316.888	4.5
317.1	4.44
317.312	4.57
317.524	3.94
317.736	4.05
317.947	4.26
318.159	4.68
318.371	4.89
318.583	5.19
318.794	5.59
319.006	5.86
319.218	5.56
319.43	5.42
319.641	5.36
319.853	5.41
320.064	5.59
320.276	5.36
320.488	5.59
320.699	5.72
320.911	5.35
321.123	5.69
321.334	5.49
321.546	5.8
321.757	5.83
321.969	5.51
322.18	5.99
322.392	6.16
322.603	6.04
322.815	5.55
323.026	5.71
323.238	5.95
323.449	6.05
323.661	6.18
323.872	5.9
324.083	5.73
324.295	6.06
324.506	5.45
324.718	4.55
324.929	4.76
325.14	4.73
325.352	4.43
325.563	4.5
325.774	4.33
325.986	4.38
326.197	4.44
326.408	4.69
326.62	4.79
326.831	5.06
327.042	5.69
327.253	5.44
327.464	5.58
327.676	5.79
327.887	5.6
328.098	5.95
328.309	6.06
328.52	6.6
328.732	6.5
328.943	6.28
329.154	5.88
329.365	6
329.576	6.48
329.787	6.42
329.998	6.61
330.209	6.95
330.42	6.65
330.631	6.39
330.842	6.27
331.053	6.76
331.264	6.85
331.475	7.45
331.686	7.63
331.897	6.96
332.108	7.49
332.319	7.66
332.53	7.41
332.741	7.32
332.952	7.23
333.163	6.88
333.374	6.61
333.585	6.71
333.795	6.63
334.006	6.16
334.217	6.58
334.428	6.15
334.639	5.89
334.849	5.9
335.06	6
335.271	6.25
335.482	6.28
335.692	5.78
335.903	5.36
336.114	5.39
336.325	5.53
336.535	5.54
336.746	5.6
336.957	5.24
337.167	5.08
337.378	4.99
337.589	4.86
337.799	4.93
338.01	5.42
338.22	5.56
338.431	5.44
338.642	5.36
338.852	5.23
339.063	5.44
339.273	5.76
339.484	6.05
339.694	6.01
339.905	5.64
340.115	5.78
340.326	5.77
340.536	5.79
340.746	5.86
340.957	5.75
341.167	5.75
341.378	5.46
341.588	5.37
341.799	5.16
342.009	4.95
342.219	5.32
342.43	5.34
342.64	4.9
342.85	5
343.061	4.81
343.271	4.77
343.481	4.82
343.691	4.74
343.902	4.63
344.112	4.44
344.322	4.49
344.532	4.34
344.743	4.14
344.953	4.25
345.163	3.96
345.373	4.1
345.583	4.02
345.793	3.82
346.004	4.22
346.214	4.33
346.424	4.61
346.634	4.46
346.844	4.64
347.054	4.89
347.264	5.21
347.474	5.25
347.684	5.48
347.894	5.96
348.104	6.41
348.314	5.97
348.524	5.31
348.734	5.07
348.944	5.68
349.154	5.82
349.364	5.84
349.574	5.88
349.784	6.13
349.994	6.16
350.204	5.91
350.413	5.85
350.623	5.87
350.833	6.53
351.043	6.35
351.253	5.99
351.463	6.03
351.672	5.69
351.882	5.57
352.092	5.58
352.302	5.5
352.511	5.24
352.721	4.91
352.931	4.91
353.141	4.46
353.35	4.68
353.56	4.31
353.77	3.98
353.979	3.99
354.189	3.86
354.399	3.87
354.608	3.56
354.818	3.62
355.027	3.78
355.237	3.95
355.447	4.29
355.656	4.5
355.866	4.85
356.075	4.85
356.285	4.78
356.494	4.91
356.704	4.71
356.913	4.85
357.123	4.95
357.332	5.05
357.542	4.86
357.751	4.64
357.96	4.25
358.17	4.15
358.379	4.12
358.589	4.49
358.798	4.46
359.007	4.49
359.217	4.47
359.426	4.3
359.635	4.29
359.845	4.28
360.054	4.39
360.263	4.52
360.472	4.48
360.682	4.5
360.891	4.34
361.1	4.39
361.309	4.46
361.519	4.68
361.728	4.94
361.937	4.96
362.146	5.24
362.355	5.4
362.564	5.61
362.774	5.56
362.983	5.63
363.192	5.42
363.401	5.44
363.61	5.62
363.819	5.26
364.028	4.99
364.237	4.84
364.446	4.43
364.655	4.28
364.864	4.51
365.073	4.59
365.282	4.52
365.491	4.88
365.7	4.51
365.909	4.44
366.118	4.65
366.327	4.67
366.536	4.72
366.745	5.03
366.954	5.18
367.162	4.46
367.371	4.87
367.58	5.11
367.789	5.15
367.998	5.56
368.207	5.53
368.415	5.18
368.624	5.22
368.833	5.45
369.042	5.34
369.25	5.2
369.459	5.81
369.668	5.4
369.877	5.27
370.085	5.08
370.294	4.79
370.503	4.62
370.711	4.84
370.92	4.72
371.129	4.7
371.337	4.63
371.546	4.79
371.754	4.64
371.963	4.74
372.171	4.76
372.38	4.43
372.589	4.54
372.797	4.65
373.006	4.61
373.214	4.6
373.423	4.31
373.631	4.44
373.84	4.1
374.048	4.13
374.256	4.08
374.465	4.11
374.673	4.3
374.882	4.28
375.09	3.91
375.298	4.09
375.507	4.32
375.715	4.39
375.923	4.19
376.132	4.39
376.34	4.3
376.548	4.27
376.757	4.1
376.965	4.26
377.173	4.31
377.381	4.65
377.59	4.4
377.798	4.27
378.006	4.2
378.214	4.41
378.423	4.33
378.631	4.42
378.839	4.54
379.047	4.6
379.255	4.39
379.463	4.35
379.671	4.52
379.879	4.69
380.088	4.75
380.296	4.85
380.504	4.56
380.712	4.39
380.92	4.24
381.128	3.85
381.336	3.94
381.544	3.85
381.752	3.79
381.96	3.41
382.168	3.33
382.376	3.33
382.584	3.46
382.791	3.67
382.999	3.91
383.207	3.98
383.415	4.22
383.623	4.12
383.831	4.43
384.039	4.45
384.247	4.38
384.454	4.51
384.662	4.7
384.87	4.53
385.078	4.52
385.285	4.4
385.493	4.25
385.701	4.33
385.909	4.35
386.116	4.14
386.324	4.36
386.532	4.57
386.739	4.35
386.947	4.32
387.155	4.24
387.362	4.47
387.57	4.25
387.778	4.3
387.985	4.05
388.193	3.88
388.4	3.8
388.608	3.6
388.816	3.51
389.023	3.58
389.231	3.64
389.438	3.73
389.646	3.44
389.853	3.78
390.061	3.56
390.268	3.74
390.475	3.93
390.683	3.92
390.89	3.95
391.098	4.14
391.305	4.24
391.512	4.14
391.72	4.18
391.927	4.3
392.135	4.19
392.342	4.24
392.549	4.09
392.756	3.88
392.964	4.08
393.171	4.01
393.378	3.95
393.586	3.81
393.793	3.74
394	3.53
394.207	3.37
394.414	3.44
394.622	3.6
394.829	3.57
395.036	3.81
395.243	3.79
395.45	3.9
395.657	3.96
395.864	4.03
396.072	4.04
396.279	4.28
396.486	4.22
396.693	4.2
396.9	4.13
397.107	4.33
397.314	4.22
397.521	4.19
397.728	4.26
397.935	4.26
398.142	4.21
398.349	4.2
398.556	4
398.763	4.12
398.97	3.93
399.177	4.03
399.383	4.03
399.59	3.98
399.797	3.97
400.004	3.74
400.211	3.7
400.418	3.8
400.625	3.66
400.831	3.59
401.038	3.61
401.245	3.69
401.452	3.53
401.658	3.5
401.865	3.58
402.072	3.57
402.279	3.65
402.485	3.73
402.692	3.63
402.899	3.7
403.105	3.87
403.312	3.82
403.519	3.82
403.725	3.8
403.932	3.89
404.138	3.8
404.345	3.88
404.552	3.77
404.758	3.58
404.965	3.6
405.171	3.72
405.378	3.54
405.584	3.53
405.791	3.57
405.997	3.69
406.204	3.56
406.41	3.44
406.617	3.21
406.823	3.21
407.029	3.32
407.236	3.38
407.442	3.19
407.649	3.4
407.855	3.38
408.061	3.43
408.268	3.34
408.474	3.29
408.68	3.27
408.887	3.26
409.093	3.3
409.299	3.23
409.505	3.1
409.712	3.08
409.918	3.11
410.124	3.06
410.33	3.02
410.537	3.11
410.743	3.15
410.949	3.17
411.155	3.28
411.361	3.3
411.567	3.2
411.773	3.37
411.98	3.39
412.186	3.19
412.392	3.3
412.598	3.05
412.804	3.11
413.01	3.18
413.216	3.3
413.422	3.47
413.628	3.44
413.834	3.49
414.04	3.39
414.246	3.6
414.452	3.62
414.658	3.57
414.864	3.79
415.07	3.73
415.275	3.55
415.481	3.54
415.687	3.44
415.893	3.45
416.099	3.45
416.305	3.49
416.511	3.48
416.716	3.59
416.922	3.66
417.128	3.66
417.334	3.64
417.539	3.69
417.745	3.66
417.951	3.63
418.157	3.66
418.362	3.67
418.568	3.64
418.774	3.57
418.979	3.5
419.185	3.45
419.391	3.4
419.596	3.36
419.802	3.39
420.008	3.45
420.213	4.11
420.419	4.11
420.624	4.08
420.83	4.05
421.035	4.12
421.241	4.19
421.446	4.2
421.652	4.18
421.857	4.23
422.063	4.26
422.268	4.3
422.474	3.72
422.679	3.72
422.885	3.84
423.09	3.87
423.295	3.78
423.501	3.7
423.706	3.75
423.911	3.77
424.117	3.79
424.322	3.77
424.527	3.68
424.733	3.62
424.938	3.63
425.143	3.6
425.349	3.55
425.554	3.48
425.759	3.56
425.964	3.59
426.169	3.66
426.375	3.65
426.58	3.58
426.785	3.65
426.99	3.63
427.195	3.54
427.4	3.41
427.605	3.51
427.811	3.64
428.016	3.56
428.221	3.55
428.426	3.46
428.631	3.52
428.836	3.65
429.041	3.61
429.246	3.6
429.451	3.64
429.656	3.69
429.861	3.7
430.066	3.65
430.271	3.74
430.476	3.65
430.681	3.68
430.886	3.59
431.09	3.57
431.295	3.62
431.5	3.75
431.705	3.79
431.91	3.75
432.115	3.73
432.32	3.7
432.524	3.69
432.729	3.64
432.934	3.61
433.139	3.62
433.343	3.64
433.548	3.63
433.753	3.48
433.958	3.41
434.162	3.45
434.367	3.55
434.572	3.69
434.776	3.63
434.981	3.72
435.186	3.64
435.39	3.61
435.595	3.55
435.799	3.5
436.004	3.62
436.209	3.69
436.413	3.64
436.618	3.59
436.822	3.63
437.027	3.67
437.231	3.58
437.436	3.61
437.64	3.64
437.845	3.56
438.049	3.64
438.253	3.5
438.458	3.52
438.662	3.48
438.867	3.46
439.071	3.47
439.275	3.49
439.48	3.56
439.684	3.6
439.888	3.56
440.093	3.58
440.297	3.58
440.501	3.73
440.706	3.77
440.91	3.8
441.114	3.81
441.318	3.74
441.523	3.72
441.727	3.76
441.931	3.72
442.135	3.8
442.339	3.84
442.543	3.77
442.748	3.67
442.952	3.67
443.156	3.7
443.36	3.72
443.564	3.76
443.768	3.76
443.972	3.78
444.176	3.92
444.38	3.89
444.584	3.9
444.788	3.88
444.992	3.9
445.196	3.91
445.4	3.91
445.604	3.87
445.808	3.87
446.012	3.92
446.216	3.86
446.42	3.8
446.624	3.79
446.828	3.85
447.032	3.81
447.235	3.7
447.439	3.59
447.643	3.63
447.847	3.65
448.051	3.6
448.254	3.47
448.458	3.54
448.662	3.51
448.866	3.53
449.069	3.47
449.273	3.6
449.477	3.78
449.681	3.8
449.884	3.57
450.088	3.56
450.292	3.54
450.495	3.58
450.699	3.56
450.902	3.5
451.106	3.52
451.31	3.48
451.513	3.41
451.717	3.39
451.92	3.41
452.124	3.5
452.327	3.57
452.531	3.54
452.734	3.61
452.938	3.59
453.141	3.61
453.345	3.69
453.548	3.82
453.752	3.96
453.955	4.03
454.158	3.93
454.362	3.96
454.565	3.78
454.769	3.74
454.972	3.74
455.175	3.81
455.379	3.8
455.582	3.74
455.785	3.7
455.988	3.56
456.192	3.45
456.395	3.63
456.598	3.6
456.801	3.74
457.005	3.8
457.208	3.72
457.411	3.68
457.614	3.71
457.817	3.65
458.021	3.63
458.224	3.68
458.427	3.66
458.63	3.59
458.833	3.64
459.036	3.65
459.239	3.65
459.442	3.69
459.645	3.72
459.848	3.75
460.051	3.78
460.254	3.75
460.457	3.71
460.66	3.81
460.863	3.83
461.066	3.75
461.269	3.71
461.472	3.71
461.675	3.74
461.878	3.68
462.081	3.65
462.284	3.68
462.486	3.62
462.689	3.6
462.892	3.59
463.095	3.5
463.298	3.68
463.5	3.68
463.703	3.61
463.906	3.52
464.109	3.45
464.311	3.5
464.514	3.6
464.717	3.68
464.92	3.72
465.122	3.7
465.325	3.76
465.528	3.75
465.73	3.77
465.933	3.75
466.135	3.87
466.338	3.98
466.541	4.02
466.743	3.91
466.946	3.88
467.148	3.82
467.351	3.85
467.553	3.85
467.756	3.81
467.958	3.89
468.161	4.02
468.363	3.91
468.566	3.87
468.768	3.73
468.971	3.76
469.173	3.83
469.375	3.86
469.578	3.85
469.78	3.86
469.983	3.82
470.185	3.75
470.387	3.71
470.59	3.7
470.792	3.75
470.994	3.76
471.196	3.78
471.399	3.73
471.601	3.82
471.803	3.71
472.005	3.77
472.208	3.91
472.41	3.85
472.612	4
472.814	4
473.016	3.99
473.218	4.07
473.421	4.09
473.623	4.01
473.825	3.99
474.027	4.05
474.229	4.01
474.431	3.94
474.633	3.92
474.835	3.7
475.037	3.78
475.239	3.68
475.441	3.59
475.643	3.54
475.845	3.65
476.047	3.7
476.249	3.74
476.451	3.73
476.653	3.66
476.855	3.77
477.057	3.78
477.258	3.84
477.46	3.88
477.662	3.9
477.864	3.81
478.066	3.82
478.268	3.72
478.469	3.76
478.671	3.8
478.873	3.88
479.075	3.8
479.276	3.84
479.478	3.75
479.68	3.73
479.882	3.73
480.083	3.81
480.285	3.78
480.487	3.82
480.688	3.8
480.89	3.78
481.091	3.79
481.293	3.83
481.495	3.82
481.696	3.85
481.898	3.84
482.099	3.88
482.301	3.88
482.502	3.87
482.704	3.85
482.905	3.84
483.107	3.82
483.308	3.77
483.51	3.74
483.711	3.75
483.913	3.76
484.114	3.74
484.315	3.71
484.517	3.68
484.718	3.66
484.92	3.7
485.121	3.71
485.322	3.74
485.524	3.82
485.725	3.85
485.926	3.82
486.127	3.83
486.329	3.87
486.53	3.85
486.731	3.85
486.932	3.89
487.134	3.85
487.335	3.85
487.536	3.84
487.737	3.79
487.938	3.77
488.139	3.82
488.341	3.81
488.542	3.81
488.743	3.87
488.944	3.99
489.145	3.97
489.346	4.06
489.547	4.06
489.748	4.08
489.949	4.12
490.15	4.14
490.351	4.11
490.552	4.06
490.753	4.02
490.954	3.98
491.155	3.91
491.356	3.95
491.557	3.91
491.758	3.97
491.959	3.94
492.159	3.93
492.36	3.89
492.561	3.91
492.762	3.96
492.963	3.97
493.164	4.02
493.364	3.99
493.565	3.87
493.766	3.86
493.967	3.71
494.167	3.67
494.368	3.64
494.569	3.71
494.769	3.69
494.97	3.68
495.171	3.75
495.371	3.71
495.572	3.76
495.773	3.85
495.973	3.84
496.174	3.91
496.375	3.99
496.575	4
496.776	4.01
496.976	4.03
497.177	4.05
497.377	4.05
497.578	4.08
497.778	4.15
497.979	4.14
498.179	4.16
498.38	4.22
498.58	4.21
498.78	4.3
498.981	4.28
499.181	4.34
499.382	4.33
499.582	4.26
499.782	4.25
499.983	4.2
500.183	4.19
500.383	4.23
500.584	4.23
500.784	4.21
500.984	4.16
501.184	4.18
501.385	4.16
501.585	4.1
501.785	4.23
501.985	4.25
502.185	4.28
502.386	4.33
502.586	4.34
502.786	4.28
502.986	4.35
503.186	4.38
503.386	4.34
503.586	4.32
503.786	4.37
503.987	4.29
504.187	4.32
504.387	4.31
504.587	4.25
504.787	4.24
504.987	4.26
505.187	4.3
505.387	4.33
505.587	4.41
505.786	4.45
505.986	4.54
506.186	4.68
506.386	4.7
506.586	4.7
506.786	4.8
506.986	4.81
507.186	4.85
507.386	4.82
507.585	4.8
507.785	4.79
507.985	4.81
508.185	4.81
508.384	4.81
508.584	4.81
508.784	4.79
508.984	4.79
509.183	4.84
509.383	4.9
509.583	4.94
509.782	4.99
509.982	5.06
510.182	5.16
510.381	5.19
510.581	5.16
510.781	5.17
510.98	5.19
511.18	5.15
511.379	5.12
511.579	5.11
511.778	5.03
511.978	4.97
512.177	4.87
512.377	4.76
512.576	4.74
512.776	4.71
512.975	4.69
513.175	4.72
513.374	4.81
513.573	4.88
513.773	4.85
513.972	5
514.172	5.04
514.371	5.13
514.57	5.17
514.77	5.2
514.969	5.24
515.168	5.3
515.367	5.3
515.567	5.31
515.766	5.32
515.965	5.4
516.164	5.42
516.364	5.44
516.563	5.51
516.762	5.48
516.961	5.45
517.16	5.56
517.359	5.59
517.559	5.62
517.758	5.59
517.957	5.59
518.156	5.58
518.355	5.56
518.554	5.59
518.753	5.54
518.952	5.61
519.151	5.64
519.35	5.56
519.549	5.61
519.748	5.71
519.947	5.74
520.146	5.72
520.345	5.67
520.544	5.66
520.743	5.64
520.942	5.69
521.141	5.68
521.339	5.75
521.538	5.77
521.737	5.74
521.936	5.64
522.135	5.71
522.333	5.71
522.532	5.78
522.731	5.91
522.93	6.01
523.129	6.02
523.327	6.06
523.526	6.12
523.725	6.18
523.923	6.16
524.122	6.21
524.321	6.13
524.519	6.14
524.718	6.19
524.917	6.1
525.115	6.08
525.314	6.11
525.512	6.11
525.711	6.07
525.909	6.12
526.108	6.2
526.306	6.22
526.505	6.33
526.703	6.37
526.902	6.35
527.1	6.39
527.299	6.39
527.497	6.39
527.696	6.39
527.894	6.39
528.092	6.35
528.291	6.37
528.489	6.37
528.688	6.35
528.886	6.37
529.084	6.41
529.283	6.44
529.481	6.46
529.679	6.51
529.877	6.55
530.076	6.61
530.274	6.68
530.472	6.7
530.67	6.76
530.869	6.76
531.067	6.77
531.265	6.78
531.463	6.8
531.661	6.85
531.859	6.87
532.057	6.89
532.255	6.93
532.454	6.93
532.652	6.88
532.85	6.86
533.048	6.87
533.246	6.9
533.444	6.91
533.642	6.95
533.84	6.98
534.038	7
534.236	7.06
534.434	7.11
534.632	7.18
534.83	7.31
535.027	7.36
535.225	7.4
535.423	7.44
535.621	7.47
535.819	7.42
536.017	7.42
536.215	7.41
536.412	7.4
536.61	7.47
536.808	7.48
537.006	7.46
537.203	7.5
537.401	7.55
537.599	7.56
537.797	7.61
537.994	7.72
538.192	7.8
538.39	7.89
538.587	7.95
538.785	7.91
538.983	7.95
539.18	8.03
539.378	8.08
539.575	8.07
539.773	8.11
539.97	8.11
540.168	8.1
540.366	8.09
540.563	8.08
540.761	8.08
540.958	8.14
541.155	8.13
541.353	8.13
541.55	8.14
541.748	8.21
541.945	8.21
542.143	8.24
542.34	8.3
542.537	8.38
542.735	8.48
542.932	8.54
543.129	8.62
543.327	8.74
543.524	8.8
543.721	8.84
543.919	8.9
544.116	8.95
544.313	9
544.51	9.09
544.708	9.13
544.905	9.13
545.102	9.18
545.299	9.14
545.496	9.06
545.693	9.06
545.891	9.05
546.088	9.11
546.285	9.12
546.482	9.17
546.679	9.18
546.876	9.17
547.073	9.2
547.27	9.26
547.467	9.29
547.664	9.31
547.861	9.46
548.058	9.55
548.255	9.55
548.452	9.69
548.649	9.74
548.846	9.81
549.043	9.97
549.24	10.07
549.437	10.2
549.633	10.24
549.83	10.38
550.027	10.39
550.224	10.44
550.421	10.48
550.618	10.49
550.814	10.62
551.011	10.64
551.208	10.69
551.405	10.72
551.601	10.77
551.798	10.84
551.995	10.89
552.191	10.93
552.388	11.09
552.585	11.07
552.781	11.11
552.978	11.11
553.175	11.2
553.371	11.17
553.568	11.2
553.764	11.2
553.961	11.3
554.157	11.38
554.354	11.49
554.55	11.38
554.747	11.51
554.943	11.57
555.14	11.58
555.336	11.62
555.533	11.69
555.729	11.8
555.926	11.7
556.122	11.65
556.318	11.69
556.515	11.66
556.711	11.79
556.907	11.88
557.104	11.94
557.3	12.03
557.496	12.05
557.693	12.13
557.889	12.14
558.085	12.27
558.281	12.47
558.478	12.47
558.674	12.6
558.87	12.74
559.066	12.84
559.262	12.92
559.459	13.05
559.655	13.21
559.851	13.24
560.047	13.31
560.243	13.43
560.439	13.39
560.635	13.5
560.831	13.4
561.027	13.36
561.223	13.38
561.419	13.51
561.615	13.59
561.811	13.58
562.007	13.64
562.203	13.76
562.399	13.82
562.595	13.88
562.791	13.94
562.987	14.08
563.183	14.2
563.379	14.27
563.575	14.25
563.771	14.27
563.966	14.35
564.162	14.5
564.358	14.53
564.554	14.63
564.75	14.85
564.945	14.95
565.141	14.95
565.337	15.07
565.533	15.14
565.728	15.18
565.924	15.22
566.12	15.29
566.315	15.3
566.511	15.36
566.707	15.46
566.902	15.35
567.098	15.42
567.293	15.6
567.489	15.62
567.684	15.7
567.88	15.79
568.076	15.85
568.271	15.99
568.467	16
568.662	16.12
568.858	16.26
569.053	16.36
569.248	16.39
569.444	16.44
569.639	16.54
569.835	16.6
570.03	16.65
570.225	16.82
570.421	16.83
570.616	17.03
570.812	17.11
571.007	17.13
571.202	17.21
571.397	17.23
571.593	17.3
571.788	17.31
571.983	17.32
572.178	17.44
572.374	17.46
572.569	17.55
572.764	17.62
572.959	17.56
573.154	17.55
573.35	17.67
573.545	17.83
573.74	17.85
573.935	17.95
574.13	18.03
574.325	17.97
574.52	18.04
574.715	18.07
574.91	18.05
575.105	18.15
575.3	18.23
575.495	18.12
575.69	18.09
575.885	18.23
576.08	18.36
576.275	18.52
576.47	18.76
576.665	18.76
576.86	18.76
577.055	18.79
577.25	18.92
577.444	19.02
577.639	19.12
577.834	19.15
578.029	19.17
578.224	19.09
578.418	19.04
578.613	18.96
578.808	19
579.003	19.06
579.197	19.22
579.392	19.15
579.587	19.07
579.781	19.16
579.976	19.33
580.171	19.41
580.365	19.36
580.56	19.55
580.755	19.54
580.949	19.66
581.144	19.62
581.338	19.55
581.533	19.72
581.727	19.92
581.922	19.9
582.116	19.84
582.311	19.82
582.505	19.92
582.7	19.86
582.894	20.13
583.089	20.15
583.283	20.15
583.478	20.15
583.672	20.22
583.866	20.18
584.061	20.36
584.255	20.36
584.449	20.52
584.644	20.47
584.838	20.49
585.032	20.5
585.226	20.63
585.421	20.8
585.615	21.06
585.809	21.11
586.003	21.06
586.198	21.08
586.392	21.08
586.586	21.05
586.78	21.41
586.974	21.34
587.168	21.29
587.363	21.38
587.557	21.42
587.751	21.41
587.945	21.32
588.139	21.43
588.333	21.6
588.527	21.84
588.721	21.92
588.915	21.94
589.109	21.97
589.303	22.11
589.497	22.09
589.691	22.12
589.885	22.16
590.079	22.2
590.273	22.38
590.466	22.35
590.66	22.41
590.854	22.43
591.048	22.34
591.242	22.54
591.436	22.45
591.629	22.45
591.823	22.67
592.017	22.56
592.211	22.59
592.404	22.55
592.598	22.66
592.792	22.65
592.986	22.73
593.179	22.79
593.373	22.84
593.567	22.91
593.76	23.07
593.954	23.03
594.147	23.25
594.341	23.39
594.535	23.47
594.728	23.42
594.922	23.46
595.115	23.41
595.309	23.47
595.502	23.4
595.696	23.39
595.889	23.41
596.083	23.38
596.276	23.25
596.47	23.31
596.663	23.25
596.856	23.17
597.05	23.2
597.243	23.24
597.437	23.25
597.63	23.3
597.823	23.33
598.017	23.22
598.21	23.24
598.403	23.46
598.596	23.46
598.79	23.59
598.983	23.75
599.176	23.6
599.369	23.52
599.563	23.6
599.756	23.72
599.949	23.87
600.142	23.79
600.335	23.97
600.528	23.96
600.722	23.99
600.915	23.99
601.108	24.12
601.301	24.23
601.494	24.43
601.687	24.39
601.88	24.55
602.073	24.58
602.266	24.64
602.459	24.61
602.652	24.57
602.845	24.6
603.038	24.45
603.231	24.51
603.424	24.61
603.617	24.57
603.809	24.5
604.002	24.4
604.195	24.39
604.388	24.54
604.581	24.6
604.774	24.71
604.966	24.66
605.159	24.92
605.352	24.88
605.545	24.91
605.737	24.99
605.93	25.17
606.123	25.34
606.316	25.43
606.508	25.36
606.701	25.42
606.894	25.46
607.086	25.53
607.279	25.37
607.471	25.36
607.664	25.26
607.857	25.36
608.049	25.36
608.242	25.39
608.434	25.32
608.627	25.44
608.819	25.36
609.012	25.23
609.204	25.16
609.397	25.3
609.589	25.39
609.782	25.59
609.974	25.62
610.166	25.64
610.359	25.57
610.551	25.62
610.743	25.53
610.936	25.56
611.128	25.74
611.32	25.88
611.513	25.96
611.705	26
611.897	25.9
612.09	25.86
612.282	25.92
612.474	25.97
612.666	26.01
612.858	26.14
613.051	26.28
613.243	26.31
613.435	26.42
613.627	26.51
613.819	26.27
614.011	26.32
614.203	26.2
614.395	26.21
614.588	26.13
614.78	26.15
614.972	26.05
615.164	26.01
615.356	25.87
615.548	25.85
615.74	25.67
615.932	25.85
616.124	25.91
616.315	25.98
616.507	25.77
616.699	25.89
616.891	25.83
617.083	25.89
617.275	25.94
617.467	25.95
617.659	26.06
617.85	26.2
618.042	26.19
618.234	26.33
618.426	26.49
618.618	26.56
618.809	26.5
619.001	26.63
619.193	26.62
619.384	26.59
619.576	26.57
619.768	26.44
619.959	26.46
620.151	26.62
620.343	26.46
620.534	26.29
620.726	26.64
620.917	26.71
621.109	26.65
621.301	26.75
621.492	26.69
621.684	26.85
621.875	26.97
622.067	26.93
622.258	26.79
622.45	26.71
622.641	26.84
622.832	26.8
623.024	26.83
623.215	26.93
623.407	26.95
623.598	27.29
623.789	27.32
623.981	27.23
624.172	27.32
624.363	27.34
624.555	27.57
624.746	27.7
624.937	27.61
625.129	27.52
625.32	27.54
625.511	27.59
625.702	27.44
625.893	27.38
626.085	27.42
626.276	27.42
626.467	27.46
626.658	27.51
626.849	27.47
627.04	27.47
627.231	27.53
627.422	27.42
627.614	27.52
627.805	27.32
627.996	27.45
628.187	27.45
628.378	27.2
628.569	27.2
628.76	27.14
628.951	27.02
629.142	27
629.332	27.05
629.523	27.27
629.714	27.23
629.905	27.46
630.096	27.47
630.287	27.56
630.478	27.77
630.669	27.79
630.859	27.72
631.05	27.99
631.241	28.09
631.432	28.16
631.623	28.05
631.813	28.01
632.004	28.03
632.195	28.07
632.385	28.19
632.576	28.22
632.767	28.29
632.957	28.37
633.148	28.35
633.339	28.34
633.529	28.24
633.72	28.47
633.91	28.58
634.101	28.76
634.292	28.82
634.482	28.82
634.673	28.66
634.863	28.62
635.054	28.39
635.244	28.39
635.435	28.53
635.625	28.73
635.815	28.48
636.006	28.25
636.196	27.93
636.387	27.77
636.577	27.58
636.767	27.93
636.958	28.08
637.148	28.29
637.338	28.33
637.529	28
637.719	27.87
637.909	28
638.099	28.13
638.29	28.19
638.48	28.47
638.67	28.59
638.86	28.52
639.05	28.49
639.241	28.62
639.431	28.59
639.621	28.74
639.811	28.87
640.001	28.94
640.191	29.19
640.381	29.42
640.571	29.27
640.761	29.27
640.951	29.12
641.141	29.07
641.331	28.93
641.521	28.92
641.711	28.99
641.901	28.94
642.091	28.71
642.281	28.56
642.471	28.43
642.661	28.28
642.851	28.3
643.041	28.32
643.231	28.39
643.42	28.54
643.61	28.59
643.8	28.62
643.99	28.73
644.18	28.79
644.369	28.83
644.559	28.91
644.749	29.16
644.939	29.16
645.128	29.31
645.318	29.17
645.508	29.1
645.697	28.87
645.887	28.92
646.076	29
646.266	29.16
646.456	29.07
646.645	29.04
646.835	28.96
647.024	29.1
647.214	29.16
647.403	29.22
647.593	29.16
647.782	29.42
647.972	29.23
648.161	29.17
648.351	29.09
648.54	29.22
648.73	29.15
648.919	29.1
649.108	29.03
649.298	29.03
649.487	29.08
649.677	29.28
649.866	29.44
650.055	29.85
650.244	29.79
650.434	29.75
650.623	29.72
650.812	29.75
651.002	29.66
651.191	29.74
651.38	29.71
651.569	29.78
651.758	29.71
651.947	29.5
652.137	29.28
652.326	29.19
652.515	29.33
652.704	29.33
652.893	29.56
653.082	29.76
653.271	29.61
653.46	29.67
653.649	29.6
653.838	29.53
654.027	29.44
654.216	29.2
654.405	29.2
654.594	29.12
654.783	29.25
654.972	29.06
655.161	29.22
655.35	29.36
655.539	29.39
655.728	29.59
655.916	29.6
656.105	29.66
656.294	29.75
656.483	30.01
656.672	30.08
656.86	29.9
657.049	29.95
657.238	29.84
657.427	29.81
657.615	29.79
657.804	29.69
657.993	29.59
658.181	29.67
658.37	29.91
658.559	29.9
658.747	29.63
658.936	29.58
659.125	29.29
659.313	29.24
659.502	29.23
659.69	29.29
659.879	29.41
660.067	29.49
660.256	29.58
660.444	29.42
660.633	29.32
660.821	29.55
661.01	29.7
661.198	30.02
661.387	29.97
661.575	30.04
661.763	29.73
661.952	29.66
662.14	29.87
662.328	29.84
662.517	29.91
662.705	29.83
662.893	29.84
663.082	29.94
663.27	30.16
663.458	30.43
663.646	30.29
663.834	30.62
664.023	30.79
664.211	30.71
664.399	30.64
664.587	30.68
664.775	30.94
664.963	31.2
665.152	31.09
665.34	31.28
665.528	31.17
665.716	31.31
665.904	31.21
666.092	31.19
666.28	31.05
666.468	31.11
666.656	31.19
666.844	31.1
667.032	31.13
667.22	31.16
667.408	30.78
667.596	30.69
667.784	30.44
667.971	30.48
668.159	30.52
668.347	30.45
668.535	30.39
668.723	30.14
668.911	30.26
669.098	29.9
669.286	29.86
669.474	29.9
669.662	30.12
669.849	30.4
670.037	30.39
670.225	30.07
670.413	30.51
670.6	30.48
670.788	30.98
670.976	30.73
671.163	30.91
671.351	30.79
671.538	30.98
671.726	30.86
671.913	30.89
672.101	30.96
672.289	31.03
672.476	30.76
672.664	31.2
672.851	30.79
673.039	30.76
673.226	30.82
673.413	30.82
673.601	30.58
673.788	30.57
673.976	30.64
674.163	30.6
674.35	30.88
674.538	30.76
674.725	30.55
674.912	30.57
675.1	31.02
675.287	30.98
675.474	31.3
675.662	31.25
675.849	31.12
676.036	31.02
676.223	31.03
676.411	30.99
676.598	31.24
676.785	31.05
676.972	31.13
677.159	30.94
677.346	30.94
677.533	30.81
677.721	30.95
677.908	31.14
678.095	31.08
678.282	31.15
678.469	31.2
678.656	31.09
678.843	31.16
679.03	31.29
679.217	31.28
679.404	31.16
679.591	31.31
679.778	31.33
679.964	31.46
680.151	31.32
680.338	31.3
680.525	31.11
680.712	31.26
680.899	31.07
681.086	30.87
681.272	30.77
681.459	30.93
681.646	30.56
681.833	30.52
682.02	30.22
682.206	30.47
682.393	30.31
682.58	30.44
682.766	30.49
682.953	30.76
683.14	30.75
683.326	30.97
683.513	31.02
683.7	31.55
683.886	31.68
684.073	31.88
684.259	31.66
684.446	31.68
684.632	31.67
684.819	31.38
685.005	31.38
685.192	31.67
685.378	31.54
685.565	31.35
685.751	31.18
685.938	30.93
686.124	30.89
686.31	31.09
686.497	31.27
686.683	31.4
686.87	31.67
687.056	31.48
687.242	31.25
687.429	31.26
687.615	31.62
687.801	31.37
687.987	31.57
688.174	31.63
688.36	31.62
688.546	31.69
688.732	31.8
688.918	31.29
689.105	31.23
689.291	31.32
689.477	31.31
689.663	31.09
689.849	31.58
690.035	31.73
690.221	32.06
690.407	32.23
690.593	32.13
690.779	31.85
690.965	32.24
691.151	32.35
691.337	32.27
691.523	32.44
691.709	32.53
691.895	32.07
692.081	31.8
692.267	31.37
692.453	31.13
692.639	30.94
692.825	30.86
693.011	30.81
693.196	31.01
693.382	30.95
693.568	31.06
693.754	30.81
693.94	30.99
694.125	30.95
694.311	31.01
694.497	31.03
694.682	31
694.868	31.12
695.054	31.12
695.239	30.83
695.425	31.02
695.611	30.8
695.796	30.95
695.982	30.47
696.168	30.57
696.353	30.66
696.539	30.93
696.724	31
696.91	30.94
697.095	31.13
697.281	31.27
697.466	31.37
697.652	31.34
697.837	31.52
698.023	31.83
698.208	31.77
698.393	31.59
698.579	31.44
698.764	31.5
698.949	31.54
699.135	31.46
699.32	31.49
699.505	31.35
699.691	31.48
699.876	31.26
700.061	31.41
700.246	31.21
700.432	31.4
700.617	31.35
700.802	31.21
700.987	31.23
701.172	30.89
701.358	30.86
701.543	30.7
701.728	30.88
701.913	31.12
702.098	30.91
702.283	31.19
702.468	31.12
702.653	31.19
702.838	31.48
703.023	31.49
703.208	31.69
703.393	31.67
703.578	32.22
703.763	31.77
703.948	31.75
704.133	31.68
704.318	31.61
704.503	31.42
704.688	31.52
704.873	31.43
705.057	31.57
705.242	31.8
705.427	31.86
705.612	31.46
705.797	31.72
705.981	31.66
706.166	31.76
706.351	31.84
706.536	32.04
706.72	32.07
706.905	32.11
707.09	32.11
707.274	32
707.459	32.26
707.644	32.25
707.828	32.35
708.013	32.3
708.197	32.32
708.382	32.21
708.567	32.31
708.751	32.1
708.936	31.87
709.12	31.84
709.305	31.73
709.489	31.49
709.673	31.54
709.858	31.14
710.042	31.26
710.227	31.3
710.411	31.75
710.596	31.5
710.78	31.1
710.964	31.26
711.149	31.18
711.333	31.05
711.517	30.96
711.702	31.08
711.886	31.21
712.07	30.86
712.254	30.73
712.438	30.71
712.623	30.95
712.807	31.57
712.991	31.39
713.175	31.28
713.359	31.38
713.544	31.42
713.728	31.46
713.912	31.35
714.096	31.64
714.28	31.66
714.464	31.35
714.648	31.49
714.832	31.51
715.016	31.58
715.2	31.67
715.384	31.87
715.568	32.02
715.752	31.9
715.936	32.49
716.12	32.31
716.304	32.41
716.488	32.24
716.671	31.83
716.855	31.63
717.039	32.13
717.223	32.3
717.407	32.24
717.59	32.01
717.774	31.79
717.958	31.15
718.142	31.17
718.325	31.44
718.509	31.91
718.693	32.07
718.877	31.96
719.06	31.64
719.244	31.58
719.428	31.56
719.611	31.17
719.795	31.67
719.978	32.08
720.162	31.89
720.345	31.92
720.529	31.7
720.713	31.85
720.896	31.78
721.08	31.51
721.263	31.53
721.446	31.6
721.63	32.15
721.813	31.73
721.997	31.92
722.18	32.18
722.364	31.8
722.547	31.93
722.73	31.88
722.914	31.43
723.097	31.6
723.28	31.67
723.464	31.74
723.647	32
723.83	32.22
724.013	31.64
724.197	31.86
724.38	31.87
724.563	31.6
724.746	31.67
724.929	31.88
725.112	31.74
725.296	31.47
725.479	31.08
725.662	30.94
725.845	30.69
726.028	30.88
726.211	30.75
726.394	31.18
726.577	31.47
726.76	31.54
726.943	31.83
727.126	31.9
727.309	31.87
727.492	32.3
727.675	32.37
727.858	32.12
728.041	31.9
728.224	32.13
728.407	32.04
728.589	31.99
728.772	32.02
728.955	32.17
729.138	32.39
729.321	32.34
729.503	32.31
729.686	32.29
729.869	32.9
730.052	33.32
730.234	33.18
730.417	33.16
730.6	33.27
730.782	33.26
730.965	33.28
731.148	32.91
731.33	32.95
731.513	32.89
731.695	32.46
731.878	32.41
732.061	32.57
732.243	32.49
732.426	32.2
732.608	32.17
732.791	32.33
732.973	32.58
733.156	33.04
733.338	33.11
733.52	33.2
733.703	33.66
733.885	33.4
734.068	32.74
734.25	32.66
734.432	32.73
734.615	32.71
734.797	32.48
734.979	32.17
735.162	31.77
735.344	31.78
735.526	31.74
735.708	31.72
735.891	31.69
736.073	31.72
736.255	31.54
736.437	31.37
736.619	31.62
736.802	31.57
736.984	31.66
737.166	31.44
737.348	31.4
737.53	31.23
737.712	30.86
737.894	30.71
738.076	30.92
738.258	31.07
738.44	30.94
738.622	30.53
738.804	30.16
738.986	29.66
739.168	29.94
739.35	30.02
739.532	30.09
739.714	30.01
739.896	30.3
740.078	30.31
740.259	29.85
740.441	29.93
740.623	29.64
740.805	29.56
740.987	30.21
741.168	30.55
741.35	30.78
741.532	30.52
741.714	30.75
741.895	30.54
742.077	30.82
742.259	31.56
742.44	31.79
742.622	32.48
742.804	33.19
742.985	32.73
743.167	32.22
743.348	32.33
743.53	32.62
743.711	32.59
743.893	32.61
744.075	32.36
744.256	31.76
744.438	32.44
744.619	31.9
744.8	31.51
744.982	31.89
745.163	31.99
745.345	31.35
745.526	31.28
745.707	31.24
745.889	31.27
746.07	31.06
746.252	31.45
746.433	30.99
746.614	31.35
746.795	31.23
746.977	30.88
747.158	31.08
747.339	31.62
747.52	31.52
747.702	31.92
747.883	32.09
748.064	32.21
748.245	32.13
748.426	33.17
748.607	32.84
748.788	32.65
748.97	33.05
749.151	33.06
749.332	32.76
749.513	32.52
749.694	32.38
749.875	32.54
750.056	32.35
750.237	32.17
750.418	31.08
750.599	30.89
750.78	31.69
750.96	32.07
751.141	31.87
751.322	31.93
751.503	32.2
751.684	32.26
751.865	31.55
752.046	31.53
752.226	31.41
752.407	30.6
752.588	30.96
752.769	30.55
752.949	30.51
753.13	30.11
753.311	29.9
753.492	30.1
753.672	29.92
753.853	30.97
754.034	31.72
754.214	31.71
754.395	32.02
754.575	31.97
754.756	31.86
754.937	31.38
755.117	31.89
755.298	32.1
755.478	31.84
755.659	31.6
755.839	30.53
756.02	29.87
756.2	30.23
756.381	30.56
756.561	30.79
756.741	30.93
756.922	30.77
757.102	30.81
757.283	30.44
757.463	30.06
757.643	30.79
757.823	31.69
758.004	31.77
758.184	31.44
758.364	31.11
758.545	30.37
758.725	30.12
758.905	30.84
759.085	31.11
759.265	31.57
759.446	32.01
759.626	31.55
759.806	30.91
759.986	30.94
760.166	30.66
760.346	30.56
760.526	30.87
760.706	31.09
760.886	30.44
761.066	30.44
761.246	30.13
761.426	30.1
761.606	30.08
761.786	30.1
761.966	29.94
762.146	30.51
762.326	31.11
762.506	31.59
762.686	31.33
762.866	31.52
763.046	31.04
763.225	31.2
763.405	31.19
763.585	30.99
763.765	31.22
763.945	31.39
764.124	31.59
764.304	31.7
764.484	31.46
764.664	31.45
764.843	31.72
765.023	32.43
765.203	32.48
765.382	32.66
765.562	33.22
765.741	33.16
765.921	33.12
766.101	32.75
766.28	32.52
766.46	32.32
766.639	33.24
766.819	32.6
766.998	32.25
767.178	31.79
767.357	32.14
767.537	31.93
767.716	31.63
767.896	31.81
768.075	31.88
768.254	31.41
768.434	31.77
768.613	31.21
768.792	31.26
768.972	31.08
769.151	30.94
769.33	30.24
769.51	29.96
769.689	29.79
769.868	30.07
770.047	29.39
770.226	29.51
770.406	28.93
770.585	29.37
770.764	29.36
770.943	28.98
771.122	29.48
771.301	29.41
771.48	28.88
771.66	29.47
771.839	29.84
772.018	30.44
772.197	30.07
772.376	31.31
772.555	30.85
772.734	30.13
772.913	29.56
773.092	29.95
773.271	29.92
773.449	30.99
773.628	30.73
773.807	30.08
773.986	30.53
774.165	30.67
774.344	30.26
774.523	29.94
774.701	29.93
774.88	31.34
775.059	31.05
775.238	30.68
775.417	29.79
775.595	30.24
775.774	30.24
775.953	29.48
776.131	29.65
776.31	28.97
776.489	29.24
776.667	30.45
776.846	29.5
777.025	29.21
777.203	29.62
777.382	30.17
777.56	30.6
777.739	30.43
777.917	30.66
778.096	31.2
778.274	31.57
778.453	31.03
778.631	30.51
778.81	31.25
778.988	31.95
779.166	32.02
779.345	32.24
779.523	31.74
779.702	32.01
779.88	32.02
780.058	30.94
780.237	30.26
780.415	30.76
780.593	30.73
780.771	31.04
780.95	30.33
781.128	30.41
781.306	30.13
781.484	29.82
781.662	29.29
781.841	29.43
782.019	29.93
782.197	30.19
782.375	30.1
782.553	30.67
782.731	30.14
782.909	31.17
783.087	31.92
783.265	31.85
783.443	32.28
783.621	32.59
783.799	32.68
783.977	32.13
784.155	32.44
784.333	32.7
784.511	33.15
784.689	32.47
784.867	31.42
785.045	29.66
785.223	29.61
785.4	29.6
785.578	29.05
785.756	29.19
785.934	29.73
786.112	29.6
786.289	29.41
786.467	28.34
786.645	28.54
786.823	28.92
787	29.6
787.178	29.72
787.356	29.7
787.533	29.4
787.711	30.12
787.889	29.31
788.066	29.32
788.244	28.85
788.421	29.56
788.599	30.04
788.776	30.04
788.954	30.25
789.131	31.01
789.309	30.61
789.486	31.63
789.664	30.85
789.841	31.89
790.019	31.9
790.196	32.9
790.373	32.05
790.551	32.37
790.728	32.01
790.906	32.68
791.083	32.89
791.26	33.64
791.437	33.07
791.615	32.44
791.792	32.02
791.969	31.85
792.146	31.53
792.324	32.16
792.501	31.91
792.678	32.25
792.855	31.98
793.032	31.2
793.209	30.58
793.387	30.76
793.564	30.7
793.741	30.47
793.918	31.07
794.095	31.25
794.272	30.91
794.449	30.98
794.626	30.26
794.803	29.3
794.98	29.09
795.157	29.97
795.334	30.12
795.511	30.45
795.688	31.7
795.864	31.01
796.041	31.08
796.218	30.47
796.395	28.93
796.572	29.53
796.749	29.5
796.925	29.41
797.102	28.48
797.279	28.41
797.456	28.74
797.632	28.28
797.809	28.42
797.986	27.75
798.162	28.35
798.339	29.74
798.516	29.69
798.692	30.7
798.869	29.86
799.046	29.75
799.222	29.88
799.399	28.85
799.575	29
799.752	29.95
799.928	30
800.105	30.8
800.281	30.41
800.458	30.53
800.634	29.25
800.811	29.24
800.987	29.38
801.163	29.44
801.34	30.61
801.516	30.41
801.692	29.86
801.869	29.76
802.045	29.05
802.221	29.96
802.398	30.25
802.574	30.81
802.75	30.77
802.926	31.19
803.103	30.38
803.279	30.6
803.455	30.63
803.631	30.67
803.807	30.61
803.983	31.46
804.16	31.01
804.336	29.82
804.512	30.4
804.688	31.76
804.864	31.83
805.04	32.6
805.216	32.49
805.392	32.34
805.568	31.12
805.744	32.26
805.92	31.57
806.096	32.7
806.272	34.54
806.448	34.38
806.623	34.66
806.799	34.46
806.975	33.96
807.151	33.87
807.327	33.12
807.503	33.89
807.678	34.1
807.854	33.32
808.03	32.31
808.206	31.23
808.381	31.09
808.557	29.62
808.733	29.71
808.908	30.23
809.084	30.79
809.26	31.72
809.435	32.05
809.611	30.98
809.787	31.56
809.962	30.89
810.138	30.85
810.313	31.35
810.489	32.23
810.664	32.74
810.84	32.71
811.015	31.68
811.191	31.24
811.366	31.36
811.542	31.74
811.717	31.78
811.892	31.72
812.068	31.11
812.243	30.22
812.419	30.69
812.594	29.85
812.769	29.96
812.944	30.25
813.12	30.13
813.295	30.48
813.47	29.29
813.645	28.57
813.821	28.56
813.996	29.5
814.171	30.41
814.346	29.83
814.521	30.24
814.697	29.79
814.872	29.31
815.047	28.81
815.222	27.31
815.397	27.99
815.572	27.7
815.747	27.82
815.922	29.41
816.097	28.27
816.272	28.32
816.447	27.48
816.622	27.89
816.797	28.35
816.972	29.03
817.147	29.23
817.322	29.61
817.496	30.33
817.671	30.77
817.846	30.26
818.021	31.39
818.196	30.79
818.371	31.87
818.545	32.46
818.72	32.54
818.895	31.27
819.069	31.57
819.244	31.83
819.419	32.03
819.594	31.07
819.768	30.62
819.943	30.07
820.117	30.8
820.292	30.33
820.467	29.94
820.641	30.23
820.816	30.48
820.99	30.36
821.165	29.97
821.339	29.9
821.514	30.28
821.688	30.29
821.863	30.47
822.037	30.35
822.212	30.36
822.386	30.34
822.56	29.93
822.735	30.07
822.909	30.07
823.084	30.31
823.258	30.31
823.432	30.53
823.606	30.22
823.781	30.07
823.955	29.96
824.129	29.93
824.303	29.85
824.478	30.21
824.652	30.01
824.826	30.24
825	29.98
825.174	29.98
825.348	29.55
825.523	29.68
825.697	29.43
825.871	29.11
826.045	28.73
826.219	28.59
826.393	28.5
826.567	28.87
826.741	28.96
826.915	29.12
827.089	28.4
827.263	28.21
827.437	29.01
827.611	29.13
827.784	29.48
827.958	29.99
828.132	30.25
828.306	31.08
828.48	30.81
828.654	30.49
828.827	30.85
829.001	32.35
829.175	32.68
829.349	32.12
829.522	32.31
829.696	32.92
829.87	33.67
830.044	33.2
830.217	32.24
830.391	32.41
830.565	32.96
830.738	32.58
830.912	31.22
831.085	30.54
831.259	31.11
831.432	31.69
831.606	30.9
831.779	31.13
831.953	31.65
832.126	30.78
832.3	30.5
832.473	30.54
832.647	30
832.82	29.59
832.994	30.42
833.167	29.58
833.34	29.58
833.514	29.86
833.687	28.79
833.86	28.99
834.034	29.17
834.207	29.53
834.38	29.29
834.553	28.78
834.727	30.1
834.9	29.81
835.073	29.68
835.246	29.12
835.419	28.61
835.593	28.91
835.766	29.19
835.939	28.4
836.112	27.58
836.285	27.73
836.458	29.93
836.631	28.96
836.804	28.74
836.977	29.22
837.15	28.27
837.323	28.94
837.496	28.82
837.669	26.95
837.842	28.91
838.015	30.4
838.188	28.96
838.361	26.34
838.533	27.79
838.706	27.82
838.879	28.26
839.052	30.69
839.225	30.58
839.398	30.74
839.57	33.07
839.743	33.26
839.916	33.38
840.088	33.7
840.261	33.64
840.434	32.63
840.607	31.97
840.779	31.35
840.952	30.6
841.124	29.98
841.297	30.24
841.47	28.92
841.642	27.97
841.815	26.21
841.987	25.73
842.16	26.3
842.332	26.56
842.505	27.46
842.677	29.15
842.85	27.56
843.022	28.59
843.194	28.29
843.367	27.93
843.539	26.68
843.712	26.92
843.884	28.37
844.056	27.2
844.229	26.44
844.401	25.44
844.573	20.5
844.745	23.73
844.918	24.4
845.09	24.81
845.262	24.42
845.434	25.26
845.606	28.02
845.779	29.48
845.951	32.79
846.123	32.08
846.295	32.8
846.467	32.08
846.639	32.09
846.811	34.06
846.983	29.72
847.155	31.06
847.327	33.94
847.499	32.98
847.671	30.52
847.843	30.2
848.015	30.88
848.187	30.5
848.359	34.79
848.531	32.54
848.703	27.62
848.875	31.16
849.047	32.05
849.218	29.23
849.39	30.73
849.562	30.95
849.734	27.05
849.905	27.29
850.077	27.44
850.249	24.26
850.421	28.93
850.592	31.26
850.764	33.44
850.936	32.76
851.107	28.91
851.279	27.52
851.451	29.44
851.622	29.26
851.794	28.69
851.965	34.42
852.137	35.99
852.308	33.84
852.48	33.34
852.651	32.13
852.823	33.55
852.994	36.86
853.166	35.54
853.337	34.64
853.509	37.63
853.68	36.9
853.851	33.79
854.023	32.48
854.194	28.18
854.365	26.97
854.537	25.32
854.708	23.93
854.879	23
855.05	22.25
855.222	26.91
855.393	25.02
855.564	25.79
855.735	26.61
855.906	31.57
856.078	34.53
856.249	32.63
856.42	30.61
856.591	32.72
856.762	35.06
856.933	34.2
857.104	27.97
857.275	27.25
857.446	26.71
857.617	24.15
857.788	23.63
857.959	24.97
858.13	24.17
858.301	28.44
858.472	29.4
858.643	29.17
858.814	29.24
858.985	30.29
859.155	33.73
859.326	31.38
859.497	33.39
859.668	31.44
859.839	27.09
860.009	30.91
860.18	31.39
860.351	28.19
860.522	27.53
860.692	30.77
860.863	30.72
861.034	30.12
861.204	32.14
861.375	29.72
861.546	29.03
861.716	30.27
861.887	31.41
862.057	30.42
862.228	31.18
862.398	31.57
862.569	29.37
862.739	28.21
862.91	29.2
863.08	28.65
863.251	29.61
863.421	29.35
863.592	33.57
863.762	30.36
863.932	30.83
864.103	28.52
864.273	24.81
864.443	25.52
864.614	25.2
864.784	21.42
864.954	20.88
865.125	19.2
865.295	23.96
865.465	21.62
865.635	23.25
865.805	22.13
865.976	28.06
866.146	34.05
866.316	34.09
866.486	38.7
866.656	43.85
866.826	44.87
866.996	45.59
867.166	40.73
867.336	43.85
867.506	45.85
867.676	45.22
867.846	42.31
868.016	40.86
868.186	42.62
868.356	41.04
868.526	34.66
868.696	34.71
868.866	35.97
869.036	33.25
869.206	31.45
869.376	31.47
869.545	29.52
869.715	29.33
869.885	25.35
870.055	21.87
870.224	19.08
870.394	20.45
870.564	17.76
870.734	16.79
870.903	19.5
871.073	20.14
871.243	13.99
871.412	17.33
871.582	17.73
871.751	19.04
871.921	19.75
872.091	18.68
872.26	18.4
872.43	22.78
872.599	21.12
872.769	22.98
872.938	19.71
873.108	22.71
873.277	22.02
873.446	23.41
873.616	23.66
873.785	24.41
873.955	26.26
874.124	27.44
874.293	24.59
874.463	24.55
874.632	27.18
874.801	25.02
874.971	28.32
875.14	24.78
875.309	17.67
875.478	20.73
875.647	21.25
875.817	20.63
875.986	23.55
876.155	25.12
876.324	28
876.493	25.11
876.662	28.13
876.831	23.97
877	26.54
877.17	31.35
877.339	31.19
877.508	33.84
877.677	34.79
877.846	35.51
878.015	35.49
878.184	40.06
878.352	37.32
878.521	35.15
878.69	38.19
878.859	39.28
879.028	37.26
879.197	35.8
879.366	31.93
879.534	32.77
879.703	32.12
879.872	31.2
880.041	26.05
880.21	28.69
880.378	29.58
880.547	28.44
880.716	26.98
880.884	27.46
881.053	27.04
881.222	27.62
881.39	27.76
881.559	27.8
881.727	28.47
881.896	29.19
882.065	29.03
882.233	30.02
882.402	30.94
882.57	31.32
882.739	31.26
882.907	32.01
883.076	32.58
883.244	32.4
883.412	31.95
883.581	31.61
883.749	31.38
883.918	30.97
884.086	29.79
884.254	29.45
884.423	29.39
884.591	29.19
884.759	28.75
884.927	27.54
885.096	27.96
885.264	28.64
885.432	28.31
885.6	29.03
885.769	29.92
885.937	31.64
886.105	31.38
886.273	31.92
886.441	31.34
886.609	31.04
886.777	33.38
886.945	31.74
887.113	30.34
887.281	32.05
887.449	32.35
887.617	31.85
887.785	29.19
887.953	30.64
888.121	32.44
888.289	33.77
888.457	36.81
888.625	34.35
888.793	34.69
888.961	36.3
889.129	38.11
889.296	39.74
889.464	39.91
889.632	41.92
889.8	39.78
889.967	37.76
890.135	39.38
