Data from 2938466_Reflection_3.txt Node
Date: Wed Jun 17 13:49:28 EDT 2015
User: robert
Spectrometer: USB4E03002
Autoset integration time: false
Trigger mode: 4
Integration Time (sec): 1.000000E-1
Scans to average: 10
Electric dark correction enabled: true
Nonlinearity correction enabled: false
Boxcar width: 5
Stray light correction enabled: false
XAxis mode: Wavelengths
Stop averaging: false
Number of Pixels in Spectrum: 3648
>>>>>Begin Spectral Data<<<<<
177.575	-25.49
177.794	-29.94
178.014	-75.16
178.233	-141.77
178.452	298.55
178.672	44.93
178.891	39.24
179.11	33.33
179.33	385.42
179.549	-2839.51
179.768	-179.64
179.987	-51.57
180.207	-421.23
180.426	-129.08
180.645	123.68
180.864	139.25
181.084	88.52
181.303	106.06
181.522	103.4
181.741	128.18
181.96	144.01
182.179	176.72
182.398	130.22
182.618	119.58
182.837	131.53
183.056	268.3
183.275	131.56
183.494	156.27
183.713	215.4
183.932	1633.43
184.151	569.35
184.37	190.75
184.589	82.59
184.808	86.37
185.027	192.46
185.246	136.93
185.465	165.39
185.684	213.48
185.903	260.19
186.122	157.89
186.341	114.73
186.56	116.71
186.779	223.75
186.998	304.62
187.216	175.84
187.435	142.75
187.654	139.73
187.873	135.37
188.092	149.96
188.311	130.41
188.53	136.85
188.748	154.07
188.967	168.01
189.186	175.57
189.405	235.68
189.623	224.24
189.842	342.52
190.061	-3364
190.28	-225.95
190.498	-113.24
190.717	-766.29
190.936	-344.82
191.154	-181.72
191.373	-124.92
191.592	-214.76
191.81	56.21
192.029	123.11
192.248	69.56
192.466	35.08
192.685	26.12
192.904	69.52
193.122	59.16
193.341	61.87
193.559	66.76
193.778	71.13
193.996	82.18
194.215	66.41
194.433	47.33
194.652	50.31
194.87	45.6
195.089	57.65
195.307	45.64
195.526	112.01
195.744	96.94
195.963	52.67
196.181	61.85
196.399	88.82
196.618	91.66
196.836	128.41
197.055	99.63
197.273	119.19
197.491	96.09
197.71	95.64
197.928	71.5
198.146	70.66
198.365	91.57
198.583	80.31
198.801	38.54
199.019	47.32
199.238	25
199.456	19.17
199.674	2.65
199.892	-1.01
200.111	-25.03
200.329	42.94
200.547	68.44
200.765	64.75
200.983	76.63
201.202	109.33
201.42	93.67
201.638	133.17
201.856	118.35
202.074	90.45
202.292	86.62
202.51	64.14
202.728	40.17
202.946	30.64
203.165	14.56
203.383	29.31
203.601	43.79
203.819	45.96
204.037	33.98
204.255	51.84
204.473	62.13
204.691	89.25
204.909	118.68
205.127	93.15
205.345	87.25
205.562	102.21
205.78	97.11
205.998	91.29
206.216	86.21
206.434	74.83
206.652	70.68
206.87	75.07
207.088	69.26
207.306	76.58
207.523	76.26
207.741	64.72
207.959	75.25
208.177	75.45
208.395	72.62
208.612	77.87
208.83	116.69
209.048	112.91
209.266	98.14
209.483	99
209.701	88.73
209.919	94.48
210.136	108.96
210.354	82.97
210.572	80.9
210.79	74.78
211.007	75.44
211.225	52.43
211.442	50.81
211.66	60.13
211.878	66.29
212.095	55
212.313	48.95
212.53	46.33
212.748	68.82
212.966	58.58
213.183	53.47
213.401	37.3
213.618	39.38
213.836	37.11
214.053	35.9
214.271	24.09
214.488	25.1
214.705	25.13
214.923	27.23
215.14	18.95
215.358	27.05
215.575	31.92
215.793	45.46
216.01	40.3
216.227	39.45
216.445	49.37
216.662	50.62
216.879	55.53
217.097	39.78
217.314	35.76
217.531	38.3
217.749	41.98
217.966	40.08
218.183	39.59
218.4	34.74
218.618	41.34
218.835	2.9
219.052	24.21
219.269	-2.42
219.487	46.15
219.704	37.53
219.921	19.48
220.138	3.4
220.355	-4.86
220.572	-2.48
220.79	12.72
221.007	19.5
221.224	24.58
221.441	13.84
221.658	20.03
221.875	14.23
222.092	14.33
222.309	13.42
222.526	21.7
222.743	28.84
222.96	26.44
223.177	19.97
223.394	18.41
223.611	17.8
223.828	17.81
224.045	16.98
224.262	14.57
224.479	13.73
224.696	17.55
224.913	18.11
225.13	13.55
225.347	15.05
225.564	16.54
225.781	15.2
225.997	16.11
226.214	16.45
226.431	14.5
226.648	14.83
226.865	13.8
227.082	14.34
227.298	13.01
227.515	13.61
227.732	13.18
227.949	13.63
228.165	12.95
228.382	12.77
228.599	11.37
228.816	11.44
229.032	11.12
229.249	11.38
229.466	10.45
229.682	10.22
229.899	10.34
230.116	10.95
230.332	7.43
230.549	7.88
230.765	8.06
230.982	10.41
231.199	14.49
231.415	16.54
231.632	19.66
231.848	18.76
232.065	18.32
232.281	16.64
232.498	14.59
232.714	17.17
232.931	17.65
233.147	17.32
233.364	14.85
233.58	12.52
233.797	11.69
234.013	7.73
234.23	7.5
234.446	9.58
234.662	11.07
234.879	9.97
235.095	9.44
235.312	9.32
235.528	7.11
235.744	6.89
235.961	7.24
236.177	5.3
236.393	8.61
236.61	9.45
236.826	9.36
237.042	8.57
237.258	12.73
237.475	13.37
237.691	13.21
237.907	13.72
238.123	14.93
238.339	14.59
238.556	16.46
238.772	15.94
238.988	15.16
239.204	14.35
239.42	14.53
239.636	13.66
239.853	13.44
240.069	14.53
240.285	14.77
240.501	14.93
240.717	14.33
240.933	13.82
241.149	13.45
241.365	14.4
241.581	14.73
241.797	14.89
242.013	14.34
242.229	14.44
242.445	13.52
242.661	13.26
242.877	13.37
243.093	12.96
243.309	12.34
243.525	11.76
243.741	10.54
243.957	9.88
244.173	9.29
244.388	9.46
244.604	9.34
244.82	9.5
245.036	9.93
245.252	9.48
245.468	9.42
245.683	9.97
245.899	10.29
246.115	10.33
246.331	10.53
246.547	10.63
246.762	10.63
246.978	10.25
247.194	10.32
247.409	10.03
247.625	9.85
247.841	10.17
248.057	9.66
248.272	9.45
248.488	9.36
248.703	8.61
248.919	8.38
249.135	8.33
249.35	9.39
249.566	9.3
249.782	8.51
249.997	9.5
250.213	9.44
250.428	9.4
250.644	8.93
250.859	8.88
251.075	9.28
251.29	9.53
251.506	9.43
251.721	9.06
251.937	8.58
252.152	9.56
252.368	9.83
252.583	10
252.798	10.61
253.014	12.02
253.229	12.65
253.445	11.95
253.66	12.15
253.875	11.98
254.091	12.34
254.306	11.85
254.521	11.27
254.737	9.8
254.952	9.49
255.167	9.03
255.383	8.11
255.598	7.89
255.813	9.34
256.028	8.52
256.244	8.97
256.459	8.5
256.674	8.65
256.889	8.47
257.104	8.15
257.32	8.19
257.535	7.85
257.75	8.05
257.965	8
258.18	7.37
258.395	7.65
258.61	7.3
258.826	7.65
259.041	7.81
259.256	7.93
259.471	8.5
259.686	8.72
259.901	9.35
260.116	9.41
260.331	9.85
260.546	10.03
260.761	9.73
260.976	10.14
261.191	9.48
261.406	9.67
261.621	9.63
261.836	9.09
262.05	9.24
262.265	8.57
262.48	7.89
262.695	6.81
262.91	7.19
263.125	7.33
263.34	6.96
263.555	7.38
263.769	7.37
263.984	6.99
264.199	7.66
264.414	7.25
264.629	7
264.843	7.14
265.058	7.12
265.273	6.82
265.488	6.96
265.702	7.51
265.917	7.38
266.132	7.28
266.346	7.26
266.561	7.03
266.776	7.28
266.99	7.01
267.205	6.71
267.42	6.47
267.634	7.22
267.849	7.65
268.063	7.67
268.278	8.32
268.492	8.23
268.707	7.88
268.922	7.42
269.136	6.93
269.351	6.96
269.565	7.27
269.78	7.45
269.994	7.05
270.209	6.68
270.423	6.39
270.637	5.85
270.852	5.75
271.066	6.6
271.281	6.82
271.495	6.64
271.709	6.66
271.924	6.42
272.138	6.74
272.353	6.89
272.567	6.99
272.781	6.78
272.996	6.85
273.21	7.13
273.424	6.75
273.638	6.5
273.853	6.89
274.067	6.76
274.281	7.02
274.495	6.48
274.71	6.46
274.924	6.21
275.138	6.29
275.352	5.32
275.566	4.86
275.781	4.75
275.995	4.92
276.209	4.7
276.423	5.19
276.637	4.78
276.851	5.02
277.065	5
277.279	5.2
277.493	5.48
277.707	6.85
277.921	6.93
278.135	6.8
278.349	7.05
278.563	7.01
278.777	6.77
278.991	6.97
279.205	7.05
279.419	7.08
279.633	6.83
279.847	6.99
280.061	6.71
280.275	6.99
280.489	7.29
280.703	6.81
280.917	6.96
281.131	7.1
281.344	7.28
281.558	6.98
281.772	6.97
281.986	7.19
282.2	7.07
282.414	7.3
282.627	7.08
282.841	6.75
283.055	6.98
283.269	7.1
283.482	6.91
283.696	6.72
283.91	6.95
284.123	6.63
284.337	6.6
284.551	6.6
284.764	6.83
284.978	7
285.192	7.23
285.405	7.02
285.619	6.96
285.833	7.09
286.046	6.72
286.26	6.99
286.473	7.39
286.687	7.7
286.9	7.97
287.114	7.59
287.327	7.75
287.541	7.53
287.754	8.04
287.968	7.88
288.181	7.38
288.395	8.23
288.608	7.98
288.822	7.59
289.035	7.05
289.248	6.89
289.462	6.69
289.675	6.53
289.889	6.52
290.102	6.4
290.315	6.37
290.529	6.85
290.742	6.59
290.955	6.66
291.169	6.8
291.382	7.48
291.595	7.21
291.808	7.46
292.022	7.41
292.235	7.73
292.448	8.17
292.661	8.22
292.875	8.52
293.088	8.61
293.301	8.62
293.514	8.12
293.727	7.92
293.94	8.19
294.153	8.05
294.367	7.93
294.58	7.69
294.793	7.07
295.006	7.33
295.219	7.47
295.432	7.42
295.645	7.69
295.858	7.94
296.071	7.81
296.284	7.4
296.497	7.3
296.71	7.42
296.923	7.67
297.136	8.02
297.349	8.15
297.562	7.79
297.775	7.8
297.988	7.68
298.201	7.86
298.414	7.95
298.626	8.28
298.839	8.71
299.052	8.17
299.265	7.79
299.478	7.78
299.691	8.01
299.903	8.31
300.116	8.66
300.329	8.3
300.542	8.15
300.755	8.4
300.967	8.84
301.18	8.72
301.393	9.06
301.605	9.05
301.818	9.04
302.031	8.79
302.243	8.59
302.456	8.25
302.669	7.73
302.881	8.25
303.094	7.96
303.307	7.88
303.519	8.4
303.732	8.66
303.944	9.13
304.157	8.81
304.37	8.58
304.582	9.03
304.795	9
305.007	10.07
305.22	9.78
305.432	9.78
305.645	9.35
305.857	8.82
306.069	8.96
306.282	8.51
306.494	9.01
306.707	9.27
306.919	8.64
307.132	8.72
307.344	8.61
307.556	9.13
307.769	9.27
307.981	9.65
308.193	9.82
308.406	9.42
308.618	9.83
308.83	9.67
309.043	9.51
309.255	9.83
309.467	9.82
309.679	9.4
309.892	9.27
310.104	9.3
310.316	9.35
310.528	9.47
310.74	9.28
310.953	9.31
311.165	8.98
311.377	8.99
311.589	9.47
311.801	9.48
312.013	9.91
312.225	9.58
312.437	9.82
312.649	9.96
312.862	9.71
313.074	10.4
313.286	10.36
313.498	10.92
313.71	11.37
313.922	10.66
314.134	10.57
314.346	10.66
314.558	11.34
314.77	11.54
314.982	11.12
315.193	11.33
315.405	11.29
315.617	11.51
315.829	11.61
316.041	11.22
316.253	11.59
316.465	12.14
316.677	12.48
316.888	12.44
317.1	12.2
317.312	13.03
317.524	13.19
317.736	14
317.947	13.92
318.159	14.17
318.371	14.34
318.583	14.72
318.794	15
319.006	15.18
319.218	15.12
319.43	15.39
319.641	14.86
319.853	14.7
320.064	14.21
320.276	14.5
320.488	14.14
320.699	14.98
320.911	14.81
321.123	14.29
321.334	14.15
321.546	14.25
321.757	14.1
321.969	14.41
322.18	14.5
322.392	14.64
322.603	14.65
322.815	15.32
323.026	14.99
323.238	15.3
323.449	15.7
323.661	15.78
323.872	15.83
324.083	16.21
324.295	16.99
324.506	17.19
324.718	17.51
324.929	18.22
325.14	18.51
325.352	18.58
325.563	18.96
325.774	19.83
325.986	20.59
326.197	21.18
326.408	22.09
326.62	21.86
326.831	22.94
327.042	23.22
327.253	23.6
327.464	23.41
327.676	24.17
327.887	24.24
328.098	24.26
328.309	24.23
328.52	24.74
328.732	24.58
328.943	25.42
329.154	25.55
329.365	25.94
329.576	26.07
329.787	27.57
329.998	27.98
330.209	28.44
330.42	28.91
330.631	30.06
330.842	30.55
331.053	31.1
331.264	31.49
331.475	31.87
331.686	32.45
331.897	32.53
332.108	32.24
332.319	33
332.53	33.29
332.741	33.61
332.952	33.43
333.163	33.56
333.374	33.45
333.585	33.56
333.795	33.91
334.006	34.13
334.217	34.39
334.428	35.2
334.639	34.81
334.849	35.07
335.06	35.49
335.271	35.52
335.482	35.4
335.692	35.98
335.903	36.29
336.114	35.93
336.325	36.4
336.535	36.71
336.746	36.7
336.957	37.03
337.167	37.32
337.378	36.81
337.589	36.95
337.799	37.38
338.01	37.77
338.22	37.51
338.431	38
338.642	37.85
338.852	37.76
339.063	37.8
339.273	37.9
339.484	37.81
339.694	38.01
339.905	38.01
340.115	38.14
340.326	38.08
340.536	38.28
340.746	38.34
340.957	38.27
341.167	38.29
341.378	38.07
341.588	37.94
341.799	38.12
342.009	38.35
342.219	38.38
342.43	38.42
342.64	38.39
342.85	38.75
343.061	38.53
343.271	38.92
343.481	39.13
343.691	38.92
343.902	38.91
344.112	38.81
344.322	38.93
344.532	39.12
344.743	38.57
344.953	38.51
345.163	37.92
345.373	37.81
345.583	37.55
345.793	37.44
346.004	37.94
346.214	38.1
346.424	38.24
346.634	37.85
346.844	37.96
347.054	38.28
347.264	38.26
347.474	38.64
347.684	38.6
347.894	38.54
348.104	38.6
348.314	38.29
348.524	37.86
348.734	37.7
348.944	37.87
349.154	37.68
349.364	37.53
349.574	37.21
349.784	37.06
349.994	37.38
350.204	37.19
350.413	37.57
350.623	37.51
350.833	38.2
351.043	38.07
351.253	38.07
351.463	38.09
351.672	38.18
351.882	38.5
352.092	38.6
352.302	38.56
352.511	38.98
352.721	38.54
352.931	38.62
353.141	38.36
353.35	38.44
353.56	38.08
353.77	37.66
353.979	37.8
354.189	37.39
354.399	37.09
354.608	36.71
354.818	36.45
355.027	36.44
355.237	36.16
355.447	35.83
355.656	35.89
355.866	36.25
356.075	36.57
356.285	36.52
356.494	36.29
356.704	36.27
356.913	36.13
357.123	36.05
357.332	35.92
357.542	36.13
357.751	36.1
357.96	35.98
358.17	35.76
358.379	35.7
358.589	35.45
358.798	35.85
359.007	35.72
359.217	35.78
359.426	35.63
359.635	35.4
359.845	35.39
360.054	35.36
360.263	35.26
360.472	35.28
360.682	35.09
360.891	35
361.1	34.93
361.309	34.88
361.519	35.03
361.728	35.08
361.937	35.37
362.146	35.45
362.355	35.38
362.564	35.44
362.774	35.31
362.983	35.23
363.192	35.38
363.401	35.12
363.61	35.27
363.819	35.22
364.028	35.1
364.237	34.83
364.446	34.25
364.655	34.21
364.864	33.99
365.073	33.97
365.282	34.28
365.491	34.2
365.7	34.49
365.909	34.15
366.118	34.29
366.327	34.28
366.536	34.45
366.745	34.73
366.954	34.7
367.162	34.84
367.371	34.81
367.58	34.58
367.789	34.38
367.998	34.05
368.207	34.27
368.415	33.8
368.624	33.86
368.833	33.62
369.042	33.26
369.25	33.28
369.459	33.35
369.668	33.05
369.877	32.7
370.085	32.59
370.294	32.18
370.503	31.57
370.711	31.65
370.92	31.45
371.129	31.51
371.337	31.75
371.546	31.59
371.754	31.38
371.963	31.5
372.171	31.69
372.38	31.58
372.589	32.07
372.797	32.38
373.006	32.34
373.214	32.4
373.423	31.95
373.631	31.73
373.84	31.59
374.048	31.65
374.256	31.72
374.465	31.66
374.673	31.97
374.882	31.77
375.09	31.78
375.298	31.49
375.507	31.32
375.715	31.56
375.923	31.34
376.132	31.34
376.34	31.11
376.548	30.95
376.757	30.73
376.965	30.63
377.173	30.64
377.381	30.78
377.59	31
377.798	31.23
378.006	31.08
378.214	31.3
378.423	31.32
378.631	31.06
378.839	30.97
379.047	30.95
379.255	30.98
379.463	30.66
379.671	30.24
379.879	30.1
380.088	29.71
380.296	29.61
380.504	29.59
380.712	29.63
380.92	29.91
381.128	30.09
381.336	30.28
381.544	29.68
381.752	29.63
381.96	29.63
382.168	29.55
382.376	29.57
382.584	29.39
382.791	29.22
382.999	28.99
383.207	28.65
383.415	28.45
383.623	28.27
383.831	28.52
384.039	28.66
384.247	28.7
384.454	28.58
384.662	28.34
384.87	28.49
385.078	28.25
385.285	28.13
385.493	28.43
385.701	28.34
385.909	28.26
386.116	28.06
386.324	27.84
386.532	27.52
386.739	27.47
386.947	27.51
387.155	27.44
387.362	27.54
387.57	27.69
387.778	27.31
387.985	27.24
388.193	27.06
388.4	27.23
388.608	27.27
388.816	27.21
389.023	27.07
389.231	27.06
389.438	27.11
389.646	27.07
389.853	26.94
390.061	26.83
390.268	26.82
390.475	26.85
390.683	26.6
390.89	26.47
391.098	26.61
391.305	26.78
391.512	26.62
391.72	26.5
391.927	26.41
392.135	26.15
392.342	26.24
392.549	26.19
392.756	26.22
392.964	26.34
393.171	26.34
393.378	26.16
393.586	26.02
393.793	26.07
394	25.82
394.207	25.84
394.414	26.07
394.622	25.99
394.829	25.91
395.036	25.68
395.243	25.27
395.45	25.37
395.657	25.43
395.864	25.36
396.072	25.27
396.279	25.33
396.486	25.13
396.693	24.98
396.9	24.92
397.107	24.81
397.314	24.99
397.521	25.03
397.728	24.89
397.935	24.98
398.142	24.93
398.349	24.76
398.556	24.8
398.763	24.93
398.97	25.04
399.177	25.12
399.383	25.16
399.59	24.95
399.797	25.18
400.004	25.08
400.211	24.86
400.418	24.74
400.625	24.87
400.831	24.56
401.038	24.39
401.245	24.24
401.452	23.98
401.658	23.8
401.865	23.84
402.072	23.76
402.279	23.71
402.485	23.8
402.692	23.95
402.899	23.82
403.105	23.98
403.312	23.91
403.519	23.72
403.725	23.67
403.932	23.81
404.138	23.62
404.345	23.56
404.552	23.48
404.758	23.49
404.965	23.4
405.171	23.4
405.378	23.39
405.584	23.35
405.791	23.51
405.997	23.62
406.204	23.53
406.41	23.55
406.617	23.45
406.823	23.68
407.029	23.68
407.236	23.62
407.442	23.65
407.649	23.57
407.855	23.5
408.061	23.44
408.268	23.29
408.474	23.14
408.68	23.21
408.887	23.34
409.093	23.01
409.299	22.92
409.505	22.9
409.712	22.91
409.918	22.73
410.124	22.82
410.33	22.68
410.537	22.77
410.743	22.81
410.949	22.7
411.155	22.58
411.361	22.61
411.567	22.46
411.773	22.23
411.98	22.11
412.186	22.28
412.392	22.31
412.598	22.52
412.804	22.45
413.01	22.54
413.216	22.42
413.422	22.34
413.628	22.35
413.834	22.32
414.04	22.43
414.246	22.33
414.452	22.21
414.658	22.16
414.864	21.98
415.07	22.03
415.275	21.78
415.481	21.83
415.687	21.73
415.893	21.66
416.099	21.49
416.305	21.38
416.511	21.48
416.716	21.49
416.922	21.37
417.128	21.3
417.334	21.22
417.539	21.17
417.745	21.09
417.951	21.07
418.157	21.05
418.362	21.11
418.568	21.07
418.774	20.91
418.979	20.83
419.185	20.81
419.391	20.73
419.596	20.63
419.802	20.64
420.008	20.65
420.213	21.09
420.419	21.11
420.624	20.98
420.83	20.95
421.035	20.91
421.241	20.95
421.446	20.86
421.652	20.87
421.857	20.86
422.063	20.8
422.268	20.67
422.474	20.29
422.679	20.18
422.885	20.23
423.09	20.18
423.295	20.24
423.501	20.1
423.706	20.12
423.911	20.15
424.117	20.2
424.322	20.2
424.527	20.27
424.733	20.12
424.938	20.14
425.143	20.16
425.349	20.2
425.554	20.15
425.759	20.13
425.964	20.19
426.169	20.11
426.375	20.07
426.58	20.12
426.785	20.07
426.99	20.28
427.195	20.27
427.4	20.18
427.605	20.16
427.811	20.05
428.016	20.13
428.221	20.2
428.426	20.16
428.631	20.16
428.836	20.14
429.041	20.16
429.246	19.99
429.451	19.98
429.656	20.02
429.861	20.12
430.066	20.3
430.271	20.27
430.476	20.14
430.681	20.33
430.886	20.2
431.09	20.21
431.295	20.22
431.5	20.24
431.705	20.28
431.91	20.44
432.115	20.36
432.32	20.21
432.524	20.16
432.729	20.14
432.934	20.02
433.139	20.04
433.343	20.11
433.548	20.12
433.753	20.04
433.958	19.9
434.162	19.71
434.367	19.65
434.572	19.74
434.776	19.81
434.981	19.74
435.186	19.7
435.39	19.72
435.595	19.72
435.799	19.74
436.004	19.81
436.209	19.82
436.413	19.83
436.618	19.78
436.822	19.9
437.027	19.96
437.231	20.09
437.436	20.15
437.64	20.22
437.845	20.08
438.049	20.07
438.253	19.99
438.458	20.02
438.662	20
438.867	20.09
439.071	20.01
439.275	19.94
439.48	19.79
439.684	19.7
439.888	19.58
440.093	19.68
440.297	19.63
440.501	19.58
440.706	19.6
440.91	19.66
441.114	19.71
441.318	19.66
441.523	19.67
441.727	19.9
441.931	20.06
442.135	20.09
442.339	20.07
442.543	20.12
442.748	20.18
442.952	20.28
443.156	20.24
443.36	20.22
443.564	20.19
443.768	20.12
443.972	19.99
444.176	19.86
444.38	19.89
444.584	19.71
444.788	19.58
444.992	19.59
445.196	19.46
445.4	19.48
445.604	19.38
445.808	19.39
446.012	19.39
446.216	19.35
446.42	19.3
446.624	19.19
446.828	19.27
447.032	19.35
447.235	19.32
447.439	19.33
447.643	19.3
447.847	19.34
448.051	19.36
448.254	19.43
448.458	19.53
448.662	19.58
448.866	19.72
449.069	19.7
449.273	19.69
449.477	19.68
449.681	19.72
449.884	19.64
450.088	19.73
450.292	19.7
450.495	19.63
450.699	19.56
450.902	19.62
451.106	19.59
451.31	19.48
451.513	19.53
451.717	19.53
451.92	19.47
452.124	19.43
452.327	19.35
452.531	19.44
452.734	19.45
452.938	19.43
453.141	19.36
453.345	19.32
453.548	19.49
453.752	19.55
453.955	19.62
454.158	19.46
454.362	19.44
454.565	19.53
454.769	19.47
454.972	19.5
455.175	19.54
455.379	19.4
455.582	19.44
455.785	19.37
455.988	19.25
456.192	19.14
456.395	19.28
456.598	19.4
456.801	19.26
457.005	19.1
457.208	19
457.411	18.99
457.614	19.06
457.817	19.07
458.021	19.01
458.224	19.08
458.427	19.07
458.63	19
458.833	19.02
459.036	19.01
459.239	19.05
459.442	19.04
459.645	19.06
459.848	19.01
460.051	19.01
460.254	19.1
460.457	19.02
460.66	19.08
460.863	19.16
461.066	19.15
461.269	19.12
461.472	19.23
461.675	19.29
461.878	19.26
462.081	19.46
462.284	19.39
462.486	19.37
462.689	19.38
462.892	19.46
463.095	19.58
463.298	19.64
463.5	19.73
463.703	19.56
463.906	19.62
464.109	19.64
464.311	19.64
464.514	19.72
464.717	19.86
464.92	19.86
465.122	19.81
465.325	19.8
465.528	19.72
465.73	19.86
465.933	19.99
466.135	19.99
466.338	20
466.541	19.97
466.743	19.92
466.946	19.91
467.148	20.02
467.351	20.08
467.553	20.06
467.756	20.11
467.958	20.15
468.161	20.18
468.363	20.24
468.566	20.25
468.768	20.25
468.971	20.34
469.173	20.33
469.375	20.2
469.578	20.11
469.78	20.14
469.983	20.13
470.185	20.05
470.387	20.03
470.59	20.1
470.792	20
470.994	20.04
471.196	20.09
471.399	20
471.601	20.14
471.803	20.21
472.005	20.23
472.208	20.24
472.41	20.24
472.612	20.32
472.814	20.2
473.016	20.38
473.218	20.47
473.421	20.39
473.623	20.43
473.825	20.36
474.027	20.32
474.229	20.28
474.431	20.21
474.633	20.22
474.835	20.09
475.037	20.12
475.239	19.96
475.441	19.79
475.643	19.83
475.845	19.84
476.047	19.86
476.249	19.87
476.451	19.81
476.653	19.91
476.855	19.93
477.057	19.86
477.258	19.83
477.46	19.86
477.662	19.9
477.864	19.84
478.066	19.73
478.268	19.67
478.469	19.72
478.671	19.69
478.873	19.68
479.075	19.62
479.276	19.74
479.478	19.67
479.68	19.72
479.882	19.7
480.083	19.64
480.285	19.75
480.487	19.78
480.688	19.76
480.89	19.78
481.091	19.65
481.293	19.58
481.495	19.52
481.696	19.51
481.898	19.46
482.099	19.4
482.301	19.33
482.502	19.28
482.704	19.21
482.905	19.16
483.107	19.07
483.308	19.07
483.51	19.04
483.711	18.99
483.913	18.96
484.114	18.93
484.315	18.94
484.517	18.96
484.718	18.95
484.92	19
485.121	19
485.322	19.08
485.524	19.09
485.725	19.12
485.926	19.13
486.127	19.14
486.329	19.17
486.53	19.15
486.731	19.15
486.932	19.14
487.134	19.11
487.335	19.11
487.536	19.12
487.737	19.15
487.938	19.2
488.139	19.26
488.341	19.31
488.542	19.36
488.743	19.46
488.944	19.52
489.145	19.57
489.346	19.64
489.547	19.68
489.748	19.65
489.949	19.6
490.15	19.58
490.351	19.59
490.552	19.6
490.753	19.53
490.954	19.49
491.155	19.48
491.356	19.49
491.557	19.48
491.758	19.5
491.959	19.56
492.159	19.62
492.36	19.67
492.561	19.7
492.762	19.77
492.963	19.92
493.164	19.93
493.364	20.03
493.565	20.08
493.766	20.13
493.967	20.24
494.167	20.29
494.368	20.28
494.569	20.31
494.769	20.34
494.97	20.32
495.171	20.27
495.371	20.47
495.572	20.58
495.773	20.63
495.973	20.74
496.174	20.73
496.375	20.8
496.575	20.93
496.776	20.92
496.976	20.97
497.177	21.03
497.377	21.1
497.578	21.12
497.778	21.14
497.979	21.17
498.179	21.15
498.38	21.18
498.58	21.26
498.78	21.32
498.981	21.47
499.181	21.53
499.382	21.62
499.582	21.68
499.782	21.72
499.983	21.78
500.183	21.94
500.383	21.94
500.584	22.06
500.784	22.12
500.984	22.14
501.184	22.21
501.385	22.26
501.585	22.32
501.785	22.36
501.985	22.36
502.185	22.44
502.386	22.44
502.586	22.49
502.786	22.63
502.986	22.66
503.186	22.72
503.386	22.67
503.586	22.8
503.786	22.86
503.987	22.97
504.187	23.07
504.387	23.11
504.587	23.26
504.787	23.35
504.987	23.38
505.187	23.39
505.387	23.48
505.587	23.73
505.786	23.72
505.986	23.89
506.186	23.91
506.386	23.94
506.586	23.95
506.786	23.94
506.986	24.09
507.186	24.1
507.386	24.28
507.585	24.34
507.785	24.26
507.985	24.28
508.185	24.25
508.384	24.35
508.584	24.43
508.784	24.61
508.984	24.62
509.183	24.65
509.383	24.73
509.583	24.81
509.782	24.92
509.982	25.09
510.182	25.14
510.381	25.28
510.581	25.44
510.781	25.56
510.98	25.55
511.18	25.74
511.379	25.83
511.579	25.89
511.778	25.84
511.978	25.78
512.177	25.88
512.377	26.06
512.576	26.18
512.776	26.09
512.975	26.18
513.175	26.33
513.374	26.46
513.573	26.53
513.773	26.64
513.972	26.76
514.172	26.98
514.371	27.02
514.57	27.16
514.77	27.18
514.969	27.38
515.168	27.5
515.367	27.6
515.567	27.65
515.766	27.73
515.965	27.8
516.164	27.86
516.364	27.88
516.563	27.93
516.762	27.9
516.961	27.98
517.16	27.99
517.359	27.99
517.559	27.96
517.758	27.9
517.957	27.91
518.156	27.9
518.355	28.02
518.554	28.08
518.753	28.16
518.952	28.2
519.151	28.2
519.35	28.29
519.549	28.32
519.748	28.41
519.947	28.59
520.146	28.75
520.345	28.83
520.544	28.81
520.743	28.96
520.942	28.97
521.141	29.13
521.339	29.26
521.538	29.4
521.737	29.52
521.936	29.71
522.135	29.74
522.333	29.76
522.532	29.96
522.731	30.05
522.93	30.1
523.129	30.14
523.327	30.11
523.526	30.17
523.725	30.18
523.923	30.22
524.122	30.2
524.321	30.25
524.519	30.31
524.718	30.3
524.917	30.4
525.115	30.43
525.314	30.48
525.512	30.61
525.711	30.74
525.909	30.77
526.108	30.8
526.306	30.81
526.505	30.79
526.703	30.82
526.902	30.82
527.1	30.8
527.299	30.78
527.497	30.72
527.696	30.65
527.894	30.55
528.092	30.55
528.291	30.52
528.489	30.57
528.688	30.61
528.886	30.61
529.084	30.61
529.283	30.6
529.481	30.67
529.679	30.89
529.877	31.06
530.076	31.21
530.274	31.33
530.472	31.5
530.67	31.56
530.869	31.65
531.067	31.74
531.265	31.82
531.463	31.94
531.661	31.94
531.859	31.9
532.057	31.88
532.255	31.84
532.454	31.79
532.652	31.79
532.85	31.79
533.048	31.84
533.246	31.84
533.444	31.89
533.642	31.89
533.84	31.96
534.038	32.05
534.236	32.18
534.434	32.36
534.632	32.42
534.83	32.44
535.027	32.53
535.225	32.51
535.423	32.55
535.621	32.6
535.819	32.66
536.017	32.72
536.215	32.7
536.412	32.7
536.61	32.74
536.808	32.87
537.006	32.96
537.203	33.07
537.401	33.19
537.599	33.38
537.797	33.47
537.994	33.56
538.192	33.65
538.39	33.8
538.587	33.86
538.785	33.84
538.983	33.79
539.18	33.81
539.378	33.79
539.575	33.79
539.773	33.69
539.97	33.59
540.168	33.55
540.366	33.49
540.563	33.4
540.761	33.35
540.958	33.38
541.155	33.41
541.353	33.36
541.55	33.35
541.748	33.4
541.945	33.45
542.143	33.53
542.34	33.59
542.537	33.67
542.735	33.75
542.932	33.9
543.129	33.92
543.327	34.02
543.524	34.17
543.721	34.25
543.919	34.28
544.116	34.3
544.313	34.4
544.51	34.52
544.708	34.54
544.905	34.61
545.102	34.58
545.299	34.63
545.496	34.62
545.693	34.61
545.891	34.61
546.088	34.6
546.285	34.72
546.482	34.75
546.679	34.79
546.876	34.9
547.073	35.06
547.27	35.21
547.467	35.35
547.664	35.47
547.861	35.62
548.058	35.69
548.255	35.78
548.452	35.81
548.649	35.96
548.846	35.94
549.043	36.06
549.24	36.05
549.437	36.12
549.633	36.07
549.83	36.04
550.027	36.03
550.224	36.21
550.421	36.39
550.618	36.42
550.814	36.4
551.011	36.37
551.208	36.29
551.405	36.38
551.601	36.43
551.798	36.49
551.995	36.56
552.191	36.66
552.388	36.52
552.585	36.45
552.781	36.59
552.978	36.61
553.175	36.74
553.371	36.89
553.568	36.94
553.764	37.05
553.961	37.06
554.157	37.11
554.354	37.09
554.55	37.23
554.747	37.29
554.943	37.26
555.14	37.44
555.336	37.41
555.533	37.48
555.729	37.55
555.926	37.4
556.122	37.48
556.318	37.56
556.515	37.54
556.711	37.73
556.907	37.77
557.104	37.86
557.3	37.92
557.496	38.05
557.693	38.12
557.889	38.02
558.085	38.16
558.281	38.32
558.478	38.42
558.674	38.59
558.87	38.54
559.066	38.61
559.262	38.72
559.459	38.6
559.655	38.69
559.851	38.68
560.047	38.94
560.243	38.98
560.439	38.92
560.635	39.06
560.831	39.09
561.027	39.1
561.223	39.03
561.419	38.94
561.615	39.07
561.811	39.16
562.007	39.22
562.203	39.18
562.399	39.14
562.595	39.18
562.791	39.17
562.987	39.25
563.183	39.42
563.379	39.53
563.575	39.61
563.771	39.55
563.966	39.61
564.162	39.68
564.358	39.77
564.554	39.92
564.75	40
564.945	40.01
565.141	39.99
565.337	39.88
565.533	40.1
565.728	40.09
565.924	40.14
566.12	40.14
566.315	40.23
566.511	40.12
566.707	40.22
566.902	40.29
567.098	40.44
567.293	40.57
567.489	40.75
567.684	40.71
567.88	40.87
568.076	41.02
568.271	40.96
568.467	40.95
568.662	41.1
568.858	41.04
569.053	41.1
569.248	41.17
569.444	41.1
569.639	41.14
569.835	41.26
570.03	41.33
570.225	41.33
570.421	41.41
570.616	41.54
570.812	41.66
571.007	41.66
571.202	41.75
571.397	41.75
571.593	41.84
571.788	41.83
571.983	41.84
572.178	41.84
572.374	41.96
572.569	42.1
572.764	42.04
572.959	42.09
573.154	42.24
573.35	42.29
573.545	42.33
573.74	42.38
573.935	42.47
574.13	42.59
574.325	42.63
574.52	42.75
574.715	42.75
574.91	42.74
575.105	42.72
575.3	42.81
575.495	42.78
575.69	42.74
575.885	42.79
576.08	42.87
576.275	42.83
576.47	42.98
576.665	42.92
576.86	43.01
577.055	43.16
577.25	43.37
577.444	43.44
577.639	43.52
577.834	43.75
578.029	43.74
578.224	43.78
578.418	43.83
578.613	43.88
578.808	44.01
579.003	44.14
579.197	44.05
579.392	43.96
579.587	43.95
579.781	44.07
579.976	44.01
580.171	44.17
580.365	44.28
580.56	44.43
580.755	44.41
580.949	44.59
581.144	44.64
581.338	44.87
581.533	44.8
581.727	44.96
581.922	44.99
582.116	45.05
582.311	45.18
582.505	45.18
582.7	45.22
582.894	45.37
583.089	45.26
583.283	45.44
583.478	45.55
583.672	45.65
583.866	45.59
584.061	45.58
584.255	45.7
584.449	45.68
584.644	45.82
584.838	45.67
585.032	45.53
585.226	45.62
585.421	45.5
585.615	45.51
585.809	45.74
586.003	45.76
586.198	45.87
586.392	45.9
586.586	46.01
586.78	45.98
586.974	46.19
587.168	46.35
587.363	46.3
587.557	46.25
587.751	46.37
587.945	46.32
588.139	46.37
588.333	46.41
588.527	46.49
588.721	46.68
588.915	46.75
589.109	46.73
589.303	46.86
589.497	46.93
589.691	47.17
589.885	47.11
590.079	47.05
590.273	47.1
590.466	47.13
590.66	47.21
590.854	47.1
591.048	47.2
591.242	47.27
591.436	47.17
591.629	47.34
591.823	47.41
592.017	47.65
592.211	47.79
592.404	47.95
592.598	47.96
592.792	47.91
592.986	47.84
593.179	47.79
593.373	47.86
593.567	48.05
593.76	47.96
593.954	48.08
594.147	48.01
594.341	48.08
594.535	48.14
594.728	48.11
594.922	48.01
595.115	48.09
595.309	48.08
595.502	48.1
595.696	48.08
595.889	48.17
596.083	48.17
596.276	48.13
596.47	48.11
596.663	48.09
596.856	48.23
597.05	48.34
597.243	48.45
597.437	48.53
597.63	48.61
597.823	48.64
598.017	48.72
598.21	48.67
598.403	48.72
598.596	48.73
598.79	48.85
598.983	48.94
599.176	49.05
599.369	49.09
599.563	49.21
599.756	49.26
599.949	49.14
600.142	49.19
600.335	49.22
600.528	49.28
600.722	49.42
600.915	49.48
601.108	49.6
601.301	49.71
601.494	49.58
601.687	49.62
601.88	49.64
602.073	49.74
602.266	49.73
602.459	49.71
602.652	49.79
602.845	49.7
603.038	49.38
603.231	49.34
603.424	49.35
603.617	49.52
603.809	49.42
604.002	49.41
604.195	49.38
604.388	49.43
604.581	49.46
604.774	49.35
604.966	49.35
605.159	49.56
605.352	49.5
605.545	49.4
605.737	49.46
605.93	49.68
606.123	49.79
606.316	49.88
606.508	49.93
606.701	50.13
606.894	50.17
607.086	50.3
607.279	50.42
607.471	50.41
607.664	50.51
607.857	50.39
608.049	50.4
608.242	50.26
608.434	50.2
608.627	50.12
608.819	50.04
609.012	50.08
609.204	50.13
609.397	50.05
609.589	50.15
609.782	50.31
609.974	50.54
610.166	50.52
610.359	50.58
610.551	50.96
610.743	51
610.936	51.03
611.128	51.23
611.32	51.17
611.513	51.32
611.705	51.55
611.897	51.36
612.09	51.32
612.282	51.49
612.474	51.58
612.666	51.44
612.858	51.5
613.051	51.58
613.243	51.37
613.435	51.53
613.627	51.53
613.819	51.45
614.011	51.84
614.203	51.83
614.395	51.78
614.588	51.79
614.78	51.86
614.972	51.92
615.164	52.01
615.356	52.14
615.548	51.98
615.74	52.03
615.932	51.92
616.124	51.57
616.315	51.65
616.507	51.65
616.699	51.59
616.891	51.59
617.083	51.7
617.275	51.72
617.467	51.98
617.659	52.24
617.85	52.39
618.042	52.45
618.234	52.49
618.426	52.28
618.618	52.27
618.809	52.3
619.001	52.3
619.193	52.36
619.384	52.33
619.576	52.1
619.768	52.1
619.959	52.03
620.151	52.22
620.343	52.34
620.534	52.35
620.726	52.44
620.917	52.71
621.109	52.68
621.301	52.47
621.492	52.62
621.684	52.72
621.875	52.6
622.067	52.57
622.258	52.18
622.45	51.94
622.641	51.92
622.832	51.95
623.024	51.77
623.215	51.98
623.407	52.22
623.598	51.88
623.789	51.92
623.981	51.98
624.172	52.12
624.363	52.28
624.555	52.58
624.746	52.71
624.937	52.66
625.129	52.73
625.32	52.54
625.511	52.67
625.702	52.74
625.893	52.67
626.085	52.88
626.276	52.8
626.467	52.83
626.658	52.64
626.849	52.64
627.04	52.65
627.231	52.75
627.422	52.8
627.614	52.61
627.805	52.71
627.996	52.9
628.187	52.84
628.378	52.89
628.569	52.96
628.76	53.2
628.951	53.25
629.142	53.14
629.332	53.06
629.523	52.94
629.714	52.95
629.905	52.93
630.096	52.77
630.287	52.53
630.478	52.58
630.669	52.63
630.859	52.58
631.05	52.72
631.241	52.78
631.432	52.72
631.623	52.89
631.813	52.85
632.004	52.87
632.195	52.9
632.385	53.04
632.576	53.03
632.767	52.93
632.957	52.9
633.148	52.78
633.339	52.87
633.529	52.75
633.72	53.03
633.91	53.21
634.101	53.19
634.292	53.28
634.482	53.27
634.673	53.14
634.863	53.34
635.054	53.4
635.244	53.42
635.435	53.37
635.625	53.48
635.815	53.24
636.006	53.19
636.196	53.23
636.387	53.04
636.577	53.09
636.767	53.2
636.958	53.01
637.148	53.04
637.338	53.14
637.529	53.31
637.719	53.35
637.909	53.4
638.099	53.29
638.29	53.36
638.48	53.67
638.67	53.82
638.86	53.92
639.05	54.06
639.241	54.01
639.431	53.94
639.621	54.06
639.811	54.1
640.001	53.8
640.191	53.86
640.381	53.98
640.571	53.86
640.761	53.68
640.951	53.52
641.141	53.61
641.331	53.66
641.521	53.62
641.711	53.57
641.901	53.77
642.091	54.02
642.281	53.97
642.471	53.85
642.661	53.89
642.851	54.15
643.041	54.52
643.231	54.35
643.42	54.33
643.61	54.3
643.8	54.13
643.99	53.86
644.18	53.95
644.369	53.98
644.559	53.82
644.749	53.92
644.939	53.88
645.128	53.65
645.318	53.94
645.508	54.31
645.697	54.41
645.887	54.6
646.076	54.68
646.266	54.79
646.456	54.83
646.645	55.26
646.835	55.3
647.024	55.2
647.214	55.39
647.403	55.14
647.593	54.85
647.782	54.83
647.972	54.87
648.161	55.01
648.351	54.9
648.54	55.15
648.73	55.04
648.919	54.95
649.108	54.95
649.298	55.05
649.487	55.32
649.677	55.39
649.866	55.72
650.055	55.77
650.244	55.79
650.434	55.71
650.623	55.65
650.812	55.67
651.002	55.72
651.191	55.73
651.38	55.41
651.569	55.38
651.758	55.2
651.947	55
652.137	55
652.326	55.2
652.515	55.03
652.704	55.15
652.893	55.14
653.082	55.1
653.271	54.91
653.46	55.14
653.649	55.15
653.838	55.3
654.027	55.34
654.216	55.34
654.405	55.21
654.594	55.62
654.783	55.17
654.972	55.31
655.161	55.58
655.35	56.07
655.539	56.55
655.728	56.39
655.916	56.37
656.105	56.23
656.294	56.21
656.483	56.07
656.672	56.12
656.86	56.24
657.049	56.29
657.238	56.13
657.427	56.05
657.615	55.68
657.804	55.8
657.993	55.81
658.181	56.02
658.37	55.91
658.559	55.8
658.747	55.48
658.936	55.51
659.125	55.11
659.313	55.1
659.502	54.82
659.69	54.76
659.879	54.86
660.067	54.9
660.256	54.79
660.444	54.85
660.633	55.14
660.821	55.54
661.01	55.75
661.198	56.26
661.387	56.33
661.575	56.55
661.763	56.76
661.952	56.73
662.14	56.8
662.328	56.9
662.517	56.89
662.705	56.92
662.893	56.88
663.082	56.76
663.27	56.86
663.458	57.04
663.646	57.13
663.834	56.91
664.023	56.77
664.211	56.9
664.399	56.85
664.587	56.95
664.775	56.83
664.963	56.77
665.152	56.73
665.34	56.71
665.528	56.51
665.716	56.53
665.904	56.76
666.092	57
666.28	56.63
666.468	56.48
666.656	56.34
666.844	56.36
667.032	56.5
667.22	56.6
667.408	56.43
667.596	56.47
667.784	56.35
667.971	56.12
668.159	55.83
668.347	56.18
668.535	56.44
668.723	56.48
668.911	56.68
669.098	56.55
669.286	56.72
669.474	57.01
669.662	57.08
669.849	57.22
670.037	57.48
670.225	57.66
670.413	57.49
670.6	57.32
670.788	57.61
670.976	57.41
671.163	57.48
671.351	57.01
671.538	56.7
671.726	56.63
671.913	56.49
672.101	56.43
672.289	56.47
672.476	56.39
672.664	56.36
672.851	56.1
673.039	56.12
673.226	56.34
673.413	57.17
673.601	57.37
673.788	57.28
673.976	57.21
674.163	57.23
674.35	56.84
674.538	56.96
674.725	57.06
674.912	57.26
675.1	57.41
675.287	57.34
675.474	57.11
675.662	57.01
675.849	57.32
676.036	57.4
676.223	57.37
676.411	57.61
676.598	57.5
676.785	57.8
676.972	57.88
677.159	57.77
677.346	57.93
677.533	57.79
677.721	57.82
677.908	57.85
678.095	57.9
678.282	57.9
678.469	57.84
678.656	57.93
678.843	57.87
679.03	57.72
679.217	57.6
679.404	57.45
679.591	57.46
679.778	57.19
679.964	57.16
680.151	57.16
680.338	57.06
680.525	57.44
680.712	57.32
680.899	57.23
681.086	57.36
681.272	57.69
681.459	57.74
681.646	57.89
681.833	58.3
682.02	58.08
682.206	58.18
682.393	58.04
682.58	57.86
682.766	58.05
682.953	57.99
683.14	57.88
683.326	58.18
683.513	58.28
683.7	58.05
683.886	58.03
684.073	57.98
684.259	57.83
684.446	58.52
684.632	58.64
684.819	58.7
685.005	58.63
685.192	58.66
685.378	58.46
685.565	58.49
685.751	58.54
685.938	58.47
686.124	58.88
686.31	59.22
686.497	59.16
686.683	59.12
686.87	58.89
687.056	58.92
687.242	58.82
687.429	58.63
687.615	58.35
687.801	58.44
687.987	58.43
688.174	58.26
688.36	58.22
688.546	58.02
688.732	57.83
688.918	58.47
689.105	58.27
689.291	58.48
689.477	58.33
689.663	58.51
689.849	58.5
690.035	58.46
690.221	58.4
690.407	58.39
690.593	58.29
690.779	58.28
690.965	57.56
691.151	58.04
691.337	58.04
691.523	58.08
691.709	58.09
691.895	58.02
692.081	58.2
692.267	58.67
692.453	58.53
692.639	58.69
692.825	58.82
693.011	59.08
693.196	58.76
693.382	58.68
693.568	58.3
693.754	58.24
693.94	58.33
694.125	58.56
694.311	58.07
694.497	58.27
694.682	58.04
694.868	58.27
695.054	58.06
695.239	58.2
695.425	58.22
695.611	58.84
695.796	58.96
695.982	59.15
696.168	58.77
696.353	58.6
696.539	58.69
696.724	58.74
696.91	58.65
697.095	58.95
697.281	58.85
697.466	58.99
697.652	58.98
697.837	58.95
698.023	58.83
698.208	58.72
698.393	58.84
698.579	58.64
698.764	58.81
698.949	58.98
699.135	58.77
699.32	58.82
699.505	58.69
699.691	58.69
699.876	58.69
700.061	58.43
700.246	58.63
700.432	58.53
700.617	58.66
700.802	58.7
700.987	58.47
701.172	59.16
701.358	59.29
701.543	59.47
701.728	59.13
701.913	59.06
702.098	59.3
702.283	59.52
702.468	59.88
702.653	60.2
702.838	60.13
703.023	60.1
703.208	59.74
703.393	60.08
703.578	60.09
703.763	60.43
703.948	60.78
704.133	60.92
704.318	61.19
704.503	61.35
704.688	60.97
704.873	60.77
705.057	60.79
705.242	60.85
705.427	60.37
705.612	60.25
705.797	60.17
705.981	59.99
706.166	59.79
706.351	59.65
706.536	59.44
706.72	59.44
706.905	59.63
707.09	59.77
707.274	59.93
707.459	60.07
707.644	60.35
707.828	60.18
708.013	59.46
708.197	59.77
708.382	59.67
708.567	59.65
708.751	59.75
708.936	59.69
709.12	59.64
709.305	59.25
709.489	59.43
709.673	58.81
709.858	58.87
710.042	59.28
710.227	59.25
710.411	59.23
710.596	59.32
710.78	59.34
710.964	59.24
711.149	59.38
711.333	59.46
711.517	59.24
711.702	59.48
711.886	59.45
712.07	59.65
712.254	59.29
712.438	59.34
712.623	59.31
712.807	59.11
712.991	58.85
713.175	58.59
713.359	58.45
713.544	58.56
713.728	58.74
713.912	58.65
714.096	58.85
714.28	59.09
714.464	58.73
714.648	58.46
714.832	58.56
715.016	58.76
715.2	58.64
715.384	58.96
715.568	58.74
715.752	58.34
715.936	59.01
716.12	58.96
716.304	58.93
716.488	59.11
716.671	59.12
716.855	59.44
717.039	59.31
717.223	59.38
717.407	59.47
717.59	59.44
717.774	59.9
717.958	59.44
718.142	59.35
718.325	59.27
718.509	59.55
718.693	59.82
718.877	59.46
719.06	59.76
719.244	60.29
719.428	60.09
719.611	60.43
719.795	60.82
719.978	60.66
720.162	60.5
720.345	60.53
720.529	60.61
720.713	60.82
720.896	61.19
721.08	61.08
721.263	60.96
721.446	61.12
721.63	61.13
721.813	61.01
721.997	61.13
722.18	61.26
722.364	61.22
722.547	60.71
722.73	60.63
722.914	60.42
723.097	60.18
723.28	59.64
723.464	59.49
723.647	59.69
723.83	59.36
724.013	59.71
724.197	59.8
724.38	60.03
724.563	60.68
724.746	60.62
724.929	60.46
725.112	60.67
725.296	61
725.479	60.72
725.662	60.46
725.845	60.78
726.028	60.23
726.211	60.08
726.394	59.91
726.577	59.07
726.76	59.08
726.943	59.37
727.126	59.13
727.309	59.58
727.492	59.96
727.675	59.9
727.858	59.72
728.041	59.83
728.224	59.74
728.407	59.54
728.589	60.04
728.772	59.87
728.955	59.68
729.138	60
729.321	59.49
729.503	59.45
729.686	59.6
729.869	59.56
730.052	60.23
730.234	60.54
730.417	60.59
730.6	60.49
730.782	60.77
730.965	60.8
731.148	60.93
731.33	61.42
731.513	61.13
731.695	61.1
731.878	61.02
732.061	60.52
732.243	60.34
732.426	60.85
732.608	61
732.791	61.01
732.973	60.91
733.156	60.97
733.338	60.66
733.52	60.59
733.703	60.62
733.885	60.72
734.068	60.6
734.25	60.68
734.432	60.22
734.615	60.15
734.797	60.03
734.979	59.83
735.162	59.73
735.344	59.73
735.526	59.93
735.708	59.82
735.891	60.36
736.073	60.73
736.255	60.81
736.437	61.11
736.619	61.03
736.802	61.23
736.984	61.42
737.166	61.02
737.348	61.22
737.53	61.12
737.712	61.02
737.894	60.56
738.076	60.33
738.258	60.36
738.44	60.15
738.622	60.12
738.804	59.81
738.986	59.97
739.168	60.38
739.35	59.55
739.532	60.03
739.714	60.38
739.896	59.92
740.078	60.11
740.259	60.27
740.441	60.33
740.623	59.99
740.805	60.51
740.987	60.22
741.168	59.83
741.35	60.38
741.532	59.75
741.714	59.42
741.895	59.52
742.077	59.4
742.259	58.6
742.44	58.63
742.622	59.22
742.804	58.78
742.985	58.71
743.167	59.4
743.348	58.92
743.53	60.07
743.711	60.15
743.893	60.23
744.075	59.86
744.256	59.96
744.438	60.45
744.619	59.83
744.8	60.04
744.982	60.11
745.163	60.1
745.345	60.08
745.526	59.47
745.707	60.38
745.889	60.59
746.07	60.51
746.252	61.35
746.433	60.84
746.614	61.8
746.795	61.74
746.977	61.89
747.158	61.84
747.339	62.48
747.52	62.29
747.702	61.25
747.883	60.79
748.064	61.26
748.245	60.94
748.426	61.23
748.607	61.1
748.788	61.14
748.97	61.84
749.151	61.83
749.332	61.7
749.513	61.98
749.694	61.8
749.875	62.54
750.056	62.52
750.237	61.65
750.418	61.01
750.599	60.5
750.78	60.26
750.96	60.16
751.141	60.2
751.322	60.45
751.503	60.08
751.684	60.47
751.865	59.76
752.046	60.16
752.226	60.47
752.407	60.8
752.588	60.87
752.769	60.94
752.949	60.61
753.13	60.72
753.311	60.84
753.492	61.44
753.672	61.52
753.853	62.49
754.034	61.51
754.214	61.93
754.395	62.22
754.575	62.16
754.756	61.88
754.937	61.88
755.117	61.52
755.298	61.62
755.478	61.37
755.659	61.62
755.839	61.4
756.02	62.52
756.2	62.88
756.381	62.87
756.561	63.71
756.741	64.67
756.922	64.46
757.102	64.1
757.283	63.9
757.463	63.67
757.643	63.49
757.823	63.35
758.004	62.71
758.184	62.7
758.364	62.6
758.545	62.2
758.725	61.2
758.905	60.68
759.085	60.51
759.265	60.46
759.446	60.22
759.626	60.06
759.806	60.25
759.986	60.24
760.166	60.42
760.346	60.28
760.526	59.89
760.706	60.36
760.886	61
761.066	61.01
761.246	60.52
761.426	60.42
761.606	59.99
761.786	59.85
761.966	60
762.146	59.37
762.326	59.35
762.506	59.43
762.686	58.95
762.866	58.94
763.046	59.21
763.225	59.3
763.405	59.62
763.585	59.89
763.765	59.76
763.945	59.31
764.124	59.45
764.304	59.21
764.484	59.14
764.664	59.41
764.843	59.32
765.023	59.44
765.203	59.85
765.382	59.43
765.562	59.72
765.741	59.74
765.921	60.5
766.101	60.51
766.28	61.22
766.46	61.53
766.639	61.67
766.819	61.87
766.998	61.68
767.178	61.58
767.357	62.02
767.537	61.44
767.716	61.26
767.896	60.88
768.075	60.83
768.254	59.89
768.434	59.44
768.613	59.64
768.792	59.21
768.972	59.05
769.151	58.64
769.33	58.29
769.51	59.34
769.689	60.09
769.868	60.2
770.047	60.86
770.226	61.66
770.406	61.27
770.585	60.92
770.764	61.36
770.943	61.75
771.122	61.41
771.301	61.66
771.48	60.98
771.66	60.11
771.839	60.29
772.018	59.45
772.197	59.03
772.376	59.98
772.555	60.15
772.734	59.47
772.913	58.29
773.092	58.65
773.271	58.25
773.449	58.3
773.628	58.74
773.807	58.3
773.986	58.59
774.165	58.93
774.344	58.61
774.523	58.8
774.701	59.8
774.88	61.04
775.059	61.28
775.238	61.3
775.417	60.45
775.595	60.43
775.774	61.21
775.953	61.2
776.131	61.82
776.31	61.65
776.489	62.17
776.667	61.66
776.846	61.45
777.025	60.38
777.203	60.72
777.382	62.24
777.56	62.14
777.739	61.47
777.917	61.43
778.096	60.36
778.274	60.46
778.453	59.06
778.631	59.07
778.81	58.82
778.988	60.37
779.166	60.46
779.345	60.23
779.523	60.72
779.702	61.7
779.88	61.95
780.058	62.18
780.237	61.82
780.415	62
780.593	63.09
780.771	62.72
780.95	61.9
781.128	61.93
781.306	61.37
781.484	60.74
781.662	59.2
781.841	58.12
782.019	58.12
782.197	58.84
782.375	58.16
782.553	56.68
782.731	56.83
782.909	56.56
783.087	56.95
783.265	56.47
783.443	57.24
783.621	58.28
783.799	59.29
783.977	60.6
784.155	59.85
784.333	61.8
784.511	62.04
784.689	62.45
784.867	63.69
785.045	63.62
785.223	64.19
785.4	63.95
785.578	63.49
785.756	62.52
785.934	61.39
786.112	61.91
786.289	60.08
786.467	60.18
786.645	60.94
786.823	59.4
787	58.47
787.178	58.26
787.356	57.86
787.533	57.87
787.711	58.79
787.889	58.95
788.066	58.49
788.244	60.11
788.421	59.99
788.599	58.39
788.776	59.2
788.954	59.83
789.131	59.26
789.309	59.6
789.486	59.38
789.664	59.34
789.841	58.84
790.019	59.88
790.196	58.47
790.373	58.51
790.551	59.6
790.728	59.73
790.906	59.22
791.083	58.55
791.26	57.85
791.437	57.8
791.615	57.66
791.792	58
791.969	55.98
792.146	56.65
792.324	55.87
792.501	55.17
792.678	54.87
792.855	54.4
793.032	55.88
793.209	57.14
793.387	56.89
793.564	57.79
793.741	56.72
793.918	58.48
794.095	58.77
794.272	59.28
794.449	60.75
794.626	61
794.803	61.15
794.98	60.75
795.157	59.65
795.334	59.72
795.511	58.06
795.688	58.71
795.864	58.14
796.041	57.71
796.218	58.75
796.395	57.16
796.572	57.06
796.749	57.26
796.925	57.72
797.102	58.35
797.279	58.44
797.456	59.31
797.632	59.04
797.809	59.49
797.986	59.23
798.162	58.98
798.339	59.56
798.516	59.07
798.692	59.74
798.869	59.05
799.046	58.3
799.222	58.58
799.399	57.51
799.575	58.49
799.752	58.14
799.928	58.98
800.105	58.18
800.281	58.04
800.458	58.26
800.634	57.8
800.811	57.52
800.987	57.92
801.163	57.77
801.34	59.86
801.516	60.01
801.692	60.8
801.869	60.46
802.045	60.72
802.221	60.87
802.398	60.64
802.574	61.5
802.75	62.27
802.926	61.5
803.103	61.85
803.279	61.14
803.455	60.31
803.631	59.24
803.807	59.63
803.983	58.6
804.16	58.76
804.336	60.16
804.512	60.15
804.688	60.5
804.864	60.57
805.04	60.11
805.216	59.88
805.392	60.39
805.568	60.91
805.744	61.25
805.92	61.98
806.096	62.68
806.272	61.63
806.448	61.52
806.623	61.73
806.799	62.96
806.975	63.73
807.151	63.47
807.327	64.01
807.503	63.13
807.678	62.73
807.854	62.89
808.03	62.39
808.206	62.71
808.381	63.23
808.557	62.97
808.733	63.85
808.908	62.72
809.084	62.28
809.26	60.95
809.435	61.83
809.611	61.81
809.787	62.28
809.962	61.26
810.138	61.56
810.313	60.62
810.489	60.73
810.664	59.08
810.84	58.68
811.015	58.87
811.191	58.75
811.366	57.34
811.542	56.65
811.717	57.2
811.892	57.39
812.068	57.82
812.243	57.41
812.419	57.37
812.594	57.31
812.769	58.27
812.944	59.09
813.12	59.12
813.295	60.71
813.47	60.63
813.645	59.99
813.821	60.01
813.996	59.72
814.171	60.14
814.346	61.2
814.521	60
814.697	59.29
814.872	57.78
815.047	58.45
815.222	58.32
815.397	57.57
815.572	57.57
815.747	57.26
815.922	57.2
816.097	57.22
816.272	55.94
816.447	56.75
816.622	57.93
816.797	59.19
816.972	58.52
817.147	58.9
817.322	59.36
817.496	57.73
817.671	58.35
817.846	58.13
818.021	58.66
818.196	58.7
818.371	58.69
818.545	58.91
818.72	58.09
818.895	58.73
819.069	57.81
819.244	58.83
819.419	59.51
819.594	59.57
819.768	59.55
819.943	60.67
820.117	60.67
820.292	60.12
820.467	59.93
820.641	60.39
820.816	60.12
820.99	60.29
821.165	59.69
821.339	59.82
821.514	59.56
821.688	59.43
821.863	58.63
822.037	58.39
822.212	58.46
822.386	58.27
822.56	57.77
822.735	57.59
822.909	57.24
823.084	57.51
823.258	57.28
823.432	57.4
823.606	57.11
823.781	57.18
823.955	57.26
824.129	57.22
824.303	57.37
824.478	57.78
824.652	57.77
824.826	58.11
825	58.01
825.174	57.89
825.348	57.46
825.523	57.3
825.697	57.03
825.871	56.83
826.045	56.94
826.219	56.88
826.393	56.49
826.567	56.72
826.741	56.79
826.915	57.02
827.089	57.42
827.263	57.4
827.437	57.57
827.611	58.04
827.784	58.34
827.958	58.27
828.132	57.87
828.306	58.38
828.48	58.1
828.654	58.05
828.827	56.56
829.001	56.26
829.175	56.8
829.349	56.96
829.522	57.14
829.696	56.84
829.87	57.35
830.044	58.2
830.217	58.33
830.391	59.82
830.565	59.75
830.738	61.79
830.912	63.3
831.085	63.27
831.259	64.28
831.432	63.49
831.606	63.76
831.779	62.46
831.953	60.8
832.126	60.23
832.3	59.58
832.473	59.43
832.647	58.9
832.82	57.5
832.994	57.21
833.167	56.91
833.34	56.43
833.514	56.56
833.687	57.06
833.86	57.97
834.034	58.27
834.207	57.51
834.38	57.25
834.553	57.65
834.727	57.81
834.9	57.88
835.073	57.87
835.246	59.05
835.419	58.74
835.593	58.77
835.766	58.37
835.939	58.7
836.112	59.49
836.285	60.13
836.458	59.78
836.631	59.47
836.804	59.48
836.977	60.18
837.15	59.29
837.323	60.46
837.496	60.43
837.669	59.47
837.842	59.69
838.015	60.06
838.188	59.65
838.361	59.83
838.533	59.75
838.706	61.12
838.879	58.5
839.052	60.5
839.225	58.81
839.398	58.38
839.57	60.19
839.743	59.02
839.916	58.13
840.088	59.15
840.261	58.28
840.434	58.75
840.607	57.01
840.779	58.28
840.952	56.91
841.124	58.24
841.297	58.16
841.47	58.01
841.642	57.49
841.815	56.61
841.987	55.21
842.16	55.07
842.332	54.31
842.505	54.75
842.677	54.76
842.85	55.59
843.022	55.7
843.194	55.66
843.367	54.25
843.539	55.03
843.712	55.5
843.884	57.63
844.056	57.29
844.229	59.07
844.401	60.23
844.573	61.54
844.745	61.85
844.918	60.68
845.09	62.33
845.262	67.22
845.434	64.95
845.606	69.69
845.779	69.35
845.951	71.75
846.123	69.39
846.295	70.1
846.467	68.24
846.639	67.73
846.811	69.07
846.983	66.53
847.155	61.98
847.327	64.15
847.499	59.34
847.671	59.58
847.843	57.89
848.015	59.38
848.187	58.16
848.359	57.84
848.531	58.37
848.703	59.14
848.875	60.36
849.047	61.85
849.218	62.08
849.39	64.43
849.562	61.92
849.734	63.52
849.905	62.58
850.077	63.02
850.249	65.74
850.421	64.38
850.592	59.02
850.764	59.13
850.936	59.99
851.107	60.01
851.279	61.07
851.451	62.05
851.622	59.46
851.794	61.39
851.965	61.91
852.137	59.44
852.308	60.73
852.48	67.23
852.651	68.18
852.823	68.32
852.994	65.73
853.166	65.37
853.337	66.64
853.509	69.85
853.68	68.93
853.851	67.69
854.023	67.59
854.194	66.41
854.365	64.19
854.537	61.41
854.708	62.05
854.879	65.34
855.05	61.25
855.222	62.71
855.393	62.49
855.564	66.66
855.735	68.73
855.906	66.76
856.078	67.13
856.249	67.89
856.42	71.73
856.591	69.22
856.762	68.89
856.933	73.65
857.104	68.07
857.275	68.43
857.446	62.28
857.617	61.53
857.788	64.42
857.959	65.04
858.13	63.44
858.301	62.81
858.472	65.15
858.643	62.27
858.814	57.89
858.985	58.44
859.155	61.45
859.326	61.91
859.497	60.18
859.668	56.65
859.839	53.54
860.009	53.94
860.18	53.16
860.351	50.82
860.522	54.34
860.692	60.88
860.863	61.47
861.034	58.48
861.204	60.1
861.375	58.27
861.546	63.35
861.716	67.72
861.887	69.35
862.057	70.99
862.228	70.54
862.398	70.52
862.569	68.37
862.739	71.32
862.91	67.49
863.08	66.05
863.251	71.94
863.421	69.92
863.592	65.68
863.762	61.25
863.932	58.94
864.103	61.25
864.273	63.24
864.443	64.25
864.614	61.25
864.784	64.14
864.954	66.78
865.125	65.28
865.295	62.53
865.465	62.72
865.635	62.08
865.805	64.07
865.976	60.88
866.146	58.23
866.316	55.17
866.486	53.22
866.656	57.13
866.826	54.59
866.996	52.03
867.166	56.6
867.336	57.41
867.506	59.82
867.676	56.41
867.846	56.21
868.016	53.82
868.186	60.18
868.356	64.58
868.526	60.05
868.696	62.81
868.866	68.28
869.036	64.24
869.206	64.88
869.376	66.5
869.545	68.86
869.715	75.73
869.885	76.14
870.055	68.04
870.224	70.24
870.394	71.83
870.564	74.85
870.734	69.33
870.903	72.7
871.073	72.35
871.243	71.59
871.412	73.98
871.582	69.49
871.751	75.89
871.921	77.2
872.091	72.15
872.26	71.59
872.43	66.91
872.599	61.35
872.769	60.02
872.938	59.18
873.108	62.23
873.277	58.71
873.446	63.32
873.616	57.17
873.785	61.56
873.955	59.14
874.124	55.18
874.293	51
874.463	57.07
874.632	60.92
874.801	62.26
874.971	61.09
875.14	66.88
875.309	66.24
875.478	69.85
875.647	67.49
875.817	71.28
875.986	75.54
876.155	80.62
876.324	80.38
876.493	77.28
876.662	76.08
876.831	74.39
877	65.64
877.17	61.01
877.339	60.27
877.508	58.68
877.677	61.72
877.846	61.78
878.015	61.85
878.184	60.47
878.352	60.91
878.521	60.5
878.69	61.21
878.859	66.04
879.028	67.92
879.197	68.53
879.366	68.06
879.534	64.77
879.703	62.06
879.872	60.84
880.041	61.97
880.21	61.14
880.378	60.58
880.547	59.55
880.716	58.31
880.884	56.71
881.053	55.33
881.222	54.75
881.39	55.04
881.559	55.45
881.727	55.04
881.896	53.67
882.065	53.52
882.233	53.33
882.402	53.88
882.57	54.13
882.739	54.57
882.907	55.59
883.076	56.06
883.244	55.26
883.412	55.21
883.581	56.11
883.749	56.27
883.918	55.79
884.086	56.32
884.254	56.19
884.423	55.82
884.591	56.71
884.759	55.37
884.927	55.02
885.096	55.49
885.264	56.09
885.432	54.77
885.6	56.43
885.769	56.99
885.937	55.75
886.105	56.55
886.273	57.1
886.441	54.61
886.609	56.49
886.777	56.46
886.945	55.41
887.113	54.14
887.281	53.19
887.449	50.21
887.617	50.51
887.785	52.82
887.953	51.49
888.121	50.14
888.289	51.61
888.457	51.89
888.625	54.4
888.793	56.77
888.961	55.26
889.129	59.58
889.296	63.97
889.464	65.37
889.632	64.35
889.8	64.15
889.967	66.39
890.135	69.39
