Data from 2938508_Reflection_3.txt Node
Date: Tue Jun 16 22:54:40 EDT 2015
User: robert
Spectrometer: USB4E03002
Autoset integration time: false
Trigger mode: 4
Integration Time (sec): 1.000000E-1
Scans to average: 10
Electric dark correction enabled: true
Nonlinearity correction enabled: false
Boxcar width: 5
Stray light correction enabled: false
XAxis mode: Wavelengths
Stop averaging: false
Number of Pixels in Spectrum: 3648
>>>>>Begin Spectral Data<<<<<
177.575	-8.39
177.794	-46.68
178.014	10.84
178.233	32.97
178.452	80.37
178.672	63.12
178.891	69.88
179.11	-181.36
179.33	-563.55
179.549	-47.04
179.768	-56.48
179.987	30.68
180.207	-33.2
180.426	69.97
180.645	523.57
180.864	-725.75
181.084	3.07
181.303	38.97
181.522	32.38
181.741	34.86
181.96	28.51
182.179	34.27
182.398	76.34
182.618	75.12
182.837	91.67
183.056	77.22
183.275	126.4
183.494	81.65
183.713	-21.05
183.932	-123.51
184.151	-18.48
184.37	-728.16
184.589	145.61
184.808	98.06
185.027	142.12
185.246	122.8
185.465	159.22
185.684	136.28
185.903	168.32
186.122	145.87
186.341	166.39
186.56	180.39
186.779	237.87
186.998	388.29
187.216	514.21
187.435	300.37
187.654	291.58
187.873	364.75
188.092	404.7
188.311	347.71
188.53	252.66
188.748	435.99
188.967	1710.75
189.186	140.1
189.405	85.31
189.623	97.32
189.842	86.7
190.061	74.56
190.28	84.24
190.498	52.72
190.717	33.21
190.936	56.08
191.154	45.5
191.373	51.96
191.592	47.57
191.81	48.82
192.029	42.18
192.248	25.41
192.466	-15.95
192.685	16.91
192.904	-4.59
193.122	33.33
193.341	238.78
193.559	110.66
193.778	125.03
193.996	55.1
194.215	-61.56
194.433	-108.43
194.652	-349.05
194.87	1312.45
195.089	231.33
195.307	218.78
195.526	148.9
195.744	187.74
195.963	189.1
196.181	157.84
196.399	166.85
196.618	179.28
196.836	123.96
197.055	103.08
197.273	126.85
197.491	160.27
197.71	118.45
197.928	107.98
198.146	91.65
198.365	47.27
198.583	79.19
198.801	70.17
199.019	58.56
199.238	95.01
199.456	196.81
199.674	172.87
199.892	184.7
200.111	182.1
200.329	150.11
200.547	111.99
200.765	117.86
200.983	95.76
201.202	81.01
201.42	74.97
201.638	75.83
201.856	82.62
202.074	62.1
202.292	67.96
202.51	81.44
202.728	84.09
202.946	95.04
203.165	92.5
203.383	132.21
203.601	114.73
203.819	161.58
204.037	154.61
204.255	122.14
204.473	159.52
204.691	133.06
204.909	116.89
205.127	149.93
205.345	136.34
205.562	84.28
205.78	63.67
205.998	58.71
206.216	0.08
206.434	9.64
206.652	-72.86
206.87	-90.11
207.088	-96.44
207.306	-86.22
207.523	-48.72
207.741	-38.86
207.959	44.12
208.177	57.4
208.395	71.81
208.612	56.81
208.83	47.76
209.048	53.53
209.266	56.75
209.483	55.05
209.701	45.18
209.919	52.77
210.136	65.91
210.354	55.3
210.572	61.9
210.79	60.41
211.007	74.04
211.225	81.22
211.442	92.59
211.66	80.33
211.878	83.09
212.095	90.22
212.313	94.86
212.53	89.3
212.748	100.64
212.966	93.1
213.183	97.18
213.401	101.2
213.618	95.15
213.836	89.38
214.053	92.46
214.271	91.93
214.488	58.14
214.705	48.21
214.923	47.87
215.14	27.21
215.358	30.4
215.575	22.37
215.793	23
216.01	29.74
216.227	43.57
216.445	46.86
216.662	36.93
216.879	61.42
217.097	53.78
217.314	60.1
217.531	74.95
217.749	50.73
217.966	62.24
218.183	54.1
218.4	41.83
218.618	18.33
218.835	18.46
219.052	9.75
219.269	-18.77
219.487	-6.57
219.704	-1.39
219.921	-4.01
220.138	0.75
220.355	-2.08
220.572	5.69
220.79	16.08
221.007	16.38
221.224	17.05
221.441	22.73
221.658	27.63
221.875	31.02
222.092	25.39
222.309	22.14
222.526	30.72
222.743	31.98
222.96	20.65
223.177	18.85
223.394	22.3
223.611	22.3
223.828	24.21
224.045	22.66
224.262	16.95
224.479	21.79
224.696	25.03
224.913	23.75
225.13	19.45
225.347	21.19
225.564	19.04
225.781	17.61
225.997	17.07
226.214	15.61
226.431	15.42
226.648	14.28
226.865	13.35
227.082	11.62
227.298	11.41
227.515	11.12
227.732	11.4
227.949	10.97
228.165	9.52
228.382	8.91
228.599	8.44
228.816	7.88
229.032	9.33
229.249	9.36
229.466	10.37
229.682	8.2
229.899	9.18
230.116	8.83
230.332	10.03
230.549	10.52
230.765	10.42
230.982	10.46
231.199	12.2
231.415	11.16
231.632	10.76
231.848	10.17
232.065	12.89
232.281	13.21
232.498	13.06
232.714	11.32
232.931	12.96
233.147	11.66
233.364	13.15
233.58	12.86
233.797	13.29
234.013	10.55
234.23	9.54
234.446	9.29
234.662	6.39
234.879	6.75
235.095	8.51
235.312	8.23
235.528	11.86
235.744	11.85
235.961	11.04
236.177	10.35
236.393	13.83
236.61	14.96
236.826	14.34
237.042	15.37
237.258	13.8
237.475	11.75
237.691	11.73
237.907	9.76
238.123	7.47
238.339	7.36
238.556	8
238.772	6.9
238.988	8.35
239.204	9.6
239.42	8.99
239.636	9.13
239.853	9.92
240.069	10.21
240.285	10.38
240.501	10.36
240.717	10.8
240.933	10.68
241.149	10.95
241.365	9.54
241.581	8.89
241.797	8.57
242.013	8.49
242.229	8.05
242.445	7.64
242.661	7.21
242.877	7.33
243.093	7.92
243.309	8.22
243.525	8.12
243.741	8.67
243.957	8.69
244.173	8.79
244.388	9.28
244.604	9.1
244.82	8.64
245.036	8.52
245.252	8.49
245.468	7.68
245.683	7.4
245.899	7.08
246.115	7.1
246.331	7.2
246.547	7.04
246.762	6.79
246.978	6.81
247.194	6.92
247.409	6.86
247.625	6.7
247.841	6.76
248.057	6.43
248.272	6.42
248.488	7.05
248.703	6.23
248.919	6.8
249.135	6.73
249.35	6.71
249.566	6.87
249.782	5.78
249.997	5.76
250.213	5.74
250.428	6.02
250.644	6.02
250.859	4.82
251.075	5.54
251.29	5.44
251.506	5.31
251.721	5.48
251.937	5.57
252.152	6.43
252.368	6.45
252.583	6.96
252.798	6.88
253.014	7.23
253.229	8.11
253.445	8.6
253.66	8.09
253.875	8.15
254.091	7.61
254.306	7.39
254.521	7.93
254.737	8.12
254.952	7.46
255.167	6.46
255.383	6.68
255.598	6.81
255.813	5.37
256.028	5.23
256.244	5.35
256.459	5.3
256.674	4.79
256.889	5.09
257.104	4.71
257.32	4.34
257.535	4.57
257.75	4.45
257.965	4.23
258.18	4.44
258.395	4.56
258.61	4.7
258.826	4.67
259.041	5.07
259.256	5.02
259.471	5.24
259.686	5.69
259.901	5.68
260.116	5.76
260.331	6.09
260.546	6.5
260.761	6.77
260.976	6.67
261.191	6.85
261.406	6.09
261.621	6.08
261.836	5.93
262.05	6.2
262.265	6.71
262.48	6.82
262.695	6.18
262.91	5.27
263.125	5.1
263.34	5.1
263.555	4.82
263.769	5.74
263.984	4.7
264.199	5.05
264.414	4.38
264.629	3.98
264.843	3.97
265.058	4.82
265.273	5.39
265.488	6.03
265.702	5.81
265.917	5.99
266.132	5.89
266.346	6.48
266.561	6.12
266.776	6.37
266.99	6.81
267.205	7.54
267.42	7.1
267.634	7.49
267.849	7.17
268.063	7.21
268.278	7.09
268.492	6.93
268.707	6.96
268.922	7.01
269.136	7.43
269.351	7.15
269.565	6.05
269.78	5.81
269.994	5.54
270.209	5.46
270.423	5.41
270.637	5.6
270.852	5.62
271.066	5.29
271.281	5.5
271.495	5.48
271.709	5.58
271.924	5.74
272.138	5.81
272.353	6.15
272.567	5.86
272.781	6.12
272.996	6.3
273.21	6.19
273.424	6.51
273.638	6.14
273.853	5.71
274.067	5.5
274.281	6.15
274.495	6.18
274.71	5.45
274.924	5.5
275.138	5.56
275.352	4.84
275.566	5.15
275.781	5.09
275.995	5.2
276.209	5.05
276.423	5.11
276.637	4.49
276.851	4.8
277.065	4.8
277.279	5.19
277.493	5.54
277.707	5.59
277.921	5.48
278.135	6.02
278.349	6.2
278.563	6.2
278.777	6.16
278.991	6.87
279.205	6.74
279.419	6.58
279.633	6.29
279.847	6.16
280.061	6.55
280.275	6.93
280.489	6.6
280.703	6.06
280.917	6
281.131	6.01
281.344	5.25
281.558	5.45
281.772	5.58
281.986	5.16
282.2	5.18
282.414	5
282.627	4.73
282.841	4.46
283.055	4.51
283.269	4.24
283.482	4.65
283.696	4.73
283.91	4.28
284.123	4.65
284.337	4.9
284.551	5.29
284.764	5.21
284.978	4.87
285.192	5.03
285.405	5.32
285.619	5.58
285.833	5.63
286.046	6.03
286.26	5.9
286.473	5.64
286.687	5.87
286.9	5.16
287.114	5.69
287.327	6.32
287.541	6.38
287.754	6.17
287.968	5.9
288.181	5.71
288.395	5.6
288.608	5.78
288.822	5.82
289.035	5.53
289.248	5.95
289.462	5.7
289.675	4.96
289.889	4.93
290.102	4.96
290.315	5.44
290.529	5.47
290.742	5.25
290.955	5.67
291.169	5.87
291.382	6.36
291.595	6.32
291.808	6.42
292.022	6.87
292.235	7.08
292.448	7.86
292.661	7.73
292.875	7.61
293.088	7.5
293.301	7.5
293.514	7.32
293.727	7.13
293.94	7.03
294.153	6.88
294.367	7.02
294.58	6.92
294.793	6.38
295.006	6.39
295.219	6.14
295.432	5.9
295.645	5.86
295.858	5.77
296.071	5.77
296.284	5.25
296.497	5.3
296.71	5.4
296.923	5.37
297.136	5.59
297.349	5.77
297.562	6.11
297.775	6.35
297.988	6.41
298.201	6.69
298.414	6.69
298.626	7.41
298.839	7.56
299.052	7.07
299.265	6.81
299.478	6.75
299.691	6.56
299.903	6.35
300.116	6.55
300.329	6.47
300.542	6.34
300.755	6.71
300.967	6.01
301.18	6.02
301.393	6.49
301.605	6.9
301.818	7.07
302.031	6.94
302.243	7.43
302.456	7.59
302.669	7.74
302.881	7.65
303.094	7.46
303.307	8.17
303.519	8.06
303.732	8.37
303.944	8.3
304.157	8.22
304.37	8.18
304.582	7.92
304.795	7.38
305.007	7.5
305.22	8.05
305.432	8.16
305.645	7.96
305.857	7.77
306.069	7.35
306.282	7.48
306.494	7.07
306.707	7.41
306.919	7.31
307.132	7.71
307.344	7.41
307.556	7.16
307.769	6.98
307.981	7.19
308.193	7.21
308.406	7.04
308.618	6.67
308.83	6.91
309.043	6.91
309.255	6.78
309.467	6.56
309.679	6.35
309.892	6.08
310.104	6.35
310.316	5.93
310.528	6.16
310.74	6.14
310.953	6.44
311.165	6.29
311.377	6.05
311.589	6.37
311.801	6.44
312.013	7.19
312.225	7.2
312.437	7.07
312.649	7.51
312.862	7.15
313.074	7.49
313.286	7.58
313.498	7.87
313.71	7.8
313.922	7.59
314.134	7.07
314.346	6.2
314.558	6.85
314.77	6.95
314.982	6.76
315.193	7.1
315.405	7.12
315.617	7.04
315.829	6.71
316.041	6.58
316.253	6.92
316.465	7.63
316.677	8
316.888	7.67
317.1	7.18
317.312	7.4
317.524	7.17
317.736	7.29
317.947	7.37
318.159	7.46
318.371	7.97
318.583	7.64
318.794	7.65
319.006	7.6
319.218	7.14
319.43	7.48
319.641	6.97
319.853	6.98
320.064	6.64
320.276	6.61
320.488	6.47
320.699	6.17
320.911	6.57
321.123	6.64
321.334	6.87
321.546	7.78
321.757	7.56
321.969	7.98
322.18	8.22
322.392	8
322.603	8.15
322.815	8.12
323.026	8.32
323.238	7.7
323.449	7.88
323.661	7.7
323.872	7.46
324.083	7.69
324.295	7.76
324.506	8.21
324.718	8.1
324.929	7.83
325.14	8.17
325.352	8.22
325.563	8.68
325.774	8.57
325.986	8.47
326.197	8.81
326.408	8.65
326.62	8.81
326.831	8.55
327.042	9.11
327.253	9.3
327.464	9.11
327.676	9.11
327.887	8.74
328.098	8.46
328.309	9.06
328.52	8.97
328.732	9.14
328.943	9.04
329.154	8.97
329.365	8.76
329.576	8.62
329.787	9.3
329.998	8.69
330.209	9.24
330.42	9.87
330.631	9.73
330.842	9.46
331.053	10.24
331.264	9.92
331.475	10.17
331.686	10.32
331.897	10.03
332.108	9.72
332.319	10.34
332.53	10.4
332.741	10.06
332.952	9.68
333.163	9.6
333.374	9.1
333.585	9.39
333.795	9.01
334.006	9.27
334.217	9.34
334.428	9.2
334.639	9.56
334.849	9.47
335.06	9.63
335.271	9.87
335.482	9.7
335.692	9.56
335.903	9.53
336.114	9.89
336.325	9.92
336.535	10.45
336.746	10.41
336.957	10.1
337.167	9.95
337.378	9.97
337.589	9.88
337.799	10.34
338.01	10.34
338.22	10.2
338.431	9.46
338.642	9.14
338.852	9.22
339.063	9.18
339.273	9.13
339.484	8.96
339.694	8.97
339.905	9.27
340.115	8.97
340.326	8.89
340.536	9.16
340.746	9.71
340.957	9.65
341.167	9.32
341.378	9.46
341.588	9.53
341.799	9.55
342.009	9.64
342.219	9.08
342.43	9.18
342.64	9.32
342.85	9.43
343.061	9.58
343.271	9.78
343.481	10.14
343.691	10.44
343.902	10.15
344.112	10.46
344.322	10.29
344.532	10.59
344.743	10.66
344.953	10.56
345.163	10.63
345.373	10.3
345.583	10.06
345.793	9.65
346.004	9.43
346.214	9.42
346.424	9.43
346.634	9.39
346.844	9.04
347.054	9.03
347.264	9.11
347.474	8.92
347.684	9.04
347.894	9.27
348.104	9.21
348.314	8.99
348.524	9.26
348.734	9.1
348.944	9.41
349.154	9.83
349.364	9.75
349.574	9.97
349.784	9.75
349.994	9.87
350.204	9.86
350.413	10
350.623	9.81
350.833	9.42
351.043	9.26
351.253	8.96
351.463	8.84
351.672	8.47
351.882	8.24
352.092	8.26
352.302	8.39
352.511	8.52
352.721	8.34
352.931	8.69
353.141	8.84
353.35	8.93
353.56	9.26
353.77	9.26
353.979	9.42
354.189	9.32
354.399	9.35
354.608	8.89
354.818	8.99
355.027	9.5
355.237	9.46
355.447	9.73
355.656	9.72
355.866	9.56
356.075	9.68
356.285	9.72
356.494	9.95
356.704	9.91
356.913	10.11
357.123	9.87
357.332	9.51
357.542	9.42
357.751	9.07
357.96	9.24
358.17	8.98
358.379	9.09
358.589	9.06
358.798	8.65
359.007	8.53
359.217	8.45
359.426	8.27
359.635	8.17
359.845	8.11
360.054	8.26
360.263	8.08
360.472	8.18
360.682	8.14
360.891	8.16
361.1	8.51
361.309	8.45
361.519	8.25
361.728	8.51
361.937	8.71
362.146	8.63
362.355	8.66
362.564	8.82
362.774	8.82
362.983	8.9
363.192	8.89
363.401	8.67
363.61	8.98
363.819	9.23
364.028	8.95
364.237	8.84
364.446	9.07
364.655	9.14
364.864	8.78
365.073	8.51
365.282	7.95
365.491	7.85
365.7	8
365.909	7.83
366.118	7.85
366.327	7.78
366.536	7.89
366.745	7.92
366.954	7.76
367.162	7.93
367.371	8.09
367.58	8.24
367.789	8.17
367.998	7.83
368.207	7.87
368.415	7.98
368.624	7.98
368.833	7.9
369.042	8.05
369.25	8.04
369.459	8.24
369.668	8.09
369.877	8.11
370.085	8.11
370.294	8.42
370.503	8.24
370.711	8.16
370.92	8.37
371.129	8.23
371.337	7.88
371.546	7.9
371.754	7.6
371.963	7.9
372.171	7.77
372.38	7.62
372.589	7.58
372.797	7.58
373.006	7.39
373.214	7.26
373.423	7.18
373.631	7.4
373.84	7.14
374.048	7.26
374.256	7.2
374.465	7.37
374.673	7.52
374.882	7.51
375.09	7.6
375.298	7.57
375.507	7.63
375.715	7.61
375.923	7.64
376.132	7.8
376.34	7.49
376.548	7.61
376.757	7.7
376.965	7.81
377.173	7.5
377.381	7.46
377.59	7.63
377.798	7.6
378.006	7.66
378.214	7.53
378.423	7.73
378.631	8.07
378.839	7.79
379.047	7.57
379.255	7.45
379.463	7.75
379.671	7.96
379.879	7.84
380.088	7.84
380.296	7.84
380.504	7.76
380.712	7.72
380.92	7.58
381.128	7.73
381.336	7.9
381.544	8.05
381.752	7.82
381.96	7.49
382.168	7.58
382.376	7.37
382.584	7.42
382.791	7.32
382.999	7.16
383.207	7.3
383.415	7.07
383.623	6.93
383.831	6.98
384.039	6.81
384.247	6.82
384.454	6.77
384.662	6.7
384.87	6.58
385.078	6.77
385.285	6.74
385.493	6.52
385.701	6.64
385.909	6.57
386.116	6.45
386.324	6.66
386.532	6.59
386.739	6.46
386.947	6.69
387.155	6.55
387.362	6.3
387.57	6.22
387.778	6.28
387.985	6.18
388.193	6.26
388.4	6.18
388.608	6.31
388.816	6.36
389.023	6.58
389.231	6.48
389.438	6.64
389.646	6.69
389.853	6.7
390.061	6.92
390.268	6.98
390.475	6.95
390.683	6.91
390.89	6.8
391.098	6.87
391.305	6.89
391.512	6.93
391.72	6.84
391.927	6.93
392.135	6.88
392.342	6.59
392.549	6.58
392.756	6.79
392.964	6.9
393.171	6.74
393.378	6.83
393.586	6.57
393.793	6.7
394	6.74
394.207	6.77
394.414	6.77
394.622	6.76
394.829	6.65
395.036	6.05
395.243	5.81
395.45	5.94
395.657	5.48
395.864	5.57
396.072	5.51
396.279	5.52
396.486	5.46
396.693	5.51
396.9	5.43
397.107	5.5
397.314	5.84
397.521	5.93
397.728	5.85
397.935	6.13
398.142	6.17
398.349	6.17
398.556	6.17
398.763	6.14
398.97	6.14
399.177	6.43
399.383	6.39
399.59	6.34
399.797	6.34
400.004	6.3
400.211	6.33
400.418	6.15
400.625	6.02
400.831	6.03
401.038	5.94
401.245	5.71
401.452	5.58
401.658	5.53
401.865	5.56
402.072	5.44
402.279	5.47
402.485	5.47
402.692	5.5
402.899	5.58
403.105	5.5
403.312	5.33
403.519	5.51
403.725	5.39
403.932	5.62
404.138	5.36
404.345	5.4
404.552	5.47
404.758	5.33
404.965	5.28
405.171	5.14
405.378	5.41
405.584	5.51
405.791	5.3
405.997	5.34
406.204	5.18
406.41	5.58
406.617	5.42
406.823	5.46
407.029	5.58
407.236	5.68
407.442	5.72
407.649	5.53
407.855	5.65
408.061	5.81
408.268	5.86
408.474	5.74
408.68	5.61
408.887	5.79
409.093	5.56
409.299	5.59
409.505	5.55
409.712	5.58
409.918	5.37
410.124	5.21
410.33	5.27
410.537	5.12
410.743	5.15
410.949	5.09
411.155	5.15
411.361	5.25
411.567	5.21
411.773	5.17
411.98	5.04
412.186	5.13
412.392	5.1
412.598	4.99
412.804	5.05
413.01	5.05
413.216	5
413.422	5.01
413.628	5.02
413.834	4.97
414.04	4.95
414.246	4.88
414.452	4.85
414.658	4.98
414.864	5.05
415.07	5.15
415.275	5.08
415.481	5.13
415.687	5.02
415.893	5.07
416.099	5.13
416.305	5.13
416.511	5.25
416.716	5.3
416.922	5.31
417.128	5.18
417.334	5.13
417.539	5.22
417.745	5.2
417.951	5.17
418.157	5.13
418.362	5.02
418.568	4.98
418.774	4.91
418.979	4.79
419.185	4.85
419.391	4.93
419.596	4.82
419.802	4.77
420.008	4.72
420.213	5.02
420.419	5.03
420.624	5.02
420.83	5.01
421.035	5.01
421.241	5.09
421.446	4.92
421.652	4.81
421.857	4.81
422.063	4.81
422.268	4.82
422.474	4.48
422.679	4.42
422.885	4.42
423.09	4.4
423.295	4.36
423.501	4.32
423.706	4.35
423.911	4.34
424.117	4.47
424.322	4.45
424.527	4.49
424.733	4.48
424.938	4.49
425.143	4.53
425.349	4.61
425.554	4.67
425.759	4.68
425.964	4.7
426.169	4.84
426.375	4.71
426.58	4.69
426.785	4.6
426.99	4.7
427.195	4.73
427.4	4.72
427.605	4.76
427.811	4.71
428.016	4.75
428.221	4.64
428.426	4.56
428.631	4.54
428.836	4.54
429.041	4.59
429.246	4.5
429.451	4.44
429.656	4.4
429.861	4.3
430.066	4.27
430.271	4.28
430.476	4.39
430.681	4.35
430.886	4.39
431.09	4.34
431.295	4.31
431.5	4.37
431.705	4.4
431.91	4.44
432.115	4.43
432.32	4.46
432.524	4.4
432.729	4.43
432.934	4.46
433.139	4.43
433.343	4.47
433.548	4.47
433.753	4.43
433.958	4.32
434.162	4.29
434.367	4.27
434.572	4.25
434.776	4.21
434.981	4
435.186	4.04
435.39	4.07
435.595	4.15
435.799	4.1
436.004	4.04
436.209	4.16
436.413	4.24
436.618	4.31
436.822	4.33
437.027	4.35
437.231	4.42
437.436	4.38
437.64	4.32
437.845	4.2
438.049	4.34
438.253	4.29
438.458	4.31
438.662	4.22
438.867	4.2
439.071	4.15
439.275	4.2
439.48	4.29
439.684	4.29
439.888	4.25
440.093	4.31
440.297	4.22
440.501	4.25
440.706	4.23
440.91	4.24
441.114	4.15
441.318	4.12
441.523	4.11
441.727	4.03
441.931	4.16
442.135	4.25
442.339	4.19
442.543	4.15
442.748	4.18
442.952	4.14
443.156	4.17
443.36	4.29
443.564	4.28
443.768	4.25
443.972	4.19
444.176	4.09
444.38	4.11
444.584	4.07
444.788	4.06
444.992	4
445.196	4.02
445.4	3.9
445.604	3.85
445.808	3.97
446.012	3.97
446.216	4.03
446.42	4
446.624	3.9
446.828	3.96
447.032	3.95
447.235	3.99
447.439	3.96
447.643	4.08
447.847	4.09
448.051	4.1
448.254	4.04
448.458	4.17
448.662	4.1
448.866	4.13
449.069	4.16
449.273	4.23
449.477	4.22
449.681	4.15
449.884	4.14
450.088	4.04
450.292	4
450.495	4.11
450.699	3.92
450.902	3.95
451.106	3.96
451.31	3.84
451.513	3.76
451.717	3.8
451.92	3.72
452.124	3.65
452.327	3.66
452.531	3.56
452.734	3.48
452.938	3.49
453.141	3.64
453.345	3.62
453.548	3.73
453.752	3.81
453.955	3.8
454.158	3.94
454.362	3.97
454.565	4.07
454.769	4.06
454.972	3.92
455.175	3.95
455.379	3.83
455.582	3.9
455.785	3.81
455.988	3.77
456.192	3.82
456.395	3.73
456.598	3.85
456.801	3.76
457.005	3.71
457.208	3.82
457.411	3.82
457.614	3.79
457.817	3.78
458.021	3.75
458.224	3.75
458.427	3.67
458.63	3.68
458.833	3.62
459.036	3.62
459.239	3.69
459.442	3.67
459.645	3.62
459.848	3.61
460.051	3.57
460.254	3.59
460.457	3.53
460.66	3.57
460.863	3.64
461.066	3.54
461.269	3.58
461.472	3.56
461.675	3.63
461.878	3.69
462.081	3.63
462.284	3.61
462.486	3.63
462.689	3.72
462.892	3.71
463.095	3.63
463.298	3.76
463.5	3.72
463.703	3.77
463.906	3.72
464.109	3.71
464.311	3.76
464.514	3.79
464.717	3.82
464.92	3.87
465.122	3.93
465.325	3.92
465.528	3.93
465.73	3.95
465.933	3.92
466.135	3.96
466.338	3.85
466.541	3.89
466.743	4
466.946	4
467.148	3.96
467.351	3.87
467.553	3.97
467.756	3.96
467.958	3.91
468.161	3.93
468.363	3.98
468.566	4.2
468.768	4.21
468.971	4.14
469.173	4.1
469.375	4.15
469.578	4.09
469.78	4.05
469.983	4.12
470.185	4.17
470.387	4.15
470.59	4.01
470.792	3.89
470.994	3.89
471.196	3.9
471.399	3.87
471.601	3.81
471.803	3.9
472.005	3.97
472.208	3.91
472.41	3.94
472.612	3.95
472.814	4.01
473.016	4
473.218	4.11
473.421	4.17
473.623	4.28
473.825	4.26
474.027	4.28
474.229	4.22
474.431	4.11
474.633	4.12
474.835	4.12
475.037	4.15
475.239	4.21
475.441	4
475.643	3.93
475.845	3.86
476.047	3.82
476.249	3.83
476.451	3.73
476.653	3.77
476.855	3.76
477.057	3.67
477.258	3.58
477.46	3.49
477.662	3.55
477.864	3.56
478.066	3.56
478.268	3.65
478.469	3.58
478.671	3.64
478.873	3.65
479.075	3.65
479.276	3.73
479.478	3.82
479.68	3.84
479.882	3.92
480.083	3.93
480.285	3.93
480.487	3.85
480.688	3.92
480.89	3.91
481.091	3.9
481.293	3.83
481.495	3.79
481.696	3.79
481.898	3.77
482.099	3.71
482.301	3.71
482.502	3.73
482.704	3.74
482.905	3.72
483.107	3.71
483.308	3.72
483.51	3.75
483.711	3.75
483.913	3.74
484.114	3.77
484.315	3.76
484.517	3.77
484.718	3.73
484.92	3.73
485.121	3.72
485.322	3.74
485.524	3.74
485.725	3.81
485.926	3.83
486.127	3.79
486.329	3.75
486.53	3.83
486.731	3.8
486.932	3.85
487.134	3.89
487.335	3.89
487.536	3.94
487.737	3.94
487.938	3.87
488.139	3.89
488.341	3.96
488.542	4.01
488.743	3.98
488.944	4.02
489.145	3.99
489.346	3.95
489.547	3.94
489.748	3.91
489.949	3.95
490.15	3.95
490.351	3.94
490.552	3.95
490.753	3.93
490.954	3.91
491.155	3.89
491.356	3.91
491.557	3.95
491.758	3.96
491.959	3.98
492.159	3.98
492.36	4
492.561	4.04
492.762	4.07
492.963	4.12
493.164	4.13
493.364	4.15
493.565	4.14
493.766	4.1
493.967	4.11
494.167	4.04
494.368	4.01
494.569	3.96
494.769	3.84
494.97	3.83
495.171	3.87
495.371	3.9
495.572	3.96
495.773	3.98
495.973	4.04
496.174	4.09
496.375	4.09
496.575	4.12
496.776	4.19
496.976	4.27
497.177	4.22
497.377	4.2
497.578	4.29
497.778	4.22
497.979	4.17
498.179	4.18
498.38	4.16
498.58	4.22
498.78	4.28
498.981	4.31
499.181	4.29
499.382	4.29
499.582	4.33
499.782	4.26
499.983	4.35
500.183	4.43
500.383	4.44
500.584	4.49
500.784	4.46
500.984	4.44
501.184	4.39
501.385	4.43
501.585	4.45
501.785	4.52
501.985	4.53
502.185	4.62
502.386	4.63
502.586	4.62
502.786	4.58
502.986	4.65
503.186	4.56
503.386	4.64
503.586	4.7
503.786	4.76
503.987	4.71
504.187	4.8
504.387	4.78
504.587	4.75
504.787	4.7
504.987	4.72
505.187	4.66
505.387	4.78
505.587	4.71
505.786	4.69
505.986	4.68
506.186	4.69
506.386	4.68
506.586	4.67
506.786	4.69
506.986	4.74
507.186	4.83
507.386	4.93
507.585	4.94
507.785	5.03
507.985	5.07
508.185	5.17
508.384	5.23
508.584	5.25
508.784	5.26
508.984	5.28
509.183	5.27
509.383	5.2
509.583	5.19
509.782	5.18
509.982	5.2
510.182	5.22
510.381	5.14
510.581	5.12
510.781	5.13
510.98	5.2
511.18	5.19
511.379	5.27
511.579	5.32
511.778	5.28
511.978	5.29
512.177	5.31
512.377	5.25
512.576	5.3
512.776	5.33
512.975	5.37
513.175	5.41
513.374	5.54
513.573	5.63
513.773	5.62
513.972	5.66
514.172	5.62
514.371	5.72
514.57	5.84
514.77	5.88
514.969	5.9
515.168	5.81
515.367	5.75
515.567	5.67
515.766	5.6
515.965	5.72
516.164	5.71
516.364	5.83
516.563	5.85
516.762	5.84
516.961	5.8
517.16	5.82
517.359	5.92
517.559	5.96
517.758	6.01
517.957	6.1
518.156	6.05
518.355	6.13
518.554	6.11
518.753	6.01
518.952	5.96
519.151	5.98
519.35	6.03
519.549	6.05
519.748	6.12
519.947	6.18
520.146	6.12
520.345	6.16
520.544	6.16
520.743	6.15
520.942	6.24
521.141	6.25
521.339	6.33
521.538	6.26
521.737	6.25
521.936	6.27
522.135	6.18
522.333	6.2
522.532	6.23
522.731	6.25
522.93	6.3
523.129	6.34
523.327	6.39
523.526	6.41
523.725	6.45
523.923	6.43
524.122	6.42
524.321	6.44
524.519	6.49
524.718	6.53
524.917	6.56
525.115	6.57
525.314	6.51
525.512	6.56
525.711	6.57
525.909	6.54
526.108	6.55
526.306	6.56
526.505	6.57
526.703	6.56
526.902	6.57
527.1	6.59
527.299	6.61
527.497	6.66
527.696	6.69
527.894	6.74
528.092	6.8
528.291	6.83
528.489	6.86
528.688	6.91
528.886	6.94
529.084	6.97
529.283	6.97
529.481	6.99
529.679	7.06
529.877	7.1
530.076	7.08
530.274	7.12
530.472	7.16
530.67	7.22
530.869	7.23
531.067	7.23
531.265	7.2
531.463	7.24
531.661	7.24
531.859	7.22
532.057	7.21
532.255	7.22
532.454	7.25
532.652	7.3
532.85	7.31
533.048	7.36
533.246	7.43
533.444	7.5
533.642	7.56
533.84	7.63
534.038	7.66
534.236	7.7
534.434	7.76
534.632	7.75
534.83	7.77
535.027	7.77
535.225	7.84
535.423	7.86
535.621	7.91
535.819	7.91
536.017	7.93
536.215	7.96
536.412	7.96
536.61	7.99
536.808	7.96
537.006	7.98
537.203	8.03
537.401	7.99
537.599	8.02
537.797	8.08
537.994	8.13
538.192	8.17
538.39	8.19
538.587	8.19
538.785	8.18
538.983	8.3
539.18	8.33
539.378	8.34
539.575	8.35
539.773	8.4
539.97	8.43
540.168	8.46
540.366	8.48
540.563	8.51
540.761	8.57
540.958	8.65
541.155	8.7
541.353	8.73
541.55	8.78
541.748	8.82
541.945	8.85
542.143	8.82
542.34	8.82
542.537	8.85
542.735	8.93
542.932	9.02
543.129	8.97
543.327	8.98
543.524	8.95
543.721	8.99
543.919	9.01
544.116	9.09
544.313	9.18
544.51	9.21
544.708	9.27
544.905	9.24
545.102	9.25
545.299	9.37
545.496	9.36
545.693	9.46
545.891	9.51
546.088	9.59
546.285	9.56
546.482	9.6
546.679	9.65
546.876	9.63
547.073	9.75
547.27	9.81
547.467	9.82
547.664	9.96
547.861	10.01
548.058	10.1
548.255	10.09
548.452	10.18
548.649	10.21
548.846	10.46
549.043	10.64
549.24	10.7
549.437	10.78
549.633	10.8
549.83	10.95
550.027	11.02
550.224	11
550.421	11.18
550.618	11.26
550.814	11.43
551.011	11.4
551.208	11.4
551.405	11.43
551.601	11.54
551.798	11.52
551.995	11.5
552.191	11.58
552.388	11.67
552.585	11.7
552.781	11.79
552.978	11.72
553.175	11.82
553.371	11.9
553.568	11.93
553.764	11.95
553.961	12.21
554.157	12.2
554.354	12.26
554.55	12.32
554.747	12.44
554.943	12.43
555.14	12.65
555.336	12.61
555.533	12.74
555.729	12.82
555.926	12.81
556.122	12.8
556.318	12.82
556.515	12.92
556.711	13.11
556.907	13.25
557.104	13.33
557.3	13.35
557.496	13.44
557.693	13.59
557.889	13.67
558.085	13.87
558.281	13.91
558.478	14.15
558.674	14.19
558.87	14.28
559.066	14.19
559.262	14.18
559.459	14.21
559.655	14.39
559.851	14.27
560.047	14.37
560.243	14.32
560.439	14.39
560.635	14.37
560.831	14.54
561.027	14.48
561.223	14.54
561.419	14.75
561.615	14.88
561.811	14.89
562.007	15.09
562.203	15.15
562.399	15.3
562.595	15.43
562.791	15.47
562.987	15.46
563.183	15.6
563.379	15.73
563.575	15.72
563.771	15.74
563.966	15.72
564.162	15.69
564.358	15.68
564.554	15.74
564.75	15.71
564.945	15.83
565.141	15.98
565.337	16.01
565.533	16.06
565.728	16.1
565.924	16.11
566.12	16.24
566.315	16.38
566.511	16.48
566.707	16.56
566.902	16.69
567.098	16.74
567.293	16.78
567.489	16.8
567.684	16.92
567.88	16.92
568.076	17.01
568.271	17.09
568.467	17.18
568.662	17.3
568.858	17.44
569.053	17.57
569.248	17.77
569.444	17.79
569.639	17.88
569.835	17.89
570.03	18.08
570.225	18.09
570.421	18.19
570.616	18.2
570.812	18.25
571.007	18.25
571.202	18.23
571.397	18.19
571.593	18.21
571.788	18.31
571.983	18.37
572.178	18.42
572.374	18.48
572.569	18.44
572.764	18.52
572.959	18.54
573.154	18.55
573.35	18.62
573.545	18.75
573.74	18.76
573.935	18.76
574.13	18.81
574.325	18.92
574.52	19.02
574.715	19.12
574.91	19.17
575.105	19.17
575.3	19.22
575.495	19.24
575.69	19.16
575.885	19.24
576.08	19.28
576.275	19.24
576.47	19.19
576.665	19.26
576.86	19.29
577.055	19.29
577.25	19.21
577.444	19.3
577.639	19.47
577.834	19.57
578.029	19.65
578.224	19.73
578.418	19.78
578.613	19.82
578.808	19.83
579.003	20.01
579.197	19.95
579.392	20.18
579.587	20.16
579.781	20.24
579.976	20.27
580.171	20.29
580.365	20.36
580.56	20.58
580.755	20.63
580.949	20.76
581.144	20.6
581.338	20.86
581.533	20.9
581.727	20.97
581.922	20.9
582.116	20.85
582.311	20.85
582.505	20.74
582.7	20.67
582.894	20.79
583.089	20.62
583.283	20.75
583.478	20.81
583.672	20.92
583.866	20.96
584.061	20.98
584.255	21.2
584.449	21.28
584.644	21.33
584.838	21.29
585.032	21.31
585.226	21.51
585.421	21.54
585.615	21.41
585.809	21.4
586.003	21.41
586.198	21.54
586.392	21.4
586.586	21.44
586.78	21.54
586.974	21.64
587.168	21.58
587.363	21.5
587.557	21.45
587.751	21.51
587.945	21.42
588.139	21.39
588.333	21.31
588.527	21.39
588.721	21.39
588.915	21.41
589.109	21.49
589.303	21.4
589.497	21.52
589.691	21.61
589.885	21.58
590.079	21.69
590.273	21.82
590.466	21.88
590.66	21.96
590.854	22.01
591.048	22.04
591.242	21.87
591.436	22.08
591.629	22.07
591.823	22.11
592.017	22.16
592.211	22.08
592.404	22.1
592.598	22.05
592.792	22.08
592.986	22.04
593.179	22.05
593.373	22.17
593.567	22.13
593.76	22.21
593.954	22.12
594.147	22.19
594.341	22.3
594.535	22.37
594.728	22.41
594.922	22.38
595.115	22.41
595.309	22.45
595.502	22.53
595.696	22.62
595.889	22.53
596.083	22.59
596.276	22.59
596.47	22.56
596.663	22.54
596.856	22.58
597.05	22.65
597.243	22.64
597.437	22.58
597.63	22.48
597.823	22.37
598.017	22.48
598.21	22.52
598.403	22.39
598.596	22.4
598.79	22.33
598.983	22.31
599.176	22.27
599.369	22.33
599.563	22.42
599.756	22.56
599.949	22.49
600.142	22.4
600.335	22.43
600.528	22.5
600.722	22.59
600.915	22.77
601.108	22.78
601.301	22.81
601.494	22.84
601.687	22.9
601.88	22.82
602.073	22.93
602.266	22.93
602.459	22.9
602.652	22.96
602.845	22.87
603.038	22.79
603.231	22.86
603.424	22.88
603.617	22.86
603.809	22.79
604.002	22.79
604.195	22.73
604.388	22.76
604.581	22.8
604.774	22.87
604.966	23.01
605.159	23.09
605.352	23.02
605.545	23.12
605.737	23.27
605.93	23.27
606.123	23.28
606.316	23.32
606.508	23.34
606.701	23.33
606.894	23.23
607.086	23.15
607.279	23.01
607.471	23.03
607.664	22.95
607.857	22.65
608.049	22.64
608.242	22.74
608.434	22.8
608.627	22.84
608.819	23.03
609.012	22.93
609.204	22.88
609.397	22.96
609.589	22.95
609.782	22.97
609.974	23.09
610.166	23.29
610.359	23.23
610.551	23.15
610.743	23.19
610.936	23.01
611.128	23.17
611.32	23.25
611.513	23.29
611.705	23.47
611.897	23.56
612.09	23.76
612.282	23.84
612.474	23.85
612.666	24.13
612.858	24.17
613.051	24.26
613.243	24.33
613.435	24.27
613.627	24
613.819	23.98
614.011	23.96
614.203	23.84
614.395	23.75
614.588	23.91
614.78	23.65
614.972	23.55
615.164	23.52
615.356	23.42
615.548	23.57
615.74	23.71
615.932	23.69
616.124	23.62
616.315	23.62
616.507	23.54
616.699	23.56
616.891	23.66
617.083	23.72
617.275	23.71
617.467	23.55
617.659	23.5
617.85	23.63
618.042	23.57
618.234	23.46
618.426	23.53
618.618	23.63
618.809	23.37
619.001	23.3
619.193	23.18
619.384	23.14
619.576	23.41
619.768	23.46
619.959	23.41
620.151	23.39
620.343	23.58
620.534	23.45
620.726	23.39
620.917	23.59
621.109	23.69
621.301	23.68
621.492	23.78
621.684	23.68
621.875	23.62
622.067	23.73
622.258	23.83
622.45	23.82
622.641	23.8
622.832	23.88
623.024	23.9
623.215	23.96
623.407	24.14
623.598	24.18
623.789	24.33
623.981	24.26
624.172	24.13
624.363	23.94
624.555	23.77
624.746	24.02
624.937	23.9
625.129	23.69
625.32	23.68
625.511	23.55
625.702	23.56
625.893	23.51
626.085	23.63
626.276	23.67
626.467	23.86
626.658	24.01
626.849	23.86
627.04	23.99
627.231	24.17
627.422	24.09
627.614	24.09
627.805	24.08
627.996	23.96
628.187	23.92
628.378	24.02
628.569	23.95
628.76	23.87
628.951	23.73
629.142	23.67
629.332	23.66
629.523	23.73
629.714	24.06
629.905	23.97
630.096	24.07
630.287	24.17
630.478	24.19
630.669	24.39
630.859	24.51
631.05	24.63
631.241	24.44
631.432	24.5
631.623	24.5
631.813	24.25
632.004	24.22
632.195	24.31
632.385	24.32
632.576	24.32
632.767	24.16
632.957	23.98
633.148	24.22
633.339	24.47
633.529	24.44
633.72	24.34
633.91	24.41
634.101	24.39
634.292	24.39
634.482	24.26
634.673	24.06
634.863	24.05
635.054	24.17
635.244	24.01
635.435	24.02
635.625	24.05
635.815	24.11
636.006	24.01
636.196	24.04
636.387	24.14
636.577	24.17
636.767	24.41
636.958	24.32
637.148	24.33
637.338	24.24
637.529	24.1
637.719	24.2
637.909	24.24
638.099	24.21
638.29	24.33
638.48	24.15
638.67	24.24
638.86	24.08
639.05	24
639.241	24.07
639.431	24.32
639.621	24.28
639.811	24.22
640.001	24.29
640.191	24.32
640.381	24.16
640.571	24.26
640.761	24.27
640.951	24.38
641.141	24.55
641.331	24.51
641.521	24.55
641.711	24.72
641.901	24.69
642.091	24.64
642.281	24.71
642.471	24.77
642.661	24.66
642.851	24.76
643.041	24.6
643.231	24.87
643.42	25.04
643.61	24.79
643.8	24.8
643.99	24.74
644.18	24.71
644.369	24.6
644.559	24.81
644.749	24.83
644.939	24.48
645.128	24.78
645.318	24.63
645.508	24.44
645.697	24.51
645.887	24.53
646.076	24.36
646.266	24.37
646.456	24.58
646.645	24.4
646.835	24.22
647.024	24.64
647.214	24.44
647.403	24.4
647.593	24.25
647.782	24.26
647.972	24.07
648.161	24.3
648.351	24.43
648.54	24.46
648.73	24.55
648.919	24.81
649.108	24.48
649.298	24.44
649.487	24.46
649.677	24.85
649.866	24.8
650.055	25.02
650.244	25.1
650.434	25.05
650.623	24.92
650.812	24.98
651.002	24.79
651.191	25.08
651.38	25.13
651.569	25.09
651.758	24.8
651.947	24.95
652.137	25
652.326	24.91
652.515	24.97
652.704	24.97
652.893	24.88
653.082	24.99
653.271	24.95
653.46	24.97
653.649	24.96
653.838	24.96
654.027	24.81
654.216	24.78
654.405	24.79
654.594	24.75
654.783	24.87
654.972	24.9
655.161	24.96
655.35	24.81
655.539	24.79
655.728	24.79
655.916	24.7
656.105	24.74
656.294	24.5
656.483	24.29
656.672	24.18
656.86	24.08
657.049	23.98
657.238	24.07
657.427	24.05
657.615	23.87
657.804	23.85
657.993	23.99
658.181	24.04
658.37	24.19
658.559	24.15
658.747	24.22
658.936	24.11
659.125	24.25
659.313	24.12
659.502	24.16
659.69	24.24
659.879	24.37
660.067	24.27
660.256	24.32
660.444	24.35
660.633	24.37
660.821	24.42
661.01	24.58
661.198	24.56
661.387	24.7
661.575	24.93
661.763	25.07
661.952	25.12
662.14	25.15
662.328	25.18
662.517	25.14
662.705	25.39
662.893	25.44
663.082	25.14
663.27	24.96
663.458	24.84
663.646	24.45
663.834	24.43
664.023	24.15
664.211	23.98
664.399	23.97
664.587	24.06
664.775	24.08
664.963	23.89
665.152	24.36
665.34	24.47
665.528	24.46
665.716	24.63
665.904	24.52
666.092	24.67
666.28	24.95
666.468	24.92
666.656	24.46
666.844	24.39
667.032	24.56
667.22	24.3
667.408	24.18
667.596	24.44
667.784	24.42
667.971	24.6
668.159	24.54
668.347	24.47
668.535	24.47
668.723	24.74
668.911	24.61
669.098	24.42
669.286	24.46
669.474	24.86
669.662	24.43
669.849	24.54
670.037	24.4
670.225	24.88
670.413	25.03
670.6	24.95
670.788	24.96
670.976	25.22
671.163	25.39
671.351	25.53
671.538	25.42
671.726	25.49
671.913	25.5
672.101	25.41
672.289	24.77
672.476	24.57
672.664	24.64
672.851	24.3
673.039	24.2
673.226	24.13
673.413	23.98
673.601	23.92
673.788	23.93
673.976	23.86
674.163	23.89
674.35	23.86
674.538	23.91
674.725	23.92
674.912	24.13
675.1	24.01
675.287	23.94
675.474	24.18
675.662	23.97
675.849	24.09
676.036	24.19
676.223	24.2
676.411	24.38
676.598	24.47
676.785	24.65
676.972	24.73
677.159	24.77
677.346	25.07
677.533	25.07
677.721	24.93
677.908	24.91
678.095	24.89
678.282	25.01
678.469	24.95
678.656	24.85
678.843	24.87
679.03	24.85
679.217	24.8
679.404	24.6
679.591	24.41
679.778	24.56
679.964	24.48
680.151	24.57
680.338	24.63
680.525	24.7
680.712	24.86
680.899	24.81
681.086	24.62
681.272	24.53
681.459	24.43
681.646	24.56
681.833	24.54
682.02	24.72
682.206	24.51
682.393	24.3
682.58	24.48
682.766	24.17
682.953	23.91
683.14	24.26
683.326	24.79
683.513	24.8
683.7	24.37
683.886	24.49
684.073	24.37
684.259	24.36
684.446	24.34
684.632	24.23
684.819	24.69
685.005	24.93
685.192	24.58
685.378	24.41
685.565	24.67
685.751	24.86
685.938	24.81
686.124	25.1
686.31	25.03
686.497	25
686.683	25.01
686.87	24.93
687.056	24.86
687.242	25.03
687.429	24.99
687.615	24.82
687.801	25.05
687.987	25.21
688.174	25.19
688.36	25.3
688.546	25.65
688.732	25.75
688.918	25.53
689.105	25.55
689.291	25.74
689.477	25.81
689.663	25.82
689.849	25.71
690.035	25.63
690.221	25.68
690.407	25.85
690.593	25.67
690.779	25.64
690.965	25.56
691.151	25.35
691.337	25.33
691.523	25.46
691.709	25.85
691.895	25.75
692.081	25.82
692.267	25.48
692.453	25.32
692.639	25.45
692.825	25.44
693.011	25.65
693.196	25.7
693.382	25.76
693.568	25.44
693.754	25.5
693.94	25.8
694.125	25.89
694.311	25.92
694.497	25.78
694.682	25.42
694.868	25.12
695.054	25.11
695.239	24.94
695.425	24.68
695.611	24.86
695.796	24.6
695.982	24.52
696.168	24.41
696.353	24.29
696.539	24.36
696.724	24.61
696.91	24.57
697.095	24.59
697.281	24.68
697.466	24.6
697.652	24.64
697.837	24.59
698.023	24.58
698.208	24.58
698.393	24.69
698.579	24.78
698.764	24.75
698.949	24.99
699.135	25.09
699.32	25.36
699.505	25.38
699.691	25.29
699.876	25.38
700.061	25.62
700.246	25.51
700.432	25.54
700.617	25.55
700.802	25.72
700.987	25.27
701.172	24.71
701.358	24.63
701.543	25.17
701.728	24.97
701.913	24.85
702.098	25.01
702.283	25.22
702.468	25.44
702.653	25.44
702.838	25.31
703.023	25.58
703.208	25.87
703.393	25.75
703.578	25.27
703.763	25.34
703.948	25.58
704.133	25.12
704.318	25.28
704.503	25.27
704.688	25.28
704.873	25.45
705.057	25.27
705.242	25.41
705.427	25.11
705.612	25.31
705.797	25.59
705.981	25.43
706.166	25.49
706.351	25.62
706.536	25.47
706.72	25.41
706.905	25.11
707.09	25.25
707.274	25.33
707.459	25.51
707.644	25.15
707.828	24.77
708.013	24.61
708.197	24.83
708.382	24.45
708.567	24.59
708.751	24.54
708.936	24.82
709.12	25.08
709.305	25.03
709.489	24.98
709.673	25.49
709.858	25.54
710.042	25.61
710.227	25.38
710.411	24.83
710.596	24.76
710.78	25
710.964	24.93
711.149	24.84
711.333	24.87
711.517	25.06
711.702	24.69
711.886	24.68
712.07	24.83
712.254	24.96
712.438	25.86
712.623	25.64
712.807	25.46
712.991	25.24
713.175	25.25
713.359	25.25
713.544	25.18
713.728	25.26
713.912	25.18
714.096	24.98
714.28	24.82
714.464	24.34
714.648	24.52
714.832	24.46
715.016	24.52
715.2	24.43
715.384	24.29
715.568	23.85
715.752	23.97
715.936	24.37
716.12	24.67
716.304	24.83
716.488	24.95
716.671	25.24
716.855	25.2
717.039	25.35
717.223	25.48
717.407	25.55
717.59	26.04
717.774	25.8
717.958	25.8
718.142	25.45
718.325	25.37
718.509	25.49
718.693	25.28
718.877	25.42
719.06	25.32
719.244	25.16
719.428	24.98
719.611	25.05
719.795	25.14
719.978	24.77
720.162	24.8
720.345	24.9
720.529	25.03
720.713	24.81
720.896	25.06
721.08	24.78
721.263	25.05
721.446	25.07
721.63	24.77
721.813	25.31
721.997	25.24
722.18	25.47
722.364	25.42
722.547	25.19
722.73	25.08
722.914	24.47
723.097	24.4
723.28	23.83
723.464	23.93
723.647	24.03
723.83	23.42
724.013	23.74
724.197	23.6
724.38	23.44
724.563	23.46
724.746	23.63
724.929	23.71
725.112	24.31
725.296	24.66
725.479	24.89
725.662	25.14
725.845	25.4
726.028	25.5
726.211	25.67
726.394	26.1
726.577	26.15
726.76	26.14
726.943	26.68
727.126	26.17
727.309	26.04
727.492	25.77
727.675	25.21
727.858	25.34
728.041	25.36
728.224	25.41
728.407	25.27
728.589	24.53
728.772	24.43
728.955	24.04
729.138	24.31
729.321	24.65
729.503	24.9
729.686	25.49
729.869	25.08
730.052	25.37
730.234	25.48
730.417	25.05
730.6	25.67
730.782	25.82
730.965	25.78
731.148	25.54
731.33	24.96
731.513	24.88
731.695	24.54
731.878	24.53
732.061	24.14
732.243	23.43
732.426	23.7
732.608	23.54
732.791	22.96
732.973	23.17
733.156	23.43
733.338	23.78
733.52	23.91
733.703	24.19
733.885	24.38
734.068	23.9
734.25	24.57
734.432	24.71
734.615	25.27
734.797	25.73
734.979	25.63
735.162	25.52
735.344	25.34
735.526	25.25
735.708	25.7
735.891	25.64
736.073	26.21
736.255	25.99
736.437	25.59
736.619	25.31
736.802	25.19
736.984	24.9
737.166	24.67
737.348	24.89
737.53	24.53
737.712	23.98
737.894	24.1
738.076	24.09
738.258	23.95
738.44	24.33
738.622	24.82
738.804	25.22
738.986	25.71
739.168	26.06
739.35	26.59
739.532	26.42
739.714	26.39
739.896	26.36
740.078	25.84
740.259	26.35
740.441	26.19
740.623	25.74
740.805	25.58
740.987	25.35
741.168	25.31
741.35	24.89
741.532	25.65
741.714	25.64
741.895	26.25
742.077	26.39
742.259	25.95
742.44	26.51
742.622	26.42
742.804	26.06
742.985	25.74
743.167	25.66
743.348	25.55
743.53	25.26
743.711	25.18
743.893	24.62
744.075	24.8
744.256	24.8
744.438	24.28
744.619	24.37
744.8	24.53
744.982	24.62
745.163	24.62
745.345	24.63
745.526	24.76
745.707	24.95
745.889	25.24
746.07	24.42
746.252	24.39
746.433	24.06
746.614	23.37
746.795	23.35
746.977	24.15
747.158	23.63
747.339	24
747.52	24.28
747.702	24.67
747.883	23.97
748.064	24.78
748.245	25.02
748.426	25.52
748.607	25.46
748.788	25.92
748.97	24.77
749.151	25.11
749.332	24.63
749.513	23.92
749.694	23.14
749.875	23.8
750.056	24.54
750.237	24.59
750.418	24.87
750.599	25.45
750.78	25.02
750.96	25.74
751.141	25.78
751.322	25.21
751.503	25.3
751.684	25.82
751.865	25.15
752.046	24.64
752.226	24.53
752.407	23.79
752.588	23.55
752.769	23.58
752.949	23.79
753.13	24.37
753.311	25.4
753.492	25.56
753.672	25.33
753.853	25.87
754.034	25.84
754.214	25.64
754.395	25.87
754.575	25.73
754.756	26.02
754.937	25.87
755.117	25.82
755.298	25.57
755.478	26.07
755.659	26
755.839	25.63
756.02	24.85
756.2	25.04
756.381	24.57
756.561	24.64
756.741	24.96
756.922	25.46
757.102	25.29
757.283	25.44
757.463	24.94
757.643	24.43
757.823	24.26
758.004	25.32
758.184	25.31
758.364	25.63
758.545	25.84
758.725	25.1
758.905	24.86
759.085	24.64
759.265	24.11
759.446	23.75
759.626	24.05
759.806	24.26
759.986	23.76
760.166	23.76
760.346	23.14
760.526	23.27
760.706	23.37
760.886	23.13
761.066	23.54
761.246	23.93
761.426	25.21
761.606	25.28
761.786	25.38
761.966	25.41
762.146	25.66
762.326	25.69
762.506	25.84
762.686	25.87
762.866	25.69
763.046	25.66
763.225	25.68
763.405	24.64
763.585	25.06
763.765	24.75
763.945	24.89
764.124	25.04
764.304	25.57
764.484	25.63
764.664	25.7
764.843	26.21
765.023	26.04
765.203	25.61
765.382	25.87
765.562	25.82
765.741	25.96
765.921	25.82
766.101	25
766.28	24.56
766.46	23.22
766.639	23.07
766.819	22.07
766.998	22.96
767.178	23.06
767.357	23.36
767.537	23.2
767.716	23.91
767.896	23.61
768.075	23.74
768.254	24.18
768.434	25.31
768.613	25.42
768.792	25.43
768.972	23.97
769.151	24
769.33	23.97
769.51	23.68
769.689	23.72
769.868	24.1
770.047	24.95
770.226	24.88
770.406	25.53
770.585	26.41
770.764	26.46
770.943	26.5
771.122	26.68
771.301	26.13
771.48	26.55
771.66	26.06
771.839	25.64
772.018	25.01
772.197	24.93
772.376	24.29
772.555	23.64
772.734	24.28
772.913	25.02
773.092	24.87
773.271	25.7
773.449	25.61
773.628	25.77
773.807	26.3
773.986	25.4
774.165	25.56
774.344	25.45
774.523	25.3
774.701	25.25
774.88	24.98
775.059	25.3
775.238	25.57
775.417	25.15
775.595	25.42
775.774	25.02
775.953	26.35
776.131	26.1
776.31	26.47
776.489	26.69
776.667	26.31
776.846	26.61
777.025	26.11
777.203	25.89
777.382	26.12
777.56	25.54
777.739	25.69
777.917	25.59
778.096	25.88
778.274	25.38
778.453	25.13
778.631	25.89
778.81	25.34
778.988	24.92
779.166	24.72
779.345	24.59
779.523	23.99
779.702	25.05
779.88	24.14
780.058	23.63
780.237	23.9
780.415	23.69
780.593	23.56
780.771	22.78
780.95	23.86
781.128	23.97
781.306	24.38
781.484	24.88
781.662	24.37
781.841	24.88
782.019	24.98
782.197	24.5
782.375	24.66
782.553	25.3
782.731	26.04
782.909	26.12
783.087	26.42
783.265	25.9
783.443	25.49
783.621	25.28
783.799	25.1
783.977	24.78
784.155	25.47
784.333	25.26
784.511	24.01
784.689	23.97
784.867	23.73
785.045	22.56
785.223	22.13
785.4	23.49
785.578	22.92
785.756	23.58
785.934	23.7
786.112	23.73
786.289	23.98
786.467	23.94
786.645	24.31
786.823	23.91
787	24.55
787.178	24.47
787.356	24.46
787.533	24.57
787.711	23.89
787.889	24.38
788.066	23.48
788.244	24.24
788.421	25.32
788.599	25.9
788.776	26.78
788.954	26.06
789.131	26.59
789.309	25.66
789.486	26
789.664	26.48
789.841	27.41
790.019	28.39
790.196	28.21
790.373	27.54
790.551	27.43
790.728	26.35
790.906	26.84
791.083	27.11
791.26	27.43
791.437	26.64
791.615	26.78
791.792	25.96
791.969	25.7
792.146	25.72
792.324	26.02
792.501	24.46
792.678	24.54
792.855	24.67
793.032	24.57
793.209	24.55
793.387	24.44
793.564	23.58
793.741	23.66
793.918	23.76
794.095	23.32
794.272	23.16
794.449	24.21
794.626	24.49
794.803	24.85
794.98	24.52
795.157	24.8
795.334	25.65
795.511	26.52
795.688	25.91
795.864	25.73
796.041	26.02
796.218	25.66
796.395	25.26
796.572	25.08
796.749	24.81
796.925	25.24
797.102	24.69
797.279	23.77
797.456	23.42
797.632	24.34
797.809	23.69
797.986	23.32
798.162	23.53
798.339	23.91
798.516	24.74
798.692	24.36
798.869	24.52
799.046	25.14
799.222	26.1
799.399	25.99
799.575	25.51
799.752	26.64
799.928	26.24
800.105	26.66
800.281	26.34
800.458	25.97
800.634	25.52
800.811	24.91
800.987	24.59
801.163	24.7
801.34	23.87
801.516	24.68
801.692	24.95
801.869	24.44
802.045	25.19
802.221	25.61
802.398	25.42
802.574	26.59
802.75	26.09
802.926	26.63
803.103	25.72
803.279	26.66
803.455	26.56
803.631	25.97
803.807	25.8
803.983	24.65
804.16	23.54
804.336	24.06
804.512	23.64
804.688	23.99
804.864	23.95
805.04	24.08
805.216	24.44
805.392	22.8
805.568	22.74
805.744	23.26
805.92	23.11
806.096	24.66
806.272	23.51
806.448	23.49
806.623	24.77
806.799	25.35
806.975	25.62
807.151	25.76
807.327	26.46
807.503	27.13
807.678	26.82
807.854	28.87
808.03	28.79
808.206	29.91
808.381	30.15
808.557	29.93
808.733	28.81
808.908	27.58
809.084	26.85
809.26	28.14
809.435	26.88
809.611	27.25
809.787	24.93
809.962	24.87
810.138	23.88
810.313	24.33
810.489	22.54
810.664	22.03
810.84	23.41
811.015	24.57
811.191	23.18
811.366	25.54
811.542	26.02
811.717	26.67
811.892	26.67
812.068	27.65
812.243	26.48
812.419	27.53
812.594	27.31
812.769	28.03
812.944	26.57
813.12	27.22
813.295	25.59
813.47	26.18
813.645	25.7
813.821	25.09
813.996	25.89
814.171	26.56
814.346	25.04
814.521	26.41
814.697	27.23
814.872	27.52
815.047	28.23
815.222	28.49
815.397	28.14
815.572	28.41
815.747	28.91
815.922	27.14
816.097	27.5
816.272	27.95
816.447	27.45
816.622	26.48
816.797	25.57
816.972	25.54
817.147	25.45
817.322	25.26
817.496	26.01
817.671	26.81
817.846	27.94
818.021	27.88
818.196	28.95
818.371	29.36
818.545	30.04
818.72	30.18
818.895	28.81
819.069	28.69
819.244	28.67
819.419	27.03
819.594	26.34
819.768	25.83
819.943	26.17
820.117	25.12
820.292	24.88
820.467	24.27
820.641	24.57
820.816	24.79
820.99	24.45
821.165	24.3
821.339	24.58
821.514	24.47
821.688	24.33
821.863	24.14
822.037	24.57
822.212	24.53
822.386	24.33
822.56	24.18
822.735	24.28
822.909	24.56
823.084	24.64
823.258	24.73
823.432	24.56
823.606	24.71
823.781	24.77
823.955	24.9
824.129	24.99
824.303	25.2
824.478	25.66
824.652	25.09
824.826	25.29
825	24.99
825.174	24.89
825.348	24.99
825.523	24.71
825.697	24.38
825.871	23.71
826.045	23.48
826.219	23.76
826.393	23.67
826.567	23.95
826.741	23.45
826.915	23.79
827.089	23.93
827.263	24.1
827.437	24.03
827.611	24.14
827.784	24.43
827.958	24.48
828.132	24.26
828.306	23.81
828.48	24.44
828.654	24.63
828.827	24.25
829.001	24.27
829.175	23.67
829.349	24.14
829.522	24.35
829.696	24.88
829.87	25.06
830.044	24.29
830.217	24.62
830.391	23.57
830.565	23.27
830.738	23.91
830.912	23.64
831.085	24.85
831.259	24.47
831.432	24.74
831.606	24.06
831.779	23.71
831.953	24.55
832.126	24.09
832.3	24.43
832.473	24.32
832.647	23.13
832.82	23.03
832.994	22.51
833.167	22.78
833.34	22.29
833.514	21.97
833.687	22.11
833.86	22.39
834.034	22.55
834.207	22.62
834.38	23.41
834.553	24.82
834.727	24.79
834.9	25.12
835.073	24.89
835.246	24.99
835.419	25
835.593	24.98
835.766	24.94
835.939	26.27
836.112	26.02
836.285	24.9
836.458	24.15
836.631	25.01
836.804	24.6
836.977	25.54
837.15	25.33
837.323	25.92
837.496	25.7
837.669	25.27
837.842	23.15
838.015	22.47
838.188	22.94
838.361	23.05
838.533	21.64
838.706	21.43
838.879	21.97
839.052	22.83
839.225	24.04
839.398	25.4
839.57	26.17
839.743	27.06
839.916	27.69
840.088	27.55
840.261	26.57
840.434	28.5
840.607	29.33
840.779	28.03
840.952	28.01
841.124	27.46
841.297	28.19
841.47	28.41
841.642	29.23
841.815	28.63
841.987	28.02
842.16	29.49
842.332	27.92
842.505	28.2
842.677	26.6
842.85	28.28
843.022	25.36
843.194	24.06
843.367	24.1
843.539	20.71
843.712	22.42
843.884	24.27
844.056	23.14
844.229	22.85
844.401	24.68
844.573	25.87
844.745	23.22
844.918	26.3
845.09	26.31
845.262	25.8
845.434	27.55
845.606	25.45
845.779	25.55
845.951	27.24
846.123	27.56
846.295	22.98
846.467	21.79
846.639	21.93
846.811	20.84
846.983	21.35
847.155	21.28
847.327	23.7
847.499	27.12
847.671	25.55
847.843	25.88
848.015	27.88
848.187	29.46
848.359	32.92
848.531	33.31
848.703	35.8
848.875	33.16
849.047	33
849.218	32.53
849.39	31.69
849.562	31.82
849.734	29.46
849.905	27.14
850.077	27.4
850.249	25.62
850.421	26.42
850.592	24.87
850.764	29.02
850.936	32.67
851.107	30.55
851.279	31.24
851.451	30.37
851.622	31.51
851.794	31.23
851.965	32.28
852.137	37.04
852.308	36.1
852.48	36.26
852.651	33.54
852.823	29.18
852.994	30.2
853.166	27.44
853.337	26.4
853.509	27.6
853.68	29.54
853.851	30.25
854.023	25.7
854.194	27.71
854.365	26.1
854.537	29.77
854.708	31.54
854.879	32.49
855.05	33.5
855.222	35.68
855.393	34.39
855.564	31.31
855.735	28.75
855.906	28.84
856.078	27.98
856.249	31.44
856.42	25.53
856.591	22.73
856.762	19.86
856.933	21.03
857.104	24.63
857.275	25.71
857.446	25.15
857.617	25.69
857.788	22.8
857.959	20.71
858.13	19.42
858.301	21.79
858.472	23.42
858.643	24.73
858.814	25.39
858.985	20.33
859.155	18.22
859.326	25.5
859.497	30.23
859.668	34.1
859.839	36.21
860.009	36.76
860.18	38.43
860.351	39.01
860.522	36.9
860.692	38.72
860.863	39.48
861.034	38.74
861.204	32.3
861.375	26.66
861.546	24.52
861.716	22.6
861.887	24.68
862.057	21.88
862.228	20.67
862.398	19.37
862.569	18.42
862.739	18.99
862.91	20.49
863.08	24.07
863.251	27.09
863.421	30.19
863.592	31.27
863.762	25.54
863.932	29.4
864.103	30.2
864.273	30.06
864.443	27.22
864.614	25.51
864.784	26.95
864.954	25.26
865.125	22.89
865.295	23.28
865.465	22.92
865.635	25.18
865.805	22.91
865.976	18.81
866.146	19.5
866.316	21.38
866.486	24.04
866.656	23.14
866.826	24.03
866.996	24.39
867.166	24.9
867.336	21.99
867.506	22.94
867.676	21.99
867.846	19.64
868.016	23.09
868.186	20.76
868.356	15.53
868.526	14.78
868.696	13.85
868.866	13.15
869.036	12.25
869.206	18.94
869.376	15.05
869.545	15.18
869.715	18.89
869.885	17.75
870.055	20.47
870.224	23.01
870.394	24.5
870.564	26.77
870.734	27.79
870.903	26.21
871.073	26.06
871.243	29.86
871.412	29.86
871.582	31.41
871.751	29.85
871.921	31.74
872.091	33.1
872.26	32.28
872.43	32.06
872.599	32.18
872.769	29.91
872.938	27.73
873.108	29.14
873.277	30.18
873.446	31.61
873.616	34.83
873.785	29.13
873.955	27.74
874.124	29.57
874.293	27.49
874.463	24.55
874.632	26.25
874.801	28.95
874.971	27.37
875.14	23.95
875.309	24.14
875.478	22.77
875.647	26.28
875.817	26.23
875.986	24.24
876.155	24.46
876.324	28.67
876.493	29.97
876.662	24.75
876.831	26.12
877	28.37
877.17	30.08
877.339	34.21
877.508	34.34
877.677	31.96
877.846	31.84
878.015	34.01
878.184	35.46
878.352	34.92
878.521	35.39
878.69	33.18
878.859	32.22
879.028	31.16
879.197	29.2
879.366	26.78
879.534	27.43
879.703	26.46
879.872	25.61
880.041	25.4
880.21	22.01
880.378	22.49
880.547	22.24
880.716	22.38
880.884	21.53
881.053	20.4
881.222	21.31
881.39	22.05
881.559	22.56
881.727	23.05
881.896	22.3
882.065	23.15
882.233	22.96
882.402	23.53
882.57	23.07
882.739	23.07
882.907	23.74
883.076	23.76
883.244	23.54
883.412	22.14
883.581	21.64
883.749	21.63
883.918	22.31
884.086	23.84
884.254	23.54
884.423	24.63
884.591	25.09
884.759	24.46
884.927	24.76
885.096	24.68
885.264	27.05
885.432	27.04
885.6	28.83
885.769	27.49
885.937	25.81
886.105	26.06
886.273	24.95
886.441	25.16
886.609	26.27
886.777	24.64
886.945	25.47
887.113	26.51
887.281	27.99
887.449	26.03
887.617	28.86
887.785	29.24
887.953	30.26
888.121	30.82
888.289	33
888.457	33.22
888.625	29.96
888.793	31.9
888.961	32.1
889.129	30.6
889.296	31.86
889.464	31.47
889.632	31.01
889.8	29.62
889.967	30.69
890.135	27.39
