Data from 2938479_Reflection_2.txt Node
Date: Wed Jun 17 01:18:49 EDT 2015
User: robert
Spectrometer: USB4E03002
Autoset integration time: false
Trigger mode: 4
Integration Time (sec): 1.000000E-1
Scans to average: 10
Electric dark correction enabled: true
Nonlinearity correction enabled: false
Boxcar width: 5
Stray light correction enabled: false
XAxis mode: Wavelengths
Stop averaging: false
Number of Pixels in Spectrum: 3648
>>>>>Begin Spectral Data<<<<<
177.575	-84.9
177.794	-137.08
178.014	-105.51
178.233	-170.72
178.452	-89.11
178.672	-52.69
178.891	14.43
179.11	-85.09
179.33	-176.41
179.549	-133.13
179.768	-89.52
179.987	-159.83
180.207	-192.28
180.426	-86.66
180.645	-68.28
180.864	-50.65
181.084	-37.27
181.303	-20.96
181.522	-19.41
181.741	-24.34
181.96	-15.04
182.179	-35.28
182.398	29.37
182.618	34.54
182.837	-379.9
183.056	19725
183.275	98.02
183.494	76.43
183.713	80.13
183.932	77.66
184.151	82.71
184.37	123.82
184.589	132.04
184.808	148.02
185.027	163.38
185.246	192.13
185.465	204.92
185.684	476.04
185.903	-2118.15
186.122	714.91
186.341	731.75
186.56	-840.54
186.779	-2759.09
186.998	92.17
187.216	-26.44
187.435	2.86
187.654	-12.87
187.873	-129.98
188.092	-93.81
188.311	-2108.09
188.53	-83.26
188.748	-403.53
188.967	-573.57
189.186	623.11
189.405	647.21
189.623	391.41
189.842	554.9
190.061	261.38
190.28	319.96
190.498	332.88
190.717	-669.92
190.936	277.01
191.154	168.34
191.373	414.11
191.592	-4016.56
191.81	-7504.35
192.029	-535.83
192.248	2223.94
192.466	763.11
192.685	182.91
192.904	135.25
193.122	90.34
193.341	128.26
193.559	252.22
193.778	146.22
193.996	117.45
194.215	119.2
194.433	102.27
194.652	97.54
194.87	109.94
195.089	123.93
195.307	143.67
195.526	127.41
195.744	96.83
195.963	89.78
196.181	83.67
196.399	70.5
196.618	66.74
196.836	69.32
197.055	106.47
197.273	130.09
197.491	0.99
197.71	35.11
197.928	40.78
198.146	116.81
198.365	755.26
198.583	316.62
198.801	-853.01
199.019	474.87
199.238	352.03
199.456	150.67
199.674	161.42
199.892	210.22
200.111	280.29
200.329	424.93
200.547	532.87
200.765	478.76
200.983	241.67
201.202	303.54
201.42	346.59
201.638	203.33
201.856	119.29
202.074	183.91
202.292	124.06
202.51	76.92
202.728	89.99
202.946	100.94
203.165	125.93
203.383	145.48
203.601	145.52
203.819	196.34
204.037	417.43
204.255	361.38
204.473	938.66
204.691	-28.48
204.909	38.3
205.127	27.19
205.345	45.95
205.562	60.25
205.78	31.01
205.998	-40.85
206.216	-17.68
206.434	18.15
206.652	-18.93
206.87	-50.42
207.088	-14.55
207.306	-41.84
207.523	23.22
207.741	51.55
207.959	79.83
208.177	119.03
208.395	110.58
208.612	202.36
208.83	2916.98
209.048	-258.76
209.266	-296.61
209.483	-123.22
209.701	-59.36
209.919	16.93
210.136	48.59
210.354	738.25
210.572	59.15
210.79	194.08
211.007	71.33
211.225	48.23
211.442	37.63
211.66	-256.18
211.878	-217.83
212.095	1271.34
212.313	-462.52
212.53	-589.48
212.748	-311.26
212.966	-513.19
213.183	-612.18
213.401	-1994.35
213.618	-891.07
213.836	-430.91
214.053	-570.71
214.271	-1332.32
214.488	-94
214.705	-39.65
214.923	-2.15
215.14	58.09
215.358	-33.86
215.575	-8.15
215.793	49.93
216.01	29.28
216.227	-2.21
216.445	17.89
216.662	67.71
216.879	80.36
217.097	122.21
217.314	148.44
217.531	119.49
217.749	136.41
217.966	113.5
218.183	152.87
218.4	124.42
218.618	71.91
218.835	71.04
219.052	42.87
219.269	29.59
219.487	20.71
219.704	9.64
219.921	17.08
220.138	11.67
220.355	17.87
220.572	7.52
220.79	13.17
221.007	15.76
221.224	20.43
221.441	24.55
221.658	27.49
221.875	14.88
222.092	15.47
222.309	4.5
222.526	10.19
222.743	20.06
222.96	16.47
223.177	13.38
223.394	17.17
223.611	13.58
223.828	12.33
224.045	13.79
224.262	18.3
224.479	16.1
224.696	18.57
224.913	12.52
225.13	7.27
225.347	8.57
225.564	10.7
225.781	8.86
225.997	8.41
226.214	10.11
226.431	9.54
226.648	7.97
226.865	7.93
227.082	6.7
227.298	8.97
227.515	9.25
227.732	10.27
227.949	9.49
228.165	8.89
228.382	8.46
228.599	6.68
228.816	6.57
229.032	7.49
229.249	6.89
229.466	8.41
229.682	7.34
229.899	9.11
230.116	10.19
230.332	11.34
230.549	14.12
230.765	17.27
230.982	19.99
231.199	19.72
231.415	20.79
231.632	21.24
231.848	21.91
232.065	20.89
232.281	18.6
232.498	16.17
232.714	15.77
232.931	12.64
233.147	10.93
233.364	10.71
233.58	11.27
233.797	10.24
234.013	8.9
234.23	7.22
234.446	9.31
234.662	10.2
234.879	11.66
235.095	10.41
235.312	13.85
235.528	14.44
235.744	14.94
235.961	13.31
236.177	13.35
236.393	14.68
236.61	15.03
236.826	12.53
237.042	12.78
237.258	14.41
237.475	16.18
237.691	14.85
237.907	14.06
238.123	12.22
238.339	14.13
238.556	11.73
238.772	12.13
238.988	10.84
239.204	11.86
239.42	11.12
239.636	9.93
239.853	9.13
240.069	9.06
240.285	8.53
240.501	9.72
240.717	9.48
240.933	9.79
241.149	10.06
241.365	10.26
241.581	10.7
241.797	11.32
242.013	11.23
242.229	12.19
242.445	11.87
242.661	11.67
242.877	11.22
243.093	11.48
243.309	11.67
243.525	11.48
243.741	11.3
243.957	9.84
244.173	10.02
244.388	9.75
244.604	9.11
244.82	9.51
245.036	9.88
245.252	9.66
245.468	9.14
245.683	9
245.899	8.68
246.115	8.32
246.331	8.47
246.547	8.33
246.762	8.73
246.978	9.18
247.194	8.79
247.409	8.83
247.625	8.57
247.841	8.71
248.057	8.37
248.272	8.2
248.488	8.3
248.703	8.37
248.919	8.88
249.135	9.39
249.35	7.97
249.566	8.9
249.782	9.19
249.997	8.87
250.213	9.5
250.428	10.52
250.644	10.4
250.859	10.42
251.075	10.46
251.29	10.1
251.506	8.55
251.721	9.63
251.937	9.16
252.152	7.79
252.368	8.31
252.583	7.59
252.798	7.07
253.014	7.92
253.229	8.12
253.445	7.44
253.66	5.66
253.875	7.03
254.091	6.78
254.306	6.74
254.521	7.42
254.737	7.83
254.952	7.8
255.167	7.26
255.383	7.76
255.598	8.89
255.813	8.56
256.028	8.84
256.244	7.88
256.459	7.38
256.674	7.62
256.889	7.62
257.104	7.42
257.32	7.75
257.535	7.47
257.75	7.13
257.965	6.84
258.18	7.14
258.395	6.92
258.61	7.03
258.826	6.73
259.041	6.56
259.256	6.57
259.471	6.49
259.686	6.22
259.901	6.31
260.116	5.89
260.331	5.42
260.546	5.52
260.761	6.04
260.976	6.09
261.191	6.32
261.406	6.28
261.621	6.25
261.836	5.82
262.05	5.31
262.265	6.37
262.48	6.22
262.695	6.5
262.91	5.57
263.125	5.38
263.34	5.53
263.555	5.79
263.769	6.45
263.984	6.46
264.199	6.83
264.414	7.43
264.629	7.03
264.843	8.49
265.058	9.59
265.273	9.55
265.488	9.01
265.702	8.65
265.917	8.46
266.132	7.7
266.346	8.21
266.561	8.08
266.776	7.46
266.99	6.86
267.205	5.87
267.42	4.53
267.634	4.66
267.849	4.81
268.063	4.91
268.278	4.74
268.492	5.13
268.707	4.47
268.922	4.08
269.136	4.37
269.351	4.8
269.565	5.5
269.78	5.56
269.994	5.62
270.209	5.78
270.423	5.6
270.637	6
270.852	5.8
271.066	5.62
271.281	5.89
271.495	6.42
271.709	6.25
271.924	5.75
272.138	5.82
272.353	6.09
272.567	6.37
272.781	6.52
272.996	5.94
273.21	6.5
273.424	6.36
273.638	6.68
273.853	6.18
274.067	6.34
274.281	6.53
274.495	6.35
274.71	6.11
274.924	5.63
275.138	6
275.352	6.59
275.566	5.61
275.781	5.89
275.995	5.96
276.209	5.82
276.423	5.89
276.637	5.3
276.851	5.92
277.065	6.14
277.279	5.94
277.493	6.09
277.707	6.28
277.921	6.34
278.135	6.53
278.349	6.34
278.563	6.52
278.777	5.84
278.991	5.84
279.205	5.2
279.419	4.75
279.633	4.91
279.847	4.42
280.061	3.91
280.275	4.74
280.489	4.31
280.703	3.91
280.917	4.17
281.131	4.73
281.344	5.01
281.558	5.69
281.772	6.25
281.986	6.72
282.2	6.81
282.414	6.88
282.627	6.82
282.841	7.07
283.055	7.09
283.269	6.96
283.482	6.93
283.696	6.83
283.91	6.33
284.123	6.27
284.337	5.79
284.551	5.83
284.764	6.24
284.978	5.78
285.192	5.71
285.405	5.78
285.619	5.7
285.833	5.58
286.046	6.03
286.26	6.34
286.473	6.27
286.687	6.48
286.9	6.11
287.114	5.84
287.327	5.94
287.541	6.25
287.754	6.49
287.968	5.84
288.181	5.99
288.395	5.7
288.608	5.62
288.822	5.66
289.035	5.69
289.248	6.07
289.462	5.53
289.675	6.01
289.889	6.19
290.102	5.81
290.315	7.03
290.529	6.46
290.742	6.27
290.955	6.23
291.169	6.71
291.382	6.98
291.595	6.92
291.808	7.66
292.022	7.38
292.235	6.87
292.448	7.55
292.661	7.08
292.875	7.66
293.088	8.21
293.301	8.38
293.514	8.03
293.727	7.62
293.94	7.47
294.153	7.24
294.367	7.14
294.58	7.24
294.793	6.78
295.006	6.84
295.219	6.79
295.432	6.66
295.645	6.63
295.858	6.43
296.071	6.58
296.284	6.71
296.497	6.83
296.71	6.82
296.923	7.03
297.136	7.25
297.349	6.89
297.562	6.94
297.775	6.59
297.988	6.69
298.201	6.49
298.414	6.25
298.626	6.39
298.839	6.31
299.052	6.11
299.265	6.18
299.478	6.75
299.691	7.2
299.903	6.8
300.116	7.11
300.329	7.1
300.542	7.43
300.755	7.26
300.967	7.37
301.18	7.4
301.393	7.86
301.605	7.58
301.818	7.4
302.031	7.42
302.243	7.31
302.456	7.55
302.669	7.38
302.881	7.01
303.094	7.74
303.307	7.71
303.519	7.63
303.732	7.09
303.944	6.93
304.157	6.33
304.37	5.93
304.582	6.48
304.795	6.29
305.007	6.24
305.22	6.31
305.432	5.47
305.645	5.03
305.857	4.95
306.069	5.51
306.282	5.97
306.494	6.48
306.707	7.02
306.919	6.77
307.132	6.68
307.344	6.4
307.556	6.33
307.769	6.56
307.981	6.79
308.193	6.76
308.406	6.82
308.618	6.58
308.83	6.29
309.043	6.01
309.255	6.18
309.467	6.38
309.679	6.61
309.892	6.67
310.104	6.87
310.316	6.72
310.528	6.89
310.74	7.13
310.953	7.11
311.165	7.42
311.377	7.69
311.589	7.66
311.801	7.45
312.013	7.58
312.225	8.49
312.437	8.26
312.649	8.36
312.862	8.33
313.074	7.94
313.286	8.34
313.498	8.07
313.71	8.28
313.922	8.78
314.134	8.69
314.346	9.17
314.558	8.98
314.77	9.25
314.982	9.12
315.193	9.32
315.405	9.31
315.617	9
315.829	8.47
316.041	7.84
316.253	7.73
316.465	7.78
316.677	7.2
316.888	6.97
317.1	6.75
317.312	7.24
317.524	7.19
317.736	7.19
317.947	7.79
318.159	8.67
318.371	8.91
318.583	9.39
318.794	9.74
319.006	10.3
319.218	10.01
319.43	10.35
319.641	10.2
319.853	10.39
320.064	10.37
320.276	9.88
320.488	9.46
320.699	9.39
320.911	8.57
321.123	8.38
321.334	8.3
321.546	8.26
321.757	8.04
321.969	7.88
322.18	7.93
322.392	8
322.603	7.68
322.815	7.71
323.026	8.13
323.238	8.36
323.449	8.93
323.661	8.96
323.872	9.02
324.083	9.26
324.295	9.66
324.506	9.27
324.718	8.91
324.929	9.06
325.14	9.43
325.352	9.31
325.563	9.37
325.774	9.11
325.986	9.16
326.197	9.48
326.408	9.58
326.62	9.4
326.831	9.64
327.042	10.33
327.253	10.44
327.464	10.53
327.676	10.92
327.887	10.89
328.098	10.91
328.309	11.08
328.52	11.48
328.732	11.71
328.943	12.16
329.154	11.91
329.365	12.28
329.576	12.76
329.787	13.04
329.998	13
330.209	13.58
330.42	13.54
330.631	13.28
330.842	12.71
331.053	13.02
331.264	12.7
331.475	13.17
331.686	12.91
331.897	12.53
332.108	12.42
332.319	12.69
332.53	12.17
332.741	12.35
332.952	12.53
333.163	12.62
333.374	12.39
333.585	12.45
333.795	12.42
334.006	12.67
334.217	13.05
334.428	13
334.639	12.49
334.849	12.6
335.06	12.66
335.271	12.74
335.482	13.1
335.692	13.17
335.903	13.2
336.114	13.6
336.325	13.57
336.535	13.4
336.746	13.4
336.957	13.41
337.167	13.59
337.378	13.57
337.589	13.74
337.799	13.55
338.01	13.21
338.22	13.23
338.431	12.98
338.642	12.61
338.852	12.67
339.063	12.89
339.273	13.11
339.484	13.15
339.694	13.02
339.905	12.8
340.115	12.87
340.326	12.94
340.536	13.19
340.746	12.99
340.957	12.97
341.167	12.91
341.378	12.61
341.588	12.29
341.799	12.03
342.009	12.07
342.219	11.82
342.43	11.78
342.64	11.81
342.85	11.53
343.061	11.6
343.271	11.57
343.481	11.75
343.691	11.71
343.902	12.01
344.112	11.97
344.322	11.87
344.532	12.11
344.743	11.9
344.953	12.05
345.163	11.79
345.373	12.26
345.583	12.17
345.793	11.72
346.004	12.1
346.214	12.21
346.424	12.43
346.634	12.15
346.844	12.05
347.054	12.39
347.264	12.01
347.474	12.34
347.684	11.98
347.894	12.34
348.104	12.97
348.314	12.72
348.524	12.24
348.734	12.2
348.944	12.67
349.154	12.97
349.364	12.68
349.574	12.96
349.784	13.17
349.994	12.97
350.204	12.79
350.413	12.26
350.623	12.4
350.833	12.37
351.043	12.14
351.253	11.94
351.463	11.6
351.672	11.41
351.882	11.35
352.092	11.18
352.302	11.6
352.511	11.49
352.721	11.59
352.931	11.37
353.141	11.49
353.35	11.39
353.56	11.22
353.77	11.41
353.979	11.77
354.189	11.64
354.399	11.53
354.608	11.06
354.818	11.06
355.027	10.97
355.237	11.05
355.447	11.15
355.656	11.39
355.866	11.65
356.075	11.27
356.285	11.2
356.494	11.33
356.704	11.32
356.913	11.4
357.123	11.53
357.332	11.9
357.542	11.9
357.751	11.69
357.96	11.54
358.17	11.45
358.379	11.64
358.589	11.46
358.798	11.62
359.007	11.4
359.217	11.25
359.426	11.05
359.635	10.89
359.845	10.68
360.054	10.84
360.263	10.95
360.472	10.89
360.682	10.7
360.891	10.77
361.1	10.67
361.309	10.84
361.519	11.19
361.728	11.52
361.937	11.27
362.146	11.45
362.355	11.39
362.564	11.38
362.774	11.45
362.983	11.59
363.192	11.5
363.401	11.36
363.61	11.38
363.819	10.85
364.028	10.59
364.237	10.81
364.446	10.56
364.655	10.48
364.864	10.55
365.073	10.44
365.282	10.43
365.491	10.55
365.7	10.22
365.909	10.12
366.118	10.46
366.327	10.42
366.536	10.14
366.745	10.44
366.954	10.58
367.162	10.12
367.371	10.15
367.58	10.39
367.789	10.49
367.998	10.86
368.207	10.96
368.415	10.68
368.624	10.58
368.833	10.88
369.042	10.73
369.25	10.65
369.459	11.01
369.668	10.92
369.877	10.82
370.085	10.51
370.294	10.54
370.503	10.38
370.711	10.49
370.92	10.35
371.129	10.31
371.337	10.25
371.546	10.41
371.754	10.31
371.963	10.55
372.171	10.37
372.38	10.23
372.589	10
372.797	10.03
373.006	9.92
373.214	10.18
373.423	10
373.631	10.12
373.84	9.82
374.048	9.95
374.256	9.64
374.465	9.64
374.673	9.76
374.882	9.91
375.09	9.59
375.298	9.63
375.507	9.43
375.715	9.34
375.923	9.41
376.132	9.32
376.34	8.9
376.548	8.9
376.757	8.73
376.965	8.87
377.173	8.72
377.381	8.99
377.59	9
377.798	9.08
378.006	9.17
378.214	8.98
378.423	9.06
378.631	9.41
378.839	9.44
379.047	9.58
379.255	9.21
379.463	9.21
379.671	9.36
379.879	9.5
380.088	9.49
380.296	9.52
380.504	9.39
380.712	9.28
380.92	8.9
381.128	8.65
381.336	8.75
381.544	8.76
381.752	8.81
381.96	8.54
382.168	8.37
382.376	8.39
382.584	8.32
382.791	8.34
382.999	8.48
383.207	8.69
383.415	8.96
383.623	8.75
383.831	8.95
384.039	9
384.247	8.88
384.454	8.63
384.662	8.64
384.87	8.67
385.078	8.82
385.285	8.62
385.493	8.51
385.701	8.26
385.909	8.36
386.116	8.32
386.324	8.34
386.532	8.39
386.739	8.47
386.947	8.49
387.155	8.42
387.362	8.18
387.57	8.12
387.778	8.2
387.985	8.39
388.193	8.41
388.4	8.41
388.608	8.25
388.816	8.22
389.023	8.32
389.231	8.24
389.438	8.09
389.646	8.23
389.853	8.46
390.061	8.37
390.268	8.31
390.475	8.38
390.683	8.21
390.89	8.1
391.098	8.16
391.305	8.2
391.512	8.19
391.72	8.37
391.927	8.19
392.135	8.13
392.342	8.1
392.549	8.02
392.756	7.8
392.964	7.95
393.171	7.96
393.378	8.03
393.586	7.81
393.793	7.72
394	7.73
394.207	7.76
394.414	7.72
394.622	7.88
394.829	7.92
395.036	7.94
395.243	7.74
395.45	7.82
395.657	7.78
395.864	7.72
396.072	7.81
396.279	7.7
396.486	7.6
396.693	7.62
396.9	7.4
397.107	7.53
397.314	7.34
397.521	7.55
397.728	7.66
397.935	7.67
398.142	7.82
398.349	7.73
398.556	7.7
398.763	7.83
398.97	7.82
399.177	7.9
399.383	7.77
399.59	7.84
399.797	7.82
400.004	7.5
400.211	7.4
400.418	7.48
400.625	7.35
400.831	7.19
401.038	7.33
401.245	7.24
401.452	7.23
401.658	7.2
401.865	7.37
402.072	7.31
402.279	7.57
402.485	7.65
402.692	7.53
402.899	7.65
403.105	7.78
403.312	7.74
403.519	7.68
403.725	7.68
403.932	7.78
404.138	7.68
404.345	7.86
404.552	7.74
404.758	7.68
404.965	7.79
405.171	7.83
405.378	7.73
405.584	7.59
405.791	7.89
405.997	7.84
406.204	7.85
406.41	7.69
406.617	7.46
406.823	7.48
407.029	7.63
407.236	7.59
407.442	7.51
407.649	7.72
407.855	7.67
408.061	7.59
408.268	7.55
408.474	7.58
408.68	7.69
408.887	7.59
409.093	7.5
409.299	7.28
409.505	7.29
409.712	7.22
409.918	7.29
410.124	7.46
410.33	7.32
410.537	7.28
410.743	7.15
410.949	7.07
411.155	7.08
411.361	7.25
411.567	7.08
411.773	7.02
411.98	7.11
412.186	6.97
412.392	6.86
412.598	6.71
412.804	6.81
413.01	6.88
413.216	7.02
413.422	7.25
413.628	7.22
413.834	7.31
414.04	7.32
414.246	7.23
414.452	7.18
414.658	7.16
414.864	7.27
415.07	7.33
415.275	7.21
415.481	7.14
415.687	7.05
415.893	6.98
416.099	7.04
416.305	6.98
416.511	7.08
416.716	7.1
416.922	7.11
417.128	7.12
417.334	7.13
417.539	7.13
417.745	7.13
417.951	7.13
418.157	7.15
418.362	7.2
418.568	7.19
418.774	7.19
418.979	7.21
419.185	7.21
419.391	7.17
419.596	7.1
419.802	7.14
420.008	7.2
420.213	7.88
420.419	7.81
420.624	7.76
420.83	7.78
421.035	7.72
421.241	7.76
421.446	7.76
421.652	7.78
421.857	7.75
422.063	7.76
422.268	7.73
422.474	7.05
422.679	7.09
422.885	7.09
423.09	7.11
423.295	7.1
423.501	7.05
423.706	7.06
423.911	7.05
424.117	7.18
424.322	7.21
424.527	7.25
424.733	7.19
424.938	7.2
425.143	7.31
425.349	7.3
425.554	7.28
425.759	7.24
425.964	7.18
426.169	7.26
426.375	7.15
426.58	7.14
426.785	7.03
426.99	7.02
427.195	7.01
427.4	6.9
427.605	6.89
427.811	7.01
428.016	7.08
428.221	7.08
428.426	6.98
428.631	7.04
428.836	7.09
429.041	7.13
429.246	7.2
429.451	7.18
429.656	7.12
429.861	7.35
430.066	7.29
430.271	7.27
430.476	7.34
430.681	7.39
430.886	7.32
431.09	7.27
431.295	7.2
431.5	7.26
431.705	7.37
431.91	7.43
432.115	7.32
432.32	7.3
432.524	7.36
432.729	7.17
432.934	7.16
433.139	7.22
433.343	7.17
433.548	7.21
433.753	7.17
433.958	7.07
434.162	7.16
434.367	7.1
434.572	7.19
434.776	7.15
434.981	7.42
435.186	7.36
435.39	7.21
435.595	7.25
435.799	7.42
436.004	7.41
436.209	7.47
436.413	7.42
436.618	7.49
436.822	7.52
437.027	7.49
437.231	7.42
437.436	7.57
437.64	7.63
437.845	7.56
438.049	7.51
438.253	7.45
438.458	7.41
438.662	7.33
438.867	7.29
439.071	7.27
439.275	7.23
439.48	7.2
439.684	7.14
439.888	7.1
440.093	7.09
440.297	7.14
440.501	7.23
440.706	7.27
440.91	7.29
441.114	7.35
441.318	7.28
441.523	7.3
441.727	7.34
441.931	7.32
442.135	7.4
442.339	7.42
442.543	7.29
442.748	7.19
442.952	7.18
443.156	7.18
443.36	7.12
443.564	7.22
443.768	7.25
443.972	7.28
444.176	7.3
444.38	7.37
444.584	7.38
444.788	7.36
444.992	7.41
445.196	7.43
445.4	7.46
445.604	7.43
445.808	7.41
446.012	7.39
446.216	7.37
446.42	7.39
446.624	7.27
446.828	7.26
447.032	7.27
447.235	7.24
447.439	7.15
447.643	7.17
447.847	7.23
448.051	7.16
448.254	7.19
448.458	7.2
448.662	7.12
448.866	7.2
449.069	7.23
449.273	7.24
449.477	7.21
449.681	7.29
449.884	7.14
450.088	7.18
450.292	7.12
450.495	7.03
450.699	6.99
450.902	6.99
451.106	7.02
451.31	6.96
451.513	6.95
451.717	7.05
451.92	7
452.124	7.04
452.327	6.97
452.531	7.01
452.734	7.14
452.938	7.27
453.141	7.38
453.345	7.38
453.548	7.5
453.752	7.52
453.955	7.47
454.158	7.4
454.362	7.41
454.565	7.35
454.769	7.28
454.972	7.12
455.175	6.94
455.379	6.85
455.582	6.77
455.785	6.68
455.988	6.66
456.192	6.68
456.395	6.74
456.598	6.77
456.801	6.88
457.005	6.97
457.208	7
457.411	7.07
457.614	7.1
457.817	7.14
458.021	7.16
458.224	7.21
458.427	7.13
458.63	7.12
458.833	7.09
459.036	7.04
459.239	7.07
459.442	7.09
459.645	7.15
459.848	7.17
460.051	7.13
460.254	7.14
460.457	7.13
460.66	7.25
460.863	7.27
461.066	7.33
461.269	7.28
461.472	7.18
461.675	7.29
461.878	7.21
462.081	7.15
462.284	7.18
462.486	7.22
462.689	7.21
462.892	7.15
463.095	7.11
463.298	7.22
463.5	7.24
463.703	7.36
463.906	7.3
464.109	7.27
464.311	7.25
464.514	7.31
464.717	7.25
464.92	7.19
465.122	7.16
465.325	7.21
465.528	7.13
465.73	7.21
465.933	7.19
466.135	7.21
466.338	7.31
466.541	7.35
466.743	7.31
466.946	7.39
467.148	7.37
467.351	7.36
467.553	7.28
467.756	7.36
467.958	7.42
468.161	7.39
468.363	7.25
468.566	7.16
468.768	7.13
468.971	7.12
469.173	7.04
469.375	7.18
469.578	7.23
469.78	7.35
469.983	7.27
470.185	7.24
470.387	7.15
470.59	7.25
470.792	7.31
470.994	7.35
471.196	7.43
471.399	7.44
471.601	7.44
471.803	7.41
472.005	7.43
472.208	7.54
472.41	7.59
472.612	7.87
472.814	7.86
473.016	7.77
473.218	7.82
473.421	7.77
473.623	7.79
473.825	7.71
474.027	7.7
474.229	7.66
474.431	7.56
474.633	7.47
474.835	7.26
475.037	7.31
475.239	7.24
475.441	7.21
475.643	7.21
475.845	7.25
476.047	7.33
476.249	7.4
476.451	7.4
476.653	7.34
476.855	7.41
477.057	7.51
477.258	7.53
477.46	7.58
477.662	7.5
477.864	7.43
478.066	7.43
478.268	7.35
478.469	7.31
478.671	7.43
478.873	7.5
479.075	7.51
479.276	7.42
479.478	7.38
479.68	7.35
479.882	7.35
480.083	7.41
480.285	7.42
480.487	7.44
480.688	7.45
480.89	7.38
481.091	7.35
481.293	7.32
481.495	7.31
481.696	7.32
481.898	7.3
482.099	7.35
482.301	7.35
482.502	7.33
482.704	7.31
482.905	7.28
483.107	7.29
483.308	7.28
483.51	7.26
483.711	7.25
483.913	7.28
484.114	7.29
484.315	7.27
484.517	7.24
484.718	7.2
484.92	7.2
485.121	7.23
485.322	7.25
485.524	7.29
485.725	7.33
485.926	7.34
486.127	7.29
486.329	7.31
486.53	7.33
486.731	7.35
486.932	7.37
487.134	7.39
487.335	7.39
487.536	7.36
487.737	7.33
487.938	7.32
488.139	7.4
488.341	7.42
488.542	7.42
488.743	7.39
488.944	7.44
489.145	7.45
489.346	7.5
489.547	7.52
489.748	7.53
489.949	7.58
490.15	7.59
490.351	7.55
490.552	7.51
490.753	7.5
490.954	7.51
491.155	7.46
491.356	7.48
491.557	7.47
491.758	7.47
491.959	7.47
492.159	7.45
492.36	7.39
492.561	7.43
492.762	7.51
492.963	7.55
493.164	7.57
493.364	7.54
493.565	7.5
493.766	7.48
493.967	7.43
494.167	7.48
494.368	7.5
494.569	7.59
494.769	7.59
494.97	7.57
495.171	7.62
495.371	7.57
495.572	7.7
495.773	7.81
495.973	7.85
496.174	7.91
496.375	7.88
496.575	7.95
496.776	7.94
496.976	7.91
497.177	7.96
497.377	8.01
497.578	8.12
497.778	8.2
497.979	8.22
498.179	8.18
498.38	8.24
498.58	8.32
498.78	8.34
498.981	8.45
499.181	8.53
499.382	8.51
499.582	8.48
499.782	8.51
499.983	8.48
500.183	8.38
500.383	8.53
500.584	8.51
500.784	8.47
500.984	8.45
501.184	8.42
501.385	8.43
501.585	8.49
501.785	8.49
501.985	8.56
502.185	8.6
502.386	8.64
502.586	8.69
502.786	8.71
502.986	8.75
503.186	8.71
503.386	8.75
503.586	8.76
503.786	8.74
503.987	8.81
504.187	8.79
504.387	8.79
504.587	8.82
504.787	8.82
504.987	8.85
505.187	8.9
505.387	9.02
505.587	9.03
505.786	9.02
505.986	9.07
506.186	9.12
506.386	9.15
506.586	9.16
506.786	9.25
506.986	9.14
507.186	9.24
507.386	9.24
507.585	9.29
507.785	9.35
507.985	9.43
508.185	9.51
508.384	9.57
508.584	9.55
508.784	9.62
508.984	9.61
509.183	9.72
509.383	9.76
509.583	9.87
509.782	9.92
509.982	9.99
510.182	10.04
510.381	10.07
510.581	10.09
510.781	10.23
510.98	10.28
511.18	10.31
511.379	10.39
511.579	10.44
511.778	10.4
511.978	10.39
512.177	10.32
512.377	10.36
512.576	10.4
512.776	10.39
512.975	10.37
513.175	10.4
513.374	10.54
513.573	10.52
513.773	10.47
513.972	10.54
514.172	10.58
514.371	10.69
514.57	10.73
514.77	10.78
514.969	10.81
515.168	10.9
515.367	10.86
515.567	10.86
515.766	10.96
515.965	11.03
516.164	11.08
516.364	11.15
516.563	11.21
516.762	11.25
516.961	11.23
517.16	11.33
517.359	11.31
517.559	11.34
517.758	11.36
517.957	11.4
518.156	11.46
518.355	11.49
518.554	11.45
518.753	11.47
518.952	11.49
519.151	11.58
519.35	11.59
519.549	11.73
519.748	11.88
519.947	11.94
520.146	11.91
520.345	11.95
520.544	11.95
520.743	12.11
520.942	12.12
521.141	12.21
521.339	12.32
521.538	12.32
521.737	12.3
521.936	12.28
522.135	12.24
522.333	12.27
522.532	12.34
522.731	12.41
522.93	12.43
523.129	12.46
523.327	12.43
523.526	12.44
523.725	12.54
523.923	12.54
524.122	12.63
524.321	12.62
524.519	12.66
524.718	12.64
524.917	12.68
525.115	12.74
525.314	12.79
525.512	12.82
525.711	12.81
525.909	12.83
526.108	12.86
526.306	12.85
526.505	12.95
526.703	13
526.902	13.04
527.1	13.08
527.299	13.05
527.497	13.06
527.696	13.1
527.894	13.14
528.092	13.16
528.291	13.21
528.489	13.22
528.688	13.25
528.886	13.3
529.084	13.33
529.283	13.35
529.481	13.44
529.679	13.5
529.877	13.53
530.076	13.56
530.274	13.62
530.472	13.64
530.67	13.75
530.869	13.73
531.067	13.7
531.265	13.71
531.463	13.79
531.661	13.84
531.859	13.9
532.057	13.95
532.255	13.98
532.454	13.96
532.652	14
532.85	14.01
533.048	14.07
533.246	14.11
533.444	14.18
533.642	14.16
533.84	14.23
534.038	14.22
534.236	14.26
534.434	14.32
534.632	14.41
534.83	14.48
535.027	14.46
535.225	14.58
535.423	14.68
535.621	14.66
535.819	14.7
536.017	14.63
536.215	14.61
536.412	14.64
536.61	14.65
536.808	14.72
537.006	14.66
537.203	14.75
537.401	14.73
537.599	14.69
537.797	14.73
537.994	14.77
538.192	14.92
538.39	15.08
538.587	15.12
538.785	15.19
538.983	15.18
539.18	15.25
539.378	15.25
539.575	15.29
539.773	15.34
539.97	15.37
540.168	15.44
540.366	15.36
540.563	15.35
540.761	15.37
540.958	15.38
541.155	15.39
541.353	15.43
541.55	15.47
541.748	15.5
541.945	15.52
542.143	15.56
542.34	15.56
542.537	15.63
542.735	15.7
542.932	15.71
543.129	15.78
543.327	15.86
543.524	15.91
543.721	15.89
543.919	15.88
544.116	15.92
544.313	16.03
544.51	16.08
544.708	16.16
544.905	16.21
545.102	16.28
545.299	16.27
545.496	16.34
545.693	16.33
545.891	16.43
546.088	16.5
546.285	16.52
546.482	16.48
546.679	16.51
546.876	16.52
547.073	16.52
547.27	16.58
547.467	16.58
547.664	16.44
547.861	16.51
548.058	16.57
548.255	16.56
548.452	16.74
548.649	16.74
548.846	16.79
549.043	16.88
549.24	17
549.437	17.04
549.633	17.18
549.83	17.4
550.027	17.41
550.224	17.49
550.421	17.51
550.618	17.55
550.814	17.73
551.011	17.74
551.208	17.75
551.405	17.78
551.601	17.91
551.798	17.85
551.995	17.88
552.191	18.06
552.388	18.09
552.585	18.15
552.781	18.07
552.978	18.04
553.175	18.22
553.371	18.33
553.568	18.31
553.764	18.28
553.961	18.37
554.157	18.43
554.354	18.51
554.55	18.5
554.747	18.62
554.943	18.78
555.14	18.81
555.336	18.76
555.533	18.73
555.729	18.78
555.926	18.79
556.122	18.91
556.318	18.99
556.515	18.97
556.711	19.08
556.907	19.05
557.104	19.07
557.3	19.17
557.496	19.19
557.693	19.27
557.889	19.34
558.085	19.46
558.281	19.43
558.478	19.46
558.674	19.4
558.87	19.46
559.066	19.58
559.262	19.6
559.459	19.67
559.655	19.75
559.851	19.83
560.047	19.83
560.243	19.81
560.439	19.9
560.635	19.89
560.831	19.97
561.027	19.99
561.223	20.1
561.419	20.12
561.615	20.19
561.811	20.28
562.007	20.36
562.203	20.51
562.399	20.58
562.595	20.68
562.791	20.84
562.987	20.85
563.183	20.84
563.379	20.81
563.575	20.83
563.771	20.89
563.966	20.91
564.162	20.97
564.358	21
564.554	21.13
564.75	21.26
564.945	21.3
565.141	21.37
565.337	21.5
565.533	21.51
565.728	21.48
565.924	21.51
566.12	21.67
566.315	21.68
566.511	21.73
566.707	21.84
566.902	21.76
567.098	21.78
567.293	21.88
567.489	21.86
567.684	21.88
567.88	21.97
568.076	21.99
568.271	21.95
568.467	21.98
568.662	22.07
568.858	22.06
569.053	22.12
569.248	22.14
569.444	22.11
569.639	22.2
569.835	22.28
570.03	22.46
570.225	22.51
570.421	22.57
570.616	22.59
570.812	22.65
571.007	22.66
571.202	22.69
571.397	22.77
571.593	22.9
571.788	22.97
571.983	23.09
572.178	23.18
572.374	23.26
572.569	23.36
572.764	23.47
572.959	23.52
573.154	23.58
573.35	23.7
573.545	23.74
573.74	23.8
573.935	23.95
574.13	23.99
574.325	23.89
574.52	23.82
574.715	23.78
574.91	23.87
575.105	23.88
575.3	23.93
575.495	23.9
575.69	23.93
575.885	23.95
576.08	23.98
576.275	23.96
576.47	24.17
576.665	24.3
576.86	24.35
577.055	24.41
577.25	24.38
577.444	24.34
577.639	24.41
577.834	24.31
578.029	24.42
578.224	24.39
578.418	24.53
578.613	24.46
578.808	24.53
579.003	24.53
579.197	24.5
579.392	24.65
579.587	24.8
579.781	24.86
579.976	25.04
580.171	25.12
580.365	25.16
580.56	25.14
580.755	25.19
580.949	25.27
581.144	25.3
581.338	25.34
581.533	25.23
581.727	25.2
581.922	25.31
582.116	25.21
582.311	24.98
582.505	24.99
582.7	25.05
582.894	25
583.089	24.98
583.283	25.06
583.478	24.97
583.672	25.03
583.866	25.04
584.061	24.92
584.255	25.09
584.449	25.33
584.644	25.2
584.838	25.22
585.032	25.35
585.226	25.46
585.421	25.6
585.615	25.83
585.809	25.98
586.003	26.09
586.198	26.09
586.392	26.19
586.586	26.28
586.78	26.55
586.974	26.55
587.168	26.53
587.363	26.62
587.557	26.43
587.751	26.44
587.945	26.33
588.139	26.33
588.333	26.57
588.527	26.58
588.721	26.7
588.915	26.81
589.109	26.81
589.303	27.04
589.497	27.09
589.691	27.16
589.885	27.22
590.079	27.3
590.273	27.43
590.466	27.43
590.66	27.45
590.854	27.38
591.048	27.26
591.242	27.38
591.436	27.32
591.629	27.32
591.823	27.51
592.017	27.28
592.211	27.23
592.404	27.24
592.598	27.2
592.792	27.15
592.986	27.06
593.179	27.08
593.373	26.95
593.567	26.84
593.76	26.82
593.954	26.85
594.147	27.23
594.341	27.36
594.535	27.39
594.728	27.42
594.922	27.47
595.115	27.56
595.309	27.59
595.502	27.65
595.696	27.71
595.889	27.65
596.083	27.58
596.276	27.27
596.47	27.32
596.663	27.16
596.856	27.17
597.05	27.25
597.243	27.2
597.437	27.2
597.63	27.28
597.823	27.21
598.017	27.29
598.21	27.3
598.403	27.44
598.596	27.45
598.79	27.52
598.983	27.43
599.176	27.32
599.369	27.25
599.563	27.26
599.756	27.39
599.949	27.57
600.142	27.67
600.335	27.81
600.528	27.84
600.722	27.69
600.915	27.67
601.108	27.83
601.301	27.93
601.494	28.06
601.687	28.14
601.88	28.04
602.073	27.97
602.266	27.99
602.459	27.9
602.652	28.05
602.845	28.21
603.038	28.25
603.231	28.32
603.424	28.47
603.617	28.37
603.809	28.25
604.002	28.25
604.195	28.44
604.388	28.51
604.581	28.6
604.774	28.57
604.966	28.5
605.159	28.56
605.352	28.52
605.545	28.3
605.737	28.49
605.93	28.63
606.123	28.79
606.316	28.61
606.508	28.55
606.701	28.61
606.894	28.51
607.086	28.55
607.279	28.5
607.471	28.5
607.664	28.44
607.857	28.27
608.049	28.29
608.242	28.23
608.434	28.22
608.627	28.3
608.819	28.25
609.012	28.25
609.204	28.3
609.397	28.41
609.589	28.41
609.782	28.64
609.974	28.68
610.166	28.68
610.359	28.57
610.551	28.67
610.743	28.66
610.936	28.71
611.128	28.91
611.32	28.87
611.513	28.86
611.705	28.98
611.897	28.96
612.09	29.29
612.282	29.39
612.474	29.63
612.666	29.5
612.858	29.58
613.051	29.64
613.243	29.68
613.435	29.88
613.627	30.05
613.819	29.94
614.011	30.05
614.203	29.77
614.395	29.71
614.588	29.65
614.78	29.79
614.972	29.62
615.164	29.52
615.356	29.35
615.548	29.36
615.74	29.32
615.932	29.27
616.124	29.26
616.315	29.34
616.507	29.18
616.699	29.22
616.891	29.14
617.083	29.13
617.275	29.17
617.467	29.15
617.659	29.21
617.85	29.12
618.042	29.21
618.234	29.18
618.426	29.27
618.618	29.32
618.809	29.28
619.001	29.47
619.193	29.65
619.384	29.6
619.576	29.62
619.768	29.39
619.959	29.36
620.151	29.47
620.343	29.34
620.534	29.24
620.726	29.53
620.917	29.53
621.109	29.43
621.301	29.42
621.492	29.55
621.684	29.64
621.875	29.75
622.067	29.75
622.258	29.69
622.45	29.8
622.641	29.87
622.832	29.93
623.024	29.93
623.215	29.84
623.407	29.87
623.598	30.1
623.789	30.26
623.981	30.34
624.172	30.48
624.363	30.45
624.555	30.47
624.746	30.54
624.937	30.4
625.129	30.39
625.32	30.48
625.511	30.37
625.702	30.32
625.893	30.13
626.085	30.03
626.276	30.05
626.467	29.95
626.658	29.98
626.849	29.91
627.04	29.95
627.231	30.04
627.422	29.81
627.614	29.91
627.805	29.68
627.996	29.78
628.187	29.71
628.378	29.68
628.569	29.76
628.76	29.88
628.951	29.98
629.142	29.9
629.332	29.83
629.523	30.37
629.714	30.43
629.905	30.59
630.096	30.57
630.287	30.73
630.478	30.75
630.669	30.93
630.859	30.74
631.05	30.84
631.241	30.88
631.432	31.06
631.623	30.79
631.813	30.66
632.004	30.67
632.195	30.83
632.385	30.84
632.576	30.74
632.767	30.73
632.957	30.66
633.148	30.73
633.339	30.75
633.529	30.62
633.72	30.72
633.91	30.84
634.101	30.83
634.292	30.77
634.482	30.79
634.673	30.73
634.863	30.54
635.054	30.8
635.244	30.74
635.435	30.66
635.625	30.72
635.815	30.6
636.006	30.54
636.196	30.53
636.387	30.67
636.577	30.71
636.767	30.69
636.958	30.87
637.148	30.59
637.338	30.59
637.529	30.51
637.719	30.53
637.909	30.65
638.099	30.59
638.29	30.38
638.48	30.28
638.67	30.25
638.86	30.32
639.05	30.19
639.241	30.5
639.431	30.46
639.621	30.57
639.811	30.62
640.001	30.7
640.191	30.87
640.381	31.02
640.571	30.92
640.761	30.93
640.951	30.96
641.141	31.15
641.331	30.67
641.521	30.5
641.711	30.47
641.901	30.3
642.091	30.16
642.281	30.1
642.471	30.22
642.661	30.25
642.851	30.27
643.041	30.6
643.231	30.66
643.42	31.08
643.61	31.26
643.8	31.28
643.99	31.44
644.18	31.58
644.369	31.68
644.559	31.6
644.749	31.5
644.939	31.39
645.128	31.32
645.318	31.3
645.508	31.01
645.697	30.88
645.887	31.06
646.076	31.1
646.266	30.96
646.456	30.98
646.645	30.98
646.835	31.23
647.024	31.38
647.214	31.32
647.403	31.4
647.593	31.61
647.782	31.65
647.972	31.53
648.161	31.56
648.351	31.59
648.54	31.55
648.73	31.57
648.919	31.42
649.108	31.32
649.298	31.39
649.487	31.24
649.677	31.26
649.866	31.53
650.055	31.94
650.244	31.93
650.434	31.94
650.623	31.83
650.812	31.71
651.002	31.76
651.191	31.78
651.38	31.68
651.569	31.9
651.758	31.83
651.947	31.54
652.137	31.01
652.326	30.88
652.515	31.04
652.704	31.09
652.893	31.1
653.082	30.93
653.271	30.89
653.46	31.07
653.649	30.9
653.838	30.94
654.027	31.04
654.216	31.12
654.405	31.2
654.594	31.11
654.783	31.04
654.972	31.24
655.161	31.61
655.35	31.64
655.539	31.65
655.728	31.81
655.916	31.86
656.105	31.6
656.294	31.61
656.483	31.58
656.672	31.54
656.86	31.64
657.049	31.82
657.238	31.71
657.427	31.95
657.615	31.91
657.804	31.85
657.993	31.84
658.181	32.02
658.37	32.11
658.559	32.21
658.747	32.21
658.936	32.13
659.125	31.47
659.313	31.45
659.502	31.36
659.69	31.36
659.879	31.22
660.067	31.3
660.256	31.44
660.444	31.46
660.633	31.42
660.821	31.56
661.01	31.85
661.198	32.52
661.387	32.46
661.575	32.52
661.763	32.29
661.952	32.52
662.14	32.49
662.328	32.41
662.517	32.38
662.705	32.25
662.893	32.11
663.082	32.08
663.27	32.1
663.458	32.21
663.646	31.96
663.834	32.28
664.023	32.3
664.211	32.21
664.399	32.16
664.587	32.11
664.775	32.41
664.963	32.51
665.152	32.38
665.34	32.69
665.528	32.73
665.716	32.89
665.904	32.83
666.092	32.92
666.28	32.91
666.468	32.85
666.656	33.06
666.844	32.89
667.032	32.88
667.22	32.52
667.408	32.25
667.596	32.24
667.784	31.99
667.971	31.84
668.159	31.75
668.347	31.71
668.535	31.69
668.723	31.47
668.911	31.69
669.098	31.65
669.286	32.11
669.474	31.95
669.662	32.07
669.849	32.51
670.037	32.73
670.225	32.45
670.413	32.76
670.6	32.89
670.788	33.09
670.976	32.66
671.163	32.67
671.351	32.5
671.538	32.6
671.726	32.56
671.913	32.34
672.101	32.32
672.289	32.55
672.476	32.48
672.664	32.54
672.851	32.43
673.039	32.66
673.226	32.81
673.413	33
673.601	33.16
673.788	33.11
673.976	33.46
674.163	33.28
674.35	33.37
674.538	33.44
674.725	33.37
674.912	33.54
675.1	33.64
675.287	33.46
675.474	33.41
675.662	33.34
675.849	33.03
676.036	32.64
676.223	33.04
676.411	33.01
676.598	32.97
676.785	32.93
676.972	32.78
677.159	32.68
677.346	32.73
677.533	32.75
677.721	32.66
677.908	32.93
678.095	33
678.282	32.84
678.469	32.67
678.656	32.65
678.843	32.7
679.03	32.83
679.217	32.91
679.404	32.93
679.591	32.81
679.778	32.9
679.964	32.94
680.151	33
680.338	32.77
680.525	32.73
680.712	32.73
680.899	32.72
681.086	32.75
681.272	32.67
681.459	32.67
681.646	32.85
681.833	32.83
682.02	32.8
682.206	32.82
682.393	32.82
682.58	33.27
682.766	33.04
682.953	33.45
683.14	33.24
683.326	33.36
683.513	33.25
683.7	33.38
683.886	33.53
684.073	33.54
684.259	33.58
684.446	33.61
684.632	33.22
684.819	33.41
685.005	32.95
685.192	33.08
685.378	33.12
685.565	33.16
685.751	32.95
685.938	32.81
686.124	33.02
686.31	33.09
686.497	33.24
686.683	33.24
686.87	33.19
687.056	33.24
687.242	33.24
687.429	33
687.615	33.2
687.801	33.11
687.987	33.17
688.174	32.86
688.36	32.67
688.546	32.64
688.732	32.69
688.918	32.8
689.105	32.62
689.291	32.58
689.477	32.42
689.663	32.57
689.849	32.77
690.035	32.65
690.221	32.75
690.407	33.04
690.593	33.09
690.779	32.88
690.965	32.87
691.151	33.26
691.337	33.42
691.523	33.61
691.709	33.45
691.895	33.53
692.081	33.56
692.267	33.66
692.453	33.69
692.639	33.55
692.825	33.6
693.011	33.52
693.196	33.84
693.382	33.89
693.568	34.17
693.754	34
693.94	33.64
694.125	33.85
694.311	33.9
694.497	34
694.682	34.06
694.868	34.42
695.054	34.54
695.239	33.82
695.425	33.81
695.611	33.76
695.796	33.84
695.982	34
696.168	33.96
696.353	33.99
696.539	33.84
696.724	33.84
696.91	33.69
697.095	33.79
697.281	33.89
697.466	33.85
697.652	33.81
697.837	33.76
698.023	33.81
698.208	33.75
698.393	33.6
698.579	33.59
698.764	33.47
698.949	33.41
699.135	33.23
699.32	33.41
699.505	33.22
699.691	33.09
699.876	32.91
700.061	32.82
700.246	32.64
700.432	32.53
700.617	32.38
700.802	32.54
700.987	32.55
701.172	32.65
701.358	32.51
701.543	32.86
701.728	32.94
701.913	33.31
702.098	33.42
702.283	33.5
702.468	33.9
702.653	34.04
702.838	34.01
703.023	34.08
703.208	33.71
703.393	33.62
703.578	33.42
703.763	33.19
703.948	33.11
704.133	33.07
704.318	32.96
704.503	32.6
704.688	32.12
704.873	32.15
705.057	31.96
705.242	32.33
705.427	32.86
705.612	32.98
705.797	33.23
705.981	33.26
706.166	33.25
706.351	33.38
706.536	33.8
706.72	34.29
706.905	34.43
707.09	34.65
707.274	34.94
707.459	34.46
707.644	34.17
707.828	34.31
708.013	34.16
708.197	34.01
708.382	34
708.567	33.72
708.751	33.48
708.936	33.82
709.12	33.58
709.305	33.33
709.489	33.64
709.673	33.57
709.858	33.44
710.042	33.62
710.227	34.1
710.411	34.42
710.596	34.38
710.78	34.21
710.964	33.98
711.149	34.25
711.333	34.32
711.517	34.13
711.702	34.39
711.886	34.21
712.07	34.24
712.254	33.92
712.438	33.63
712.623	33.82
712.807	34.24
712.991	34
713.175	33.69
713.359	33.68
713.544	33.3
713.728	33.47
713.912	33.89
714.096	33.57
714.28	33.69
714.464	33.68
714.648	33.86
714.832	34.06
715.016	34.2
715.2	34.34
715.384	34.38
715.568	34.56
715.752	34.48
715.936	34.23
716.12	34.33
716.304	34.66
716.488	34.69
716.671	34.37
716.855	33.92
717.039	34.14
717.223	34.49
717.407	34.45
717.59	34.74
717.774	34.67
717.958	35.15
718.142	35.44
718.325	35.06
718.509	34.94
718.693	34.7
718.877	34.96
719.06	34.97
719.244	34.68
719.428	34.79
719.611	34.52
719.795	34.49
719.978	33.58
720.162	33.44
720.345	33.45
720.529	33.92
720.713	34.3
720.896	34.31
721.08	33.82
721.263	33.8
721.446	33.52
721.63	34.05
721.813	33.93
721.997	34.4
722.18	34.77
722.364	34.92
722.547	34.66
722.73	34.7
722.914	34.08
723.097	34.21
723.28	34.34
723.464	34.8
723.647	34.66
723.83	34.43
724.013	34.31
724.197	33.81
724.38	33.43
724.563	33.33
724.746	33.23
724.929	33.57
725.112	34.29
725.296	34.27
725.479	34.22
725.662	34.22
725.845	34.61
726.028	34.88
726.211	35.21
726.394	35.21
726.577	35.34
726.76	35.68
726.943	35.87
727.126	35.17
727.309	35.25
727.492	34.83
727.675	35.18
727.858	34.89
728.041	34.41
728.224	34.41
728.407	34.44
728.589	34.72
728.772	34.57
728.955	34.76
729.138	34.94
729.321	34.85
729.503	35.05
729.686	34.76
729.869	35.36
730.052	35.23
730.234	35.35
730.417	35.35
730.6	35.14
730.782	35.07
730.965	35.13
731.148	34.92
731.33	34.69
731.513	34.84
731.695	34.9
731.878	34.7
732.061	35.2
732.243	34.81
732.426	34.87
732.608	35.08
732.791	35.29
732.973	35.23
733.156	35.58
733.338	35.99
733.52	36.08
733.703	35.68
733.885	35.4
734.068	35.12
734.25	35.02
734.432	34.71
734.615	34.36
734.797	33.93
734.979	33.91
735.162	33.21
735.344	32.86
735.526	32.77
735.708	33.27
735.891	33.11
736.073	33.55
736.255	33.55
736.437	34.13
736.619	34.19
736.802	34.69
736.984	34.77
737.166	35.09
737.348	35.38
737.53	35.36
737.712	34.84
737.894	35.09
738.076	34.73
738.258	35.21
738.44	34.6
738.622	34.8
738.804	34.47
738.986	33.56
739.168	33.53
739.35	33.44
739.532	33.05
739.714	32.98
739.896	33.58
740.078	34.31
740.259	34.09
740.441	33.95
740.623	33.02
740.805	32.65
740.987	34.08
741.168	34.21
741.35	34.43
741.532	34.41
741.714	34.76
741.895	34.05
742.077	33.52
742.259	33.82
742.44	34.71
742.622	35.6
742.804	35.98
742.985	35.24
743.167	35.46
743.348	35.74
743.53	35.81
743.711	35.21
743.893	35.09
744.075	35.02
744.256	34.29
744.438	34.44
744.619	34.48
744.8	35.1
744.982	35.33
745.163	35.8
745.345	35.14
745.526	35.35
745.707	35.99
745.889	36.33
746.07	36
746.252	36.35
746.433	36.22
746.614	36.04
746.795	35.34
746.977	34.69
747.158	34.29
747.339	34.57
747.52	34.45
747.702	34.67
747.883	34.77
748.064	35.47
748.245	35.58
748.426	35.3
748.607	35.5
748.788	35.91
748.97	36.27
749.151	36.13
749.332	35.61
749.513	35.71
749.694	36.25
749.875	36.11
750.056	35.46
750.237	35.09
750.418	34.52
750.599	34.28
750.78	34.17
750.96	34.35
751.141	34.4
751.322	34.27
751.503	34.05
751.684	33.05
751.865	32.98
752.046	32.9
752.226	33.58
752.407	33.18
752.588	33.27
752.769	32.94
752.949	32.36
753.13	32.74
753.311	33.62
753.492	34.26
753.672	34.23
753.853	34.75
754.034	34.87
754.214	34.45
754.395	35.44
754.575	35.37
754.756	35.37
754.937	35.99
755.117	35.13
755.298	35.15
755.478	34.4
755.659	34.4
755.839	33.46
756.02	33.53
756.2	33.52
756.381	33.24
756.561	33.41
756.741	33.68
756.922	33.38
757.102	33.63
757.283	32.8
757.463	32.43
757.643	33.33
757.823	34.14
758.004	34.8
758.184	34.71
758.364	35.33
758.545	34.55
758.725	34.33
758.905	34.4
759.085	34.37
759.265	34.74
759.446	35.13
759.626	34.56
759.806	34.34
759.986	34.12
760.166	33.73
760.346	33.24
760.526	33.48
760.706	33.84
760.886	33.45
761.066	33.42
761.246	33.42
761.426	33.84
761.606	33.8
761.786	34.17
761.966	33.71
762.146	34.12
762.326	34.7
762.506	35.15
762.686	34.89
762.866	35.46
763.046	35.32
763.225	35.37
763.405	35.46
763.585	35.37
763.765	34.92
763.945	34.88
764.124	35.03
764.304	34.33
764.484	34.15
764.664	34.19
764.843	33.88
765.023	34.31
765.203	34.13
765.382	33.8
765.562	33.9
765.741	33.68
765.921	34.1
766.101	34.09
766.28	34.68
766.46	34.98
766.639	35.23
766.819	35.08
766.998	35.17
767.178	35.07
767.357	35.41
767.537	35.21
767.716	35.7
767.896	35.18
768.075	35.04
768.254	34.85
768.434	34.78
768.613	34.35
768.792	34.64
768.972	34.43
769.151	34.41
769.33	34.15
769.51	34.23
769.689	34.41
769.868	35.58
770.047	35.65
770.226	35.21
770.406	34.3
770.585	34.25
770.764	33.77
770.943	33.21
771.122	33.7
771.301	33.94
771.48	33.38
771.66	32.87
771.839	32.86
772.018	32.76
772.197	32.85
772.376	33.67
772.555	34.12
772.734	34.54
772.913	34.43
773.092	34.1
773.271	34.08
773.449	34.88
773.628	34.92
773.807	34.37
773.986	34.16
774.165	34.47
774.344	34.4
774.523	34.17
774.701	33.59
774.88	34.33
775.059	34.86
775.238	34.73
775.417	35.27
775.595	35.61
775.774	35.64
775.953	36.26
776.131	36
776.31	35.64
776.489	35.67
776.667	36.61
776.846	36.4
777.025	35.7
777.203	35.37
777.382	35
777.56	35.2
777.739	34.72
777.917	34.55
778.096	35
778.274	35.16
778.453	34.67
778.631	33.44
778.81	33.77
778.988	34.03
779.166	33.74
779.345	34.1
779.523	34.24
779.702	34.67
779.88	34.84
780.058	34.08
780.237	32.62
780.415	33.61
780.593	34.33
780.771	35.18
780.95	35.28
781.128	36.25
781.306	35.86
781.484	34.46
781.662	34.31
781.841	34.42
782.019	34.93
782.197	36.2
782.375	36.16
782.553	36.62
782.731	35.08
782.909	35.85
783.087	35.76
783.265	35.45
783.443	37
783.621	37.42
783.799	36.77
783.977	36.02
784.155	36.06
784.333	35.4
784.511	34.82
784.689	35.66
784.867	34.76
785.045	33.72
785.223	33.46
785.4	33.99
785.578	33.98
785.756	33.69
785.934	34.37
786.112	34.36
786.289	33.77
786.467	33.58
786.645	33.47
786.823	33.51
787	33.44
787.178	33.6
787.356	32.99
787.533	32.68
787.711	33.54
787.889	33.59
788.066	33.77
788.244	34.44
788.421	35.84
788.599	35.99
788.776	36.69
788.954	37.03
789.131	37.77
789.309	37.51
789.486	36.89
789.664	36.71
789.841	36.51
790.019	36.91
790.196	37.03
790.373	35.51
790.551	35.34
790.728	35.41
790.906	35.84
791.083	37.14
791.26	36.82
791.437	36.96
791.615	36.31
791.792	36.69
791.969	36.67
792.146	37.06
792.324	37.89
792.501	37.5
792.678	36.4
792.855	36.4
793.032	34.27
793.209	34.2
793.387	34.2
793.564	35.72
793.741	35.07
793.918	35.65
794.095	35.43
794.272	35.34
794.449	35.14
794.626	35
794.803	35.02
794.98	35.26
795.157	35.34
795.334	35.94
795.511	35.35
795.688	35.57
795.864	34.83
796.041	34.7
796.218	34.45
796.395	34.92
796.572	35.55
796.749	34.42
796.925	34.3
797.102	34.7
797.279	34.53
797.456	34.33
797.632	34.62
797.809	34.74
797.986	33.45
798.162	33.37
798.339	33.66
798.516	33.79
798.692	35.63
798.869	35.71
799.046	35.74
799.222	35.7
799.399	35.51
799.575	35.32
799.752	35.63
799.928	37.49
800.105	37.23
800.281	35.91
800.458	35.59
800.634	34.8
800.811	34.76
800.987	34.45
801.163	34.17
801.34	34.31
801.516	34.77
801.692	35.04
801.869	33.3
802.045	34.37
802.221	35.3
802.398	36.23
802.574	36.4
802.75	35.46
802.926	35.84
803.103	35.42
803.279	35.15
803.455	35.73
803.631	35
803.807	36.06
803.983	36.01
804.16	36.39
804.336	35.67
804.512	35.54
804.688	37.47
804.864	37.25
805.04	39.28
805.216	40.22
805.392	39.41
805.568	39.85
805.744	40.34
805.92	40.31
806.096	40.63
806.272	41.14
806.448	40.76
806.623	40.83
806.799	41.51
806.975	39.91
807.151	39.9
807.327	38.87
807.503	37.9
807.678	37.41
807.854	36.41
808.03	35.98
808.206	35.09
808.381	35.7
808.557	34.54
808.733	34.52
808.908	34.63
809.084	34.14
809.26	35.62
809.435	35.39
809.611	35.62
809.787	36.25
809.962	35.76
810.138	36.45
810.313	35.84
810.489	35.87
810.664	35.01
810.84	34.89
811.015	35.52
811.191	35
811.366	35.97
811.542	35.95
811.717	35.12
811.892	34.97
812.068	34.66
812.243	34.3
812.419	35.14
812.594	35.23
812.769	36.23
812.944	34.86
813.12	34.74
813.295	35.11
813.47	34.75
813.645	35.61
813.821	35.95
813.996	36.02
814.171	36.36
814.346	35.21
814.521	34.72
814.697	34.54
814.872	34.83
815.047	33.98
815.222	32.53
815.397	31.9
815.572	30.77
815.747	33.3
815.922	33.62
816.097	34.84
816.272	35.38
816.447	35.57
816.622	35.23
816.797	35.69
816.972	36.64
817.147	37.29
817.322	38.62
817.496	38.76
817.671	36.76
817.846	36.87
818.021	36.33
818.196	36.81
818.371	36.92
818.545	37
818.72	36.81
818.895	36.06
819.069	35.34
819.244	34.79
819.419	35.65
819.594	34.06
819.768	33.45
819.943	33.55
820.117	33.26
820.292	33.71
820.467	33.53
820.641	33.57
820.816	33.78
820.99	34
821.165	34.07
821.339	33.97
821.514	34.12
821.688	34.35
821.863	34.39
822.037	34.22
822.212	33.98
822.386	33.96
822.56	33.74
822.735	33.66
822.909	33.52
823.084	33.46
823.258	33.35
823.432	33.73
823.606	33.5
823.781	33.04
823.955	33.11
824.129	33.09
824.303	33.27
824.478	33.42
824.652	33.68
824.826	33.75
825	33.86
825.174	33.73
825.348	33.69
825.523	33.78
825.697	34.2
825.871	34.07
826.045	33.94
826.219	33.64
826.393	34.01
826.567	34.28
826.741	34.91
826.915	34.51
827.089	34.76
827.263	34.49
827.437	35.11
827.611	35.05
827.784	35.12
827.958	35.47
828.132	35.71
828.306	35.82
828.48	35.39
828.654	34.92
828.827	36.2
829.001	36.14
829.175	36.29
829.349	34.76
829.522	34.37
829.696	34.88
829.87	34.52
830.044	33.81
830.217	33.38
830.391	33.04
830.565	33.24
830.738	32.56
830.912	32.95
831.085	32.63
831.259	33.61
831.432	33.69
831.606	33.2
831.779	33.87
831.953	34.31
832.126	33.25
832.3	32.95
832.473	33.6
832.647	33.25
832.82	33.2
832.994	34.4
833.167	35.05
833.34	35.8
833.514	35.39
833.687	34.84
833.86	35.26
834.034	36.28
834.207	36.75
834.38	36.01
834.553	35.56
834.727	35.28
834.9	34.52
835.073	33.86
835.246	33.52
835.419	34.16
835.593	34.61
835.766	34.05
835.939	33.18
836.112	33.11
836.285	34.03
836.458	35.68
836.631	36.37
836.804	36.45
836.977	36.27
837.15	35.64
837.323	35.84
837.496	35.13
837.669	36.82
837.842	38.78
838.015	39.01
838.188	36.27
838.361	32.87
838.533	33.6
838.706	33.2
838.879	33.85
839.052	35.43
839.225	33.76
839.398	34.98
839.57	33.92
839.743	32.03
839.916	30.18
840.088	31.55
840.261	33.58
840.434	33
840.607	32.91
840.779	34.67
840.952	33.06
841.124	34.82
841.297	35.48
841.47	36.67
841.642	38.01
841.815	40.7
841.987	42.84
842.16	42.82
842.332	43.42
842.505	43.51
842.677	43.82
842.85	45.27
843.022	45.99
843.194	46.48
843.367	47.15
843.539	45.64
843.712	45.93
843.884	43.09
844.056	41.07
844.229	39.95
844.401	44.1
844.573	39.55
844.745	44.35
844.918	43.79
845.09	44.78
845.262	41.64
845.434	43.05
845.606	42.35
845.779	44.73
845.951	46.35
846.123	45.49
846.295	44.76
846.467	45.05
846.639	41.37
846.811	41.27
846.983	36.87
847.155	39.46
847.327	38.22
847.499	39.73
847.671	38.05
847.843	40.37
848.015	41.9
848.187	38.53
848.359	40.16
848.531	42.33
848.703	41.66
848.875	44.58
849.047	42.27
849.218	42.87
849.39	38.18
849.562	36.69
849.734	34.22
849.905	31.77
850.077	32.2
850.249	31.82
850.421	29.49
850.592	31.21
850.764	31.71
850.936	33.38
851.107	32.37
851.279	36.96
851.451	36.24
851.622	36.74
851.794	37.89
851.965	41.78
852.137	40.82
852.308	42.03
852.48	38.74
852.651	39.67
852.823	35.16
852.994	34.65
853.166	32.21
853.337	33.97
853.509	32.23
853.68	34.69
853.851	35.71
854.023	35.49
854.194	32.05
854.365	34.42
854.537	30.95
854.708	37.77
854.879	36.98
855.05	40.53
855.222	41.28
855.393	39.41
855.564	38.49
855.735	36.87
855.906	37.01
856.078	39.31
856.249	35.73
856.42	34.38
856.591	32.46
856.762	33.21
856.933	28.52
857.104	28.34
857.275	34.29
857.446	34.29
857.617	35.16
857.788	37.44
857.959	36.33
858.13	38.57
858.301	44.63
858.472	44.12
858.643	49.75
858.814	45.9
858.985	47.68
859.155	46.62
859.326	46.01
859.497	44.16
859.668	40.77
859.839	43.96
860.009	45.73
860.18	42.92
860.351	41.13
860.522	36.05
860.692	39.28
860.863	38.58
861.034	39.95
861.204	41.84
861.375	41.2
861.546	44.16
861.716	43.36
861.887	46.64
862.057	49.5
862.228	51.63
862.398	51.62
862.569	50.37
862.739	48.77
862.91	45.06
863.08	42.85
863.251	43.96
863.421	41.83
863.592	41.08
863.762	37.88
863.932	33.95
864.103	32.41
864.273	28.18
864.443	31.69
864.614	31.8
864.784	33.66
864.954	35.97
865.125	35.82
865.295	36.7
865.465	36.84
865.635	37.1
865.805	38.49
865.976	40.86
866.146	48.61
866.316	44.79
866.486	44.27
866.656	43.64
866.826	41.36
866.996	40.29
867.166	40.08
867.336	41.06
867.506	42.61
867.676	43.27
867.846	42.71
868.016	41.38
868.186	45.27
868.356	49.81
868.526	46
868.696	46.92
868.866	47.38
869.036	46.49
869.206	46.25
869.376	43.4
869.545	44.79
869.715	42.98
869.885	38.33
870.055	37.3
870.224	35.22
870.394	38.46
870.564	33.72
870.734	34.65
870.903	38.03
871.073	40.05
871.243	38.81
871.412	37.63
871.582	34.87
871.751	39.33
871.921	41.52
872.091	40.26
872.26	40.02
872.43	44.6
872.599	44.29
872.769	41.71
872.938	40.29
873.108	39.89
873.277	35.72
873.446	37.34
873.616	36.77
873.785	33.64
873.955	33.2
874.124	35.9
874.293	39.05
874.463	39.86
874.632	38.9
874.801	35.21
874.971	38.48
875.14	40.42
875.309	38.74
875.478	40.59
875.647	40.2
875.817	39.07
875.986	39.08
876.155	35.75
876.324	36.55
876.493	38.38
876.662	38.49
876.831	38.7
877	37.95
877.17	36.18
877.339	37.81
877.508	39.75
877.677	41.84
877.846	42.54
878.015	42.71
878.184	44.22
878.352	42.01
878.521	44.28
878.69	38.96
878.859	42.12
879.028	45.19
879.197	42.11
879.366	40.91
879.534	40.21
879.703	38.98
879.872	39.06
880.041	35.45
880.21	36.07
880.378	34.72
880.547	35
880.716	33.82
880.884	33.55
881.053	33.37
881.222	33.75
881.39	33.22
881.559	33.63
881.727	33.5
881.896	33.74
882.065	34.04
882.233	33.7
882.402	34.69
882.57	34.95
882.739	35.04
882.907	34.86
883.076	34.55
883.244	34.57
883.412	33.58
883.581	33.35
883.749	32.51
883.918	32.18
884.086	32.9
884.254	32.15
884.423	32
884.591	32.31
884.759	31.62
884.927	32.12
885.096	32.05
885.264	32.61
885.432	33.51
885.6	36.38
885.769	36.37
885.937	36.01
886.105	36.4
886.273	34.59
886.441	32.87
886.609	33.33
886.777	31.47
886.945	32.35
887.113	32.03
887.281	28.29
887.449	25.72
887.617	28.22
887.785	28.87
887.953	29.75
888.121	35.06
888.289	36.82
888.457	41.01
888.625	42.21
888.793	43.42
888.961	48.81
889.129	52.9
889.296	56.21
889.464	55.08
889.632	56.53
889.8	56.15
889.967	53.95
890.135	54.75
