Data from 2938494_Reflection_1.txt Node
Date: Wed Jun 17 00:36:07 EDT 2015
User: robert
Spectrometer: USB4E03002
Autoset integration time: false
Trigger mode: 4
Integration Time (sec): 1.000000E-1
Scans to average: 10
Electric dark correction enabled: true
Nonlinearity correction enabled: false
Boxcar width: 5
Stray light correction enabled: false
XAxis mode: Wavelengths
Stop averaging: false
Number of Pixels in Spectrum: 3648
>>>>>Begin Spectral Data<<<<<
177.575	-170.15
177.794	-53.58
178.014	-32.18
178.233	-24.71
178.452	-31.81
178.672	-42.03
178.891	15.58
179.11	81.95
179.33	115.71
179.549	114.61
179.768	293.07
179.987	-637.04
180.207	-354.11
180.426	3004.93
180.645	-346.94
180.864	320.72
181.084	171.11
181.303	141.55
181.522	124.38
181.741	101.66
181.96	85.88
182.179	53.31
182.398	69.61
182.618	54.69
182.837	55.57
183.056	73.12
183.275	118.17
183.494	106.41
183.713	157.68
183.932	83.54
184.151	44.11
184.37	70.65
184.589	128.24
184.808	79.76
185.027	29.25
185.246	-249.22
185.465	-130.79
185.684	-504.82
185.903	358.31
186.122	-422.43
186.341	-101.9
186.56	-46.08
186.779	-233.26
186.998	-305.27
187.216	-964.1
187.435	-185.76
187.654	-20.61
187.873	-67.39
188.092	-80.76
188.311	-238.62
188.53	-1694.85
188.748	-584.12
188.967	190.43
189.186	240.96
189.405	79.88
189.623	85.63
189.842	89.1
190.061	81.67
190.28	57.76
190.498	88.15
190.717	40.38
190.936	42.55
191.154	23.8
191.373	28.17
191.592	38.64
191.81	-19.24
192.029	-152.88
192.248	-776.1
192.466	294.69
192.685	188.3
192.904	86.7
193.122	8.28
193.341	13.01
193.559	-0.42
193.778	-2.75
193.996	40.63
194.215	-14.68
194.433	-231.95
194.652	-97.99
194.87	-248.38
195.089	-62.99
195.307	38.52
195.526	323.1
195.744	-3048.85
195.963	231.96
196.181	110.89
196.399	107.15
196.618	211.83
196.836	421.08
197.055	116.11
197.273	125.52
197.491	280.08
197.71	34.1
197.928	16.06
198.146	-98.2
198.365	564.78
198.583	168.42
198.801	224.46
199.019	277.23
199.238	676.2
199.456	178.71
199.674	477.5
199.892	-1339
200.111	-219.79
200.329	-179.22
200.547	-122.31
200.765	-61.04
200.983	11.97
201.202	38.89
201.42	52.67
201.638	71.1
201.856	44.2
202.074	26.41
202.292	29.85
202.51	45.7
202.728	15.34
202.946	-27.3
203.165	35.75
203.383	3112.5
203.601	281.04
203.819	445.33
204.037	-68.17
204.255	66.75
204.473	-6.28
204.691	-20.9
204.909	-11.67
205.127	1.89
205.345	-81.2
205.562	-10.29
205.78	18.04
205.998	59.22
206.216	51.96
206.434	536.99
206.652	65.01
206.87	-16.73
207.088	119.15
207.306	114.38
207.523	63.07
207.741	43.36
207.959	61.02
208.177	87.54
208.395	87.17
208.612	69.15
208.83	79
209.048	75.64
209.266	69.09
209.483	48.15
209.701	28.29
209.919	45.94
210.136	45.45
210.354	36.45
210.572	12.11
210.79	-44.59
211.007	13.94
211.225	28.82
211.442	21.35
211.66	40.75
211.878	54.23
212.095	70.6
212.313	66
212.53	73.32
212.748	55.5
212.966	59.93
213.183	67.71
213.401	57.37
213.618	26.75
213.836	49.55
214.053	31.84
214.271	38.91
214.488	26.52
214.705	0.29
214.923	40.91
215.14	69.12
215.358	48.3
215.575	31.24
215.793	29.23
216.01	51.25
216.227	28
216.445	21.34
216.662	0.28
216.879	2.09
217.097	-5.79
217.314	-36.12
217.531	-42.58
217.749	-23.7
217.966	-6.16
218.183	13.03
218.4	1.54
218.618	-4.52
218.835	-9.76
219.052	4.17
219.269	14.24
219.487	29.08
219.704	29.58
219.921	21.9
220.138	10.28
220.355	10.74
220.572	-3.84
220.79	5.75
221.007	16.51
221.224	21.53
221.441	18.2
221.658	6.84
221.875	9.91
222.092	2.94
222.309	15.72
222.526	17.19
222.743	14.23
222.96	18.22
223.177	14.07
223.394	13.69
223.611	16.18
223.828	15.39
224.045	20.89
224.262	12.72
224.479	16.31
224.696	15.52
224.913	14.04
225.13	12.9
225.347	14.59
225.564	12.1
225.781	8.95
225.997	9.49
226.214	9.44
226.431	7.71
226.648	8.89
226.865	8.73
227.082	8.35
227.298	10.18
227.515	11.58
227.732	10.21
227.949	11.27
228.165	11.48
228.382	11.96
228.599	11.61
228.816	13.18
229.032	13.55
229.249	13.87
229.466	13.45
229.682	11.93
229.899	10.55
230.116	14.32
230.332	14.86
230.549	14.65
230.765	13.27
230.982	14.33
231.199	11.01
231.415	10.48
231.632	11.03
231.848	11.11
232.065	11.28
232.281	10.77
232.498	6.24
232.714	5.93
232.931	7.26
233.147	7.39
233.364	7.39
233.58	9.5
233.797	7.98
234.013	8.44
234.23	6.29
234.446	8.73
234.662	10.13
234.879	12.89
235.095	13.31
235.312	12.64
235.528	13.41
235.744	13.15
235.961	13.91
236.177	15.03
236.393	11.88
236.61	12.97
236.826	15.02
237.042	16.07
237.258	13.38
237.475	13.24
237.691	12.47
237.907	12.59
238.123	15.62
238.339	15.65
238.556	17.58
238.772	17.01
238.988	16.68
239.204	14.95
239.42	13.52
239.636	14.51
239.853	14.17
240.069	14.83
240.285	14.53
240.501	12.52
240.717	12.18
240.933	11.98
241.149	12.68
241.365	12.66
241.581	12.14
241.797	12.35
242.013	11.47
242.229	10.98
242.445	11.24
242.661	10.58
242.877	11.44
243.093	10.43
243.309	9.47
243.525	10.17
243.741	10.1
243.957	10.44
244.173	10.41
244.388	10.52
244.604	11.11
244.82	10.53
245.036	10.36
245.252	9.89
245.468	9.99
245.683	9.67
245.899	9.14
246.115	9.04
246.331	9.29
246.547	8.99
246.762	8.96
246.978	8.34
247.194	8.47
247.409	8.99
247.625	8.99
247.841	8.71
248.057	9.55
248.272	9.74
248.488	9.45
248.703	8.94
248.919	8.73
249.135	7.6
249.35	8.03
249.566	7.85
249.782	7.1
249.997	6.46
250.213	6.52
250.428	6.2
250.644	6.21
250.859	7.01
251.075	6.82
251.29	7.15
251.506	8.66
251.721	9.41
251.937	9.96
252.152	9.83
252.368	10.95
252.583	11.25
252.798	10.39
253.014	9.91
253.229	10.41
253.445	9.59
253.66	10.87
253.875	9.92
254.091	8.11
254.306	6.48
254.521	5.93
254.737	5.15
254.952	4.57
255.167	5.59
255.383	6.5
255.598	5.68
255.813	6.75
256.028	6.02
256.244	6.64
256.459	6.76
256.674	6.52
256.889	6.67
257.104	6.53
257.32	6.93
257.535	6.88
257.75	6.57
257.965	6.72
258.18	6.33
258.395	6.3
258.61	6.08
258.826	6.05
259.041	6.5
259.256	6.59
259.471	6.67
259.686	6.34
259.901	6.53
260.116	6.63
260.331	6.37
260.546	6.38
260.761	6.34
260.976	6.07
261.191	5.7
261.406	4.82
261.621	4.77
261.836	5.32
262.05	5.77
262.265	5.1
262.48	5.8
262.695	5.51
262.91	5.76
263.125	5.81
263.34	5.74
263.555	6.06
263.769	6.62
263.984	6.5
264.199	5.86
264.414	6.59
264.629	6.9
264.843	5.38
265.058	5.71
265.273	5.9
265.488	5.94
265.702	6.79
265.917	7.52
266.132	7.21
266.346	7.8
266.561	7.66
266.776	6.96
266.99	6.8
267.205	7.44
267.42	7.41
267.634	7.43
267.849	7.22
268.063	7.12
268.278	6.97
268.492	7.41
268.707	7.11
268.922	7.81
269.136	7.98
269.351	7.8
269.565	7.83
269.78	8.33
269.994	7.49
270.209	7.53
270.423	7.49
270.637	7.15
270.852	6.97
271.066	7
271.281	6.56
271.495	6.54
271.709	6.52
271.924	6.6
272.138	6.29
272.353	6.52
272.567	6.37
272.781	6.07
272.996	6.03
273.21	5.62
273.424	5.25
273.638	4.97
273.853	4.94
274.067	4.43
274.281	4.11
274.495	4.21
274.71	4.72
274.924	4.99
275.138	5.06
275.352	4.55
275.566	5.47
275.781	5.81
275.995	5.67
276.209	6.03
276.423	6.16
276.637	6.27
276.851	5.83
277.065	6.42
277.279	5.75
277.493	5.89
277.707	6.68
277.921	6.42
278.135	5.93
278.349	6.55
278.563	6.2
278.777	6.34
278.991	6.41
279.205	6.19
279.419	5.69
279.633	6.21
279.847	5.96
280.061	6.13
280.275	6.16
280.489	6.25
280.703	6.63
280.917	6.75
281.131	6.53
281.344	6.62
281.558	7.04
281.772	7.21
281.986	7.17
282.2	7.07
282.414	7.03
282.627	6.82
282.841	7.2
283.055	7.11
283.269	7.15
283.482	7.51
283.696	7.26
283.91	7.48
284.123	7.25
284.337	7.36
284.551	7.14
284.764	7.33
284.978	7.54
285.192	7.35
285.405	7.27
285.619	7.27
285.833	7.54
286.046	7.73
286.26	7.27
286.473	7.54
286.687	7.75
286.9	8.34
287.114	7.78
287.327	7.31
287.541	6.98
287.754	6.78
287.968	6.73
288.181	6.67
288.395	6.47
288.608	6.46
288.822	6.05
289.035	6.07
289.248	5.93
289.462	6.27
289.675	6.85
289.889	6.93
290.102	6.89
290.315	6.69
290.529	6.72
290.742	6.49
290.955	6.67
291.169	7.37
291.382	6.94
291.595	6.61
291.808	6.76
292.022	6.61
292.235	7.03
292.448	6.99
292.661	7.13
292.875	6.95
293.088	7.26
293.301	7.59
293.514	7.16
293.727	6.75
293.94	7.37
294.153	7.22
294.367	7.06
294.58	6.76
294.793	6.54
295.006	6.66
295.219	6.54
295.432	6.77
295.645	6.4
295.858	6.42
296.071	6.98
296.284	6.69
296.497	6.63
296.71	6.59
296.923	6.89
297.136	7.28
297.349	7.58
297.562	7.41
297.775	7.52
297.988	7.64
298.201	7.65
298.414	7.31
298.626	7.34
298.839	7.33
299.052	7.75
299.265	7.61
299.478	7.29
299.691	6.55
299.903	6.89
300.116	6.27
300.329	6.29
300.542	6.25
300.755	6.7
300.967	6.56
301.18	6.75
301.393	6.3
301.605	6.57
301.818	6.73
302.031	6.88
302.243	7.07
302.456	7.35
302.669	7.27
302.881	7.13
303.094	7.13
303.307	7.31
303.519	6.95
303.732	7.2
303.944	6.98
304.157	6.8
304.37	6.92
304.582	6.86
304.795	6.94
305.007	7.04
305.22	7.37
305.432	7.22
305.645	7.1
305.857	7.25
306.069	7.15
306.282	7.14
306.494	7.39
306.707	7.38
306.919	7.43
307.132	6.99
307.344	7.32
307.556	7.43
307.769	7.6
307.981	7.52
308.193	7.68
308.406	7.81
308.618	7.85
308.83	8.09
309.043	8.18
309.255	8.27
309.467	8.56
309.679	8.46
309.892	8.29
310.104	8.2
310.316	8.52
310.528	8.43
310.74	8.17
310.953	8.38
311.165	8.31
311.377	8.42
311.589	8.26
311.801	8.51
312.013	8.62
312.225	9.1
312.437	9.06
312.649	9.63
312.862	9.66
313.074	10.07
313.286	10.02
313.498	10.03
313.71	10.06
313.922	10.51
314.134	10.55
314.346	10.2
314.558	9.82
314.77	9.93
314.982	8.71
315.193	8.89
315.405	8.79
315.617	8.54
315.829	8.16
316.041	7.41
316.253	7.2
316.465	7.13
316.677	7.14
316.888	7.38
317.1	7.45
317.312	8.2
317.524	8.41
317.736	8.3
317.947	8.31
318.159	8.77
318.371	9.61
318.583	9.17
318.794	8.73
319.006	8.75
319.218	8.87
319.43	8.79
319.641	8.85
319.853	9.14
320.064	9.04
320.276	9
320.488	9.2
320.699	9.19
320.911	9.39
321.123	10.28
321.334	10.39
321.546	10.21
321.757	9.83
321.969	9.21
322.18	8.84
322.392	9.44
322.603	9.49
322.815	9.2
323.026	9.2
323.238	9.34
323.449	8.76
323.661	8.68
323.872	8.82
324.083	9.3
324.295	9.5
324.506	9.18
324.718	8.9
324.929	8.9
325.14	8.59
325.352	8.7
325.563	8.59
325.774	9.21
325.986	8.92
326.197	8.7
326.408	8.36
326.62	8.66
326.831	8.87
327.042	8.98
327.253	8.86
327.464	8.97
327.676	9.03
327.887	8.87
328.098	8.21
328.309	9.02
328.52	8.73
328.732	9.11
328.943	8.8
329.154	8.3
329.365	8.03
329.576	8.61
329.787	8.96
329.998	9.07
330.209	9.5
330.42	9.01
330.631	8.6
330.842	8.94
331.053	9.12
331.264	8.89
331.475	9.2
331.686	9.1
331.897	8.77
332.108	8.41
332.319	7.96
332.53	7.62
332.741	8.2
332.952	8.33
333.163	8.49
333.374	8.11
333.585	8.13
333.795	8.32
334.006	8.49
334.217	8.76
334.428	9.1
334.639	8.93
334.849	9.19
335.06	9.23
335.271	9.23
335.482	9.38
335.692	9.55
335.903	9.65
336.114	9.35
336.325	9.31
336.535	9.05
336.746	9.21
336.957	9.11
337.167	8.88
337.378	8.65
337.589	8.45
337.799	8.28
338.01	8.16
338.22	7.93
338.431	8.81
338.642	8.73
338.852	8.57
339.063	8.42
339.273	8.68
339.484	8.49
339.694	8.66
339.905	8.78
340.115	8.51
340.326	8.57
340.536	9.11
340.746	8.37
340.957	8.32
341.167	8.41
341.378	8.02
341.588	8.3
341.799	8.69
342.009	8.64
342.219	8.34
342.43	8.5
342.64	8.47
342.85	8.26
343.061	8.26
343.271	8.05
343.481	7.89
343.691	7.78
343.902	6.95
344.112	6.28
344.322	6.3
344.532	6.63
344.743	6.53
344.953	6.52
345.163	6.73
345.373	6.8
345.583	6.82
345.793	6.82
346.004	7.26
346.214	7.88
346.424	8.12
346.634	8.21
346.844	7.68
347.054	7.87
347.264	7.9
347.474	7.49
347.684	7.29
347.894	7.38
348.104	7.19
348.314	6.85
348.524	6.77
348.734	7.08
348.944	6.9
349.154	7.2
349.364	7.12
349.574	7.02
349.784	7.16
349.994	7.25
350.204	7.27
350.413	7.65
350.623	7.89
350.833	7.51
351.043	7.29
351.253	7.2
351.463	7.25
351.672	7.18
351.882	7.33
352.092	7.35
352.302	7.34
352.511	7.46
352.721	7.15
352.931	6.79
353.141	6.92
353.35	7.05
353.56	7.35
353.77	7.54
353.979	7.38
354.189	6.83
354.399	6.84
354.608	7.09
354.818	6.97
355.027	7.23
355.237	7.2
355.447	7.37
355.656	7.32
355.866	7.09
356.075	6.8
356.285	6.94
356.494	7.01
356.704	6.96
356.913	6.82
357.123	6.82
357.332	6.85
357.542	7.15
357.751	7.03
357.96	6.87
358.17	6.85
358.379	6.97
358.589	6.83
358.798	7
359.007	6.83
359.217	6.71
359.426	6.64
359.635	6.32
359.845	6.12
360.054	6.32
360.263	6.4
360.472	6.56
360.682	6.55
360.891	6.56
361.1	6.63
361.309	6.66
361.519	6.68
361.728	6.78
361.937	6.93
362.146	7.15
362.355	6.92
362.564	6.81
362.774	6.52
362.983	6.68
363.192	6.57
363.401	6.48
363.61	6.62
363.819	6.58
364.028	6.38
364.237	6.28
364.446	5.87
364.655	6.07
364.864	6.13
365.073	6.27
365.282	5.83
365.491	5.97
365.7	6.14
365.909	6.3
366.118	6.47
366.327	6.61
366.536	6.71
366.745	6.91
366.954	6.65
367.162	6.88
367.371	6.99
367.58	7.04
367.789	6.99
367.998	6.62
368.207	6.08
368.415	6.08
368.624	6.09
368.833	6.27
369.042	6.18
369.25	6.17
369.459	6.16
369.668	5.97
369.877	5.97
370.085	5.97
370.294	6.29
370.503	6.39
370.711	6.09
370.92	5.98
371.129	5.53
371.337	5.53
371.546	5.58
371.754	5.44
371.963	5.38
372.171	5.34
372.38	5.12
372.589	4.89
372.797	4.88
373.006	5.19
373.214	5.22
373.423	5.57
373.631	5.42
373.84	5.31
374.048	5.47
374.256	5.45
374.465	5.72
374.673	5.81
374.882	5.78
375.09	5.85
375.298	5.6
375.507	5.52
375.715	5.45
375.923	5.6
376.132	5.69
376.34	5.48
376.548	5.45
376.757	5.17
376.965	5.39
377.173	5.28
377.381	5.34
377.59	5.36
377.798	5.56
378.006	5.36
378.214	5.38
378.423	5.33
378.631	5.13
378.839	5.1
379.047	5.1
379.255	4.81
379.463	4.93
379.671	4.85
379.879	4.99
380.088	4.96
380.296	5
380.504	4.89
380.712	4.98
380.92	5.08
381.128	5.09
381.336	5.08
381.544	5.06
381.752	5
381.96	4.81
382.168	4.73
382.376	4.67
382.584	4.65
382.791	4.64
382.999	4.68
383.207	4.7
383.415	4.85
383.623	4.7
383.831	4.73
384.039	4.78
384.247	4.8
384.454	4.76
384.662	4.61
384.87	4.6
385.078	4.54
385.285	4.44
385.493	4.44
385.701	4.4
385.909	4.48
386.116	4.4
386.324	4.45
386.532	4.49
386.739	4.49
386.947	4.59
387.155	4.72
387.362	4.71
387.57	4.84
387.778	4.86
387.985	4.77
388.193	4.93
388.4	5.04
388.608	4.88
388.816	5
389.023	4.91
389.231	4.85
389.438	4.86
389.646	5.07
389.853	5.13
390.061	5.13
390.268	5.06
390.475	5.06
390.683	5.08
390.89	4.83
391.098	4.85
391.305	5.07
391.512	4.84
391.72	4.74
391.927	4.72
392.135	4.54
392.342	4.76
392.549	4.8
392.756	4.68
392.964	4.74
393.171	5.18
393.378	5.08
393.586	4.94
393.793	5.29
394	5.5
394.207	5.5
394.414	5.5
394.622	5.3
394.829	5.46
395.036	5.57
395.243	5.49
395.45	5.35
395.657	5.34
395.864	5.09
396.072	5.07
396.279	4.86
396.486	4.9
396.693	4.78
396.9	4.69
397.107	4.65
397.314	4.51
397.521	4.76
397.728	4.61
397.935	4.85
398.142	4.85
398.349	4.7
398.556	5
398.763	4.83
398.97	4.99
399.177	5
399.383	4.87
399.59	5.06
399.797	4.95
400.004	5.08
400.211	4.77
400.418	5.02
400.625	5.15
400.831	5.04
401.038	5.09
401.245	4.93
401.452	4.94
401.658	4.84
401.865	4.53
402.072	4.29
402.279	4.27
402.485	4.41
402.692	4.21
402.899	4.07
403.105	3.8
403.312	3.75
403.519	3.85
403.725	3.77
403.932	3.83
404.138	4.08
404.345	4.17
404.552	4.22
404.758	4.1
404.965	4.29
405.171	4.31
405.378	4.41
405.584	4.46
405.791	4.48
405.997	4.59
406.204	4.58
406.41	4.55
406.617	4.57
406.823	4.49
407.029	4.59
407.236	4.47
407.442	4.36
407.649	4.4
407.855	4.36
408.061	4.34
408.268	4.28
408.474	4.32
408.68	4.31
408.887	4.26
409.093	4.16
409.299	3.93
409.505	4.03
409.712	4.28
409.918	4.36
410.124	4.36
410.33	4.27
410.537	4.24
410.743	4.2
410.949	3.97
411.155	3.97
411.361	4.01
411.567	4.21
411.773	4.13
411.98	4.09
412.186	3.89
412.392	3.81
412.598	4.04
412.804	4.16
413.01	4.29
413.216	4.65
413.422	4.48
413.628	4.5
413.834	4.54
414.04	4.49
414.246	4.41
414.452	4.33
414.658	4.3
414.864	4.28
415.07	4.29
415.275	4.12
415.481	4.05
415.687	4.06
415.893	4.06
416.099	4.01
416.305	4.03
416.511	3.99
416.716	4.06
416.922	4.27
417.128	4.13
417.334	4.05
417.539	4.12
417.745	4.04
417.951	4.08
418.157	4.07
418.362	4.11
418.568	4.16
418.774	4.22
418.979	4.32
419.185	4.21
419.391	4.2
419.596	4.27
419.802	4.22
420.008	4.31
420.213	3.67
420.419	3.75
420.624	3.73
420.83	3.64
421.035	3.56
421.241	3.48
421.446	3.47
421.652	3.51
421.857	3.48
422.063	3.5
422.268	3.43
422.474	4.09
422.679	4.05
422.885	4.04
423.09	4.18
423.295	4.21
423.501	4.18
423.706	4.19
423.911	4.14
424.117	4.13
424.322	4.1
424.527	4.14
424.733	4.15
424.938	4.12
425.143	4.09
425.349	4.07
425.554	4.06
425.759	4.12
425.964	4.16
426.169	4.29
426.375	4.26
426.58	4.34
426.785	4.28
426.99	4.29
427.195	4.3
427.4	4.25
427.605	4.21
427.811	4.17
428.016	4.09
428.221	4.05
428.426	3.97
428.631	4.06
428.836	3.89
429.041	3.82
429.246	3.88
429.451	3.87
429.656	3.83
429.861	3.75
430.066	3.82
430.271	4.1
430.476	3.97
430.681	3.98
430.886	3.95
431.09	4.05
431.295	4.27
431.5	4.2
431.705	4.18
431.91	4.22
432.115	4.18
432.32	4.18
432.524	3.93
432.729	3.96
432.934	3.97
433.139	3.86
433.343	3.86
433.548	3.73
433.753	3.71
433.958	3.69
434.162	3.63
434.367	3.69
434.572	3.71
434.776	3.69
434.981	3.73
435.186	3.76
435.39	3.86
435.595	3.81
435.799	3.83
436.004	3.76
436.209	3.79
436.413	3.81
436.618	3.85
436.822	3.84
437.027	3.88
437.231	3.87
437.436	3.89
437.64	3.84
437.845	3.88
438.049	3.85
438.253	3.96
438.458	3.97
438.662	4.05
438.867	4.01
439.071	3.98
439.275	4.01
439.48	3.99
439.684	3.93
439.888	3.99
440.093	4.02
440.297	4.07
440.501	3.98
440.706	3.96
440.91	3.98
441.114	4.02
441.318	3.94
441.523	3.98
441.727	4.01
441.931	3.99
442.135	3.94
442.339	3.87
442.543	3.79
442.748	3.83
442.952	3.9
443.156	3.93
443.36	3.9
443.564	3.98
443.768	3.94
443.972	3.98
444.176	3.85
444.38	3.89
444.584	3.96
444.788	3.94
444.992	3.88
445.196	3.85
445.4	3.81
445.604	3.75
445.808	3.75
446.012	3.76
446.216	3.67
446.42	3.75
446.624	3.71
446.828	3.58
447.032	3.62
447.235	3.72
447.439	3.65
447.643	3.57
447.847	3.6
448.051	3.65
448.254	3.61
448.458	3.75
448.662	3.83
448.866	3.88
449.069	4.05
449.273	3.98
449.477	3.97
449.681	4.04
449.884	4.16
450.088	4.19
450.292	4.06
450.495	4.07
450.699	3.91
450.902	3.88
451.106	3.78
451.31	3.72
451.513	3.8
451.717	3.78
451.92	3.76
452.124	3.73
452.327	3.73
452.531	3.75
452.734	3.7
452.938	3.85
453.141	3.75
453.345	3.82
453.548	4.02
453.752	3.98
453.955	3.88
454.158	3.83
454.362	3.73
454.565	3.67
454.769	3.81
454.972	3.79
455.175	3.84
455.379	3.94
455.582	3.83
455.785	3.67
455.988	3.72
456.192	3.77
456.395	3.75
456.598	3.92
456.801	3.95
457.005	3.74
457.208	3.79
457.411	3.68
457.614	3.74
457.817	3.78
458.021	3.75
458.224	3.73
458.427	3.79
458.63	3.78
458.833	3.7
459.036	3.7
459.239	3.79
459.442	3.75
459.645	3.78
459.848	3.71
460.051	3.78
460.254	3.77
460.457	3.84
460.66	3.84
460.863	3.88
461.066	3.9
461.269	3.94
461.472	4.03
461.675	4.07
461.878	4.01
462.081	4.08
462.284	3.89
462.486	3.92
462.689	3.8
462.892	3.76
463.095	3.76
463.298	3.73
463.5	3.64
463.703	3.48
463.906	3.52
464.109	3.58
464.311	3.61
464.514	3.66
464.717	3.73
464.92	3.67
465.122	3.61
465.325	3.66
465.528	3.71
465.73	3.7
465.933	3.76
466.135	3.68
466.338	3.65
466.541	3.6
466.743	3.62
466.946	3.52
467.148	3.56
467.351	3.66
467.553	3.62
467.756	3.56
467.958	3.58
468.161	3.52
468.363	3.68
468.566	3.69
468.768	3.65
468.971	3.67
469.173	3.65
469.375	3.76
469.578	3.65
469.78	3.57
469.983	3.62
470.185	3.55
470.387	3.53
470.59	3.51
470.792	3.52
470.994	3.45
471.196	3.4
471.399	3.43
471.601	3.39
471.803	3.52
472.005	3.59
472.208	3.52
472.41	3.57
472.612	3.67
472.814	3.6
473.016	3.52
473.218	3.75
473.421	3.78
473.623	3.8
473.825	3.88
474.027	3.79
474.229	3.95
474.431	4.14
474.633	4.17
474.835	4.13
475.037	4.13
475.239	4.2
475.441	4.13
475.643	4.22
475.845	4.28
476.047	4.18
476.249	4.14
476.451	4
476.653	3.88
476.855	3.91
477.057	3.92
477.258	3.9
477.46	3.84
477.662	3.85
477.864	3.72
478.066	3.63
478.268	3.59
478.469	3.61
478.671	3.67
478.873	3.66
479.075	3.69
479.276	3.66
479.478	3.65
479.68	3.69
479.882	3.66
480.083	3.71
480.285	3.73
480.487	3.77
480.688	3.77
480.89	3.73
481.091	3.72
481.293	3.77
481.495	3.74
481.696	3.77
481.898	3.76
482.099	3.77
482.301	3.75
482.502	3.75
482.704	3.77
482.905	3.76
483.107	3.77
483.308	3.77
483.51	3.76
483.711	3.78
483.913	3.77
484.114	3.79
484.315	3.81
484.517	3.82
484.718	3.8
484.92	3.78
485.121	3.79
485.322	3.75
485.524	3.8
485.725	3.77
485.926	3.77
486.127	3.78
486.329	3.75
486.53	3.72
486.731	3.74
486.932	3.78
487.134	3.8
487.335	3.83
487.536	3.88
487.737	3.83
487.938	3.79
488.139	3.79
488.341	3.81
488.542	3.84
488.743	3.85
488.944	3.83
489.145	3.8
489.346	3.78
489.547	3.75
489.748	3.7
489.949	3.73
490.15	3.76
490.351	3.84
490.552	3.8
490.753	3.77
490.954	3.79
491.155	3.75
491.356	3.72
491.557	3.71
491.758	3.7
491.959	3.75
492.159	3.78
492.36	3.76
492.561	3.67
492.762	3.65
492.963	3.71
493.164	3.68
493.364	3.71
493.565	3.81
493.766	3.8
493.967	3.83
494.167	3.76
494.368	3.68
494.569	3.72
494.769	3.68
494.97	3.76
495.171	3.73
495.371	3.71
495.572	3.8
495.773	3.76
495.973	3.76
496.174	3.75
496.375	3.77
496.575	3.82
496.776	3.87
496.976	3.87
497.177	3.83
497.377	3.78
497.578	3.79
497.778	3.8
497.979	3.79
498.179	3.83
498.38	3.93
498.58	3.95
498.78	3.98
498.981	3.89
499.181	3.91
499.382	4.02
499.582	4.08
499.782	4.15
499.983	4.08
500.183	4.12
500.383	4.08
500.584	3.96
500.784	3.99
500.984	3.94
501.184	4.05
501.385	4.04
501.585	3.94
501.785	3.86
501.985	3.92
502.185	3.95
502.386	3.95
502.586	4.02
502.786	4.05
502.986	4.02
503.186	4.08
503.386	4.06
503.586	4.1
503.786	4.2
503.987	4.27
504.187	4.24
504.387	4.22
504.587	4.23
504.787	4.19
504.987	4.22
505.187	4.21
505.387	4.18
505.587	4.14
505.786	4.18
505.986	4.12
506.186	4.21
506.386	4.19
506.586	4.26
506.786	4.26
506.986	4.25
507.186	4.26
507.386	4.21
507.585	4.22
507.785	4.33
507.985	4.3
508.185	4.28
508.384	4.2
508.584	4.18
508.784	4.15
508.984	4.14
509.183	4.11
509.383	4.07
509.583	4.09
509.782	4.18
509.982	4.12
510.182	4.05
510.381	4.06
510.581	4.06
510.781	4.06
510.98	4.1
511.18	4.11
511.379	4.18
511.579	4.31
511.778	4.39
511.978	4.35
512.177	4.36
512.377	4.47
512.576	4.58
512.776	4.63
512.975	4.68
513.175	4.71
513.374	4.74
513.573	4.75
513.773	4.72
513.972	4.68
514.172	4.72
514.371	4.69
514.57	4.66
514.77	4.48
514.969	4.45
515.168	4.47
515.367	4.48
515.567	4.49
515.766	4.4
515.965	4.41
516.164	4.46
516.364	4.44
516.563	4.54
516.762	4.52
516.961	4.59
517.16	4.62
517.359	4.56
517.559	4.57
517.758	4.6
517.957	4.65
518.156	4.71
518.355	4.74
518.554	4.68
518.753	4.53
518.952	4.53
519.151	4.62
519.35	4.63
519.549	4.72
519.748	4.68
519.947	4.71
520.146	4.72
520.345	4.66
520.544	4.66
520.743	4.7
520.942	4.77
521.141	4.84
521.339	4.8
521.538	4.81
521.737	4.74
521.936	4.8
522.135	4.73
522.333	4.83
522.532	4.85
522.731	4.82
522.93	4.82
523.129	4.91
523.327	4.94
523.526	5
523.725	5.07
523.923	5.1
524.122	5.06
524.321	5.04
524.519	5
524.718	4.99
524.917	4.92
525.115	4.95
525.314	4.92
525.512	4.92
525.711	4.87
525.909	4.86
526.108	4.87
526.306	4.92
526.505	4.98
526.703	5.02
526.902	5.01
527.1	5.09
527.299	5.07
527.497	5.07
527.696	5.12
527.894	5.14
528.092	5.13
528.291	5.17
528.489	5.15
528.688	5.16
528.886	5.11
529.084	5.08
529.283	5.07
529.481	5.1
529.679	5.14
529.877	5.14
530.076	5.14
530.274	5.18
530.472	5.16
530.67	5.23
530.869	5.23
531.067	5.31
531.265	5.34
531.463	5.4
531.661	5.44
531.859	5.44
532.057	5.4
532.255	5.43
532.454	5.47
532.652	5.47
532.85	5.47
533.048	5.5
533.246	5.49
533.444	5.54
533.642	5.59
533.84	5.6
534.038	5.63
534.236	5.64
534.434	5.64
534.632	5.63
534.83	5.71
535.027	5.74
535.225	5.75
535.423	5.85
535.621	5.85
535.819	5.77
536.017	5.82
536.215	5.81
536.412	5.84
536.61	5.86
536.808	5.91
537.006	5.83
537.203	5.84
537.401	5.8
537.599	5.73
537.797	5.76
537.994	5.83
538.192	5.82
538.39	5.88
538.587	5.91
538.785	5.92
538.983	5.92
539.18	5.98
539.378	5.99
539.575	6.02
539.773	6.1
539.97	6.12
540.168	6.15
540.366	6.19
540.563	6.22
540.761	6.21
540.958	6.24
541.155	6.24
541.353	6.27
541.55	6.33
541.748	6.38
541.945	6.35
542.143	6.38
542.34	6.34
542.537	6.32
542.735	6.31
542.932	6.35
543.129	6.37
543.327	6.43
543.524	6.43
543.721	6.43
543.919	6.45
544.116	6.49
544.313	6.52
544.51	6.53
544.708	6.54
544.905	6.63
545.102	6.71
545.299	6.69
545.496	6.73
545.693	6.68
545.891	6.67
546.088	6.73
546.285	6.74
546.482	6.69
546.679	6.85
546.876	6.85
547.073	6.78
547.27	6.77
547.467	6.87
547.664	6.9
547.861	6.93
548.058	6.95
548.255	6.96
548.452	7.05
548.649	7.22
548.846	7.14
549.043	7.23
549.24	7.27
549.437	7.31
549.633	7.27
549.83	7.29
550.027	7.44
550.224	7.55
550.421	7.72
550.618	7.68
550.814	7.64
551.011	7.64
551.208	7.63
551.405	7.75
551.601	7.81
551.798	7.79
551.995	7.82
552.191	7.94
552.388	7.82
552.585	7.75
552.781	7.78
552.978	7.9
553.175	8.01
553.371	8.07
553.568	7.95
553.764	7.91
553.961	8.05
554.157	8.07
554.354	8
554.55	8.22
554.747	8.31
554.943	8.41
555.14	8.3
555.336	8.22
555.533	8.37
555.729	8.49
555.926	8.54
556.122	8.43
556.318	8.46
556.515	8.57
556.711	8.47
556.907	8.39
557.104	8.5
557.3	8.59
557.496	8.64
557.693	8.58
557.889	8.5
558.085	8.57
558.281	8.8
558.478	8.8
558.674	8.71
558.87	8.87
559.066	8.94
559.262	8.88
559.459	8.97
559.655	9.04
559.851	9.04
560.047	9.13
560.243	9.22
560.439	9.14
560.635	9.22
560.831	9.39
561.027	9.44
561.223	9.46
561.419	9.43
561.615	9.49
561.811	9.64
562.007	9.82
562.203	10.1
562.399	10.19
562.595	10.26
562.791	10.33
562.987	10.29
563.183	10.38
563.379	10.34
563.575	10.44
563.771	10.42
563.966	10.51
564.162	10.58
564.358	10.6
564.554	10.52
564.75	10.64
564.945	10.68
565.141	10.76
565.337	10.77
565.533	10.89
565.728	11
565.924	11.09
566.12	11.03
566.315	10.97
566.511	10.9
566.707	10.99
566.902	10.99
567.098	11.07
567.293	11.15
567.489	11.12
567.684	11.16
567.88	11.26
568.076	11.23
568.271	11.21
568.467	11.29
568.662	11.46
568.858	11.46
569.053	11.49
569.248	11.54
569.444	11.54
569.639	11.58
569.835	11.58
570.03	11.63
570.225	11.77
570.421	11.88
570.616	11.94
570.812	11.92
571.007	12.01
571.202	11.97
571.397	11.94
571.593	11.97
571.788	11.97
571.983	12.04
572.178	12.02
572.374	12.11
572.569	12.18
572.764	12.17
572.959	12.22
573.154	12.23
573.35	12.33
573.545	12.43
573.74	12.46
573.935	12.6
574.13	12.64
574.325	12.6
574.52	12.48
574.715	12.54
574.91	12.57
575.105	12.62
575.3	12.74
575.495	12.79
575.69	12.8
575.885	12.77
576.08	12.71
576.275	12.76
576.47	12.85
576.665	12.94
576.86	12.97
577.055	13.03
577.25	12.93
577.444	12.89
577.639	12.91
577.834	12.88
578.029	13.01
578.224	12.98
578.418	13
578.613	12.99
578.808	12.99
579.003	12.88
579.197	12.97
579.392	13.12
579.587	13.29
579.781	13.44
579.976	13.55
580.171	13.57
580.365	13.62
580.56	13.58
580.755	13.66
580.949	13.7
581.144	13.87
581.338	13.89
581.533	13.94
581.727	13.87
581.922	13.84
582.116	13.91
582.311	13.86
582.505	14
582.7	14.05
582.894	14.11
583.089	14.14
583.283	14.12
583.478	14.13
583.672	14.13
583.866	14.06
584.061	14.21
584.255	14.17
584.449	14.32
584.644	14.39
584.838	14.37
585.032	14.35
585.226	14.3
585.421	14.28
585.615	14.23
585.809	14.21
586.003	14.32
586.198	14.18
586.392	14.25
586.586	14.22
586.78	14.15
586.974	14.37
587.168	14.37
587.363	14.61
587.557	14.59
587.751	14.69
587.945	14.84
588.139	14.87
588.333	14.93
588.527	14.97
588.721	15.05
588.915	15.2
589.109	15.07
589.303	15.25
589.497	15.25
589.691	15.34
589.885	15.25
590.079	15.25
590.273	15.38
590.466	15.38
590.66	15.35
590.854	15.23
591.048	15.17
591.242	15.28
591.436	15.14
591.629	15.1
591.823	15.05
592.017	15.18
592.211	15.21
592.404	14.98
592.598	15.03
592.792	15.11
592.986	15.18
593.179	15.18
593.373	15.21
593.567	15.23
593.76	15.11
593.954	15.22
594.147	15.17
594.341	15.14
594.535	15.16
594.728	15.14
594.922	15.15
595.115	15.17
595.309	15.16
595.502	15.2
595.696	15.36
595.889	15.57
596.083	15.67
596.276	15.74
596.47	15.73
596.663	15.77
596.856	15.78
597.05	15.74
597.243	15.77
597.437	15.83
597.63	15.85
597.823	15.78
598.017	15.65
598.21	15.44
598.403	15.5
598.596	15.52
598.79	15.67
598.983	15.75
599.176	15.81
599.369	15.78
599.563	15.85
599.756	15.85
599.949	15.83
600.142	15.89
600.335	15.98
600.528	15.88
600.722	15.82
600.915	15.86
601.108	15.84
601.301	15.99
601.494	16.12
601.687	16.1
601.88	16.14
602.073	16.08
602.266	16.08
602.459	16.14
602.652	16.31
602.845	16.39
603.038	16.29
603.231	16.22
603.424	16.22
603.617	16.19
603.809	16.14
604.002	16.08
604.195	16.13
604.388	16.18
604.581	16.18
604.774	16.03
604.966	16.05
605.159	16.13
605.352	16.25
605.545	16.28
605.737	16.29
605.93	16.31
606.123	16.38
606.316	16.44
606.508	16.53
606.701	16.61
606.894	16.75
607.086	16.66
607.279	16.67
607.471	16.75
607.664	16.61
607.857	16.56
608.049	16.7
608.242	16.75
608.434	16.64
608.627	16.56
608.819	16.52
609.012	16.59
609.204	16.69
609.397	16.75
609.589	16.74
609.782	16.89
609.974	17.01
610.166	17.08
610.359	17.15
610.551	17.27
610.743	17.46
610.936	17.59
611.128	17.39
611.32	17.51
611.513	17.44
611.705	17.38
611.897	17.49
612.09	17.53
612.282	17.53
612.474	17.71
612.666	17.92
612.858	17.72
613.051	17.67
613.243	17.75
613.435	17.71
613.627	17.62
613.819	17.51
614.011	17.24
614.203	17.19
614.395	17.14
614.588	16.82
614.78	16.75
614.972	16.77
615.164	16.79
615.356	16.66
615.548	16.48
615.74	16.52
615.932	16.74
616.124	16.97
616.315	17.01
616.507	17.04
616.699	17.16
616.891	17
617.083	17.16
617.275	17.09
617.467	17.34
617.659	17.44
617.85	17.63
618.042	17.8
618.234	17.69
618.426	17.5
618.618	17.61
618.809	17.51
619.001	17.73
619.193	17.68
619.384	17.72
619.576	17.76
619.768	17.8
619.959	17.77
620.151	17.42
620.343	17.4
620.534	17.49
620.726	17.37
620.917	17.44
621.109	17.36
621.301	17.39
621.492	17.3
621.684	17.17
621.875	17.06
622.067	17.08
622.258	17.2
622.45	17.33
622.641	17.3
622.832	17.21
623.024	17.36
623.215	17.4
623.407	17.36
623.598	17.48
623.789	17.42
623.981	17.68
624.172	17.69
624.363	17.71
624.555	17.73
624.746	17.78
624.937	17.77
625.129	17.65
625.32	17.59
625.511	17.56
625.702	17.7
625.893	17.73
626.085	17.72
626.276	17.67
626.467	17.79
626.658	17.75
626.849	17.86
627.04	17.86
627.231	17.74
627.422	17.82
627.614	17.91
627.805	17.8
627.996	17.95
628.187	17.81
628.378	17.82
628.569	17.74
628.76	17.65
628.951	17.55
629.142	17.7
629.332	17.92
629.523	18.04
629.714	17.94
629.905	18.08
630.096	17.88
630.287	17.99
630.478	18.07
630.669	18.01
630.859	17.94
631.05	17.94
631.241	17.91
631.432	17.76
631.623	17.79
631.813	18
632.004	17.92
632.195	18.14
632.385	18.06
632.576	18
632.767	18
632.957	18.17
633.148	18.33
633.339	18.23
633.529	18.22
633.72	18.07
633.91	17.89
634.101	17.89
634.292	17.78
634.482	17.83
634.673	17.92
634.863	18
635.054	18.15
635.244	18.03
635.435	18.22
635.625	18.36
635.815	18.39
636.006	18.51
636.196	18.51
636.387	18.56
636.577	18.72
636.767	18.76
636.958	18.9
637.148	18.76
637.338	18.92
637.529	18.91
637.719	18.91
637.909	18.91
638.099	18.87
638.29	18.9
638.48	18.84
638.67	18.66
638.86	18.73
639.05	18.74
639.241	18.84
639.431	18.58
639.621	18.63
639.811	18.77
640.001	18.84
640.191	18.7
640.381	18.56
640.571	18.59
640.761	18.56
640.951	18.5
641.141	18.43
641.331	18.28
641.521	18.64
641.711	18.7
641.901	18.82
642.091	18.73
642.281	18.88
642.471	18.97
642.661	19.1
642.851	19.23
643.041	19.32
643.231	19.3
643.42	19.51
643.61	19.18
643.8	19.17
643.99	18.96
644.18	18.94
644.369	19.11
644.559	19.4
644.749	19.23
644.939	19.13
645.128	19.09
645.318	19.07
645.508	19.06
645.697	19.27
645.887	19.1
646.076	19.13
646.266	19.05
646.456	18.89
646.645	18.79
646.835	19.02
647.024	19.22
647.214	19
647.403	18.93
647.593	18.72
647.782	18.6
647.972	18.76
648.161	18.74
648.351	18.99
648.54	19.12
648.73	19.01
648.919	18.8
649.108	18.67
649.298	18.87
649.487	19.06
649.677	19.3
649.866	19.31
650.055	19.43
650.244	19.57
650.434	19.5
650.623	19.48
650.812	19.57
651.002	19.71
651.191	19.88
651.38	19.79
651.569	19.71
651.758	19.62
651.947	19.8
652.137	19.6
652.326	19.51
652.515	19.52
652.704	19.58
652.893	19.74
653.082	19.67
653.271	19.71
653.46	19.76
653.649	19.87
653.838	19.85
654.027	19.56
654.216	19.72
654.405	19.64
654.594	19.62
654.783	19.72
654.972	19.66
655.161	19.65
655.35	19.57
655.539	19.46
655.728	19.28
655.916	19.21
656.105	19.47
656.294	19.32
656.483	19.23
656.672	19.24
656.86	18.88
657.049	18.9
657.238	19.09
657.427	19.11
657.615	19.32
657.804	19.44
657.993	19.55
658.181	19.52
658.37	19.6
658.559	19.68
658.747	19.83
658.936	20.07
659.125	19.92
659.313	19.77
659.502	19.85
659.69	19.65
659.879	19.73
660.067	19.86
660.256	19.94
660.444	19.98
660.633	19.91
660.821	19.94
661.01	20.03
661.198	19.97
661.387	20.01
661.575	20.16
661.763	20.53
661.952	20.47
662.14	20.51
662.328	20.61
662.517	20.45
662.705	20.61
662.893	20.5
663.082	20.27
663.27	20.2
663.458	20.25
663.646	19.99
663.834	19.84
664.023	19.88
664.211	19.86
664.399	19.71
664.587	19.97
664.775	19.94
664.963	20.13
665.152	20.3
665.34	20.55
665.528	20.85
665.716	20.79
665.904	20.82
666.092	20.81
666.28	20.69
666.468	20.58
666.656	20.41
666.844	20.49
667.032	20.45
667.22	20.49
667.408	20.55
667.596	20.35
667.784	20.36
667.971	20.32
668.159	20.41
668.347	20.46
668.535	20.81
668.723	20.67
668.911	20.68
669.098	20.52
669.286	20.59
669.474	20.53
669.662	20.54
669.849	20.48
670.037	20.67
670.225	20.38
670.413	20.36
670.6	19.99
670.788	20.33
670.976	20.35
671.163	20.34
671.351	20.22
671.538	20.33
671.726	20.12
671.913	19.99
672.101	19.83
672.289	20.04
672.476	19.96
672.664	19.96
672.851	19.89
673.039	20
673.226	20.04
673.413	19.88
673.601	19.77
673.788	20.33
673.976	20.6
674.163	20.51
674.35	20.7
674.538	21.04
674.725	21.34
674.912	21.36
675.1	21.32
675.287	21.44
675.474	21.37
675.662	21.43
675.849	21.32
676.036	21.38
676.223	21.49
676.411	21.2
676.598	21
676.785	20.87
676.972	20.9
677.159	20.97
677.346	20.93
677.533	20.97
677.721	20.77
677.908	20.5
678.095	20.57
678.282	20.57
678.469	20.65
678.656	20.69
678.843	20.59
679.03	20.79
679.217	20.89
679.404	20.83
679.591	21.09
679.778	21.12
679.964	20.9
680.151	20.8
680.338	20.7
680.525	20.92
680.712	21.04
680.899	21.13
681.086	20.94
681.272	20.78
681.459	20.98
681.646	20.82
681.833	20.8
682.02	21.22
682.206	21.14
682.393	21.23
682.58	20.92
682.766	20.63
682.953	20.88
683.14	20.92
683.326	20.96
683.513	20.66
683.7	20.81
683.886	21.05
684.073	20.71
684.259	20.73
684.446	20.8
684.632	20.92
684.819	20.8
685.005	20.79
685.192	20.68
685.378	20.91
685.565	20.79
685.751	20.84
685.938	20.75
686.124	20.88
686.31	21.14
686.497	21.09
686.683	21.07
686.87	20.98
687.056	20.98
687.242	20.91
687.429	20.79
687.615	21.11
687.801	20.8
687.987	21.09
688.174	21.22
688.36	21.28
688.546	21.59
688.732	21.64
688.918	21.98
689.105	21.84
689.291	22.04
689.477	21.8
689.663	21.87
689.849	22.27
690.035	22.18
690.221	22.37
690.407	22.21
690.593	21.88
690.779	21.97
690.965	21.9
691.151	21.86
691.337	21.67
691.523	21.71
691.709	21.39
691.895	21.28
692.081	21.17
692.267	21.27
692.453	21.69
692.639	21.65
692.825	21.64
693.011	21.69
693.196	21.46
693.382	21.4
693.568	21.58
693.754	21.85
693.94	21.6
694.125	21.54
694.311	21.13
694.497	20.69
694.682	21.02
694.868	20.94
695.054	21.14
695.239	21.46
695.425	21.49
695.611	21.56
695.796	21.44
695.982	21.68
696.168	21.77
696.353	21.96
696.539	22.1
696.724	22
696.91	22
697.095	21.9
697.281	21.87
697.466	22.07
697.652	22.13
697.837	22.15
698.023	21.97
698.208	22.03
698.393	21.84
698.579	21.77
698.764	21.77
698.949	21.69
699.135	21.52
699.32	21.38
699.505	21.3
699.691	20.96
699.876	21.1
700.061	21.12
700.246	21.04
700.432	21.48
700.617	21.38
700.802	21.27
700.987	21.51
701.172	21.71
701.358	22.17
701.543	22.11
701.728	22.26
701.913	21.86
702.098	21.78
702.283	21.71
702.468	21.29
702.653	21.56
702.838	21.35
703.023	21.11
703.208	21.1
703.393	20.98
703.578	21.06
703.763	21.3
703.948	21.45
704.133	21.86
704.318	21.98
704.503	22.44
704.688	22.51
704.873	22.89
705.057	22.94
705.242	23.13
705.427	23.04
705.612	23.34
705.797	23.42
705.981	23.62
706.166	23.68
706.351	23.53
706.536	23.5
706.72	23.45
706.905	23.58
707.09	23.83
707.274	23.87
707.459	23.97
707.644	23.79
707.828	23.27
708.013	23.27
708.197	22.83
708.382	22.68
708.567	22.59
708.751	22.55
708.936	22.32
709.12	22.13
709.305	21.97
709.489	21.91
709.673	21.78
709.858	21.9
710.042	21.99
710.227	22.16
710.411	22.37
710.596	22.18
710.78	21.9
710.964	22
711.149	22.07
711.333	22.12
711.517	22.19
711.702	22.23
711.886	22.06
712.07	21.94
712.254	22.15
712.438	22.06
712.623	22.22
712.807	22.53
712.991	22.59
713.175	22.59
713.359	22.57
713.544	22.31
713.728	22.36
713.912	22.99
714.096	22.8
714.28	22.6
714.464	22.66
714.648	22.52
714.832	22
715.016	21.93
715.2	21.99
715.384	22.31
715.568	22.28
715.752	22.33
715.936	22.06
716.12	22.41
716.304	22.22
716.488	22.19
716.671	22.39
716.855	22.52
717.039	22.63
717.223	22.72
717.407	22.5
717.59	22.78
717.774	22.32
717.958	22.47
718.142	22.28
718.325	22.92
718.509	23.11
718.693	22.82
718.877	22.97
719.06	22.53
719.244	22.15
719.428	21.98
719.611	21.97
719.795	22.34
719.978	22.13
720.162	22.2
720.345	21.86
720.529	22.05
720.713	22
720.896	22.34
721.08	22.92
721.263	23.28
721.446	23.16
721.63	22.75
721.813	22.72
721.997	22.97
722.18	22.7
722.364	22.92
722.547	22.37
722.73	22.52
722.914	22.44
723.097	22.56
723.28	22.85
723.464	22.6
723.647	22.89
723.83	23.36
724.013	23.43
724.197	23.52
724.38	23.57
724.563	23.69
724.746	23.34
724.929	23.61
725.112	23.04
725.296	23.04
725.479	23.08
725.662	22.82
725.845	22.67
726.028	22.02
726.211	22.4
726.394	22.15
726.577	22.35
726.76	22.63
726.943	22.48
727.126	22.56
727.309	22.16
727.492	22.89
727.675	23.03
727.858	22.87
728.041	23.14
728.224	22.9
728.407	22.79
728.589	22.74
728.772	22.81
728.955	22.78
729.138	23.2
729.321	23.19
729.503	22.82
729.686	22.97
729.869	23.21
730.052	23.09
730.234	23.41
730.417	23.58
730.6	23.39
730.782	23.35
730.965	23.2
731.148	22.93
731.33	22.78
731.513	22.63
731.695	22.54
731.878	22.28
732.061	22.57
732.243	22.47
732.426	22.44
732.608	22.38
732.791	22.49
732.973	22.6
733.156	22.27
733.338	22.82
733.52	23.21
733.703	23.15
733.885	23
734.068	22.78
734.25	22.3
734.432	22.28
734.615	22.93
734.797	22.85
734.979	22.74
735.162	22.96
735.344	22.56
735.526	22.04
735.708	21.9
735.891	21.56
736.073	21.52
736.255	22.04
736.437	22.3
736.619	21.94
736.802	21.63
736.984	21.97
737.166	21.97
737.348	21.98
737.53	22.34
737.712	22.76
737.894	23.02
738.076	23.16
738.258	22.85
738.44	22.37
738.622	22.23
738.804	22.94
738.986	22.91
739.168	23.61
739.35	23.52
739.532	23.66
739.714	24.07
739.896	24.18
740.078	24.68
740.259	24.9
740.441	25.1
740.623	24.78
740.805	24.54
740.987	24.58
741.168	23.98
741.35	24.06
741.532	23.77
741.714	23.4
741.895	23.62
742.077	23.34
742.259	23.35
742.44	23.3
742.622	23.58
742.804	23.16
742.985	22.75
743.167	22.45
743.348	22.51
743.53	22.66
743.711	22.7
743.893	22.93
744.075	22.95
744.256	23.2
744.438	23.45
744.619	23.47
744.8	23.79
744.982	23.68
745.163	24.28
745.345	23.81
745.526	23.6
745.707	23.05
745.889	22.18
746.07	22.13
746.252	21.67
746.433	22.13
746.614	21.8
746.795	21.4
746.977	21.67
747.158	21.39
747.339	21.33
747.52	21.37
747.702	21.38
747.883	21.78
748.064	22.17
748.245	22.16
748.426	22.1
748.607	22.88
748.788	22.85
748.97	23.49
749.151	23.71
749.332	24.53
749.513	24.68
749.694	25.27
749.875	25.71
750.056	25.12
750.237	25.28
750.418	24.93
750.599	24.52
750.78	25.24
750.96	24.84
751.141	24.97
751.322	24.63
751.503	24.28
751.684	24
751.865	24.01
752.046	24.14
752.226	24.05
752.407	24.11
752.588	23.83
752.769	23.79
752.949	23.02
753.13	22.28
753.311	22.91
753.492	23.62
753.672	23.52
753.853	23.5
754.034	23.14
754.214	23.3
754.395	23.49
754.575	24.62
754.756	24.34
754.937	24.84
755.117	25.1
755.298	24.92
755.478	24.29
755.659	24.25
755.839	23.82
756.02	23.8
756.2	23.93
756.381	23.35
756.561	22.74
756.741	22.82
756.922	23.34
757.102	22.67
757.283	22.75
757.463	23.84
757.643	24.14
757.823	24.66
758.004	25.3
758.184	24.52
758.364	24.67
758.545	24.6
758.725	24.59
758.905	24.02
759.085	24.78
759.265	24.48
759.446	23.71
759.626	23.89
759.806	23.15
759.986	23.21
760.166	23.31
760.346	22.73
760.526	23.01
760.706	22.51
760.886	22.5
761.066	22.3
761.246	22.37
761.426	22.12
761.606	21.88
761.786	22.11
761.966	22.13
762.146	22.78
762.326	23.28
762.506	23.38
762.686	24.06
762.866	24.38
763.046	24.64
763.225	24.4
763.405	24.75
763.585	24.91
763.765	25.04
763.945	25.09
764.124	24.43
764.304	24.61
764.484	24.35
764.664	24.25
764.843	24.16
765.023	23.88
765.203	23.92
765.382	23.91
765.562	23.38
765.741	23.16
765.921	22.75
766.101	23.81
766.28	24.04
766.46	24.68
766.639	23.76
766.819	24.01
766.998	23.97
767.178	24.2
767.357	24.62
767.537	24.86
767.716	25.14
767.896	25.51
768.075	25.25
768.254	24.39
768.434	23.64
768.613	24.55
768.792	24.61
768.972	25.5
769.151	25.15
769.33	24.22
769.51	25.03
769.689	25.16
769.868	24.5
770.047	24.38
770.226	24.78
770.406	25.12
770.585	26
770.764	25.76
770.943	25.2
771.122	24.96
771.301	25.55
771.48	25.16
771.66	25.73
771.839	26.64
772.018	26.78
772.197	26.8
772.376	26.3
772.555	25.69
772.734	25.63
772.913	25.58
773.092	26.38
773.271	25.96
773.449	25.55
773.628	24.67
773.807	24.3
773.986	24.29
774.165	24.98
774.344	24.9
774.523	24.1
774.701	24.4
774.88	25.23
775.059	25.57
775.238	25.79
775.417	26.44
775.595	26.32
775.774	26.63
775.953	27.06
776.131	26.29
776.31	26.83
776.489	27.39
776.667	26.89
776.846	26.17
777.025	25.59
777.203	25.5
777.382	25.18
777.56	24.84
777.739	25.54
777.917	24.68
778.096	24.73
778.274	24.79
778.453	25.3
778.631	26.15
778.81	25.91
778.988	25.97
779.166	26.47
779.345	25.95
779.523	26.91
779.702	26.38
779.88	26.06
780.058	26.27
780.237	25.47
780.415	24.45
780.593	24.03
780.771	24.45
780.95	24.63
781.128	23.24
781.306	23.59
781.484	23.85
781.662	23.72
781.841	24.01
782.019	23.96
782.197	24.84
782.375	25.66
782.553	24.85
782.731	24.45
782.909	25.24
783.087	26.08
783.265	25.77
783.443	24.41
783.621	23.99
783.799	24.51
783.977	24.01
784.155	24.34
784.333	24.28
784.511	24.74
784.689	25
784.867	24.6
785.045	24.21
785.223	24.83
785.4	26.27
785.578	26.61
785.756	26.23
785.934	26.44
786.112	26.14
786.289	24.92
786.467	25.03
786.645	24.49
786.823	24.14
787	25.53
787.178	24.8
787.356	24.59
787.533	24.3
787.711	24.92
787.889	24.97
788.066	24.57
788.244	25.31
788.421	24.61
788.599	25.1
788.776	24.44
788.954	23.75
789.131	23.9
789.309	22.91
789.486	22.19
789.664	21.57
789.841	21.69
790.019	23.06
790.196	23.23
790.373	23.37
790.551	23.36
790.728	24.08
790.906	23.14
791.083	24.23
791.26	24.57
791.437	24.99
791.615	25.01
791.792	23.78
791.969	21.99
792.146	21.61
792.324	21.56
792.501	22.33
792.678	22.72
792.855	23.75
793.032	23.02
793.209	22.81
793.387	24
793.564	22.55
793.741	23.04
793.918	24.16
794.095	24.32
794.272	24.57
794.449	24.01
794.626	24.65
794.803	24.4
794.98	24.6
795.157	24.94
795.334	24.59
795.511	25.74
795.688	26.24
795.864	25.56
796.041	24.86
796.218	25.3
796.395	25.17
796.572	24.17
796.749	25.39
796.925	24.48
797.102	24.06
797.279	23.43
797.456	23.81
797.632	24.13
797.809	24.25
797.986	25.45
798.162	24.86
798.339	25.65
798.516	25.86
798.692	23.88
798.869	24.18
799.046	24.31
799.222	23.68
799.399	24.12
799.575	24.54
799.752	24.63
799.928	24.84
800.105	25.28
800.281	24.07
800.458	23.86
800.634	25.09
800.811	26.45
800.987	26.99
801.163	27.5
801.34	27.55
801.516	26.88
801.692	27
801.869	25.65
802.045	26.03
802.221	25.9
802.398	25.07
802.574	24.34
802.75	23.69
802.926	23.23
803.103	23.77
803.279	23.26
803.455	23.39
803.631	23.89
803.807	25.91
803.983	25.69
804.16	25.51
804.336	25.49
804.512	26.9
804.688	25.83
804.864	26.37
805.04	26.94
805.216	26.53
805.392	27.73
805.568	28.1
805.744	26.85
805.92	26.33
806.096	27.11
806.272	25.78
806.448	24.72
806.623	24.65
806.799	24.6
806.975	24.3
807.151	24.13
807.327	22.8
807.503	21.25
807.678	22.42
807.854	23.2
808.03	23.06
808.206	25.14
808.381	24.86
808.557	25.47
808.733	24.68
808.908	24.22
809.084	24.9
809.26	24.66
809.435	24.34
809.611	24.47
809.787	24.02
809.962	23.61
810.138	24.01
810.313	24.14
810.489	24.04
810.664	24.33
810.84	23.71
811.015	22.91
811.191	23.58
811.366	25.63
811.542	24.6
811.717	24.46
811.892	24.69
812.068	23.58
812.243	22.74
812.419	22.81
812.594	23.13
812.769	24.14
812.944	24.06
813.12	24.11
813.295	23.72
813.47	23.4
813.645	24.61
813.821	24.07
813.996	25.33
814.171	25.66
814.346	25.36
814.521	25.93
814.697	27.68
814.872	29.02
815.047	27.41
815.222	27.36
815.397	27.15
815.572	25.86
815.747	27.13
815.922	26.29
816.097	27.3
816.272	28.13
816.447	26.92
816.622	24.83
816.797	23.69
816.972	25.43
817.147	24.4
817.322	24.41
817.496	24.13
817.671	22.92
817.846	22.87
818.021	22.99
818.196	23.06
818.371	24.21
818.545	25.08
818.72	25.05
818.895	25.26
819.069	25.79
819.244	26.93
819.419	26.39
819.594	27.45
819.768	27.41
819.943	27.76
820.117	27.59
820.292	27.11
820.467	27.22
820.641	27.15
820.816	27.25
820.99	26.99
821.165	26.27
821.339	26.74
821.514	26.62
821.688	26.53
821.863	26.3
822.037	26.35
822.212	26.29
822.386	26.15
822.56	26.09
822.735	25.81
822.909	25.74
823.084	25.95
823.258	25.82
823.432	25.74
823.606	25.82
823.781	25.98
823.955	26.11
824.129	26.21
824.303	25.87
824.478	25.85
824.652	25.69
824.826	25.3
825	25.24
825.174	25.19
825.348	24.99
825.523	24.91
825.697	24.86
825.871	24.22
826.045	24.61
826.219	25.14
826.393	25.45
826.567	25.88
826.741	26.25
826.915	26.19
827.089	26.17
827.263	26.14
827.437	26.13
827.611	26.05
827.784	26.32
827.958	25.83
828.132	25.13
828.306	25.09
828.48	24.68
828.654	25.22
828.827	25.6
829.001	25.82
829.175	26.22
829.349	26.33
829.522	25.75
829.696	25.07
829.87	24.96
830.044	26.28
830.217	26.06
830.391	26.89
830.565	26.28
830.738	25.72
830.912	23.78
831.085	23.66
831.259	24.39
831.432	25.41
831.606	27.78
831.779	27.79
831.953	27.85
832.126	27.95
832.3	27.64
832.473	27.82
832.647	27.4
832.82	27.83
832.994	27.64
833.167	27.54
833.34	27
833.514	25.83
833.687	26.05
833.86	25.27
834.034	25.42
834.207	25.13
834.38	24.61
834.553	24.75
834.727	26.02
834.9	26.54
835.073	25.83
835.246	25.41
835.419	25.78
835.593	26.13
835.766	27.2
835.939	26.96
836.112	26.95
836.285	28.35
836.458	29.35
836.631	28.27
836.804	26.85
836.977	27.31
837.15	29.44
837.323	29.62
837.496	29.07
837.669	26.77
837.842	27.46
838.015	27.12
838.188	25.13
838.361	23.02
838.533	23
838.706	24.01
838.879	24.09
839.052	22.27
839.225	22.72
839.398	22.92
839.57	25.87
839.743	26.67
839.916	25.36
840.088	25.79
840.261	25.83
840.434	26.62
840.607	26.34
840.779	28.2
840.952	29.03
841.124	28.65
841.297	29.98
841.47	28.81
841.642	27
841.815	30.8
841.987	32.31
842.16	33.2
842.332	34.15
842.505	35.12
842.677	32.6
842.85	33.2
843.022	33.61
843.194	31.65
843.367	31.05
843.539	31.36
843.712	28.95
843.884	28.5
844.056	28.84
844.229	27.98
844.401	28.99
844.573	29.55
844.745	28.37
844.918	25.9
845.09	25.32
845.262	25.92
845.434	25.05
845.606	25.78
845.779	25.84
845.951	27.09
846.123	25.73
846.295	24.73
846.467	25.69
846.639	24.41
846.811	25.11
846.983	26.88
847.155	24.61
847.327	27.32
847.499	26.22
847.671	25.13
847.843	25.25
848.015	26.67
848.187	25.34
848.359	24.78
848.531	26.63
848.703	29.5
848.875	27.69
849.047	30.94
849.218	29.51
849.39	31.56
849.562	31.02
849.734	28.25
849.905	25.16
850.077	24.32
850.249	23.51
850.421	23.83
850.592	23.21
850.764	23.79
850.936	20.07
851.107	17.46
851.279	16.89
851.451	18.32
851.622	17.34
851.794	16.59
851.965	19.1
852.137	17.99
852.308	19.34
852.48	19.25
852.651	18.67
852.823	21.61
852.994	24.7
853.166	27.91
853.337	25.31
853.509	26.15
853.68	30.8
853.851	28.73
854.023	28.99
854.194	27.42
854.365	28.25
854.537	28.92
854.708	30.06
854.879	28.98
855.05	25.15
855.222	24.57
855.393	23.75
855.564	23.83
855.735	21.18
855.906	22.79
856.078	16.52
856.249	15.36
856.42	13.43
856.591	13.84
856.762	16.2
856.933	17.13
857.104	17.61
857.275	19.56
857.446	17.69
857.617	18.22
857.788	19.32
857.959	21.52
858.13	19.86
858.301	19.6
858.472	20.51
858.643	19.15
858.814	18.13
858.985	19.16
859.155	23.03
859.326	23.8
859.497	23.79
859.668	19.94
859.839	21.27
860.009	20.83
860.18	20.25
860.351	17.92
860.522	16.88
860.692	20.77
860.863	25.25
861.034	15.22
861.204	12.96
861.375	15.18
861.546	17.77
861.716	12.17
861.887	10.98
862.057	15.71
862.228	12.78
862.398	14.85
862.569	12.76
862.739	9.63
862.91	15.87
863.08	16.34
863.251	15.29
863.421	15.93
863.592	21.66
863.762	24.64
863.932	22.21
864.103	26.23
864.273	26.65
864.443	22.99
864.614	22.26
864.784	26.54
864.954	28.83
865.125	29
865.295	25.03
865.465	20.1
865.635	19.14
865.805	22.09
865.976	17.51
866.146	18.35
866.316	19.87
866.486	17.15
866.656	10.77
866.826	8.66
866.996	9.47
867.166	12.01
867.336	19.6
867.506	19.61
867.676	13.19
867.846	17.61
868.016	15.95
868.186	18.82
868.356	22.55
868.526	23.93
868.696	28.62
868.866	28.67
869.036	28.21
869.206	23.36
869.376	24.79
869.545	34.3
869.715	33.16
869.885	30.53
870.055	26.22
870.224	25.93
870.394	24.67
870.564	19.29
870.734	20.45
870.903	19.8
871.073	21.66
871.243	20.36
871.412	14.31
871.582	14.86
871.751	19
871.921	18.16
872.091	19.24
872.26	22.81
872.43	25.96
872.599	23.06
872.769	25.14
872.938	26.35
873.108	26.29
873.277	28.86
873.446	26.36
873.616	24.97
873.785	25.87
873.955	25.43
874.124	22.56
874.293	20.31
874.463	23.82
874.632	23.19
874.801	23.09
874.971	25.49
875.14	24.51
875.309	25.12
875.478	20.28
875.647	22.44
875.817	20.61
875.986	23.22
876.155	20.81
876.324	17.35
876.493	20.54
876.662	18.73
876.831	16.89
877	18.32
877.17	21.03
877.339	24.45
877.508	23.08
877.677	23.44
877.846	22.28
878.015	26
878.184	27.43
878.352	23.88
878.521	27.47
878.69	25.74
878.859	26.02
879.028	25.33
879.197	29.81
879.366	29.23
879.534	30.94
879.703	31.91
879.872	29.29
880.041	29.04
880.21	29.47
880.378	28.18
880.547	29.9
880.716	28.29
880.884	28.47
881.053	26.13
881.222	26.1
881.39	25.71
881.559	24.75
881.727	25.62
881.896	26.72
882.065	26.75
882.233	27.04
882.402	27.04
882.57	27.71
882.739	27.02
882.907	27.3
883.076	27.58
883.244	27.53
883.412	28.73
883.581	27.99
883.749	27.03
883.918	27.76
884.086	27.55
884.254	27.53
884.423	27.61
884.591	28.78
884.759	29.27
884.927	29.13
885.096	28.64
885.264	27.4
885.432	26.84
885.6	28.22
885.769	26.84
885.937	26.71
886.105	25.87
886.273	25
886.441	21.78
886.609	21.43
886.777	19.5
886.945	21.25
887.113	23.94
887.281	27.09
887.449	23.07
887.617	26.5
887.785	26.54
887.953	23.18
888.121	22.56
888.289	25.09
888.457	29.33
888.625	32.64
888.793	36.17
888.961	35.39
889.129	36.3
889.296	39.72
889.464	37.68
889.632	37.81
889.8	42.14
889.967	45.22
890.135	50.24
