Data from 2938446_Reflection_1.txt Node
Date: Fri Jun 19 18:08:23 EDT 2015
User: robert
Spectrometer: USB4E03002
Autoset integration time: false
Trigger mode: 4
Integration Time (sec): 1.000000E-1
Scans to average: 10
Electric dark correction enabled: true
Nonlinearity correction enabled: false
Boxcar width: 5
Stray light correction enabled: false
XAxis mode: Wavelengths
Stop averaging: false
Number of Pixels in Spectrum: 3648
>>>>>Begin Spectral Data<<<<<
177.575	141.38
177.794	407.78
178.014	1140.23
178.233	-2853.98
178.452	-580.28
178.672	-87.76
178.891	-215.61
179.11	-106.05
179.33	-90.8
179.549	47.84
179.768	-371
179.987	-85.16
180.207	2003.02
180.426	-2918.57
180.645	-473.49
180.864	-133.47
181.084	-55.01
181.303	-83.04
181.522	-86.57
181.741	-92.61
181.96	-204.21
182.179	-205.26
182.398	-332.62
182.618	-114.65
182.837	-173.52
183.056	-213.02
183.275	14260
183.494	526.32
183.713	-3278.92
183.932	2355.87
184.151	478.68
184.37	1328.35
184.589	262.27
184.808	218.99
185.027	143.13
185.246	109.14
185.465	196.07
185.684	544.13
185.903	1056.99
186.122	274.57
186.341	267.55
186.56	547.17
186.779	335.32
186.998	393.63
187.216	-394.95
187.435	-204.49
187.654	-252.85
187.873	-1744.44
188.092	8850.98
188.311	2409.9
188.53	-1834.32
188.748	-491.31
188.967	-267.51
189.186	-362.2
189.405	-267.84
189.623	-2221.93
189.842	790.42
190.061	2078.64
190.28	-212.85
190.498	-478.99
190.717	-32453.33
190.936	-800.45
191.154	-554.68
191.373	-869.39
191.592	20.12
191.81	-13.34
192.029	-33.4
192.248	-34.79
192.466	-38.07
192.685	-70.47
192.904	-56.51
193.122	-33.73
193.341	-59.72
193.559	-110.65
193.778	-31.92
193.996	-213.67
194.215	-66.03
194.433	9.16
194.652	-15.96
194.87	2.64
195.089	1.93
195.307	22.49
195.526	22.96
195.744	19.1
195.963	10.97
196.181	-24.79
196.399	-45.33
196.618	-670.72
196.836	1081.37
197.055	891.32
197.273	861.25
197.491	267.01
197.71	294.24
197.928	170.82
198.146	282.54
198.365	1239.47
198.583	236.77
198.801	128.96
199.019	556.91
199.238	225.1
199.456	422.22
199.674	-29.76
199.892	242.16
200.111	-74.3
200.329	-186.34
200.547	55.2
200.765	-420.88
200.983	272.95
201.202	135.92
201.42	96.95
201.638	65.47
201.856	-3.23
202.074	-23.64
202.292	-108.91
202.51	-26.62
202.728	93.39
202.946	78.65
203.165	190.43
203.383	85.97
203.601	-16.27
203.819	-217.02
204.037	-72.13
204.255	-202.22
204.473	693.5
204.691	578.82
204.909	-1465.92
205.127	-183.59
205.345	-124.45
205.562	-105.2
205.78	-289.3
205.998	-155.4
206.216	-9.12
206.434	-50.42
206.652	22.92
206.87	26.78
207.088	74.33
207.306	65.38
207.523	88.43
207.741	52.71
207.959	192.2
208.177	121.81
208.395	180.18
208.612	41.64
208.83	15.46
209.048	-12.47
209.266	-58.47
209.483	-14.02
209.701	-154.3
209.919	-93.39
210.136	-79.31
210.354	-28.65
210.572	34.42
210.79	47.58
211.007	26.3
211.225	8.22
211.442	8.9
211.66	8.47
211.878	-97.32
212.095	31.77
212.313	62.64
212.53	16.24
212.748	6.93
212.966	-0.67
213.183	1
213.401	25.29
213.618	25.48
213.836	32.54
214.053	47.86
214.271	52.23
214.488	41.06
214.705	29.2
214.923	41.85
215.14	26.16
215.358	18.13
215.575	13.72
215.793	-0.86
216.01	-4.82
216.227	-10.65
216.445	-53.06
216.662	-49.98
216.879	-87.68
217.097	-37.17
217.314	-62.6
217.531	-53.54
217.749	-197.08
217.966	-183.25
218.183	-290.56
218.4	-154.85
218.618	-166.74
218.835	-248.47
219.052	-336.13
219.269	-150.33
219.487	-111.76
219.704	-122.49
219.921	-73.23
220.138	-29.63
220.355	-32.61
220.572	-22.25
220.79	-24.67
221.007	-21.67
221.224	-10.82
221.441	-12.22
221.658	-21.06
221.875	-48.73
222.092	-33.97
222.309	-23.58
222.526	-35.67
222.743	-19.89
222.96	-23.23
223.177	-13.65
223.394	3.59
223.611	6.15
223.828	16.5
224.045	25.9
224.262	36.32
224.479	28.71
224.696	20.1
224.913	21.34
225.13	20.86
225.347	27.21
225.564	26.36
225.781	23.18
225.997	22.73
226.214	18.81
226.431	15.49
226.648	14.64
226.865	15.74
227.082	15.15
227.298	16.51
227.515	14.97
227.732	15.39
227.949	15.93
228.165	17.63
228.382	18
228.599	19.02
228.816	19.8
229.032	19.9
229.249	19.58
229.466	22.32
229.682	21.99
229.899	24.03
230.116	21.46
230.332	19.95
230.549	15.91
230.765	15.85
230.982	17.5
231.199	17.87
231.415	20.79
231.632	20.08
231.848	15.69
232.065	15.61
232.281	14.38
232.498	16.88
232.714	18.24
232.931	19.76
233.147	17.93
233.364	16.04
233.58	16.45
233.797	13.46
234.013	14.12
234.23	14.43
234.446	16
234.662	17.83
234.879	17.25
235.095	15.22
235.312	14.81
235.528	15.74
235.744	15.62
235.961	15.17
236.177	15.59
236.393	16.47
236.61	17.74
236.826	14.73
237.042	11.68
237.258	10.6
237.475	11.58
237.691	12.65
237.907	11.56
238.123	13.58
238.339	11.97
238.556	12.39
238.772	13.76
238.988	14.46
239.204	15.69
239.42	17.47
239.636	17.32
239.853	17.4
240.069	17.34
240.285	17.63
240.501	16.44
240.717	16.94
240.933	15.68
241.149	15.43
241.365	15.34
241.581	15.43
241.797	14.99
242.013	15.04
242.229	15.43
242.445	14.68
242.661	14.69
242.877	15.09
243.093	15.81
243.309	17.08
243.525	16.97
243.741	16.17
243.957	14.74
244.173	14.94
244.388	14.64
244.604	13.99
244.82	14.92
245.036	14.56
245.252	14.65
245.468	14.22
245.683	14.24
245.899	13.81
246.115	13.98
246.331	14.12
246.547	13.77
246.762	13.65
246.978	13.37
247.194	12.66
247.409	12.57
247.625	12.6
247.841	12.62
248.057	12.36
248.272	12.68
248.488	12.86
248.703	13.61
248.919	14.19
249.135	14.41
249.35	14.2
249.566	15.08
249.782	14.35
249.997	14.5
250.213	13.77
250.428	12.64
250.644	13.09
250.859	12.64
251.075	11.38
251.29	10.77
251.506	10.53
251.721	11.2
251.937	10.5
252.152	11
252.368	10.43
252.583	10.47
252.798	11.45
253.014	10.71
253.229	10.04
253.445	10.44
253.66	10.62
253.875	9.94
254.091	8.95
254.306	7.86
254.521	7.65
254.737	7.11
254.952	8.41
255.167	9.36
255.383	9.9
255.598	12.21
255.813	13.18
256.028	12.25
256.244	11.46
256.459	11.54
256.674	11.71
256.889	11.8
257.104	12.65
257.32	12.25
257.535	12.27
257.75	12.17
257.965	11.53
258.18	11.07
258.395	11.04
258.61	11.57
258.826	11.08
259.041	11.01
259.256	11.06
259.471	10.44
259.686	9.97
259.901	9.8
260.116	9.06
260.331	8.87
260.546	9.46
260.761	9.14
260.976	8.57
261.191	8.9
261.406	8.38
261.621	8.8
261.836	8.87
262.05	9.3
262.265	8.73
262.48	8.91
262.695	8.55
262.91	7.55
263.125	9.8
263.34	11.04
263.555	11.64
263.769	12.5
263.984	12.14
264.199	12.63
264.414	12.22
264.629	12.16
264.843	12.86
265.058	13.07
265.273	12.96
265.488	11.07
265.702	9.86
265.917	10.29
266.132	10.85
266.346	10.09
266.561	9.4
266.776	10.02
266.99	9.94
267.205	9.72
267.42	9.52
267.634	9.72
267.849	10.29
268.063	11.01
268.278	10.92
268.492	10.62
268.707	11.05
268.922	11.97
269.136	11.35
269.351	11.34
269.565	11.33
269.78	10.67
269.994	10.41
270.209	10.89
270.423	9.87
270.637	9.64
270.852	9.34
271.066	9.04
271.281	7.78
271.495	8.2
271.709	8.03
271.924	8.05
272.138	8.25
272.353	8.22
272.567	7.46
272.781	8.29
272.996	7.81
273.21	8.56
273.424	9.06
273.638	10
273.853	9.32
274.067	9.5
274.281	8.37
274.495	9.54
274.71	9.5
274.924	9.56
275.138	10.13
275.352	9.82
275.566	9.21
275.781	9.52
275.995	9.46
276.209	10.86
276.423	10.69
276.637	11.33
276.851	11.44
277.065	11.13
277.279	11.36
277.493	11.01
277.707	11.52
277.921	11.79
278.135	11.65
278.349	11.57
278.563	10.28
278.777	9.98
278.991	10.71
279.205	9.71
279.419	8.9
279.633	9.11
279.847	8.84
280.061	9.73
280.275	8.97
280.489	8.8
280.703	8.92
280.917	8.75
281.131	9.6
281.344	8.93
281.558	9.27
281.772	9.73
281.986	9.87
282.2	10.19
282.414	9.13
282.627	9.81
282.841	10.07
283.055	10.41
283.269	10.93
283.482	11.12
283.696	11.53
283.91	11.57
284.123	11.8
284.337	11.35
284.551	10.96
284.764	11.09
284.978	10.42
285.192	9.78
285.405	9.51
285.619	8.8
285.833	8.62
286.046	8.9
286.26	8.79
286.473	9.08
286.687	9.1
286.9	9.77
287.114	10.23
287.327	11.35
287.541	12.11
287.754	12.19
287.968	12.8
288.181	12.55
288.395	12.61
288.608	12.19
288.822	11.7
289.035	11.92
289.248	11.55
289.462	11.58
289.675	11.15
289.889	11.41
290.102	11.05
290.315	11.34
290.529	11.53
290.742	10.57
290.955	11.17
291.169	12.35
291.382	12.72
291.595	12.79
291.808	12.56
292.022	12.03
292.235	10.92
292.448	11.18
292.661	10.5
292.875	10.14
293.088	11.01
293.301	10.12
293.514	9.28
293.727	9.35
293.94	8.81
294.153	9.42
294.367	10.02
294.58	10.42
294.793	10.85
295.006	11.54
295.219	11.58
295.432	11
295.645	11.95
295.858	11.79
296.071	11.2
296.284	11.79
296.497	11.79
296.71	11.74
296.923	12.02
297.136	12.31
297.349	12.5
297.562	12.44
297.775	13.46
297.988	13.17
298.201	13.93
298.414	14.75
298.626	14.68
298.839	14.78
299.052	15.1
299.265	15.18
299.478	14.83
299.691	13.79
299.903	14.64
300.116	13.4
300.329	13.76
300.542	13.82
300.755	13.36
300.967	13.42
301.18	13.76
301.393	13.3
301.605	12.49
301.818	12.31
302.031	12.95
302.243	12.45
302.456	12.52
302.669	12.88
302.881	12.86
303.094	12.97
303.307	12.92
303.519	12.26
303.732	11.9
303.944	12.32
304.157	12.87
304.37	12.8
304.582	12.45
304.795	13.22
305.007	12.73
305.22	12.35
305.432	12.93
305.645	12.56
305.857	12.4
306.069	12.95
306.282	12.68
306.494	12.26
306.707	12.4
306.919	13.19
307.132	12.65
307.344	12.34
307.556	12.27
307.769	12.25
307.981	12.64
308.193	12.71
308.406	12.23
308.618	12.49
308.83	12.44
309.043	11.88
309.255	11.26
309.467	12.08
309.679	11.77
309.892	12.08
310.104	11.64
310.316	11.71
310.528	11.35
310.74	11.42
310.953	11.64
311.165	11.42
311.377	12
311.589	11.81
311.801	11.25
312.013	11.09
312.225	10.89
312.437	11.54
312.649	11.49
312.862	11.76
313.074	11.75
313.286	10.83
313.498	10.92
313.71	10.83
313.922	10.65
314.134	11.19
314.346	11.69
314.558	11.62
314.77	11.15
314.982	11.65
315.193	11.63
315.405	12.34
315.617	12.91
315.829	13.19
316.041	13.13
316.253	14.2
316.465	13.92
316.677	14.46
316.888	14.26
317.1	13.86
317.312	13.54
317.524	13.13
317.736	13.25
317.947	12.95
318.159	12.6
318.371	13.38
318.583	12.96
318.794	12.3
319.006	11.79
319.218	11.58
319.43	10.97
319.641	10.98
319.853	12.01
320.064	11.24
320.276	11.43
320.488	11.43
320.699	9.77
320.911	8.98
321.123	9.48
321.334	10.05
321.546	10.45
321.757	12.21
321.969	11.69
322.18	10.78
322.392	11
322.603	11.17
322.815	10.8
323.026	11.23
323.238	11.44
323.449	11.95
323.661	10.91
323.872	11.06
324.083	10.38
324.295	10.97
324.506	10.7
324.718	10.69
324.929	10.89
325.14	11.39
325.352	11.88
325.563	12.38
325.774	12.2
325.986	12.72
326.197	11.92
326.408	11.65
326.62	10.92
326.831	11.54
327.042	11.08
327.253	11.15
327.464	11.15
327.676	11.53
327.887	12.02
328.098	11.55
328.309	11.06
328.52	11.95
328.732	12.43
328.943	13.56
329.154	14.39
329.365	15.58
329.576	15.29
329.787	15
329.998	14.04
330.209	13.28
330.42	13.47
330.631	13.76
330.842	13.69
331.053	13.27
331.264	12.56
331.475	11.93
331.686	12.8
331.897	12.71
332.108	12.56
332.319	12.86
332.53	12.82
332.741	13.65
332.952	13.5
333.163	12.62
333.374	13.16
333.585	12.84
333.795	13.01
334.006	12.17
334.217	12.54
334.428	12.15
334.639	11.94
334.849	12.05
335.06	11.01
335.271	11.69
335.482	12.07
335.692	12.32
335.903	12.96
336.114	12.92
336.325	12.71
336.535	12.81
336.746	13.16
336.957	13.71
337.167	14.59
337.378	15
337.589	15.01
337.799	15.14
338.01	14.41
338.22	14.78
338.431	15.05
338.642	14.83
338.852	14.52
339.063	14.75
339.273	14.18
339.484	14.06
339.694	12.72
339.905	12.16
340.115	12.68
340.326	12.82
340.536	11.94
340.746	11.57
340.957	12.7
341.167	13.14
341.378	12.55
341.588	13.51
341.799	13.23
342.009	14.31
342.219	14.59
342.43	15.18
342.64	15.3
342.85	15.49
343.061	15.34
343.271	14.27
343.481	13.81
343.691	14.15
343.902	13.65
344.112	13.58
344.322	13.21
344.532	12.78
344.743	11.81
344.953	11.21
345.163	11.77
345.373	11.71
345.583	11.5
345.793	11.31
346.004	12.28
346.214	12.34
346.424	12.6
346.634	12.85
346.844	13.71
347.054	13.17
347.264	13.5
347.474	12.96
347.684	12.71
347.894	12.43
348.104	12.52
348.314	11.7
348.524	11.37
348.734	10.03
348.944	9.92
349.154	8.84
349.364	9.75
349.574	9.81
349.784	9.94
349.994	10.66
350.204	10.92
350.413	10.86
350.623	11.63
350.833	11.42
351.043	12.49
351.253	12.56
351.463	13.05
351.672	12.64
351.882	12.86
352.092	12.32
352.302	12.39
352.511	13.02
352.721	13.65
352.931	13.01
353.141	13.2
353.35	12.71
353.56	12.93
353.77	13.29
353.979	13.47
354.189	13.1
354.399	12.94
354.608	12.78
354.818	12.42
355.027	11.89
355.237	11.32
355.447	11
355.656	11.09
355.866	10.64
356.075	10.35
356.285	10.56
356.494	10.97
356.704	11.05
356.913	10.89
357.123	11.18
357.332	11.35
357.542	12.31
357.751	12.73
357.96	12.97
358.17	12.69
358.379	12.55
358.589	12.17
358.798	12.47
359.007	12.76
359.217	12.87
359.426	12.69
359.635	12.71
359.845	12.41
360.054	12.11
360.263	11.86
360.472	12.42
360.682	12.58
360.891	12.55
361.1	12.28
361.309	12.04
361.519	11.56
361.728	11.4
361.937	11.3
362.146	10.85
362.355	10.7
362.564	10.6
362.774	10.5
362.983	10.19
363.192	10.34
363.401	9.96
363.61	10.03
363.819	10.68
364.028	10.61
364.237	10.23
364.446	10.32
364.655	10.8
364.864	11.43
365.073	11.46
365.282	11.67
365.491	11.22
365.7	11.53
365.909	11.56
366.118	10.86
366.327	11.17
366.536	11.61
366.745	12.27
366.954	11.74
367.162	11.51
367.371	11.53
367.58	11.02
367.789	11.19
367.998	11.05
368.207	11.14
368.415	11.41
368.624	11
368.833	10.87
369.042	10.02
369.25	9.87
369.459	9.53
369.668	8.93
369.877	8.87
370.085	9.46
370.294	8.81
370.503	8.75
370.711	9.04
370.92	8.86
371.129	8.81
371.337	8.95
371.546	8.86
371.754	8.91
371.963	9.21
372.171	9.89
372.38	9.57
372.589	9.7
372.797	9.32
373.006	8.93
373.214	9.22
373.423	9.21
373.631	8.71
373.84	8.74
374.048	8.81
374.256	8.85
374.465	8.29
374.673	7.57
374.882	7.83
375.09	7.83
375.298	7.86
375.507	7.66
375.715	7.56
375.923	7.5
376.132	7.83
376.34	7.67
376.548	7.5
376.757	7.47
376.965	7.77
377.173	7.82
377.381	7.63
377.59	7.22
377.798	7.04
378.006	6.48
378.214	6.82
378.423	6.33
378.631	6.45
378.839	6.11
379.047	6.28
379.255	6.41
379.463	6.01
379.671	6.09
379.879	6.65
380.088	7.11
380.296	7.8
380.504	7.75
380.712	7.76
380.92	7.37
381.128	7.92
381.336	7.73
381.544	7.64
381.752	7.58
381.96	7.83
382.168	7.38
382.376	7.08
382.584	6.39
382.791	6.56
382.999	6.51
383.207	6.46
383.415	5.91
383.623	5.86
383.831	6.07
384.039	6.23
384.247	6.03
384.454	5.95
384.662	5.68
384.87	6.19
385.078	5.88
385.285	6.17
385.493	6.48
385.701	6.65
385.909	6.45
386.116	6.05
386.324	6.19
386.532	6.12
386.739	6.35
386.947	6.39
387.155	5.9
387.362	5.78
387.57	5.52
387.778	5.27
387.985	5.07
388.193	5.11
388.4	5.01
388.608	4.93
388.816	4.73
389.023	4.92
389.231	4.79
389.438	5.01
389.646	5.35
389.853	5.21
390.061	5.14
390.268	5.12
390.475	5.02
390.683	5.13
390.89	4.94
391.098	5.11
391.305	4.61
391.512	4.77
391.72	4.47
391.927	4.15
392.135	4.21
392.342	4.34
392.549	4.29
392.756	4.37
392.964	4.23
393.171	4.24
393.378	4.31
393.586	4.53
393.793	4.41
394	4.48
394.207	4.49
394.414	4.42
394.622	4.2
394.829	4.16
395.036	4.05
395.243	4.14
395.45	4.2
395.657	4.02
395.864	3.85
396.072	3.77
396.279	3.75
396.486	3.83
396.693	3.88
396.9	4.02
397.107	3.97
397.314	3.98
397.521	3.95
397.728	3.95
397.935	4.1
398.142	4.12
398.349	4.23
398.556	4.3
398.763	4.15
398.97	3.99
399.177	3.94
399.383	4.09
399.59	4.04
399.797	4.04
400.004	3.9
400.211	3.84
400.418	3.99
400.625	4.02
400.831	4.04
401.038	4.21
401.245	4.37
401.452	4.29
401.658	4.41
401.865	4.6
402.072	4.61
402.279	4.61
402.485	4.64
402.692	4.47
402.899	4.39
403.105	4.31
403.312	4.31
403.519	4.28
403.725	4.42
403.932	4.29
404.138	4.23
404.345	4.2
404.552	4.25
404.758	4.1
404.965	4.17
405.171	4.12
405.378	4.19
405.584	4.18
405.791	4.16
405.997	3.99
406.204	3.93
406.41	3.86
406.617	3.82
406.823	3.85
407.029	3.93
407.236	3.74
407.442	3.82
407.649	3.74
407.855	3.69
408.061	3.7
408.268	3.65
408.474	3.61
408.68	3.66
408.887	3.66
409.093	3.67
409.299	3.62
409.505	3.67
409.712	3.61
409.918	3.77
410.124	3.78
410.33	3.74
410.537	3.77
410.743	3.93
410.949	4.03
411.155	3.98
411.361	3.6
411.567	3.58
411.773	3.67
411.98	3.69
412.186	3.33
412.392	3.12
412.598	3.09
412.804	3.12
413.01	2.94
413.216	2.64
413.422	2.7
413.628	2.99
413.834	3.13
414.04	3.15
414.246	3.19
414.452	3.46
414.658	3.55
414.864	3.59
415.07	3.57
415.275	3.63
415.481	3.7
415.687	3.75
415.893	3.75
416.099	3.67
416.305	3.63
416.511	3.62
416.716	3.54
416.922	3.59
417.128	3.6
417.334	3.66
417.539	3.62
417.745	3.67
417.951	3.72
418.157	3.71
418.362	3.74
418.568	3.72
418.774	3.66
418.979	3.71
419.185	3.69
419.391	3.59
419.596	3.56
419.802	3.61
420.008	3.65
420.213	3.58
420.419	3.54
420.624	3.52
420.83	3.52
421.035	3.6
421.241	3.53
421.446	3.59
421.652	3.67
421.857	3.68
422.063	3.61
422.268	3.6
422.474	3.51
422.679	3.5
422.885	3.5
423.09	3.51
423.295	3.45
423.501	3.42
423.706	3.4
423.911	3.36
424.117	3.3
424.322	3.3
424.527	3.27
424.733	3.42
424.938	3.46
425.143	3.32
425.349	3.24
425.554	3.21
425.759	3.2
425.964	3.11
426.169	3.05
426.375	3.1
426.58	3.16
426.785	3.17
426.99	3.08
427.195	3.11
427.4	3.21
427.605	3.32
427.811	3.32
428.016	3.34
428.221	3.35
428.426	3.46
428.631	3.44
428.836	3.38
429.041	3.26
429.246	3.19
429.451	3.24
429.656	3.19
429.861	3.14
430.066	3.2
430.271	3.25
430.476	3.19
430.681	3.08
430.886	3.09
431.09	3.06
431.295	3.11
431.5	3.15
431.705	3
431.91	3.01
432.115	3.03
432.32	2.98
432.524	2.9
432.729	2.96
432.934	3.13
433.139	3.08
433.343	3.14
433.548	3.13
433.753	3.02
433.958	3.12
434.162	3.27
434.367	3.22
434.572	3.31
434.776	3.37
434.981	3.37
435.186	3.35
435.39	3.35
435.595	3.4
435.799	3.46
436.004	3.46
436.209	3.46
436.413	3.52
436.618	3.54
436.822	3.57
437.027	3.54
437.231	3.52
437.436	3.52
437.64	3.5
437.845	3.46
438.049	3.49
438.253	3.54
438.458	3.53
438.662	3.44
438.867	3.43
439.071	3.38
439.275	3.43
439.48	3.42
439.684	3.4
439.888	3.42
440.093	3.45
440.297	3.45
440.501	3.46
440.706	3.39
440.91	3.33
441.114	3.28
441.318	3.28
441.523	3.25
441.727	3.33
441.931	3.29
442.135	3.36
442.339	3.34
442.543	3.27
442.748	3.35
442.952	3.47
443.156	3.48
443.36	3.57
443.564	3.49
443.768	3.52
443.972	3.43
444.176	3.37
444.38	3.32
444.584	3.34
444.788	3.44
444.992	3.41
445.196	3.36
445.4	3.43
445.604	3.33
445.808	3.33
446.012	3.31
446.216	3.3
446.42	3.34
446.624	3.32
446.828	3.29
447.032	3.21
447.235	3.16
447.439	3.08
447.643	3.02
447.847	3.06
448.051	3.06
448.254	3.07
448.458	3.1
448.662	3.11
448.866	3.15
449.069	3.08
449.273	3.09
449.477	3.1
449.681	3.22
449.884	3.21
450.088	3.25
450.292	3.33
450.495	3.34
450.699	3.35
450.902	3.33
451.106	3.32
451.31	3.3
451.513	3.31
451.717	3.2
451.92	3.2
452.124	3.24
452.327	3.25
452.531	3.23
452.734	3.14
452.938	3.12
453.141	3.1
453.345	3.18
453.548	3.19
453.752	3.11
453.955	3.24
454.158	3.2
454.362	3.22
454.565	3.13
454.769	3.15
454.972	3.29
455.175	3.24
455.379	3.26
455.582	3.17
455.785	3.24
455.988	3.3
456.192	3.3
456.395	3.35
456.598	3.28
456.801	3.29
457.005	3.25
457.208	3.17
457.411	3.27
457.614	3.27
457.817	3.28
458.021	3.24
458.224	3.24
458.427	3.19
458.63	3.15
458.833	3.17
459.036	3.19
459.239	3.14
459.442	3.14
459.645	3.09
459.848	3.1
460.051	3.09
460.254	3.14
460.457	3.14
460.66	3.08
460.863	3.11
461.066	3.03
461.269	3.08
461.472	3.21
461.675	3.17
461.878	3.12
462.081	3.03
462.284	3.01
462.486	2.83
462.689	2.83
462.892	2.95
463.095	2.96
463.298	3.03
463.5	2.99
463.703	2.96
463.906	2.97
464.109	2.91
464.311	3.06
464.514	3.08
464.717	3.06
464.92	3.06
465.122	3.13
465.325	3.04
465.528	3.01
465.73	3
465.933	2.91
466.135	3
466.338	3.1
466.541	3.04
466.743	3.03
466.946	3.14
467.148	3.2
467.351	3.18
467.553	3.21
467.756	3.2
467.958	3.2
468.161	3.21
468.363	3.13
468.566	3.12
468.768	3.11
468.971	3.04
469.173	2.97
469.375	2.95
469.578	2.92
469.78	2.92
469.983	3.03
470.185	3.08
470.387	3.1
470.59	3.2
470.792	3.31
470.994	3.4
471.196	3.5
471.399	3.52
471.601	3.49
471.803	3.48
472.005	3.59
472.208	3.48
472.41	3.41
472.612	3.43
472.814	3.22
473.016	3.13
473.218	3.03
473.421	3.04
473.623	3.08
473.825	3.07
474.027	3.04
474.229	2.96
474.431	3.06
474.633	3.07
474.835	3.05
475.037	3.15
475.239	3.17
475.441	3.2
475.643	3.2
475.845	3.17
476.047	3.12
476.249	3.16
476.451	3.07
476.653	2.97
476.855	3.01
477.057	3.12
477.258	3.19
477.46	3.2
477.662	3.18
477.864	3.19
478.066	3.18
478.268	3.16
478.469	3.13
478.671	3.22
478.873	3.25
479.075	3.31
479.276	3.2
479.478	3.19
479.68	3.21
479.882	3.26
480.083	3.22
480.285	3.26
480.487	3.28
480.688	3.29
480.89	3.3
481.091	3.3
481.293	3.27
481.495	3.29
481.696	3.28
481.898	3.24
482.099	3.2
482.301	3.21
482.502	3.2
482.704	3.2
482.905	3.2
483.107	3.18
483.308	3.18
483.51	3.18
483.711	3.17
483.913	3.15
484.114	3.17
484.315	3.16
484.517	3.16
484.718	3.21
484.92	3.22
485.121	3.26
485.322	3.27
485.524	3.25
485.725	3.26
485.926	3.3
486.127	3.32
486.329	3.31
486.53	3.32
486.731	3.32
486.932	3.29
487.134	3.27
487.335	3.24
487.536	3.3
487.737	3.32
487.938	3.33
488.139	3.29
488.341	3.32
488.542	3.35
488.743	3.38
488.944	3.38
489.145	3.4
489.346	3.47
489.547	3.45
489.748	3.4
489.949	3.38
490.15	3.39
490.351	3.41
490.552	3.36
490.753	3.38
490.954	3.37
491.155	3.39
491.356	3.4
491.557	3.39
491.758	3.43
491.959	3.41
492.159	3.46
492.36	3.44
492.561	3.4
492.762	3.44
492.963	3.37
493.164	3.38
493.364	3.32
493.565	3.32
493.766	3.3
493.967	3.28
494.167	3.29
494.368	3.19
494.569	3.22
494.769	3.24
494.97	3.21
495.171	3.24
495.371	3.2
495.572	3.29
495.773	3.27
495.973	3.25
496.174	3.29
496.375	3.27
496.575	3.36
496.776	3.37
496.976	3.47
497.177	3.48
497.377	3.5
497.578	3.49
497.778	3.44
497.979	3.5
498.179	3.49
498.38	3.4
498.58	3.46
498.78	3.41
498.981	3.44
499.181	3.36
499.382	3.38
499.582	3.37
499.782	3.43
499.983	3.49
500.183	3.39
500.383	3.52
500.584	3.52
500.784	3.5
500.984	3.54
501.184	3.47
501.385	3.45
501.585	3.48
501.785	3.53
501.985	3.49
502.185	3.47
502.386	3.51
502.586	3.47
502.786	3.59
502.986	3.59
503.186	3.61
503.386	3.6
503.586	3.6
503.786	3.67
503.987	3.72
504.187	3.75
504.387	3.8
504.587	3.79
504.787	3.79
504.987	3.68
505.187	3.74
505.387	3.76
505.587	3.77
505.786	3.82
505.986	3.79
506.186	3.7
506.386	3.76
506.586	3.71
506.786	3.75
506.986	3.75
507.186	3.78
507.386	3.77
507.585	3.71
507.785	3.79
507.985	3.78
508.185	3.75
508.384	3.78
508.584	3.8
508.784	3.83
508.984	3.83
509.183	3.8
509.383	3.85
509.583	3.79
509.782	3.89
509.982	3.9
510.182	3.85
510.381	3.91
510.581	3.88
510.781	3.9
510.98	3.91
511.18	3.94
511.379	3.98
511.579	4.01
511.778	4.08
511.978	4.05
512.177	4.02
512.377	4.16
512.576	4.08
512.776	4.11
512.975	4.02
513.175	4.01
513.374	4.02
513.573	4.09
513.773	3.99
513.972	3.92
514.172	3.97
514.371	3.98
514.57	3.91
514.77	3.99
514.969	4.05
515.168	4.11
515.367	4.21
515.567	4.22
515.766	4.18
515.965	4.29
516.164	4.4
516.364	4.44
516.563	4.48
516.762	4.48
516.961	4.53
517.16	4.56
517.359	4.61
517.559	4.56
517.758	4.63
517.957	4.67
518.156	4.68
518.355	4.67
518.554	4.68
518.753	4.68
518.952	4.7
519.151	4.62
519.35	4.6
519.549	4.59
519.748	4.58
519.947	4.6
520.146	4.59
520.345	4.54
520.544	4.56
520.743	4.55
520.942	4.59
521.141	4.64
521.339	4.75
521.538	4.81
521.737	4.8
521.936	4.89
522.135	4.84
522.333	4.81
522.532	4.91
522.731	4.91
522.93	4.9
523.129	4.86
523.327	4.9
523.526	4.94
523.725	4.89
523.923	4.98
524.122	4.98
524.321	5.04
524.519	5.09
524.718	5.07
524.917	5.07
525.115	5.11
525.314	5.17
525.512	5.14
525.711	5.13
525.909	5.17
526.108	5.13
526.306	5.17
526.505	5.19
526.703	5.2
526.902	5.21
527.1	5.24
527.299	5.27
527.497	5.29
527.696	5.34
527.894	5.38
528.092	5.38
528.291	5.42
528.489	5.39
528.688	5.4
528.886	5.44
529.084	5.45
529.283	5.51
529.481	5.5
529.679	5.5
529.877	5.48
530.076	5.49
530.274	5.53
530.472	5.52
530.67	5.57
530.869	5.54
531.067	5.51
531.265	5.55
531.463	5.53
531.661	5.57
531.859	5.57
532.057	5.6
532.255	5.59
532.454	5.65
532.652	5.66
532.85	5.72
533.048	5.83
533.246	5.87
533.444	5.84
533.642	5.87
533.84	5.87
534.038	5.89
534.236	5.92
534.434	5.94
534.632	5.94
534.83	6
535.027	6.03
535.225	5.98
535.423	5.95
535.621	6.06
535.819	6.08
536.017	6.09
536.215	6.16
536.412	6.12
536.61	6.15
536.808	6.14
537.006	6.12
537.203	6.11
537.401	6.15
537.599	6.17
537.797	6.2
537.994	6.21
538.192	6.23
538.39	6.21
538.587	6.26
538.785	6.33
538.983	6.34
539.18	6.39
539.378	6.38
539.575	6.37
539.773	6.43
539.97	6.43
540.168	6.43
540.366	6.47
540.563	6.48
540.761	6.49
540.958	6.49
541.155	6.54
541.353	6.58
541.55	6.6
541.748	6.65
541.945	6.7
542.143	6.69
542.34	6.73
542.537	6.7
542.735	6.74
542.932	6.77
543.129	6.76
543.327	6.72
543.524	6.66
543.721	6.71
543.919	6.74
544.116	6.73
544.313	6.8
544.51	6.87
544.708	6.99
544.905	7.05
545.102	7.09
545.299	7.15
545.496	7.16
545.693	7.19
545.891	7.2
546.088	7.14
546.285	7.13
546.482	7.19
546.679	7.14
546.876	7.16
547.073	7.14
547.27	7.11
547.467	7.15
547.664	7.29
547.861	7.46
548.058	7.44
548.255	7.54
548.452	7.56
548.649	7.55
548.846	7.79
549.043	7.76
549.24	7.95
549.437	8.04
549.633	8
549.83	7.87
550.027	7.82
550.224	7.9
550.421	7.97
550.618	8.07
550.814	8.01
551.011	7.95
551.208	8.01
551.405	7.99
551.601	8
551.798	8.07
551.995	8.2
552.191	8.19
552.388	8.27
552.585	8.43
552.781	8.39
552.978	8.48
553.175	8.5
553.371	8.45
553.568	8.52
553.764	8.63
553.961	8.63
554.157	8.74
554.354	8.85
554.55	8.89
554.747	8.79
554.943	8.92
555.14	8.93
555.336	8.91
555.533	9.04
555.729	8.94
555.926	8.88
556.122	8.95
556.318	8.92
556.515	8.89
556.711	8.94
556.907	9
557.104	9.02
557.3	9.12
557.496	9.31
557.693	9.38
557.889	9.49
558.085	9.52
558.281	9.62
558.478	9.8
558.674	10
558.87	9.96
559.066	9.96
559.262	10.08
559.459	10.18
559.655	10.22
559.851	10.19
560.047	10.25
560.243	10.25
560.439	10.26
560.635	10.09
560.831	10.09
561.027	10.23
561.223	10.29
561.419	10.2
561.615	10.04
561.811	9.97
562.007	10.1
562.203	10.08
562.399	10.27
562.595	10.38
562.791	10.42
562.987	10.46
563.183	10.46
563.379	10.47
563.575	10.61
563.771	10.84
563.966	10.95
564.162	10.97
564.358	11.09
564.554	11.17
564.75	11.22
564.945	11.31
565.141	11.32
565.337	11.45
565.533	11.57
565.728	11.65
565.924	11.67
566.12	11.74
566.315	11.88
566.511	11.94
566.707	11.97
566.902	12.01
567.098	12.03
567.293	12.15
567.489	12.19
567.684	12.18
567.88	12.21
568.076	12.33
568.271	12.36
568.467	12.36
568.662	12.35
568.858	12.37
569.053	12.48
569.248	12.67
569.444	12.65
569.639	12.72
569.835	12.77
570.03	12.9
570.225	12.87
570.421	12.83
570.616	12.92
570.812	13.04
571.007	13.16
571.202	13.19
571.397	13.24
571.593	13.24
571.788	13.25
571.983	13.3
572.178	13.17
572.374	13.19
572.569	13.29
572.764	13.25
572.959	13.27
573.154	13.26
573.35	13.34
573.545	13.29
573.74	13.36
573.935	13.4
574.13	13.44
574.325	13.63
574.52	13.76
574.715	13.89
574.91	13.95
575.105	13.93
575.3	13.98
575.495	14.03
575.69	14.13
575.885	14.13
576.08	14.16
576.275	14.19
576.47	14.19
576.665	14.22
576.86	14.16
577.055	14.27
577.25	14.42
577.444	14.44
577.639	14.5
577.834	14.49
578.029	14.74
578.224	14.62
578.418	14.8
578.613	14.83
578.808	14.8
579.003	14.78
579.197	14.61
579.392	14.57
579.587	14.57
579.781	14.57
579.976	14.64
580.171	14.63
580.365	14.84
580.56	14.74
580.755	14.76
580.949	14.74
581.144	14.88
581.338	14.98
581.533	15.09
581.727	15.04
581.922	15
582.116	14.93
582.311	14.96
582.505	15.06
582.7	15.09
582.894	15.06
583.089	15.05
583.283	14.99
583.478	15.16
583.672	15.2
583.866	15.28
584.061	15.15
584.255	15.3
584.449	15.34
584.644	15.32
584.838	15.39
585.032	15.59
585.226	15.84
585.421	15.89
585.615	15.85
585.809	15.8
586.003	16
586.198	16.1
586.392	16.17
586.586	16.06
586.78	16.11
586.974	16.24
587.168	16.31
587.363	16.16
587.557	16.26
587.751	16.21
587.945	16.27
588.139	16.24
588.333	16.38
588.527	16.37
588.721	16.4
588.915	16.46
589.109	16.4
589.303	16.38
589.497	16.28
589.691	16.23
589.885	16.38
590.079	16.39
590.273	16.24
590.466	16.15
590.66	16.19
590.854	16.22
591.048	16.11
591.242	16.14
591.436	16.02
591.629	16.21
591.823	16.3
592.017	16.24
592.211	16.36
592.404	16.47
592.598	16.5
592.792	16.5
592.986	16.56
593.179	16.71
593.373	16.74
593.567	16.84
593.76	16.94
593.954	16.98
594.147	17.02
594.341	16.86
594.535	16.91
594.728	17.13
594.922	17.3
595.115	17.4
595.309	17.36
595.502	17.28
595.696	17.33
595.889	17.28
596.083	17.29
596.276	17.38
596.47	17.48
596.663	17.43
596.856	17.35
597.05	17.14
597.243	17
597.437	16.88
597.63	16.99
597.823	16.93
598.017	16.94
598.21	16.95
598.403	16.85
598.596	16.9
598.79	17.01
598.983	16.82
599.176	17.03
599.369	17
599.563	17.19
599.756	17.13
599.949	17.17
600.142	17.21
600.335	17.12
600.528	17.25
600.722	17.37
600.915	17.43
601.108	17.68
601.301	17.62
601.494	17.77
601.687	17.74
601.88	17.75
602.073	17.82
602.266	17.77
602.459	17.91
602.652	17.89
602.845	17.8
603.038	17.87
603.231	17.9
603.424	17.88
603.617	17.9
603.809	17.91
604.002	17.97
604.195	17.96
604.388	17.99
604.581	17.8
604.774	17.6
604.966	17.56
605.159	17.42
605.352	17.31
605.545	17.34
605.737	17.27
605.93	17.3
606.123	17.33
606.316	17.33
606.508	17.35
606.701	17.52
606.894	17.9
607.086	17.96
607.279	18.1
607.471	18.07
607.664	17.96
607.857	18.07
608.049	18.07
608.242	18.07
608.434	18.19
608.627	18.34
608.819	18.35
609.012	18.2
609.204	18.23
609.397	18.15
609.589	18.24
609.782	18.39
609.974	18.29
610.166	18.18
610.359	18.17
610.551	18.03
610.743	17.94
610.936	17.96
611.128	17.81
611.32	17.83
611.513	17.87
611.705	17.82
611.897	17.84
612.09	17.73
612.282	17.75
612.474	17.71
612.666	17.62
612.858	17.67
613.051	17.81
613.243	18
613.435	17.96
613.627	17.96
613.819	17.9
614.011	17.98
614.203	18.1
614.395	18.41
614.588	18.59
614.78	18.8
614.972	18.79
615.164	18.58
615.356	18.69
615.548	18.71
615.74	18.81
615.932	19.12
616.124	18.94
616.315	18.92
616.507	18.73
616.699	18.48
616.891	18.31
617.083	18.2
617.275	18.17
617.467	18.09
617.659	18
617.85	18.08
618.042	17.72
618.234	17.76
618.426	17.9
618.618	17.92
618.809	18.02
619.001	18.11
619.193	18
619.384	18.13
619.576	18.17
619.768	18.17
619.959	18.2
620.151	18.53
620.343	18.57
620.534	18.69
620.726	18.72
620.917	18.71
621.109	18.56
621.301	18.75
621.492	18.49
621.684	18.53
621.875	18.64
622.067	18.6
622.258	18.47
622.45	18.78
622.641	18.72
622.832	18.55
623.024	18.67
623.215	18.92
623.407	19.01
623.598	19.22
623.789	19.21
623.981	19.2
624.172	19.1
624.363	19.05
624.555	18.81
624.746	18.73
624.937	18.88
625.129	18.9
625.32	18.84
625.511	18.88
625.702	18.96
625.893	18.89
626.085	18.87
626.276	18.91
626.467	19.08
626.658	19.02
626.849	19.06
627.04	19.17
627.231	19.21
627.422	19.17
627.614	19.14
627.805	18.91
627.996	18.96
628.187	19.03
628.378	18.95
628.569	18.71
628.76	18.68
628.951	18.71
629.142	18.57
629.332	18.4
629.523	18.35
629.714	18.29
629.905	18.57
630.096	18.57
630.287	18.53
630.478	18.51
630.669	18.57
630.859	18.78
631.05	18.74
631.241	18.68
631.432	18.86
631.623	18.99
631.813	18.93
632.004	18.85
632.195	18.8
632.385	18.8
632.576	18.98
632.767	18.98
632.957	19.01
633.148	19.02
633.339	19.28
633.529	19.24
633.72	19.25
633.91	19.35
634.101	19.33
634.292	19.58
634.482	19.59
634.673	19.43
634.863	19.65
635.054	19.54
635.244	19.49
635.435	19.25
635.625	19.26
635.815	19.23
636.006	19.23
636.196	19.34
636.387	19.22
636.577	19.23
636.767	19.3
636.958	19.08
637.148	19.16
637.338	19.37
637.529	19.43
637.719	19.43
637.909	19.42
638.099	19.57
638.29	19.45
638.48	19.45
638.67	19.37
638.86	19.33
639.05	19.59
639.241	19.55
639.431	19.28
639.621	19.15
639.811	19.02
640.001	18.88
640.191	18.62
640.381	18.78
640.571	18.62
640.761	18.77
640.951	18.75
641.141	18.51
641.331	18.69
641.521	18.86
641.711	19.05
641.901	18.99
642.091	19.12
642.281	19.27
642.471	19.03
642.661	19.21
642.851	19.16
643.041	19.29
643.231	19.56
643.42	19.46
643.61	19.56
643.8	19.48
643.99	19.78
644.18	19.72
644.369	19.68
644.559	20
644.749	20.13
644.939	20.04
645.128	20.13
645.318	20.08
645.508	20.05
645.697	19.84
645.887	19.8
646.076	19.76
646.266	19.74
646.456	19.93
646.645	19.73
646.835	19.63
647.024	19.69
647.214	19.54
647.403	19.36
647.593	19.25
647.782	19.33
647.972	19.54
648.161	19.53
648.351	19.71
648.54	19.67
648.73	19.79
648.919	19.69
649.108	19.81
649.298	19.8
649.487	19.95
649.677	19.93
649.866	19.9
650.055	19.91
650.244	20
650.434	20.07
650.623	19.9
650.812	20.07
651.002	20.23
651.191	20.13
651.38	20.24
651.569	20.12
651.758	20.26
651.947	20.44
652.137	20.41
652.326	20.4
652.515	20.37
652.704	20.35
652.893	20.05
653.082	19.78
653.271	19.95
653.46	19.77
653.649	19.83
653.838	19.65
654.027	19.52
654.216	19.49
654.405	19.15
654.594	19.09
654.783	19.11
654.972	19.34
655.161	19.56
655.35	19.58
655.539	19.93
655.728	19.88
655.916	20
656.105	19.92
656.294	19.96
656.483	20.24
656.672	20.34
656.86	20.5
657.049	20.38
657.238	20.3
657.427	20.2
657.615	19.99
657.804	20.07
657.993	20.07
658.181	20.37
658.37	20.3
658.559	20.27
658.747	20.22
658.936	20.21
659.125	20.14
659.313	20.19
659.502	20.18
659.69	20.28
659.879	20.26
660.067	20.2
660.256	19.91
660.444	19.89
660.633	19.86
660.821	19.92
661.01	19.73
661.198	19.94
661.387	20.04
661.575	20.02
661.763	19.73
661.952	19.61
662.14	19.64
662.328	19.7
662.517	19.79
662.705	19.8
662.893	19.85
663.082	19.97
663.27	19.76
663.458	19.57
663.646	19.56
663.834	19.89
664.023	20.19
664.211	20.44
664.399	20.67
664.587	20.53
664.775	20.5
664.963	20.32
665.152	20.42
665.34	20.58
665.528	20.62
665.716	20.67
665.904	20.47
666.092	20.18
666.28	20.01
666.468	19.87
666.656	20.15
666.844	20.04
667.032	19.99
667.22	19.9
667.408	19.84
667.596	19.77
667.784	19.64
667.971	19.91
668.159	19.98
668.347	19.82
668.535	19.79
668.723	19.64
668.911	19.94
669.098	20.08
669.286	20.26
669.474	20.19
669.662	20.18
669.849	20.42
670.037	20.16
670.225	20.35
670.413	20.7
670.6	20.8
670.788	20.94
670.976	20.82
671.163	20.88
671.351	20.41
671.538	20.42
671.726	20.66
671.913	20.7
672.101	20.79
672.289	20.41
672.476	20.08
672.664	19.79
672.851	19.51
673.039	19.53
673.226	19.54
673.413	19.77
673.601	19.92
673.788	19.84
673.976	19.94
674.163	20.11
674.35	20.34
674.538	20.32
674.725	20.64
674.912	20.71
675.1	20.91
675.287	20.66
675.474	20.81
675.662	20.78
675.849	20.78
676.036	20.74
676.223	20.63
676.411	20.6
676.598	20.77
676.785	20.66
676.972	21.01
677.159	21.05
677.346	21.26
677.533	21.23
677.721	21.24
677.908	21.15
678.095	21.12
678.282	21.06
678.469	21.06
678.656	21.28
678.843	21.39
679.03	21.05
679.217	20.78
679.404	20.79
679.591	20.77
679.778	20.77
679.964	20.78
680.151	20.75
680.338	20.82
680.525	20.96
680.712	20.63
680.899	20.59
681.086	20.83
681.272	20.87
681.459	20.95
681.646	21.02
681.833	21.06
682.02	21.12
682.206	20.94
682.393	20.96
682.58	21.1
682.766	21.39
682.953	21.36
683.14	21.03
683.326	20.95
683.513	21.02
683.7	20.94
683.886	20.87
684.073	21.12
684.259	21.09
684.446	21.08
684.632	21.11
684.819	20.84
685.005	20.66
685.192	21.06
685.378	21.12
685.565	20.85
685.751	21.04
685.938	21.25
686.124	21.08
686.31	21.38
686.497	21.3
686.683	21.09
686.87	20.98
687.056	21.07
687.242	20.8
687.429	20.85
687.615	20.77
687.801	20.38
687.987	20.18
688.174	20.39
688.36	20.36
688.546	20.6
688.732	20.63
688.918	21.19
689.105	21.32
689.291	21.35
689.477	21.38
689.663	21.56
689.849	21.88
690.035	21.88
690.221	21.7
690.407	21.58
690.593	21.54
690.779	21.76
690.965	21.32
691.151	21.19
691.337	21.4
691.523	21.51
691.709	21.75
691.895	21.85
692.081	21.96
692.267	21.82
692.453	21.72
692.639	21.58
692.825	21.15
693.011	21.25
693.196	21.39
693.382	21.09
693.568	20.86
693.754	20.62
693.94	21.06
694.125	20.8
694.311	20.64
694.497	20.83
694.682	20.7
694.868	21.09
695.054	21.17
695.239	20.95
695.425	21.12
695.611	21.4
695.796	21.33
695.982	20.62
696.168	20.7
696.353	20.88
696.539	20.75
696.724	21
696.91	21.15
697.095	21.15
697.281	21.3
697.466	21.39
697.652	21.28
697.837	21.39
698.023	21.77
698.208	21.98
698.393	22.2
698.579	22.22
698.764	22.12
698.949	21.78
699.135	21.83
699.32	22.01
699.505	22.02
699.691	22.07
699.876	21.89
700.061	21.74
700.246	21.32
700.432	21.37
700.617	21.39
700.802	21.42
700.987	21.42
701.172	21.42
701.358	21.38
701.543	21.14
701.728	21.12
701.913	21.35
702.098	21.17
702.283	21.25
702.468	20.85
702.653	21.16
702.838	21.18
703.023	21.24
703.208	21.19
703.393	21.23
703.578	21.32
703.763	21.27
703.948	21.55
704.133	21.25
704.318	21.26
704.503	21.63
704.688	21.43
704.873	21.34
705.057	21.67
705.242	21.88
705.427	21.54
705.612	21.58
705.797	21.83
705.981	21.33
706.166	21.89
706.351	21.98
706.536	21.67
706.72	21.52
706.905	21.79
707.09	21.56
707.274	21.33
707.459	21.44
707.644	21.33
707.828	21.32
708.013	21.52
708.197	21.74
708.382	21.68
708.567	21.83
708.751	21.96
708.936	22.07
709.12	22.15
709.305	22.01
709.489	22.04
709.673	22.32
709.858	21.99
710.042	21.94
710.227	21.61
710.411	22.07
710.596	21.8
710.78	21.62
710.964	21.15
711.149	21.27
711.333	21.48
711.517	21.15
711.702	20.97
711.886	20.88
712.07	20.92
712.254	21.05
712.438	20.55
712.623	20.64
712.807	20.94
712.991	21.7
713.175	21.71
713.359	21.8
713.544	22.1
713.728	22.04
713.912	22.38
714.096	21.84
714.28	21.74
714.464	21.65
714.648	21.8
714.832	21.62
715.016	21.37
715.2	21.21
715.384	20.79
715.568	20.76
715.752	21.1
715.936	20.96
716.12	21.54
716.304	21.6
716.488	21.78
716.671	21.64
716.855	21.8
717.039	21.21
717.223	21.08
717.407	21.51
717.59	21.5
717.774	21.26
717.958	21.34
718.142	21.04
718.325	21.04
718.509	20.81
718.693	21.18
718.877	20.97
719.06	21.41
719.244	21.58
719.428	21.33
719.611	21.67
719.795	21.71
719.978	21.63
720.162	21.68
720.345	21.61
720.529	22.25
720.713	22.27
720.896	22.76
721.08	22.65
721.263	22.76
721.446	22.93
721.63	22.88
721.813	22.85
721.997	22.66
722.18	22.16
722.364	21.74
722.547	21.29
722.73	21.15
722.914	20.97
723.097	21.33
723.28	21.02
723.464	20.99
723.647	20.46
723.83	20.02
724.013	20.29
724.197	20.82
724.38	21.02
724.563	20.91
724.746	20.88
724.929	20.59
725.112	20.57
725.296	20.55
725.479	20.34
725.662	21.15
725.845	22.01
726.028	22.22
726.211	22.22
726.394	22.37
726.577	22.48
726.76	21.99
726.943	22.12
727.126	21.67
727.309	21.68
727.492	21.88
727.675	21.37
727.858	20.97
728.041	20.93
728.224	20.62
728.407	20.56
728.589	20.86
728.772	21.63
728.955	21.57
729.138	22.02
729.321	22.04
729.503	22.1
729.686	21.97
729.869	21.87
730.052	21.65
730.234	22.03
730.417	22.19
730.6	21.96
730.782	21.6
730.965	21.72
731.148	21.5
731.33	21.91
731.513	21.39
731.695	21.56
731.878	21.52
732.061	21.7
732.243	21.59
732.426	21.48
732.608	21.74
732.791	21.65
732.973	21.89
733.156	21.78
733.338	21.81
733.52	22.28
733.703	22.02
733.885	22.16
734.068	21.68
734.25	21.64
734.432	21.79
734.615	21.48
734.797	21.84
734.979	21.52
735.162	21.44
735.344	21.09
735.526	20.75
735.708	21.24
735.891	20.71
736.073	21.2
736.255	21.51
736.437	21.45
736.619	21.45
736.802	21.55
736.984	21.61
737.166	22.12
737.348	21.9
737.53	22.34
737.712	22.18
737.894	22.95
738.076	23.33
738.258	23.24
738.44	23.38
738.622	23.44
738.804	22.88
738.986	22.66
739.168	22.9
739.35	23.29
739.532	23.25
739.714	23.36
739.896	22.98
740.078	22.28
740.259	22.58
740.441	22.37
740.623	22.53
740.805	22.51
740.987	23
741.168	22.41
741.35	22.46
741.532	22.35
741.714	21.7
741.895	22.09
742.077	21.86
742.259	21.74
742.44	21.81
742.622	21.84
742.804	21.74
742.985	21.27
743.167	21.24
743.348	20.43
743.53	19.74
743.711	20.14
743.893	19.93
744.075	20.76
744.256	20.9
744.438	21.34
744.619	21.26
744.8	21.25
744.982	21.32
745.163	21.37
745.345	21.49
745.526	22.53
745.707	22.8
745.889	22.52
746.07	22.28
746.252	21.94
746.433	21.4
746.614	20.88
746.795	21.08
746.977	21.12
747.158	21.33
747.339	22.46
747.52	22.18
747.702	22.42
747.883	22.54
748.064	22.76
748.245	22.56
748.426	22.56
748.607	22.88
748.788	23.19
748.97	23.67
749.151	23.6
749.332	23.36
749.513	23.52
749.694	23.32
749.875	23.48
750.056	22.71
750.237	22.98
750.418	22.52
750.599	22.76
750.78	22.56
750.96	22.45
751.141	22.27
751.322	21.94
751.503	22.16
751.684	22.04
751.865	21.86
752.046	23.18
752.226	22.84
752.407	23.53
752.588	22.92
752.769	23.39
752.949	23.03
753.13	23.37
753.311	24.28
753.492	24.33
753.672	24.51
753.853	25.08
754.034	24.19
754.214	24.25
754.395	24.36
754.575	25.07
754.756	24.94
754.937	24.77
755.117	24.83
755.298	23.79
755.478	23.01
755.659	22.8
755.839	22.97
756.02	23.05
756.2	23.18
756.381	22.46
756.561	22.37
756.741	22.25
756.922	22.76
757.102	21.79
757.283	21.59
757.463	21.87
757.643	22.47
757.823	22.75
758.004	21.68
758.184	22.34
758.364	22.88
758.545	22.8
758.725	23.13
758.905	22.96
759.085	23.58
759.265	24.05
759.446	23.66
759.626	23.14
759.806	22.15
759.986	23.01
760.166	22.44
760.346	22.59
760.526	22.35
760.706	21.73
760.886	21.36
761.066	21.54
761.246	21.31
761.426	21.53
761.606	21.38
761.786	21.36
761.966	21.6
762.146	21.88
762.326	21.52
762.506	21.75
762.686	22.28
762.866	22.72
763.046	22.71
763.225	22.46
763.405	22.23
763.585	22.32
763.765	22.68
763.945	22.66
764.124	22.57
764.304	22.75
764.484	22.8
764.664	22.83
764.843	22.67
765.023	22.3
765.203	22.3
765.382	23.03
765.562	22.87
765.741	22.54
765.921	22.58
766.101	22.59
766.28	22.72
766.46	22.76
766.639	22.25
766.819	22.05
766.998	22.61
767.178	23.21
767.357	22.8
767.537	23.4
767.716	23.39
767.896	23.49
768.075	22.83
768.254	22.24
768.434	21.9
768.613	22.36
768.792	22.32
768.972	21.94
769.151	21.29
769.33	21.27
769.51	21.05
769.689	21.74
769.868	21.28
770.047	21.43
770.226	22.69
770.406	22.86
770.585	22.37
770.764	22.94
770.943	22.91
771.122	23.14
771.301	23.62
771.48	23.25
771.66	22.85
771.839	22.99
772.018	23.57
772.197	22.91
772.376	23.47
772.555	23.67
772.734	22.88
772.913	22.85
773.092	23.75
773.271	23.81
773.449	24.62
773.628	24.55
773.807	25.2
773.986	25.31
774.165	25
774.344	24.54
774.523	23.97
774.701	24.29
774.88	24.96
775.059	24.72
775.238	24.21
775.417	23.55
775.595	23.03
775.774	22.41
775.953	21.25
776.131	21.49
776.31	21.2
776.489	20.85
776.667	20.46
776.846	20.53
777.025	20.28
777.203	20.17
777.382	20.02
777.56	21.04
777.739	21.18
777.917	21.89
778.096	21.14
778.274	22.1
778.453	23.49
778.631	23.54
778.81	22.07
778.988	21.54
779.166	21.71
779.345	21.48
779.523	20.78
779.702	20.75
779.88	20.79
780.058	21.69
780.237	20.29
780.415	20.32
780.593	20.3
780.771	21.63
780.95	21.49
781.128	22.09
781.306	22.58
781.484	22.42
781.662	22.61
781.841	22.86
782.019	22.25
782.197	22.56
782.375	22.11
782.553	23.14
782.731	21.87
782.909	22.94
783.087	21.84
783.265	21.72
783.443	22.98
783.621	22.87
783.799	23.66
783.977	23.63
784.155	25.2
784.333	25.32
784.511	25.45
784.689	26.49
784.867	26.97
785.045	28.57
785.223	28.24
785.4	27.41
785.578	26.87
785.756	25.58
785.934	25.98
786.112	25.5
786.289	25.45
786.467	23.83
786.645	23.23
786.823	22.07
787	20.84
787.178	21.05
787.356	21.12
787.533	21.67
787.711	21.66
787.889	22.06
788.066	21.87
788.244	21.36
788.421	22.37
788.599	23.19
788.776	23.3
788.954	23.73
789.131	23.76
789.309	22.69
789.486	22.47
789.664	22.23
789.841	22.17
790.019	22.2
790.196	22.71
790.373	21.88
790.551	21.57
790.728	21.66
790.906	21.09
791.083	21.06
791.26	22.01
791.437	21.06
791.615	22.06
791.792	22
791.969	21.59
792.146	19.88
792.324	20.73
792.501	21.42
792.678	21.13
792.855	21.46
793.032	22.3
793.209	21.29
793.387	22.05
793.564	22.15
793.741	22.65
793.918	22.36
794.095	23.67
794.272	23.82
794.449	22.19
794.626	23.12
794.803	22.67
794.98	22.28
795.157	23.38
795.334	23.65
795.511	23.18
795.688	21.53
795.864	21.85
796.041	22.06
796.218	21.96
796.395	22.38
796.572	22.57
796.749	23.66
796.925	23.88
797.102	23.64
797.279	23.68
797.456	24.15
797.632	25.61
797.809	25.45
797.986	25.36
798.162	25.49
798.339	26.72
798.516	26.51
798.692	25.98
798.869	25.37
799.046	25.43
799.222	24.91
799.399	24.56
799.575	23.77
799.752	23.71
799.928	22.9
800.105	22.82
800.281	22.55
800.458	22.41
800.634	23.11
800.811	23.17
800.987	23.82
801.163	24.14
801.34	24.31
801.516	24.43
801.692	24.31
801.869	25.02
802.045	24.71
802.221	23.48
802.398	22.71
802.574	21.38
802.75	21.5
802.926	21.19
803.103	20.57
803.279	19.59
803.455	20.2
803.631	20.74
803.807	20.71
803.983	21.02
804.16	21.73
804.336	22.16
804.512	22.35
804.688	21.79
804.864	22.4
805.04	23.16
805.216	23.58
805.392	22.15
805.568	21.86
805.744	22.9
805.92	22.49
806.096	22.8
806.272	21.58
806.448	21.55
806.623	22.61
806.799	22.41
806.975	23.17
807.151	24.01
807.327	24.37
807.503	24.06
807.678	23.42
807.854	24.32
808.03	23.49
808.206	24.6
808.381	25.47
808.557	26
808.733	26.79
808.908	26.44
809.084	26.19
809.26	27.4
809.435	27.74
809.611	27.17
809.787	25.96
809.962	26.93
810.138	27.09
810.313	26.3
810.489	25.23
810.664	24.93
810.84	24.66
811.015	23.57
811.191	23.06
811.366	22.3
811.542	20.96
811.717	22.28
811.892	22.15
812.068	21.21
812.243	20.85
812.419	20.9
812.594	19.37
812.769	19.96
812.944	21.5
813.12	21.16
813.295	22.09
813.47	23.13
813.645	22.72
813.821	22.01
813.996	22.68
814.171	23.94
814.346	23.61
814.521	23.64
814.697	23.17
814.872	22.46
815.047	22.29
815.222	23.19
815.397	23.74
815.572	23.1
815.747	23.83
815.922	23.5
816.097	22.81
816.272	22.94
816.447	22.55
816.622	22.89
816.797	23.05
816.972	23.62
817.147	22.37
817.322	21.63
817.496	22.39
817.671	21.35
817.846	21.33
818.021	20.47
818.196	20.34
818.371	21.06
818.545	20.67
818.72	20.45
818.895	20.23
819.069	20.77
819.244	20.7
819.419	20.71
819.594	21.63
819.768	22.12
819.943	22.29
820.117	22.53
820.292	22.95
820.467	23.02
820.641	23.25
820.816	23.55
820.99	23.71
821.165	23.9
821.339	23.77
821.514	23.84
821.688	23.83
821.863	23.85
822.037	24.15
822.212	23.9
822.386	23.76
822.56	23.69
822.735	23.56
822.909	23.61
823.084	23.83
823.258	23.93
823.432	23.96
823.606	24.21
823.781	24.49
823.955	24.27
824.129	24.34
824.303	24.36
824.478	24.55
824.652	24.8
824.826	24.64
825	24.15
825.174	24.11
825.348	23.84
825.523	23.27
825.697	23.21
825.871	23.25
826.045	23.32
826.219	23.89
826.393	23.57
826.567	23.32
826.741	23.04
826.915	23.46
827.089	23.39
827.263	23.27
827.437	23.69
827.611	23.56
827.784	23.67
827.958	24.04
828.132	23.67
828.306	24.12
828.48	24.2
828.654	24.49
828.827	24.47
829.001	25.09
829.175	25.8
829.349	25.11
829.522	25.34
829.696	24.55
829.87	24.73
830.044	24.71
830.217	25.09
830.391	25.34
830.565	25.75
830.738	25.35
830.912	24.1
831.085	22.95
831.259	22.44
831.432	21.83
831.606	21.87
831.779	20.32
831.953	20.09
832.126	20.02
832.3	20.49
832.473	20.8
832.647	21.59
832.82	21.49
832.994	22.1
833.167	22.54
833.34	22.82
833.514	23.39
833.687	24.3
833.86	25.14
834.034	24.98
834.207	24.14
834.38	24.05
834.553	24.04
834.727	24.08
834.9	23.87
835.073	24
835.246	24.83
835.419	25.17
835.593	24.75
835.766	24.63
835.939	24.13
836.112	24.34
836.285	24.49
836.458	24.56
836.631	24.77
836.804	24.07
836.977	25.1
837.15	23.92
837.323	23.84
837.496	24.38
837.669	23.4
837.842	23.24
838.015	24.6
838.188	24.36
838.361	24.6
838.533	24.24
838.706	24.55
838.879	24.48
839.052	24.87
839.225	24.3
839.398	22.28
839.57	22.94
839.743	23.98
839.916	24.43
840.088	24.87
840.261	22.91
840.434	24
840.607	26.44
840.779	24.74
840.952	24.9
841.124	25.68
841.297	28.66
841.47	28.4
841.642	27.98
841.815	25.05
841.987	24.22
842.16	24.64
842.332	22.99
842.505	21.38
842.677	20.9
842.85	21.99
843.022	21.37
843.194	18.18
843.367	19.35
843.539	19.17
843.712	22.05
843.884	21.08
844.056	20.92
844.229	20.93
844.401	19.08
844.573	20.72
844.745	19.69
844.918	16.67
845.09	16.39
845.262	14
845.434	14.42
845.606	9.54
845.779	10.06
845.951	11.62
846.123	14.13
846.295	17.94
846.467	18.79
846.639	14.19
846.811	15.91
846.983	16.78
847.155	13.69
847.327	12.66
847.499	19.05
847.671	19.48
847.843	19.21
848.015	21.22
848.187	21.54
848.359	21.54
848.531	25.73
848.703	29.47
848.875	28.94
849.047	30.88
849.218	30.25
849.39	24.97
849.562	23.71
849.734	23.66
849.905	21.48
850.077	18.84
850.249	17.63
850.421	17.85
850.592	15.76
850.764	17.47
850.936	18.12
851.107	22.1
851.279	23.56
851.451	25.71
851.622	20.19
851.794	16.36
851.965	14.17
852.137	16.12
852.308	11.57
852.48	9.01
852.651	10.05
852.823	12.4
852.994	8.1
853.166	5.12
853.337	4.33
853.509	5.36
853.68	6.16
853.851	9.26
854.023	7.27
854.194	12.37
854.365	15.87
854.537	13.71
854.708	11.22
854.879	15.92
855.05	23.13
855.222	23.48
855.393	24.63
855.564	26.05
855.735	23.57
855.906	23.92
856.078	19.53
856.249	14.87
856.42	19.35
856.591	22.05
856.762	18.88
856.933	17.92
857.104	17.47
857.275	17.85
857.446	15.13
857.617	15.54
857.788	16.31
857.959	20.65
858.13	22.29
858.301	18.49
858.472	18.21
858.643	17.89
858.814	13.4
858.985	14.24
859.155	12.48
859.326	14.77
859.497	16.47
859.668	18.21
859.839	16.91
860.009	16.03
860.18	16.43
860.351	14.16
860.522	16.44
860.692	21.34
860.863	18.81
861.034	18.4
861.204	21.89
861.375	25.65
861.546	30.51
861.716	26.29
861.887	25.76
862.057	27.18
862.228	30.42
862.398	28.36
862.569	25.63
862.739	27.3
862.91	31.58
863.08	29.2
863.251	22.47
863.421	12.04
863.592	14.24
863.762	20.99
863.932	24.76
864.103	25.42
864.273	26.88
864.443	27.15
864.614	28.39
864.784	27.12
864.954	24.01
865.125	25.11
865.295	28.97
865.465	32.74
865.635	28.16
865.805	23.95
865.976	23.14
866.146	20.4
866.316	21.32
866.486	22.38
866.656	22.46
866.826	28.38
866.996	28.55
867.166	30.02
867.336	25.36
867.506	25.68
867.676	23.39
867.846	22.09
868.016	21.87
868.186	16.69
868.356	12.17
868.526	13.78
868.696	8.33
868.866	9.3
869.036	10.21
869.206	13.21
869.376	9.83
869.545	12.05
869.715	12.05
869.885	14.12
870.055	18.09
870.224	21.81
870.394	19.7
870.564	21.52
870.734	21.79
870.903	17.19
871.073	15.69
871.243	18.39
871.412	18.14
871.582	17.15
871.751	17.27
871.921	21.58
872.091	21.15
872.26	21.57
872.43	22.42
872.599	17.53
872.769	19.03
872.938	20.8
873.108	16.31
873.277	16.05
873.446	17.65
873.616	18.71
873.785	16.24
873.955	19.43
874.124	19.68
874.293	19.04
874.463	23.14
874.632	22.55
874.801	23.15
874.971	25.29
875.14	22.83
875.309	18.09
875.478	16.21
875.647	17.68
875.817	11.4
875.986	10.34
876.155	10.91
876.324	7.62
876.493	9.08
876.662	7.1
876.831	7.58
877	12.69
877.17	17.46
877.339	19.05
877.508	20.61
877.677	21.54
877.846	22.75
878.015	24.15
878.184	24.44
878.352	22.25
878.521	22.77
878.69	23.38
878.859	22.65
879.028	23.24
879.197	22.58
879.366	21.6
879.534	21.45
879.703	22.62
879.872	23.77
880.041	24.73
880.21	25.98
880.378	26.2
880.547	26.01
880.716	25.81
880.884	26.39
881.053	26.62
881.222	26.57
881.39	27.15
881.559	26.77
881.727	26.18
881.896	26.31
882.065	25.76
882.233	25.81
882.402	25.89
882.57	25.96
882.739	25.84
882.907	25.33
883.076	24.53
883.244	24.73
883.412	25.17
883.581	24.67
883.749	24.33
883.918	24.15
884.086	24.01
884.254	24.51
884.423	24.24
884.591	23.46
884.759	23.54
884.927	24.18
885.096	21.83
885.264	21.57
885.432	22.94
885.6	22.28
885.769	22.04
885.937	23.1
886.105	21.98
886.273	22.85
886.441	22.25
886.609	22.32
886.777	20.72
886.945	23.69
887.113	23.68
887.281	22.6
887.449	23.49
887.617	25.99
887.785	23.93
887.953	23.67
888.121	23.83
888.289	22.17
888.457	22.25
888.625	22.68
888.793	20.89
888.961	16.12
889.129	11.13
889.296	12.28
889.464	9.19
889.632	7.28
889.8	4.01
889.967	-2.88
890.135	-2.44
