Data from 2938502_Reflection_1.txt Node
Date: Tue Jun 16 23:14:00 EDT 2015
User: robert
Spectrometer: USB4E03002
Autoset integration time: false
Trigger mode: 4
Integration Time (sec): 1.000000E-1
Scans to average: 10
Electric dark correction enabled: true
Nonlinearity correction enabled: false
Boxcar width: 5
Stray light correction enabled: false
XAxis mode: Wavelengths
Stop averaging: false
Number of Pixels in Spectrum: 3648
>>>>>Begin Spectral Data<<<<<
177.575	663
177.794	-1.06
178.014	38.86
178.233	14.1
178.452	13.68
178.672	36.57
178.891	-35.92
179.11	-1300
179.33	1225.52
179.549	1230.24
179.768	278.47
179.987	-1278.75
180.207	177.52
180.426	113.88
180.645	133.25
180.864	112.89
181.084	127.83
181.303	140.03
181.522	124.88
181.741	82.26
181.96	90.67
182.179	57.24
182.398	36.23
182.618	40.65
182.837	44.37
183.056	47.83
183.275	42.48
183.494	39.82
183.713	39.22
183.932	41.92
184.151	48.06
184.37	44.65
184.589	44.36
184.808	51.61
185.027	58.3
185.246	51.38
185.465	26.8
185.684	27.13
185.903	36.57
186.122	27.67
186.341	15.64
186.56	-18.48
186.779	-229.41
186.998	-47.45
187.216	-24.27
187.435	7.59
187.654	-27.51
187.873	49.87
188.092	52.92
188.311	26.09
188.53	47.74
188.748	33.91
188.967	49.28
189.186	43.76
189.405	45.09
189.623	50.49
189.842	46.87
190.061	47.71
190.28	34.34
190.498	31.05
190.717	30.75
190.936	38.08
191.154	67.29
191.373	69.57
191.592	80.09
191.81	83.34
192.029	79.79
192.248	77.32
192.466	69.57
192.685	91.84
192.904	104.26
193.122	94.64
193.341	97.42
193.559	85.64
193.778	79.28
193.996	67.88
194.215	56.57
194.433	68.17
194.652	78
194.87	78.97
195.089	72.87
195.307	52.24
195.526	49.6
195.744	39.06
195.963	36.19
196.181	18.04
196.399	38.78
196.618	55.69
196.836	46.79
197.055	49.07
197.273	54.8
197.491	37.69
197.71	67.02
197.928	57.28
198.146	66.96
198.365	65.01
198.583	65.43
198.801	88.91
199.019	96.84
199.238	96.93
199.456	82.08
199.674	96.06
199.892	115.67
200.111	101.24
200.329	112.97
200.547	122.81
200.765	122.87
200.983	126.86
201.202	108.3
201.42	130.46
201.638	122.33
201.856	155.94
202.074	97.79
202.292	73.23
202.51	71.46
202.728	81.42
202.946	35.41
203.165	63.12
203.383	62.89
203.601	53.36
203.819	9.11
204.037	19.35
204.255	28.17
204.473	31.71
204.691	34.63
204.909	61.68
205.127	52.92
205.345	61.68
205.562	39.08
205.78	21.55
205.998	32.04
206.216	56.49
206.434	31.93
206.652	5.42
206.87	27.93
207.088	31.33
207.306	20.98
207.523	29.86
207.741	29.32
207.959	32.43
208.177	42.34
208.395	38.18
208.612	36.47
208.83	23.46
209.048	32.44
209.266	13.51
209.483	18.74
209.701	28.25
209.919	24.7
210.136	17.42
210.354	19.01
210.572	25.37
210.79	22.24
211.007	22.49
211.225	29.95
211.442	33.12
211.66	37.37
211.878	27.47
212.095	-16.39
212.313	-17.96
212.53	4.32
212.748	-3.52
212.966	-18.76
213.183	-3.01
213.401	9.83
213.618	5.78
213.836	-3.91
214.053	-7.05
214.271	-20.88
214.488	24.58
214.705	5.64
214.923	5.27
215.14	-1.71
215.358	24.09
215.575	28.84
215.793	19.9
216.01	28.69
216.227	24.9
216.445	26.84
216.662	33.37
216.879	40.24
217.097	35.75
217.314	25.05
217.531	22.16
217.749	6.89
217.966	11.6
218.183	1.03
218.4	-4.22
218.618	-2.45
218.835	1.08
219.052	10.03
219.269	-17.02
219.487	-6.13
219.704	0.33
219.921	-1.87
220.138	1.55
220.355	-8.82
220.572	10.58
220.79	22.83
221.007	18.31
221.224	19.48
221.441	11.73
221.658	23.31
221.875	22.14
222.092	25.54
222.309	27.03
222.526	30.82
222.743	25.99
222.96	27.23
223.177	26.54
223.394	29.3
223.611	28.02
223.828	28.42
224.045	24.35
224.262	26.1
224.479	26.92
224.696	24.43
224.913	22.52
225.13	23.84
225.347	18.98
225.564	15.12
225.781	15.91
225.997	17.67
226.214	18.04
226.431	17.72
226.648	17.38
226.865	15.75
227.082	15.78
227.298	15.66
227.515	15.39
227.732	15.91
227.949	16.31
228.165	14.98
228.382	13.52
228.599	12.97
228.816	13.82
229.032	14.17
229.249	15.53
229.466	15.33
229.682	14.36
229.899	13.83
230.116	13.01
230.332	12.51
230.549	13.7
230.765	14.79
230.982	14.7
231.199	12.69
231.415	11.56
231.632	9.09
231.848	9.75
232.065	11.47
232.281	13.63
232.498	14.99
232.714	15.82
232.931	15.04
233.147	16.32
233.364	14.61
233.58	15.06
233.797	14.31
234.013	15.89
234.23	16.47
234.446	16.78
234.662	14.95
234.879	13.42
235.095	13.04
235.312	13.24
235.528	10.14
235.744	11.32
235.961	12.07
236.177	11.51
236.393	9.26
236.61	8.97
236.826	6.16
237.042	4.93
237.258	6.44
237.475	4.78
237.691	5.74
237.907	7.53
238.123	8.85
238.339	8.17
238.556	9.26
238.772	11.34
238.988	11.48
239.204	12.87
239.42	14.32
239.636	13.35
239.853	14.42
240.069	14.57
240.285	14.07
240.501	13.89
240.717	14.01
240.933	13.13
241.149	12.46
241.365	12.6
241.581	11.88
241.797	11.93
242.013	12.09
242.229	12.21
242.445	11.97
242.661	11.99
242.877	11.58
243.093	11.61
243.309	11.76
243.525	11.96
243.741	11.28
243.957	11.64
244.173	11
244.388	10.97
244.604	10.22
244.82	10.19
245.036	10.39
245.252	10.33
245.468	10.13
245.683	10.31
245.899	10.46
246.115	10.76
246.331	10.76
246.547	10.95
246.762	10.87
246.978	11.09
247.194	10.75
247.409	10.95
247.625	11.21
247.841	11.15
248.057	11.59
248.272	10.6
248.488	9.86
248.703	9.98
248.919	9.4
249.135	10.04
249.35	10.23
249.566	10.95
249.782	10.23
249.997	10.51
250.213	9.78
250.428	9.46
250.644	10.19
250.859	9.95
251.075	9.38
251.29	9.13
251.506	8.53
251.721	7.98
251.937	7.5
252.152	7.35
252.368	6.64
252.583	7.51
252.798	6.98
253.014	6.74
253.229	6.67
253.445	8
253.66	8.09
253.875	7.84
254.091	8.92
254.306	9.65
254.521	10.21
254.737	10.35
254.952	10.19
255.167	9.28
255.383	8.33
255.598	8.12
255.813	7.32
256.028	7.47
256.244	7.59
256.459	7.02
256.674	6.65
256.889	6.76
257.104	6.83
257.32	7.12
257.535	7.4
257.75	7.94
257.965	8.06
258.18	8.29
258.395	8.25
258.61	8.47
258.826	8.58
259.041	8.46
259.256	8.6
259.471	8.82
259.686	8.45
259.901	8.65
260.116	8.4
260.331	8.6
260.546	8.63
260.761	8.8
260.976	8.69
261.191	8.64
261.406	8.79
261.621	7.71
261.836	7.59
262.05	8.93
262.265	9.15
262.48	9.67
262.695	10.37
262.91	10.52
263.125	10.42
263.34	10.74
263.555	10.86
263.769	10.59
263.984	11.4
264.199	10.89
264.414	9.63
264.629	8.73
264.843	8.54
265.058	8.01
265.273	7.62
265.488	8.21
265.702	8.14
265.917	8.02
266.132	8.08
266.346	7.75
266.561	7.89
266.776	8.01
266.99	8.5
267.205	8.13
267.42	8
267.634	7.83
267.849	7.17
268.063	7.02
268.278	6.81
268.492	7.34
268.707	7.8
268.922	7.92
269.136	7.98
269.351	8.5
269.565	8.8
269.78	8.67
269.994	8.51
270.209	8.63
270.423	8.78
270.637	9.06
270.852	9.05
271.066	8.6
271.281	8.36
271.495	8.41
271.709	7.58
271.924	7.68
272.138	8.18
272.353	8.32
272.567	8.32
272.781	7.99
272.996	7.99
273.21	7.22
273.424	7.2
273.638	7.13
273.853	7.01
274.067	7.84
274.281	7.32
274.495	7.25
274.71	7.24
274.924	6.95
275.138	6.76
275.352	6.4
275.566	6.82
275.781	6.89
275.995	7.52
276.209	7.68
276.423	6.94
276.637	7.61
276.851	6.99
277.065	6.77
277.279	7.41
277.493	7.99
277.707	7.95
277.921	7.76
278.135	8.11
278.349	7.76
278.563	7.88
278.777	8.59
278.991	8.29
279.205	8.64
279.419	8.82
279.633	8.68
279.847	8.58
280.061	8.77
280.275	8.72
280.489	8.92
280.703	9.12
280.917	9.06
281.131	8.83
281.344	8.62
281.558	8.7
281.772	8.49
281.986	8.41
282.2	7.62
282.414	7.35
282.627	7.86
282.841	7.62
283.055	7.15
283.269	7.07
283.482	7.06
283.696	6.9
283.91	6.45
284.123	7
284.337	6.8
284.551	7.15
284.764	7.41
284.978	7.19
285.192	6.84
285.405	7.11
285.619	7.1
285.833	7.09
286.046	7.53
286.26	7.78
286.473	7.45
286.687	7.41
286.9	7.76
287.114	7.56
287.327	7.79
287.541	7.75
287.754	7.35
287.968	7.41
288.181	7.29
288.395	7.43
288.608	7.18
288.822	7.24
289.035	7.2
289.248	6.93
289.462	7.11
289.675	7
289.889	7.43
290.102	7.34
290.315	7.05
290.529	7.13
290.742	6.46
290.955	6.79
291.169	6.77
291.382	7.07
291.595	7.31
291.808	7.34
292.022	7.49
292.235	7.36
292.448	7.49
292.661	7.83
292.875	8.02
293.088	8.47
293.301	8.22
293.514	8.29
293.727	8.25
293.94	7.84
294.153	7.93
294.367	7.89
294.58	7.96
294.793	8.14
295.006	8.15
295.219	8.08
295.432	8.1
295.645	8.19
295.858	8.05
296.071	8.14
296.284	8.46
296.497	8.39
296.71	8.68
296.923	8.58
297.136	8.49
297.349	8.48
297.562	8.14
297.775	7.83
297.988	7.9
298.201	7.86
298.414	7.99
298.626	7.77
298.839	7.48
299.052	7.18
299.265	7.17
299.478	7.5
299.691	7.37
299.903	7.66
300.116	8.11
300.329	8.03
300.542	8.33
300.755	8.23
300.967	8.47
301.18	8.95
301.393	8.82
301.605	8.84
301.818	8.95
302.031	8.94
302.243	8.96
302.456	9.24
302.669	9.41
302.881	9.35
303.094	9.5
303.307	9.42
303.519	9.44
303.732	9.25
303.944	9.41
304.157	9.38
304.37	9.58
304.582	9.5
304.795	8.97
305.007	9.37
305.22	9.06
305.432	8.93
305.645	8.65
305.857	8.28
306.069	8.62
306.282	8.52
306.494	8.57
306.707	8.51
306.919	8.91
307.132	9.35
307.344	9.15
307.556	9.42
307.769	9.03
307.981	9.09
308.193	9.47
308.406	9.44
308.618	9.71
308.83	9.67
309.043	9.73
309.255	9.7
309.467	9.82
309.679	9.62
309.892	9.42
310.104	9.76
310.316	9.75
310.528	9.4
310.74	9.41
310.953	9.08
311.165	8.85
311.377	9.31
311.589	9.4
311.801	9.05
312.013	8.78
312.225	8.55
312.437	8.49
312.649	8.85
312.862	9.01
313.074	9.03
313.286	9.15
313.498	9.32
313.71	9.03
313.922	9.02
314.134	9.09
314.346	8.9
314.558	9.27
314.77	9.36
314.982	9.32
315.193	8.97
315.405	8.78
315.617	8.83
315.829	8.85
316.041	8.7
316.253	8.07
316.465	7.82
316.677	8.23
316.888	8.2
317.1	8.06
317.312	8.14
317.524	8.22
317.736	8.53
317.947	8.25
318.159	7.91
318.371	7.64
318.583	8.31
318.794	8.35
319.006	8.71
319.218	8.65
319.43	8.87
319.641	8.55
319.853	9.17
320.064	8.8
320.276	9.12
320.488	9.4
320.699	9.74
320.911	9.45
321.123	9.86
321.334	10.11
321.546	10.48
321.757	9.97
321.969	9.76
322.18	9.46
322.392	9.56
322.603	9.96
322.815	10.13
323.026	10.06
323.238	10.08
323.449	9.55
323.661	9.46
323.872	9.34
324.083	9.37
324.295	9.68
324.506	9.87
324.718	10.08
324.929	9.84
325.14	9.23
325.352	9.29
325.563	8.95
325.774	9.25
325.986	9.12
326.197	9.36
326.408	9.65
326.62	9.39
326.831	9.67
327.042	9.13
327.253	9.03
327.464	9.56
327.676	9.51
327.887	10.02
328.098	9.81
328.309	9.63
328.52	9.81
328.732	10.25
328.943	10.47
329.154	10
329.365	10.51
329.576	10.56
329.787	10.62
329.998	10.61
330.209	10.47
330.42	10.57
330.631	10.75
330.842	10.38
331.053	9.65
331.264	9.62
331.475	9.62
331.686	9.58
331.897	9.17
332.108	9.27
332.319	9.29
332.53	9.21
332.741	9.6
332.952	9.29
333.163	9.21
333.374	9.01
333.585	8.88
333.795	8.58
334.006	8.47
334.217	9.05
334.428	8.96
334.639	8.72
334.849	8.6
335.06	8.41
335.271	8.63
335.482	8.43
335.692	9.05
335.903	9.32
336.114	9.49
336.325	9.82
336.535	9.72
336.746	9.65
336.957	10.04
337.167	10.21
337.378	10.15
337.589	10.04
337.799	10.47
338.01	10.32
338.22	10.4
338.431	10.25
338.642	10.01
338.852	9.92
339.063	10.03
339.273	10.02
339.484	10.19
339.694	9.91
339.905	10.06
340.115	9.68
340.326	9.84
340.536	9.75
340.746	9.88
340.957	9.94
341.167	9.97
341.378	9.89
341.588	9.55
341.799	9.57
342.009	9.63
342.219	9.31
342.43	9.58
342.64	9.17
342.85	9.04
343.061	9.17
343.271	9.11
343.481	8.81
343.691	8.95
343.902	8.96
344.112	8.74
344.322	8.53
344.532	8.82
344.743	8.55
344.953	8.89
345.163	9.05
345.373	9.2
345.583	8.94
345.793	9.14
346.004	9.15
346.214	8.94
346.424	9.09
346.634	9.34
346.844	9.24
347.054	9.3
347.264	9.06
347.474	8.89
347.684	8.49
347.894	8.45
348.104	8.51
348.314	7.95
348.524	8.13
348.734	7.89
348.944	7.59
349.154	7.61
349.364	7.58
349.574	7.32
349.784	7.14
349.994	7.07
350.204	7.06
350.413	6.9
350.623	7.11
350.833	7.03
351.043	7.29
351.253	7.34
351.463	7.27
351.672	7.07
351.882	7.31
352.092	7.66
352.302	7.74
352.511	7.97
352.721	8.22
352.931	8.4
353.141	8.48
353.35	8.18
353.56	8.53
353.77	8.67
353.979	8.56
354.189	8.67
354.399	8.81
354.608	8.68
354.818	8.41
355.027	8.34
355.237	8.41
355.447	8.33
355.656	8.55
355.866	8.28
356.075	8.1
356.285	8.38
356.494	8.36
356.704	8.04
356.913	8.24
357.123	8.23
357.332	7.88
357.542	7.73
357.751	7.75
357.96	7.67
358.17	7.63
358.379	7.51
358.589	7.55
358.798	7.42
359.007	7.38
359.217	7.48
359.426	7.6
359.635	7.66
359.845	7.43
360.054	7.46
360.263	7.35
360.472	7.14
360.682	7.18
360.891	7.09
361.1	7.11
361.309	6.93
361.519	6.96
361.728	7.09
361.937	7.3
362.146	7.52
362.355	7.76
362.564	7.75
362.774	7.9
362.983	7.83
363.192	7.88
363.401	7.78
363.61	8.18
363.819	8.25
364.028	8.14
364.237	7.81
364.446	7.49
364.655	7.17
364.864	7.29
365.073	7.53
365.282	7.73
365.491	7.64
365.7	7.75
365.909	7.72
366.118	7.27
366.327	7.18
366.536	7.17
366.745	7.49
366.954	7.49
367.162	7.55
367.371	7.59
367.58	7.6
367.789	7.82
367.998	7.82
368.207	7.55
368.415	7.55
368.624	7.57
368.833	7.64
369.042	7.68
369.25	7.62
369.459	7.36
369.668	7.27
369.877	7.21
370.085	6.97
370.294	7
370.503	7.31
370.711	7.24
370.92	7.21
371.129	7.02
371.337	6.77
371.546	6.76
371.754	6.57
371.963	6.44
372.171	6.19
372.38	6.25
372.589	5.85
372.797	5.5
373.006	5.79
373.214	6.04
373.423	6.36
373.631	6.71
373.84	6.9
374.048	7.21
374.256	7.25
374.465	7.05
374.673	7.13
374.882	7.46
375.09	7.35
375.298	7.14
375.507	6.75
375.715	6.7
375.923	6.6
376.132	6.42
376.34	6.22
376.548	6.22
376.757	6.63
376.965	6.61
377.173	6.6
377.381	6.68
377.59	6.64
377.798	6.89
378.006	6.85
378.214	6.87
378.423	6.87
378.631	6.8
378.839	7.02
379.047	6.92
379.255	6.95
379.463	6.75
379.671	6.89
379.879	6.85
380.088	6.71
380.296	6.6
380.504	6.58
380.712	6.7
380.92	6.99
381.128	6.86
381.336	6.97
381.544	6.83
381.752	6.98
381.96	6.89
382.168	6.87
382.376	6.97
382.584	7.15
382.791	6.88
382.999	6.65
383.207	6.59
383.415	6.67
383.623	6.49
383.831	6.35
384.039	6.48
384.247	6.64
384.454	6.72
384.662	6.55
384.87	6.46
385.078	6.47
385.285	6.59
385.493	6.57
385.701	6.21
385.909	6.34
386.116	6.24
386.324	5.99
386.532	5.68
386.739	5.54
386.947	5.65
387.155	5.56
387.362	5.67
387.57	5.63
387.778	5.39
387.985	5.64
388.193	5.63
388.4	5.95
388.608	6.01
388.816	6.1
389.023	6.23
389.231	6.29
389.438	6.37
389.646	6.46
389.853	6.44
390.061	6.49
390.268	6.4
390.475	6.45
390.683	6.25
390.89	6.12
391.098	6.1
391.305	5.95
391.512	6.09
391.72	5.84
391.927	5.85
392.135	5.82
392.342	6.03
392.549	6.07
392.756	5.87
392.964	5.82
393.171	5.85
393.378	5.81
393.586	5.97
393.793	5.72
394	6.05
394.207	6.03
394.414	6.09
394.622	5.96
394.829	6.03
395.036	6.03
395.243	6.22
395.45	6.16
395.657	6.24
395.864	6.15
396.072	6.31
396.279	6.16
396.486	5.91
396.693	5.85
396.9	5.74
397.107	5.62
397.314	5.73
397.521	5.77
397.728	5.77
397.935	5.59
398.142	5.56
398.349	5.34
398.556	5.38
398.763	5.26
398.97	5.27
399.177	5.28
399.383	4.96
399.59	4.9
399.797	4.84
400.004	4.84
400.211	5.13
400.418	5.28
400.625	5.06
400.831	5.08
401.038	5.22
401.245	5.15
401.452	5.27
401.658	5.34
401.865	5.26
402.072	5.12
402.279	5.07
402.485	5.09
402.692	4.96
402.899	5.15
403.105	5.23
403.312	5.34
403.519	5.35
403.725	5.21
403.932	5.19
404.138	5.18
404.345	5.14
404.552	5.31
404.758	5.14
404.965	5.13
405.171	5.02
405.378	5.05
405.584	4.96
405.791	4.91
405.997	4.96
406.204	5.07
406.41	5.26
406.617	5.36
406.823	5.09
407.029	5.01
407.236	5.06
407.442	5.17
407.649	4.97
407.855	5.02
408.061	5.09
408.268	5.21
408.474	5.23
408.68	4.9
408.887	4.94
409.093	5.37
409.299	5.37
409.505	5.28
409.712	5.33
409.918	5.34
410.124	5.33
410.33	5.42
410.537	5.17
410.743	5.35
410.949	5.58
411.155	5.59
411.361	5.27
411.567	5.36
411.773	5.47
411.98	5.44
412.186	5.45
412.392	5.32
412.598	5.27
412.804	5.49
413.01	5.42
413.216	5.45
413.422	5.36
413.628	5.42
413.834	5.44
414.04	5.36
414.246	5.37
414.452	5.3
414.658	5.42
414.864	5.37
415.07	5.28
415.275	5.24
415.481	5.18
415.687	5.1
415.893	5.13
416.099	5.08
416.305	5.08
416.511	5.06
416.716	5
416.922	4.96
417.128	4.93
417.334	4.88
417.539	4.87
417.745	5
417.951	5.04
418.157	4.87
418.362	4.92
418.568	4.93
418.774	4.88
418.979	4.84
419.185	4.77
419.391	4.82
419.596	4.82
419.802	4.75
420.008	4.61
420.213	5.3
420.419	5.38
420.624	5.34
420.83	5.34
421.035	5.38
421.241	5.47
421.446	5.49
421.652	5.48
421.857	5.48
422.063	5.53
422.268	5.54
422.474	4.89
422.679	4.91
422.885	4.94
423.09	4.97
423.295	5
423.501	4.96
423.706	5.04
423.911	5.03
424.117	4.96
424.322	4.9
424.527	4.91
424.733	4.93
424.938	4.95
425.143	4.86
425.349	4.83
425.554	4.79
425.759	4.8
425.964	4.73
426.169	4.7
426.375	4.91
426.58	4.93
426.785	4.87
426.99	4.67
427.195	4.71
427.4	4.75
427.605	4.69
427.811	4.6
428.016	4.62
428.221	4.61
428.426	4.63
428.631	4.52
428.836	4.62
429.041	4.57
429.246	4.64
429.451	4.54
429.656	4.46
429.861	4.41
430.066	4.51
430.271	4.51
430.476	4.46
430.681	4.45
430.886	4.48
431.09	4.55
431.295	4.63
431.5	4.59
431.705	4.6
431.91	4.75
432.115	4.84
432.32	4.79
432.524	4.69
432.729	4.69
432.934	4.69
433.139	4.66
433.343	4.46
433.548	4.48
433.753	4.47
433.958	4.52
434.162	4.39
434.367	4.34
434.572	4.36
434.776	4.57
434.981	4.61
435.186	4.56
435.39	4.63
435.595	4.7
435.799	4.6
436.004	4.64
436.209	4.57
436.413	4.58
436.618	4.59
436.822	4.54
437.027	4.44
437.231	4.31
437.436	4.4
437.64	4.36
437.845	4.23
438.049	4.28
438.253	4.31
438.458	4.31
438.662	4.34
438.867	4.34
439.071	4.41
439.275	4.39
439.48	4.49
439.684	4.47
439.888	4.45
440.093	4.54
440.297	4.48
440.501	4.43
440.706	4.43
440.91	4.46
441.114	4.41
441.318	4.34
441.523	4.34
441.727	4.35
441.931	4.31
442.135	4.38
442.339	4.29
442.543	4.41
442.748	4.53
442.952	4.59
443.156	4.52
443.36	4.57
443.564	4.6
443.768	4.56
443.972	4.54
444.176	4.54
444.38	4.52
444.584	4.57
444.788	4.47
444.992	4.38
445.196	4.34
445.4	4.36
445.604	4.32
445.808	4.27
446.012	4.3
446.216	4.35
446.42	4.3
446.624	4.21
446.828	4.24
447.032	4.24
447.235	4.22
447.439	4.31
447.643	4.32
447.847	4.44
448.051	4.4
448.254	4.47
448.458	4.29
448.662	4.33
448.866	4.42
449.069	4.42
449.273	4.43
449.477	4.48
449.681	4.4
449.884	4.35
450.088	4.13
450.292	4.17
450.495	4.12
450.699	4.12
450.902	4.09
451.106	4.12
451.31	4.06
451.513	4.09
451.717	3.99
451.92	3.94
452.124	3.91
452.327	3.97
452.531	4.03
452.734	3.92
452.938	4.03
453.141	4.12
453.345	4.14
453.548	4.27
453.752	4.28
453.955	4.27
454.158	4.24
454.362	4.17
454.565	4.25
454.769	4.15
454.972	4.22
455.175	4.12
455.379	4.1
455.582	4.01
455.785	3.95
455.988	3.94
456.192	4.06
456.395	4.1
456.598	4.3
456.801	4.16
457.005	4.19
457.208	4.16
457.411	4.26
457.614	4.22
457.817	4.29
458.021	4.25
458.224	4.25
458.427	4.19
458.63	4.24
458.833	4.2
459.036	4.26
459.239	4.27
459.442	4.28
459.645	4.24
459.848	4.27
460.051	4.22
460.254	4.23
460.457	4.29
460.66	4.34
460.863	4.22
461.066	4.23
461.269	4.28
461.472	4.26
461.675	4.31
461.878	4.32
462.081	4.19
462.284	4.3
462.486	4.34
462.689	4.28
462.892	4.25
463.095	4.39
463.298	4.37
463.5	4.2
463.703	4.31
463.906	4.18
464.109	4.26
464.311	4.38
464.514	4.31
464.717	4.3
464.92	4.3
465.122	4.3
465.325	4.17
465.528	4.15
465.73	4.24
465.933	4.26
466.135	4.37
466.338	4.27
466.541	4.3
466.743	4.24
466.946	4.29
467.148	4.29
467.351	4.29
467.553	4.25
467.756	4.28
467.958	4.33
468.161	4.39
468.363	4.4
468.566	4.45
468.768	4.43
468.971	4.44
469.173	4.43
469.375	4.58
469.578	4.64
469.78	4.72
469.983	4.67
470.185	4.69
470.387	4.54
470.59	4.45
470.792	4.48
470.994	4.49
471.196	4.54
471.399	4.5
471.601	4.45
471.803	4.41
472.005	4.36
472.208	4.32
472.41	4.27
472.612	4.25
472.814	4.31
473.016	4.21
473.218	4.24
473.421	4.3
473.623	4.27
473.825	4.18
474.027	4.18
474.229	4.28
474.431	4.37
474.633	4.3
474.835	4.35
475.037	4.4
475.239	4.47
475.441	4.38
475.643	4.33
475.845	4.4
476.047	4.35
476.249	4.37
476.451	4.3
476.653	4.38
476.855	4.44
477.057	4.41
477.258	4.3
477.46	4.25
477.662	4.3
477.864	4.32
478.066	4.35
478.268	4.35
478.469	4.35
478.671	4.4
478.873	4.3
479.075	4.24
479.276	4.18
479.478	4.23
479.68	4.2
479.882	4.23
480.083	4.19
480.285	4.14
480.487	4.18
480.688	4.16
480.89	4.14
481.091	4.15
481.293	4.21
481.495	4.24
481.696	4.26
481.898	4.29
482.099	4.24
482.301	4.25
482.502	4.25
482.704	4.24
482.905	4.24
483.107	4.25
483.308	4.25
483.51	4.24
483.711	4.24
483.913	4.21
484.114	4.21
484.315	4.23
484.517	4.22
484.718	4.24
484.92	4.25
485.121	4.22
485.322	4.2
485.524	4.21
485.725	4.23
485.926	4.23
486.127	4.28
486.329	4.23
486.53	4.23
486.731	4.22
486.932	4.14
487.134	4.14
487.335	4.17
487.536	4.16
487.737	4.13
487.938	4.12
488.139	4.12
488.341	4.1
488.542	4.17
488.743	4.17
488.944	4.19
489.145	4.25
489.346	4.24
489.547	4.23
489.748	4.24
489.949	4.22
490.15	4.2
490.351	4.2
490.552	4.17
490.753	4.15
490.954	4.16
491.155	4.14
491.356	4.15
491.557	4.14
491.758	4.16
491.959	4.19
492.159	4.28
492.36	4.3
492.561	4.32
492.762	4.33
492.963	4.32
493.164	4.26
493.364	4.29
493.565	4.3
493.766	4.32
493.967	4.3
494.167	4.31
494.368	4.26
494.569	4.22
494.769	4.26
494.97	4.29
495.171	4.29
495.371	4.31
495.572	4.3
495.773	4.29
495.973	4.36
496.174	4.36
496.375	4.35
496.575	4.49
496.776	4.54
496.976	4.52
497.177	4.53
497.377	4.51
497.578	4.59
497.778	4.56
497.979	4.61
498.179	4.56
498.38	4.62
498.58	4.61
498.78	4.44
498.981	4.43
499.181	4.43
499.382	4.4
499.582	4.57
499.782	4.6
499.983	4.68
500.183	4.6
500.383	4.65
500.584	4.67
500.784	4.73
500.984	4.8
501.184	4.83
501.385	4.87
501.585	4.92
501.785	4.74
501.985	4.73
502.185	4.79
502.386	4.86
502.586	4.86
502.786	4.88
502.986	4.86
503.186	4.84
503.386	4.79
503.586	4.85
503.786	4.84
503.987	4.89
504.187	4.87
504.387	4.81
504.587	4.76
504.787	4.85
504.987	4.89
505.187	4.9
505.387	4.87
505.587	4.85
505.786	4.85
505.986	4.92
506.186	4.98
506.386	5.06
506.586	5.14
506.786	5.23
506.986	5.17
507.186	5.1
507.386	5.07
507.585	5.11
507.785	5.18
507.985	5.21
508.185	5.17
508.384	5.23
508.584	5.22
508.784	5.12
508.984	5.11
509.183	5.11
509.383	5.08
509.583	5.06
509.782	5.13
509.982	5.13
510.182	5.17
510.381	5.19
510.581	5.19
510.781	5.13
510.98	5.11
511.18	5.15
511.379	5.16
511.579	5.2
511.778	5.23
511.978	5.21
512.177	5.24
512.377	5.21
512.576	5.2
512.776	5.14
512.975	5.24
513.175	5.35
513.374	5.37
513.573	5.37
513.773	5.42
513.972	5.51
514.172	5.51
514.371	5.61
514.57	5.56
514.77	5.51
514.969	5.58
515.168	5.56
515.367	5.62
515.567	5.57
515.766	5.65
515.965	5.62
516.164	5.66
516.364	5.63
516.563	5.63
516.762	5.65
516.961	5.73
517.16	5.74
517.359	5.74
517.559	5.72
517.758	5.72
517.957	5.74
518.156	5.78
518.355	5.73
518.554	5.76
518.753	5.76
518.952	5.78
519.151	5.73
519.35	5.71
519.549	5.71
519.748	5.7
519.947	5.78
520.146	5.77
520.345	5.77
520.544	5.78
520.743	5.84
520.942	5.79
521.141	5.85
521.339	5.97
521.538	6.03
521.737	6.12
521.936	6.19
522.135	6.16
522.333	6.23
522.532	6.21
522.731	6.3
522.93	6.3
523.129	6.33
523.327	6.32
523.526	6.3
523.725	6.34
523.923	6.28
524.122	6.23
524.321	6.31
524.519	6.29
524.718	6.27
524.917	6.26
525.115	6.27
525.314	6.29
525.512	6.34
525.711	6.38
525.909	6.4
526.108	6.43
526.306	6.54
526.505	6.53
526.703	6.55
526.902	6.59
527.1	6.61
527.299	6.65
527.497	6.66
527.696	6.65
527.894	6.65
528.092	6.66
528.291	6.67
528.489	6.65
528.688	6.64
528.886	6.66
529.084	6.64
529.283	6.64
529.481	6.62
529.679	6.65
529.877	6.66
530.076	6.68
530.274	6.71
530.472	6.76
530.67	6.78
530.869	6.87
531.067	6.87
531.265	6.93
531.463	6.96
531.661	6.96
531.859	7.01
532.057	7.02
532.255	7.05
532.454	7.07
532.652	7.07
532.85	7.09
533.048	7.06
533.246	7.12
533.444	7.17
533.642	7.26
533.84	7.32
534.038	7.34
534.236	7.44
534.434	7.48
534.632	7.49
534.83	7.49
535.027	7.61
535.225	7.65
535.423	7.61
535.621	7.59
535.819	7.59
536.017	7.58
536.215	7.52
536.412	7.54
536.61	7.56
536.808	7.57
537.006	7.66
537.203	7.57
537.401	7.58
537.599	7.69
537.797	7.8
537.994	7.81
538.192	7.94
538.39	8.05
538.587	8.04
538.785	8.05
538.983	8.15
539.18	8.19
539.378	8.22
539.575	8.28
539.773	8.3
539.97	8.29
540.168	8.32
540.366	8.33
540.563	8.39
540.761	8.46
540.958	8.48
541.155	8.5
541.353	8.5
541.55	8.52
541.748	8.56
541.945	8.59
542.143	8.67
542.34	8.7
542.537	8.72
542.735	8.72
542.932	8.76
543.129	8.73
543.327	8.75
543.524	8.9
543.721	8.94
543.919	8.98
544.116	9.02
544.313	9.07
544.51	9.07
544.708	9.07
544.905	9.1
545.102	9.12
545.299	9.32
545.496	9.33
545.693	9.28
545.891	9.33
546.088	9.33
546.285	9.42
546.482	9.38
546.679	9.53
546.876	9.54
547.073	9.61
547.27	9.69
547.467	9.66
547.664	9.76
547.861	9.88
548.058	9.88
548.255	9.96
548.452	9.96
548.649	10.12
548.846	10.1
549.043	10.31
549.24	10.38
549.437	10.39
549.633	10.47
549.83	10.52
550.027	10.5
550.224	10.67
550.421	10.78
550.618	10.87
550.814	10.98
551.011	11.03
551.208	11.06
551.405	11.07
551.601	11.17
551.798	11.22
551.995	11.27
552.191	11.3
552.388	11.29
552.585	11.26
552.781	11.35
552.978	11.31
553.175	11.36
553.371	11.44
553.568	11.54
553.764	11.53
553.961	11.59
554.157	11.69
554.354	11.83
554.55	12.05
554.747	12.23
554.943	12.22
555.14	12.21
555.336	12.33
555.533	12.32
555.729	12.35
555.926	12.42
556.122	12.56
556.318	12.65
556.515	12.73
556.711	12.77
556.907	12.73
557.104	12.77
557.3	12.97
557.496	13.06
557.693	13.21
557.889	13.35
558.085	13.36
558.281	13.31
558.478	13.2
558.674	13.33
558.87	13.32
559.066	13.41
559.262	13.43
559.459	13.49
559.655	13.53
559.851	13.55
560.047	13.64
560.243	13.78
560.439	13.83
560.635	14.03
560.831	14.11
561.027	14.2
561.223	14.31
561.419	14.48
561.615	14.57
561.811	14.68
562.007	14.87
562.203	14.86
562.399	15.05
562.595	15.2
562.791	15.28
562.987	15.33
563.183	15.48
563.379	15.59
563.575	15.62
563.771	15.72
563.966	15.77
564.162	15.77
564.358	15.86
564.554	15.87
564.75	15.92
564.945	15.94
565.141	15.97
565.337	15.99
565.533	15.98
565.728	16
565.924	16
566.12	15.99
566.315	16.05
566.511	16.09
566.707	16.08
566.902	16.11
567.098	16.11
567.293	16.15
567.489	16.17
567.684	16.19
567.88	16.4
568.076	16.55
568.271	16.71
568.467	16.77
568.662	16.85
568.858	16.97
569.053	17.07
569.248	17.27
569.444	17.43
569.639	17.58
569.835	17.78
570.03	17.77
570.225	17.84
570.421	17.97
570.616	18.07
570.812	18.12
571.007	18.09
571.202	18.12
571.397	18.13
571.593	18.11
571.788	18.22
571.983	18.25
572.178	18.4
572.374	18.44
572.569	18.42
572.764	18.53
572.959	18.65
573.154	18.8
573.35	18.96
573.545	19.06
573.74	19.13
573.935	19.05
574.13	19.08
574.325	19.05
574.52	19.15
574.715	19.2
574.91	19.21
575.105	19.18
575.3	19.29
575.495	19.26
575.69	19.28
575.885	19.39
576.08	19.49
576.275	19.53
576.47	19.56
576.665	19.62
576.86	19.69
577.055	19.66
577.25	19.86
577.444	19.92
577.639	20.01
577.834	19.98
578.029	19.95
578.224	20.05
578.418	20.26
578.613	20.39
578.808	20.45
579.003	20.46
579.197	20.6
579.392	20.56
579.587	20.54
579.781	20.66
579.976	20.76
580.171	20.81
580.365	20.79
580.56	20.75
580.755	20.87
580.949	20.82
581.144	20.95
581.338	20.95
581.533	20.98
581.727	21.08
581.922	21.09
582.116	21.24
582.311	21.44
582.505	21.52
582.7	21.45
582.894	21.6
583.089	21.66
583.283	21.66
583.478	21.58
583.672	21.65
583.866	21.68
584.061	21.54
584.255	21.58
584.449	21.57
584.644	21.55
584.838	21.88
585.032	21.73
585.226	21.72
585.421	21.84
585.615	21.94
585.809	22.09
586.003	22.11
586.198	22.25
586.392	22.12
586.586	22.18
586.78	22.15
586.974	21.88
587.168	21.78
587.363	21.86
587.557	21.75
587.751	21.8
587.945	21.76
588.139	21.77
588.333	21.86
588.527	21.97
588.721	21.89
588.915	22.05
589.109	22.2
589.303	22.39
589.497	22.38
589.691	22.55
589.885	22.69
590.079	22.76
590.273	22.78
590.466	22.75
590.66	22.79
590.854	22.86
591.048	22.93
591.242	22.9
591.436	22.9
591.629	22.99
591.823	22.96
592.017	22.96
592.211	22.94
592.404	22.93
592.598	23.12
592.792	23.27
592.986	23.38
593.179	23.31
593.373	23.34
593.567	23.41
593.76	23.4
593.954	23.46
594.147	23.49
594.341	23.63
594.535	23.66
594.728	23.63
594.922	23.57
595.115	23.52
595.309	23.56
595.502	23.53
595.696	23.43
595.889	23.4
596.083	23.45
596.276	23.46
596.47	23.33
596.663	23.42
596.856	23.33
597.05	23.25
597.243	23.17
597.437	23.09
597.63	23.16
597.823	23.2
598.017	23.22
598.21	23.24
598.403	23.27
598.596	23.13
598.79	23.06
598.983	23.16
599.176	23.33
599.369	23.37
599.563	23.65
599.756	23.64
599.949	23.72
600.142	23.83
600.335	23.83
600.528	23.7
600.722	23.94
600.915	23.75
601.108	23.67
601.301	23.66
601.494	23.78
601.687	23.64
601.88	23.84
602.073	23.91
602.266	23.81
602.459	23.88
602.652	23.9
602.845	24.01
603.038	24.2
603.231	24.21
603.424	24.16
603.617	24.15
603.809	24.15
604.002	24.08
604.195	24.03
604.388	24.13
604.581	24.08
604.774	24.18
604.966	24.1
605.159	24.03
605.352	24.11
605.545	24.19
605.737	24.27
605.93	24.35
606.123	24.42
606.316	24.36
606.508	24.38
606.701	24.38
606.894	24.32
607.086	24.18
607.279	24.31
607.471	24.4
607.664	24.4
607.857	24.39
608.049	24.43
608.242	24.4
608.434	24.37
608.627	24.36
608.819	24.35
609.012	24.36
609.204	24.46
609.397	24.49
609.589	24.29
609.782	24.37
609.974	24.47
610.166	24.38
610.359	24.34
610.551	24.52
610.743	24.65
610.936	24.66
611.128	24.76
611.32	25.09
611.513	25.09
611.705	25.25
611.897	25.17
612.09	25.13
612.282	25.19
612.474	25.21
612.666	25.08
612.858	24.91
613.051	25.01
613.243	24.97
613.435	24.71
613.627	24.78
613.819	24.82
614.011	24.86
614.203	24.82
614.395	24.86
614.588	24.98
614.78	24.92
614.972	24.94
615.164	24.92
615.356	25.05
615.548	24.88
615.74	24.73
615.932	24.72
616.124	24.87
616.315	24.75
616.507	24.72
616.699	24.66
616.891	24.77
617.083	25.02
617.275	24.99
617.467	25.02
617.659	25.25
617.85	25.32
618.042	25.45
618.234	25.32
618.426	25.44
618.618	25.48
618.809	25.47
619.001	25.37
619.193	25.29
619.384	25.51
619.576	25.54
619.768	25.36
619.959	25.49
620.151	25.45
620.343	25.43
620.534	25.44
620.726	25.58
620.917	25.72
621.109	25.87
621.301	25.81
621.492	25.61
621.684	25.51
621.875	25.62
622.067	25.58
622.258	25.66
622.45	25.73
622.641	25.6
622.832	25.45
623.024	25.3
623.215	25.26
623.407	25.34
623.598	25.3
623.789	25.32
623.981	25.38
624.172	25.35
624.363	25.26
624.555	25.16
624.746	25.35
624.937	25.43
625.129	25.41
625.32	25.42
625.511	25.37
625.702	25.46
625.893	25.51
626.085	25.37
626.276	25.37
626.467	25.41
626.658	25.36
626.849	25.29
627.04	25.37
627.231	25.44
627.422	25.49
627.614	25.34
627.805	25.27
627.996	25.16
628.187	25.31
628.378	25.37
628.569	25.47
628.76	25.59
628.951	25.63
629.142	25.56
629.332	25.72
629.523	25.68
629.714	25.93
629.905	26.14
630.096	26.21
630.287	26.42
630.478	26.44
630.669	26.36
630.859	26.38
631.05	26.52
631.241	26.5
631.432	26.32
631.623	26.4
631.813	26.31
632.004	26.15
632.195	26.11
632.385	25.96
632.576	26.02
632.767	25.96
632.957	25.87
633.148	25.89
633.339	25.77
633.529	25.81
633.72	25.73
633.91	25.76
634.101	25.82
634.292	25.97
634.482	25.89
634.673	25.72
634.863	25.75
635.054	25.97
635.244	25.89
635.435	25.96
635.625	25.94
635.815	25.97
636.006	25.9
636.196	25.99
636.387	25.84
636.577	25.87
636.767	25.94
636.958	25.91
637.148	25.76
637.338	25.66
637.529	25.79
637.719	25.84
637.909	25.96
638.099	25.94
638.29	25.77
638.48	25.75
638.67	25.5
638.86	25.32
639.05	25.39
639.241	25.53
639.431	25.52
639.621	25.32
639.811	25.3
640.001	25.15
640.191	25.3
640.381	25.39
640.571	25.2
640.761	25.4
640.951	25.77
641.141	25.79
641.331	25.79
641.521	25.84
641.711	25.91
641.901	26.08
642.091	26.34
642.281	26.28
642.471	26.22
642.661	26.4
642.851	26.51
643.041	26.39
643.231	26.44
643.42	26.53
643.61	26.66
643.8	26.74
643.99	26.69
644.18	26.47
644.369	26.49
644.559	26.53
644.749	26.72
644.939	26.56
645.128	26.62
645.318	26.39
645.508	26.3
645.697	26.17
645.887	26.2
646.076	26.22
646.266	26.26
646.456	26.29
646.645	26.21
646.835	26.15
647.024	26.43
647.214	26.29
647.403	26.47
647.593	26.43
647.782	26.48
647.972	26.56
648.161	26.46
648.351	26.75
648.54	26.8
648.73	26.9
648.919	26.83
649.108	26.56
649.298	26.63
649.487	26.87
649.677	26.88
649.866	27
650.055	26.83
650.244	26.83
650.434	26.6
650.623	26.62
650.812	26.54
651.002	26.62
651.191	26.83
651.38	26.89
651.569	26.79
651.758	26.61
651.947	26.42
652.137	26.27
652.326	26.4
652.515	26.45
652.704	26.43
652.893	26.64
653.082	26.54
653.271	26.46
653.46	26.29
653.649	26.24
653.838	26.32
654.027	26.44
654.216	26.82
654.405	26.93
654.594	26.91
654.783	27.03
654.972	26.85
655.161	27.07
655.35	27.21
655.539	27.48
655.728	27.39
655.916	27.49
656.105	27.48
656.294	27.43
656.483	27.37
656.672	27.32
656.86	27.36
657.049	27.29
657.238	27.19
657.427	27.02
657.615	26.95
657.804	26.85
657.993	26.91
658.181	26.88
658.37	26.95
658.559	27.03
658.747	27.25
658.936	27.08
659.125	27.33
659.313	27.22
659.502	27.35
659.69	27.42
659.879	27.65
660.067	27.51
660.256	27.49
660.444	27.27
660.633	27.05
660.821	26.82
661.01	26.89
661.198	26.71
661.387	27.01
661.575	26.9
661.763	26.57
661.952	26.22
662.14	26.23
662.328	26.17
662.517	26.37
662.705	26.32
662.893	26.36
663.082	26.18
663.27	26.26
663.458	26.06
663.646	26.02
663.834	26.16
664.023	26.37
664.211	26.73
664.399	26.63
664.587	26.54
664.775	26.7
664.963	26.75
665.152	26.76
665.34	26.52
665.528	26.45
665.716	26.48
665.904	26.62
666.092	26.51
666.28	26.31
666.468	26.64
666.656	26.79
666.844	26.59
667.032	26.21
667.22	26.18
667.408	26.22
667.596	26.13
667.784	26.22
667.971	26.39
668.159	26.38
668.347	26.31
668.535	26.26
668.723	26.21
668.911	26.33
669.098	26.75
669.286	26.82
669.474	26.86
669.662	26.98
669.849	27
670.037	26.99
670.225	27.32
670.413	27.25
670.6	27.23
670.788	27.25
670.976	27.41
671.163	27.48
671.351	27.71
671.538	27.85
671.726	27.99
671.913	27.95
672.101	27.64
672.289	27.59
672.476	27.69
672.664	27.78
672.851	27.77
673.039	27.46
673.226	27.26
673.413	27.01
673.601	26.9
673.788	26.61
673.976	26.67
674.163	26.86
674.35	26.9
674.538	26.73
674.725	26.87
674.912	26.83
675.1	26.99
675.287	26.9
675.474	27.02
675.662	26.98
675.849	27.31
676.036	27.45
676.223	27.46
676.411	27.39
676.598	27.57
676.785	27.46
676.972	27.26
677.159	27.19
677.346	27.58
677.533	27.64
677.721	27.72
677.908	27.45
678.095	27.38
678.282	27.24
678.469	27.34
678.656	27.63
678.843	27.48
679.03	27.59
679.217	27.63
679.404	27.35
679.591	27.3
679.778	27.48
679.964	27.75
680.151	27.74
680.338	27.76
680.525	27.66
680.712	27.36
680.899	27.56
681.086	27.63
681.272	27.62
681.459	27.61
681.646	27.79
681.833	27.94
682.02	27.87
682.206	27.77
682.393	27.99
682.58	28.19
682.766	28.44
682.953	28.41
683.14	28.3
683.326	28.56
683.513	29.01
683.7	28.78
683.886	28.64
684.073	28.77
684.259	29.02
684.446	28.91
684.632	28.63
684.819	28.34
685.005	28.22
685.192	28.25
685.378	28.12
685.565	27.62
685.751	27.58
685.938	27.36
686.124	26.99
686.31	26.69
686.497	26.64
686.683	26.74
686.87	26.84
687.056	26.8
687.242	26.85
687.429	26.88
687.615	27.39
687.801	27.5
687.987	27.76
688.174	28.01
688.36	28.18
688.546	28.02
688.732	27.9
688.918	27.78
689.105	27.75
689.291	27.69
689.477	27.38
689.663	26.86
689.849	27.04
690.035	26.96
690.221	27.1
690.407	27.12
690.593	27.6
690.779	27.51
690.965	27.51
691.151	27.59
691.337	27.43
691.523	27.6
691.709	27.89
691.895	27.63
692.081	27.67
692.267	27.36
692.453	27.24
692.639	26.98
692.825	27.12
693.011	27.45
693.196	27.41
693.382	27.76
693.568	27.91
693.754	27.76
693.94	27.84
694.125	27.55
694.311	27.76
694.497	27.8
694.682	27.79
694.868	27.59
695.054	27.77
695.239	27.88
695.425	27.86
695.611	27.71
695.796	27.79
695.982	27.85
696.168	28.1
696.353	28.17
696.539	28.24
696.724	28.04
696.91	28.26
697.095	27.83
697.281	27.75
697.466	27.65
697.652	27.51
697.837	27.38
698.023	27.44
698.208	27.39
698.393	27.28
698.579	27.22
698.764	27.43
698.949	27.36
699.135	27.46
699.32	27.39
699.505	27.46
699.691	27.82
699.876	28.22
700.061	28.27
700.246	28.25
700.432	28.24
700.617	28.32
700.802	28.07
700.987	28.08
701.172	28.1
701.358	28.45
701.543	28.5
701.728	28.33
701.913	27.69
702.098	27.45
702.283	27.23
702.468	27.11
702.653	27.06
702.838	27.45
703.023	27.42
703.208	27.63
703.393	27.2
703.578	27.08
703.763	27.16
703.948	27.43
704.133	27.83
704.318	28.17
704.503	28.45
704.688	28.29
704.873	28.28
705.057	28.58
705.242	28.54
705.427	28.54
705.612	28.57
705.797	28.51
705.981	28.58
706.166	27.98
706.351	27.76
706.536	27.63
706.72	27.53
706.905	27.1
707.09	27.01
707.274	27.04
707.459	27.14
707.644	27.06
707.828	27.24
708.013	27.15
708.197	27.64
708.382	27.7
708.567	27.68
708.751	27.7
708.936	27.99
709.12	27.98
709.305	28.14
709.489	28.15
709.673	28.38
709.858	28.06
710.042	28.27
710.227	28.02
710.411	28.26
710.596	28.15
710.78	28.55
710.964	28.36
711.149	27.98
711.333	27.96
711.517	28.06
711.702	27.94
711.886	27.69
712.07	27.4
712.254	27.42
712.438	27.54
712.623	27.96
712.807	27.79
712.991	28.05
713.175	28.26
713.359	27.77
713.544	27.61
713.728	27.32
713.912	27.71
714.096	27.9
714.28	27.71
714.464	27.5
714.648	27.31
714.832	26.98
715.016	26.83
715.2	26.66
715.384	27.23
715.568	27.36
715.752	27.45
715.936	27.18
716.12	27.16
716.304	27.36
716.488	27.25
716.671	26.96
716.855	27.49
717.039	27.6
717.223	28.22
717.407	27.84
717.59	27.62
717.774	27.51
717.958	27.78
718.142	27.61
718.325	27.35
718.509	27.34
718.693	27.47
718.877	27.47
719.06	27.24
719.244	26.93
719.428	26.97
719.611	27.22
719.795	27.65
719.978	27.64
720.162	27.75
720.345	27.94
720.529	27.72
720.713	27.52
720.896	27.39
721.08	27.29
721.263	27.12
721.446	27.01
721.63	26.92
721.813	26.76
721.997	26.19
722.18	26.46
722.364	26.57
722.547	26.74
722.73	27.36
722.914	27.1
723.097	27.72
723.28	28.45
723.464	28.6
723.647	28.55
723.83	28.52
724.013	29.06
724.197	28.61
724.38	28.87
724.563	28.71
724.746	28.76
724.929	28.89
725.112	28.77
725.296	27.87
725.479	28.27
725.662	28.52
725.845	28.41
726.028	28.64
726.211	28.89
726.394	28.17
726.577	28.3
726.76	27.84
726.943	27.92
727.126	27.66
727.309	27.72
727.492	27.41
727.675	27.47
727.858	27.66
728.041	27.24
728.224	27.06
728.407	27.37
728.589	27.43
728.772	27.74
728.955	27.76
729.138	28.09
729.321	28.25
729.503	28.15
729.686	27.87
729.869	28.22
730.052	28.6
730.234	28.98
730.417	29.44
730.6	29.21
730.782	29.12
730.965	28.82
731.148	28.56
731.33	28.4
731.513	28.53
731.695	28.97
731.878	28.85
732.061	28.71
732.243	28.68
732.426	28.33
732.608	28.31
732.791	28.26
732.973	28.33
733.156	28.3
733.338	28.23
733.52	28.33
733.703	28.37
733.885	28.27
734.068	28.08
734.25	28.01
734.432	28.15
734.615	28.58
734.797	28.8
734.979	29.35
735.162	29.57
735.344	29.95
735.526	29.27
735.708	29.18
735.891	28.98
736.073	28.97
736.255	28.82
736.437	28.76
736.619	28.29
736.802	28.41
736.984	28.32
737.166	27.92
737.348	27.32
737.53	27.61
737.712	27.28
737.894	27.25
738.076	27.71
738.258	28
738.44	27.98
738.622	27.97
738.804	28.08
738.986	27.77
739.168	28.41
739.35	28.54
739.532	28.69
739.714	28.91
739.896	28.96
740.078	28.57
740.259	27.96
740.441	27.71
740.623	27.82
740.805	27.8
740.987	28.09
741.168	27.53
741.35	27.71
741.532	27.29
741.714	27.11
741.895	26.98
742.077	27.22
742.259	27.37
742.44	27.56
742.622	28.28
742.804	27.97
742.985	27.53
743.167	27.61
743.348	27.8
743.53	27.39
743.711	27.19
743.893	27.34
744.075	27.42
744.256	27.33
744.438	27.3
744.619	26.21
744.8	25.98
744.982	25.38
745.163	25.34
745.345	25.32
745.526	26.77
745.707	27.24
745.889	27.44
746.07	27.94
746.252	28.27
746.433	28.23
746.614	29.06
746.795	29.09
746.977	29.52
747.158	29.18
747.339	28.84
747.52	27.65
747.702	27.03
747.883	27.49
748.064	26.32
748.245	26.4
748.426	25.99
748.607	25.66
748.788	26.23
748.97	26.49
749.151	26.16
749.332	25.99
749.513	26.4
749.694	26.02
749.875	25.16
750.056	26.25
750.237	25.52
750.418	25.71
750.599	26.19
750.78	25.98
750.96	25.86
751.141	26.98
751.322	27.51
751.503	27.8
751.684	28.93
751.865	29.04
752.046	27.91
752.226	29.31
752.407	29.65
752.588	29.07
752.769	28.45
752.949	28.54
753.13	28.33
753.311	28.42
753.492	28.29
753.672	29
753.853	29.07
754.034	29.04
754.214	27.78
754.395	27.34
754.575	28.17
754.756	28.13
754.937	28.16
755.117	27.54
755.298	27.29
755.478	26.89
755.659	25.46
755.839	25.53
756.02	25.39
756.2	25.87
756.381	26.24
756.561	25.85
756.741	26.66
756.922	26.29
757.102	26.88
757.283	26.94
757.463	28.04
757.643	28.16
757.823	27.75
758.004	28.39
758.184	28.47
758.364	28.32
758.545	27.66
758.725	27.59
758.905	27.32
759.085	27.23
759.265	27.91
759.446	27.21
759.626	27.33
759.806	27.14
759.986	26.86
760.166	27.17
760.346	26.74
760.526	27.24
760.706	26.67
760.886	27.58
761.066	27.25
761.246	27.27
761.426	27.73
761.606	27.62
761.786	28.28
761.966	28.62
762.146	27.92
762.326	28.51
762.506	28
762.686	28.13
762.866	28.22
763.046	28.45
763.225	27.7
763.405	27.27
763.585	26.96
763.765	26.78
763.945	26.18
764.124	26.36
764.304	26.2
764.484	26.98
764.664	26.87
764.843	26.56
765.023	27.29
765.203	27.4
765.382	27.41
765.562	27.9
765.741	27.5
765.921	28.17
766.101	28.37
766.28	28.57
766.46	28.38
766.639	28.62
766.819	28.23
766.998	26.99
767.178	27.47
767.357	27.43
767.537	27.92
767.716	28.53
767.896	28.87
768.075	29.64
768.254	29.34
768.434	28.74
768.613	28.05
768.792	28.3
768.972	28.46
769.151	27.85
769.33	28.01
769.51	28.23
769.689	28.25
769.868	27.71
770.047	26.79
770.226	26.44
770.406	26.79
770.585	27.67
770.764	27.22
770.943	27.49
771.122	28.38
771.301	28.94
771.48	28.94
771.66	28.5
771.839	28.5
772.018	28.45
772.197	28.9
772.376	27.97
772.555	28.41
772.734	29.05
772.913	29.67
773.092	29.59
773.271	28.66
773.449	27.87
773.628	28.31
773.807	28.89
773.986	28.46
774.165	29.19
774.344	30.63
774.523	29.39
774.701	29.44
774.88	28.19
775.059	27.3
775.238	27.53
775.417	27.44
775.595	27.33
775.774	26.42
775.953	27.31
776.131	27.22
776.31	26.17
776.489	26.16
776.667	26.46
776.846	26.8
777.025	26.75
777.203	27.01
777.382	27.51
777.56	28.43
777.739	28.81
777.917	28.46
778.096	27.47
778.274	28.04
778.453	27.66
778.631	26.8
778.81	26.74
778.988	27.68
779.166	28.15
779.345	27.82
779.523	26.48
779.702	26.6
779.88	26.48
780.058	26.96
780.237	27.44
780.415	28.87
780.593	29.27
780.771	28.87
780.95	28.76
781.128	27.54
781.306	27.87
781.484	28.54
781.662	28.64
781.841	28.55
782.019	28.47
782.197	28.12
782.375	27.23
782.553	27.82
782.731	28.26
782.909	28.5
783.087	29
783.265	28.27
783.443	27.89
783.621	27.66
783.799	27.66
783.977	27.73
784.155	27.21
784.333	27.7
784.511	27.41
784.689	28.19
784.867	26.96
785.045	27.67
785.223	27.5
785.4	28.28
785.578	27.86
785.756	27.65
785.934	27.05
786.112	27.07
786.289	26.58
786.467	26.56
786.645	26.31
786.823	26.94
787	27.02
787.178	27.56
787.356	27.19
787.533	27.95
787.711	28.15
787.889	28.77
788.066	28.17
788.244	28.27
788.421	27.96
788.599	27.79
788.776	27.68
788.954	26.29
789.131	26.01
789.309	26.07
789.486	25.15
789.664	25.5
789.841	26.06
790.019	26.77
790.196	27.2
790.373	27.2
790.551	27.46
790.728	27.72
790.906	29.16
791.083	30.12
791.26	29.58
791.437	29.68
791.615	29.11
791.792	28.32
791.969	28.24
792.146	28.52
792.324	28.56
792.501	29.07
792.678	28.3
792.855	27.68
793.032	26.75
793.209	27.57
793.387	27.61
793.564	27.6
793.741	26.87
793.918	27.36
794.095	27.13
794.272	27.5
794.449	27.05
794.626	27.8
794.803	28.73
794.98	28.72
795.157	28.58
795.334	29.36
795.511	29.96
795.688	30.37
795.864	29.74
796.041	29.49
796.218	29.72
796.395	30.06
796.572	29.67
796.749	29.41
796.925	29.7
797.102	29.65
797.279	29.02
797.456	28.11
797.632	28.19
797.809	27.76
797.986	28.1
798.162	27.6
798.339	27.54
798.516	27.92
798.692	27.51
798.869	27.44
799.046	27.18
799.222	26.58
799.399	27.52
799.575	27.61
799.752	28.55
799.928	28.31
800.105	28.33
800.281	27.3
800.458	26.98
800.634	26.5
800.811	26.01
800.987	25.74
801.163	27.42
801.34	27.07
801.516	26.3
801.692	26.52
801.869	26.35
802.045	26.63
802.221	26.39
802.398	27.64
802.574	27.39
802.75	28.77
802.926	29.23
803.103	29.65
803.279	29.5
803.455	30.12
803.631	29.38
803.807	29.8
803.983	29.98
804.16	30.93
804.336	29.87
804.512	29.71
804.688	29.23
804.864	29.41
805.04	27.64
805.216	27.07
805.392	28.53
805.568	29.59
805.744	28.84
805.92	27.45
806.096	26.17
806.272	26.61
806.448	27.19
806.623	26.3
806.799	25.58
806.975	26.9
807.151	27.78
807.327	25.53
807.503	25.46
807.678	26.02
807.854	27.29
808.03	28.16
808.206	28.22
808.381	28.93
808.557	28.95
808.733	29.11
808.908	29.24
809.084	29.03
809.26	30.74
809.435	29.23
809.611	28.68
809.787	29.11
809.962	28.7
810.138	29.13
810.313	30.17
810.489	30.29
810.664	31.23
810.84	30.11
811.015	30
811.191	28.72
811.366	30
811.542	29.36
811.717	28.58
811.892	29.86
812.068	29.67
812.243	27.8
812.419	29.03
812.594	28.36
812.769	28.75
812.944	28.29
813.12	28.72
813.295	27.86
813.47	28.19
813.645	28.44
813.821	28.85
813.996	27.73
814.171	27.6
814.346	25.84
814.521	25.84
814.697	26.54
814.872	27.03
815.047	27.28
815.222	28.01
815.397	28.68
815.572	29.43
815.747	27.88
815.922	30.51
816.097	31
816.272	31.77
816.447	31.73
816.622	30.91
816.797	31.29
816.972	30.22
817.147	29.5
817.322	29.32
817.496	27.96
817.671	28.7
817.846	26.76
818.021	27.85
818.196	26.9
818.371	27.43
818.545	27.32
818.72	26.64
818.895	27
819.069	27.33
819.244	27.79
819.419	27.74
819.594	27.72
819.768	27.49
819.943	27.44
820.117	27.53
820.292	27.14
820.467	27.27
820.641	27.46
820.816	27.41
820.99	27.58
821.165	27.19
821.339	27.39
821.514	27.28
821.688	27.28
821.863	27.23
822.037	27.57
822.212	27.77
822.386	27.98
822.56	28.01
822.735	28.04
822.909	27.94
823.084	28.02
823.258	27.98
823.432	27.99
823.606	28.15
823.781	27.92
823.955	28.09
824.129	27.85
824.303	27.72
824.478	27.96
824.652	28.35
824.826	28.72
825	28.7
825.174	29.02
825.348	29.13
825.523	29.01
825.697	29.06
825.871	28.7
826.045	28.51
826.219	28.58
826.393	28.33
826.567	28.17
826.741	27.99
826.915	28.69
827.089	28.88
827.263	28.58
827.437	28.3
827.611	28.63
827.784	28.34
827.958	28.41
828.132	28.08
828.306	27.8
828.48	27.42
828.654	27.01
828.827	26.15
829.001	26.32
829.175	26.72
829.349	27.59
829.522	27.62
829.696	27.7
829.87	28.39
830.044	28.38
830.217	28.7
830.391	29.14
830.565	28.88
830.738	29.32
830.912	27.42
831.085	27.78
831.259	26.07
831.432	26.12
831.606	27.28
831.779	26.72
831.953	27.13
832.126	28.02
832.3	28.9
832.473	29.37
832.647	29.19
832.82	29.61
832.994	29.24
833.167	29.71
833.34	29.04
833.514	28.09
833.687	28.13
833.86	27.57
834.034	27.26
834.207	27.49
834.38	27.52
834.553	27
834.727	26.79
834.9	26.08
835.073	25.75
835.246	25.22
835.419	26.1
835.593	26.59
835.766	26.96
835.939	26.4
836.112	25.17
836.285	25.17
836.458	26.19
836.631	26.42
836.804	27.39
836.977	27.56
837.15	29.56
837.323	28.79
837.496	27.98
837.669	28.94
837.842	30.88
838.015	31.49
838.188	32.81
838.361	33.05
838.533	33.08
838.706	32.65
838.879	31.88
839.052	30.15
839.225	30.95
839.398	32
839.57	31.02
839.743	30.45
839.916	30.67
840.088	29.63
840.261	29.16
840.434	28.56
840.607	28.71
840.779	30.26
840.952	29.86
841.124	29.65
841.297	30.16
841.47	29.79
841.642	27.97
841.815	26.84
841.987	26.63
842.16	25.39
842.332	26.53
842.505	26.48
842.677	27.4
842.85	28.48
843.022	28.77
843.194	25.14
843.367	25.49
843.539	27.28
843.712	27.9
843.884	26.07
844.056	30.08
844.229	29.32
844.401	29.56
844.573	30.8
844.745	30.94
844.918	30.04
845.09	33.69
845.262	34.82
845.434	32.99
845.606	32.97
845.779	34.37
845.951	28.69
846.123	27.26
846.295	26.05
846.467	24.27
846.639	23.47
846.811	22.92
846.983	19.87
847.155	18.01
847.327	18.19
847.499	18.33
847.671	19.51
847.843	18.63
848.015	22.93
848.187	24.81
848.359	22.36
848.531	24.91
848.703	27.32
848.875	29.22
849.047	30.05
849.218	29.27
849.39	26.87
849.562	27.61
849.734	29.41
849.905	26.86
850.077	24.04
850.249	28.04
850.421	27.29
850.592	24.87
850.764	25.55
850.936	24.66
851.107	25.6
851.279	23.95
851.451	26.43
851.622	27.34
851.794	27.2
851.965	32.23
852.137	28.74
852.308	28.72
852.48	28.75
852.651	26.45
852.823	26.3
852.994	26.75
853.166	28.85
853.337	24.95
853.509	26.1
853.68	25.1
853.851	27.03
854.023	29.83
854.194	33.05
854.365	34.26
854.537	34.82
854.708	33.86
854.879	34.37
855.05	35.53
855.222	34.27
855.393	34.19
855.564	33.74
855.735	28.36
855.906	26.9
856.078	23.66
856.249	17.73
856.42	18.38
856.591	23.07
856.762	23.16
856.933	25.44
857.104	29.03
857.275	26.91
857.446	30.68
857.617	33
857.788	33.25
857.959	31.64
858.13	36.32
858.301	36.52
858.472	34.28
858.643	35.46
858.814	30.85
858.985	29.21
859.155	34.16
859.326	32.05
859.497	31.63
859.668	32.05
859.839	34.28
860.009	33.3
860.18	32.85
860.351	33.86
860.522	31.52
860.692	35.37
860.863	35.17
861.034	29.3
861.204	31.84
861.375	29.81
861.546	26.62
861.716	23.99
861.887	24.9
862.057	24.33
862.228	24.45
862.398	24.18
862.569	21.54
862.739	19.06
862.91	22.09
863.08	22.16
863.251	22.79
863.421	24.61
863.592	26.9
863.762	23.25
863.932	25.06
864.103	22.97
864.273	24.55
864.443	24.94
864.614	30.92
864.784	28.76
864.954	27.49
865.125	30.65
865.295	32.22
865.465	32.02
865.635	32.6
865.805	29.7
865.976	32.79
866.146	34.42
866.316	31.37
866.486	28.01
866.656	25.75
866.826	24.79
866.996	22.24
867.166	18.74
867.336	17.87
867.506	22.59
867.676	22.54
867.846	22.9
868.016	19.18
868.186	21.49
868.356	18.92
868.526	23.87
868.696	25.25
868.866	28.43
869.036	30.8
869.206	30.58
869.376	31.53
869.545	32.74
869.715	31.97
869.885	32.98
870.055	34.24
870.224	38.5
870.394	38.52
870.564	38.01
870.734	44.34
870.903	45.36
871.073	47.5
871.243	42.77
871.412	43.79
871.582	45.21
871.751	42.94
871.921	42.5
872.091	39.93
872.26	41.62
872.43	39.61
872.599	29.59
872.769	27.92
872.938	28.07
873.108	30.98
873.277	32.31
873.446	30.67
873.616	33.81
873.785	35.43
873.955	37.62
874.124	34.57
874.293	34.53
874.463	34.52
874.632	32.1
874.801	30.59
874.971	27.63
875.14	23.07
875.309	22.26
875.478	20.42
875.647	21.2
875.817	20.32
875.986	20.6
876.155	18.69
876.324	18.89
876.493	22.96
876.662	26.48
876.831	28.09
877	30.37
877.17	31.58
877.339	30.56
877.508	29.59
877.677	26.68
877.846	26.9
878.015	30.28
878.184	28.92
878.352	26.51
878.521	24.24
878.69	25.17
878.859	24.39
879.028	25.63
879.197	26.58
879.366	27.58
879.534	30.05
879.703	28.82
879.872	29.13
880.041	30.31
880.21	30.14
880.378	28.71
880.547	27.98
880.716	28.21
880.884	27.26
881.053	27.78
881.222	27.04
881.39	26.94
881.559	27.36
881.727	27.06
881.896	27.07
882.065	28.5
882.233	28.66
882.402	28.91
882.57	28.44
882.739	28.11
882.907	27.91
883.076	28.33
883.244	27.8
883.412	27.92
883.581	27.98
883.749	27.23
883.918	26.34
884.086	26.82
884.254	26.07
884.423	26.79
884.591	27.36
884.759	27.28
884.927	26.72
885.096	27.04
885.264	26.71
885.432	26.61
885.6	27.74
885.769	27.55
885.937	26.95
886.105	29.15
886.273	30.39
886.441	29.45
886.609	28.49
886.777	28.89
886.945	27.81
887.113	26.38
887.281	26.88
887.449	26.83
887.617	24.62
887.785	24.46
887.953	20.25
888.121	15.94
888.289	19.43
888.457	21.52
888.625	24.79
888.793	28.2
888.961	32.41
889.129	29.41
889.296	28.43
889.464	31.26
889.632	32.1
889.8	36.61
889.967	42.16
890.135	38.33
