Data from 2938546_Reflection_3.txt Node
Date: Mon Jun 15 00:21:57 EDT 2015
User: robert
Spectrometer: USB4E03002
Autoset integration time: false
Trigger mode: 4
Integration Time (sec): 1.000000E-1
Scans to average: 10
Electric dark correction enabled: true
Nonlinearity correction enabled: false
Boxcar width: 5
Stray light correction enabled: false
XAxis mode: Wavelengths
Stop averaging: false
Number of Pixels in Spectrum: 3648
>>>>>Begin Spectral Data<<<<<
177.575	107.82
177.794	117.64
178.014	144.08
178.233	102.66
178.452	120.25
178.672	80.07
178.891	50.07
179.11	244.98
179.33	289.6
179.549	143.6
179.768	86.59
179.987	73.1
180.207	73.98
180.426	78.08
180.645	49.34
180.864	91.33
181.084	-16.88
181.303	-333.7
181.522	659.89
181.741	-535.38
181.96	3554.69
182.179	312.43
182.398	496.71
182.618	390.06
182.837	-4131.51
183.056	-501.04
183.275	-316.39
183.494	1205.09
183.713	-144.65
183.932	105.64
184.151	100.51
184.37	129.29
184.589	110.8
184.808	198.13
185.027	240.95
185.246	158.32
185.465	198.21
185.684	192.42
185.903	217.32
186.122	234.01
186.341	784.95
186.56	798.46
186.779	-177.61
186.998	-127.84
187.216	-16.71
187.435	60.02
187.654	35.79
187.873	36.61
188.092	17.48
188.311	43.32
188.53	40.41
188.748	64.68
188.967	61.11
189.186	64.58
189.405	55.05
189.623	27.12
189.842	46.23
190.061	23.54
190.28	19.8
190.498	45.19
190.717	7.6
190.936	18.55
191.154	-170.13
191.373	-2275
191.592	-321.51
191.81	91
192.029	91.74
192.248	127.93
192.466	101.64
192.685	89.37
192.904	76.06
193.122	87.85
193.341	158.21
193.559	83.57
193.778	48.49
193.996	24.94
194.215	133.56
194.433	134.43
194.652	91.02
194.87	26.58
195.089	598.59
195.307	83.13
195.526	91.21
195.744	439.85
195.963	521.65
196.181	1547.32
196.399	399.78
196.618	57.11
196.836	-326.82
197.055	-116.11
197.273	237.09
197.491	97.26
197.71	89.65
197.928	57.41
198.146	68.76
198.365	53.48
198.583	34.97
198.801	-265.1
199.019	180.49
199.238	-1434.48
199.456	-121.59
199.674	-437.72
199.892	-771.95
200.111	-203.86
200.329	-187.98
200.547	-413.59
200.765	-1450.61
200.983	-354.1
201.202	-1402.63
201.42	-924.22
201.638	-441.73
201.856	444.36
202.074	932.94
202.292	-253.59
202.51	-29.36
202.728	-93.13
202.946	5.92
203.165	112.68
203.383	22.91
203.601	-7.71
203.819	16.7
204.037	-39.58
204.255	-120.47
204.473	-71.44
204.691	-31.23
204.909	-10.07
205.127	-40.27
205.345	-130.5
205.562	-124.74
205.78	-117.85
205.998	-243.75
206.216	-280.04
206.434	-1146.46
206.652	38.68
206.87	182.28
207.088	351.86
207.306	78.17
207.523	22.41
207.741	-36.68
207.959	-35.38
208.177	-958.94
208.395	-131.63
208.612	-180.13
208.83	579.54
209.048	248.94
209.266	242.49
209.483	222.32
209.701	167.21
209.919	128.9
210.136	130.31
210.354	144.76
210.572	143.95
210.79	140.63
211.007	142.39
211.225	168.41
211.442	173.89
211.66	192.33
211.878	217.27
212.095	158.95
212.313	136.13
212.53	141.71
212.748	127.09
212.966	121.62
213.183	112.55
213.401	95.32
213.618	64.56
213.836	61.84
214.053	82.65
214.271	86.02
214.488	73.49
214.705	43.35
214.923	60.92
215.14	94.54
215.358	87.61
215.575	111.84
215.793	88.64
216.01	75.59
216.227	72.72
216.445	55.24
216.662	57.01
216.879	26.11
217.097	15.4
217.314	10.14
217.531	14.41
217.749	4.57
217.966	-3.99
218.183	-13.92
218.4	-15.17
218.618	-12.28
218.835	-20.84
219.052	-20.88
219.269	-7.77
219.487	4.26
219.704	3.32
219.921	3.25
220.138	11.78
220.355	2.83
220.572	10.23
220.79	26.01
221.007	19.03
221.224	20.93
221.441	33.88
221.658	38.34
221.875	28.08
222.092	35.33
222.309	18.04
222.526	17.35
222.743	13.63
222.96	14.82
223.177	12.71
223.394	19.1
223.611	23.27
223.828	13.22
224.045	11.81
224.262	7.95
224.479	-0.34
224.696	9.23
224.913	3.59
225.13	4.31
225.347	5.24
225.564	5.28
225.781	1.29
225.997	-0.46
226.214	1.14
226.431	0.45
226.648	3.65
226.865	4.65
227.082	4.03
227.298	7.32
227.515	8.48
227.732	8.21
227.949	8.24
228.165	8.64
228.382	9.79
228.599	9.31
228.816	9.22
229.032	8.93
229.249	8.94
229.466	8.33
229.682	5.97
229.899	4.26
230.116	4.61
230.332	4.72
230.549	3.51
230.765	2.2
230.982	3.25
231.199	3.91
231.415	3.97
231.632	4.63
231.848	5.34
232.065	7.48
232.281	9.05
232.498	7.86
232.714	5.78
232.931	7.87
233.147	8.25
233.364	7.73
233.58	6.87
233.797	7.36
234.013	8.64
234.23	10.06
234.446	9.15
234.662	10.44
234.879	11.95
235.095	13.48
235.312	13.87
235.528	16.11
235.744	15.12
235.961	16.51
236.177	16.24
236.393	14.75
236.61	16.71
236.826	16.18
237.042	14.85
237.258	14.48
237.475	13.03
237.691	13.07
237.907	10.16
238.123	11.57
238.339	11.34
238.556	10.65
238.772	9.64
238.988	8.69
239.204	7.84
239.42	7.05
239.636	6.49
239.853	8.1
240.069	7.57
240.285	7.82
240.501	7.61
240.717	7
240.933	7.42
241.149	7.83
241.365	6.93
241.581	7.54
241.797	7.76
242.013	7.37
242.229	6.39
242.445	6.34
242.661	6.75
242.877	6.65
243.093	7.26
243.309	7.57
243.525	7.1
243.741	7.5
243.957	7.53
244.173	7.63
244.388	8.24
244.604	8.36
244.82	8.79
245.036	8.39
245.252	8.07
245.468	8.19
245.683	7.67
245.899	7.17
246.115	6.97
246.331	6.41
246.547	6.08
246.762	5.62
246.978	5.37
247.194	5.07
247.409	4.75
247.625	4.65
247.841	3.93
248.057	4.35
248.272	4.99
248.488	4.42
248.703	4.6
248.919	5.43
249.135	5.66
249.35	5.94
249.566	6.13
249.782	6.23
249.997	6.33
250.213	5.72
250.428	5.24
250.644	5.74
250.859	6.33
251.075	6.61
251.29	6.37
251.506	6.59
251.721	6.44
251.937	5.15
252.152	4.95
252.368	5.02
252.583	5.66
252.798	4.82
253.014	4.55
253.229	4.13
253.445	2.92
253.66	2.97
253.875	2.85
254.091	2.68
254.306	3.62
254.521	3.74
254.737	4.04
254.952	4.32
255.167	5.26
255.383	4.42
255.598	4.71
255.813	5.07
256.028	5.19
256.244	5.27
256.459	5.35
256.674	5.19
256.889	5.15
257.104	5.03
257.32	5.51
257.535	5.32
257.75	5.57
257.965	5.33
258.18	5.58
258.395	5.6
258.61	5.58
258.826	5.4
259.041	5.58
259.256	5.92
259.471	6.09
259.686	5.63
259.901	5.73
260.116	5.45
260.331	5.77
260.546	5.53
260.761	5.58
260.976	5.43
261.191	5.63
261.406	5.66
261.621	4.44
261.836	4.42
262.05	5.29
262.265	5.49
262.48	6.26
262.695	6.07
262.91	6.27
263.125	5.77
263.34	5.88
263.555	6.48
263.769	6.59
263.984	7.15
264.199	6.8
264.414	6.4
264.629	6.5
264.843	6.07
265.058	6.8
265.273	6.48
265.488	6.3
265.702	6.33
265.917	6.21
266.132	5.98
266.346	5.99
266.561	5.85
266.776	5.81
266.99	5.57
267.205	6.01
267.42	5.41
267.634	5.91
267.849	6.35
268.063	6.16
268.278	6.29
268.492	5.94
268.707	5.99
268.922	6.72
269.136	6.6
269.351	6.47
269.565	5.75
269.78	5.59
269.994	5.61
270.209	5.28
270.423	5.69
270.637	4.96
270.852	5.27
271.066	5.13
271.281	4.44
271.495	4.27
271.709	4.49
271.924	4.96
272.138	4.96
272.353	4.66
272.567	4.77
272.781	4.59
272.996	4.94
273.21	4.88
273.424	5.2
273.638	5.2
273.853	5.37
274.067	4.82
274.281	4.49
274.495	4.49
274.71	4.58
274.924	4.79
275.138	4.64
275.352	4.3
275.566	4.19
275.781	4.07
275.995	4.34
276.209	4.45
276.423	5.08
276.637	5.65
276.851	5.45
277.065	5.58
277.279	5.35
277.493	5.42
277.707	5.85
277.921	6.41
278.135	6.72
278.349	6.51
278.563	6.46
278.777	6.21
278.991	5.82
279.205	5.69
279.419	5.43
279.633	5.64
279.847	5.73
280.061	5.64
280.275	5.37
280.489	5.09
280.703	5.46
280.917	5.25
281.131	5.09
281.344	5.04
281.558	5.55
281.772	5.55
281.986	5.61
282.2	5.37
282.414	5.68
282.627	5.5
282.841	5.92
283.055	5.52
283.269	5.5
283.482	5.93
283.696	5.68
283.91	5.37
284.123	5.41
284.337	5.13
284.551	5.47
284.764	5.12
284.978	4.93
285.192	4.49
285.405	4.26
285.619	4.02
285.833	3.49
286.046	3.61
286.26	3.64
286.473	3.6
286.687	3.6
286.9	3.04
287.114	3.56
287.327	3.9
287.541	4.42
287.754	4.41
287.968	4.73
288.181	4.87
288.395	4.52
288.608	4.52
288.822	4.47
289.035	4.22
289.248	4.17
289.462	3.66
289.675	3.46
289.889	3.2
290.102	3.29
290.315	3.39
290.529	3.4
290.742	3.89
290.955	3.43
291.169	3.06
291.382	3.57
291.595	3.8
291.808	4.02
292.022	4.32
292.235	4.11
292.448	4.37
292.661	4.4
292.875	4.16
293.088	3.94
293.301	4.32
293.514	4.83
293.727	4.51
293.94	4.36
294.153	4.35
294.367	4
294.58	3.9
294.793	3.72
295.006	3.88
295.219	3.96
295.432	4.23
295.645	4.28
295.858	4.06
296.071	4.16
296.284	4.16
296.497	4.04
296.71	4
296.923	4.13
297.136	4.37
297.349	3.92
297.562	3.91
297.775	3.7
297.988	3.93
298.201	4
298.414	3.93
298.626	4.33
298.839	4.38
299.052	4.59
299.265	4.89
299.478	4.94
299.691	5.17
299.903	5.25
300.116	5.44
300.329	5.12
300.542	5.36
300.755	5.64
300.967	5.36
301.18	5.27
301.393	5.58
301.605	5.12
301.818	5.02
302.031	5.13
302.243	5.12
302.456	5.47
302.669	5.43
302.881	5.42
303.094	5.62
303.307	5.53
303.519	5.87
303.732	5.86
303.944	6.22
304.157	6.06
304.37	6.38
304.582	6.34
304.795	5.89
305.007	6.09
305.22	6.1
305.432	6.17
305.645	5.9
305.857	5.62
306.069	5.52
306.282	5.66
306.494	5.74
306.707	5.27
306.919	5.28
307.132	4.66
307.344	4.85
307.556	5.03
307.769	4.5
307.981	4.84
308.193	4.82
308.406	4.88
308.618	4.92
308.83	5.07
309.043	5.16
309.255	5.23
309.467	5.8
309.679	5.98
309.892	5.47
310.104	5.6
310.316	5.73
310.528	5.86
310.74	5.99
310.953	6
311.165	6.08
311.377	6.35
311.589	6.48
311.801	6.56
312.013	6.29
312.225	6.46
312.437	6.3
312.649	6.16
312.862	6.01
313.074	5.76
313.286	5.43
313.498	5.24
313.71	4.64
313.922	4.76
314.134	4.38
314.346	4
314.558	4.19
314.77	4.83
314.982	4.98
315.193	5.06
315.405	5.01
315.617	4.93
315.829	5.22
316.041	5.54
316.253	5.08
316.465	5.46
316.677	5.66
316.888	5.64
317.1	5.17
317.312	4.97
317.524	5.15
317.736	5
317.947	5.24
318.159	5.16
318.371	5.16
318.583	4.9
318.794	4.64
319.006	4.76
319.218	5.12
319.43	5.47
319.641	6.04
319.853	5.87
320.064	6.14
320.276	6.37
320.488	6.47
320.699	6.77
320.911	7.44
321.123	8.2
321.334	7.79
321.546	7.86
321.757	7.37
321.969	7.05
322.18	7.13
322.392	6.9
322.603	7.1
322.815	6.88
323.026	6.55
323.238	6.48
323.449	6.12
323.661	6.12
323.872	5.66
324.083	6.39
324.295	6.27
324.506	6.51
324.718	6.76
324.929	6.5
325.14	6.68
325.352	7.21
325.563	7.25
325.774	7.17
325.986	7.48
326.197	7.76
326.408	7.55
326.62	7.61
326.831	7.88
327.042	7.96
327.253	8.15
327.464	8.03
327.676	7.8
327.887	7.65
328.098	7.88
328.309	7.66
328.52	7.56
328.732	7.78
328.943	8
329.154	7.74
329.365	8.22
329.576	7.79
329.787	7.94
329.998	7.82
330.209	8.36
330.42	8.21
330.631	8.46
330.842	8.61
331.053	8.51
331.264	8.54
331.475	8.73
331.686	8.58
331.897	8.64
332.108	8.24
332.319	8.55
332.53	8.58
332.741	8.93
332.952	8.75
333.163	8.88
333.374	8.64
333.585	8.58
333.795	8.67
334.006	8.53
334.217	8.62
334.428	9.18
334.639	8.76
334.849	8.25
335.06	8.02
335.271	8.65
335.482	8.45
335.692	8.21
335.903	7.95
336.114	7.78
336.325	8.12
336.535	8.57
336.746	8.34
336.957	8.55
337.167	9
337.378	8.93
337.589	8.91
337.799	8.68
338.01	9.03
338.22	9.44
338.431	9.31
338.642	8.66
338.852	8.26
339.063	8.2
339.273	8.34
339.484	8.3
339.694	8.42
339.905	8.31
340.115	8.92
340.326	9.18
340.536	8.91
340.746	8.59
340.957	8.72
341.167	9.07
341.378	9.27
341.588	9.02
341.799	8.87
342.009	8.91
342.219	8.74
342.43	8.73
342.64	8.57
342.85	8.47
343.061	8.72
343.271	9
343.481	8.49
343.691	8.23
343.902	8.4
344.112	8.24
344.322	8.05
344.532	8.08
344.743	7.86
344.953	7.75
345.163	7.84
345.373	7.79
345.583	7.56
345.793	7.53
346.004	7.48
346.214	7.49
346.424	7.72
346.634	7.77
346.844	7.56
347.054	7.54
347.264	7.32
347.474	7.62
347.684	7.92
347.894	8.1
348.104	8.26
348.314	8.4
348.524	8.27
348.734	8.03
348.944	7.98
349.154	8.43
349.364	8.41
349.574	8.67
349.784	8.72
349.994	8.5
350.204	8.39
350.413	8.28
350.623	8.25
350.833	8.28
351.043	8.5
351.253	8.52
351.463	8.1
351.672	8.04
351.882	7.98
352.092	7.92
352.302	7.96
352.511	7.95
352.721	7.94
352.931	7.99
353.141	7.85
353.35	7.71
353.56	7.72
353.77	7.92
353.979	7.68
354.189	7.64
354.399	7.67
354.608	7.6
354.818	7.63
355.027	7.79
355.237	7.95
355.447	7.9
355.656	7.92
355.866	7.89
356.075	7.52
356.285	7.84
356.494	7.91
356.704	7.54
356.913	7.29
357.123	7.34
357.332	7.25
357.542	7.33
357.751	7.35
357.96	7.43
358.17	7.63
358.379	7.74
358.589	7.56
358.798	7.33
359.007	7.39
359.217	7.57
359.426	7.33
359.635	7.46
359.845	7.14
360.054	7.33
360.263	7.27
360.472	6.94
360.682	7.13
360.891	7.32
361.1	7.44
361.309	7.4
361.519	7.32
361.728	7.38
361.937	7.28
362.146	7.42
362.355	7.24
362.564	7.06
362.774	7.23
362.983	7.07
363.192	6.9
363.401	6.96
363.61	6.83
363.819	6.85
364.028	6.94
364.237	6.89
364.446	6.67
364.655	6.71
364.864	7.02
365.073	7
365.282	6.99
365.491	7.02
365.7	6.94
365.909	7.16
366.118	7.34
366.327	7.16
366.536	7.21
366.745	7.23
366.954	7.02
367.162	6.6
367.371	6.81
367.58	6.72
367.789	6.6
367.998	6.51
368.207	6.66
368.415	6.44
368.624	6.48
368.833	6.27
369.042	6.39
369.25	6.63
369.459	6.7
369.668	6.6
369.877	6.76
370.085	6.73
370.294	6.67
370.503	6.34
370.711	6.04
370.92	6.11
371.129	6.23
371.337	6.23
371.546	6.05
371.754	6.25
371.963	6.03
372.171	5.87
372.38	5.66
372.589	5.62
372.797	5.8
373.006	6.34
373.214	6.37
373.423	6.52
373.631	6.45
373.84	6.39
374.048	6.4
374.256	6.38
374.465	6.4
374.673	6.37
374.882	6.7
375.09	6.74
375.298	6.39
375.507	6.2
375.715	6
375.923	5.9
376.132	6.22
376.34	5.93
376.548	6.05
376.757	6.01
376.965	6.21
377.173	5.86
377.381	5.64
377.59	5.77
377.798	5.64
378.006	5.49
378.214	5.72
378.423	5.76
378.631	5.88
378.839	5.51
379.047	5.52
379.255	5.61
379.463	5.68
379.671	5.63
379.879	5.77
380.088	5.99
380.296	6
380.504	5.86
380.712	5.81
380.92	5.75
381.128	5.92
381.336	5.8
381.544	5.69
381.752	5.76
381.96	6.06
382.168	5.79
382.376	5.91
382.584	6.2
382.791	6.08
382.999	5.92
383.207	5.93
383.415	6.1
383.623	6.22
383.831	6.21
384.039	5.96
384.247	5.91
384.454	6.08
384.662	5.81
384.87	5.76
385.078	5.86
385.285	5.84
385.493	5.93
385.701	5.82
385.909	5.79
386.116	5.52
386.324	5.61
386.532	5.6
386.739	5.42
386.947	5.35
387.155	5.31
387.362	5.47
387.57	5.19
387.778	4.99
387.985	5.14
388.193	4.95
388.4	5.15
388.608	5.04
388.816	4.81
389.023	5.07
389.231	5.01
389.438	4.84
389.646	4.57
389.853	4.5
390.061	4.62
390.268	4.55
390.475	4.65
390.683	4.58
390.89	4.53
391.098	4.74
391.305	4.59
391.512	4.78
391.72	4.79
391.927	4.65
392.135	4.96
392.342	4.93
392.549	4.79
392.756	4.95
392.964	4.91
393.171	5.03
393.378	4.81
393.586	4.61
393.793	4.66
394	4.76
394.207	4.91
394.414	4.7
394.622	4.67
394.829	4.59
395.036	4.31
395.243	4.36
395.45	4.34
395.657	4.2
395.864	4.24
396.072	3.98
396.279	3.88
396.486	3.98
396.693	4.09
396.9	3.9
397.107	3.88
397.314	4.07
397.521	4.06
397.728	4.12
397.935	4.38
398.142	4.51
398.349	4.59
398.556	4.45
398.763	4.18
398.97	4.26
399.177	4.36
399.383	4.38
399.59	4.23
399.797	4.07
400.004	4.03
400.211	4.05
400.418	3.99
400.625	3.89
400.831	4.11
401.038	4.24
401.245	3.95
401.452	3.86
401.658	3.89
401.865	3.89
402.072	3.84
402.279	3.78
402.485	3.53
402.692	3.52
402.899	3.55
403.105	3.42
403.312	3.37
403.519	3.52
403.725	3.45
403.932	3.43
404.138	3.24
404.345	3.33
404.552	3.41
404.758	3.49
404.965	3.4
405.171	3.47
405.378	3.38
405.584	3.48
405.791	3.3
405.997	3.49
406.204	3.36
406.41	3.55
406.617	3.59
406.823	3.47
407.029	3.47
407.236	3.53
407.442	3.45
407.649	3.38
407.855	3.25
408.061	3.26
408.268	3.08
408.474	3.15
408.68	3.28
408.887	3.29
409.093	3.22
409.299	3.12
409.505	3.14
409.712	3.28
409.918	3.37
410.124	3.4
410.33	3.47
410.537	3.57
410.743	3.69
410.949	3.45
411.155	3.37
411.361	3.47
411.567	3.52
411.773	3.4
411.98	3.18
412.186	3.25
412.392	3.1
412.598	3.2
412.804	3.05
413.01	2.84
413.216	2.95
413.422	2.81
413.628	2.77
413.834	2.88
414.04	2.95
414.246	3.02
414.452	2.99
414.658	3.1
414.864	3.09
415.07	3.32
415.275	3.4
415.481	3.34
415.687	3.39
415.893	3.3
416.099	3.19
416.305	3.16
416.511	3.21
416.716	3.15
416.922	3.16
417.128	3.07
417.334	3.01
417.539	2.96
417.745	3.03
417.951	3.04
418.157	3.15
418.362	3.22
418.568	3.15
418.774	3.04
418.979	3.03
419.185	2.94
419.391	3.05
419.596	3.02
419.802	3.1
420.008	3.13
420.213	2.47
420.419	2.34
420.624	2.37
420.83	2.41
421.035	2.39
421.241	2.48
421.446	2.54
421.652	2.47
421.857	2.37
422.063	2.37
422.268	2.3
422.474	2.97
422.679	3.07
422.885	3.03
423.09	3.01
423.295	3.07
423.501	2.99
423.706	2.98
423.911	2.95
424.117	3
424.322	2.89
424.527	2.8
424.733	2.78
424.938	2.7
425.143	2.7
425.349	2.7
425.554	2.61
425.759	2.68
425.964	2.72
426.169	2.83
426.375	2.86
426.58	2.92
426.785	2.98
426.99	2.85
427.195	2.93
427.4	2.8
427.605	2.77
427.811	2.82
428.016	2.76
428.221	2.68
428.426	2.45
428.631	2.52
428.836	2.41
429.041	2.55
429.246	2.66
429.451	2.55
429.656	2.54
429.861	2.59
430.066	2.63
430.271	2.65
430.476	2.57
430.681	2.62
430.886	2.58
431.09	2.69
431.295	2.58
431.5	2.68
431.705	2.76
431.91	2.85
432.115	2.83
432.32	2.91
432.524	2.86
432.729	2.99
432.934	3.01
433.139	3.02
433.343	3.02
433.548	3.03
433.753	2.99
433.958	2.89
434.162	2.83
434.367	2.78
434.572	2.64
434.776	2.53
434.981	2.49
435.186	2.44
435.39	2.41
435.595	2.34
435.799	2.32
436.004	2.25
436.209	2.38
436.413	2.3
436.618	2.4
436.822	2.36
437.027	2.43
437.231	2.43
437.436	2.41
437.64	2.36
437.845	2.43
438.049	2.39
438.253	2.35
438.458	2.29
438.662	2.36
438.867	2.39
439.071	2.54
439.275	2.58
439.48	2.54
439.684	2.64
439.888	2.64
440.093	2.6
440.297	2.66
440.501	2.74
440.706	2.74
440.91	2.67
441.114	2.62
441.318	2.48
441.523	2.45
441.727	2.46
441.931	2.38
442.135	2.44
442.339	2.55
442.543	2.56
442.748	2.59
442.952	2.56
443.156	2.63
443.36	2.54
443.564	2.65
443.768	2.66
443.972	2.7
444.176	2.69
444.38	2.65
444.584	2.61
444.788	2.56
444.992	2.53
445.196	2.54
445.4	2.56
445.604	2.63
445.808	2.53
446.012	2.5
446.216	2.49
446.42	2.53
446.624	2.49
446.828	2.48
447.032	2.51
447.235	2.51
447.439	2.53
447.643	2.58
447.847	2.67
448.051	2.69
448.254	2.72
448.458	2.72
448.662	2.7
448.866	2.76
449.069	2.81
449.273	2.76
449.477	2.73
449.681	2.74
449.884	2.6
450.088	2.48
450.292	2.39
450.495	2.43
450.699	2.43
450.902	2.4
451.106	2.37
451.31	2.34
451.513	2.47
451.717	2.37
451.92	2.36
452.124	2.42
452.327	2.46
452.531	2.45
452.734	2.37
452.938	2.35
453.141	2.35
453.345	2.44
453.548	2.45
453.752	2.36
453.955	2.48
454.158	2.54
454.362	2.46
454.565	2.44
454.769	2.59
454.972	2.57
455.175	2.6
455.379	2.64
455.582	2.57
455.785	2.56
455.988	2.58
456.192	2.57
456.395	2.58
456.598	2.64
456.801	2.68
457.005	2.69
457.208	2.71
457.411	2.67
457.614	2.65
457.817	2.69
458.021	2.66
458.224	2.73
458.427	2.7
458.63	2.64
458.833	2.61
459.036	2.64
459.239	2.6
459.442	2.63
459.645	2.64
459.848	2.7
460.051	2.58
460.254	2.63
460.457	2.49
460.66	2.49
460.863	2.52
461.066	2.52
461.269	2.35
461.472	2.26
461.675	2.27
461.878	2.32
462.081	2.17
462.284	2.2
462.486	2.19
462.689	2.27
462.892	2.33
463.095	2.26
463.298	2.26
463.5	2.32
463.703	2.37
463.906	2.42
464.109	2.36
464.311	2.35
464.514	2.43
464.717	2.36
464.92	2.3
465.122	2.26
465.325	2.29
465.528	2.33
465.73	2.33
465.933	2.34
466.135	2.28
466.338	2.27
466.541	2.32
466.743	2.21
466.946	2.29
467.148	2.31
467.351	2.29
467.553	2.28
467.756	2.17
467.958	2.18
468.161	2.11
468.363	2.1
468.566	2.13
468.768	2.14
468.971	2.19
469.173	2.12
469.375	2.11
469.578	2.11
469.78	2.19
469.983	2.33
470.185	2.43
470.387	2.44
470.59	2.45
470.792	2.53
470.994	2.5
471.196	2.59
471.399	2.59
471.601	2.6
471.803	2.58
472.005	2.45
472.208	2.4
472.41	2.14
472.612	2.26
472.814	2.25
473.016	2.14
473.218	2.21
473.421	2.18
473.623	2.19
473.825	2.24
474.027	2.31
474.229	2.4
474.431	2.48
474.633	2.66
474.835	2.64
475.037	2.67
475.239	2.61
475.441	2.53
475.643	2.58
475.845	2.59
476.047	2.58
476.249	2.53
476.451	2.58
476.653	2.54
476.855	2.51
477.057	2.48
477.258	2.46
477.46	2.58
477.662	2.66
477.864	2.58
478.066	2.65
478.268	2.65
478.469	2.67
478.671	2.55
478.873	2.54
479.075	2.55
479.276	2.5
479.478	2.51
479.68	2.46
479.882	2.46
480.083	2.46
480.285	2.44
480.487	2.47
480.688	2.48
480.89	2.54
481.091	2.56
481.293	2.53
481.495	2.57
481.696	2.54
481.898	2.53
482.099	2.51
482.301	2.52
482.502	2.5
482.704	2.49
482.905	2.5
483.107	2.49
483.308	2.5
483.51	2.5
483.711	2.46
483.913	2.47
484.114	2.51
484.315	2.5
484.517	2.51
484.718	2.51
484.92	2.51
485.121	2.48
485.322	2.48
485.524	2.44
485.725	2.44
485.926	2.47
486.127	2.47
486.329	2.43
486.53	2.46
486.731	2.43
486.932	2.45
487.134	2.47
487.335	2.45
487.536	2.42
487.737	2.43
487.938	2.45
488.139	2.47
488.341	2.46
488.542	2.47
488.743	2.46
488.944	2.47
489.145	2.43
489.346	2.42
489.547	2.47
489.748	2.51
489.949	2.51
490.15	2.48
490.351	2.47
490.552	2.5
490.753	2.52
490.954	2.49
491.155	2.53
491.356	2.54
491.557	2.48
491.758	2.46
491.959	2.44
492.159	2.38
492.36	2.42
492.561	2.35
492.762	2.39
492.963	2.33
493.164	2.37
493.364	2.38
493.565	2.3
493.766	2.38
493.967	2.44
494.167	2.45
494.368	2.5
494.569	2.52
494.769	2.61
494.97	2.52
495.171	2.54
495.371	2.56
495.572	2.51
495.773	2.65
495.973	2.67
496.174	2.63
496.375	2.6
496.575	2.6
496.776	2.6
496.976	2.63
497.177	2.69
497.377	2.68
497.578	2.69
497.778	2.76
497.979	2.76
498.179	2.76
498.38	2.85
498.58	2.84
498.78	2.93
498.981	2.98
499.181	2.97
499.382	3.03
499.582	2.97
499.782	3
499.983	2.93
500.183	2.98
500.383	2.96
500.584	2.87
500.784	2.96
500.984	3.04
501.184	2.97
501.385	2.98
501.585	2.99
501.785	3.1
501.985	3.15
502.185	3.17
502.386	3.11
502.586	3.13
502.786	3.2
502.986	3.23
503.186	3.08
503.386	3.12
503.586	3.18
503.786	3.07
503.987	3
504.187	3
504.387	3.06
504.587	3.07
504.787	3.14
504.987	3.21
505.187	3.24
505.387	3.31
505.587	3.31
505.786	3.29
505.986	3.33
506.186	3.47
506.386	3.5
506.586	3.58
506.786	3.6
506.986	3.61
507.186	3.54
507.386	3.51
507.585	3.61
507.785	3.62
507.985	3.66
508.185	3.74
508.384	3.79
508.584	3.74
508.784	3.74
508.984	3.75
509.183	3.79
509.383	3.9
509.583	3.93
509.782	3.83
509.982	3.91
510.182	3.85
510.381	3.86
510.581	3.88
510.781	3.92
510.98	3.97
511.18	4.05
511.379	4.08
511.579	4.01
511.778	4.09
511.978	4.2
512.177	4.2
512.377	4.29
512.576	4.36
512.776	4.32
512.975	4.35
513.175	4.22
513.374	4.25
513.573	4.18
513.773	4.24
513.972	4.18
514.172	4.15
514.371	4.21
514.57	4.16
514.77	4.1
514.969	4.18
515.168	4.19
515.367	4.35
515.567	4.35
515.766	4.35
515.965	4.32
516.164	4.37
516.364	4.45
516.563	4.41
516.762	4.5
516.961	4.5
517.16	4.53
517.359	4.53
517.559	4.48
517.758	4.47
517.957	4.53
518.156	4.61
518.355	4.66
518.554	4.67
518.753	4.69
518.952	4.67
519.151	4.77
519.35	4.79
519.549	4.84
519.748	4.97
519.947	4.96
520.146	5
520.345	4.97
520.544	5
520.743	5
520.942	5.04
521.141	5.06
521.339	5.02
521.538	5.03
521.737	5.05
521.936	5.02
522.135	5.03
522.333	5.07
522.532	5.11
522.731	5.16
522.93	5.27
523.129	5.33
523.327	5.45
523.526	5.48
523.725	5.49
523.923	5.55
524.122	5.57
524.321	5.69
524.519	5.72
524.718	5.74
524.917	5.68
525.115	5.61
525.314	5.64
525.512	5.63
525.711	5.71
525.909	5.76
526.108	5.84
526.306	5.87
526.505	5.87
526.703	5.85
526.902	5.87
527.1	5.92
527.299	5.98
527.497	5.97
527.696	5.94
527.894	5.9
528.092	5.87
528.291	5.79
528.489	5.77
528.688	5.74
528.886	5.76
529.084	5.74
529.283	5.74
529.481	5.73
529.679	5.73
529.877	5.76
530.076	5.83
530.274	5.91
530.472	5.97
530.67	6.06
530.869	6.11
531.067	6.17
531.265	6.25
531.463	6.21
531.661	6.19
531.859	6.24
532.057	6.32
532.255	6.3
532.454	6.28
532.652	6.29
532.85	6.29
533.048	6.28
533.246	6.29
533.444	6.28
533.642	6.36
533.84	6.43
534.038	6.43
534.236	6.38
534.434	6.44
534.632	6.47
534.83	6.52
535.027	6.51
535.225	6.59
535.423	6.58
535.621	6.59
535.819	6.58
536.017	6.55
536.215	6.56
536.412	6.61
536.61	6.62
536.808	6.67
537.006	6.66
537.203	6.69
537.401	6.66
537.599	6.7
537.797	6.83
537.994	6.91
538.192	6.96
538.39	6.98
538.587	7.05
538.785	7.07
538.983	7.14
539.18	7.2
539.378	7.28
539.575	7.25
539.773	7.29
539.97	7.27
540.168	7.24
540.366	7.26
540.563	7.3
540.761	7.24
540.958	7.24
541.155	7.26
541.353	7.26
541.55	7.21
541.748	7.26
541.945	7.31
542.143	7.28
542.34	7.32
542.537	7.32
542.735	7.36
542.932	7.49
543.129	7.56
543.327	7.54
543.524	7.6
543.721	7.74
543.919	7.82
544.116	7.76
544.313	7.86
544.51	7.89
544.708	7.96
544.905	8.03
545.102	8
545.299	8.1
545.496	8.16
545.693	8.1
545.891	8.02
546.088	7.97
546.285	7.97
546.482	7.98
546.679	8.06
546.876	8.02
547.073	8.01
547.27	8.06
547.467	8.02
547.664	8.06
547.861	8.18
548.058	8.29
548.255	8.49
548.452	8.62
548.649	8.59
548.846	8.59
549.043	8.72
549.24	8.74
549.437	8.75
549.633	8.81
549.83	8.83
550.027	8.8
550.224	8.87
550.421	8.81
550.618	8.79
550.814	8.92
551.011	8.99
551.208	9.02
551.405	9.09
551.601	9.16
551.798	9.06
551.995	9.06
552.191	9.1
552.388	9.07
552.585	9.14
552.781	9.29
552.978	9.34
553.175	9.36
553.371	9.42
553.568	9.42
553.764	9.52
553.961	9.66
554.157	9.71
554.354	9.74
554.55	9.93
554.747	9.95
554.943	9.9
555.14	9.92
555.336	9.93
555.533	10
555.729	10.04
555.926	10.09
556.122	10.21
556.318	10.31
556.515	10.44
556.711	10.4
556.907	10.46
557.104	10.54
557.3	10.53
557.496	10.57
557.693	10.6
557.889	10.66
558.085	10.69
558.281	10.79
558.478	10.81
558.674	10.98
558.87	11
559.066	11.05
559.262	11.14
559.459	11.22
559.655	11.26
559.851	11.26
560.047	11.4
560.243	11.48
560.439	11.42
560.635	11.53
560.831	11.54
561.027	11.56
561.223	11.61
561.419	11.63
561.615	11.81
561.811	11.86
562.007	11.99
562.203	11.95
562.399	11.89
562.595	11.98
562.791	12.04
562.987	12.06
563.183	12.22
563.379	12.37
563.575	12.44
563.771	12.43
563.966	12.42
564.162	12.49
564.358	12.57
564.554	12.66
564.75	12.74
564.945	12.74
565.141	12.78
565.337	12.86
565.533	12.86
565.728	12.81
565.924	12.91
566.12	13.11
566.315	13.19
566.511	13.33
566.707	13.42
566.902	13.41
567.098	13.46
567.293	13.55
567.489	13.63
567.684	13.67
567.88	13.78
568.076	13.82
568.271	13.82
568.467	13.9
568.662	13.9
568.858	13.98
569.053	14.08
569.248	14.25
569.444	14.36
569.639	14.2
569.835	14.29
570.03	14.48
570.225	14.52
570.421	14.67
570.616	14.61
570.812	14.75
571.007	14.78
571.202	14.85
571.397	14.81
571.593	14.82
571.788	14.94
571.983	15.01
572.178	14.99
572.374	14.97
572.569	14.9
572.764	14.95
572.959	14.78
573.154	14.83
573.35	14.85
573.545	14.91
573.74	14.99
573.935	15.01
574.13	14.98
574.325	14.97
574.52	15.09
574.715	15.21
574.91	15.33
575.105	15.48
575.3	15.49
575.495	15.58
575.69	15.59
575.885	15.6
576.08	15.67
576.275	15.69
576.47	15.79
576.665	15.89
576.86	15.84
577.055	15.82
577.25	15.82
577.444	15.89
577.639	15.89
577.834	15.95
578.029	16.1
578.224	16.21
578.418	16.37
578.613	16.34
578.808	16.25
579.003	16.41
579.197	16.59
579.392	16.72
579.587	16.82
579.781	16.86
579.976	16.86
580.171	16.78
580.365	16.58
580.56	16.68
580.755	16.69
580.949	16.82
581.144	16.76
581.338	16.65
581.533	16.59
581.727	16.69
581.922	16.84
582.116	17.06
582.311	17.2
582.505	17.38
582.7	17.37
582.894	17.38
583.089	17.5
583.283	17.6
583.478	17.67
583.672	17.74
583.866	17.77
584.061	17.66
584.255	17.47
584.449	17.48
584.644	17.6
584.838	17.72
585.032	17.75
585.226	17.6
585.421	17.68
585.615	17.8
585.809	17.81
586.003	17.67
586.198	17.78
586.392	17.87
586.586	17.81
586.78	17.85
586.974	17.76
587.168	17.85
587.363	17.91
587.557	17.93
587.751	17.89
587.945	17.92
588.139	17.95
588.333	17.87
588.527	17.86
588.721	17.88
588.915	17.91
589.109	18.06
589.303	18.23
589.497	18.32
589.691	18.36
589.885	18.38
590.079	18.45
590.273	18.51
590.466	18.66
590.66	18.72
590.854	18.68
591.048	18.62
591.242	18.6
591.436	18.57
591.629	18.62
591.823	18.56
592.017	18.51
592.211	18.61
592.404	18.72
592.598	18.72
592.792	18.78
592.986	18.86
593.179	19.03
593.373	18.94
593.567	19.04
593.76	19.09
593.954	19.1
594.147	19.25
594.341	19.29
594.535	19.42
594.728	19.37
594.922	19.51
595.115	19.59
595.309	19.63
595.502	19.7
595.696	19.69
595.889	19.6
596.083	19.74
596.276	19.76
596.47	19.68
596.663	19.59
596.856	19.66
597.05	19.62
597.243	19.74
597.437	19.71
597.63	19.9
597.823	19.83
598.017	19.88
598.21	19.81
598.403	19.83
598.596	19.85
598.79	19.88
598.983	19.97
599.176	19.99
599.369	19.92
599.563	20.04
599.756	19.87
599.949	19.89
600.142	19.92
600.335	20.06
600.528	20.03
600.722	20.17
600.915	20.08
601.108	20.17
601.301	20.15
601.494	20.12
601.687	20.08
601.88	20.17
602.073	20.24
602.266	20.21
602.459	20.04
602.652	20.06
602.845	20.06
603.038	20.11
603.231	20.02
603.424	19.97
603.617	19.97
603.809	19.8
604.002	19.78
604.195	19.85
604.388	19.84
604.581	19.97
604.774	20.11
604.966	20.16
605.159	20.35
605.352	20.43
605.545	20.66
605.737	20.7
605.93	20.91
606.123	20.78
606.316	20.71
606.508	20.75
606.701	20.7
606.894	20.65
607.086	20.58
607.279	20.39
607.471	20.31
607.664	20.31
607.857	20.37
608.049	20.52
608.242	20.69
608.434	20.81
608.627	20.97
608.819	20.97
609.012	20.88
609.204	20.84
609.397	21
609.589	21.09
609.782	20.99
609.974	21.03
610.166	20.91
610.359	20.78
610.551	20.61
610.743	20.51
610.936	20.58
611.128	20.7
611.32	20.78
611.513	20.75
611.705	20.65
611.897	20.67
612.09	20.68
612.282	20.74
612.474	20.85
612.666	20.96
612.858	21.19
613.051	21.31
613.243	21.24
613.435	21.43
613.627	21.44
613.819	21.62
614.011	21.85
614.203	21.59
614.395	21.43
614.588	21.55
614.78	21.57
614.972	21.45
615.164	21.42
615.356	21.42
615.548	21.4
615.74	21.39
615.932	21.35
616.124	21.07
616.315	21.39
616.507	21.53
616.699	21.43
616.891	21.41
617.083	21.46
617.275	21.46
617.467	21.6
617.659	21.45
617.85	21.55
618.042	21.64
618.234	21.9
618.426	21.85
618.618	21.93
618.809	21.99
619.001	22.19
619.193	22.14
619.384	22.03
619.576	21.98
619.768	22.04
619.959	21.92
620.151	22.05
620.343	21.88
620.534	21.87
620.726	21.81
620.917	21.78
621.109	21.67
621.301	21.65
621.492	21.75
621.684	21.73
621.875	21.93
622.067	22.03
622.258	21.82
622.45	21.91
622.641	21.88
622.832	21.89
623.024	21.92
623.215	21.85
623.407	21.84
623.598	21.85
623.789	22.03
623.981	21.87
624.172	21.82
624.363	21.84
624.555	21.94
624.746	22
624.937	22.18
625.129	22.25
625.32	22.56
625.511	22.61
625.702	22.38
625.893	22.36
626.085	22.42
626.276	22.49
626.467	22.47
626.658	22.43
626.849	22.45
627.04	22.37
627.231	22.38
627.422	22.3
627.614	22.36
627.805	22.69
627.996	22.84
628.187	22.82
628.378	22.95
628.569	22.97
628.76	22.88
628.951	23.02
629.142	22.92
629.332	22.85
629.523	22.75
629.714	22.72
629.905	22.86
630.096	22.69
630.287	22.71
630.478	22.43
630.669	22.61
630.859	22.68
631.05	22.4
631.241	22.29
631.432	22.26
631.623	22.14
631.813	22.26
632.004	21.97
632.195	21.86
632.385	21.94
632.576	21.99
632.767	21.65
632.957	21.75
633.148	22.04
633.339	22.23
633.529	22.38
633.72	22.52
633.91	22.44
634.101	22.66
634.292	22.82
634.482	22.83
634.673	22.98
634.863	23.34
635.054	23.16
635.244	23.22
635.435	23.23
635.625	23.12
635.815	23.02
636.006	23.06
636.196	23.11
636.387	23.09
636.577	23.1
636.767	23.05
636.958	23.02
637.148	23.26
637.338	23.09
637.529	23.23
637.719	23.29
637.909	23.34
638.099	23.35
638.29	23.32
638.48	23.19
638.67	23.16
638.86	23.24
639.05	23.23
639.241	23.18
639.431	23.3
639.621	23.23
639.811	23.27
640.001	23.4
640.191	23.38
640.381	23.4
640.571	23.36
640.761	23.41
640.951	23.39
641.141	23.51
641.331	23.69
641.521	23.59
641.711	23.59
641.901	23.71
642.091	23.55
642.281	23.77
642.471	23.52
642.661	23.58
642.851	23.71
643.041	23.6
643.231	23.45
643.42	23.06
643.61	22.96
643.8	23.17
643.99	23.11
644.18	23.2
644.369	23.09
644.559	23.17
644.749	23.59
644.939	23.53
645.128	23.78
645.318	23.72
645.508	23.76
645.697	23.89
645.887	23.58
646.076	23.6
646.266	23.7
646.456	23.53
646.645	23.74
646.835	23.52
647.024	23.5
647.214	23.39
647.403	23.62
647.593	23.88
647.782	24.01
647.972	24.1
648.161	24.03
648.351	24.1
648.54	24.23
648.73	24.2
648.919	24.16
649.108	24.06
649.298	24.05
649.487	23.99
649.677	24.02
649.866	23.85
650.055	23.99
650.244	24.01
650.434	23.95
650.623	23.94
650.812	23.97
651.002	23.95
651.191	23.87
651.38	23.86
651.569	23.75
651.758	23.71
651.947	23.81
652.137	23.76
652.326	23.83
652.515	23.74
652.704	23.87
652.893	23.99
653.082	24
653.271	24.12
653.46	24.24
653.649	24.3
653.838	24.38
654.027	24.53
654.216	24.58
654.405	24.63
654.594	24.67
654.783	24.56
654.972	24.39
655.161	24.45
655.35	24.39
655.539	24.37
655.728	24.42
655.916	24.32
656.105	24.08
656.294	23.97
656.483	23.78
656.672	24.15
656.86	24.13
657.049	24.21
657.238	24.26
657.427	24.37
657.615	24.58
657.804	24.53
657.993	24.55
658.181	24.78
658.37	24.87
658.559	24.95
658.747	24.65
658.936	24.67
659.125	24.65
659.313	24.6
659.502	24.64
659.69	24.45
659.879	24.56
660.067	24.76
660.256	24.7
660.444	24.77
660.633	24.69
660.821	24.99
661.01	25.17
661.198	25.16
661.387	25.2
661.575	25.11
661.763	25.12
661.952	25.09
662.14	24.84
662.328	24.83
662.517	24.72
662.705	24.96
662.893	24.68
663.082	24.37
663.27	24.42
663.458	24.4
663.646	24.59
663.834	24.5
664.023	24.77
664.211	25.13
664.399	25.01
664.587	24.95
664.775	24.82
664.963	24.97
665.152	25.45
665.34	25.68
665.528	26.09
665.716	26.1
665.904	26.16
666.092	26.21
666.28	26.17
666.468	26.41
666.656	26.49
666.844	26.62
667.032	26.61
667.22	26.59
667.408	26.6
667.596	26.26
667.784	26.18
667.971	26.32
668.159	25.99
668.347	25.77
668.535	25.35
668.723	25.43
668.911	25.24
669.098	25.28
669.286	25.19
669.474	24.87
669.662	24.92
669.849	24.97
670.037	24.9
670.225	25.15
670.413	25
670.6	25.49
670.788	25.38
670.976	25.44
671.163	25.4
671.351	25.41
671.538	25.57
671.726	25.58
671.913	25.57
672.101	25.52
672.289	25.44
672.476	25.54
672.664	25.49
672.851	25.54
673.039	25.75
673.226	25.65
673.413	25.51
673.601	25.36
673.788	25.51
673.976	25.45
674.163	25.5
674.35	25.35
674.538	25.52
674.725	25.56
674.912	25.75
675.1	25.6
675.287	25.76
675.474	25.53
675.662	25.45
675.849	25.61
676.036	25.78
676.223	25.88
676.411	25.72
676.598	25.53
676.785	25.38
676.972	25.18
677.159	25.21
677.346	25.14
677.533	25.38
677.721	25.64
677.908	25.48
678.095	25.25
678.282	25.24
678.469	25.58
678.656	25.68
678.843	25.72
679.03	25.99
679.217	26.02
679.404	26.02
679.591	25.94
679.778	25.99
679.964	25.86
680.151	26.12
680.338	26.13
680.525	26.12
680.712	26.08
680.899	26.17
681.086	26.11
681.272	26.16
681.459	26.53
681.646	26.65
681.833	26.54
682.02	26.62
682.206	26.53
682.393	26.45
682.58	26.33
682.766	26.38
682.953	26.45
683.14	26.34
683.326	26.6
683.513	26.64
683.7	26.66
683.886	26.84
684.073	27.02
684.259	26.98
684.446	27.39
684.632	27.62
684.819	27.9
685.005	27.92
685.192	28.17
685.378	27.75
685.565	27.28
685.751	27.28
685.938	27.45
686.124	27.46
686.31	27.51
686.497	27.24
686.683	27.03
686.87	26.75
687.056	26.55
687.242	26.42
687.429	26.55
687.615	26.6
687.801	26.67
687.987	26.33
688.174	26.18
688.36	26.31
688.546	26.35
688.732	26.39
688.918	26.53
689.105	26.69
689.291	26.48
689.477	26.61
689.663	26.77
689.849	26.54
690.035	26.86
690.221	26.83
690.407	26.96
690.593	26.71
690.779	26.8
690.965	26.85
691.151	26.87
691.337	26.98
691.523	27.07
691.709	27.28
691.895	27.65
692.081	27.84
692.267	27.82
692.453	27.41
692.639	27.51
692.825	27.29
693.011	27.19
693.196	27.13
693.382	27.28
693.568	27.34
693.754	26.94
693.94	26.67
694.125	26.48
694.311	26.51
694.497	26.7
694.682	26.76
694.868	27.01
695.054	26.98
695.239	26.94
695.425	27.03
695.611	26.83
695.796	27.11
695.982	27.01
696.168	26.78
696.353	26.98
696.539	26.79
696.724	27
696.91	26.91
697.095	27.04
697.281	26.81
697.466	26.86
697.652	26.99
697.837	26.94
698.023	26.97
698.208	27
698.393	26.92
698.579	27.02
698.764	26.87
698.949	27.13
699.135	27.05
699.32	27.41
699.505	27.03
699.691	26.79
699.876	26.93
700.061	27.21
700.246	26.93
700.432	26.77
700.617	26.66
700.802	26.09
700.987	25.86
701.172	26.05
701.358	25.61
701.543	25.89
701.728	26.11
701.913	25.62
702.098	25.43
702.283	25.9
702.468	25.96
702.653	25.96
702.838	26.65
703.023	26.44
703.208	26.54
703.393	26.38
703.578	26.51
703.763	26.44
703.948	26.55
704.133	27.09
704.318	27.22
704.503	27.07
704.688	27.3
704.873	27.54
705.057	27.76
705.242	27.55
705.427	27.63
705.612	27.56
705.797	27.42
705.981	27.6
706.166	27.24
706.351	26.92
706.536	27.27
706.72	27.24
706.905	27.29
707.09	26.95
707.274	26.89
707.459	27.49
707.644	27.5
707.828	27.89
708.013	27.72
708.197	27.47
708.382	27.42
708.567	27.14
708.751	27.22
708.936	27.25
709.12	27.75
709.305	27.94
709.489	27.92
709.673	27.86
709.858	27.9
710.042	28.45
710.227	28.57
710.411	28.99
710.596	29.29
710.78	29.47
710.964	29.1
711.149	29.01
711.333	29.13
711.517	28.75
711.702	29.16
711.886	28.76
712.07	28.23
712.254	27.81
712.438	27.66
712.623	27.52
712.807	27.24
712.991	27.49
713.175	27.27
713.359	27.18
713.544	27.51
713.728	27.15
713.912	27.35
714.096	27.22
714.28	27.85
714.464	27.78
714.648	27.8
714.832	28.28
715.016	28.33
715.2	28.33
715.384	28.42
715.568	28.48
715.752	28.63
715.936	28.82
716.12	29.15
716.304	28.95
716.488	28.97
716.671	29.28
716.855	28.73
717.039	28.33
717.223	28.38
717.407	28.16
717.59	27.76
717.774	27.4
717.958	27.1
718.142	26.99
718.325	27.08
718.509	26.89
718.693	26.88
718.877	27.43
719.06	27.71
719.244	27.92
719.428	27.72
719.611	28.18
719.795	28.65
719.978	29.17
720.162	29.27
720.345	29.13
720.529	29.34
720.713	28.97
720.896	28.46
721.08	28.5
721.263	28.15
721.446	28.12
721.63	28.11
721.813	28.21
721.997	27.52
722.18	27.08
722.364	27.24
722.547	27.14
722.73	27.12
722.914	27.4
723.097	27.7
723.28	28.24
723.464	28.48
723.647	27.7
723.83	27.49
724.013	27.82
724.197	28.38
724.38	28.37
724.563	28.38
724.746	28.38
724.929	28.22
725.112	28.26
725.296	28.16
725.479	28.21
725.662	28.83
725.845	28.82
726.028	28.33
726.211	27.69
726.394	27.31
726.577	26.8
726.76	27.2
726.943	26.5
727.126	26.17
727.309	25.6
727.492	25.48
727.675	25.26
727.858	25.2
728.041	25.65
728.224	26.27
728.407	26.63
728.589	27.33
728.772	26.4
728.955	27.44
729.138	27.55
729.321	27.91
729.503	27.84
729.686	28.12
729.869	27.99
730.052	27.86
730.234	27.76
730.417	27.51
730.6	27.39
730.782	27.77
730.965	27.66
731.148	27.38
731.33	27.52
731.513	27.25
731.695	27.58
731.878	28.22
732.061	28.34
732.243	28.82
732.426	28.63
732.608	28.77
732.791	28.83
732.973	28.73
733.156	28.89
733.338	28.78
733.52	29.27
733.703	29.05
733.885	28.27
734.068	27.81
734.25	27.14
734.432	27.63
734.615	27.65
734.797	28.08
734.979	28.19
735.162	27.91
735.344	27.42
735.526	27.15
735.708	26.92
735.891	27.1
736.073	27.65
736.255	28.11
736.437	27.56
736.619	27.57
736.802	27.63
736.984	27.68
737.166	27.95
737.348	28.54
737.53	28.52
737.712	28.53
737.894	28.48
738.076	28.66
738.258	28.59
738.44	28.89
738.622	29.05
738.804	29.29
738.986	29.23
739.168	29.69
739.35	30.19
739.532	30.5
739.714	30.44
739.896	30.5
740.078	30.53
740.259	30.35
740.441	30.77
740.623	30.36
740.805	30.22
740.987	30.11
741.168	29.73
741.35	29.31
741.532	29.43
741.714	29.54
741.895	29.86
742.077	29.48
742.259	29.53
742.44	29.53
742.622	29.98
742.804	29.36
742.985	29.34
743.167	29.32
743.348	28.86
743.53	29.06
743.711	28.9
743.893	28.54
744.075	28.81
744.256	28.42
744.438	28.17
744.619	27.69
744.8	27.73
744.982	27.39
745.163	27.32
745.345	28.01
745.526	27.9
745.707	28.11
745.889	28.98
746.07	28.93
746.252	29.34
746.433	29.43
746.614	29.84
746.795	30.01
746.977	30.31
747.158	30.7
747.339	30.76
747.52	30.35
747.702	30.52
747.883	30.21
748.064	30.19
748.245	30.58
748.426	30.25
748.607	29.38
748.788	29.25
748.97	29.44
749.151	28.3
749.332	27.84
749.513	27.87
749.694	27.94
749.875	28.71
750.056	28.52
750.237	28.14
750.418	28.81
750.599	29.42
750.78	29.22
750.96	28.96
751.141	29.82
751.322	29.92
751.503	29.84
751.684	30.15
751.865	29.25
752.046	30.35
752.226	30.91
752.407	31.05
752.588	31.44
752.769	32.14
752.949	31.63
753.13	31.87
753.311	32.43
753.492	32.32
753.672	32.03
753.853	31.5
754.034	30.61
754.214	30.07
754.395	29.64
754.575	29.16
754.756	29.08
754.937	29.53
755.117	29.3
755.298	29.07
755.478	29.58
755.659	29.54
755.839	29.87
756.02	29.94
756.2	29.77
756.381	29.7
756.561	30.27
756.741	30.23
756.922	30.11
757.102	29.71
757.283	29.66
757.463	29.49
757.643	29.68
757.823	29.74
758.004	29.79
758.184	29.97
758.364	30.2
758.545	30.16
758.725	29.05
758.905	29.54
759.085	29.94
759.265	29.83
759.446	29.61
759.626	29.4
759.806	29.25
759.986	29.51
760.166	29.47
760.346	29.75
760.526	29.24
760.706	30.06
760.886	29.64
761.066	29.9
761.246	30.17
761.426	30.99
761.606	30.73
761.786	30.45
761.966	29.92
762.146	30
762.326	29.71
762.506	29.92
762.686	29.86
762.866	30.15
763.046	29.65
763.225	29.38
763.405	29.3
763.585	29.24
763.765	29.26
763.945	29.36
764.124	29.29
764.304	29.23
764.484	29.35
764.664	29.18
764.843	29.37
765.023	29.74
765.203	29.58
765.382	28.8
765.562	28.48
765.741	28.75
765.921	28.43
766.101	28.71
766.28	28.99
766.46	28.64
766.639	28.76
766.819	28.64
766.998	28.19
767.178	28.64
767.357	29.45
767.537	30.1
767.716	29.82
767.896	30.22
768.075	29.81
768.254	28.71
768.434	29.3
768.613	29.41
768.792	28.84
768.972	30.18
769.151	29.78
769.33	29.41
769.51	29.24
769.689	29.38
769.868	29.88
770.047	29.98
770.226	31.34
770.406	31.78
770.585	31.49
770.764	32.09
770.943	30.96
771.122	31.29
771.301	31.28
771.48	31.42
771.66	32.59
771.839	31.88
772.018	31.48
772.197	31.47
772.376	31.52
772.555	31.95
772.734	31.37
772.913	31.53
773.092	31.2
773.271	31.51
773.449	31.72
773.628	30.54
773.807	31.38
773.986	32.07
774.165	32.01
774.344	31.43
774.523	31.67
774.701	32.12
774.88	31.76
775.059	31.17
775.238	30.8
775.417	29.46
775.595	29.73
775.774	28.78
775.953	28.27
776.131	28.15
776.31	27.88
776.489	28.51
776.667	28.55
776.846	29.11
777.025	29.37
777.203	29.36
777.382	31.12
777.56	31.68
777.739	32.41
777.917	32.17
778.096	32.29
778.274	32.36
778.453	30.89
778.631	31.39
778.81	30.77
778.988	31.56
779.166	31.83
779.345	32.37
779.523	32.19
779.702	31.57
779.88	32.47
780.058	32.29
780.237	32.55
780.415	33.46
780.593	32.54
780.771	33.35
780.95	33.48
781.128	33.5
781.306	31.94
781.484	31.95
781.662	32.65
781.841	31.95
782.019	32.56
782.197	32.02
782.375	31.75
782.553	32.57
782.731	32.89
782.909	32.15
783.087	32.53
783.265	32.6
783.443	31.56
783.621	31.07
783.799	31.11
783.977	30.41
784.155	30.38
784.333	30.32
784.511	29.27
784.689	28.75
784.867	29.03
785.045	28.58
785.223	28.87
785.4	29.64
785.578	29.66
785.756	30.46
785.934	30.52
786.112	30.45
786.289	29.95
786.467	30.95
786.645	30.96
786.823	31.05
787	30.21
787.178	30.87
787.356	30.57
787.533	30.52
787.711	30.69
787.889	31.01
788.066	30.75
788.244	31.19
788.421	29.85
788.599	29
788.776	29.64
788.954	29.44
789.131	28.87
789.309	29.45
789.486	29.98
789.664	28.86
789.841	29.38
790.019	30.03
790.196	30.55
790.373	30.63
790.551	31.16
790.728	30.7
790.906	31.79
791.083	31.62
791.26	31.46
791.437	31.5
791.615	31.71
791.792	30.49
791.969	29.2
792.146	29.33
792.324	29.26
792.501	29.67
792.678	29.44
792.855	29.12
793.032	28.91
793.209	30.23
793.387	29.69
793.564	29.93
793.741	29.66
793.918	31.16
794.095	30.59
794.272	30.53
794.449	30.2
794.626	30.13
794.803	30.23
794.98	30.51
795.157	29.37
795.334	29.52
795.511	28.24
795.688	28.85
795.864	27.95
796.041	28.13
796.218	29.19
796.395	29.65
796.572	29.96
796.749	30.09
796.925	29.68
797.102	29.43
797.279	29.04
797.456	29.56
797.632	29.78
797.809	30.41
797.986	29.95
798.162	29.14
798.339	29.05
798.516	28.92
798.692	28.5
798.869	28.75
799.046	29.16
799.222	29.73
799.399	30.93
799.575	30.4
799.752	29.64
799.928	29.28
800.105	30.28
800.281	30.56
800.458	31.21
800.634	31.4
800.811	31.08
800.987	31.69
801.163	30.72
801.34	30.25
801.516	30.35
801.692	31.03
801.869	31.52
802.045	30.91
802.221	31.09
802.398	31.3
802.574	32.06
802.75	32.6
802.926	31.83
803.103	34.2
803.279	33.52
803.455	34.01
803.631	34.97
803.807	35.04
803.983	36.41
804.16	35.26
804.336	33.34
804.512	32.88
804.688	33.49
804.864	32.57
805.04	30.51
805.216	30.71
805.392	29.3
805.568	28.18
805.744	28.66
805.92	27.96
806.096	27.99
806.272	28.82
806.448	28.61
806.623	28.91
806.799	29.42
806.975	29.65
807.151	29.52
807.327	30.73
807.503	30.85
807.678	31.17
807.854	30.92
808.03	30.96
808.206	29.9
808.381	30.2
808.557	29.34
808.733	29.74
808.908	31.3
809.084	31.62
809.26	32.33
809.435	31.63
809.611	31.04
809.787	30.5
809.962	29.81
810.138	31.01
810.313	31.17
810.489	31.51
810.664	31.61
810.84	30.31
811.015	30.42
811.191	28.98
811.366	30.12
811.542	29.27
811.717	29.74
811.892	30.47
812.068	31.38
812.243	31.6
812.419	31.02
812.594	29.93
812.769	29.68
812.944	29.32
813.12	29.79
813.295	29.91
813.47	31.09
813.645	30.59
813.821	30.56
813.996	28.5
814.171	27.66
814.346	26.95
814.521	28.9
814.697	28.78
814.872	29.99
815.047	29.81
815.222	30.22
815.397	30.47
815.572	29.94
815.747	29.98
815.922	30.87
816.097	32.18
816.272	32.25
816.447	30.53
816.622	29.94
816.797	30.31
816.972	29.96
817.147	29.23
817.322	28.14
817.496	28.44
817.671	28.54
817.846	28.71
818.021	28.2
818.196	29.64
818.371	29.35
818.545	30.53
818.72	30.91
818.895	31.6
819.069	31.59
819.244	31.79
819.419	32.15
819.594	31.66
819.768	32.61
819.943	31.61
820.117	30.98
820.292	30.96
820.467	30.9
820.641	30.68
820.816	30.81
820.99	30.56
821.165	30.73
821.339	30.95
821.514	30.9
821.688	30.64
821.863	30.78
822.037	30.95
822.212	31.13
822.386	31.09
822.56	31.12
822.735	31.03
822.909	31.17
823.084	31.16
823.258	30.64
823.432	30.93
823.606	30.93
823.781	31
823.955	30.9
824.129	31.16
824.303	31.21
824.478	30.99
824.652	30.58
824.826	30.21
825	30.36
825.174	30.93
825.348	30.89
825.523	30.72
825.697	30.61
825.871	30.9
826.045	30.47
826.219	30.07
826.393	30.23
826.567	30.52
826.741	30.83
826.915	30.76
827.089	30.87
827.263	30.84
827.437	30.76
827.611	30.85
827.784	30.43
827.958	30.63
828.132	31.04
828.306	31.09
828.48	31.48
828.654	31.58
828.827	30.74
829.001	30.4
829.175	30.36
829.349	30.39
829.522	29.95
829.696	30.18
829.87	30.17
830.044	30.46
830.217	30.36
830.391	30.14
830.565	30.77
830.738	31.91
830.912	32.7
831.085	31.99
831.259	32.59
831.432	34.04
831.606	33.31
831.779	33.07
831.953	32.02
832.126	32.65
832.3	32.62
832.473	31.56
832.647	31.29
832.82	31.62
832.994	32.16
833.167	32.47
833.34	30.86
833.514	31.47
833.687	31.19
833.86	32.03
834.034	31.38
834.207	31.71
834.38	31.38
834.553	31.84
834.727	31.78
834.9	31.89
835.073	30.82
835.246	32.68
835.419	32.8
835.593	33.47
835.766	32.31
835.939	31.89
836.112	31.65
836.285	31.73
836.458	32.12
836.631	31.08
836.804	31.49
836.977	33.14
837.15	32.06
837.323	32.01
837.496	30.95
837.669	31.04
837.842	32.11
838.015	31.9
838.188	33.33
838.361	31.81
838.533	32.04
838.706	31.44
838.879	29.37
839.052	29.33
839.225	28.3
839.398	28.07
839.57	28.27
839.743	28.75
839.916	28.39
840.088	28.78
840.261	29.48
840.434	31.03
840.607	30.94
840.779	33.72
840.952	34.13
841.124	33.72
841.297	33.68
841.47	35.62
841.642	34.26
841.815	34.7
841.987	35.83
842.16	35.85
842.332	35.04
842.505	35.23
842.677	33.86
842.85	32.37
843.022	34
843.194	33.92
843.367	33.35
843.539	34.21
843.712	32.99
843.884	30.42
844.056	31.66
844.229	31.83
844.401	28.71
844.573	27.31
844.745	30.58
844.918	30.23
845.09	33.65
845.262	32.18
845.434	31.02
845.606	33.89
845.779	34.64
845.951	31.83
846.123	32.73
846.295	35.19
846.467	33.46
846.639	33.5
846.811	33.1
846.983	32.31
847.155	33.2
847.327	37.79
847.499	34.4
847.671	34.7
847.843	37.4
848.015	37.94
848.187	38.09
848.359	41.19
848.531	32.62
848.703	31.54
848.875	30.74
849.047	32.51
849.218	26.77
849.39	29.04
849.562	28.78
849.734	28.76
849.905	28.56
850.077	26.35
850.249	26.36
850.421	31.63
850.592	32.53
850.764	31.26
850.936	33.09
851.107	33.51
851.279	31.18
851.451	34.61
851.622	32.97
851.794	30.7
851.965	32.02
852.137	34.6
852.308	34.17
852.48	39.94
852.651	36.58
852.823	33.48
852.994	35.38
853.166	35.82
853.337	30.98
853.509	31.32
853.68	31.28
853.851	33.37
854.023	29.72
854.194	36.09
854.365	30.3
854.537	32.14
854.708	33.29
854.879	35.35
855.05	33.07
855.222	34.51
855.393	33.08
855.564	30.77
855.735	29.05
855.906	31.14
856.078	26.1
856.249	29.2
856.42	28.74
856.591	34.5
856.762	31.47
856.933	33.53
857.104	29.45
857.275	31.68
857.446	37.77
857.617	40.81
857.788	42.25
857.959	47.25
858.13	43.89
858.301	46.63
858.472	39.77
858.643	39.99
858.814	39.21
858.985	40.36
859.155	40.98
859.326	39.14
859.497	33.84
859.668	29.34
859.839	30.42
860.009	25.65
860.18	19.74
860.351	17.59
860.522	16.58
860.692	15.96
860.863	16.64
861.034	13.48
861.204	14.13
861.375	18.97
861.546	21.74
861.716	15.65
861.887	19.66
862.057	24.34
862.228	27
862.398	30.38
862.569	32.33
862.739	33.42
862.91	35.21
863.08	31.8
863.251	30.23
863.421	25.47
863.592	31.25
863.762	39.18
863.932	39.98
864.103	40.78
864.273	38.91
864.443	40.28
864.614	37.84
864.784	35.33
864.954	35.31
865.125	35.86
865.295	40.06
865.465	37.69
865.635	34.11
865.805	31.47
865.976	28.28
866.146	26.5
866.316	26.36
866.486	29.16
866.656	29.91
866.826	33.62
866.996	31.84
867.166	33.44
867.336	36.27
867.506	35.43
867.676	40.59
867.846	35.14
868.016	40.32
868.186	36.66
868.356	33.21
868.526	33.15
868.696	33.94
868.866	34.14
869.036	29.48
869.206	28.76
869.376	24.92
869.545	15.12
869.715	25.92
869.885	25.56
870.055	24.93
870.224	27.52
870.394	28.15
870.564	27.24
870.734	34.12
870.903	38.22
871.073	38.14
871.243	38.8
871.412	44.9
871.582	42.88
871.751	41.16
871.921	49.46
872.091	48.24
872.26	44.95
872.43	43.61
872.599	37.93
872.769	33.55
872.938	33.71
873.108	39.96
873.277	40.01
873.446	35.12
873.616	29.77
873.785	30.91
873.955	32.3
874.124	35.33
874.293	32.77
874.463	33.29
874.632	37.62
874.801	36.32
874.971	24.24
875.14	26.18
875.309	28.42
875.478	33.48
875.647	29.63
875.817	29.57
875.986	30.97
876.155	33.37
876.324	34.41
876.493	31.77
876.662	29.33
876.831	34.55
877	32.89
877.17	33
877.339	31.79
877.508	31.19
877.677	33.68
877.846	33.77
878.015	34.37
878.184	30.01
878.352	26.01
878.521	26.94
878.69	24.22
878.859	25.84
879.028	26.93
879.197	26.81
879.366	24.86
879.534	23.76
879.703	25.4
879.872	26.21
880.041	29.07
880.21	31.47
880.378	32.87
880.547	34.06
880.716	33.44
880.884	34.21
881.053	34.07
881.222	35.69
881.39	36.01
881.559	34.6
881.727	34.5
881.896	34.31
882.065	34.6
882.233	34.27
882.402	34.02
882.57	34.27
882.739	34.13
882.907	34.11
883.076	33.26
883.244	32.78
883.412	33.6
883.581	33.42
883.749	33.3
883.918	33.29
884.086	32.72
884.254	32.96
884.423	32.3
884.591	32.28
884.759	31.91
884.927	32.11
885.096	32.6
885.264	32.2
885.432	32.07
885.6	32.45
885.769	30.9
885.937	32.14
886.105	32.28
886.273	33.07
886.441	32.94
886.609	35.15
886.777	36.81
886.945	37.09
887.113	36.98
887.281	35.26
887.449	34.78
887.617	36.6
887.785	34.45
887.953	36.81
888.121	36.66
888.289	35.81
888.457	31.48
888.625	26.83
888.793	25.47
888.961	26.02
889.129	29.86
889.296	31.4
889.464	31.39
889.632	33.5
889.8	28.3
889.967	27.24
890.135	27.11
