Data from CB_042_Reflection_00001.txt Node
Date: Wed Nov 11 22:05:06 EST 2015
User: robert
Spectrometer: USB4E03001
Autoset integration time: false
Trigger mode: 4
Integration Time (sec): 1.000000E-1
Scans to average: 15
Electric dark correction enabled: true
Nonlinearity correction enabled: false
Boxcar width: 5
Stray light correction enabled: false
XAxis mode: Wavelengths
Stop averaging: false
Number of Pixels in Spectrum: 3648
>>>>>Begin Spectral Data<<<<<
177.566	69.89
177.785	205.92
178.005	123.59
178.225	-72.7
178.445	20.77
178.665	-46.78
178.885	66.21
179.105	-10.01
179.324	5.9
179.544	0.65
179.764	39.76
179.984	51.46
180.204	31.95
180.423	27.66
180.643	52.05
180.863	35.23
181.083	11.54
181.302	36.3
181.522	24.62
181.742	27.54
181.961	36.61
182.181	41.6
182.401	52.19
182.621	72.65
182.84	55.82
183.06	61.57
183.279	70.03
183.499	81.54
183.719	69.78
183.938	94.66
184.158	114.75
184.377	98.31
184.597	91.92
184.816	87.9
185.036	61.83
185.256	66.12
185.475	62.84
185.695	40.35
185.914	0.58
186.134	25.49
186.353	0.52
186.572	-16.04
186.792	-55.9
187.011	-45.12
187.231	-39.77
187.45	-56.17
187.67	-47.23
187.889	-31.08
188.108	5.96
188.328	17.27
188.547	12.12
188.766	9.26
188.986	-19.09
189.205	-11.29
189.424	-11.67
189.644	-40.34
189.863	-35.29
190.082	-3.66
190.302	-10.18
190.521	-23.95
190.74	-9.7
190.959	6.18
191.178	10.11
191.398	22.09
191.617	34.35
191.836	32.92
192.055	24.07
192.274	22.05
192.494	-9.71
192.713	-4.34
192.932	11.28
193.151	-11.07
193.37	-30.52
193.589	2.91
193.808	-8.16
194.027	12.45
194.246	19.42
194.465	40.64
194.685	37.15
194.904	39
195.123	23.99
195.342	7.62
195.561	21.42
195.78	26.58
195.999	1.52
196.218	19.32
196.436	6.07
196.655	17.3
196.874	33.41
197.093	68.2
197.312	74.71
197.531	102.28
197.75	98.3
197.969	92.88
198.188	73.37
198.407	61.61
198.625	57.55
198.844	41.78
199.063	30.22
199.282	29.87
199.501	9.02
199.719	8.18
199.938	-2.47
200.157	-13.66
200.376	18.87
200.594	51.46
200.813	70.31
201.032	55.59
201.251	128.65
201.469	105.47
201.688	72.52
201.907	67.29
202.125	36.49
202.344	31.16
202.563	30.91
202.781	41.57
203	38.52
203.218	21.55
203.437	32.61
203.656	26.05
203.874	30.78
204.093	29.94
204.311	39.07
204.53	25.12
204.748	24.9
204.967	21.15
205.185	-6.54
205.404	-19.88
205.622	-10.34
205.841	15.74
206.059	5.6
206.278	17.73
206.496	26.32
206.715	23.04
206.933	55.31
207.151	63.02
207.37	63.38
207.588	70.78
207.806	79.78
208.025	74.56
208.243	63.78
208.461	62.76
208.68	52.56
208.898	57.4
209.116	42.49
209.335	38.25
209.553	25.36
209.771	15.59
209.989	15.87
210.208	0.48
210.426	11.11
210.644	10.82
210.862	25.1
211.081	60.64
211.299	63.45
211.517	102.23
211.735	65.04
211.953	76.62
212.171	93.61
212.39	93.53
212.608	78.04
212.826	60.77
213.044	77.73
213.262	59.17
213.48	36.96
213.698	30.49
213.916	16.75
214.134	43.01
214.352	24.88
214.57	16.12
214.788	18.3
215.006	47.84
215.224	51.77
215.442	2.18
215.66	17.13
215.878	18.78
216.096	29.91
216.314	35.76
216.532	37.45
216.75	36.86
216.968	62.18
217.185	49.81
217.403	54.62
217.621	49.14
217.839	55.74
218.057	56.72
218.275	63.1
218.492	62.6
218.71	51.44
218.928	35.59
219.146	36.25
219.363	25.79
219.581	20.61
219.799	-3.45
220.017	21.08
220.234	8.72
220.452	13.22
220.67	17.99
220.887	6.45
221.105	-21.85
221.323	-21.38
221.54	-15.11
221.758	-3.37
221.976	12.98
222.193	27.87
222.411	22.61
222.629	20.57
222.846	16.2
223.064	13
223.281	27.97
223.499	41.23
223.716	50.88
223.934	54.62
224.151	45.5
224.369	36.94
224.586	30.82
224.804	22.56
225.021	27.91
225.239	26.52
225.456	33.18
225.674	28.62
225.891	36.12
226.108	24.02
226.326	11.08
226.543	14.42
226.76	19.48
226.978	12.88
227.195	14.46
227.413	10.67
227.63	11.6
227.847	12.36
228.064	12.13
228.282	8.58
228.499	11.98
228.716	12.8
228.934	13.19
229.151	10.4
229.368	10.46
229.585	12.15
229.802	10.66
230.02	8.88
230.237	8.67
230.454	8.5
230.671	6.12
230.888	4.5
231.105	6.87
231.323	7.3
231.54	12.83
231.757	11.73
231.974	9.87
232.191	13.87
232.408	16.03
232.625	14.61
232.842	14.51
233.059	16.04
233.276	18.44
233.493	14.11
233.71	16.05
233.927	12.98
234.144	13.51
234.361	8.51
234.578	10.19
234.795	11.19
235.012	13.08
235.229	12.57
235.446	18.72
235.663	16.29
235.879	15.42
236.096	13.19
236.313	13.98
236.53	13.25
236.747	24.59
236.964	23.59
237.181	22.44
237.397	17.29
237.614	15.31
237.831	11.3
238.048	12.57
238.264	15.82
238.481	15.61
238.698	13.8
238.915	17
239.131	12.54
239.348	13.15
239.565	16.29
239.781	17.84
239.998	20.78
240.215	24.17
240.431	24.22
240.648	23.71
240.865	18.78
241.081	19.9
241.298	17.29
241.514	15.53
241.731	15.27
241.947	12.62
242.164	13.21
242.38	13.75
242.597	12.65
242.814	12.61
243.03	12.97
243.246	13.83
243.463	12.68
243.679	14.83
243.896	17.26
244.112	16.57
244.329	21.13
244.545	20.8
244.762	19.5
244.978	18.11
245.194	18.88
245.411	19.21
245.627	20.05
245.843	20.01
246.06	18.35
246.276	15.7
246.492	13.99
246.709	10.95
246.925	12.97
247.141	13.33
247.357	13.26
247.574	12.35
247.79	10.92
248.006	11.5
248.222	12.25
248.439	12.06
248.655	13.41
248.871	13.99
249.087	13.87
249.303	13.24
249.519	12.56
249.736	12.07
249.952	11.57
250.168	14.52
250.384	12.81
250.6	10.8
250.816	12.68
251.032	8.5
251.248	11.75
251.464	11.93
251.68	11.29
251.896	11.49
252.112	12.7
252.328	13.42
252.544	10.97
252.76	10.59
252.976	10.06
253.192	7.75
253.408	9.03
253.624	8.41
253.84	8.46
254.056	7.09
254.272	7.79
254.487	6.42
254.703	6.05
254.919	7.69
255.135	6.88
255.351	6.65
255.567	8
255.782	10.1
255.998	6.46
256.214	7.23
256.43	10.07
256.646	9.93
256.861	9.46
257.077	11.18
257.293	10.15
257.508	13.14
257.724	14.2
257.94	14.96
258.155	12.46
258.371	12.63
258.587	13.67
258.802	12.8
259.018	12.89
259.234	12.3
259.449	11.84
259.665	12.18
259.88	11.75
260.096	11.19
260.312	10.19
260.527	10.67
260.743	10.61
260.958	9.4
261.174	9.03
261.389	8.14
261.605	8.77
261.82	8.21
262.036	8.34
262.251	8.93
262.466	9.89
262.682	11.5
262.897	10.94
263.113	11.32
263.328	12.82
263.543	12.28
263.759	13.07
263.974	13.86
264.189	14.55
264.405	11.63
264.62	8.82
264.835	8.11
265.051	6.43
265.266	8.06
265.481	8.51
265.696	8.84
265.912	8.71
266.127	9.01
266.342	8.51
266.557	9.02
266.773	9.67
266.988	11.28
267.203	9.93
267.418	10.56
267.633	10.33
267.848	10.5
268.064	9.77
268.279	10.41
268.494	10.1
268.709	10.49
268.924	11.48
269.139	13.53
269.354	12.78
269.569	13.78
269.784	13.96
269.999	13.6
270.214	12.62
270.429	11.77
270.644	12.45
270.859	12.45
271.074	11.23
271.289	9.76
271.504	9.69
271.719	9.59
271.934	9.13
272.149	8.64
272.363	8.7
272.578	9.33
272.793	9.76
273.008	9.5
273.223	9.15
273.438	9.39
273.653	10.54
273.867	9.46
274.082	9.41
274.297	9.89
274.512	11.25
274.726	10.42
274.941	11.33
275.156	12.38
275.371	10.73
275.585	10.69
275.8	10.7
276.015	9.43
276.229	9.65
276.444	9.84
276.659	9.51
276.873	9.18
277.088	11.66
277.302	10.82
277.517	9.56
277.732	11.57
277.946	11.87
278.161	12.83
278.375	13.55
278.59	13.4
278.804	14.84
279.019	15.25
279.233	13.76
279.448	12.14
279.662	11.96
279.877	11.96
280.091	12.09
280.306	13.12
280.52	12.11
280.735	11.24
280.949	11.11
281.163	11.06
281.378	10.55
281.592	10.46
281.806	10.92
282.021	10.08
282.235	10.87
282.449	10.06
282.664	8.08
282.878	8.15
283.092	8.23
283.307	9.35
283.521	8.02
283.735	9.15
283.949	10.4
284.164	9.87
284.378	9.41
284.592	8.35
284.806	9.17
285.02	10.03
285.234	10.68
285.449	11.12
285.663	10.41
285.877	10.71
286.091	9.9
286.305	9.29
286.519	9.5
286.733	10.01
286.947	10.8
287.161	9.79
287.375	9.55
287.589	10.1
287.803	9.48
288.017	9.18
288.231	9.68
288.445	10.3
288.659	9.55
288.873	11.04
289.087	11.72
289.301	11.78
289.515	13.01
289.729	14.07
289.943	13.78
290.157	13.84
290.371	13.58
290.584	13.6
290.798	13.58
291.012	14.43
291.226	13.48
291.44	13.59
291.654	13.27
291.867	12.42
292.081	10.95
292.295	10.76
292.509	9.44
292.722	10.54
292.936	9.51
293.15	9.45
293.364	9.48
293.577	9.69
293.791	9.74
294.005	9.45
294.218	10.03
294.432	11.92
294.645	12.07
294.859	13.06
295.073	12.26
295.286	12.79
295.5	11.55
295.713	11.09
295.927	10.29
296.14	9.81
296.354	9.68
296.568	9.18
296.781	8.42
296.994	8.12
297.208	8.83
297.421	8.93
297.635	8.55
297.848	8.69
298.062	8.81
298.275	9.37
298.489	9.87
298.702	10.04
298.915	10.72
299.129	12.08
299.342	11.69
299.555	12.05
299.769	12.71
299.982	12.69
300.195	14.08
300.409	14.46
300.622	13.52
300.835	12.89
301.048	12.75
301.262	11.96
301.475	10.4
301.688	10.96
301.901	10.38
302.115	10.34
302.328	10.9
302.541	10.09
302.754	9.73
302.967	9.65
303.18	11.14
303.393	11.56
303.607	12.56
303.82	12.65
304.033	12.53
304.246	11.67
304.459	11.33
304.672	11.18
304.885	11.71
305.098	12.17
305.311	12.07
305.524	10.48
305.737	11.79
305.95	10.88
306.163	11.29
306.376	12.18
306.589	13.34
306.802	13.39
307.015	14.01
307.228	12.25
307.44	12.03
307.653	13.61
307.866	13
308.079	11.25
308.292	10.52
308.505	10.06
308.718	9.27
308.93	9.83
309.143	9.41
309.356	8.83
309.569	10.8
309.781	11.07
309.994	10.6
310.207	11.67
310.42	11.86
310.632	13.26
310.845	13.6
311.058	13.24
311.27	12.98
311.483	13.21
311.696	13.37
311.908	13.43
312.121	12.14
312.333	12.29
312.546	12.03
312.759	12.18
312.971	11.92
313.184	11.54
313.396	11.09
313.609	11.04
313.821	11.28
314.034	11.9
314.246	11.53
314.459	12.96
314.671	12.28
314.884	12.51
315.096	13.08
315.309	10.91
315.521	9.89
315.733	11.23
315.946	10.29
316.158	10.09
316.371	8.91
316.583	7.68
316.795	6.96
317.008	7.34
317.22	6.37
317.432	5.93
317.644	7.56
317.857	8.94
318.069	8.26
318.281	7.43
318.494	7.83
318.706	9.02
318.918	10.27
319.13	10.47
319.342	10.09
319.555	10.33
319.767	9.7
319.979	9.4
320.191	9.59
320.403	9.98
320.615	10.35
320.827	9.79
321.039	8.64
321.252	7.53
321.464	8.07
321.676	8.18
321.888	9
322.1	8.7
322.312	8.59
322.524	8.72
322.736	8.49
322.948	8.69
323.16	8.2
323.372	8.02
323.584	8.74
323.796	8.74
324.007	8.84
324.219	9.29
324.431	9.27
324.643	9.38
324.855	8.6
325.067	8
325.279	8.73
325.491	9.83
325.702	9.8
325.914	9.81
326.126	9.32
326.338	8.71
326.55	7.45
326.761	9.21
326.973	8.83
327.185	9.56
327.396	9.75
327.608	9.35
327.82	8.94
328.032	9.45
328.243	9.28
328.455	9.91
328.666	11.01
328.878	10.98
329.09	9.79
329.301	9.79
329.513	8.44
329.725	8.64
329.936	9.96
330.148	9.39
330.359	8.58
330.571	8.49
330.782	7.4
330.994	6.41
331.205	6.79
331.417	7.18
331.628	8.85
331.84	8.8
332.051	9.17
332.262	7.54
332.474	8.59
332.685	9.07
332.897	8.15
333.108	9.5
333.319	9.8
333.531	10.04
333.742	10.08
333.953	9.49
334.165	9.99
334.376	10.43
334.587	11.06
334.799	10.72
335.01	11.6
335.221	12.67
335.432	12.51
335.644	12.23
335.855	13
336.066	13.17
336.277	13.26
336.488	13.07
336.7	12.07
336.911	11.83
337.122	11.47
337.333	10.38
337.544	10.59
337.755	10.8
337.966	11.35
338.177	10.33
338.388	9.56
338.599	9.44
338.811	8.72
339.022	8.75
339.233	9.57
339.444	9.87
339.655	10.55
339.866	10.08
340.076	9.98
340.287	10.82
340.498	10.82
340.709	10.9
340.92	11.56
341.131	12.41
341.342	13.07
341.553	12.34
341.764	12.19
341.975	11.57
342.185	11.46
342.396	11.66
342.607	11.46
342.818	11.3
343.029	11.34
343.239	11.12
343.45	11.24
343.661	10.97
343.872	11
344.082	10.26
344.293	10.82
344.504	10.25
344.714	10.21
344.925	8.71
345.136	8.98
345.346	9.85
345.557	9.25
345.768	8.57
345.978	9.03
346.189	9.39
346.399	9.73
346.61	9.72
346.821	10.52
347.031	9.69
347.242	10.89
347.452	11.3
347.663	10.88
347.873	11.14
348.084	12.35
348.294	12.03
348.504	11.6
348.715	12.19
348.925	11.7
349.136	11.29
349.346	11.26
349.557	11.02
349.767	11.05
349.977	10.63
350.188	10.09
350.398	8.99
350.608	8.53
350.819	8.62
351.029	7.89
351.239	7.78
351.449	7.9
351.66	7.2
351.87	7.53
352.08	7.43
352.29	7.7
352.501	8.95
352.711	9.37
352.921	9.78
353.131	9.7
353.341	9.65
353.552	10.13
353.762	9.7
353.972	11.01
354.182	9.78
354.392	9.92
354.602	9.65
354.812	8.27
355.022	8.49
355.232	8.43
355.442	9.28
355.652	9.89
355.862	10
356.072	10.21
356.282	9.48
356.492	10.44
356.702	10.42
356.912	10.44
357.122	10.54
357.332	10.8
357.542	10.91
357.752	9.96
357.962	9.5
358.171	9.49
358.381	9.55
358.591	9.67
358.801	9.31
359.011	8.56
359.221	8.95
359.43	9.02
359.64	8.09
359.85	7.69
360.06	7.78
360.269	7.97
360.479	7.84
360.689	7.68
360.899	7.89
361.108	7.99
361.318	8.32
361.528	8.5
361.737	8.1
361.947	8.46
362.156	8.29
362.366	8.62
362.576	8.64
362.785	8.71
362.995	8.63
363.204	8.34
363.414	8.43
363.623	8.44
363.833	7.86
364.042	8.09
364.252	8.43
364.461	8.69
364.671	8.43
364.88	8.83
365.09	8.42
365.299	8.94
365.509	8.99
365.718	9.21
365.927	9.16
366.137	8.99
366.346	9.27
366.555	8.93
366.765	9.06
366.974	8.9
367.183	8.4
367.393	8.68
367.602	8.16
367.811	8.66
368.021	8.31
368.23	7.61
368.439	7.77
368.648	7.49
368.857	7.18
369.067	6.88
369.276	7.3
369.485	7.53
369.694	7.77
369.903	7.95
370.112	7.21
370.321	7.1
370.531	8.02
370.74	7.81
370.949	8.09
371.158	8.2
371.367	8.4
371.576	8.38
371.785	8.23
371.994	8.28
372.203	8.36
372.412	9.13
372.621	8.72
372.83	7.43
373.039	7.35
373.248	7.38
373.457	7.85
373.666	7.74
373.874	7.09
374.083	6.58
374.292	6.03
374.501	5.95
374.71	5.52
374.919	5.88
375.128	6.84
375.336	6.75
375.545	6.87
375.754	6.85
375.963	6.77
376.171	6.94
376.38	6.94
376.589	7.12
376.798	6.91
377.006	6.36
377.215	6.59
377.424	6.66
377.632	7.05
377.841	6.71
378.05	6.36
378.258	6.19
378.467	6.28
378.675	6.56
378.884	6.27
379.093	6.16
379.301	6.4
379.51	6.34
379.718	6.85
379.927	6.4
380.135	6.29
380.344	5.8
380.552	5.82
380.761	5.46
380.969	5.35
381.177	5.55
381.386	5.63
381.594	5.44
381.803	5.14
382.011	4.53
382.219	4.54
382.428	5.05
382.636	5.41
382.845	5.65
383.053	5.65
383.261	5.65
383.469	5.59
383.678	5.66
383.886	5.63
384.094	5.63
384.302	6
384.511	6.23
384.719	5.76
384.927	5.75
385.135	5.81
385.343	6.15
385.552	6.39
385.76	6.32
385.968	6.15
386.176	6.43
386.384	6.33
386.592	6.22
386.8	6.37
387.008	6.83
387.216	7.07
387.424	7.17
387.633	6.77
387.841	6.37
388.049	5.91
388.257	6.16
388.465	6.07
388.672	5.75
388.88	5.62
389.088	5.25
389.296	5
389.504	4.46
389.712	4.03
389.92	4.12
390.128	4.05
390.336	4.16
390.544	4.03
390.751	4.2
390.959	4.59
391.167	4.24
391.375	4.15
391.583	4.11
391.79	4.28
391.998	4.48
392.206	4.54
392.414	4.69
392.621	4.78
392.829	4.93
393.037	4.77
393.244	4.88
393.452	4.88
393.66	4.92
393.867	4.85
394.075	5.29
394.283	5.31
394.49	5.32
394.698	5.17
394.905	5.52
395.113	5.29
395.32	5.24
395.528	5.08
395.735	5.05
395.943	4.92
396.15	5.02
396.358	4.89
396.565	4.94
396.773	4.7
396.98	4.79
397.188	4.71
397.395	4.52
397.602	4.48
397.81	4.7
398.017	4.7
398.225	4.73
398.432	4.64
398.639	4.42
398.847	4.15
399.054	4.25
399.261	4.18
399.468	4.22
399.676	4.41
399.883	4.58
400.09	3.99
400.297	4.04
400.505	3.98
400.712	3.73
400.919	3.48
401.126	3.55
401.333	3.69
401.54	3.5
401.748	3.19
401.955	3.2
402.162	3.22
402.369	3.58
402.576	3.84
402.783	4.03
402.99	4.01
403.197	3.96
403.404	4.14
403.611	4.14
403.818	4.41
404.025	4.38
404.232	4.2
404.439	3.94
404.646	3.76
404.853	3.4
405.06	3.41
405.267	3.31
405.474	3.37
405.681	3
405.887	3
406.094	2.74
406.301	2.87
406.508	3.07
406.715	3.24
406.922	3.29
407.128	3.57
407.335	3.22
407.542	3.32
407.749	3.32
407.955	3.51
408.162	3.43
408.369	3.31
408.575	3.38
408.782	3.43
408.989	3.45
409.195	3.24
409.402	2.92
409.609	2.95
409.815	3.01
410.022	2.96
410.228	2.88
410.435	2.98
410.642	2.98
410.848	2.63
411.055	2.43
411.261	2.34
411.468	2.51
411.674	2.67
411.881	2.96
412.087	2.92
412.294	3.18
412.5	3.48
412.706	3.31
412.913	3.54
413.119	3.92
413.326	3.94
413.532	3.85
413.738	3.94
413.945	3.56
414.151	3.42
414.357	3.44
414.564	3.24
414.77	2.68
414.976	2.77
415.182	2.76
415.389	2.5
415.595	2.48
415.801	2.54
416.007	2.51
416.214	2.43
416.42	2.62
416.626	2.79
416.832	2.88
417.038	3.21
417.244	3.06
417.45	3.09
417.657	3.17
417.863	3.16
418.069	3.04
418.275	3.09
418.481	3.36
418.687	3.33
418.893	3.2
419.099	3.4
419.305	3.13
419.511	3.28
419.717	3.33
419.923	3.18
420.129	3.18
420.335	3.36
420.541	3.35
420.746	3.11
420.952	3
421.158	2.83
421.364	2.55
421.57	2.54
421.776	2.46
421.982	2.26
422.187	2.2
422.393	2.18
422.599	2.02
422.805	1.9
423.01	2.1
423.216	2.04
423.422	2.21
423.628	2.25
423.833	2.29
424.039	2.31
424.245	2.43
424.45	2.56
424.656	2.56
424.862	2.52
425.067	2.81
425.273	2.87
425.478	2.96
425.684	2.92
425.889	2.9
426.095	3.12
426.301	3.04
426.506	3.23
426.712	3.11
426.917	3.04
427.123	3.08
427.328	2.7
427.533	2.34
427.739	2.37
427.944	2.56
428.15	2.62
428.355	2.32
428.561	2.45
428.766	2.37
428.971	2.47
429.177	2.64
429.382	2.7
429.587	3.03
429.793	3.25
429.998	3.05
430.203	2.86
430.408	2.57
430.614	2.73
430.819	2.5
431.024	2.51
431.229	2.63
431.434	2.51
431.64	2.73
431.845	2.51
432.05	2.59
432.255	2.63
432.46	2.51
432.665	2.63
432.87	2.51
433.076	2.83
433.281	2.73
433.486	2.46
433.691	2.57
433.896	2.3
434.101	2.33
434.306	2.37
434.511	2.26
434.716	2.4
434.921	2.64
435.126	2.76
435.331	2.58
435.535	2.47
435.74	2.38
435.945	2.14
436.15	2.41
436.355	2.4
436.56	2.36
436.765	2.26
436.97	2.24
437.174	2.11
437.379	1.96
437.584	1.86
437.789	1.97
437.993	2.44
438.198	2.6
438.403	2.4
438.608	2.16
438.812	2.05
439.017	2.34
439.222	2.33
439.426	2.31
439.631	2.37
439.836	2.43
440.04	2.27
440.245	2.08
440.45	2.06
440.654	2.25
440.859	2.34
441.063	2.37
441.268	2.28
441.472	2.28
441.677	2.28
441.881	2.37
442.086	2.4
442.29	2.49
442.495	2.49
442.699	2.46
442.904	2.26
443.108	2.39
443.312	2.39
443.517	2.44
443.721	2.39
443.925	2.32
444.13	2.08
444.334	1.78
444.538	1.74
444.743	1.59
444.947	1.55
445.151	1.57
445.356	1.61
445.56	1.6
445.764	1.79
445.968	1.87
446.173	1.79
446.377	1.8
446.581	1.93
446.785	1.99
446.989	2.02
447.193	2.15
447.398	2.15
447.602	2.02
447.806	2.07
448.01	1.91
448.214	1.83
448.418	1.87
448.622	1.88
448.826	1.81
449.03	1.81
449.234	1.95
449.438	1.94
449.642	1.93
449.846	1.96
450.05	2.03
450.254	1.9
450.458	2.13
450.662	2.33
450.866	2.39
451.069	2.69
451.273	2.6
451.477	2.38
451.681	2.31
451.885	2.35
452.089	2.23
452.292	2.2
452.496	2.4
452.7	2.2
452.904	2.1
453.107	2.14
453.311	1.92
453.515	2.03
453.719	2.17
453.922	2.13
454.126	2.15
454.33	2.24
454.533	2.21
454.737	2.14
454.94	2.34
455.144	2.37
455.348	2.31
455.551	2.48
455.755	2.38
455.958	2.35
456.162	2.37
456.365	2.53
456.569	2.53
456.772	2.63
456.976	2.34
457.179	2.28
457.383	2.29
457.586	2.26
457.79	2.2
457.993	2.09
458.196	2.08
458.4	2.08
458.603	1.84
458.807	1.97
459.01	1.93
459.213	2
459.417	2.06
459.62	2.13
459.823	2.25
460.026	2.27
460.23	2.38
460.433	2.38
460.636	2.39
460.839	2.5
461.042	2.45
461.246	2.38
461.449	2.39
461.652	2.18
461.855	2.08
462.058	2.03
462.261	2
462.464	1.92
462.668	1.88
462.871	1.87
463.074	1.66
463.277	1.62
463.48	1.73
463.683	1.8
463.886	1.81
464.089	2.05
464.292	2.01
464.495	1.8
464.698	2.02
464.901	2.03
465.104	2.1
465.306	2.14
465.509	2.21
465.712	2.16
465.915	2.15
466.118	2.13
466.321	2.04
466.524	2.07
466.726	2.17
466.929	1.99
467.132	1.94
467.335	1.95
467.538	2.08
467.74	2.19
467.943	2.04
468.146	2.05
468.348	2.22
468.551	2.07
468.754	2.15
468.956	2.14
469.159	2.22
469.362	2.21
469.564	2.33
469.767	2.36
469.969	2.4
470.172	2.44
470.375	2.54
470.577	2.49
470.78	2.44
470.982	2.33
471.185	2.34
471.387	2.21
471.59	2.27
471.792	2.01
471.995	1.86
472.197	1.89
472.399	1.67
472.602	1.72
472.804	1.97
473.007	2.04
473.209	2.08
473.411	2.05
473.614	2.22
473.816	2.2
474.018	2.3
474.22	2.54
474.423	2.33
474.625	2.51
474.827	2.47
475.03	2.18
475.232	2.33
475.434	2.27
475.636	2.2
475.838	2.05
476.04	2.1
476.243	2
476.445	1.82
476.647	1.9
476.849	2.06
477.051	1.91
477.253	1.83
477.455	1.65
477.657	1.59
477.859	1.68
478.061	1.92
478.263	1.82
478.465	2
478.667	1.9
478.869	1.85
479.071	1.81
479.273	1.93
479.475	2.03
479.677	2.04
479.879	2.12
480.081	2.25
480.283	2.09
480.485	2.33
480.686	2.07
480.888	2.17
481.09	2.23
481.292	2.22
481.494	2.28
481.695	2.19
481.897	2.23
482.099	2.29
482.301	2.2
482.502	2.2
482.704	2.16
482.906	2.23
483.107	2.19
483.309	2.11
483.511	2.13
483.712	2.11
483.914	2.14
484.115	2.13
484.317	2.06
484.519	2.05
484.72	2.08
484.922	2.02
485.123	2.04
485.325	2.05
485.526	2.12
485.728	2.14
485.929	2.09
486.131	2.12
486.332	2.13
486.534	2.16
486.735	2.19
486.936	2.13
487.138	2.16
487.339	2.12
487.541	2.14
487.742	2.16
487.943	2.09
488.144	2.12
488.346	2.09
488.547	2.1
488.748	2.06
488.95	2
489.151	1.9
489.352	1.89
489.553	1.94
489.755	1.92
489.956	1.85
490.157	1.82
490.358	1.88
490.559	1.86
490.76	1.9
490.961	1.91
491.163	2
491.364	2.13
491.565	2.15
491.766	2.19
491.967	2.2
492.168	2.15
492.369	2.13
492.57	2
492.771	2.02
492.972	2.03
493.173	2.07
493.374	2.05
493.575	1.98
493.776	1.95
493.976	1.94
494.177	1.93
494.378	2
494.579	2.08
494.78	2.26
494.981	2.11
495.182	1.96
495.382	2.12
495.583	2.13
495.784	2.25
495.985	2.23
496.185	2.11
496.386	1.99
496.587	1.97
496.788	1.95
496.988	1.84
497.189	2.08
497.39	2.2
497.59	2.08
497.791	2.14
497.992	2.11
498.192	2.23
498.393	2.09
498.593	2.3
498.794	2.2
498.994	2.15
499.195	2.26
499.395	2.26
499.596	2.21
499.796	2.05
499.997	2.11
500.197	2.2
500.398	2.25
500.598	2.31
500.799	2.22
500.999	2.4
501.199	2.43
501.4	2.33
501.6	2.24
501.801	2.22
502.001	2.21
502.201	2.11
502.402	1.99
502.602	1.9
502.802	1.94
503.002	2.02
503.203	1.82
503.403	1.92
503.603	2.05
503.803	2.25
504.003	2.24
504.204	2.49
504.404	2.76
504.604	2.76
504.804	3.01
505.004	3.13
505.204	3.07
505.404	3.23
505.604	3.23
505.804	3.36
506.005	3.27
506.205	3.36
506.405	3.38
506.605	3.15
506.805	3.31
507.005	3.22
507.204	3.15
507.404	3.21
507.604	3.26
507.804	3.4
508.004	3.27
508.204	3.24
508.404	3.2
508.604	3.2
508.804	3.22
509.003	3.25
509.203	3.12
509.403	3.21
509.603	3.23
509.803	3.14
510.002	3.04
510.202	3.06
510.402	3.16
510.602	3.35
510.801	3.33
511.001	3.44
511.201	3.42
511.4	3.46
511.6	3.58
511.8	3.58
511.999	3.72
512.199	3.75
512.398	3.89
512.598	3.93
512.797	3.87
512.997	3.95
513.197	4.02
513.396	3.91
513.596	3.95
513.795	3.9
513.994	4.1
514.194	4.1
514.393	4.17
514.593	4.02
514.792	3.94
514.992	3.83
515.191	3.82
515.39	3.85
515.59	4.06
515.789	4.07
515.988	4.25
516.188	4.15
516.387	4.22
516.586	4.37
516.786	4.45
516.985	4.59
517.184	4.68
517.383	4.74
517.582	4.62
517.782	4.45
517.981	4.5
518.18	4.37
518.379	4.47
518.578	4.56
518.777	4.43
518.976	4.56
519.176	4.46
519.375	4.64
519.574	4.71
519.773	4.83
519.972	4.89
520.171	4.94
520.37	5.14
520.569	5.05
520.768	4.95
520.967	5.25
521.166	5.13
521.365	5.29
521.564	5.23
521.762	5.23
521.961	5.23
522.16	5.34
522.359	5.26
522.558	5.04
522.757	5.03
522.956	5.19
523.154	4.99
523.353	5.21
523.552	5.26
523.751	5.28
523.949	5.36
524.148	5.39
524.347	5.53
524.546	5.8
524.744	5.86
524.943	6.02
525.142	5.98
525.34	6.06
525.539	6.08
525.737	6.08
525.936	6.04
526.135	6.15
526.333	6.22
526.532	6.16
526.73	6.1
526.929	6.16
527.127	6.18
527.326	6.25
527.524	6.33
527.723	6.36
527.921	6.32
528.12	6.39
528.318	6.37
528.516	6.39
528.715	6.44
528.913	6.5
529.112	6.56
529.31	6.53
529.508	6.56
529.707	6.57
529.905	6.56
530.103	6.63
530.301	6.59
530.5	6.59
530.698	6.63
530.896	6.77
531.094	6.86
531.293	6.86
531.491	6.97
531.689	6.99
531.887	6.96
532.085	7.13
532.283	7.13
532.481	7.24
532.68	7.19
532.878	7.16
533.076	7.11
533.274	7.13
533.472	7.15
533.67	7.21
533.868	7.24
534.066	7.39
534.264	7.33
534.462	7.36
534.66	7.42
534.858	7.6
535.056	7.79
535.253	7.91
535.451	7.89
535.649	7.98
535.847	8.07
536.045	8.31
536.243	8.22
536.441	8.31
536.638	8.41
536.836	8.54
537.034	8.48
537.232	8.43
537.43	8.37
537.627	8.41
537.825	8.6
538.023	8.53
538.22	8.44
538.418	8.62
538.616	8.61
538.813	8.84
539.011	8.82
539.209	9
539.406	9.01
539.604	9.17
539.801	9.32
539.999	9.25
540.196	9.43
540.394	9.38
540.591	9.37
540.789	9.38
540.986	9.22
541.184	9.11
541.381	9.13
541.579	9.22
541.776	9.17
541.974	9.1
542.171	9.16
542.368	9.2
542.566	9.19
542.763	9.22
542.96	9.26
543.158	9.36
543.355	9.56
543.552	9.57
543.75	9.58
543.947	9.57
544.144	9.7
544.341	9.69
544.539	9.54
544.736	9.63
544.933	9.59
545.13	9.71
545.327	9.83
545.524	9.84
545.722	9.87
545.919	9.88
546.116	10.08
546.313	10.05
546.51	10.05
546.707	10.16
546.904	10.32
547.101	10.43
547.298	10.41
547.495	10.41
547.692	10.4
547.889	10.46
548.086	10.68
548.283	10.69
548.48	10.83
548.677	10.98
548.874	11.16
549.07	11.13
549.267	11.23
549.464	11.32
549.661	11.39
549.858	11.67
550.055	11.92
550.251	11.84
550.448	11.92
550.645	12.02
550.842	11.95
551.038	11.8
551.235	12
551.432	12.06
551.628	12.19
551.825	12.04
552.022	11.95
552.218	11.75
552.415	11.81
552.612	11.99
552.808	12.1
553.005	12.35
553.201	12.47
553.398	12.41
553.594	12.45
553.791	12.51
553.987	12.74
554.184	12.73
554.38	12.92
554.577	13.06
554.773	13.06
554.97	13.19
555.166	13.03
555.362	13.21
555.559	13.2
555.755	13.09
555.952	13.18
556.148	13.47
556.344	13.56
556.541	13.59
556.737	13.35
556.933	13.37
557.129	13.24
557.326	13.36
557.522	13.3
557.718	13.49
557.914	13.79
558.11	13.88
558.307	13.59
558.503	13.89
558.699	14.17
558.895	14.4
559.091	14.54
559.287	14.71
559.483	14.64
559.679	14.84
559.876	15.05
560.072	14.95
560.268	14.8
560.464	14.99
560.66	14.8
560.856	14.82
561.052	14.82
561.247	14.73
561.443	14.7
561.639	14.92
561.835	14.74
562.031	14.7
562.227	14.86
562.423	14.83
562.619	14.74
562.815	14.78
563.01	14.6
563.206	14.77
563.402	14.94
563.598	14.89
563.793	14.87
563.989	15.09
564.185	15.08
564.381	15.25
564.576	15.54
564.772	15.56
564.968	15.49
565.163	15.6
565.359	15.51
565.555	15.52
565.75	15.35
565.946	15.5
566.141	15.51
566.337	15.47
566.532	15.47
566.728	15.51
566.923	15.57
567.119	15.7
567.314	15.8
567.51	15.77
567.705	15.71
567.901	15.98
568.096	15.95
568.292	16.01
568.487	15.88
568.682	15.94
568.878	15.98
569.073	16.11
569.268	16.25
569.464	16.15
569.659	16.25
569.854	16.41
570.05	16.67
570.245	16.96
570.44	16.89
570.635	17.17
570.831	17.1
571.026	17.15
571.221	17.29
571.416	17.24
571.611	17.22
571.806	17.47
572.002	17.36
572.197	17.23
572.392	17.12
572.587	17.11
572.782	16.97
572.977	16.95
573.172	16.86
573.367	16.76
573.562	16.8
573.757	16.95
573.952	16.7
574.147	16.85
574.342	16.98
574.537	17.02
574.732	17.01
574.927	17.23
575.121	17.35
575.316	17.51
575.511	17.55
575.706	17.61
575.901	17.5
576.096	17.5
576.29	17.55
576.485	17.53
576.68	17.4
576.875	17.56
577.069	17.69
577.264	17.8
577.459	17.74
577.654	17.84
577.848	18.03
578.043	18.36
578.238	18.67
578.432	18.57
578.627	18.53
578.821	18.83
579.016	19.17
579.21	18.81
579.405	18.53
579.6	18.48
579.794	18.31
579.989	17.96
580.183	17.84
580.378	17.77
580.572	17.97
580.766	18.24
580.961	18.42
581.155	18.24
581.35	18.4
581.544	18.5
581.738	18.82
581.933	19.3
582.127	19.49
582.321	19.43
582.516	19.29
582.71	19.23
582.904	18.98
583.099	18.51
583.293	18.66
583.487	18.81
583.681	19.01
583.875	18.96
584.07	18.56
584.264	18.91
584.458	18.93
584.652	19.27
584.846	19.05
585.04	19.35
585.234	19.56
585.428	19.49
585.623	19.53
585.817	19.59
586.011	19.42
586.205	19.47
586.399	19.25
586.593	19.37
586.787	19.26
586.981	19.38
587.174	19.17
587.368	19.14
587.562	19.16
587.756	19.27
587.95	19.17
588.144	19.37
588.338	19.29
588.532	19.22
588.725	19.27
588.919	19.4
589.113	19.83
589.307	19.84
589.501	19.96
589.694	20.02
589.888	20.01
590.082	20.1
590.275	19.92
590.469	20.13
590.663	20.22
590.856	20.2
591.05	20.1
591.244	19.99
591.437	20.02
591.631	19.97
591.824	19.82
592.018	19.86
592.212	19.81
592.405	19.79
592.599	19.91
592.792	19.95
592.986	19.8
593.179	19.9
593.372	19.88
593.566	20.17
593.759	20.25
593.953	20.32
594.146	20.27
594.339	20.21
594.533	20.16
594.726	20.09
594.92	20.13
595.113	20.19
595.306	19.93
595.499	19.94
595.693	19.65
595.886	19.64
596.079	19.66
596.272	19.54
596.466	19.59
596.659	19.86
596.852	19.98
597.045	20.05
597.238	20.15
597.431	20.37
597.624	20.35
597.818	20.56
598.011	20.56
598.204	20.75
598.397	20.97
598.59	20.94
598.783	20.82
598.976	20.78
599.169	20.62
599.362	20.7
599.555	21.15
599.748	21.24
599.941	21.25
600.134	21.42
600.326	21.31
600.519	21.38
600.712	21.57
600.905	21.59
601.098	21.82
601.291	21.99
601.483	21.98
601.676	21.48
601.869	21.5
602.062	21.54
602.255	21.34
602.447	21.36
602.64	21.53
602.833	21.55
603.025	21.65
603.218	21.41
603.411	21.56
603.603	21.47
603.796	21.65
603.989	21.81
604.181	21.81
604.374	21.93
604.566	21.92
604.759	21.88
604.951	21.93
605.144	21.83
605.336	21.9
605.529	21.63
605.721	21.69
605.914	21.64
606.106	21.28
606.299	21.26
606.491	21.36
606.683	21.39
606.876	21.34
607.068	21.15
607.26	21.35
607.453	21.37
607.645	21.53
607.837	21.59
608.03	21.36
608.222	21.6
608.414	21.4
608.606	21.26
608.799	21.21
608.991	21.41
609.183	21.51
609.375	21.31
609.567	21.2
609.759	21.11
609.952	21.18
610.144	21.31
610.336	21.16
610.528	20.97
610.72	20.93
610.912	20.88
611.104	20.53
611.296	20.43
611.488	20.43
611.68	20.53
611.872	20.54
612.064	20.35
612.256	20.41
612.448	20.59
612.64	21.07
612.832	20.89
613.023	20.88
613.215	20.94
613.407	20.97
613.599	21.48
613.791	21.47
613.983	21.66
614.174	21.62
614.366	21.81
614.558	21.68
614.75	21.57
614.941	21.85
615.133	21.89
615.325	21.83
615.516	21.98
615.708	21.66
615.9	21.57
616.091	21.48
616.283	21.74
616.475	21.53
616.666	21.77
616.858	21.66
617.049	21.99
617.241	22.38
617.432	22.69
617.624	22.75
617.815	23.04
618.007	23.06
618.198	23.37
618.39	23.15
618.581	23.11
618.773	23.22
618.964	23.25
619.155	22.82
619.347	22.69
619.538	22.59
619.729	22.72
619.921	22.49
620.112	22.72
620.303	22.45
620.494	22.5
620.686	22.77
620.877	22.58
621.068	22.86
621.259	23.1
621.451	22.89
621.642	23.04
621.833	23.31
622.024	23.49
622.215	23.21
622.406	23.51
622.597	23.42
622.788	23.16
622.98	23.51
623.171	23.12
623.362	23.04
623.553	23.36
623.744	23.18
623.935	23.09
624.126	22.65
624.317	22.66
624.508	22.72
624.698	22.83
624.889	23.22
625.08	22.95
625.271	23.26
625.462	23.17
625.653	22.99
625.844	23.09
626.034	23.06
626.225	23.29
626.416	23.48
626.607	23.25
626.798	23.41
626.988	23
627.179	23.11
627.37	23
627.56	23.18
627.751	23.03
627.942	23.05
628.132	22.87
628.323	22.88
628.514	22.84
628.704	22.82
628.895	22.57
629.085	22.91
629.276	22.7
629.466	22.58
629.657	22.76
629.847	23.12
630.038	22.7
630.228	22.53
630.419	22.21
630.609	22.31
630.8	22.4
630.99	22.62
631.181	22.43
631.371	22.23
631.561	22.5
631.752	22.28
631.942	22.36
632.132	22.51
632.323	22.47
632.513	22.93
632.703	23.04
632.893	22.72
633.084	22.64
633.274	22.78
633.464	22.87
633.654	23.07
633.844	22.8
634.034	22.62
634.225	22.95
634.415	23.14
634.605	23.16
634.795	23.14
634.985	23.51
635.175	23.74
635.365	23.81
635.555	24.12
635.745	24.06
635.935	24.09
636.125	24.1
636.315	23.74
636.505	23.78
636.695	23.81
636.885	23.87
637.075	23.69
637.265	23.61
637.455	23.58
637.644	23.36
637.834	22.88
638.024	23.17
638.214	23.26
638.404	23.58
638.593	23.52
638.783	23.23
638.973	23.15
639.163	23.08
639.352	22.7
639.542	22.78
639.732	23.03
639.921	23.5
640.111	23.58
640.301	23.41
640.49	23.4
640.68	23.56
640.87	23.61
641.059	23.53
641.249	23.81
641.438	24.1
641.628	24.01
641.817	23.92
642.007	23.7
642.196	23.69
642.386	23.67
642.575	23.63
642.764	23.5
642.954	24.01
643.143	23.99
643.333	24.15
643.522	24.35
643.711	24.33
643.901	24.7
644.09	24.64
644.279	24.62
644.469	24.61
644.658	24.58
644.847	24.69
645.036	24.76
645.226	24.68
645.415	24.07
645.604	23.72
645.793	23.34
645.982	22.96
646.171	23.4
646.361	23.21
646.55	23.33
646.739	23.41
646.928	23.35
647.117	22.53
647.306	22.65
647.495	23.32
647.684	23.44
647.873	24.08
648.062	24.18
648.251	23.87
648.44	24.49
648.629	24.74
648.818	24.67
649.007	24.78
649.196	25.09
649.384	25.08
649.573	24.69
649.762	24.74
649.951	24.66
650.14	24.59
650.328	24.99
650.517	24.47
650.706	24.31
650.895	25.04
651.083	25.22
651.272	25.23
651.461	25.03
651.65	25.5
651.838	25.66
652.027	25.47
652.216	25.74
652.404	25.29
652.593	25.57
652.781	25.85
652.97	25.22
653.158	24.92
653.347	24.91
653.535	24.96
653.724	24.79
653.912	24.96
654.101	25.29
654.289	25.19
654.478	25.64
654.666	25.13
654.855	24.89
655.043	25.09
655.231	25.2
655.42	25.62
655.608	25.91
655.796	25.91
655.985	25.91
656.173	25.96
656.361	25.85
656.55	25.74
656.738	25.94
656.926	26
657.114	25.69
657.302	25.49
657.491	25.44
657.679	25.36
657.867	25.09
658.055	25.12
658.243	24.8
658.431	24.84
658.619	24.92
658.807	25.06
658.996	24.91
659.184	24.74
659.372	24.85
659.56	25.11
659.748	24.81
659.936	24.7
660.124	24.36
660.311	24.17
660.499	23.67
660.687	23.25
660.875	23.3
661.063	23.41
661.251	23.72
661.439	24.04
661.627	23.8
661.814	23.99
662.002	24.68
662.19	24.98
662.378	25.24
662.565	25.54
662.753	25.72
662.941	25.06
663.129	25.16
663.316	25.51
663.504	25.12
663.692	25.12
663.879	25.08
664.067	24.43
664.254	24.4
664.442	24.65
664.63	25.05
664.817	25.18
665.005	25.97
665.192	26.14
665.38	26.07
665.567	26.46
665.755	26.23
665.942	26.96
666.13	27.4
666.317	27.08
666.504	26.82
666.692	27.02
666.879	27.23
667.067	27.22
667.254	26.91
667.441	26.8
667.629	26.63
667.816	26.35
668.003	26.16
668.19	25.77
668.378	26.65
668.565	26.79
668.752	26.29
668.939	26.34
669.127	26.21
669.314	26.53
669.501	26.27
669.688	26.31
669.875	26.82
670.062	26.92
670.249	27.47
670.436	27.02
670.623	26.66
670.81	26.95
670.997	26.77
671.184	26.96
671.371	26.64
671.558	26.55
671.745	26.42
671.932	26.44
672.119	25.84
672.306	25.16
672.493	24.97
672.68	25.12
672.867	25.15
673.054	24.95
673.24	24.64
673.427	24.77
673.614	25.13
673.801	25.58
673.988	25.8
674.174	25.88
674.361	26.26
674.548	26.18
674.734	26.36
674.921	26.68
675.108	26.79
675.294	26.69
675.481	26.83
675.668	26.87
675.854	26.45
676.041	26.05
676.227	25.87
676.414	25.66
676.601	26
676.787	25.93
676.974	25.27
677.16	25.46
677.347	25.89
677.533	25.81
677.719	26.11
677.906	26.15
678.092	26.11
678.279	26.34
678.465	26.86
678.651	26.4
678.838	26.23
679.024	26.32
679.21	25.95
679.397	25.68
679.583	25.43
679.769	25.19
679.955	25.08
680.142	24.94
680.328	25.17
680.514	24.76
680.7	24.95
680.886	25.4
681.073	25.51
681.259	26.05
681.445	26.34
681.631	26.13
681.817	26.18
682.003	26.48
682.189	26.66
682.375	26.09
682.561	26.37
682.747	26.5
682.933	26.1
683.119	26.37
683.305	26.47
683.491	26.44
683.677	26.88
683.863	26.47
684.049	26.21
684.235	26.53
684.42	26.87
684.606	26.84
684.792	27.12
684.978	27.78
685.164	27.41
685.349	27.4
685.535	27.35
685.721	27.59
685.907	27.29
686.092	27.16
686.278	26.11
686.464	26.39
686.649	26.15
686.835	25.67
687.021	24.93
687.206	25.35
687.392	24.48
687.577	24.7
687.763	24.63
687.948	25.39
688.134	25.49
688.319	26.08
688.505	26.14
688.69	26.55
688.876	26.66
689.061	27.42
689.247	27.18
689.432	28.05
689.618	28.05
689.803	27.95
689.988	27.63
690.174	27.67
690.359	28.07
690.544	27.69
690.73	27.15
690.915	27.21
691.1	26.5
691.285	26.91
691.471	27.03
691.656	27.07
691.841	27.18
692.026	26.89
692.211	27.14
692.396	26.97
692.582	26.69
692.767	27.08
692.952	27.17
693.137	27.4
693.322	26.49
693.507	25.92
693.692	25.22
693.877	25.35
694.062	26.22
694.247	25.82
694.432	25.74
694.617	26.36
694.802	26.12
694.987	26.2
695.172	26.03
695.357	27.26
695.541	27.05
695.726	28.02
695.911	28.17
696.096	28.47
696.281	28.29
696.466	28.22
696.65	28.26
696.835	28.32
697.02	28.46
697.204	28.55
697.389	28.34
697.574	28.95
697.759	28.66
697.943	28.09
698.128	27.65
698.312	27.83
698.497	27.82
698.682	27.53
698.866	27.44
699.051	27.35
699.235	27.15
699.42	26.92
699.604	26.78
699.789	26.15
699.973	26.47
700.158	26.49
700.342	26.38
700.527	26.46
700.711	26.6
700.895	26.76
701.08	26.56
701.264	26.98
701.448	26.74
701.633	26.87
701.817	27.58
702.001	26.89
702.186	26.67
702.37	27.12
702.554	26.7
702.738	27.17
702.923	26.85
703.107	26.93
703.291	27.33
703.475	27.67
703.659	27.26
703.843	27.3
704.027	27.95
704.212	27.38
704.396	27.01
704.58	27.63
704.764	26.87
704.948	26.98
705.132	26.75
705.316	25.9
705.5	25.26
705.684	24.99
705.868	25.09
706.052	25.38
706.235	26.37
706.419	27.23
706.603	26.55
706.787	26.7
706.971	27.44
707.155	27.57
707.339	28.03
707.522	29.05
707.706	28.95
707.89	29.14
708.074	29
708.257	28.97
708.441	28.5
708.625	28.59
708.808	28.51
708.992	28.32
709.176	28.34
709.359	27.77
709.543	27.34
709.727	27.39
709.91	27.06
710.094	27.33
710.277	27.83
710.461	28.31
710.644	28.84
710.828	29.44
711.011	29.93
711.195	29.55
711.378	29.98
711.562	29.61
711.745	29.38
711.928	29.44
712.112	28.89
712.295	28.02
712.478	27.32
712.662	27.29
712.845	26.84
713.028	26.33
713.212	26.46
713.395	25.82
713.578	26.12
713.761	26.26
713.945	26.16
714.128	26.9
714.311	27.17
714.494	27.26
714.677	26.96
714.86	27.56
715.043	27.45
715.227	28.04
715.41	28.42
715.593	28.36
715.776	28.46
715.959	28.27
716.142	28.17
716.325	27.92
716.508	27.69
716.691	27.74
716.874	27.7
717.057	27.43
717.239	27.58
717.422	27.37
717.605	26.86
717.788	25.99
717.971	25.7
718.154	25.26
718.337	25.52
718.519	26.3
718.702	26.66
718.885	26.48
719.068	26.66
719.25	26.45
719.433	27.07
719.616	27.87
719.798	28.66
719.981	28.8
720.164	28.39
720.346	28.14
720.529	27.99
720.712	28.21
720.894	28.04
721.077	27.89
721.259	26.71
721.442	27.05
721.624	27.06
721.807	27.3
721.989	28.04
722.172	27.65
722.354	27.31
722.537	26.71
722.719	26.42
722.901	25.75
723.084	25.6
723.266	26.67
723.448	25.6
723.631	25.61
723.813	26.15
723.995	25.69
724.178	26.55
724.36	27.32
724.542	27.86
724.724	27.64
724.907	28.41
725.089	28.32
725.271	28.08
725.453	28.27
725.635	28.61
725.817	27.59
725.999	27.08
726.181	26.73
726.364	26.79
726.546	26.94
726.728	27.34
726.91	27.19
727.092	27.13
727.274	26.67
727.456	27.07
727.638	26.33
727.819	27.06
728.001	27.22
728.183	27.75
728.365	27.35
728.547	26.92
728.729	27.47
728.911	27.04
729.093	27.26
729.274	28.27
729.456	28
729.638	28.02
729.82	27.27
730.001	27.82
730.183	27.44
730.365	28.9
730.546	28.45
730.728	28.23
730.91	28.61
731.091	29.84
731.273	29.37
731.455	29.24
731.636	29.58
731.818	30.33
731.999	30.25
732.181	29.8
732.362	28.94
732.544	29.1
732.725	28.12
732.907	27.88
733.088	27.12
733.27	27.15
733.451	28.13
733.633	28
733.814	28.15
733.995	28.01
734.177	28.56
734.358	28.41
734.539	28.92
734.721	28.43
734.902	28.91
735.083	28.53
735.264	28.69
735.446	28.6
735.627	27.6
735.808	26.41
735.989	26.63
736.17	26.1
736.351	26.66
736.533	26.6
736.714	27.68
736.895	27.37
737.076	28.17
737.257	28.2
737.438	28.55
737.619	29.62
737.8	30.48
737.981	29.71
738.162	30.19
738.343	29.97
738.524	29.65
738.705	30.1
738.886	29.21
739.067	28.86
739.247	28.11
739.428	26.78
739.609	26.97
739.79	27.49
739.971	28.07
740.151	28
740.332	27.31
740.513	27.18
740.694	26.12
740.874	27.3
741.055	26.47
741.236	27.74
741.417	27.69
741.597	26.69
741.778	26.63
741.958	26.71
742.139	26.68
742.32	27.01
742.5	27.58
742.681	28.06
742.861	27
743.042	28.14
743.222	26.94
743.403	27.17
743.583	28.67
743.764	28.44
743.944	28.43
744.124	29.19
744.305	28.94
744.485	27.84
744.666	28.31
744.846	29.45
745.026	28.51
745.207	28.93
745.387	27.99
745.567	27.61
745.747	27.7
745.928	27.35
746.108	27
746.288	26.34
746.468	26.74
746.648	26.63
746.829	26.73
747.009	28.75
747.189	29.36
747.369	30.06
747.549	29.37
747.729	28.86
747.909	29.48
748.089	29.58
748.269	29.72
748.449	29.81
748.629	30.26
748.809	29.91
748.989	27.91
749.169	27.5
749.349	28.1
749.529	28.13
749.709	29.16
749.889	28.95
750.068	29.17
750.248	30.02
750.428	30.93
750.608	29.71
750.788	29.95
750.967	30.5
751.147	30.57
751.327	30.85
751.507	30.99
751.686	29.84
751.866	30.29
752.046	28.89
752.225	29.47
752.405	28.65
752.585	30.38
752.764	30.72
752.944	31.44
753.123	31.36
753.303	31.41
753.482	31.98
753.662	32.76
753.841	32.83
754.021	32.68
754.2	31.02
754.38	30.87
754.559	28.62
754.739	27.4
754.918	25.98
755.097	26.84
755.277	26.17
755.456	26.67
755.635	25.34
755.815	24.92
755.994	25.57
756.173	25.38
756.352	26.62
756.532	26.75
756.711	27.91
756.89	28.61
757.069	28.54
757.248	29.44
757.427	27.59
757.607	29.38
757.786	28.87
757.965	29.96
758.144	30.67
758.323	30.54
758.502	30.7
758.681	30.27
758.86	29.64
759.039	29.42
759.218	28.7
759.397	29.48
759.576	28.67
759.755	29.34
759.934	28.3
760.113	30.19
760.291	29.21
760.47	30.6
760.649	29.99
760.828	30.61
761.007	30.28
761.186	29.6
761.364	29.96
761.543	29.37
761.722	29.44
761.901	30.09
762.079	28.85
762.258	29.04
762.437	28.04
762.615	28.72
762.794	28.17
762.972	27.55
763.151	28.05
763.33	27.95
763.508	28.02
763.687	28.13
763.865	27.97
764.044	27.54
764.222	27.65
764.401	28.21
764.579	28.01
764.758	28.2
764.936	28.51
765.114	28.91
765.293	29.03
765.471	29.55
765.65	29.57
765.828	29.54
766.006	29.35
766.184	29.29
766.363	28.33
766.541	28.59
766.719	29.38
766.898	29.56
767.076	29.24
767.254	30.04
767.432	30.26
767.61	30.44
767.788	30.5
767.967	30.98
768.145	30.47
768.323	30.79
768.501	31.72
768.679	30.83
768.857	31.17
769.035	31.09
769.213	30.59
769.391	30.57
769.569	29.18
769.747	27.94
769.925	27.13
770.103	27.18
770.281	27.97
770.459	26.9
770.636	27.75
770.814	28.34
770.992	28.4
771.17	28.06
771.348	28.11
771.525	29.66
771.703	30.92
771.881	32.12
772.059	33.11
772.236	33.62
772.414	34.7
772.592	34.4
772.769	33.92
772.947	33.55
773.125	34.05
773.302	33.95
773.48	33.22
773.657	33.03
773.835	33.52
774.013	33.28
774.19	34.36
774.368	33.31
774.545	34.1
774.723	33.44
774.9	34.11
775.077	34.26
775.255	34.46
775.432	35.22
775.61	35.88
775.787	36.2
775.964	36.21
776.142	34.06
776.319	34.4
776.496	32.84
776.674	33.02
776.851	33.06
777.028	30.67
777.205	30.77
777.382	30.5
777.56	29.45
777.737	28.55
777.914	29.69
778.091	30.98
778.268	29.38
778.445	30.17
778.622	29.92
778.8	30.32
778.977	32.39
779.154	30.86
779.331	30.11
779.508	32.15
779.685	33.36
779.862	32.57
780.038	32.25
780.215	33.18
780.392	33
780.569	32.11
780.746	31.7
780.923	30.55
781.1	32.6
781.277	31.65
781.453	28.11
781.63	25.42
781.807	27.17
781.984	26.27
782.16	27.73
782.337	28.47
782.514	30.15
782.691	29.17
782.867	30.22
783.044	28.88
783.221	30.01
783.397	31.77
783.574	32.21
783.75	30.73
783.927	32.13
784.103	30.82
784.28	30.08
784.456	29.97
784.633	32
784.809	31.09
784.986	31
785.162	30.8
785.339	29.7
785.515	29.04
785.692	29.64
785.868	30.33
786.044	30.3
786.221	29.88
786.397	30.88
786.573	29.69
786.749	27.97
786.926	27.89
787.102	30.87
787.278	30.15
787.454	33.41
787.631	33.32
787.807	32
787.983	31.67
788.159	33.02
788.335	31.94
788.511	32.1
788.687	32.78
788.863	33.28
789.039	30.34
789.216	32.8
789.392	31.46
789.568	30.73
789.744	30.8
789.919	29.88
790.095	28.55
790.271	29.68
790.447	29.71
790.623	29.56
790.799	28.82
790.975	28.78
791.151	29.86
791.327	30.87
791.502	31.05
791.678	30.88
791.854	32.2
792.03	32.97
792.205	31.75
792.381	31.12
792.557	34.78
792.733	34.46
792.908	33.93
793.084	33.2
793.259	31.67
793.435	31.35
793.611	32.33
793.786	31.69
793.962	30.44
794.137	29.33
794.313	29.53
794.488	28.31
794.664	27.65
794.839	29.61
795.015	29.63
795.19	29.12
795.366	29.97
795.541	28.43
795.716	29.99
795.892	30.66
796.067	31.5
796.242	32.05
796.418	30.31
796.593	33.44
796.768	32.87
796.944	32.85
797.119	32.29
797.294	33.01
797.469	31.75
797.644	30.92
797.82	31.32
797.995	30.66
798.17	32.41
798.345	33.45
798.52	32.4
798.695	32.73
798.87	30.73
799.045	32.53
799.22	31.86
799.395	34.19
799.57	32.7
799.745	32.9
799.92	34.48
800.095	32.07
800.27	32.04
800.445	30.45
800.62	31.13
800.795	33.21
800.97	33.89
801.145	31.72
801.319	32.05
801.494	32.71
801.669	32.44
801.844	30.23
802.018	33.66
802.193	32.11
802.368	32.51
802.543	31.93
802.717	31.8
802.892	28.52
803.067	29.06
803.241	29.83
803.416	29.6
803.59	28.71
803.765	30.6
803.94	26.4
804.114	27.33
804.289	29.41
804.463	29.06
804.638	29.04
804.812	30.64
804.986	33.58
805.161	31
805.335	33.03
805.51	32.97
805.684	32.85
805.858	33.35
806.033	32.99
806.207	32.59
806.381	33
806.556	30.8
806.73	30.12
806.904	27.96
807.078	29.16
807.253	28.87
807.427	29.84
807.601	30.02
807.775	31.87
807.949	32.46
808.123	34
808.298	34.62
808.472	34.98
808.646	37.37
808.82	39.29
808.994	37.85
809.168	37.01
809.342	37.78
809.516	37.52
809.69	35.02
809.864	36.06
810.038	32.7
810.212	33.69
810.385	35.37
810.559	35.62
810.733	36.16
810.907	38.33
811.081	37.56
811.255	37.66
811.428	35.99
811.602	37.51
811.776	36.37
811.95	39.06
812.123	38.27
812.297	38.77
812.471	36.52
812.644	35.6
812.818	36.74
812.992	36.99
813.165	34.02
813.339	38.08
813.512	40.93
813.686	39.9
813.86	37.03
814.033	38.46
814.207	38.11
814.38	42.71
814.554	45.24
814.727	44.01
814.9	43.99
815.074	46.08
815.247	44.17
815.421	40.16
815.594	40.36
815.767	41.25
815.941	37.52
816.114	39.36
816.287	34.1
816.46	29.68
816.634	29.87
816.807	28.85
816.98	31.32
817.153	33.45
817.327	32.48
817.5	33.42
817.673	31.33
817.846	32.52
818.019	30.75
818.192	32.32
818.365	32.54
818.538	33.04
818.711	33.4
818.884	29.66
819.057	26.17
819.23	28.04
819.403	27.76
819.576	28.01
819.749	29.25
819.922	28.9
820.095	29.48
820.268	30.76
820.441	30.26
820.614	31.55
820.786	30.27
820.959	31.43
821.132	31.3
821.305	30.99
821.477	31.82
821.65	30.41
821.823	29.93
821.996	29
822.168	28.61
822.341	28.8
822.514	28.25
822.686	28.67
822.859	28.64
823.031	28.74
823.204	29.63
823.376	29.03
823.549	29.02
823.722	28.89
823.894	28.46
824.067	28.77
824.239	28.46
824.411	28.61
824.584	29.23
824.756	29.24
824.929	29.17
825.101	27.83
825.273	27.97
825.446	28.09
825.618	29.1
825.79	29.94
825.963	29.83
826.135	29.38
826.307	29.38
826.479	28.78
826.652	28.51
826.824	29.02
826.996	29.05
827.168	29.57
827.34	30.46
827.512	29.84
827.684	30.7
827.856	30.6
828.029	31.39
828.201	30.81
828.373	31.48
828.545	31.93
828.717	32.01
828.889	32.2
829.061	31.87
829.232	31.91
829.404	32.65
829.576	31.91
829.748	32.25
829.92	32.38
830.092	33.67
830.264	32.63
830.436	31.98
830.607	30.39
830.779	31.58
830.951	34.65
831.123	35.04
831.294	35.33
831.466	35.39
831.638	35.94
831.809	37.23
831.981	38.02
832.153	39.43
832.324	40.22
832.496	40.57
832.667	40.2
832.839	35.67
833.011	36.21
833.182	34.83
833.354	34.3
833.525	33.04
833.697	31.73
833.868	31
834.039	29.85
834.211	28.89
834.382	29.66
834.554	30.65
834.725	30.8
834.896	29.29
835.068	29.62
835.239	29
835.41	29.83
835.581	31.18
835.753	31.57
835.924	33.79
836.095	33.9
836.266	32.93
836.438	31.92
836.609	31.88
836.78	32.03
836.951	31.7
837.122	35.11
837.293	35.16
837.464	32.43
837.635	30.42
837.806	29.09
837.977	30.87
838.148	34.19
838.319	33.66
838.49	36.01
838.661	35.32
838.832	35.25
839.003	31.8
839.174	30.96
839.345	32.98
839.516	38.74
839.687	37.81
839.857	36.48
840.028	33.63
840.199	37.89
840.37	37.05
840.54	40.3
840.711	41.01
840.882	39.42
841.053	37.94
841.223	38.35
841.394	34.18
841.564	33.31
841.735	36.68
841.906	40.52
842.076	35.85
842.247	36.63
842.417	32.56
842.588	35.86
842.758	36.22
842.929	31.75
843.099	28.34
843.27	30.79
843.44	28.6
843.611	25.08
843.781	21.58
843.951	18.41
844.122	22.82
844.292	26.1
844.462	23.73
844.633	25.41
844.803	32
844.973	35.5
845.144	32.53
845.314	33.35
845.484	30.4
845.654	29.35
845.824	36.81
845.995	24.89
846.165	24.94
846.335	17.52
846.505	18.22
846.675	14.16
846.845	23.71
847.015	28.8
847.185	25.91
847.355	40.29
847.525	40.99
847.695	37.01
847.865	42.1
848.035	37.1
848.205	36.45
848.375	43.68
848.545	51.73
848.715	37.56
848.884	36.56
849.054	41.34
849.224	34.99
849.394	36.88
849.564	38.76
849.733	35.23
849.903	40.28
850.073	49.55
850.243	44.37
850.412	35.7
850.582	34.23
850.752	29.76
850.921	28.84
851.091	30.02
851.26	26.16
851.43	22.56
851.599	23.23
851.769	19.55
851.939	19.34
852.108	21.4
852.278	28.12
852.447	31.68
852.616	33.91
852.786	31.78
852.955	28.7
853.125	28.23
853.294	31.82
853.463	31.2
853.633	30.64
853.802	29.64
853.971	30.05
854.141	21.01
854.31	23.78
854.479	22.1
854.648	26.63
854.818	34.28
854.987	32.51
855.156	36.51
855.325	41.63
855.494	44.57
855.663	45.84
855.832	37.13
856.001	42.49
856.171	44.03
856.34	41.51
856.509	45.42
856.678	44.77
856.847	53.93
857.016	53.74
857.185	51.43
857.353	50
857.522	44.35
857.691	42.41
857.86	45.74
858.029	43.58
858.198	46.73
858.367	48.14
858.535	36.62
858.704	32.94
858.873	34.55
859.042	32.73
859.21	38
859.379	46.06
859.548	56.81
859.717	54.44
859.885	53.18
860.054	52.6
860.222	46.87
860.391	46.79
860.56	46.19
860.728	44.02
860.897	45.95
861.065	39.73
861.234	41.23
861.402	36.16
861.571	35.6
861.739	35.25
861.908	37.93
862.076	35.52
862.244	35.79
862.413	28.76
862.581	24.27
862.749	20.6
862.918	29.91
863.086	19.81
863.254	16.91
863.423	19.5
863.591	18.02
863.759	8.21
863.927	8.45
864.096	10.46
864.264	10.44
864.432	12.3
864.6	20.18
864.768	8.76
864.936	6.17
865.104	17.11
865.272	6.45
865.44	11.38
865.608	20.95
865.776	27.71
865.944	28.31
866.112	32.18
866.28	29.6
866.448	20.47
866.616	25.65
866.784	32.9
866.952	31.51
867.12	32.12
867.288	21.62
867.455	25.52
867.623	27.77
867.791	30.88
867.959	35.16
868.127	35.44
868.294	41.21
868.462	43.55
868.63	44.27
868.797	52.28
868.965	62.01
869.133	72.66
869.3	66.58
869.468	62.88
869.636	58.33
869.803	50.2
869.971	54.75
870.138	50.61
870.306	45.64
870.473	42.12
870.641	39.03
870.808	23.4
870.975	18.76
871.143	25.11
871.31	16.09
871.478	12.95
871.645	11.79
871.812	2.33
871.98	18.81
872.147	28.27
872.314	25.13
872.482	12.56
872.649	17.26
872.816	21.31
872.983	18.16
873.15	27.07
873.318	22.89
873.485	31.43
873.652	33.06
873.819	29.36
873.986	28.26
874.153	31.39
874.32	35.78
874.487	38.97
874.654	41.05
874.821	43.08
874.988	48.13
875.155	48.97
875.322	43.58
875.489	44.06
875.656	42.6
875.823	47.87
875.99	48.35
876.157	50.02
876.324	52.16
876.49	53.62
876.657	49.28
876.824	37.28
876.991	47.07
877.157	54.52
877.324	54.26
877.491	56.69
877.658	42.1
877.824	36.46
877.991	32.62
878.157	44.72
878.324	35.66
878.491	24.64
878.657	31.42
878.824	23.52
878.99	18
879.157	21.64
879.323	19.13
879.49	20.13
879.656	27.73
879.823	28.23
879.989	20.47
880.156	25.91
880.322	30.29
880.488	32.52
880.655	31.07
880.821	34.41
880.987	35.61
881.154	39.06
881.32	37.81
881.486	36.89
881.652	40.25
881.819	39.02
881.985	37.75
882.151	34.81
882.317	34.6
882.483	34.78
882.649	35.28
882.816	35.15
882.982	32.9
883.148	32.68
883.314	32.84
883.48	30.52
883.646	30.16
883.812	30.99
883.978	31.4
884.144	32.44
884.31	34.29
884.476	33.63
884.642	32.17
884.807	34.11
884.973	36.17
885.139	35.67
885.305	36.95
885.471	36.8
885.637	36.53
885.802	38.5
885.968	37.46
886.134	37.49
886.3	36.69
886.465	40.58
886.631	37.68
886.797	33.86
886.962	35.11
887.128	32.2
887.293	35.97
887.459	35.31
887.625	34.7
887.79	32.26
887.956	29.47
888.121	30.68
888.287	26.21
888.452	27.99
888.618	32.77
888.783	27.23
