Data from CB_067_Reflection_1.txt Node
Date: Sat Nov 14 10:49:21 EST 2015
User: robert
Spectrometer: USB4E03001
Autoset integration time: false
Trigger mode: 4
Integration Time (sec): 1.000000E-1
Scans to average: 15
Electric dark correction enabled: true
Nonlinearity correction enabled: false
Boxcar width: 5
Stray light correction enabled: false
XAxis mode: Wavelengths
Stop averaging: false
Number of Pixels in Spectrum: 3648
>>>>>Begin Spectral Data<<<<<
177.566	-101.92
177.785	-217.85
178.005	-1124.81
178.225	-189.91
178.445	-217.35
178.665	-472.27
178.885	201.59
179.105	40.72
179.324	110.39
179.544	-26.19
179.764	23.58
179.984	-1.58
180.204	-4.65
180.423	-38.86
180.643	-25.26
180.863	-86.98
181.083	-839.13
181.302	-2429.37
181.522	139.52
181.742	429.8
181.961	561.72
182.181	123.86
182.401	91.01
182.621	115.18
182.84	728.49
183.06	-1042.03
183.279	-107.23
183.499	-20.68
183.719	-54.91
183.938	-4.9
184.158	38.27
184.377	29.59
184.597	44.15
184.816	62.22
185.036	80.11
185.256	129.96
185.475	145.97
185.695	188.61
185.914	247.64
186.134	220.41
186.353	153
186.572	80.37
186.792	338.26
187.011	-2034.87
187.231	1483.77
187.45	144.27
187.67	157.56
187.889	115.48
188.108	156.61
188.328	166.93
188.547	108.73
188.766	80.11
188.986	60.78
189.205	68.87
189.424	88.31
189.644	98.63
189.863	105.23
190.082	96.45
190.302	128.43
190.521	97.34
190.74	93.92
190.959	180.54
191.178	-0.48
191.398	69.96
191.617	167.21
191.836	1540.86
192.055	291.64
192.274	101.62
192.494	129.66
192.713	-383.93
192.932	-76.79
193.151	43700
193.37	76.82
193.589	-3571.68
193.808	-80.11
194.027	-157.73
194.246	-43.24
194.465	312.5
194.685	-48.82
194.904	-94.83
195.123	13.18
195.342	35.46
195.561	-4.93
195.78	-52.12
195.999	-554.58
196.218	-208.84
196.436	-425.24
196.655	-116.75
196.874	-78.67
197.093	-127.59
197.312	12.43
197.531	-92.13
197.75	-184.52
197.969	-232.88
198.188	25.16
198.407	38.05
198.625	58.79
198.844	158.56
199.063	158.77
199.282	393.65
199.501	-1789.84
199.719	-494.83
199.938	317.66
200.157	79.36
200.376	-344.31
200.594	25.38
200.813	-159.51
201.032	-58.93
201.251	110.18
201.469	82.81
201.688	-403.62
201.907	1052.33
202.125	291.02
202.344	551.06
202.563	5566.67
202.781	363.79
203	111.45
203.218	49.57
203.437	134.78
203.656	156.86
203.874	357.19
204.093	256.72
204.311	164.16
204.53	379.17
204.748	161.38
204.967	210.01
205.185	181.56
205.404	294.64
205.622	379.66
205.841	192.84
206.059	143.42
206.278	138.11
206.496	178.5
206.715	242.12
206.933	180.52
207.151	195.61
207.37	115.75
207.588	118.76
207.806	76.59
208.025	185.85
208.243	245.51
208.461	-9363.64
208.68	-14.64
208.898	54.7
209.116	54.74
209.335	63.34
209.553	44.41
209.771	83.5
209.989	83.13
210.208	81.81
210.426	27.22
210.644	50.88
210.862	47.53
211.081	62.79
211.299	59.17
211.517	52.86
211.735	26.39
211.953	23.02
212.171	22.65
212.39	-2.77
212.608	0.37
212.826	39.03
213.044	27.09
213.262	36.17
213.48	24.71
213.698	24.91
213.916	2.77
214.134	23.17
214.352	88.35
214.57	42.02
214.788	57.93
215.006	55.62
215.224	32.74
215.442	9.65
215.66	113.81
215.878	-12.21
216.096	-9.16
216.314	130.75
216.532	344.67
216.75	-75.83
216.968	-147.77
217.185	-1121.24
217.403	911.78
217.621	-36755.56
217.839	-225.36
218.057	-7406.25
218.275	-203.12
218.492	-28.53
218.71	-1273.73
218.928	1141.41
219.146	612.58
219.363	430.76
219.581	463.31
219.799	-2059.19
220.017	271.06
220.234	313.86
220.452	347.52
220.67	418.43
220.887	159.32
221.105	256.75
221.323	142.72
221.54	114.11
221.758	92.1
221.976	91.41
222.193	53.38
222.411	55.77
222.629	63.12
222.846	47.02
223.064	55.8
223.281	71.98
223.499	58.97
223.716	53
223.934	34.68
224.151	30.48
224.369	38.43
224.586	49.03
224.804	65.67
225.021	69.21
225.239	67.65
225.456	70.89
225.674	64.35
225.891	70.63
226.108	65.61
226.326	68.6
226.543	62.34
226.76	44.1
226.978	37.99
227.195	33.85
227.413	26.75
227.63	30.08
227.847	29.28
228.064	27.87
228.282	24
228.499	23.11
228.716	19.69
228.934	19.62
229.151	21.11
229.368	17.98
229.585	17.44
229.802	15.26
230.02	13.95
230.237	13.14
230.454	13.2
230.671	14.46
230.888	15.7
231.105	16.95
231.323	17.66
231.54	21.28
231.757	27.17
231.974	29.3
232.191	36.23
232.408	34.89
232.625	40.27
232.842	32.63
233.059	29.57
233.276	25.67
233.493	26.57
233.71	25.06
233.927	19.07
234.144	18.28
234.361	17.76
234.578	16.95
234.795	17.19
235.012	11.64
235.229	9.53
235.446	12.77
235.663	14.06
235.879	13.06
236.096	15.92
236.313	19.49
236.53	8.33
236.747	9.43
236.964	5.47
237.181	14.55
237.397	16.63
237.614	23.25
237.831	31.18
238.048	34.16
238.264	33.57
238.481	32.58
238.698	30.72
238.915	38.17
239.131	28.54
239.348	25.87
239.565	18.56
239.781	13.35
239.998	10.29
240.215	5.6
240.431	4.84
240.648	6.39
240.865	5.1
241.081	7.63
241.298	7.81
241.514	11.84
241.731	12.47
241.947	12.17
242.164	13.17
242.38	10.85
242.597	9.84
242.814	11.24
243.03	13.84
243.246	13.61
243.463	12.98
243.679	12.88
243.896	12.69
244.112	12.67
244.329	13.6
244.545	16.35
244.762	17.61
244.978	17.81
245.194	14.14
245.411	12.28
245.627	14.44
245.843	15.73
246.06	15.75
246.276	15.32
246.492	16.69
246.709	17.22
246.925	17.35
247.141	18.74
247.357	18.59
247.574	19.39
247.79	18.31
248.006	17.32
248.222	16.71
248.439	15.07
248.655	14.72
248.871	13.5
249.087	13.19
249.303	12.48
249.519	11.31
249.736	11.08
249.952	9.39
250.168	11.94
250.384	13.13
250.6	11.63
250.816	15.02
251.032	15.06
251.248	16.23
251.464	17.31
251.68	17.33
251.896	15
252.112	15.55
252.328	13.83
252.544	11.13
252.76	11.07
252.976	11.89
253.192	11.99
253.408	12.43
253.624	10.79
253.84	9.41
254.056	6.37
254.272	8.23
254.487	5.86
254.703	5.62
254.919	4.42
255.135	4.62
255.351	5.96
255.567	5.16
255.782	4.62
255.998	5.95
256.214	2.39
256.43	2.35
256.646	1.57
256.861	1.18
257.077	2.41
257.293	4.97
257.508	3.5
257.724	4.65
257.94	3.13
258.155	4.22
258.371	5.18
258.587	6.03
258.802	8.25
259.018	9.29
259.234	10.6
259.449	11.25
259.665	11.12
259.88	11.99
260.096	12.34
260.312	12.27
260.527	12.51
260.743	12.81
260.958	13.1
261.174	13.29
261.389	14.17
261.605	13.56
261.82	12.61
262.036	12.99
262.251	11.28
262.466	8.16
262.682	7.86
262.897	5.58
263.113	4.84
263.328	2.7
263.543	1.85
263.759	-0.57
263.974	-0.37
264.189	0.82
264.405	-1.69
264.62	0.18
264.835	1.83
265.051	4
265.266	5.84
265.481	7.32
265.696	11.93
265.912	10.18
266.127	10.13
266.342	10.46
266.557	11.3
266.773	12.97
266.988	11.81
267.203	12.38
267.418	11.69
267.633	11.17
267.848	10.24
268.064	6.96
268.279	9.15
268.494	8.17
268.709	6.51
268.924	7.09
269.139	4.48
269.354	6.49
269.569	5.51
269.784	7.04
269.999	7.18
270.214	7.85
270.429	9.46
270.644	9.05
270.859	9.82
271.074	9.57
271.289	10.1
271.504	11.51
271.719	10.94
271.934	10.56
272.149	9.47
272.363	10.4
272.578	8.92
272.793	8.36
273.008	7.36
273.223	6.03
273.438	6.59
273.653	5.36
273.867	5.61
274.082	6.21
274.297	6.75
274.512	8.36
274.726	7.11
274.941	7.45
275.156	10.06
275.371	10.9
275.585	12.5
275.8	13.23
276.015	13.21
276.229	13.41
276.444	12.24
276.659	11.67
276.873	8.9
277.088	10.38
277.302	11.82
277.517	10.16
277.732	10.5
277.946	10.43
278.161	10.34
278.375	10.2
278.59	8.43
278.804	8.31
279.019	10.59
279.233	11.58
279.448	9.35
279.662	9.91
279.877	10.43
280.091	8.69
280.306	9.42
280.52	7.2
280.735	7.19
280.949	9.66
281.163	10.67
281.378	9.12
281.592	8.56
281.806	9.56
282.021	7.96
282.235	6.34
282.449	8.07
282.664	8.83
282.878	10.97
283.092	11.21
283.307	9.82
283.521	8.83
283.735	8.66
283.949	9.95
284.164	9.73
284.378	9.92
284.592	10.52
284.806	10.95
285.02	9.82
285.234	8.16
285.449	8.76
285.663	9.6
285.877	9.59
286.091	9.82
286.305	9.3
286.519	9.11
286.733	9.85
286.947	11.29
287.161	11.17
287.375	11.02
287.589	13.31
287.803	13.43
288.017	13.23
288.231	13.98
288.445	14.1
288.659	14.63
288.873	15.23
289.087	14.52
289.301	13.81
289.515	12.35
289.729	12.95
289.943	12.95
290.157	13.26
290.371	12.48
290.584	12.6
290.798	12.82
291.012	12.65
291.226	11.88
291.44	12.67
291.654	12.45
291.867	12.38
292.081	12.4
292.295	11.86
292.509	11.79
292.722	11.42
292.936	10.35
293.15	10.45
293.364	10.36
293.577	11.83
293.791	11.13
294.005	10.28
294.218	12.03
294.432	11.87
294.645	11.73
294.859	9.93
295.073	11.25
295.286	12.27
295.5	12.55
295.713	12.1
295.927	12.01
296.14	10.78
296.354	10.91
296.568	10.31
296.781	10.22
296.994	10.56
297.208	10.46
297.421	9.65
297.635	9.55
297.848	9.42
298.062	8.78
298.275	8.31
298.489	9.28
298.702	10.82
298.915	10.36
299.129	10.22
299.342	10.27
299.555	12.27
299.769	13.3
299.982	13.13
300.195	13.29
300.409	13.79
300.622	13.82
300.835	13.08
301.048	11.35
301.262	11.59
301.475	11.78
301.688	11.09
301.901	8.68
302.115	9.21
302.328	9.09
302.541	8.53
302.754	10.75
302.967	9.84
303.18	11.59
303.393	11.69
303.607	11.83
303.82	12.92
304.033	12.88
304.246	14.41
304.459	13.89
304.672	14.93
304.885	16.26
305.098	15.69
305.311	17.36
305.524	16.67
305.737	16.74
305.95	16.73
306.163	16.49
306.376	15.91
306.589	16.11
306.802	16.04
307.015	15.66
307.228	14.54
307.44	13.65
307.653	13.25
307.866	12.89
308.079	13.45
308.292	12.73
308.505	12.64
308.718	14.27
308.93	14.61
309.143	13.84
309.356	14.01
309.569	14.37
309.781	14.34
309.994	14.73
310.207	14.97
310.42	14.94
310.632	16.27
310.845	16.27
311.058	15.18
311.27	14.53
311.483	15.15
311.696	14.38
311.908	13.45
312.121	13.84
312.333	13.96
312.546	13.53
312.759	12.47
312.971	11.05
313.184	10.35
313.396	11.09
313.609	10.83
313.821	11.73
314.034	11.81
314.246	12.17
314.459	11.91
314.671	11.75
314.884	11.76
315.096	13.63
315.309	13.87
315.521	15.37
315.733	14.88
315.946	14.94
316.158	13.85
316.371	14.06
316.583	13.31
316.795	12.6
317.008	12
317.22	13
317.432	11.44
317.644	12.91
317.857	12.02
318.069	12.67
318.281	13.18
318.494	13.46
318.706	15.74
318.918	18.38
319.13	17.65
319.342	17.17
319.555	16.38
319.767	17.07
319.979	15.99
320.191	15.67
320.403	14.93
320.615	16.4
320.827	16.62
321.039	14.45
321.252	14.76
321.464	16.27
321.676	16.97
321.888	17.92
322.1	17.8
322.312	17.79
322.524	18.22
322.736	16.8
322.948	16.16
323.16	15.51
323.372	15.79
323.584	14.78
323.796	13.18
324.007	13.88
324.219	13.96
324.431	15.62
324.643	17.19
324.855	17.33
325.067	18.33
325.279	18.03
325.491	19.14
325.702	20.31
325.914	20.11
326.126	22.1
326.338	20.15
326.55	20.41
326.761	18.87
326.973	18.31
327.185	19.09
327.396	21.71
327.608	21.63
327.82	20.9
328.032	20.64
328.243	20.75
328.455	21.51
328.666	22.88
328.878	23.48
329.09	23.92
329.301	23.35
329.513	22.36
329.725	20.86
329.936	21.74
330.148	21.7
330.359	21.69
330.571	23.65
330.782	22.98
330.994	24.48
331.205	24.05
331.417	25.76
331.628	27.07
331.84	27.91
332.051	28.26
332.262	28
332.474	28.51
332.685	28.38
332.897	27.04
333.108	27.84
333.319	26.56
333.531	26.17
333.742	25.46
333.953	24.9
334.165	25.08
334.376	25.15
334.587	25.27
334.799	24.75
335.01	24.45
335.221	24.87
335.432	23.24
335.644	23.72
335.855	24.77
336.066	24.78
336.277	25.31
336.488	24.72
336.7	23.94
336.911	24.07
337.122	24.22
337.333	24.99
337.544	24.91
337.755	26.43
337.966	26.09
338.177	25.4
338.388	24.72
338.599	24.26
338.811	24.85
339.022	25.28
339.233	25.29
339.444	25.15
339.655	24.01
339.866	24.31
340.076	23.14
340.287	23.22
340.498	23.51
340.709	23.15
340.92	23.8
341.131	23.49
341.342	24.52
341.553	23.38
341.764	24.25
341.975	24.46
342.185	23.95
342.396	24.62
342.607	25.16
342.818	25.28
343.029	26.25
343.239	25.88
343.45	25.38
343.661	23.86
343.872	24.56
344.082	24.59
344.293	24.79
344.504	24.81
344.714	24.76
344.925	24.32
345.136	24.4
345.346	23.18
345.557	22.45
345.768	22.65
345.978	23.43
346.189	22.93
346.399	21.9
346.61	21.61
346.821	21.88
347.031	21.37
347.242	21.5
347.452	20.65
347.663	21.81
347.873	22.69
348.084	23.18
348.294	22.61
348.504	23.22
348.715	24.28
348.925	24.15
349.136	22.5
349.346	23.46
349.557	23.36
349.767	24.43
349.977	23.85
350.188	23.28
350.398	23.09
350.608	23.33
350.819	23.74
351.029	22.74
351.239	24.28
351.449	25.23
351.66	24.56
351.87	24.36
352.08	23.95
352.29	24.49
352.501	24.85
352.711	24.32
352.921	24.18
353.131	23.48
353.341	24.17
353.552	22.64
353.762	22.01
353.972	21.35
354.182	21.34
354.392	20.78
354.602	19.95
354.812	20.2
355.022	20.03
355.232	20.32
355.442	20.16
355.652	20.15
355.862	20.6
356.072	21.74
356.282	21.64
356.492	21.64
356.702	21.51
356.912	21.65
357.122	21.58
357.332	21.49
357.542	20.95
357.752	20.83
357.962	20.46
358.171	20.17
358.381	19.68
358.591	20.62
358.801	20.85
359.011	20.91
359.221	21.39
359.43	20.78
359.64	20.72
359.85	20.59
360.06	20.62
360.269	20.97
360.479	21.54
360.689	21.54
360.899	21.09
361.108	20.85
361.318	20.6
361.528	20.46
361.737	20.85
361.947	21.15
362.156	21.02
362.366	21.06
362.576	20.82
362.785	20.14
362.995	19.84
363.204	19.75
363.414	19.86
363.623	19.86
363.833	19.86
364.042	19.43
364.252	20
364.461	19.9
364.671	19.93
364.88	20.17
365.09	21.41
365.299	21.41
365.509	21.88
365.718	21.55
365.927	21.84
366.137	20.98
366.346	21.17
366.555	20.26
366.765	20.72
366.974	20.87
367.183	20.83
367.393	19.4
367.602	19.4
367.811	18.93
368.021	19.44
368.23	19.11
368.439	19.6
368.648	19.47
368.857	19.77
369.067	19.13
369.276	19.17
369.485	18.64
369.694	18.95
369.903	18.78
370.112	18.33
370.321	17.67
370.531	17.65
370.74	17.8
370.949	17.32
371.158	17.2
371.367	17.76
371.576	17.12
371.785	17.19
371.994	17.1
372.203	17.06
372.412	17.08
372.621	17.09
372.83	17.2
373.039	17.16
373.248	17.44
373.457	17.16
373.666	16.27
373.874	16.58
374.083	16.39
374.292	16.48
374.501	16.59
374.71	16.86
374.919	16.85
375.128	16.65
375.336	16.27
375.545	16.5
375.754	16.68
375.963	16.75
376.171	16.44
376.38	16.24
376.589	15.94
376.798	15.71
377.006	16.05
377.215	16
377.424	15.74
377.632	15.52
377.841	15.52
378.05	14.89
378.258	15.29
378.467	15.09
378.675	15.29
378.884	15.54
379.093	15.32
379.301	15.28
379.51	14.79
379.718	14.94
379.927	15.37
380.135	14.81
380.344	14.82
380.552	14.81
380.761	14.54
380.969	14.13
381.177	13.45
381.386	14.47
381.594	13.77
381.803	13.57
382.011	13.82
382.219	13.36
382.428	13.19
382.636	13.77
382.845	13.15
383.053	13.49
383.261	13.15
383.469	13.39
383.678	12.79
383.886	13.04
384.094	13.57
384.302	13.35
384.511	13.32
384.719	13.48
384.927	13.24
385.135	13.47
385.343	13.13
385.552	13.51
385.76	13.29
385.968	13.06
386.176	12.64
386.384	12.06
386.592	11.56
386.8	12.14
387.008	12.18
387.216	11.74
387.424	11.54
387.633	11.66
387.841	11.68
388.049	11.88
388.257	11.81
388.465	11.71
388.672	11.83
388.88	12
389.088	11.09
389.296	10.56
389.504	10.4
389.712	10.58
389.92	10.66
390.128	10.54
390.336	10.47
390.544	10.6
390.751	10.81
390.959	11.26
391.167	11.03
391.375	11.47
391.583	11.39
391.79	11.46
391.998	11.46
392.206	11.28
392.414	10.98
392.621	10.84
392.829	10.81
393.037	10.76
393.244	10.51
393.452	10.59
393.66	10.2
393.867	10.45
394.075	10.08
394.283	9.86
394.49	9.49
394.698	9.67
394.905	9.71
395.113	9.55
395.32	9.26
395.528	8.91
395.735	8.98
395.943	9.18
396.15	9.24
396.358	9.54
396.565	9.7
396.773	10.07
396.98	10.19
397.188	9.83
397.395	9.8
397.602	9.97
397.81	10.05
398.017	9.61
398.225	9.59
398.432	9.43
398.639	9.54
398.847	9.18
399.054	9.12
399.261	9.05
399.468	9.43
399.676	9.38
399.883	8.99
400.09	9.16
400.297	9.32
400.505	9.29
400.712	9.66
400.919	9.72
401.126	10.02
401.333	9.96
401.54	9.89
401.748	9.92
401.955	9.86
402.162	9.9
402.369	9.76
402.576	9.75
402.783	9.11
402.99	8.73
403.197	8.6
403.404	8.43
403.611	8.48
403.818	8.56
404.025	8.48
404.232	8.66
404.439	8.72
404.646	8.7
404.853	8.67
405.06	8.51
405.267	8.6
405.474	8.43
405.681	8.53
405.887	8.56
406.094	8.64
406.301	8.5
406.508	8.42
406.715	8.44
406.922	8.48
407.128	8.86
407.335	9.41
407.542	8.95
407.749	8.62
407.955	8.48
408.162	8.26
408.369	7.82
408.575	7.81
408.782	7.84
408.989	7.55
409.195	7.37
409.402	7.18
409.609	6.94
409.815	7.15
410.022	7.38
410.228	7.17
410.435	7.26
410.642	7.54
410.848	7.44
411.055	7.42
411.261	7.63
411.468	7.73
411.674	7.52
411.881	7.81
412.087	8.1
412.294	8.21
412.5	8.31
412.706	8.34
412.913	8.24
413.119	8.13
413.326	7.63
413.532	7.49
413.738	7.55
413.945	7.31
414.151	7.31
414.357	7.26
414.564	7.47
414.77	7.47
414.976	7.35
415.182	7.5
415.389	7.59
415.595	7.75
415.801	7.84
416.007	7.95
416.214	8.01
416.42	7.99
416.626	7.86
416.832	7.64
417.038	7.61
417.244	7.72
417.45	7.41
417.657	7.3
417.863	7.19
418.069	7.37
418.275	7.24
418.481	7.29
418.687	7.22
418.893	7.18
419.099	7.05
419.305	6.97
419.511	6.96
419.717	7.01
419.923	6.98
420.129	7.03
420.335	7.01
420.541	6.87
420.746	6.91
420.952	6.92
421.158	6.97
421.364	6.95
421.57	6.92
421.776	6.74
421.982	6.86
422.187	6.86
422.393	6.86
422.599	6.86
422.805	6.82
423.01	6.77
423.216	6.64
423.422	6.71
423.628	6.8
423.833	6.74
424.039	6.82
424.245	6.8
424.45	6.82
424.656	6.74
424.862	6.61
425.067	6.59
425.273	6.48
425.478	6.44
425.684	6.15
425.889	6.19
426.095	6.27
426.301	6.33
426.506	6.21
426.712	6.24
426.917	6.47
427.123	6.4
427.328	6.48
427.533	6.67
427.739	6.83
427.944	7.01
428.15	6.9
428.355	6.85
428.561	6.7
428.766	6.63
428.971	6.45
429.177	6.15
429.382	6.11
429.587	6.15
429.793	6.1
429.998	6
430.203	5.76
430.408	5.92
430.614	5.95
430.819	5.92
431.024	5.87
431.229	5.83
431.434	6.11
431.64	6.19
431.845	6.17
432.05	6.18
432.255	6.17
432.46	6.41
432.665	6.18
432.87	6.23
433.076	6.25
433.281	6.44
433.486	6.49
433.691	6.29
433.896	6.36
434.101	6.15
434.306	6.02
434.511	6.04
434.716	5.95
434.921	6.08
435.126	6.01
435.331	5.99
435.535	5.77
435.74	5.62
435.945	5.62
436.15	5.55
436.355	5.91
436.56	5.88
436.765	6.03
436.97	6.01
437.174	6.04
437.379	6.1
437.584	6.2
437.789	6.24
437.993	6.4
438.198	6.5
438.403	6.52
438.608	6.54
438.812	6.65
439.017	6.45
439.222	6.41
439.426	6.42
439.631	6.38
439.836	6.43
440.04	6.47
440.245	6.47
440.45	6.48
440.654	6.46
440.859	6.16
441.063	6.22
441.268	6.28
441.472	6.32
441.677	6.07
441.881	5.95
442.086	5.81
442.29	5.75
442.495	5.74
442.699	5.7
442.904	5.65
443.108	5.94
443.312	5.81
443.517	5.89
443.721	5.76
443.925	5.7
444.13	5.74
444.334	5.72
444.538	5.82
444.743	5.78
444.947	5.7
445.151	5.75
445.356	5.59
445.56	5.6
445.764	5.52
445.968	5.65
446.173	5.74
446.377	5.81
446.581	5.92
446.785	5.81
446.989	5.82
447.193	5.83
447.398	5.79
447.602	5.71
447.806	5.71
448.01	5.65
448.214	5.58
448.418	5.47
448.622	5.49
448.826	5.3
449.03	5.35
449.234	5.44
449.438	5.41
449.642	5.44
449.846	5.57
450.05	5.62
450.254	5.77
450.458	5.75
450.662	6
450.866	6
451.069	6.07
451.273	6.08
451.477	5.95
451.681	5.99
451.885	5.73
452.089	5.83
452.292	5.71
452.496	5.55
452.7	5.67
452.904	5.66
453.107	5.78
453.311	5.58
453.515	5.61
453.719	5.53
453.922	5.49
454.126	5.73
454.33	5.57
454.533	5.52
454.737	5.53
454.94	5.35
455.144	5.38
455.348	5.04
455.551	5.35
455.755	5.33
455.958	5.54
456.162	5.56
456.365	5.42
456.569	5.29
456.772	5.3
456.976	5.49
457.179	5.61
457.383	5.6
457.586	5.73
457.79	5.7
457.993	5.62
458.196	5.5
458.4	5.4
458.603	5.49
458.807	5.52
459.01	5.6
459.213	5.53
459.417	5.55
459.62	5.54
459.823	5.56
460.026	5.44
460.23	5.46
460.433	5.42
460.636	5.35
460.839	5.23
461.042	5.22
461.246	5.19
461.449	5.16
461.652	5.16
461.855	5.08
462.058	5.11
462.261	5.14
462.464	4.98
462.668	5.09
462.871	5.48
463.074	5.52
463.277	5.53
463.48	5.39
463.683	5.54
463.886	5.4
464.089	5.54
464.292	5.41
464.495	5.49
464.698	5.5
464.901	5.28
465.104	4.88
465.306	4.84
465.509	4.93
465.712	5.19
465.915	5.2
466.118	5.13
466.321	5.12
466.524	5.09
466.726	5.08
466.929	5.19
467.132	5.17
467.335	5.47
467.538	5.73
467.74	5.69
467.943	5.54
468.146	5.41
468.348	5.51
468.551	5.51
468.754	5.59
468.956	5.66
469.159	5.61
469.362	5.96
469.564	5.91
469.767	5.74
469.969	5.78
470.172	5.97
470.375	5.97
470.577	6.06
470.78	5.95
470.982	5.88
471.185	5.94
471.387	6.13
471.59	5.9
471.792	5.9
471.995	5.95
472.197	6.02
472.399	5.96
472.602	5.91
472.804	5.92
473.007	5.91
473.209	5.94
473.411	5.89
473.614	5.88
473.816	5.79
474.018	5.72
474.22	5.83
474.423	5.84
474.625	5.8
474.827	5.74
475.03	5.73
475.232	5.82
475.434	5.75
475.636	5.58
475.838	5.45
476.04	5.57
476.243	5.55
476.445	5.38
476.647	5.31
476.849	5.24
477.051	5.22
477.253	5.29
477.455	5.27
477.657	5.35
477.859	5.52
478.061	5.34
478.263	5.19
478.465	5.18
478.667	5.18
478.869	4.93
479.071	4.96
479.273	4.96
479.475	4.76
479.677	4.76
479.879	4.69
480.081	4.43
480.283	4.54
480.485	4.56
480.686	4.78
480.888	4.86
481.09	5.07
481.292	5.06
481.494	5.1
481.695	5.18
481.897	5.19
482.099	5.18
482.301	5.28
482.502	5.28
482.704	5.41
482.906	5.26
483.107	5.17
483.309	5.13
483.511	5.14
483.712	5.14
483.914	5.13
484.115	5.07
484.317	5.08
484.519	5.13
484.72	5.15
484.922	5.11
485.123	5.06
485.325	5.11
485.526	5.17
485.728	5.13
485.929	5.13
486.131	5.09
486.332	5.11
486.534	5.16
486.735	5.09
486.936	5.06
487.138	5.01
487.339	5.13
487.541	5.04
487.742	5.04
487.943	5.07
488.144	5.1
488.346	5.15
488.547	5.18
488.748	5.19
488.95	5.19
489.151	5.27
489.352	5.3
489.553	5.26
489.755	5.36
489.956	5.38
490.157	5.4
490.358	5.38
490.559	5.25
490.76	5.21
490.961	5.07
491.163	5.12
491.364	5.12
491.565	5.11
491.766	5.14
491.967	5.16
492.168	5.11
492.369	5.03
492.57	5.03
492.771	5.14
492.972	5.21
493.173	5.34
493.374	5.42
493.575	5.35
493.776	5.33
493.976	5.29
494.177	5.32
494.378	5.34
494.579	5.55
494.78	5.69
494.981	5.74
495.182	5.76
495.382	5.8
495.583	5.81
495.784	5.99
495.985	6.12
496.185	6.09
496.386	6.08
496.587	6.28
496.788	6.15
496.988	5.91
497.189	5.94
497.39	5.92
497.59	5.96
497.791	5.74
497.992	5.69
498.192	5.66
498.393	5.87
498.593	5.98
498.794	5.9
498.994	6.09
499.195	6.26
499.395	6.35
499.596	6.43
499.796	6.35
499.997	6.64
500.197	6.65
500.398	6.69
500.598	6.42
500.799	6.56
500.999	6.46
501.199	6.38
501.4	6.48
501.6	6.33
501.801	6.36
502.001	6.4
502.201	6.2
502.402	6.27
502.602	6.29
502.802	6.52
503.002	6.33
503.203	6.46
503.403	6.52
503.603	6.47
503.803	6.5
504.003	6.59
504.204	6.61
504.404	6.9
504.604	6.91
504.804	7.1
505.004	7.01
505.204	7.16
505.404	7.24
505.604	7.07
505.804	7.13
506.005	7.21
506.205	7.02
506.405	7.13
506.605	7.01
506.805	7.21
507.005	7.09
507.204	7.18
507.404	6.96
507.604	6.97
507.804	7.2
508.004	7.23
508.204	7.25
508.404	7.48
508.604	7.48
508.804	7.63
509.003	7.48
509.203	7.58
509.403	7.7
509.603	7.86
509.803	7.94
510.002	7.98
510.202	8.01
510.402	8.07
510.602	7.92
510.801	7.99
511.001	7.88
511.201	7.95
511.4	7.94
511.6	8.07
511.8	8.27
511.999	8.31
512.199	8.2
512.398	8.4
512.598	8.55
512.797	8.96
512.997	9.13
513.197	9.3
513.396	9.45
513.596	9.57
513.795	9.58
513.994	9.51
514.194	9.52
514.393	9.85
514.593	9.8
514.792	9.95
514.992	9.93
515.191	9.99
515.39	10.12
515.59	10.19
515.789	10.36
515.988	10.37
516.188	10.43
516.387	10.64
516.586	10.76
516.786	10.92
516.985	10.85
517.184	10.9
517.383	11
517.582	11.1
517.782	11.14
517.981	11.21
518.18	11.27
518.379	11.62
518.578	11.6
518.777	11.58
518.976	11.77
519.176	11.89
519.375	11.83
519.574	11.88
519.773	11.93
519.972	12.15
520.171	12.28
520.37	12.42
520.569	12.34
520.768	12.65
520.967	12.77
521.166	12.81
521.365	12.92
521.564	13.18
521.762	13.32
521.961	13.45
522.16	13.44
522.359	13.54
522.558	13.52
522.757	13.53
522.956	13.39
523.154	13.54
523.353	13.66
523.552	13.8
523.751	13.84
523.949	13.97
524.148	14.03
524.347	14.17
524.546	14.27
524.744	14.44
524.943	14.52
525.142	14.56
525.34	14.63
525.539	14.57
525.737	14.69
525.936	14.73
526.135	14.78
526.333	14.79
526.532	14.74
526.73	14.74
526.929	14.87
527.127	14.97
527.326	15.07
527.524	15.19
527.723	15.34
527.921	15.35
528.12	15.45
528.318	15.44
528.516	15.55
528.715	15.61
528.913	15.68
529.112	15.72
529.31	15.79
529.508	15.81
529.707	15.77
529.905	15.87
530.103	15.9
530.301	15.93
530.5	16.03
530.698	16.11
530.896	16.21
531.094	16.36
531.293	16.44
531.491	16.58
531.689	16.74
531.887	16.91
532.085	16.87
532.283	16.96
532.481	17.04
532.68	17.11
532.878	17.19
533.076	17.31
533.274	17.21
533.472	17.18
533.67	17.17
533.868	17.21
534.066	17.32
534.264	17.35
534.462	17.33
534.66	17.44
534.858	17.56
535.056	17.67
535.253	17.59
535.451	17.81
535.649	17.99
535.847	18.18
536.045	18.3
536.243	18.38
536.441	18.47
536.638	18.6
536.836	18.65
537.034	18.7
537.232	18.67
537.43	18.75
537.627	18.83
537.825	19
538.023	18.95
538.22	19.08
538.418	19.12
538.616	19.34
538.813	19.53
539.011	19.77
539.209	19.73
539.406	19.8
539.604	20.05
539.801	19.95
539.999	19.94
540.196	19.93
540.394	19.97
540.591	19.93
540.789	19.89
540.986	19.83
541.184	19.85
541.381	19.96
541.579	19.98
541.776	19.99
541.974	20.07
542.171	20.06
542.368	20.13
542.566	20.13
542.763	20.14
542.96	20.15
543.158	20.35
543.355	20.38
543.552	20.43
543.75	20.49
543.947	20.54
544.144	20.67
544.341	20.78
544.539	20.86
544.736	20.98
544.933	21.15
545.13	21.17
545.327	21.12
545.524	21.22
545.722	21.22
545.919	21.34
546.116	21.38
546.313	21.4
546.51	21.42
546.707	21.36
546.904	21.4
547.101	21.44
547.298	21.52
547.495	21.7
547.692	21.64
547.889	21.59
548.086	21.61
548.283	21.78
548.48	21.68
548.677	21.71
548.874	21.85
549.07	21.98
549.267	22.04
549.464	22.24
549.661	22.19
549.858	22.42
550.055	22.7
550.251	22.76
550.448	22.45
550.645	22.49
550.842	22.71
551.038	22.56
551.235	22.45
551.432	22.42
551.628	22.27
551.825	22.27
552.022	21.98
552.218	21.83
552.415	21.92
552.612	22.1
552.808	22.35
553.005	22.24
553.201	22.26
553.398	22.19
553.594	22.27
553.791	22.53
553.987	22.53
554.184	22.75
554.38	22.8
554.577	22.9
554.773	23.13
554.97	22.98
555.166	23.17
555.362	23.41
555.559	23.58
555.755	23.61
555.952	23.74
556.148	24
556.344	24.12
556.541	24.34
556.737	24.27
556.933	24.15
557.129	24.24
557.326	24.18
557.522	24.1
557.718	24.32
557.914	24.37
558.11	23.9
558.307	23.73
558.503	23.57
558.699	23.72
558.895	23.93
559.091	24.07
559.287	24.28
559.483	24.34
559.679	24.22
559.876	23.94
560.072	23.88
560.268	24.1
560.464	24.18
560.66	24.25
560.856	24.11
561.052	23.97
561.247	23.85
561.443	23.61
561.639	23.73
561.835	24.12
562.031	24.31
562.227	24.49
562.423	24.49
562.619	24.5
562.815	24.63
563.01	24.8
563.206	24.95
563.402	25
563.598	25.16
563.793	25.1
563.989	25.07
564.185	24.99
564.381	24.78
564.576	25
564.772	24.82
564.968	24.74
565.163	24.55
565.359	24.49
565.555	24.57
565.75	24.57
565.946	24.5
566.141	24.36
566.337	24.34
566.532	24.52
566.728	24.49
566.923	24.57
567.119	24.59
567.314	24.7
567.51	24.61
567.705	24.62
567.901	24.83
568.096	24.83
568.292	25.1
568.487	25.4
568.682	25.29
568.878	25.31
569.073	25.24
569.268	25.2
569.464	25.21
569.659	25.38
569.854	25.31
570.05	25.1
570.245	25.46
570.44	25.59
570.635	25.33
570.831	25.45
571.026	25.38
571.221	25.53
571.416	25.68
571.611	25.66
571.806	25.57
572.002	25.63
572.197	25.54
572.392	25.24
572.587	25.08
572.782	25.25
572.977	25.24
573.172	25.11
573.367	25
573.562	25.02
573.757	25.1
573.952	25.03
574.147	24.97
574.342	25.14
574.537	25.24
574.732	25.15
574.927	25.24
575.121	25.27
575.316	25.55
575.511	25.61
575.706	25.66
575.901	25.73
576.096	25.88
576.29	25.97
576.485	26.13
576.68	26.22
576.875	26.34
577.069	26.3
577.264	26.17
577.459	26.15
577.654	26.44
577.848	26.33
578.043	26.38
578.238	26.62
578.432	26.75
578.627	26.51
578.821	26.54
579.016	26.63
579.21	26.62
579.405	26.77
579.6	26.79
579.794	26.68
579.989	26.69
580.183	26.97
580.378	26.73
580.572	26.87
580.766	26.97
580.961	26.94
581.155	26.96
581.35	26.8
581.544	26.94
581.738	27.08
581.933	27.06
582.127	27.36
582.321	26.94
582.516	26.91
582.71	26.7
582.904	26.83
583.099	26.73
583.293	26.68
583.487	27.06
583.681	27.14
583.875	27.06
584.07	27.16
584.264	27.21
584.458	27.38
584.652	27.64
584.846	27.59
585.04	27.37
585.234	27.49
585.428	27.66
585.623	27.4
585.817	27.12
586.011	26.96
586.205	26.95
586.399	26.9
586.593	26.88
586.787	26.85
586.981	26.73
587.174	26.91
587.368	27.16
587.562	27.23
587.756	27.36
587.95	27.62
588.144	27.78
588.338	27.79
588.532	27.63
588.725	27.69
588.919	27.6
589.113	27.74
589.307	27.94
589.501	27.44
589.694	27.64
589.888	27.57
590.082	27.47
590.275	27.37
590.469	27.38
590.663	27.65
590.856	27.5
591.05	27.47
591.244	27.55
591.437	27.58
591.631	28.09
591.824	27.71
592.018	27.84
592.212	27.79
592.405	27.81
592.599	27.95
592.792	27.68
592.986	27.87
593.179	27.92
593.372	27.8
593.566	27.35
593.759	27.38
593.953	27.52
594.146	27.44
594.339	27.49
594.533	27.67
594.726	27.47
594.92	27.72
595.113	27.36
595.306	27.4
595.499	27.51
595.693	27.79
595.886	27.8
596.079	27.79
596.272	27.9
596.466	27.89
596.659	27.72
596.852	27.9
597.045	27.74
597.238	27.89
597.431	27.89
597.624	27.92
597.818	27.77
598.011	27.64
598.204	27.69
598.397	27.56
598.59	27.67
598.783	27.85
598.976	27.88
599.169	27.92
599.362	28
599.555	27.92
599.748	27.92
599.941	27.96
600.134	27.94
600.326	27.92
600.519	28.02
600.712	28.19
600.905	28.17
601.098	28.02
601.291	28.12
601.483	27.97
601.676	27.91
601.869	27.8
602.062	27.75
602.255	27.78
602.447	27.75
602.64	27.7
602.833	27.44
603.025	27.58
603.218	27.6
603.411	27.52
603.603	27.69
603.796	27.83
603.989	27.81
604.181	27.92
604.374	27.86
604.566	27.87
604.759	27.87
604.951	28.11
605.144	28.09
605.336	28.45
605.529	28.51
605.721	28.62
605.914	28.63
606.106	28.78
606.299	29.05
606.491	29.23
606.683	29.2
606.876	29.33
607.068	29.28
607.26	29.08
607.453	28.57
607.645	28.6
607.837	28.63
608.03	28.67
608.222	28.76
608.414	28.57
608.606	28.56
608.799	28.82
608.991	28.85
609.183	29
609.375	29.11
609.567	29.21
609.759	29.46
609.952	29.35
610.144	29.62
610.336	29.82
610.528	29.95
610.72	30.28
610.912	30.44
611.104	30.73
611.296	30.7
611.488	31.3
611.68	31.68
611.872	31.58
612.064	31.8
612.256	31.72
612.448	31.47
612.64	31.55
612.832	31.51
613.023	31.54
613.215	31.52
613.407	31.22
613.599	30.47
613.791	30.44
613.983	30.41
614.174	30.34
614.366	30.09
614.558	30.24
614.75	30.28
614.941	29.92
615.133	29.52
615.325	29.05
615.516	29.45
615.708	29.8
615.9	29.65
616.091	29.55
616.283	29.61
616.475	29.61
616.666	29.31
616.858	29.24
617.049	29.35
617.241	29.58
617.432	29.79
617.624	29.99
617.815	29.71
618.007	29.58
618.198	29.75
618.39	29.74
618.581	29.95
618.773	30.38
618.964	30.29
619.155	30.16
619.347	30.09
619.538	29.96
619.729	29.48
619.921	29.65
620.112	29.64
620.303	29.24
620.494	29.53
620.686	29.79
620.877	29.8
621.068	29.76
621.259	29.83
621.451	29.87
621.642	29.84
621.833	29.9
622.024	29.86
622.215	29.91
622.406	30.05
622.597	29.54
622.788	29.02
622.98	28.57
623.171	28.83
623.362	29.07
623.553	29.17
623.744	29.02
623.935	29.04
624.126	28.85
624.317	28.97
624.508	28.92
624.698	29.12
624.889	29.22
625.08	29.81
625.271	29.66
625.462	29.26
625.653	29.17
625.844	29.17
626.034	29.22
626.225	29.56
626.416	29.31
626.607	29.55
626.798	29.41
626.988	29.61
627.179	29.3
627.37	29.15
627.56	29.45
627.751	29.87
627.942	30.3
628.132	29.97
628.323	30.03
628.514	30.2
628.704	30.12
628.895	30.15
629.085	29.93
629.276	29.87
629.466	29.86
629.657	29.54
629.847	29.13
630.038	29.4
630.228	29.79
630.419	29.72
630.609	29.7
630.8	29.66
630.99	29.99
631.181	30.36
631.371	30.65
631.561	30.83
631.752	30.94
631.942	30.83
632.132	30
632.323	29.89
632.513	29.7
632.703	29.85
632.893	29.91
633.084	29.5
633.274	29.36
633.464	28.93
633.654	28.94
633.844	29.08
634.034	28.92
634.225	29.15
634.415	29.25
634.605	29.14
634.795	28.97
634.985	29
635.175	29.47
635.365	29.61
635.555	29.77
635.745	29.76
635.935	29.77
636.125	29.88
636.315	30.36
636.505	30.16
636.695	30.33
636.885	30.16
637.075	30.23
637.265	29.88
637.455	30.15
637.644	30.57
637.834	30.49
638.024	30.11
638.214	30.26
638.404	30.15
638.593	29.9
638.783	29.77
638.973	30.08
639.163	30.05
639.352	29.97
639.542	29.65
639.732	29.39
639.921	29.37
640.111	29.72
640.301	29.48
640.49	29.4
640.68	29.85
640.87	30.06
641.059	30.06
641.249	30.34
641.438	30.41
641.628	30.26
641.817	30.57
642.007	30.66
642.196	31.17
642.386	31.32
642.575	31.3
642.764	31.6
642.954	31.63
643.143	31.78
643.333	31.51
643.522	31.38
643.711	31.24
643.901	31.14
644.09	31.28
644.279	31.28
644.469	31.37
644.658	31.5
644.847	31.29
645.036	31.39
645.226	31.24
645.415	31.02
645.604	31.06
645.793	31.32
645.982	30.71
646.171	30.48
646.361	29.74
646.55	29.78
646.739	29.48
646.928	29.32
647.117	29.35
647.306	29.33
647.495	28.95
647.684	29.14
647.873	28.85
648.062	29.17
648.251	29.14
648.44	29.5
648.629	29.31
648.818	29.54
649.007	29.8
649.196	29.75
649.384	29.61
649.573	30.19
649.762	29.89
649.951	30.03
650.14	30.23
650.328	30.17
650.517	29.94
650.706	30.47
650.895	30.24
651.083	30.56
651.272	30.66
651.461	30.75
651.65	30.43
651.838	30.64
652.027	30.31
652.216	30.06
652.404	29.92
652.593	29.88
652.781	29.76
652.97	29.65
653.158	29.4
653.347	29.3
653.535	29.36
653.724	29.86
653.912	30.42
654.101	30.8
654.289	31.13
654.478	31.6
654.666	31.66
654.855	31.46
655.043	31.6
655.231	31.36
655.42	31.33
655.608	31.56
655.796	31.45
655.985	31.28
656.173	30.98
656.361	31.14
656.55	30.99
656.738	31.16
656.926	31.2
657.114	30.92
657.302	31.02
657.491	31.02
657.679	30.95
657.867	30.84
658.055	30.28
658.243	30.35
658.431	29.99
658.619	30.3
658.807	30.52
658.996	30.5
659.184	30.77
659.372	30.93
659.56	30.83
659.748	30.7
659.936	30.58
660.124	30.75
660.311	30.82
660.499	30.75
660.687	30.3
660.875	30.16
661.063	29.99
661.251	29.64
661.439	29.9
661.627	29.78
661.814	29.74
662.002	29.4
662.19	29.32
662.378	29.11
662.565	29.44
662.753	29.96
662.941	29.8
663.129	29.44
663.316	29.81
663.504	29.19
663.692	29.31
663.879	29.12
664.067	29.54
664.254	29.74
664.442	29.97
664.63	29.67
664.817	29.59
665.005	29.62
665.192	30.49
665.38	30.77
665.567	30.99
665.755	31.35
665.942	31.03
666.13	31.45
666.317	31.39
666.504	31.5
666.692	31.85
666.879	31.36
667.067	31.37
667.254	31.31
667.441	30.96
667.629	30.9
667.816	30.87
668.003	31.6
668.19	31.66
668.378	32
668.565	32.26
668.752	32.04
668.939	32.47
669.127	32.2
669.314	31.59
669.501	32.06
669.688	31.48
669.875	31.4
670.062	30.96
670.249	30.44
670.436	30.36
670.623	30.27
670.81	30.45
670.997	30.5
671.184	30.34
671.371	30.5
671.558	29.94
671.745	30.77
671.932	30.36
672.119	30.35
672.306	30.77
672.493	30.45
672.68	30.51
672.867	30.59
673.054	30.32
673.24	31.34
673.427	31.31
673.614	31.41
673.801	31.11
673.988	31.74
674.174	32.36
674.361	31.86
674.548	31.7
674.734	31.48
674.921	31.2
675.108	31.36
675.294	30.78
675.481	31.05
675.668	30.96
675.854	31.43
676.041	31.35
676.227	31.37
676.414	31.53
676.601	32.02
676.787	31.51
676.974	31.35
677.16	31.03
677.347	31.31
677.533	31.38
677.719	31.44
677.906	30.84
678.092	30.69
678.279	30.4
678.465	30.39
678.651	30.19
678.838	30.56
679.024	30.69
679.21	30.54
679.397	30.66
679.583	31.06
679.769	30.77
679.955	30.72
680.142	30.31
680.328	30.4
680.514	30.43
680.7	30.02
680.886	29.89
681.073	30.08
681.259	30.3
681.445	29.97
681.631	29.43
681.817	29.77
682.003	29.98
682.189	30.05
682.375	29.94
682.561	30.28
682.747	30.49
682.933	30.65
683.119	30.08
683.305	30.15
683.491	30.25
683.677	30.67
683.863	30.23
684.049	30.25
684.235	30.59
684.42	30.57
684.606	30.24
684.792	30.71
684.978	30.8
685.164	31.12
685.349	31.26
685.535	31.53
685.721	31.2
685.907	31.46
686.092	31.19
686.278	31.44
686.464	31.58
686.649	32
686.835	31.72
687.021	31.91
687.206	32.06
687.392	32.25
687.577	32.35
687.763	32.83
687.948	33.13
688.134	32.99
688.319	32.71
688.505	32.56
688.69	32.16
688.876	31.99
689.061	31.4
689.247	31.55
689.432	31.61
689.618	31.02
689.803	30.68
689.988	30.81
690.174	30.84
690.359	30.66
690.544	30.8
690.73	31.02
690.915	31.48
691.1	31.59
691.285	31.49
691.471	31.19
691.656	31.35
691.841	30.81
692.026	30.4
692.211	30.45
692.396	30.91
692.582	31.07
692.767	30.31
692.952	30.19
693.137	30.36
693.322	30.35
693.507	30.28
693.692	29.95
693.877	30.1
694.062	30.35
694.247	31.29
694.432	30.95
694.617	30.96
694.802	31.8
694.987	32.02
695.172	31.87
695.357	31.87
695.541	31.73
695.726	32.45
695.911	33.04
696.096	33.08
696.281	32.32
696.466	32.22
696.65	32.23
696.835	31.98
697.02	30.97
697.204	31.23
697.389	31.11
697.574	31.04
697.759	31.14
697.943	30.75
698.128	31.19
698.312	31.41
698.497	31.4
698.682	31.09
698.866	31.27
699.051	31.74
699.235	32.15
699.42	32.09
699.604	32.48
699.789	32.39
699.973	32.25
700.158	31.6
700.342	31.27
700.527	31.7
700.711	32.11
700.895	31.86
701.08	31.79
701.264	31.25
701.448	31.09
701.633	31.05
701.817	31.04
702.001	31.53
702.186	31.23
702.37	31.28
702.554	30.94
702.738	30.88
702.923	30.92
703.107	31.48
703.291	31.79
703.475	32.84
703.659	32.49
703.843	31.68
704.027	31.8
704.212	32.01
704.396	33.34
704.58	33.69
704.764	33.42
704.948	33.52
705.132	33.69
705.316	33.74
705.5	33.72
705.684	33.99
705.868	35.18
706.052	35.18
706.235	36.08
706.419	35.25
706.603	34.44
706.787	34.39
706.971	34.18
707.155	33.78
707.339	33.14
707.522	32.95
707.706	33.15
707.89	32.66
708.074	32.97
708.257	32.25
708.441	32.26
708.625	32.48
708.808	32.51
708.992	33.24
709.176	32.82
709.359	33.57
709.543	33.08
709.727	32.62
709.91	33.12
710.094	33.01
710.277	33.99
710.461	33.67
710.644	33.64
710.828	34.23
711.011	33.65
711.195	33.95
711.378	33.73
711.562	34.17
711.745	34.53
711.928	33.82
712.112	33.54
712.295	32.67
712.478	32.9
712.662	33.38
712.845	33.03
713.028	33.39
713.212	34.07
713.395	33.99
713.578	33.5
713.761	33.84
713.945	33.97
714.128	34.03
714.311	34.31
714.494	33.62
714.677	33.05
714.86	32.65
715.043	32.3
715.227	31.79
715.41	32.17
715.593	32.52
715.776	31.59
715.959	31.48
716.142	31.48
716.325	31.04
716.508	31.77
716.691	31.76
716.874	32.16
717.057	32.23
717.239	32.19
717.422	31.85
717.605	31.14
717.788	31.41
717.971	33
718.154	33.06
718.337	33.5
718.519	32.59
718.702	33.16
718.885	32.12
719.068	32.02
719.25	32.47
719.433	32.75
719.616	33.52
719.798	34.45
719.981	32.96
720.164	32.45
720.346	32.88
720.529	34.07
720.712	34.06
720.894	35.12
721.077	35.25
721.259	35.14
721.442	35.41
721.624	35.68
721.807	35.13
721.989	35.16
722.172	35.24
722.354	35.57
722.537	35.24
722.719	35.01
722.901	35.45
723.084	34.79
723.266	34.15
723.448	33.38
723.631	32.82
723.813	32.31
723.995	32.17
724.178	32.82
724.36	31.57
724.542	30.9
724.724	31.29
724.907	31.01
725.089	31.63
725.271	32.21
725.453	32.79
725.635	32.84
725.817	33.13
725.999	32.53
726.181	32.52
726.364	33.01
726.546	34.44
726.728	33.45
726.91	33.03
727.092	33.53
727.274	33.67
727.456	33.5
727.638	33.1
727.819	33.44
728.001	34.15
728.183	34.23
728.365	33.84
728.547	33.01
728.729	33.77
728.911	33.97
729.093	33.99
729.274	32.87
729.456	32.08
729.638	32.62
729.82	32.03
730.001	31.63
730.183	31.72
730.365	32.21
730.546	33.05
730.728	32.62
730.91	32.68
731.091	32.32
731.273	32.55
731.455	32.87
731.636	33.02
731.818	33.55
731.999	33.67
732.181	32.61
732.362	31.72
732.544	31.51
732.725	31.34
732.907	30.7
733.088	30.87
733.27	32.9
733.451	33.23
733.633	33.49
733.814	33.98
733.995	33.46
734.177	34.73
734.358	35.51
734.539	35.14
734.721	35.87
734.902	37.18
735.083	38.03
735.264	36.32
735.446	36.99
735.627	36.28
735.808	35.64
735.989	37.32
736.17	36.94
736.351	37.27
736.533	37.13
736.714	36.35
736.895	34.81
737.076	33.13
737.257	33.88
737.438	33.49
737.619	34.21
737.8	33.97
737.981	33.28
738.162	33.1
738.343	32.64
738.524	32.9
738.705	34.07
738.886	35.21
739.067	35.93
739.247	35.63
739.428	34.8
739.609	34.1
739.79	35.44
739.971	35.04
740.151	35.05
740.332	34.69
740.513	33.78
740.694	32.99
740.874	32.81
741.055	32.6
741.236	31.77
741.417	32.72
741.597	33.82
741.778	33.13
741.958	32.71
742.139	31.79
742.32	30.85
742.5	31.37
742.681	32.43
742.861	32.47
743.042	32.01
743.222	32.84
743.403	32.47
743.583	33.54
743.764	32.78
743.944	33.08
744.124	35.31
744.305	37.39
744.485	38.23
744.666	38.09
744.846	38.41
745.026	39.28
745.207	39.44
745.387	39.13
745.567	37.9
745.747	37.64
745.928	36.73
746.108	36
746.288	34.7
746.468	35.15
746.648	34.9
746.829	33.54
747.009	34.07
747.189	33.58
747.369	33.69
747.549	32.61
747.729	33.79
747.909	35.36
748.089	35.35
748.269	35.87
748.449	35.08
748.629	33.91
748.809	34.37
748.989	34.67
749.169	34.82
749.349	35.18
749.529	35.22
749.709	34.78
749.889	34.63
750.068	34.11
750.248	34.37
750.428	35.11
750.608	35.91
750.788	35.69
750.967	35.02
751.147	34.22
751.327	34.67
751.507	35.79
751.686	36.2
751.866	36.5
752.046	36.76
752.225	37.1
752.405	36.48
752.585	35.93
752.764	36.74
752.944	35.68
753.123	36.72
753.303	35.71
753.482	34.53
753.662	33.83
753.841	33.1
754.021	31.7
754.2	31.36
754.38	31.32
754.559	31.47
754.739	32.18
754.918	33.45
755.097	32.8
755.277	32.91
755.456	33.22
755.635	33.71
755.815	33.95
755.994	35.7
756.173	34.83
756.352	34.67
756.532	34.46
756.711	32.94
756.89	33.11
757.069	32.78
757.248	32.02
757.427	31.6
757.607	31.43
757.786	31.56
757.965	30.86
758.144	31.45
758.323	32.01
758.502	33.49
758.681	33.82
758.86	33.57
759.039	33.93
759.218	34.41
759.397	35.16
759.576	35.54
759.755	35.59
759.934	35.4
760.113	36.25
760.291	36.01
760.47	35.89
760.649	36.54
760.828	36.56
761.007	35.94
761.186	36.08
761.364	34.11
761.543	33.86
761.722	34.07
761.901	33.72
762.079	33.92
762.258	33.41
762.437	32.37
762.615	31.61
762.794	31.29
762.972	32.49
763.151	32.93
763.33	33.67
763.508	33.85
763.687	33.97
763.865	34.87
764.044	33.82
764.222	33.85
764.401	34.32
764.579	34.86
764.758	34.22
764.936	33.76
765.114	33.55
765.293	34.21
765.471	33.74
765.65	32.5
765.828	32.11
766.006	32.93
766.184	33.17
766.363	33.36
766.541	32.5
766.719	33.19
766.898	33.46
767.076	33.47
767.254	33.77
767.432	33.9
767.61	34.24
767.788	34.4
767.967	33.35
768.145	33.26
768.323	32.63
768.501	32.47
768.679	32.94
768.857	32.27
769.035	32.86
769.213	32.72
769.391	32.16
769.569	32.88
769.747	33.21
769.925	33.7
770.103	35.45
770.281	35.15
770.459	35.71
770.636	35.01
770.814	35.51
770.992	34.95
771.17	35.8
771.348	35.56
771.525	36.21
771.703	35.75
771.881	36.45
772.059	35.04
772.236	33.54
772.414	34.25
772.592	34.26
772.769	33.72
772.947	33.92
773.125	33.47
773.302	34.84
773.48	33.83
773.657	34.5
773.835	33.25
774.013	33.77
774.19	36.75
774.368	35.34
774.545	35.15
774.723	35.03
774.9	36.51
775.077	35.01
775.255	34.48
775.432	34.66
775.61	33.31
775.787	34.6
775.964	32.95
776.142	32.93
776.319	35.39
776.496	35.94
776.674	36.48
776.851	35.17
777.028	35.78
777.205	36.58
777.382	37.61
777.56	38.84
777.737	41.5
777.914	43.32
778.091	41.51
778.268	40.56
778.445	42.12
778.622	41.19
778.8	39.14
778.977	40.16
779.154	40.8
779.331	39.91
779.508	39.32
779.685	36.99
779.862	35.97
780.038	34.77
780.215	36.24
780.392	35.37
780.569	37.75
780.746	39.13
780.923	36.36
781.1	35.66
781.277	34.1
781.453	32.34
781.63	32.72
781.807	33.04
781.984	34.12
782.16	33.41
782.337	34.39
782.514	33.72
782.691	33.42
782.867	35.07
783.044	36.17
783.221	37.37
783.397	38.87
783.574	38.07
783.75	38.38
783.927	41.89
784.103	40.33
784.28	36.14
784.456	34.98
784.633	36.89
784.809	38.06
784.986	33.6
785.162	34.73
785.339	33.46
785.515	32.9
785.692	32.98
785.868	29.05
786.044	31.25
786.221	34.93
786.397	36.29
786.573	34.85
786.749	34.66
786.926	37.32
787.102	38.98
787.278	39.74
787.454	41.86
787.631	42.4
787.807	41.83
787.983	42.78
788.159	40.94
788.335	41.45
788.511	41.97
788.687	42.28
788.863	41.66
789.039	39.71
789.216	39.49
789.392	37.51
789.568	34.42
789.744	36.27
789.919	33.63
790.095	34.8
790.271	34.15
790.447	35.25
790.623	34.72
790.799	36.67
790.975	35.75
791.151	36.71
791.327	36.89
791.502	39.33
791.678	39.2
791.854	39.72
792.03	38.93
792.205	38.52
792.381	37.87
792.557	35.42
792.733	33.72
792.908	36.03
793.084	35.79
793.259	34.51
793.435	32.71
793.611	34.69
793.786	33.46
793.962	32.9
794.137	31.59
794.313	29.66
794.488	32.57
794.664	33.47
794.839	32.41
795.015	31.42
795.19	30.59
795.366	33.3
795.541	30.13
795.716	29.95
795.892	31.03
796.067	31.97
796.242	34.18
796.418	32.54
796.593	31.64
796.768	30.15
796.944	31.8
797.119	32.99
797.294	33
797.469	36.01
797.644	37.86
797.82	39.25
797.995	38.38
798.17	38.01
798.345	38.47
798.52	35.87
798.695	37.67
798.87	34.93
799.045	34.13
799.22	31.32
799.395	31.14
799.57	31.86
799.745	32.37
799.92	33.73
800.095	33.25
800.27	33.09
800.445	36.38
800.62	34.34
800.795	34.64
800.97	36.53
801.145	36.46
801.319	31.84
801.494	30.65
801.669	31.53
801.844	31.8
802.018	31.48
802.193	28.82
802.368	28.14
802.543	29.69
802.717	34.54
802.892	34.17
803.067	35.49
803.241	37.57
803.416	37.04
803.59	36.35
803.765	34.53
803.94	36.05
804.114	38.1
804.289	38.46
804.463	38.02
804.638	35.64
804.812	35.35
804.986	33.54
805.161	33.34
805.335	33.82
805.51	32.75
805.684	30.85
805.858	28.11
806.033	31.13
806.207	30.66
806.381	35.04
806.556	33.47
806.73	35.86
806.904	39.11
807.078	39.06
807.253	36.29
807.427	37.31
807.601	37.76
807.775	40.06
807.949	38.86
808.123	38.49
808.298	36.89
808.472	37.37
808.646	35.73
808.82	34.43
808.994	33.5
809.168	33.84
809.342	32.34
809.516	34.73
809.69	33.16
809.864	31.64
810.038	31.52
810.212	28.59
810.385	27.77
810.559	28.15
810.733	28.67
810.907	31.19
811.081	32.11
811.255	32.23
811.428	30.2
811.602	29.33
811.776	27.09
811.95	25.37
812.123	23.51
812.297	29.57
812.471	29.11
812.644	28.67
812.818	24.61
812.992	27.5
813.165	30.89
813.339	32.57
813.512	34.65
813.686	35.01
813.86	33.64
814.033	35.74
814.207	29.9
814.38	30.58
814.554	32.37
814.727	38.66
814.9	38.84
815.074	35.52
815.247	34.42
815.421	33.66
815.594	34.4
815.767	38.49
815.941	39.84
816.114	44.13
816.287	43.06
816.46	39.01
816.634	36.26
816.807	39.16
816.98	37.55
817.153	37.62
817.327	38.56
817.5	37.99
817.673	38.33
817.846	36.64
818.019	36.05
818.192	37.19
818.365	35.93
818.538	35.54
818.711	31.07
818.884	30.52
819.057	30.12
819.23	27.9
819.403	30.8
819.576	32.68
819.749	32.43
819.922	31.42
820.095	30.99
820.268	32.16
820.441	32.62
820.614	34.77
820.786	35.61
820.959	36.4
821.132	36.02
821.305	33.34
821.477	31.9
821.65	32.78
821.823	31.25
821.996	31.65
822.168	33.01
822.341	33
822.514	32.14
822.686	32.23
822.859	32.2
823.031	31.89
823.204	32.1
823.376	32.35
823.549	32.17
823.722	33
823.894	32.67
824.067	32.18
824.239	32.09
824.411	32.38
824.584	32.65
824.756	33.02
824.929	33.84
825.101	33.79
825.273	33.17
825.446	33.3
825.618	32.99
825.79	33.85
825.963	34.2
826.135	34.34
826.307	34.21
826.479	33.66
826.652	33.6
826.824	34.14
826.996	34.72
827.168	36.08
827.34	36.18
827.512	36.35
827.684	35.32
827.856	34.81
828.029	35.05
828.201	34.55
828.373	34.6
828.545	35.23
828.717	34.9
828.889	35.41
829.061	35.15
829.232	35.81
829.404	36.15
829.576	37.82
829.748	37.91
829.92	39.13
830.092	40.63
830.264	41.74
830.436	41.18
830.607	40.49
830.779	40.47
830.951	38.27
831.123	39.23
831.294	39.7
831.466	37.81
831.638	37.6
831.809	35.16
831.981	34.65
832.153	34.21
832.324	32.83
832.496	34.81
832.667	35.13
832.839	38.19
833.011	34.07
833.182	32.68
833.354	30.79
833.525	29.73
833.697	29.85
833.868	29.35
834.039	30.18
834.211	31.68
834.382	33.12
834.554	34.05
834.725	34.16
834.896	35.36
835.068	36.68
835.239	38.47
835.41	41.45
835.581	42.1
835.753	42.39
835.924	42.51
836.095	40.17
836.266	38.21
836.438	35.9
836.609	33.75
836.78	33.94
836.951	34.57
837.122	34.4
837.293	33.11
837.464	34.56
837.635	37.48
837.806	35.15
837.977	39.01
838.148	38.37
838.319	38.87
838.49	43.36
838.661	40.17
838.832	41.98
839.003	42
839.174	39.35
839.345	37.73
839.516	33.01
839.687	37.12
839.857	34.44
840.028	37.15
840.199	37.73
840.37	37.41
840.54	43.75
840.711	39.21
840.882	39.34
841.053	44.3
841.223	45.23
841.394	49.98
841.564	52.95
841.735	53.63
841.906	56.19
842.076	57.4
842.247	53.68
842.417	51.8
842.588	51.39
842.758	53.57
842.929	46.7
843.099	50.55
843.27	45.51
843.44	40.55
843.611	39.22
843.781	36.02
843.951	38.09
844.122	33.22
844.292	31.48
844.462	28.57
844.633	25.65
844.803	25.86
844.973	18.44
845.144	22.27
845.314	23.7
845.484	24.94
845.654	24.33
845.824	23.46
845.995	26.28
846.165	30.43
846.335	39.14
846.505	47.03
846.675	46.7
846.845	41.09
847.015	48.48
847.185	34.82
847.355	34.08
847.525	40.14
847.695	48.06
847.865	54.31
848.035	41.35
848.205	27.77
848.375	19.47
848.545	20.74
848.715	28.98
848.884	21.16
849.054	31.18
849.224	33.68
849.394	32.19
849.564	24.44
849.733	22.21
849.903	26.28
850.073	27.61
850.243	28.88
850.412	36.89
850.582	36.68
850.752	33.52
850.921	20.67
851.091	25.64
851.26	35.39
851.43	36.5
851.599	31.48
851.769	15.52
851.939	18.98
852.108	18.89
852.278	11.8
852.447	11.99
852.616	19.28
852.786	30.45
852.955	28.13
853.125	20.59
853.294	14.61
853.463	22.74
853.633	25.64
853.802	30.94
853.971	38.35
854.141	41.93
854.31	43.41
854.479	39.48
854.648	48.05
854.818	42.57
854.987	41.65
855.156	47.2
855.325	41.46
855.494	65.58
855.663	52.87
855.832	57.05
856.001	51.86
856.171	37.53
856.34	36.13
856.509	29.99
856.678	26.74
856.847	23.1
857.016	36.49
857.185	42.93
857.353	41.87
857.522	47.12
857.691	31.05
857.86	39.56
858.029	50.21
858.198	57.75
858.367	58.26
858.535	51.39
858.704	55.55
858.873	50.64
859.042	51.07
859.21	38.16
859.379	39.35
859.548	26.26
859.717	16.34
859.885	11.55
860.054	-5.53
860.222	-9.82
860.391	0.91
860.56	5.45
860.728	8.49
860.897	4.44
861.065	7.84
861.234	7.78
861.402	20.53
861.571	26.52
861.739	37.62
861.908	48
862.076	59.22
862.244	59.16
862.413	53.44
862.581	41.16
862.749	38.27
862.918	32.19
863.086	31.68
863.254	32.97
863.423	33.24
863.591	18.51
863.759	20.97
863.927	11.78
864.096	2.51
864.264	11.93
864.432	26.53
864.6	27.38
864.768	29.56
864.936	24.32
865.104	28.39
865.272	31.44
865.44	39.52
865.608	40.22
865.776	44.76
865.944	49.22
866.112	51.09
866.28	53.13
866.448	61.99
866.616	74.63
866.784	72.21
866.952	61.54
867.12	59.6
867.288	51.61
867.455	49.79
867.623	53.2
867.791	36.23
867.959	31.81
868.127	8.5
868.294	5.03
868.462	6.71
868.63	-2.64
868.797	-1.64
868.965	7.85
869.133	10.04
869.3	10.18
869.468	12.5
869.636	29.49
869.803	40.87
869.971	45.15
870.138	49.24
870.306	49.38
870.473	38.34
870.641	36.21
870.808	34.98
870.975	42.52
871.143	38.84
871.31	31.31
871.478	18.36
871.645	11.4
871.812	20.64
871.98	14.83
872.147	0.33
872.314	23.4
872.482	22.33
872.649	23.89
872.816	31.73
872.983	39.28
873.15	47.97
873.318	53.42
873.485	53.94
873.652	42.5
873.819	48.03
873.986	70.66
874.153	67.67
874.32	84.25
874.487	79.83
874.654	61.95
874.821	56.61
874.988	54.3
875.155	61.94
875.322	46.58
875.489	42.57
875.656	33.23
875.823	18.33
875.99	27.36
876.157	17.45
876.324	20.9
876.49	32.59
876.657	41.99
876.824	41.72
876.991	36.96
877.157	39.34
877.324	48.63
877.491	58.16
877.658	52.25
877.824	48.51
877.991	54.03
878.157	52.94
878.324	48.15
878.491	40.26
878.657	37.44
878.824	42.44
878.99	44.2
879.157	46.61
879.323	29.59
879.49	29.57
879.656	34.55
879.823	39.56
879.989	46.18
880.156	42.61
880.322	46.79
880.488	47.19
880.655	41.16
880.821	38.68
880.987	37.93
881.154	43.56
881.32	47.91
881.486	45.98
881.652	41.14
881.819	42.33
881.985	40.45
882.151	38.4
882.317	39.16
882.483	42.08
882.649	40.84
882.816	36.88
882.982	38.87
883.148	36.48
883.314	35.93
883.48	35.4
883.646	34.34
883.812	34.78
883.978	35.55
884.144	35.82
884.31	36.74
884.476	36.47
884.642	36.89
884.807	36.64
884.973	35.94
885.139	36.67
885.305	37.94
885.471	37.05
885.637	38.77
885.802	38.05
885.968	37.93
886.134	37.47
886.3	38.44
886.465	39.39
886.631	38.75
886.797	43.77
886.962	41.42
887.128	41.44
887.293	44.65
887.459	41.11
887.625	44.41
887.79	45.55
887.956	43.73
888.121	46.2
888.287	48.16
888.452	51
888.618	43.31
888.783	49.5
