Data from CB_038_Reflection_21-41-11-924.txt Node
Date: Wed Nov 11 21:41:11 EST 2015
User: robert
Spectrometer: USB4E03001
Autoset integration time: false
Trigger mode: 4
Integration Time (sec): 1.000000E-1
Scans to average: 15
Electric dark correction enabled: true
Nonlinearity correction enabled: false
Boxcar width: 5
Stray light correction enabled: false
XAxis mode: Wavelengths
Stop averaging: false
Number of Pixels in Spectrum: 3648
>>>>>Begin Spectral Data<<<<<
177.566	-89.42
177.785	-561.18
178.005	77.63
178.225	-79.52
178.445	102.12
178.665	83.99
178.885	348.77
179.105	24.52
179.324	13.84
179.544	47.08
179.764	0.16
179.984	-17.39
180.204	26.7
180.423	45.52
180.643	51.91
180.863	70.03
181.083	71.81
181.302	57.38
181.522	55.69
181.742	57.04
181.961	75.59
182.181	85.81
182.401	91.55
182.621	86.6
182.84	73.98
183.06	86.28
183.279	87.76
183.499	84.97
183.719	86.51
183.938	98.79
184.158	120.25
184.377	100.96
184.597	86.31
184.816	115.31
185.036	93.81
185.256	93.26
185.475	102.38
185.695	77.96
185.914	86.01
186.134	138.07
186.353	153.16
186.572	92.44
186.792	95.93
187.011	96.73
187.231	61.92
187.45	89.49
187.67	71.07
187.889	20.68
188.108	40.54
188.328	36.44
188.547	18.81
188.766	-11.3
188.986	-7.45
189.205	-8.76
189.424	3.48
189.644	8.16
189.863	19.57
190.082	49.91
190.302	42.9
190.521	48.77
190.74	51.24
190.959	54.95
191.178	62.24
191.398	56.33
191.617	75.04
191.836	74.42
192.055	61.79
192.274	59.86
192.494	48.77
192.713	70.03
192.932	73.87
193.151	65.79
193.37	83.03
193.589	84.08
193.808	83.71
194.027	56.95
194.246	83.08
194.465	81.15
194.685	71.65
194.904	65.56
195.123	57.86
195.342	50.88
195.561	66.9
195.78	52.24
195.999	59.56
196.218	63.19
196.436	70.95
196.655	63.91
196.874	56.11
197.093	46.98
197.312	72.43
197.531	70.11
197.75	66.28
197.969	63.89
198.188	51.02
198.407	23.07
198.625	25.5
198.844	16.59
199.063	18.87
199.282	28.59
199.501	29.1
199.719	-23.34
199.938	27.02
200.157	37.61
200.376	67.45
200.594	117.64
200.813	129.47
201.032	189.45
201.251	301.75
201.469	228.81
201.688	178.44
201.907	133.23
202.125	123.22
202.344	108.35
202.563	120.88
202.781	89.32
203	71.3
203.218	59.46
203.437	39.09
203.656	34.12
203.874	31.94
204.093	30.12
204.311	48.88
204.53	56.66
204.748	75.93
204.967	63.33
205.185	78.79
205.404	89.62
205.622	95.89
205.841	94.4
206.059	86.91
206.278	105.74
206.496	118.15
206.715	104.86
206.933	98.48
207.151	85.53
207.37	76.05
207.588	77.49
207.806	85.06
208.025	88.46
208.243	90.1
208.461	89.09
208.68	78.2
208.898	88.1
209.116	77.32
209.335	74.61
209.553	75.55
209.771	88.97
209.989	80.43
210.208	72.18
210.426	82.06
210.644	76.76
210.862	105.01
211.081	105.74
211.299	106.82
211.517	141.53
211.735	121.97
211.953	117.98
212.171	126.81
212.39	130.2
212.608	129.68
212.826	118.49
213.044	128.8
213.262	119.26
213.48	140.34
213.698	140.79
213.916	122.49
214.134	124.54
214.352	169.68
214.57	119.08
214.788	165.96
215.006	186.45
215.224	129.08
215.442	134.63
215.66	157.11
215.878	94.22
216.096	78.09
216.314	96.98
216.532	103.65
216.75	85.6
216.968	97.64
217.185	75.66
217.403	80.72
217.621	85.49
217.839	77.76
218.057	77.65
218.275	89.84
218.492	98.18
218.71	91.76
218.928	92.3
219.146	91.49
219.363	96.28
219.581	116.76
219.799	101.56
220.017	122.03
220.234	109.04
220.452	108.04
220.67	88.37
220.887	71.79
221.105	73.58
221.323	72.72
221.54	84.68
221.758	75.77
221.976	75.1
222.193	66.04
222.411	57.33
222.629	54.51
222.846	53.85
223.064	47.56
223.281	51.2
223.499	58.1
223.716	59.42
223.934	58.53
224.151	47.2
224.369	34.06
224.586	26.88
224.804	20.64
225.021	22.34
225.239	18.26
225.456	21.5
225.674	21.97
225.891	17.58
226.108	9.86
226.326	-0.59
226.543	8.36
226.76	20.75
226.978	22.12
227.195	21.3
227.413	23.37
227.63	22.23
227.847	18.7
228.064	20.49
228.282	15.95
228.499	15.56
228.716	17.01
228.934	14.02
229.151	10.78
229.368	11.69
229.585	12.47
229.802	11.59
230.02	9.63
230.237	10.99
230.454	12.07
230.671	9.91
230.888	8.14
231.105	5.68
231.323	9.34
231.54	10.38
231.757	8.99
231.974	7.05
232.191	2.79
232.408	5.71
232.625	4.03
232.842	1.84
233.059	9.1
233.276	10.68
233.493	17.74
233.71	16.72
233.927	19.3
234.144	19.5
234.361	26.26
234.578	32.76
234.795	33.63
235.012	30.84
235.229	25.76
235.446	28.35
235.663	29.67
235.879	22.94
236.096	21.65
236.313	17.96
236.53	17.44
236.747	18.04
236.964	17.72
237.181	19.53
237.397	22.92
237.614	26
237.831	26.56
238.048	27.82
238.264	29.37
238.481	24.61
238.698	28.22
238.915	28.02
239.131	21.67
239.348	19.72
239.565	16.21
239.781	11.59
239.998	15.44
240.215	11.44
240.431	11.59
240.648	12.42
240.865	10.81
241.081	14.08
241.298	13.89
241.514	12.98
241.731	16.55
241.947	15.75
242.164	17.79
242.38	15.2
242.597	14.94
242.814	14.61
243.03	14.41
243.246	17
243.463	15.21
243.679	15.81
243.896	19.43
244.112	17.05
244.329	19.8
244.545	19.93
244.762	19.56
244.978	20.58
245.194	19.9
245.411	19.15
245.627	16.19
245.843	15.45
246.06	14.35
246.276	10.61
246.492	11.12
246.709	9.22
246.925	9.38
247.141	9.2
247.357	8.18
247.574	8.34
247.79	8.41
248.006	8.77
248.222	9.25
248.439	9.9
248.655	11.65
248.871	10.17
249.087	10.8
249.303	11.16
249.519	12.14
249.736	14.08
249.952	13.92
250.168	14.38
250.384	12.58
250.6	12.99
250.816	10.81
251.032	7.8
251.248	10.74
251.464	9.6
251.68	8.5
251.896	8.56
252.112	7.14
252.328	7.17
252.544	7.66
252.76	9.26
252.976	7.81
253.192	8.13
253.408	9.59
253.624	10.3
253.84	9.64
254.056	12.24
254.272	14.49
254.487	16.1
254.703	17.1
254.919	18.73
255.135	18.56
255.351	20.41
255.567	21.88
255.782	21.23
255.998	19.96
256.214	20.4
256.43	18.67
256.646	16.75
256.861	15.6
257.077	13.9
257.293	13.48
257.508	15.11
257.724	13.51
257.94	13.19
258.155	11.71
258.371	9.83
258.587	10.62
258.802	10.11
259.018	9.68
259.234	9.22
259.449	10.08
259.665	8.37
259.88	7.89
260.096	8.02
260.312	7.65
260.527	8.16
260.743	8.59
260.958	8.94
261.174	8.73
261.389	8.72
261.605	9.81
261.82	9.74
262.036	12.22
262.251	13.36
262.466	13.87
262.682	14.3
262.897	14.25
263.113	12.39
263.328	10.6
263.543	10.74
263.759	10.51
263.974	9.25
264.189	8.82
264.405	4.55
264.62	1.95
264.835	1.74
265.051	2.16
265.266	1.84
265.481	3.77
265.696	3.53
265.912	3.89
266.127	4.66
266.342	5.33
266.557	5.41
266.773	7.17
266.988	8.37
267.203	6.82
267.418	7.76
267.633	9.12
267.848	10.5
268.064	11.29
268.279	10.93
268.494	9.9
268.709	10.53
268.924	11.45
269.139	11.18
269.354	11.23
269.569	10.99
269.784	10.9
269.999	10.37
270.214	9.06
270.429	9.6
270.644	10.21
270.859	11.19
271.074	10.34
271.289	9.92
271.504	10.66
271.719	10.54
271.934	10.97
272.149	9.88
272.363	10.47
272.578	11.43
272.793	11.1
273.008	10.24
273.223	9.53
273.438	8.57
273.653	9.42
273.867	8.67
274.082	8.35
274.297	9.26
274.512	9.96
274.726	7.37
274.941	6.67
275.156	7.08
275.371	6.85
275.585	8.19
275.8	8.74
276.015	7.97
276.229	8.59
276.444	8.83
276.659	8.88
276.873	9.08
277.088	11.04
277.302	11.33
277.517	10.92
277.732	12.54
277.946	11.46
278.161	12.92
278.375	11.51
278.59	11.1
278.804	11.3
279.019	10.56
279.233	10.23
279.448	9.95
279.662	9.67
279.877	9.76
280.091	9.78
280.306	11.41
280.52	10.31
280.735	11.12
280.949	10.68
281.163	10.06
281.378	9.14
281.592	8.45
281.806	9.02
282.021	8.3
282.235	8.51
282.449	8.2
282.664	5.72
282.878	5.64
283.092	5.69
283.307	6.28
283.521	5.72
283.735	6.85
283.949	7.99
284.164	8.06
284.378	8.63
284.592	8.81
284.806	8.75
285.02	9.92
285.234	10.43
285.449	10.6
285.663	10.52
285.877	11.49
286.091	11.47
286.305	10.81
286.519	10.52
286.733	10.85
286.947	10.28
287.161	9.82
287.375	10.17
287.589	10.97
287.803	10.97
288.017	10.55
288.231	11.45
288.445	11.94
288.659	11.85
288.873	12.34
289.087	11.34
289.301	12.03
289.515	12.89
289.729	12.73
289.943	11.48
290.157	11.01
290.371	11.14
290.584	10.21
290.798	10.04
291.012	10.67
291.226	10.92
291.44	11.39
291.654	11.23
291.867	10.53
292.081	9.56
292.295	9.94
292.509	10.61
292.722	10.35
292.936	10.17
293.15	9.59
293.364	9.6
293.577	8.98
293.791	9.26
294.005	7.85
294.218	9.04
294.432	10.28
294.645	9.59
294.859	8.03
295.073	8.22
295.286	8.63
295.5	9.24
295.713	8.28
295.927	7.77
296.14	7.79
296.354	8.6
296.568	8.08
296.781	8.01
296.994	9.06
297.208	10.93
297.421	10.63
297.635	10.52
297.848	10.52
298.062	10.81
298.275	11.8
298.489	12.01
298.702	12.69
298.915	12.91
299.129	13.8
299.342	13.28
299.555	13.23
299.769	15.13
299.982	15.72
300.195	15.5
300.409	16.41
300.622	15.96
300.835	16.29
301.048	14.98
301.262	15.1
301.475	13.54
301.688	14
301.901	12.82
302.115	11.48
302.328	11.81
302.541	11.43
302.754	10.56
302.967	10.22
303.18	10.48
303.393	11.75
303.607	11.6
303.82	12.34
304.033	12.19
304.246	12.44
304.459	13.33
304.672	12.91
304.885	14.05
305.098	13.31
305.311	14.26
305.524	13.58
305.737	13.69
305.95	12.76
306.163	12.24
306.376	12.76
306.589	13.38
306.802	12.95
307.015	13.52
307.228	13.04
307.44	14.5
307.653	14.11
307.866	15.02
308.079	15.35
308.292	15.08
308.505	15.41
308.718	15.26
308.93	16.09
309.143	15.19
309.356	14.31
309.569	14.57
309.781	15.07
309.994	14.63
310.207	14.11
310.42	12.67
310.632	14.26
310.845	14.75
311.058	14.33
311.27	13.96
311.483	14.56
311.696	14.44
311.908	14.56
312.121	13.51
312.333	13.07
312.546	12.42
312.759	13.25
312.971	12.5
313.184	11.57
313.396	11.57
313.609	11.53
313.821	11.69
314.034	12.1
314.246	10.93
314.459	11.54
314.671	12.68
314.884	14.13
315.096	14.04
315.309	12.96
315.521	12.36
315.733	12.86
315.946	11.44
316.158	10.09
316.371	9.94
316.583	9.49
316.795	9.94
317.008	9.49
317.22	8.47
317.432	8.43
317.644	10.2
317.857	12.57
318.069	11.96
318.281	12.27
318.494	13.57
318.706	14.07
318.918	15.19
319.13	15.15
319.342	15.29
319.555	15.71
319.767	15.53
319.979	15.46
320.191	15.65
320.403	16.66
320.615	16.2
320.827	16.01
321.039	14.22
321.252	14.25
321.464	14.41
321.676	13.93
321.888	14.44
322.1	15.35
322.312	14.78
322.524	13.77
322.736	13.42
322.948	15.16
323.16	14.88
323.372	16.09
323.584	16.3
323.796	15.88
324.007	16.1
324.219	16.3
324.431	16.62
324.643	17.21
324.855	17.77
325.067	17.5
325.279	17.54
325.491	19.1
325.702	19.42
325.914	19.98
326.126	20.89
326.338	20.15
326.55	20.06
326.761	20.77
326.973	20.8
327.185	20.67
327.396	21.54
327.608	21.64
327.82	21.57
328.032	21.73
328.243	22.33
328.455	22.36
328.666	24.71
328.878	24.77
329.09	23.03
329.301	23.29
329.513	23.13
329.725	22.07
329.936	23.16
330.148	22.39
330.359	22.83
330.571	22.9
330.782	24.03
330.994	23.9
331.205	25.41
331.417	26.81
331.628	26.41
331.84	27.18
332.051	27.71
332.262	26.26
332.474	27.52
332.685	27.72
332.897	28.06
333.108	28.19
333.319	29.25
333.531	28.72
333.742	29.48
333.953	29.86
334.165	29.63
334.376	30.11
334.587	30.41
334.799	30.78
335.01	30.3
335.221	29.82
335.432	28.87
335.644	27.95
335.855	27.81
336.066	26.81
336.277	27.23
336.488	26.54
336.7	26.38
336.911	26.48
337.122	25.16
337.333	25.78
337.544	26.39
337.755	27.22
337.966	26.78
338.177	26.12
338.388	25.52
338.599	25.47
338.811	26.01
339.022	26.03
339.233	26.07
339.444	26.21
339.655	25.61
339.866	25.5
340.076	24.6
340.287	25.57
340.498	26.32
340.709	26.98
340.92	27.15
341.131	27.12
341.342	27.59
341.553	27.38
341.764	27.84
341.975	28.54
342.185	27.52
342.396	27.59
342.607	27.34
342.818	26.44
343.029	26.91
343.239	26.36
343.45	26.61
343.661	26.15
343.872	25.97
344.082	25.22
344.293	24.48
344.504	24.9
344.714	24.8
344.925	24.69
345.136	25.23
345.346	25.3
345.557	25.3
345.768	25.23
345.978	24.73
346.189	24.9
346.399	25.54
346.61	26.48
346.821	26.15
347.031	26.08
347.242	26.37
347.452	26.61
347.663	26.8
347.873	27.03
348.084	27.15
348.294	28.12
348.504	28.52
348.715	28.64
348.925	27.99
349.136	27.69
349.346	27.93
349.557	27.49
349.767	27.35
349.977	27.18
350.188	27.04
350.398	26.51
350.608	26.48
350.819	25.91
351.029	25.17
351.239	24.53
351.449	25.26
351.66	24.19
351.87	25.07
352.08	24.59
352.29	24.27
352.501	25.23
352.711	26.2
352.921	25.8
353.131	26.26
353.341	26.96
353.552	27.49
353.762	26.78
353.972	28.3
354.182	26.19
354.392	26.47
354.602	26.22
354.812	25.08
355.022	24.32
355.232	24.43
355.442	24.58
355.652	24.8
355.862	25.5
356.072	25.52
356.282	25.02
356.492	26.42
356.702	27.24
356.912	26.97
357.122	27.43
357.332	27.85
357.542	28.29
357.752	27.59
357.962	27.16
358.171	26.81
358.381	27.25
358.591	26.83
358.801	26.22
359.011	24.95
359.221	25.21
359.43	25.17
359.64	24.65
359.85	24.1
360.06	24.42
360.269	24.55
360.479	24.76
360.689	24.65
360.899	24.82
361.108	25.28
361.318	25.81
361.528	26.22
361.737	25.73
361.947	25.89
362.156	25.74
362.366	25.84
362.576	25.57
362.785	25.26
362.995	25.3
363.204	25.27
363.414	24.93
363.623	24.84
363.833	24.34
364.042	24.32
364.252	24.74
364.461	24.88
364.671	25.09
364.88	25.1
365.09	25.08
365.299	25.3
365.509	25.69
365.718	25.91
365.927	25.56
366.137	25.38
366.346	25.8
366.555	25.55
366.765	25.25
366.974	24.76
367.183	24.6
367.393	24.69
367.602	24.41
367.811	23.66
368.021	23.19
368.23	23.26
368.439	23.23
368.648	23.2
368.857	22.49
369.067	21.96
369.276	22.17
369.485	22.68
369.694	22.59
369.903	22.15
370.112	22.3
370.321	22.73
370.531	22.56
370.74	23.08
370.949	22.91
371.158	22.85
371.367	23.58
371.576	23.29
371.785	22.67
371.994	22.52
372.203	22.82
372.412	23.01
372.621	22.31
372.83	22
373.039	21.87
373.248	21.83
373.457	22.13
373.666	22.11
373.874	22.09
374.083	22.09
374.292	21.69
374.501	21.43
374.71	21.2
374.919	21.27
375.128	21.72
375.336	21.23
375.545	21.26
375.754	21.58
375.963	21.03
376.171	20.89
376.38	21.07
376.589	21.11
376.798	21.21
377.006	21.06
377.215	21.23
377.424	21.03
377.632	21.03
377.841	20.87
378.05	20.4
378.258	20.56
378.467	20.04
378.675	20.39
378.884	20.42
379.093	19.75
379.301	19.81
379.51	19.73
379.718	20.03
379.927	19.98
380.135	19.76
380.344	19.57
380.552	19.73
380.761	19.82
380.969	19.09
381.177	19.08
381.386	19.34
381.594	19.24
381.803	18.96
382.011	18.49
382.219	18.69
382.428	18.77
382.636	18.84
382.845	18.68
383.053	18.67
383.261	18.6
383.469	18.73
383.678	19.05
383.886	18.74
384.094	18.99
384.302	19.58
384.511	19.27
384.719	19.06
384.927	19.35
385.135	19.31
385.343	19.61
385.552	20.34
385.76	20.37
385.968	19.98
386.176	20.17
386.384	19.94
386.592	19.57
386.8	19.66
387.008	20.04
387.216	19.7
387.424	19.91
387.633	19.51
387.841	18.72
388.049	18.24
388.257	18.02
388.465	18.05
388.672	18.29
388.88	18.12
389.088	17.99
389.296	17.32
389.504	17.19
389.712	17.06
389.92	17.1
390.128	17.19
390.336	17.01
390.544	17.29
390.751	17.02
390.959	17.05
391.167	17.1
391.375	17.09
391.583	17.63
391.79	17.66
391.998	17.74
392.206	18.09
392.414	18.23
392.621	18.51
392.829	18.43
393.037	18.52
393.244	18.07
393.452	18.08
393.66	18.21
393.867	18.27
394.075	18.3
394.283	18.26
394.49	18.19
394.698	18.21
394.905	18.1
395.113	18.19
395.32	18.14
395.528	18.56
395.735	18.41
395.943	18.26
396.15	17.97
396.358	18.42
396.565	18.16
396.773	17.86
396.98	17.64
397.188	17.64
397.395	17.82
397.602	18.16
397.81	18.31
398.017	17.79
398.225	17.52
398.432	17.56
398.639	17.23
398.847	17.19
399.054	17.1
399.261	16.96
399.468	17.13
399.676	16.66
399.883	16.26
400.09	15.6
400.297	15.92
400.505	16.08
400.712	15.89
400.919	15.49
401.126	15.47
401.333	15.41
401.54	15.47
401.748	15.25
401.955	15.43
402.162	15.55
402.369	15.68
402.576	16.04
402.783	16.22
402.99	16.15
403.197	16.07
403.404	15.91
403.611	16.31
403.818	16.2
404.025	16.31
404.232	16.27
404.439	16.08
404.646	15.81
404.853	15.61
405.06	15.52
405.267	15.51
405.474	15.62
405.681	15.61
405.887	15.63
406.094	15.81
406.301	15.6
406.508	15.54
406.715	15.63
406.922	16.31
407.128	16.5
407.335	16.18
407.542	16.08
407.749	16.2
407.955	16.2
408.162	15.91
408.369	15.53
408.575	15.52
408.782	15.95
408.989	15.98
409.195	15.44
409.402	15.16
409.609	15.24
409.815	15.34
410.022	15.34
410.228	15.31
410.435	15.25
410.642	15.27
410.848	15.17
411.055	14.83
411.261	14.98
411.468	15.17
411.674	15.39
411.881	15.39
412.087	15.29
412.294	15.34
412.5	15.61
412.706	15.52
412.913	15.68
413.119	15.84
413.326	15.89
413.532	15.77
413.738	15.73
413.945	15.45
414.151	15.52
414.357	15.47
414.564	15.34
414.77	15.32
414.976	15.46
415.182	15.53
415.389	15.28
415.595	14.84
415.801	14.87
416.007	14.59
416.214	14.26
416.42	14.36
416.626	14.53
416.832	14.36
417.038	14.45
417.244	14.32
417.45	14.26
417.657	14.28
417.863	14.61
418.069	14.4
418.275	14.49
418.481	14.64
418.687	14.73
418.893	14.53
419.099	14.78
419.305	14.55
419.511	14.55
419.717	14.68
419.923	14.7
420.129	14.43
420.335	14.55
420.541	14.56
420.746	14.43
420.952	14.21
421.158	14.22
421.364	13.93
421.57	13.82
421.776	13.89
421.982	13.67
422.187	13.58
422.393	13.59
422.599	13.44
422.805	13.38
423.01	13.51
423.216	13.47
423.422	13.41
423.628	13.44
423.833	13.49
424.039	13.4
424.245	13.41
424.45	13.51
424.656	13.56
424.862	13.53
425.067	13.62
425.273	13.74
425.478	13.82
425.684	13.94
425.889	14.07
426.095	14.17
426.301	14.08
426.506	14.21
426.712	14.08
426.917	14.11
427.123	14.05
427.328	13.77
427.533	13.53
427.739	13.37
427.944	13.27
428.15	12.95
428.355	12.79
428.561	12.88
428.766	12.72
428.971	12.57
429.177	12.49
429.382	12.57
429.587	12.68
429.793	12.67
429.998	12.73
430.203	12.61
430.408	12.77
430.614	12.94
430.819	12.97
431.024	12.91
431.229	13.2
431.434	13.19
431.64	13.22
431.845	13.19
432.05	13.45
432.255	13.52
432.46	13.6
432.665	13.37
432.87	13.37
433.076	13.6
433.281	13.55
433.486	13.38
433.691	13.41
433.896	13.49
434.101	13.58
434.306	13.46
434.511	13.24
434.716	13.35
434.921	13.77
435.126	13.68
435.331	13.29
435.535	13.28
435.74	13.26
435.945	13.21
436.15	13.25
436.355	13.27
436.56	13.16
436.765	13.25
436.97	13.16
437.174	13.09
437.379	13.08
437.584	13.37
437.789	13.46
437.993	13.78
438.198	13.8
438.403	13.66
438.608	13.66
438.812	13.52
439.017	13.56
439.222	13.67
439.426	13.58
439.631	13.67
439.836	13.5
440.04	13.39
440.245	13.16
440.45	13.22
440.654	13.21
440.859	13.21
441.063	13.35
441.268	13.27
441.472	13.2
441.677	13.16
441.881	13.2
442.086	13.33
442.29	13.44
442.495	13.46
442.699	13.39
442.904	13.43
443.108	13.58
443.312	13.53
443.517	13.61
443.721	13.61
443.925	13.53
444.13	13.31
444.334	13.13
444.538	12.95
444.743	12.77
444.947	12.52
445.151	12.51
445.356	12.34
445.56	12.3
445.764	12.42
445.968	12.36
446.173	12.39
446.377	12.4
446.581	12.5
446.785	12.64
446.989	12.71
447.193	13.01
447.398	12.79
447.602	12.77
447.806	12.86
448.01	12.81
448.214	12.78
448.418	12.73
448.622	12.68
448.826	12.53
449.03	12.54
449.234	12.72
449.438	12.68
449.642	12.89
449.846	12.83
450.05	12.79
450.254	12.63
450.458	12.81
450.662	13.11
450.866	13.13
451.069	13.07
451.273	12.71
451.477	12.53
451.681	12.44
451.885	12.35
452.089	12.47
452.292	12.38
452.496	12.47
452.7	12.37
452.904	12.27
453.107	12.35
453.311	12.34
453.515	12.58
453.719	12.75
453.922	12.69
454.126	12.66
454.33	12.59
454.533	12.77
454.737	12.86
454.94	12.75
455.144	12.57
455.348	12.51
455.551	12.75
455.755	12.58
455.958	12.5
456.162	12.47
456.365	12.82
456.569	12.95
456.772	12.93
456.976	12.61
457.179	12.56
457.383	12.66
457.586	12.8
457.79	12.66
457.993	12.66
458.196	12.54
458.4	12.45
458.603	12.24
458.807	12.19
459.01	12.22
459.213	12.43
459.417	12.53
459.62	12.44
459.823	12.37
460.026	12.37
460.23	12.38
460.433	12.38
460.636	12.51
460.839	12.6
461.042	12.51
461.246	12.45
461.449	12.31
461.652	12.31
461.855	12.39
462.058	12.35
462.261	12.37
462.464	12.47
462.668	12.49
462.871	12.38
463.074	12.17
463.277	12.27
463.48	12.33
463.683	12.45
463.886	12.37
464.089	12.49
464.292	12.58
464.495	12.47
464.698	12.55
464.901	12.6
465.104	12.82
465.306	12.87
465.509	12.86
465.712	12.82
465.915	12.87
466.118	12.81
466.321	12.67
466.524	12.5
466.726	12.54
466.929	12.44
467.132	12.45
467.335	12.21
467.538	12.29
467.74	12.49
467.943	12.45
468.146	12.34
468.348	12.4
468.551	12.35
468.754	12.61
468.956	12.71
469.159	12.73
469.362	12.81
469.564	13.07
469.767	13.08
469.969	13.04
470.172	12.94
470.375	13.09
470.577	13.08
470.78	13.02
470.982	12.98
471.185	13.09
471.387	13.01
471.59	13
471.792	12.87
471.995	12.74
472.197	12.77
472.399	12.7
472.602	12.64
472.804	12.81
473.007	12.95
473.209	12.92
473.411	12.71
473.614	12.78
473.816	12.54
474.018	12.6
474.22	12.78
474.423	12.68
474.625	12.8
474.827	12.91
475.03	12.87
475.232	12.85
475.434	12.76
475.636	12.81
475.838	12.75
476.04	12.73
476.243	12.68
476.445	12.76
476.647	12.78
476.849	12.99
477.051	12.92
477.253	12.86
477.455	12.69
477.657	12.56
477.859	12.65
478.061	12.87
478.263	12.93
478.465	12.94
478.667	12.77
478.869	12.78
479.071	12.65
479.273	12.77
479.475	12.68
479.677	12.89
479.879	13.07
480.081	13.09
480.283	12.96
480.485	13.21
480.686	13.2
480.888	13.39
481.09	13.44
481.292	13.47
481.494	13.24
481.695	13.3
481.897	13.34
482.099	13.28
482.301	13.18
482.502	13.13
482.704	12.99
482.906	12.99
483.107	12.93
483.309	12.81
483.511	12.8
483.712	12.83
483.914	12.84
484.115	12.79
484.317	12.75
484.519	12.75
484.72	12.77
484.922	12.77
485.123	12.75
485.325	12.71
485.526	12.68
485.728	12.67
485.929	12.6
486.131	12.51
486.332	12.49
486.534	12.49
486.735	12.44
486.936	12.49
487.138	12.53
487.339	12.51
487.541	12.52
487.742	12.62
487.943	12.59
488.144	12.66
488.346	12.65
488.547	12.66
488.748	12.69
488.95	12.71
489.151	12.57
489.352	12.57
489.553	12.59
489.755	12.57
489.956	12.54
490.157	12.55
490.358	12.49
490.559	12.57
490.76	12.62
490.961	12.56
491.163	12.57
491.364	12.65
491.565	12.66
491.766	12.68
491.967	12.75
492.168	12.74
492.369	12.73
492.57	12.7
492.771	12.65
492.972	12.62
493.173	12.68
493.374	12.73
493.575	12.66
493.776	12.54
493.976	12.51
494.177	12.48
494.378	12.54
494.579	12.58
494.78	12.76
494.981	12.78
495.182	12.72
495.382	12.81
495.583	12.81
495.784	12.96
495.985	13.04
496.185	12.94
496.386	12.93
496.587	12.92
496.788	12.91
496.988	12.85
497.189	12.92
497.39	12.98
497.59	13.04
497.791	13.07
497.992	13.04
498.192	13.07
498.393	13.14
498.593	13.25
498.794	13.27
498.994	13.18
499.195	13.25
499.395	13.28
499.596	13.29
499.796	13.07
499.997	13.29
500.197	13.51
500.398	13.52
500.598	13.4
500.799	13.37
500.999	13.38
501.199	13.62
501.4	13.57
501.6	13.55
501.801	13.66
502.001	13.68
502.201	13.45
502.402	13.31
502.602	13.35
502.802	13.42
503.002	13.48
503.203	13.39
503.403	13.24
503.603	13.49
503.803	13.76
504.003	13.8
504.204	13.97
504.404	14.22
504.604	14.29
504.804	14.66
505.004	14.84
505.204	14.87
505.404	14.96
505.604	15.12
505.804	15.07
506.005	14.98
506.205	15.06
506.405	15.18
506.605	15.04
506.805	15.14
507.005	15
507.204	14.98
507.404	15.2
507.604	15.34
507.804	15.53
508.004	15.6
508.204	15.6
508.404	15.65
508.604	15.66
508.804	15.85
509.003	15.98
509.203	15.98
509.403	16.03
509.603	16.01
509.803	16.07
510.002	16.06
510.202	16.36
510.402	16.62
510.602	16.82
510.801	16.86
511.001	16.88
511.201	16.8
511.4	16.84
511.6	17.1
511.8	17.25
511.999	17.31
512.199	17.37
512.398	17.22
512.598	17.24
512.797	17.29
512.997	17.59
513.197	17.59
513.396	17.68
513.596	17.8
513.795	17.73
513.994	17.77
514.194	17.88
514.393	18.01
514.593	18.13
514.792	18.21
514.992	18.12
515.191	17.91
515.39	18.08
515.59	18.31
515.789	18.51
515.988	18.81
516.188	18.79
516.387	18.81
516.586	19.05
516.786	19.11
516.985	19.28
517.184	19.41
517.383	19.6
517.582	19.65
517.782	19.75
517.981	19.76
518.18	19.67
518.379	19.87
518.578	20.08
518.777	19.99
518.976	20.06
519.176	20
519.375	20.06
519.574	20.19
519.773	20.32
519.972	20.27
520.171	20.49
520.37	20.65
520.569	20.66
520.768	20.69
520.967	20.93
521.166	21.17
521.365	21.4
521.564	21.54
521.762	21.55
521.961	21.68
522.16	21.8
522.359	21.67
522.558	21.75
522.757	21.79
522.956	21.76
523.154	21.71
523.353	21.65
523.552	21.7
523.751	21.83
523.949	22
524.148	21.91
524.347	22.1
524.546	22.32
524.744	22.37
524.943	22.5
525.142	22.65
525.34	22.7
525.539	22.83
525.737	22.89
525.936	22.94
526.135	23.05
526.333	23.24
526.532	23.18
526.73	23.22
526.929	23.32
527.127	23.47
527.326	23.58
527.524	23.71
527.723	23.8
527.921	23.86
528.12	23.91
528.318	23.91
528.516	23.91
528.715	23.98
528.913	24
529.112	24.08
529.31	24.06
529.508	24.04
529.707	24.03
529.905	24
530.103	24.05
530.301	24.09
530.5	24.12
530.698	24.23
530.896	24.35
531.094	24.53
531.293	24.57
531.491	24.78
531.689	24.96
531.887	25.09
532.085	25.28
532.283	25.32
532.481	25.35
532.68	25.42
532.878	25.47
533.076	25.55
533.274	25.5
533.472	25.55
533.67	25.46
533.868	25.46
534.066	25.6
534.264	25.55
534.462	25.63
534.66	25.81
534.858	25.86
535.056	25.94
535.253	25.96
535.451	26.11
535.649	26.15
535.847	26.26
536.045	26.36
536.243	26.25
536.441	26.26
536.638	26.25
536.836	26.29
537.034	26.33
537.232	26.35
537.43	26.47
537.627	26.55
537.825	26.67
538.023	26.68
538.22	26.75
538.418	27.05
538.616	27.11
538.813	27.33
539.011	27.32
539.209	27.4
539.406	27.45
539.604	27.59
539.801	27.57
539.999	27.61
540.196	27.82
540.394	27.83
540.591	27.82
540.789	27.96
540.986	27.84
541.184	27.85
541.381	27.96
541.579	28.04
541.776	28
541.974	27.93
542.171	27.96
542.368	27.96
542.566	28.03
542.763	28.03
542.96	28.01
543.158	28.12
543.355	28.22
543.552	28.21
543.75	28.24
543.947	28.23
544.144	28.45
544.341	28.56
544.539	28.61
544.736	28.61
544.933	28.75
545.13	28.99
545.327	29.22
545.524	29.23
545.722	29.39
545.919	29.35
546.116	29.42
546.313	29.48
546.51	29.53
546.707	29.56
546.904	29.73
547.101	29.66
547.298	29.56
547.495	29.38
547.692	29.38
547.889	29.3
548.086	29.54
548.283	29.66
548.48	29.63
548.677	29.69
548.874	29.65
549.07	29.76
549.267	29.78
549.464	29.85
549.661	30.15
549.858	30.42
550.055	30.51
550.251	30.39
550.448	30.46
550.645	30.54
550.842	30.28
551.038	30.37
551.235	30.18
551.432	30.25
551.628	30.17
551.825	30.08
552.022	29.92
552.218	29.79
552.415	29.88
552.612	29.81
552.808	29.74
553.005	30.03
553.201	29.96
553.398	30.03
553.594	29.96
553.791	30.2
553.987	29.89
554.184	29.97
554.38	30.11
554.577	30.05
554.773	30.13
554.97	30.31
555.166	30.15
555.362	30.32
555.559	30.33
555.755	30.45
555.952	30.48
556.148	30.99
556.344	31.05
556.541	31.2
556.737	31.2
556.933	31.21
557.129	31.36
557.326	31.31
557.522	31.33
557.718	31.27
557.914	31.34
558.11	31.44
558.307	31.39
558.503	31.25
558.699	31.46
558.895	31.42
559.091	31.52
559.287	31.53
559.483	31.68
559.679	31.66
559.876	31.89
560.072	31.85
560.268	31.55
560.464	31.69
560.66	31.79
560.856	31.57
561.052	31.71
561.247	31.44
561.443	31.43
561.639	31.34
561.835	31.47
562.031	31.41
562.227	31.46
562.423	31.61
562.619	31.33
562.815	31.34
563.01	31.46
563.206	31.59
563.402	31.84
563.598	31.62
563.793	31.66
563.989	31.64
564.185	31.54
564.381	31.67
564.576	31.67
564.772	31.87
564.968	31.86
565.163	31.83
565.359	31.65
565.555	31.63
565.75	31.71
565.946	31.76
566.141	31.72
566.337	31.74
566.532	31.75
566.728	31.64
566.923	31.52
567.119	31.7
567.314	31.66
567.51	31.76
567.705	31.73
567.901	31.79
568.096	31.88
568.292	31.97
568.487	31.94
568.682	31.79
568.878	32.08
569.073	32.14
569.268	32.04
569.464	31.95
569.659	32.08
569.854	32.04
570.05	32.16
570.245	32.38
570.44	32.38
570.635	32.43
570.831	32.63
571.026	32.67
571.221	32.85
571.416	32.91
571.611	32.94
571.806	32.86
572.002	32.78
572.197	32.72
572.392	32.51
572.587	32.39
572.782	32.46
572.977	32.41
573.172	32.21
573.367	32
573.562	31.87
573.757	31.99
573.952	31.95
574.147	32.33
574.342	32.37
574.537	32.58
574.732	32.6
574.927	32.68
575.121	32.63
575.316	32.76
575.511	32.73
575.706	32.67
575.901	32.74
576.096	32.86
576.29	32.69
576.485	32.74
576.68	32.67
576.875	32.8
577.069	32.77
577.264	32.87
577.459	33.05
577.654	33.33
577.848	33.71
578.043	33.73
578.238	33.66
578.432	33.74
578.627	33.69
578.821	33.83
579.016	34.04
579.21	33.79
579.405	33.78
579.6	33.69
579.794	33.47
579.989	33.42
580.183	33.35
580.378	33.73
580.572	33.85
580.766	34.24
580.961	34.29
581.155	34.12
581.35	34.57
581.544	34.54
581.738	34.42
581.933	34.6
582.127	34.52
582.321	34.63
582.516	34.08
582.71	33.86
582.904	33.33
583.099	33.17
583.293	33.36
583.487	33.15
583.681	33.11
583.875	33.15
584.07	33.27
584.264	33.41
584.458	33.38
584.652	33.67
584.846	33.56
585.04	33.8
585.234	33.77
585.428	33.8
585.623	33.9
585.817	34.37
586.011	34.21
586.205	33.98
586.399	34.02
586.593	34.09
586.787	33.9
586.981	33.88
587.174	33.78
587.368	33.7
587.562	33.6
587.756	33.64
587.95	33.45
588.144	33.94
588.338	33.98
588.532	33.72
588.725	33.57
588.919	33.75
589.113	34.11
589.307	34.07
589.501	34.3
589.694	34.27
589.888	34.33
590.082	34.33
590.275	33.87
590.469	33.8
590.663	33.75
590.856	33.9
591.05	33.74
591.244	33.62
591.437	33.64
591.631	33.58
591.824	33.54
592.018	33.6
592.212	33.27
592.405	33.35
592.599	33.29
592.792	33.24
592.986	33.19
593.179	33.46
593.372	33.59
593.566	33.42
593.759	33.3
593.953	33.35
594.146	33.18
594.339	33.34
594.533	33.32
594.726	33.4
594.92	33.46
595.113	33.56
595.306	33.29
595.499	33.11
595.693	33.27
595.886	33.32
596.079	33.32
596.272	33.34
596.466	33.3
596.659	33.53
596.852	33.55
597.045	33.62
597.238	33.35
597.431	33.3
597.624	33.5
597.818	33.71
598.011	33.61
598.204	33.59
598.397	33.5
598.59	33.44
598.783	33.41
598.976	33.56
599.169	33.72
599.362	33.85
599.555	34.34
599.748	34.32
599.941	34.35
600.134	34.39
600.326	34.48
600.519	35.16
600.712	35.51
600.905	35.41
601.098	35.4
601.291	35.3
601.483	35.43
601.676	35.12
601.869	35.22
602.062	34.9
602.255	34.85
602.447	34.93
602.64	34.64
602.833	34.52
603.025	34.58
603.218	34.57
603.411	34.84
603.603	34.78
603.796	34.86
603.989	34.76
604.181	34.72
604.374	34.69
604.566	34.59
604.759	34.5
604.951	34.41
605.144	34.33
605.336	34.25
605.529	33.85
605.721	33.98
605.914	33.92
606.106	33.82
606.299	34.1
606.491	34.23
606.683	34.16
606.876	34.03
607.068	34.33
607.26	34.62
607.453	34.5
607.645	34.82
607.837	34.82
608.03	34.61
608.222	35
608.414	34.8
608.606	34.92
608.799	34.97
608.991	35.21
609.183	35.15
609.375	35.08
609.567	35.33
609.759	35.33
609.952	35.53
610.144	35.82
610.336	35.59
610.528	35.62
610.72	35.92
610.912	36.07
611.104	36.14
611.296	36.17
611.488	36.12
611.68	36.27
611.872	36.32
612.064	36.16
612.256	36.18
612.448	36.29
612.64	36.53
612.832	36.04
613.023	35.94
613.215	35.53
613.407	35.42
613.599	35.5
613.791	35.16
613.983	35.47
614.174	35.29
614.366	35.39
614.558	35.5
614.75	35.41
614.941	35.54
615.133	35.29
615.325	35.22
615.516	35.19
615.708	35.16
615.9	35.25
616.091	34.78
616.283	34.82
616.475	34.64
616.666	34.53
616.858	34.57
617.049	34.74
617.241	35.1
617.432	35.49
617.624	35.64
617.815	35.28
618.007	35.16
618.198	35.25
618.39	35.34
618.581	35.28
618.773	35.08
618.964	34.83
619.155	34.45
619.347	34.55
619.538	34.66
619.729	34.67
619.921	35.1
620.112	35.3
620.303	35.23
620.494	35.21
620.686	35.43
620.877	35.58
621.068	35.82
621.259	36.02
621.451	35.9
621.642	35.77
621.833	35.84
622.024	35.91
622.215	36.12
622.406	36.2
622.597	36.29
622.788	36.23
622.98	36.34
623.171	36.32
623.362	36.46
623.553	36.55
623.744	36.54
623.935	36.37
624.126	35.92
624.317	35.73
624.508	35.75
624.698	35.24
624.889	35.09
625.08	34.81
625.271	35.04
625.462	34.84
625.653	34.58
625.844	34.5
626.034	34.4
626.225	34.7
626.416	34.81
626.607	34.64
626.798	34.8
626.988	34.82
627.179	34.9
627.37	34.47
627.56	34.59
627.751	34.54
627.942	34.65
628.132	34.78
628.323	34.56
628.514	34.37
628.704	34.5
628.895	34.61
629.085	34.77
629.276	34.98
629.466	35.12
629.657	35.3
629.847	35.57
630.038	35.5
630.228	35.68
630.419	35.99
630.609	36.33
630.8	36.13
630.99	36.11
631.181	35.92
631.371	35.59
631.561	35.6
631.752	35.48
631.942	35.35
632.132	35.48
632.323	35.37
632.513	35.25
632.703	35.09
632.893	35.31
633.084	35.22
633.274	35.26
633.464	35.55
633.654	35.72
633.844	35.6
634.034	35.69
634.225	35.52
634.415	35.62
634.605	36.06
634.795	36.18
634.985	36.33
635.175	36.31
635.365	36.46
635.555	36.39
635.745	36.45
635.935	36.45
636.125	36.24
636.315	36.2
636.505	35.94
636.695	35.73
636.885	35.3
637.075	35.18
637.265	35.75
637.455	35.6
637.644	35.51
637.834	34.86
638.024	34.71
638.214	34.83
638.404	34.95
638.593	35.13
638.783	34.86
638.973	35.14
639.163	35.04
639.352	34.62
639.542	34.63
639.732	34.61
639.921	34.89
640.111	35.25
640.301	35.31
640.49	35.4
640.68	35.5
640.87	35.37
641.059	35.35
641.249	35.2
641.438	35.15
641.628	35.08
641.817	35.22
642.007	35.3
642.196	35.23
642.386	35.15
642.575	34.84
642.764	34.64
642.954	35.15
643.143	34.99
643.333	35.51
643.522	35.42
643.711	35.44
643.901	35.58
644.09	35.82
644.279	35.87
644.469	35.85
644.658	36.09
644.847	36.27
645.036	36.25
645.226	36.29
645.415	35.71
645.604	35.97
645.793	35.66
645.982	35.36
646.171	35.51
646.361	35.23
646.55	35.4
646.739	35.54
646.928	35.54
647.117	35.16
647.306	35.5
647.495	36
647.684	35.83
647.873	36.19
648.062	36.28
648.251	36.01
648.44	36.09
648.629	36.3
648.818	35.86
649.007	35.84
649.196	35.93
649.384	35.8
649.573	35.77
649.762	35.89
649.951	36.15
650.14	36.03
650.328	36.41
650.517	36.65
650.706	36.08
650.895	36.46
651.083	36.07
651.272	35.66
651.461	35.39
651.65	35.17
651.838	35.02
652.027	34.79
652.216	35
652.404	34.85
652.593	34.55
652.781	35.13
652.97	34.69
653.158	34.72
653.347	35.22
653.535	35.2
653.724	35.16
653.912	35.29
654.101	35.69
654.289	35.38
654.478	35.72
654.666	35.47
654.855	34.93
655.043	35.37
655.231	35.43
655.42	35.27
655.608	35.61
655.796	35.62
655.985	35.54
656.173	35.7
656.361	35.73
656.55	35.43
656.738	36.03
656.926	36.23
657.114	35.82
657.302	35.88
657.491	36.19
657.679	36.16
657.867	36.35
658.055	36.43
658.243	36.12
658.431	36.11
658.619	36.2
658.807	35.92
658.996	35.86
659.184	35.97
659.372	36.18
659.56	35.99
659.748	35.64
659.936	35.72
660.124	35.35
660.311	34.98
660.499	34.74
660.687	34.48
660.875	34.45
661.063	34.75
661.251	34.89
661.439	34.83
661.627	34.71
661.814	34.85
662.002	34.77
662.19	35.18
662.378	35.41
662.565	35.97
662.753	35.83
662.941	36.07
663.129	36
663.316	36.22
663.504	35.53
663.692	35.63
663.879	35.75
664.067	35.58
664.254	35.63
664.442	35.74
664.63	35.85
664.817	36.37
665.005	36.15
665.192	36.08
665.38	35.81
665.567	36.85
665.755	36.88
665.942	37.31
666.13	37.1
666.317	36.5
666.504	36.33
666.692	36.3
666.879	35.84
667.067	36.36
667.254	36.3
667.441	36.39
667.629	36.26
667.816	36.07
668.003	36.02
668.19	35.98
668.378	36.66
668.565	37.12
668.752	36.99
668.939	37.04
669.127	36.6
669.314	37.15
669.501	37.1
669.688	36.69
669.875	37.1
670.062	36.98
670.249	37.25
670.436	37.17
670.623	36.9
670.81	37.04
670.997	37.09
671.184	37.01
671.371	36.31
671.558	36.27
671.745	36.28
671.932	35.86
672.119	35.74
672.306	35.47
672.493	35.35
672.68	34.8
672.867	34.52
673.054	34.32
673.24	34.55
673.427	34.83
673.614	34.77
673.801	35.46
673.988	36.34
674.174	36.02
674.361	36.38
674.548	36.54
674.734	36.8
674.921	37.17
675.108	37.12
675.294	37.03
675.481	36.73
675.668	37.09
675.854	36.55
676.041	35.97
676.227	36.17
676.414	35.92
676.601	35.78
676.787	35.98
676.974	35.7
677.16	36.07
677.347	36.17
677.533	36.7
677.719	36.71
677.906	36.79
678.092	36.9
678.279	37.26
678.465	37.41
678.651	37.78
678.838	37.7
679.024	37.66
679.21	36.86
679.397	36.66
679.583	36.26
679.769	35.92
679.955	35.57
680.142	35.14
680.328	34.82
680.514	34.6
680.7	34.49
680.886	34.51
681.073	34.01
681.259	34.79
681.445	35.01
681.631	34.9
681.817	35.18
682.003	35.69
682.189	35.75
682.375	35.97
682.561	36.23
682.747	35.93
682.933	35.78
683.119	36.2
683.305	35.91
683.491	36.19
683.677	36.33
683.863	35.93
684.049	35.83
684.235	36.13
684.42	36.04
684.606	35.92
684.792	36.03
684.978	36.41
685.164	36.65
685.349	36.77
685.535	35.62
685.721	35.79
685.907	35.81
686.092	35.11
686.278	34.86
686.464	35.03
686.649	34.89
686.835	35.11
687.021	34.91
687.206	34.43
687.392	34.54
687.577	35.2
687.763	35.24
687.948	35.57
688.134	36.03
688.319	35.79
688.505	35.6
688.69	36.61
688.876	36.14
689.061	36.11
689.247	36.76
689.432	36.99
689.618	37.1
689.803	37.07
689.988	37.26
690.174	37.44
690.359	37.98
690.544	37.55
690.73	37.11
690.915	37.46
691.1	37.55
691.285	37.97
691.471	37.63
691.656	37.96
691.841	37.76
692.026	37.48
692.211	37.37
692.396	37.12
692.582	37.74
692.767	37.2
692.952	36.95
693.137	36.85
693.322	36.12
693.507	35.96
693.692	35.05
693.877	35.31
694.062	35.32
694.247	34.91
694.432	35.28
694.617	35.19
694.802	35.39
694.987	35.49
695.172	35.5
695.357	35.94
695.541	36.33
695.726	37.18
695.911	37.94
696.096	38.35
696.281	38.48
696.466	38.35
696.65	38.04
696.835	37.91
697.02	38.28
697.204	38.41
697.389	38.03
697.574	37.68
697.759	37.37
697.943	36.36
698.128	35.82
698.312	35.95
698.497	35.44
698.682	35.64
698.866	35.65
699.051	35.05
699.235	34.86
699.42	34.64
699.604	34.9
699.789	34.59
699.973	35.17
700.158	35.13
700.342	35.11
700.527	35.44
700.711	35.55
700.895	35.69
701.08	35.94
701.264	36.29
701.448	36.44
701.633	36
701.817	36.46
702.001	36.11
702.186	36.46
702.37	36.64
702.554	36.29
702.738	35.91
702.923	35.62
703.107	36.02
703.291	35.82
703.475	35.68
703.659	35.57
703.843	35.58
704.027	35.39
704.212	35.42
704.396	35.58
704.58	35.99
704.764	36
704.948	35.71
705.132	35.76
705.316	35.73
705.5	35.99
705.684	36.68
705.868	37.01
706.052	37.06
706.235	36.81
706.419	36.48
706.603	36.57
706.787	36.94
706.971	37.43
707.155	36.79
707.339	36.53
707.522	36.89
707.706	36.92
707.89	36.79
708.074	37.21
708.257	37.18
708.441	37.62
708.625	38.07
708.808	37.95
708.992	37.69
709.176	38.58
709.359	38.69
709.543	38.38
709.727	37.73
709.91	37.71
710.094	37.69
710.277	37.93
710.461	38.19
710.644	37.9
710.828	38.4
711.011	39.09
711.195	38.03
711.378	38.26
711.562	38.29
711.745	39.08
711.928	38.54
712.112	37.59
712.295	37.77
712.478	36.99
712.662	36.8
712.845	36.14
713.028	35.76
713.212	36.35
713.395	35.93
713.578	36.13
713.761	35.44
713.945	35.95
714.128	36.91
714.311	36.2
714.494	36.87
714.677	37.22
714.86	38.03
715.043	38.06
715.227	38.5
715.41	38.15
715.593	38.04
715.776	37.58
715.959	37.23
716.142	37.03
716.325	37.54
716.508	37.25
716.691	37.31
716.874	36.53
717.057	36.56
717.239	36.8
717.422	37.19
717.605	36.77
717.788	35.87
717.971	35.79
718.154	35.71
718.337	35.74
718.519	35.99
718.702	35.89
718.885	35.89
719.068	36.2
719.25	35.6
719.433	36.07
719.616	36.91
719.798	38.55
719.981	38.99
720.164	38.4
720.346	38.67
720.529	38.87
720.712	37.82
720.894	37.23
721.077	36.91
721.259	36.37
721.442	36.57
721.624	35.96
721.807	35.96
721.989	36.6
722.172	36.9
722.354	35.53
722.537	34.62
722.719	35.77
722.901	35.63
723.084	35.15
723.266	34.78
723.448	33.97
723.631	33.25
723.813	33.69
723.995	33.23
724.178	33.64
724.36	34.84
724.542	35.95
724.724	35.43
724.907	35.91
725.089	36.39
725.271	37.46
725.453	37.95
725.635	39.29
725.817	39.03
725.999	38.99
726.181	38.72
726.364	38.58
726.546	37.08
726.728	37.47
726.91	37.6
727.092	37.35
727.274	38.06
727.456	37.64
727.638	36.97
727.819	37.38
728.001	37.37
728.183	37.48
728.365	37.65
728.547	38.76
728.729	39.08
728.911	39.78
729.093	39.56
729.274	39.52
729.456	39.47
729.638	39.81
729.82	40.1
730.001	39.83
730.183	39.1
730.365	39.78
730.546	39.51
730.728	38.9
730.91	38.47
731.091	38.67
731.273	37.77
731.455	38.25
731.636	38.6
731.818	37.95
731.999	38.18
732.181	38.31
732.362	37.85
732.544	37.08
732.725	37.06
732.907	37.22
733.088	37.31
733.27	37.6
733.451	37.94
733.633	37.59
733.814	37.76
733.995	37.31
734.177	38.39
734.358	37.51
734.539	38.23
734.721	38.24
734.902	38.34
735.083	38.23
735.264	37.94
735.446	38.71
735.627	37.9
735.808	37.04
735.989	37.42
736.17	36.32
736.351	36.58
736.533	36.53
736.714	37.12
736.895	37.55
737.076	37.57
737.257	37.76
737.438	36.89
737.619	37.58
737.8	37.91
737.981	37.75
738.162	38.89
738.343	39.06
738.524	38.23
738.705	38.28
738.886	37.08
739.067	38.33
739.247	38.93
739.428	38.59
739.609	39.83
739.79	40.8
739.971	40.64
740.151	40.78
740.332	41.42
740.513	42.61
740.694	41.97
740.874	42.48
741.055	42.4
741.236	41.78
741.417	41.33
741.597	40.37
741.778	40.71
741.958	40.7
742.139	39.86
742.32	40.02
742.5	38.91
742.681	39.4
742.861	39.5
743.042	38.56
743.222	38.18
743.403	38.07
743.583	38.38
743.764	36.91
743.944	37
744.124	38.36
744.305	37.68
744.485	38.37
744.666	38.27
744.846	39.12
745.026	39.28
745.207	40.05
745.387	40.77
745.567	40.96
745.747	41.42
745.928	41.57
746.108	40.15
746.288	39.8
746.468	38.85
746.648	38.39
746.829	36.69
747.009	36.58
747.189	36.07
747.369	35.43
747.549	34.15
747.729	34.57
747.909	33.95
748.089	34.27
748.269	33.69
748.449	34.49
748.629	35.07
748.809	34.7
748.989	34.8
749.169	35.46
749.349	35.86
749.529	35.77
749.709	35.57
749.889	36.08
750.068	36.21
750.248	38.32
750.428	38.57
750.608	39.06
750.788	39.05
750.967	38.92
751.147	38.42
751.327	39.23
751.507	39.22
751.686	40.3
751.866	40.84
752.046	40.83
752.225	40.45
752.405	40.9
752.585	40.56
752.764	42.82
752.944	43.32
753.123	43.69
753.303	43.68
753.482	44.57
753.662	43.56
753.841	43.82
754.021	42.89
754.2	41.53
754.38	41.12
754.559	40.22
754.739	37.45
754.918	36.67
755.097	36.04
755.277	34.84
755.456	35.62
755.635	35.71
755.815	35.64
755.994	35.99
756.173	36.58
756.352	36.61
756.532	36.05
756.711	38.28
756.89	37.91
757.069	38.63
757.248	39.62
757.427	38
757.607	38.85
757.786	38.06
757.965	39.12
758.144	40.04
758.323	39.29
758.502	39.71
758.681	39.5
758.86	40.2
759.039	39.66
759.218	38.68
759.397	39.14
759.576	38.17
759.755	38.48
759.934	36.73
760.113	37.21
760.291	37.79
760.47	38.78
760.649	37.72
760.828	37.67
761.007	37.74
761.186	36.79
761.364	36.34
761.543	36.04
761.722	36.34
761.901	37.84
762.079	36.47
762.258	36.56
762.437	36.84
762.615	37.45
762.794	37.67
762.972	37.81
763.151	39.3
763.33	39.33
763.508	39.9
763.687	39.06
763.865	39.47
764.044	39.82
764.222	39.73
764.401	39.48
764.579	40.07
764.758	39.97
764.936	39.25
765.114	39.09
765.293	39.2
765.471	39.12
765.65	39.84
765.828	38.88
766.006	38.19
766.184	37.42
766.363	36.46
766.541	35.29
766.719	35.9
766.898	37.14
767.076	36.9
767.254	37.29
767.432	37
767.61	36.58
767.788	37.16
767.967	37.71
768.145	38.78
768.323	39.18
768.501	39.92
768.679	38.06
768.857	37.91
769.035	37.48
769.213	37.38
769.391	37.78
769.569	36.78
769.747	35.56
769.925	34.77
770.103	35.77
770.281	37.79
770.459	37.62
770.636	38.98
770.814	38.93
770.992	39.87
771.17	39.19
771.348	38.49
771.525	40.71
771.703	41.76
771.881	42.29
772.059	41.3
772.236	40.3
772.414	41.35
772.592	40.29
772.769	40.27
772.947	39.72
773.125	42.49
773.302	41.97
773.48	40.69
773.657	40.89
773.835	41.62
774.013	41.61
774.19	40.41
774.368	39.58
774.545	40.53
774.723	39.31
774.9	39.08
775.077	37.89
775.255	39.04
775.432	38.4
775.61	36.96
775.787	37.65
775.964	38.42
776.142	38.77
776.319	38.52
776.496	37.85
776.674	39.12
776.851	39.31
777.028	38.55
777.205	38.14
777.382	41.09
777.56	41.56
777.737	39.09
777.914	38.09
778.091	37.79
778.268	38.68
778.445	39.17
778.622	39.4
778.8	40.43
778.977	41.15
779.154	40.01
779.331	38.61
779.508	38.64
779.685	40.47
779.862	41.52
780.038	43.21
780.215	42.95
780.392	42.93
780.569	43.65
780.746	42.03
780.923	42.22
781.1	44.14
781.277	43.9
781.453	43.88
781.63	42.26
781.807	42.64
781.984	40.62
782.16	39.93
782.337	39.47
782.514	39.82
782.691	39.54
782.867	38.95
783.044	37.85
783.221	38.29
783.397	38.56
783.574	40.01
783.75	38.42
783.927	40.31
784.103	41.22
784.28	41.04
784.456	39.16
784.633	40.24
784.809	41.08
784.986	41.06
785.162	40.95
785.339	39.73
785.515	38.17
785.692	38.12
785.868	38.31
786.044	36.23
786.221	37.22
786.397	39.44
786.573	40.56
786.749	38.06
786.926	38.21
787.102	41.01
787.278	41.7
787.454	44.03
787.631	43.84
787.807	44.49
787.983	45.47
788.159	46.94
788.335	45.64
788.511	43.01
788.687	42.97
788.863	44.01
789.039	40.1
789.216	40.62
789.392	38.86
789.568	39.21
789.744	38.47
789.919	38.56
790.095	37.12
790.271	36.97
790.447	38.7
790.623	39.11
790.799	38.62
790.975	42.2
791.151	42.38
791.327	42.95
791.502	43.72
791.678	44.19
791.854	45.15
792.03	45.74
792.205	45.34
792.381	44.94
792.557	47.19
792.733	46.82
792.908	42.98
793.084	44.38
793.259	45.84
793.435	46.39
793.611	44.09
793.786	42.83
793.962	42.64
794.137	43.27
794.313	42.74
794.488	40.52
794.664	41.08
794.839	43.25
795.015	43.35
795.19	42.72
795.366	41.59
795.541	42.79
795.716	43.25
795.892	43.08
796.067	43.41
796.242	45.81
796.418	45.05
796.593	44.72
796.768	43.73
796.944	41.18
797.119	41.82
797.294	40.53
797.469	40.4
797.644	39.29
797.82	40.37
797.995	38.8
798.17	39.61
798.345	41.65
798.52	43.05
798.695	43.2
798.87	43.68
799.045	43.54
799.22	46.43
799.395	45.28
799.57	44.95
799.745	43.66
799.92	43.42
800.095	43.1
800.27	42.87
800.445	39.95
800.62	39.6
800.795	38.65
800.97	41.25
801.145	38.01
801.319	39.8
801.494	38.92
801.669	39.84
801.844	43.65
802.018	40.51
802.193	41.13
802.368	42.93
802.543	45.78
802.717	48.2
802.892	42.54
803.067	43.42
803.241	44.57
803.416	46.71
803.59	45.22
803.765	43.56
803.94	43.76
804.114	43.03
804.289	44.21
804.463	43.35
804.638	45.24
804.812	48.77
804.986	51.75
805.161	47.85
805.335	48.18
805.51	50.22
805.684	52.1
805.858	53.8
806.033	52.72
806.207	50.22
806.381	49.52
806.556	45.65
806.73	45.08
806.904	44.16
807.078	46.76
807.253	46.31
807.427	45.02
807.601	41.38
807.775	40.14
807.949	40.83
808.123	42.1
808.298	40.37
808.472	40.84
808.646	41.18
808.82	40.78
808.994	38.72
809.168	39.99
809.342	40.7
809.516	43.68
809.69	42.01
809.864	42.93
810.038	41.03
810.212	44.26
810.385	46.98
810.559	46.2
810.733	45.77
810.907	45.74
811.081	46.16
811.255	45.03
811.428	42.64
811.602	44.28
811.776	40.68
811.95	43.13
812.123	42.71
812.297	41.05
812.471	42.37
812.644	42.09
812.818	43.85
812.992	43.66
813.165	44.42
813.339	43.12
813.512	45.05
813.686	46.46
813.86	46.84
814.033	46.87
814.207	48
814.38	48.28
814.554	46.32
814.727	45.54
814.9	43.51
815.074	43.57
815.247	43.15
815.421	39.28
815.594	40.14
815.767	41.81
815.941	38.68
816.114	38.82
816.287	36.41
816.46	37.94
816.634	39.08
816.807	38.5
816.98	41.22
817.153	43.98
817.327	47.54
817.5	49.08
817.673	47.89
817.846	49.44
818.019	48.28
818.192	51.11
818.365	48.06
818.538	48.1
818.711	48.94
818.884	46.73
819.057	45.39
819.23	44.42
819.403	46.18
819.576	42.96
819.749	40.09
819.922	41.46
820.095	39.99
820.268	43.41
820.441	44.78
820.614	45.27
820.786	45.14
820.959	44.14
821.132	43.32
821.305	40.51
821.477	40.11
821.65	39.9
821.823	38.73
821.996	38.27
822.168	36.98
822.341	34.94
822.514	35.19
822.686	34.46
822.859	34.29
823.031	34.08
823.204	34.57
823.376	34.96
823.549	34.83
823.722	34.74
823.894	34.88
824.067	35.09
824.239	35.86
824.411	35.71
824.584	36.73
824.756	37.23
824.929	37.86
825.101	36.81
825.273	36.79
825.446	37.85
825.618	38.27
825.79	37.99
825.963	38.42
826.135	38.89
826.307	38.48
826.479	37.15
826.652	36.88
826.824	36.2
826.996	37.25
827.168	37.86
827.34	38.03
827.512	37.06
827.684	37.86
827.856	38.2
828.029	38.68
828.201	38.66
828.373	39.48
828.545	40.04
828.717	40.87
828.889	41.55
829.061	41.55
829.232	41.45
829.404	42.91
829.576	42.14
829.748	41.9
829.92	41.95
830.092	42.68
830.264	42.96
830.436	42.99
830.607	43.61
830.779	43.04
830.951	43.68
831.123	43.12
831.294	43.83
831.466	45.07
831.638	46.11
831.809	46.45
831.981	47.58
832.153	46.74
832.324	48.55
832.496	47.35
832.667	48.88
832.839	48.14
833.011	48.84
833.182	50.5
833.354	47.83
833.525	46.08
833.697	45.9
833.868	45.39
834.039	46.56
834.211	44.28
834.382	44.57
834.554	44.89
834.725	43.38
834.896	42.61
835.068	40.58
835.239	44.27
835.41	44.98
835.581	44.22
835.753	43.8
835.924	44.09
836.095	43.84
836.266	43.08
836.438	42.66
836.609	44.89
836.78	45.03
836.951	45.85
837.122	43.29
837.293	44.96
837.464	45.79
837.635	46.43
837.806	45.64
837.977	47.87
838.148	46.58
838.319	45.75
838.49	43.62
838.661	44.14
838.832	43.38
839.003	40.52
839.174	35.82
839.345	36.1
839.516	35.02
839.687	33.39
839.857	33.58
840.028	37.9
840.199	35.27
840.37	35.59
840.54	38.22
840.711	37.4
840.882	41.46
841.053	40.97
841.223	40.02
841.394	37.24
841.564	34.13
841.735	35.77
841.906	33.25
842.076	31.72
842.247	33.43
842.417	26.49
842.588	31.88
842.758	31.02
842.929	28.14
843.099	29.74
843.27	36.8
843.44	40.7
843.611	38.27
843.781	39.59
843.951	43.31
844.122	41.04
844.292	51.48
844.462	46.98
844.633	51.01
844.803	53.35
844.973	47.6
845.144	42.48
845.314	39.13
845.484	34.26
845.654	35.97
845.824	36.05
845.995	40.05
846.165	34.65
846.335	28.87
846.505	19.27
846.675	24.99
846.845	30.78
847.015	32.07
847.185	39.51
847.355	44.95
847.525	44.89
847.695	43.79
847.865	45.69
848.035	45.65
848.205	49.99
848.375	62.79
848.545	68.31
848.715	70.43
848.884	65.73
849.054	66.59
849.224	75.31
849.394	75.57
849.564	70.88
849.733	64.28
849.903	58.84
850.073	61.47
850.243	56.72
850.412	42.89
850.582	40.43
850.752	39.69
850.921	37.78
851.091	28.33
851.26	29.55
851.43	31.9
851.599	33.19
851.769	36.41
851.939	36.69
852.108	33.05
852.278	40
852.447	38.53
852.616	41.15
852.786	41.82
852.955	44.95
853.125	41.1
853.294	45.45
853.463	46.32
853.633	45.3
853.802	41.77
853.971	50.69
854.141	42.96
854.31	48.67
854.479	52.99
854.648	50.66
854.818	53.69
854.987	56.04
855.156	50.68
855.325	48.78
855.494	50.35
855.663	55.36
855.832	45.47
856.001	53.12
856.171	49.86
856.34	44.74
856.509	44.18
856.678	44.24
856.847	42.93
857.016	50.39
857.185	55.01
857.353	58.27
857.522	56.07
857.691	52.52
857.86	46.27
858.029	44.16
858.198	48.12
858.367	53.21
858.535	45.43
858.704	54.34
858.873	49.49
859.042	51.76
859.21	48.95
859.379	48.79
859.548	59.66
859.717	62.87
859.885	55.25
860.054	55.67
860.222	49.13
860.391	51.94
860.56	49.44
860.728	52.33
860.897	50.38
861.065	47.69
861.234	51.56
861.402	51.97
861.571	52.69
861.739	54.96
861.908	50.6
862.076	50.28
862.244	51.78
862.413	46.61
862.581	43.54
862.749	42.31
862.918	49.47
863.086	42.7
863.254	38.12
863.423	41.74
863.591	43.91
863.759	43.9
863.927	47.59
864.096	47.29
864.264	41.6
864.432	35.57
864.6	41.72
864.768	38.79
864.936	33.57
865.104	33.9
865.272	29.64
865.44	29.38
865.608	31.51
865.776	30.32
865.944	24.85
866.112	29.87
866.28	34.14
866.448	32.87
866.616	32.16
866.784	39.92
866.952	39.53
867.12	35.2
867.288	39.77
867.455	45.33
867.623	43.73
867.791	49.8
867.959	53.88
868.127	53.55
868.294	50.45
868.462	52.47
868.63	54.77
868.797	67.01
868.965	71.92
869.133	70.35
869.3	68.49
869.468	72.39
869.636	64.63
869.803	67.19
869.971	66.11
870.138	64.89
870.306	66.64
870.473	62.27
870.641	63.65
870.808	56.99
870.975	50.14
871.143	50.41
871.31	53.5
871.478	59.09
871.645	54.52
871.812	50.72
871.98	51.61
872.147	49.41
872.314	47.31
872.482	23.49
872.649	28.98
872.816	41.54
872.983	34.91
873.15	38.73
873.318	27.49
873.485	41.54
873.652	51.09
873.819	50.21
873.986	51.82
874.153	55.44
874.32	59.65
874.487	63.17
874.654	62.49
874.821	63.54
874.988	59.52
875.155	70.94
875.322	63.07
875.489	61.11
875.656	61.07
875.823	60.6
875.99	52.44
876.157	56.83
876.324	55.33
876.49	53.43
876.657	59.83
876.824	59.68
876.991	51.81
877.157	53.21
877.324	51.21
877.491	57.16
877.658	49.06
877.824	46.64
877.991	45.16
878.157	46.02
878.324	42.58
878.491	33.86
878.657	34.46
878.824	42.97
878.99	38.14
879.157	39.44
879.323	37.96
879.49	36.61
879.656	45.76
879.823	47.81
879.989	49.67
880.156	52.23
880.322	53.78
880.488	57.57
880.655	53.36
880.821	48.36
880.987	48.35
881.154	50.73
881.32	50.14
881.486	47.8
881.652	42.11
881.819	38.9
881.985	39.68
882.151	35.2
882.317	36.12
882.483	34.9
882.649	36.59
882.816	37.21
882.982	36.46
883.148	37.19
883.314	37.59
883.48	37.9
883.646	37.82
883.812	38.55
883.978	38.87
884.144	37.76
884.31	39.06
884.476	39.77
884.642	38.42
884.807	38.72
884.973	37.51
885.139	36.47
885.305	36.74
885.471	37.18
885.637	36.25
885.802	39.26
885.968	40.27
886.134	40.36
886.3	40.86
886.465	42.88
886.631	41.53
886.797	44.55
886.962	47.78
887.128	48.25
887.293	46.12
887.459	45.58
887.625	40.34
887.79	38.43
887.956	36.82
888.121	35.9
888.287	34.3
888.452	35.18
888.618	30.86
888.783	24.44
