Data from CB_071_Reflection_1.txt Node
Date: Sat Nov 14 11:07:03 EST 2015
User: robert
Spectrometer: USB4E03001
Autoset integration time: false
Trigger mode: 4
Integration Time (sec): 1.000000E-1
Scans to average: 15
Electric dark correction enabled: true
Nonlinearity correction enabled: false
Boxcar width: 5
Stray light correction enabled: false
XAxis mode: Wavelengths
Stop averaging: false
Number of Pixels in Spectrum: 3648
>>>>>Begin Spectral Data<<<<<
177.566	-364.55
177.785	-534.15
178.005	-1689.92
178.225	-346.33
178.445	-247.56
178.665	-455.46
178.885	96.61
179.105	-183.71
179.324	-250.52
179.544	-579.84
179.764	-147.36
179.984	-191.51
180.204	-212.27
180.423	-734.42
180.643	-406.74
180.863	-581.46
181.083	-2648.58
181.302	-13823.02
181.522	1390.12
181.742	1431.32
181.961	1311.72
182.181	223.2
182.401	198.9
182.621	339.04
182.84	1440.4
183.06	-4678.98
183.279	-664.3
183.499	-396.45
183.719	-438.84
183.938	-301.17
184.158	-249.08
184.377	-258.08
184.597	-149.08
184.816	-84.23
185.036	-125.84
185.256	-168.92
185.475	-347.79
185.695	-166.17
185.914	-151.75
186.134	-126.49
186.353	-119.72
186.572	-86.1
186.792	-253.28
187.011	1003.78
187.231	-480.19
187.45	-64.98
187.67	-92.64
187.889	216.33
188.108	205.56
188.328	180.85
188.547	124.29
188.766	102.35
188.986	72.57
189.205	68.32
189.424	68.6
189.644	80.87
189.863	124.35
190.082	151.85
190.302	200.32
190.521	140.38
190.74	126.12
190.959	470.24
191.178	523.57
191.398	392.99
191.617	1026.18
191.836	5408.06
192.055	790.05
192.274	216.45
192.494	227.55
192.713	5682.14
192.932	-718.83
193.151	155275
193.37	200.07
193.589	-6612.39
193.808	-695.78
194.027	-1401.69
194.246	2672.73
194.465	-1990.67
194.685	430.42
194.904	432.96
195.123	290.6
195.342	252.65
195.561	223.01
195.78	647.12
195.999	1158.02
196.218	617.78
196.436	67.25
196.655	37.57
196.874	9.59
197.093	145.56
197.312	203.37
197.531	401.56
197.75	553.7
197.969	1370.65
198.188	352.41
198.407	198.73
198.625	199.24
198.844	307.95
199.063	335.78
199.282	653.08
199.501	-2735.94
199.719	-1165.01
199.938	472.04
200.157	190.38
200.376	-1703.89
200.594	-38.74
200.813	-193.41
201.032	-463.84
201.251	-87.67
201.469	-326.44
201.688	-986.82
201.907	2136.12
202.125	722.43
202.344	2927.05
202.563	15840.58
202.781	763.86
203	262.75
203.218	239.55
203.437	469.24
203.656	326.26
203.874	706.35
204.093	643.6
204.311	411.2
204.53	1143.04
204.748	294.07
204.967	467.6
205.185	345.62
205.404	405.91
205.622	473.06
205.841	225.1
206.059	228.31
206.278	180
206.496	253.53
206.715	354.6
206.933	234.36
207.151	298.95
207.37	179.37
207.588	230.28
207.806	226.87
208.025	317.43
208.243	413.56
208.461	-20136.36
208.68	658.18
208.898	293.93
209.116	155.14
209.335	156.64
209.553	123.2
209.771	121.13
209.989	116.99
210.208	112.91
210.426	115.38
210.644	107.25
210.862	106.17
211.081	111.07
211.299	100.81
211.517	126.13
211.735	94.17
211.953	94.29
212.171	108.53
212.39	107.66
212.608	119.85
212.826	105.12
213.044	131.57
213.262	131.07
213.48	144.67
213.698	216
213.916	114.43
214.134	207.82
214.352	259.98
214.57	159.25
214.788	149.51
215.006	110.55
215.224	166.18
215.442	193.73
215.66	355.88
215.878	-14.32
216.096	-2.32
216.314	65.41
216.532	302.79
216.75	-167
216.968	-303.81
217.185	-2206.19
217.403	964.17
217.621	-58033.33
217.839	-389.16
218.057	-12045.83
218.275	-371.63
218.492	-69.45
218.71	-1996.25
218.928	1340.84
219.146	722.55
219.363	453.11
219.581	434.45
219.799	-2352.02
220.017	252.2
220.234	235.93
220.452	286.68
220.67	466.43
220.887	171.25
221.105	273.68
221.323	152.26
221.54	116.68
221.758	92.14
221.976	100.71
222.193	70.58
222.411	68.85
222.629	64.49
222.846	63.32
223.064	58.41
223.281	70.01
223.499	50.06
223.716	36.7
223.934	19.51
224.151	30.5
224.369	32.09
224.586	39
224.804	54.82
225.021	74.6
225.239	72.18
225.456	73.83
225.674	73
225.891	76.38
226.108	78.49
226.326	76.4
226.543	74.09
226.76	69.6
226.978	64.57
227.195	62.35
227.413	51.2
227.63	49.87
227.847	50.37
228.064	45.65
228.282	42.38
228.499	42.99
228.716	42.98
228.934	42.7
229.151	38.64
229.368	34.09
229.585	31.26
229.802	29.67
230.02	29.83
230.237	26.75
230.454	26.25
230.671	29.81
230.888	30.42
231.105	27.89
231.323	26.19
231.54	31.78
231.757	33.92
231.974	36.57
232.191	42.99
232.408	39.98
232.625	48.61
232.842	46.24
233.059	39.57
233.276	35.55
233.493	39.56
233.71	41.82
233.927	34.83
234.144	33.12
234.361	32.75
234.578	30.15
234.795	27.6
235.012	22.49
235.229	22.58
235.446	26.49
235.663	26.45
235.879	26.87
236.096	34.64
236.313	41.24
236.53	36.38
236.747	33.76
236.964	32.31
237.181	38.97
237.397	41.9
237.614	53
237.831	56.47
238.048	67.83
238.264	66.65
238.481	55.86
238.698	53.83
238.915	54.7
239.131	45.34
239.348	48.53
239.565	47.16
239.781	43.88
239.998	34.26
240.215	28.23
240.431	22.37
240.648	21.67
240.865	22.98
241.081	23.47
241.298	23.24
241.514	27.11
241.731	23.58
241.947	23.38
242.164	22.65
242.38	19.35
242.597	18.98
242.814	17.57
243.03	18.52
243.246	18.11
243.463	17.54
243.679	18.88
243.896	19.85
244.112	20.58
244.329	20.8
244.545	24.09
244.762	26.74
244.978	29.6
245.194	30.34
245.411	30.02
245.627	27.77
245.843	27.67
246.06	23.8
246.276	20.78
246.492	21.45
246.709	19.7
246.925	18.71
247.141	19.06
247.357	18.3
247.574	18.33
247.79	17.95
248.006	17.26
248.222	16.21
248.439	17.16
248.655	17.69
248.871	17.05
249.087	18
249.303	18
249.519	18.02
249.736	18.16
249.952	16.78
250.168	20.41
250.384	22.58
250.6	23.52
250.816	25.6
251.032	26.26
251.248	24.35
251.464	23.19
251.68	22.18
251.896	21.54
252.112	20.86
252.328	22.22
252.544	20.92
252.76	18.72
252.976	17.98
253.192	15.49
253.408	15.3
253.624	15.06
253.84	16.4
254.056	15.58
254.272	14.63
254.487	13.17
254.703	10.18
254.919	6.63
255.135	8.13
255.351	14.53
255.567	13.72
255.782	14.25
255.998	18.6
256.214	18.66
256.43	17.1
256.646	19.73
256.861	21.56
257.077	22.15
257.293	22.79
257.508	24.43
257.724	19.62
257.94	18.75
258.155	16.21
258.371	14.4
258.587	13.05
258.802	14.33
259.018	12.18
259.234	11.21
259.449	11.61
259.665	10.95
259.88	10.59
260.096	10.26
260.312	10.6
260.527	10.92
260.743	11.28
260.958	11.28
261.174	11.85
261.389	13.12
261.605	13.81
261.82	13.32
262.036	12.99
262.251	12.38
262.466	12.5
262.682	12.58
262.897	13.11
263.113	12.26
263.328	10.43
263.543	8.59
263.759	8.25
263.974	6.68
264.189	7.27
264.405	8.63
264.62	10.97
264.835	14.17
265.051	16.28
265.266	15.7
265.481	16.63
265.696	20.93
265.912	19.58
266.127	18.39
266.342	19.49
266.557	19.46
266.773	19.07
266.988	16.98
267.203	16
267.418	14.16
267.633	13.99
267.848	13.68
268.064	10.39
268.279	11.03
268.494	10.46
268.709	10.73
268.924	12.16
269.139	9.68
269.354	10.97
269.569	8.77
269.784	8.63
269.999	7.85
270.214	8.56
270.429	8.37
270.644	8.39
270.859	8.09
271.074	7.63
271.289	7.04
271.504	8.28
271.719	8.56
271.934	10.47
272.149	11.23
272.363	13.39
272.578	12.69
272.793	13.42
273.008	13.54
273.223	14.43
273.438	14.51
273.653	14.56
273.867	14.97
274.082	14.66
274.297	14.5
274.512	15.13
274.726	12.75
274.941	12.67
275.156	14.73
275.371	14.74
275.585	15.38
275.8	15.66
276.015	14.71
276.229	15.64
276.444	15.19
276.659	13.52
276.873	10.96
277.088	11.34
277.302	12.47
277.517	10.99
277.732	10.03
277.946	8.96
278.161	8.95
278.375	9.63
278.59	8.89
278.804	9.69
279.019	10.71
279.233	11.64
279.448	11.88
279.662	9.04
279.877	8.62
280.091	9.11
280.306	9.58
280.52	7.52
280.735	8.77
280.949	10.32
281.163	8.56
281.378	8.13
281.592	8.63
281.806	8.85
282.021	10.58
282.235	12.2
282.449	12.61
282.664	12.95
282.878	14.66
283.092	13.69
283.307	12.38
283.521	13.19
283.735	14.58
283.949	14.78
284.164	14.1
284.378	12.87
284.592	11.96
284.806	11.89
285.02	10.66
285.234	9.42
285.449	9.53
285.663	10.54
285.877	10.14
286.091	9.44
286.305	9.19
286.519	9.98
286.733	10.89
286.947	11.59
287.161	11.7
287.375	11.76
287.589	13.21
287.803	13.44
288.017	12.45
288.231	13.54
288.445	14.3
288.659	14.85
288.873	15.04
289.087	15.49
289.301	15.67
289.515	15.22
289.729	16.04
289.943	16.73
290.157	17.25
290.371	18.75
290.584	18.91
290.798	19.02
291.012	18.61
291.226	16.71
291.44	16.66
291.654	16.1
291.867	16.28
292.081	16.95
292.295	16.21
292.509	15.3
292.722	13.02
292.936	12.28
293.15	12.12
293.364	11.81
293.577	13.61
293.791	14.08
294.005	12.96
294.218	13.92
294.432	13.12
294.645	13.02
294.859	13.49
295.073	14.62
295.286	14.67
295.5	14.11
295.713	14.46
295.927	14.24
296.14	13.12
296.354	12.8
296.568	12.66
296.781	11.91
296.994	12.51
297.208	12.3
297.421	12.41
297.635	12.41
297.848	12.88
298.062	11.84
298.275	12.14
298.489	12.32
298.702	13.78
298.915	12.84
299.129	13.76
299.342	13.11
299.555	14.02
299.769	13.61
299.982	12.98
300.195	11.74
300.409	12.59
300.622	12.9
300.835	12.83
301.048	11.76
301.262	12.47
301.475	13.23
301.688	13.01
301.901	11.92
302.115	10.9
302.328	11.22
302.541	12.44
302.754	13.54
302.967	13.2
303.18	15.19
303.393	15.44
303.607	15.86
303.82	15.8
304.033	16.67
304.246	17.38
304.459	18.07
304.672	18.66
304.885	18.09
305.098	17.14
305.311	16.79
305.524	14.98
305.737	15.23
305.95	15.69
306.163	13.85
306.376	13.35
306.589	12.66
306.802	12.45
307.015	13.12
307.228	13.66
307.44	14.1
307.653	14.1
307.866	14.63
308.079	14.29
308.292	12.98
308.505	14.55
308.718	14.61
308.93	15.99
309.143	16.95
309.356	16.77
309.569	15.82
309.781	15.82
309.994	16.01
310.207	15.85
310.42	15.77
310.632	16.75
310.845	16.23
311.058	16.2
311.27	15.61
311.483	16.33
311.696	15.77
311.908	15.77
312.121	15.57
312.333	16.97
312.546	16.72
312.759	16.58
312.971	15.62
313.184	15.41
313.396	15.86
313.609	15.69
313.821	15.03
314.034	15.25
314.246	15.35
314.459	16
314.671	14.23
314.884	14.86
315.096	15.97
315.309	16.38
315.521	17.76
315.733	16.69
315.946	15.93
316.158	15.57
316.371	15.3
316.583	14.4
316.795	12.93
317.008	14.71
317.22	13.76
317.432	13.08
317.644	13.47
317.857	12.22
318.069	12.53
318.281	13.88
318.494	14.07
318.706	15.24
318.918	16.97
319.13	17.1
319.342	15.14
319.555	15.07
319.767	15.6
319.979	14.73
320.191	14.34
320.403	14.63
320.615	15.4
320.827	15.44
321.039	14.6
321.252	15.96
321.464	18.59
321.676	18.11
321.888	19.07
322.1	18.16
322.312	18.47
322.524	19.62
322.736	19.04
322.948	18.82
323.16	19.12
323.372	20.13
323.584	18.86
323.796	17.67
324.007	17.88
324.219	17.99
324.431	18.55
324.643	20.41
324.855	20.99
325.067	21.57
325.279	19.93
325.491	20.39
325.702	20.94
325.914	20.91
326.126	21.05
326.338	20.11
326.55	19.81
326.761	19.64
326.973	18.91
327.185	18.65
327.396	18.37
327.608	19.97
327.82	19.16
328.032	19.23
328.243	19.38
328.455	20.41
328.666	21.99
328.878	22.88
329.09	23.27
329.301	23.4
329.513	23.41
329.725	23.99
329.936	24.38
330.148	25.25
330.359	24.2
330.571	24.77
330.782	23.39
330.994	23.98
331.205	24.3
331.417	23.84
331.628	24.36
331.84	24.86
332.051	26
332.262	25.21
332.474	23.63
332.685	24.93
332.897	24.89
333.108	26.01
333.319	25.42
333.531	24.58
333.742	25.79
333.953	25.08
334.165	24.06
334.376	23.96
334.587	23.98
334.799	24.58
335.01	23.29
335.221	23.13
335.432	21.97
335.644	23.2
335.855	24.01
336.066	22.94
336.277	23.9
336.488	24.05
336.7	23.44
336.911	24.56
337.122	25.87
337.333	25.86
337.544	26.21
337.755	26.66
337.966	25.87
338.177	25.12
338.388	25.4
338.599	24.11
338.811	23.93
339.022	23.81
339.233	22.72
339.444	20.97
339.655	20.41
339.866	19.81
340.076	20.25
340.287	19.77
340.498	20.31
340.709	19.66
340.92	20.48
341.131	20.85
341.342	20.86
341.553	20.54
341.764	22.35
341.975	23.14
342.185	23.69
342.396	23.78
342.607	24.11
342.818	24.02
343.029	24.46
343.239	23.76
343.45	22.91
343.661	22.94
343.872	23.12
344.082	21.33
344.293	21.43
344.504	21.19
344.714	20.89
344.925	20.81
345.136	20.27
345.346	18.58
345.557	18.59
345.768	18.67
345.978	19.07
346.189	18.96
346.399	18.55
346.61	18.2
346.821	18.53
347.031	18.71
347.242	18.19
347.452	18.08
347.663	20.14
347.873	20.91
348.084	21.08
348.294	20.63
348.504	21.03
348.715	22.6
348.925	22.51
349.136	21.15
349.346	20.45
349.557	21.3
349.767	22.56
349.977	23.05
350.188	22.98
350.398	23.95
350.608	24.18
350.819	24.15
351.029	23.21
351.239	24.56
351.449	25.21
351.66	25.51
351.87	25.33
352.08	24.42
352.29	23.94
352.501	23.74
352.711	23.39
352.921	22.65
353.131	22.34
353.341	22.33
353.552	21.09
353.762	20.44
353.972	20.36
354.182	20.67
354.392	20.38
354.602	20.53
354.812	20.63
355.022	20.22
355.232	21.07
355.442	21.28
355.652	21.92
355.862	21.72
356.072	21.96
356.282	21.31
356.492	21.2
356.702	21.66
356.912	20.98
357.122	21.36
357.332	21.44
357.542	20.33
357.752	19.71
357.962	19.4
358.171	19.31
358.381	19.45
358.591	19.17
358.801	19.15
359.011	18.86
359.221	19.36
359.43	18.65
359.64	17.92
359.85	18.47
360.06	18.65
360.269	18.38
360.479	19.04
360.689	19.31
360.899	20.3
361.108	20.27
361.318	19.91
361.528	20.02
361.737	20.12
361.947	20.48
362.156	20.37
362.366	20.22
362.576	20.59
362.785	20.13
362.995	19.74
363.204	19.35
363.414	19.09
363.623	19.36
363.833	19.28
364.042	19.38
364.252	19.51
364.461	19.74
364.671	19.99
364.88	19.59
365.09	20.09
365.299	20.64
365.509	21.08
365.718	20.62
365.927	20.74
366.137	20.21
366.346	20.47
366.555	19.88
366.765	19.45
366.974	19.51
367.183	18.8
367.393	18
367.602	17.69
367.811	17.52
368.021	18.02
368.23	18.04
368.439	18.02
368.648	17.11
368.857	17.4
369.067	17.42
369.276	17.24
369.485	18.08
369.694	18.98
369.903	18.66
370.112	18
370.321	17.83
370.531	17.29
370.74	17.3
370.949	17.16
371.158	16.85
371.367	16.94
371.576	16.3
371.785	15.92
371.994	15.36
372.203	14.9
372.412	14.95
372.621	14.75
372.83	14.96
373.039	14.76
373.248	14.13
373.457	14.39
373.666	13.65
373.874	14.27
374.083	14.59
374.292	14.6
374.501	15.09
374.71	15.23
374.919	14.96
375.128	14.64
375.336	14.87
375.545	15.7
375.754	15.86
375.963	16.24
376.171	15.61
376.38	15.2
376.589	14.54
376.798	13.83
377.006	13.58
377.215	13.62
377.424	13.89
377.632	13.36
377.841	13.72
378.05	13.52
378.258	13.48
378.467	13.54
378.675	13.52
378.884	13.97
379.093	14.22
379.301	14.48
379.51	14.7
379.718	14.4
379.927	14.81
380.135	13.99
380.344	13.62
380.552	14.01
380.761	14.22
380.969	14.02
381.177	13.6
381.386	14.69
381.594	14.47
381.803	13.85
382.011	13.8
382.219	13.74
382.428	13.81
382.636	14.11
382.845	13.06
383.053	13.03
383.261	13.11
383.469	13.36
383.678	12.43
383.886	12.33
384.094	12.64
384.302	12.83
384.511	12.57
384.719	12.69
384.927	12.39
385.135	12.99
385.343	12.69
385.552	12.82
385.76	12.71
385.968	12.5
386.176	12.45
386.384	12.23
386.592	11.81
386.8	12.02
387.008	12.05
387.216	12.05
387.424	12.08
387.633	12.23
387.841	12.06
388.049	12.12
388.257	12.27
388.465	12.06
388.672	12.16
388.88	12.45
389.088	11.86
389.296	11.35
389.504	10.97
389.712	10.88
389.92	10.76
390.128	10.91
390.336	10.47
390.544	10.28
390.751	10.31
390.959	10.15
391.167	9.71
391.375	10.14
391.583	10.31
391.79	10.41
391.998	10.32
392.206	10.48
392.414	9.92
392.621	10.21
392.829	10.03
393.037	9.81
393.244	9.8
393.452	10.1
393.66	9.72
393.867	9.79
394.075	9.83
394.283	9.64
394.49	9.12
394.698	9.35
394.905	9.08
395.113	9.3
395.32	9.47
395.528	9.23
395.735	9.06
395.943	9.23
396.15	8.97
396.358	8.9
396.565	8.82
396.773	9.06
396.98	9.12
397.188	8.81
397.395	8.82
397.602	8.98
397.81	9.2
398.017	9.07
398.225	9.19
398.432	9.14
398.639	9.06
398.847	9.05
399.054	8.86
399.261	8.72
399.468	8.74
399.676	8.91
399.883	8.27
400.09	8.51
400.297	8.54
400.505	8.08
400.712	8.29
400.919	8.52
401.126	8.49
401.333	8.31
401.54	8.36
401.748	8.41
401.955	7.88
402.162	8.18
402.369	7.72
402.576	7.49
402.783	7.36
402.99	7.23
403.197	6.74
403.404	6.51
403.611	6.77
403.818	6.92
404.025	7.08
404.232	7.27
404.439	7.17
404.646	7.18
404.853	7.38
405.06	7.39
405.267	7.61
405.474	7.98
405.681	8.51
405.887	8.32
406.094	8.21
406.301	8
406.508	8.26
406.715	8.5
406.922	8.63
407.128	9
407.335	9.14
407.542	8.9
407.749	8.92
407.955	8.69
408.162	8.66
408.369	8.32
408.575	8.58
408.782	8.29
408.989	7.93
409.195	7.7
409.402	7.46
409.609	7.2
409.815	7.07
410.022	6.83
410.228	6.7
410.435	7.09
410.642	7.54
410.848	7.5
411.055	7.31
411.261	7.41
411.468	8.04
411.674	7.85
411.881	7.96
412.087	8.09
412.294	8.4
412.5	8.47
412.706	8.16
412.913	7.85
413.119	7.67
413.326	7.65
413.532	7.61
413.738	7
413.945	6.73
414.151	7.24
414.357	7.32
414.564	7.09
414.77	7.11
414.976	7.24
415.182	7.51
415.389	7.24
415.595	7
415.801	7.15
416.007	7.47
416.214	7.45
416.42	7.25
416.626	6.92
416.832	6.92
417.038	6.76
417.244	6.72
417.45	6.48
417.657	6.74
417.863	6.74
418.069	6.71
418.275	6.58
418.481	6.65
418.687	6.63
418.893	6.77
419.099	6.85
419.305	6.91
419.511	6.84
419.717	6.8
419.923	6.82
420.129	6.9
420.335	6.87
420.541	6.82
420.746	6.78
420.952	6.87
421.158	6.85
421.364	6.6
421.57	6.56
421.776	6.49
421.982	6.56
422.187	6.46
422.393	6.41
422.599	6.36
422.805	6.37
423.01	6.48
423.216	6.41
423.422	6.48
423.628	6.6
423.833	6.51
424.039	6.52
424.245	6.56
424.45	6.64
424.656	6.73
424.862	6.61
425.067	6.48
425.273	6.49
425.478	6.38
425.684	6.18
425.889	6.3
426.095	6.38
426.301	6.34
426.506	6.19
426.712	6.23
426.917	6.37
427.123	6.51
427.328	6.48
427.533	6.37
427.739	6.45
427.944	6.62
428.15	6.26
428.355	6.15
428.561	6.33
428.766	6.39
428.971	6.11
429.177	5.83
429.382	5.8
429.587	5.97
429.793	5.88
429.998	5.87
430.203	5.66
430.408	6.03
430.614	5.98
430.819	5.81
431.024	5.68
431.229	5.89
431.434	5.92
431.64	5.87
431.845	5.99
432.05	6.12
432.255	5.95
432.46	6.15
432.665	5.94
432.87	6.1
433.076	6.18
433.281	6.26
433.486	6.22
433.691	6.11
433.896	6.15
434.101	6.04
434.306	6.07
434.511	6.03
434.716	5.93
434.921	6.06
435.126	6.13
435.331	6.11
435.535	6.05
435.74	5.96
435.945	6.04
436.15	6.04
436.355	6.05
436.56	6.06
436.765	6.21
436.97	6.17
437.174	6.08
437.379	5.93
437.584	5.95
437.789	6.1
437.993	6.09
438.198	6.09
438.403	6.16
438.608	6.23
438.812	6.06
439.017	5.95
439.222	5.84
439.426	5.82
439.631	5.75
439.836	5.87
440.04	5.91
440.245	5.89
440.45	5.88
440.654	5.72
440.859	5.57
441.063	5.66
441.268	5.72
441.472	5.75
441.677	5.67
441.881	5.72
442.086	5.62
442.29	5.39
442.495	5.45
442.699	5.49
442.904	5.51
443.108	5.56
443.312	5.53
443.517	5.52
443.721	5.48
443.925	5.62
444.13	5.54
444.334	5.35
444.538	5.61
444.743	5.58
444.947	5.65
445.151	5.81
445.356	5.81
445.56	5.85
445.764	5.76
445.968	5.86
446.173	5.88
446.377	6
446.581	6.09
446.785	5.87
446.989	5.82
447.193	5.77
447.398	5.61
447.602	5.53
447.806	5.46
448.01	5.59
448.214	5.62
448.418	5.44
448.622	5.45
448.826	5.46
449.03	5.57
449.234	5.66
449.438	5.77
449.642	5.77
449.846	5.85
450.05	5.99
450.254	5.88
450.458	5.78
450.662	6.03
450.866	5.84
451.069	5.62
451.273	5.69
451.477	5.77
451.681	5.6
451.885	5.59
452.089	5.71
452.292	5.45
452.496	5.55
452.7	5.61
452.904	5.58
453.107	5.67
453.311	5.68
453.515	5.7
453.719	5.52
453.922	5.57
454.126	5.67
454.33	5.47
454.533	5.52
454.737	5.47
454.94	5.36
455.144	5.53
455.348	5.53
455.551	5.76
455.755	5.67
455.958	5.76
456.162	5.75
456.365	5.69
456.569	5.65
456.772	5.52
456.976	5.6
457.179	5.66
457.383	5.48
457.586	5.46
457.79	5.44
457.993	5.52
458.196	5.47
458.4	5.44
458.603	5.5
458.807	5.49
459.01	5.75
459.213	5.83
459.417	5.99
459.62	5.85
459.823	5.89
460.026	5.79
460.23	5.6
460.433	5.56
460.636	5.64
460.839	5.62
461.042	5.71
461.246	5.69
461.449	5.68
461.652	5.54
461.855	5.71
462.058	5.63
462.261	5.77
462.464	5.91
462.668	6.07
462.871	6.03
463.074	5.94
463.277	5.93
463.48	5.86
463.683	5.86
463.886	5.78
464.089	5.65
464.292	5.59
464.495	5.56
464.698	5.72
464.901	5.64
465.104	5.51
465.306	5.5
465.509	5.61
465.712	5.72
465.915	5.76
466.118	5.61
466.321	5.63
466.524	5.64
466.726	5.63
466.929	5.53
467.132	5.65
467.335	5.77
467.538	5.76
467.74	5.52
467.943	5.26
468.146	5.05
468.348	5.05
468.551	5.09
468.754	5.26
468.956	5.31
469.159	5.17
469.362	5.24
469.564	5.17
469.767	5.34
469.969	5.53
470.172	5.73
470.375	5.85
470.577	6.05
470.78	5.99
470.982	5.84
471.185	5.81
471.387	5.99
471.59	5.79
471.792	5.78
471.995	5.95
472.197	5.89
472.399	5.87
472.602	5.8
472.804	5.71
473.007	5.79
473.209	5.89
473.411	6.02
473.614	6.1
473.816	6.23
474.018	6.38
474.22	6.39
474.423	6.43
474.625	6.34
474.827	6.37
475.03	6.55
475.232	6.49
475.434	6.51
475.636	6.37
475.838	6.28
476.04	6.15
476.243	6.23
476.445	6.09
476.647	6.15
476.849	6.21
477.051	6.16
477.253	6.33
477.455	6.24
477.657	6.11
477.859	6.06
478.061	5.94
478.263	5.85
478.465	5.57
478.667	5.48
478.869	5.46
479.071	5.4
479.273	5.32
479.475	5.14
479.677	5.19
479.879	5.17
480.081	5.07
480.283	5.13
480.485	5.09
480.686	5.31
480.888	5.36
481.09	5.25
481.292	5.19
481.494	5.3
481.695	5.16
481.897	5.14
482.099	5.21
482.301	5.31
482.502	5.29
482.704	5.36
482.906	5.15
483.107	5.12
483.309	5.1
483.511	5.12
483.712	5.11
483.914	5.14
484.115	5.12
484.317	5.13
484.519	5.07
484.72	5.05
484.922	5.05
485.123	5.07
485.325	5.05
485.526	5.07
485.728	5.07
485.929	5.03
486.131	5.01
486.332	5.05
486.534	5.03
486.735	5.04
486.936	5.09
487.138	5.07
487.339	5.1
487.541	5.13
487.742	5.11
487.943	5.09
488.144	5.05
488.346	5.04
488.547	5.01
488.748	4.96
488.95	4.98
489.151	4.97
489.352	5.01
489.553	4.99
489.755	5.05
489.956	5.05
490.157	5.06
490.358	5.11
490.559	5.08
490.76	5.12
490.961	5.08
491.163	5.13
491.364	5.16
491.565	5.15
491.766	5.23
491.967	5.22
492.168	5.18
492.369	5.21
492.57	5.21
492.771	5.36
492.972	5.29
493.173	5.36
493.374	5.44
493.575	5.44
493.776	5.36
493.976	5.37
494.177	5.38
494.378	5.41
494.579	5.53
494.78	5.61
494.981	5.61
495.182	5.87
495.382	5.96
495.583	5.89
495.784	5.85
495.985	6.02
496.185	5.88
496.386	5.81
496.587	5.94
496.788	5.88
496.988	5.69
497.189	5.68
497.39	5.58
497.59	5.71
497.791	5.56
497.992	5.54
498.192	5.55
498.393	5.76
498.593	5.76
498.794	5.77
498.994	5.81
499.195	5.98
499.395	5.93
499.596	6.01
499.796	5.71
499.997	5.92
500.197	5.97
500.398	5.99
500.598	5.68
500.799	5.84
500.999	5.87
501.199	5.82
501.4	5.89
501.6	5.93
501.801	5.86
502.001	6.24
502.201	6.09
502.402	6.19
502.602	5.98
502.802	6.22
503.002	6.15
503.203	6.3
503.403	6.3
503.603	6.41
503.803	6.34
504.003	6.59
504.204	6.45
504.404	6.82
504.604	6.87
504.804	7.49
505.004	7.33
505.204	7.4
505.404	7.26
505.604	7.33
505.804	7.28
506.005	7.39
506.205	7.1
506.405	7.1
506.605	6.88
506.805	6.89
507.005	6.41
507.204	6.46
507.404	6.34
507.604	6.49
507.804	6.56
508.004	6.57
508.204	6.41
508.404	6.49
508.604	6.43
508.804	6.45
509.003	6.55
509.203	6.72
509.403	6.88
509.603	6.98
509.803	6.89
510.002	7.05
510.202	7.08
510.402	7.4
510.602	7.45
510.801	7.59
511.001	7.6
511.201	7.31
511.4	7.18
511.6	7.12
511.8	7.16
511.999	7.27
512.199	7.01
512.398	6.98
512.598	6.97
512.797	7.18
512.997	7.21
513.197	7.38
513.396	7.78
513.596	7.93
513.795	8.11
513.994	8.3
514.194	8.38
514.393	8.57
514.593	8.69
514.792	8.73
514.992	8.67
515.191	8.75
515.39	8.72
515.59	8.64
515.789	8.64
515.988	8.69
516.188	8.62
516.387	8.73
516.586	8.98
516.786	9.07
516.985	9.08
517.184	9.16
517.383	9.23
517.582	9.36
517.782	9.4
517.981	9.55
518.18	9.55
518.379	9.69
518.578	9.66
518.777	9.51
518.976	9.57
519.176	9.68
519.375	9.61
519.574	9.72
519.773	9.73
519.972	9.82
520.171	9.86
520.37	9.98
520.569	10.03
520.768	10.22
520.967	10.36
521.166	10.43
521.365	10.44
521.564	10.74
521.762	10.76
521.961	10.82
522.16	10.87
522.359	10.96
522.558	11.02
522.757	11.08
522.956	10.95
523.154	10.99
523.353	11.16
523.552	11.19
523.751	11.12
523.949	11.23
524.148	11.29
524.347	11.39
524.546	11.56
524.744	11.77
524.943	11.81
525.142	11.97
525.34	12.11
525.539	12.14
525.737	12.35
525.936	12.41
526.135	12.5
526.333	12.53
526.532	12.58
526.73	12.52
526.929	12.53
527.127	12.64
527.326	12.68
527.524	12.77
527.723	12.95
527.921	12.99
528.12	13.04
528.318	13.08
528.516	13.24
528.715	13.28
528.913	13.33
529.112	13.41
529.31	13.45
529.508	13.53
529.707	13.59
529.905	13.61
530.103	13.62
530.301	13.66
530.5	13.78
530.698	13.77
530.896	13.93
531.094	14.13
531.293	14.16
531.491	14.32
531.689	14.35
531.887	14.45
532.085	14.44
532.283	14.5
532.481	14.7
532.68	14.76
532.878	14.87
533.076	14.91
533.274	14.86
533.472	14.94
533.67	14.96
533.868	15.01
534.066	15.07
534.264	15.18
534.462	15.21
534.66	15.24
534.858	15.29
535.056	15.41
535.253	15.44
535.451	15.53
535.649	15.55
535.847	15.62
536.045	15.8
536.243	15.99
536.441	16.07
536.638	16.23
536.836	16.31
537.034	16.4
537.232	16.32
537.43	16.34
537.627	16.35
537.825	16.56
538.023	16.56
538.22	16.69
538.418	16.66
538.616	16.71
538.813	16.77
539.011	16.88
539.209	17
539.406	17.2
539.604	17.5
539.801	17.77
539.999	17.77
540.196	17.84
540.394	17.85
540.591	17.86
540.789	17.87
540.986	17.89
541.184	17.96
541.381	17.96
541.579	17.97
541.776	17.96
541.974	18.01
542.171	18.12
542.368	18.15
542.566	18.15
542.763	18.17
542.96	18.22
543.158	18.42
543.355	18.47
543.552	18.59
543.75	18.77
543.947	18.86
544.144	18.94
544.341	18.89
544.539	19.01
544.736	19.16
544.933	19.32
545.13	19.51
545.327	19.43
545.524	19.4
545.722	19.4
545.919	19.29
546.116	19.28
546.313	19.32
546.51	19.5
546.707	19.54
546.904	19.54
547.101	19.56
547.298	19.61
547.495	19.69
547.692	19.78
547.889	19.68
548.086	20
548.283	20.2
548.48	20.14
548.677	20.16
548.874	20.34
549.07	20.56
549.267	20.69
549.464	20.68
549.661	20.91
549.858	21.16
550.055	21.5
550.251	21.49
550.448	21.39
550.645	21.48
550.842	21.46
551.038	21.32
551.235	21.31
551.432	21.39
551.628	21.51
551.825	21.61
552.022	21.48
552.218	21.32
552.415	21.32
552.612	21.61
552.808	21.87
553.005	21.89
553.201	22.04
553.398	22.19
553.594	22.36
553.791	22.53
553.987	22.32
554.184	22.46
554.38	22.65
554.577	22.73
554.773	22.72
554.97	22.53
555.166	22.88
555.362	23.04
555.559	23.17
555.755	23.35
555.952	23.36
556.148	23.81
556.344	23.95
556.541	23.99
556.737	24.08
556.933	24.14
557.129	24.3
557.326	24.29
557.522	24.31
557.718	24.37
557.914	24.31
558.11	24.36
558.307	24.09
558.503	24.01
558.699	24.23
558.895	24.44
559.091	24.54
559.287	24.86
559.483	24.92
559.679	25.08
559.876	24.86
560.072	24.88
560.268	24.93
560.464	25.09
560.66	25.19
560.856	25.38
561.052	25.39
561.247	25.26
561.443	25.04
561.639	25.13
561.835	25.28
562.031	25.51
562.227	25.61
562.423	25.68
562.619	25.76
562.815	25.99
563.01	26.24
563.206	26.33
563.402	26.35
563.598	26.67
563.793	26.79
563.989	26.7
564.185	26.78
564.381	26.66
564.576	26.78
564.772	26.8
564.968	26.91
565.163	26.61
565.359	26.49
565.555	26.7
565.75	26.58
565.946	26.49
566.141	26.6
566.337	26.63
566.532	26.88
566.728	26.82
566.923	26.66
567.119	26.68
567.314	26.67
567.51	26.77
567.705	26.72
567.901	26.84
568.096	26.89
568.292	27.1
568.487	27.27
568.682	27.06
568.878	27.17
569.073	27.5
569.268	27.43
569.464	27.68
569.659	27.79
569.854	28.05
570.05	27.87
570.245	27.99
570.44	27.79
570.635	27.7
570.831	27.75
571.026	27.77
571.221	28.01
571.416	28.04
571.611	28.05
571.806	28.01
572.002	28.03
572.197	28.11
572.392	28.13
572.587	28.11
572.782	28.11
572.977	28.33
573.172	28.44
573.367	28.17
573.562	28.27
573.757	28.24
573.952	28.2
574.147	28.08
574.342	28.24
574.537	28.23
574.732	28.25
574.927	28.54
575.121	28.52
575.316	28.43
575.511	28.55
575.706	28.59
575.901	28.5
576.096	28.7
576.29	28.82
576.485	28.73
576.68	28.71
576.875	28.77
577.069	28.52
577.264	28.67
577.459	28.69
577.654	28.89
577.848	28.71
578.043	28.93
578.238	29.14
578.432	29.12
578.627	29.36
578.821	29.7
579.016	29.81
579.21	30.04
579.405	30.14
579.6	30.23
579.794	30.06
579.989	30.24
580.183	30.66
580.378	30.43
580.572	30.83
580.766	30.83
580.961	30.56
581.155	30.5
581.35	30.54
581.544	30.2
581.738	30.79
581.933	30.86
582.127	30.95
582.321	30.7
582.516	30.76
582.71	30.48
582.904	30.52
583.099	30.65
583.293	30.7
583.487	30.65
583.681	30.92
583.875	30.47
584.07	30.34
584.264	30.48
584.458	30.24
584.652	30.27
584.846	30.6
585.04	30.59
585.234	30.78
585.428	30.99
585.623	31.06
585.817	31.16
586.011	31.29
586.205	31.5
586.399	31.68
586.593	31.99
586.787	32.28
586.981	31.94
587.174	32.2
587.368	32.09
587.562	32.29
587.756	32.25
587.95	32.29
588.144	32.26
588.338	32.45
588.532	32.31
588.725	32.39
588.919	32.27
589.113	32.39
589.307	32.42
589.501	32.26
589.694	32.33
589.888	32.46
590.082	32.35
590.275	32.38
590.469	32.46
590.663	32.64
590.856	32.53
591.05	32.53
591.244	32.35
591.437	32.35
591.631	32.74
591.824	32.43
592.018	32.25
592.212	32.38
592.405	32.47
592.599	32.44
592.792	32.34
592.986	32.27
593.179	32.02
593.372	32.31
593.566	32.03
593.759	32.12
593.953	32.27
594.146	32.5
594.339	32.63
594.533	32.66
594.726	32.5
594.92	32.38
595.113	32.47
595.306	32.79
595.499	32.81
595.693	33.08
595.886	33.13
596.079	33.17
596.272	33.12
596.466	32.71
596.659	32.64
596.852	32.91
597.045	33.02
597.238	33.02
597.431	32.81
597.624	32.79
597.818	32.72
598.011	32.67
598.204	32.69
598.397	32.81
598.59	33.2
598.783	33.35
598.976	33.41
599.169	33.24
599.362	33.37
599.555	33.66
599.748	33.68
599.941	33.53
600.134	33.68
600.326	33.41
600.519	33.44
600.712	33.62
600.905	33.43
601.098	33.34
601.291	33.72
601.483	33.73
601.676	33.67
601.869	33.78
602.062	34.06
602.255	34
602.447	34.08
602.64	33.97
602.833	33.64
603.025	33.82
603.218	33.71
603.411	33.71
603.603	33.64
603.796	33.73
603.989	33.5
604.181	33.56
604.374	33.47
604.566	33.72
604.759	33.7
604.951	33.8
605.144	33.68
605.336	33.87
605.529	33.73
605.721	33.85
605.914	33.93
606.106	34.24
606.299	34.1
606.491	34.19
606.683	34.08
606.876	34.11
607.068	34.02
607.26	34.14
607.453	33.96
607.645	33.99
607.837	33.97
608.03	33.92
608.222	33.63
608.414	33.91
608.606	33.8
608.799	34.02
608.991	34.02
609.183	34.27
609.375	34.34
609.567	34.34
609.759	34.45
609.952	34.45
610.144	34.23
610.336	34.41
610.528	34.22
610.72	34.38
610.912	34.38
611.104	34.47
611.296	34.47
611.488	34.54
611.68	34.72
611.872	34.79
612.064	35.02
612.256	35.32
612.448	35.37
612.64	35.47
612.832	35.81
613.023	35.59
613.215	35.63
613.407	35.33
613.599	35.02
613.791	35.05
613.983	35.06
614.174	34.64
614.366	34.51
614.558	34.66
614.75	34.8
614.941	34.46
615.133	34.5
615.325	34.62
615.516	35.02
615.708	35.13
615.9	35.01
616.091	34.89
616.283	35.17
616.475	35.09
616.666	34.79
616.858	34.88
617.049	34.64
617.241	34.62
617.432	34.3
617.624	34.31
617.815	34.21
618.007	34.07
618.198	34.21
618.39	34.47
618.581	34.61
618.773	34.65
618.964	34.61
619.155	34.71
619.347	34.7
619.538	35.21
619.729	35.2
619.921	35.45
620.112	35.62
620.303	35.49
620.494	35.32
620.686	35.34
620.877	35.59
621.068	35.32
621.259	35.37
621.451	35.54
621.642	35.16
621.833	35.18
622.024	35.24
622.215	35.28
622.406	35.49
622.597	35.3
622.788	35.24
622.98	35.06
623.171	35.15
623.362	35.29
623.553	35.5
623.744	35.66
623.935	35.45
624.126	35.64
624.317	35.49
624.508	35.36
624.698	35.66
624.889	35.72
625.08	36.07
625.271	36.26
625.462	36.07
625.653	35.61
625.844	35.55
626.034	35.72
626.225	35.56
626.416	35.58
626.607	35.77
626.798	35.58
626.988	35.6
627.179	35.56
627.37	35.4
627.56	35.6
627.751	36.05
627.942	36.19
628.132	36.2
628.323	36.3
628.514	36.55
628.704	36.61
628.895	36.54
629.085	36.36
629.276	36.37
629.466	36.68
629.657	36.45
629.847	36.27
630.038	36.5
630.228	36.46
630.419	36.72
630.609	36.6
630.8	36.35
630.99	36.72
631.181	37.33
631.371	36.98
631.561	36.35
631.752	36.47
631.942	36.53
632.132	36.11
632.323	36.24
632.513	35.77
632.703	35.63
632.893	35.81
633.084	35.71
633.274	35.49
633.464	35.48
633.654	36.17
633.844	36.14
634.034	36.3
634.225	36.35
634.415	36.47
634.605	36.5
634.795	36.63
634.985	36.8
635.175	36.88
635.365	37.28
635.555	37.55
635.745	37.09
635.935	37.47
636.125	37.05
636.315	37.04
636.505	37.01
636.695	37.25
636.885	37.05
637.075	37.26
637.265	37.19
637.455	36.98
637.644	36.93
637.834	37.11
638.024	36.71
638.214	36.9
638.404	36.86
638.593	36.59
638.783	36.44
638.973	36.73
639.163	36.32
639.352	35.91
639.542	35.79
639.732	36.02
639.921	36.1
640.111	36.78
640.301	36.58
640.49	37.11
640.68	37.36
640.87	37.46
641.059	37.42
641.249	37.71
641.438	37.96
641.628	38.1
641.817	38.32
642.007	38.38
642.196	37.88
642.386	38.04
642.575	38.09
642.764	38.2
642.954	38.04
643.143	38.1
643.333	37.86
643.522	37.8
643.711	37.59
643.901	37.52
644.09	37.18
644.279	37.5
644.469	37.59
644.658	37.4
644.847	37.27
645.036	37.61
645.226	37.63
645.415	37.71
645.604	37.98
645.793	37.96
645.982	37.38
646.171	37.8
646.361	37.56
646.55	38.13
646.739	37.84
646.928	37.65
647.117	37.45
647.306	37.53
647.495	37.2
647.684	37.05
647.873	37.36
648.062	38.09
648.251	38.13
648.44	37.8
648.629	37.06
648.818	37.26
649.007	37.36
649.196	37.8
649.384	37.4
649.573	37.58
649.762	37.72
649.951	37.35
650.14	37.41
650.328	37.26
650.517	37.57
650.706	38
650.895	37.91
651.083	38.53
651.272	38.23
651.461	38.75
651.65	38.89
651.838	38.88
652.027	39.04
652.216	38.44
652.404	38.43
652.593	38.7
652.781	38.32
652.97	38.39
653.158	37.81
653.347	37.86
653.535	37.52
653.724	37.44
653.912	37.97
654.101	38.01
654.289	38.69
654.478	38.89
654.666	38.48
654.855	38.85
655.043	38.85
655.231	38.78
655.42	38.89
655.608	39.56
655.796	39.73
655.985	39.31
656.173	38.81
656.361	38
656.55	37.55
656.738	37.78
656.926	37.55
657.114	37.35
657.302	37.59
657.491	37.51
657.679	37.33
657.867	37.18
658.055	37.34
658.243	38.13
658.431	38.19
658.619	38.58
658.807	38.75
658.996	38.8
659.184	39.07
659.372	38.92
659.56	38.95
659.748	38.65
659.936	38.86
660.124	38.56
660.311	38.32
660.499	38.61
660.687	38.1
660.875	38
661.063	38.12
661.251	37.86
661.439	37.91
661.627	37.87
661.814	38.06
662.002	37.59
662.19	37.88
662.378	37.59
662.565	37.59
662.753	37.99
662.941	38.3
663.129	38.15
663.316	38.47
663.504	38.66
663.692	38.71
663.879	38.43
664.067	38.55
664.254	37.86
664.442	37.57
664.63	37.42
664.817	37.92
665.005	37.41
665.192	38.42
665.38	38.49
665.567	38.63
665.755	38.8
665.942	39.08
666.13	39.47
666.317	40.34
666.504	40.96
666.692	41.39
666.879	41.25
667.067	41.55
667.254	40.99
667.441	40.63
667.629	40.64
667.816	40.41
668.003	40.35
668.19	40.58
668.378	40.24
668.565	40.69
668.752	40.1
668.939	40.07
669.127	40
669.314	39.56
669.501	40.29
669.688	40.27
669.875	40.5
670.062	40.54
670.249	40.62
670.436	41.16
670.623	40.78
670.81	41.24
670.997	41.48
671.184	41.43
671.371	41.75
671.558	40.84
671.745	40.5
671.932	40.04
672.119	39.84
672.306	39.56
672.493	39.13
672.68	39.2
672.867	39.62
673.054	39.09
673.24	39.2
673.427	39.16
673.614	39.92
673.801	40.37
673.988	40.84
674.174	41.24
674.361	40.98
674.548	40.82
674.734	40.92
674.921	40.09
675.108	40.61
675.294	40.44
675.481	40.43
675.668	40.14
675.854	39.89
676.041	39.79
676.227	39.73
676.414	39.99
676.601	40.4
676.787	40.08
676.974	40.11
677.16	39.82
677.347	40.02
677.533	40.29
677.719	40.44
677.906	40.47
678.092	40.81
678.279	40.82
678.465	40.66
678.651	40.55
678.838	40.29
679.024	40.53
679.21	40.04
679.397	39.86
679.583	39.61
679.769	39.25
679.955	39.27
680.142	39.21
680.328	39.57
680.514	39.72
680.7	39.51
680.886	39.99
681.073	40.26
681.259	41.21
681.445	41.48
681.631	41.16
681.817	41.36
682.003	41.64
682.189	41.39
682.375	41.13
682.561	41.14
682.747	40.82
682.933	40.56
683.119	39.86
683.305	39.53
683.491	39.43
683.677	40.17
683.863	40.22
684.049	39.78
684.235	40.13
684.42	39.92
684.606	39.76
684.792	40.52
684.978	41.01
685.164	41.04
685.349	41.16
685.535	40.95
685.721	40.33
685.907	40.27
686.092	40.51
686.278	40.13
686.464	40.47
686.649	40.84
686.835	40.6
687.021	40.5
687.206	40.85
687.392	40.93
687.577	40.95
687.763	41.32
687.948	41.86
688.134	41.6
688.319	41.6
688.505	41.32
688.69	40.99
688.876	41.02
689.061	40.73
689.247	41
689.432	40.88
689.618	41.05
689.803	41.23
689.988	40.9
690.174	41.45
690.359	41.39
690.544	41.41
690.73	41.5
690.915	41.72
691.1	41.62
691.285	41.69
691.471	41.24
691.656	41.02
691.841	40.73
692.026	40.46
692.211	40.09
692.396	40.11
692.582	40.54
692.767	40.39
692.952	40.03
693.137	40.19
693.322	39.65
693.507	39.89
693.692	40.01
693.877	40.23
694.062	40.48
694.247	41.02
694.432	41.16
694.617	40.78
694.802	41.13
694.987	41.47
695.172	41.56
695.357	41.86
695.541	41.69
695.726	41.94
695.911	41.99
696.096	42.05
696.281	41.44
696.466	41.45
696.65	41.43
696.835	41.28
697.02	40.7
697.204	40.99
697.389	40.51
697.574	40.94
697.759	40.96
697.943	40.68
698.128	40.97
698.312	41.29
698.497	41.15
698.682	41.04
698.866	41.19
699.051	41.52
699.235	41.2
699.42	41.7
699.604	41.55
699.789	41.62
699.973	41.61
700.158	41.37
700.342	40.99
700.527	41.26
700.711	41.48
700.895	41.66
701.08	41.33
701.264	41.5
701.448	41.01
701.633	41.11
701.817	40.94
702.001	41.39
702.186	41.33
702.37	41.09
702.554	41.42
702.738	41.42
702.923	41.26
703.107	41.44
703.291	41.31
703.475	42.41
703.659	42.12
703.843	41.82
704.027	41.56
704.212	40.89
704.396	42.52
704.58	41.99
704.764	42.15
704.948	41.58
705.132	41.96
705.316	42.68
705.5	42.58
705.684	42.23
705.868	42.62
706.052	42.7
706.235	43.69
706.419	42.42
706.603	42.73
706.787	42.1
706.971	42.64
707.155	42.34
707.339	41.22
707.522	40.87
707.706	40.91
707.89	40.99
708.074	41.13
708.257	40.49
708.441	41.59
708.625	41.59
708.808	42.53
708.992	42.94
709.176	43.07
709.359	43.91
709.543	44.09
709.727	44.74
709.91	44.52
710.094	44.44
710.277	45.25
710.461	44.35
710.644	44.42
710.828	43.95
711.011	43.23
711.195	43.53
711.378	43.27
711.562	42.5
711.745	42.31
711.928	42.29
712.112	42.14
712.295	42.1
712.478	42.26
712.662	42.26
712.845	42.52
713.028	42.36
713.212	42.43
713.395	42.45
713.578	42.86
713.761	42.86
713.945	43.5
714.128	43.56
714.311	42.84
714.494	42.37
714.677	42.13
714.86	41.9
715.043	42.29
715.227	41.88
715.41	41.48
715.593	41.55
715.776	41.52
715.959	41.15
716.142	41.27
716.325	42.05
716.508	42.47
716.691	41.75
716.874	41.18
717.057	40.8
717.239	41.16
717.422	41.85
717.605	41.42
717.788	41.5
717.971	42.12
718.154	41.68
718.337	41.24
718.519	40.86
718.702	42
718.885	42.14
719.068	42.81
719.25	43.02
719.433	42.44
719.616	43.21
719.798	43.71
719.981	43.55
720.164	43.22
720.346	43.83
720.529	44.91
720.712	44.18
720.894	45.12
721.077	43.86
721.259	43.86
721.442	45.15
721.624	45.43
721.807	45.56
721.989	44.57
722.172	45.27
722.354	44.54
722.537	44.29
722.719	44.31
722.901	44.98
723.084	45.98
723.266	45.26
723.448	44.5
723.631	43.36
723.813	43.19
723.995	42.91
724.178	43.75
724.36	43.78
724.542	43.21
724.724	44.01
724.907	43.69
725.089	44.62
725.271	45.6
725.453	45.39
725.635	45.88
725.817	45.95
725.999	47.09
726.181	46.92
726.364	47.46
726.546	47.61
726.728	47.13
726.91	46.65
727.092	45.76
727.274	45.7
727.456	45.64
727.638	45.62
727.819	46.13
728.001	45.88
728.183	45.45
728.365	45.07
728.547	44.89
728.729	44.95
728.911	45.68
729.093	46.11
729.274	45.14
729.456	45.37
729.638	45.67
729.82	44.77
730.001	43.81
730.183	44.01
730.365	43.67
730.546	44.27
730.728	44.32
730.91	43.19
731.091	43.11
731.273	43.21
731.455	43.1
731.636	43.45
731.818	44.36
731.999	44.39
732.181	44.29
732.362	44.52
732.544	45.31
732.725	44.74
732.907	45.14
733.088	45.05
733.27	46.14
733.451	45.65
733.633	46.31
733.814	46
733.995	46.34
734.177	46.2
734.358	45.73
734.539	43.97
734.721	44.59
734.902	45.02
735.083	45.16
735.264	44.49
735.446	45.4
735.627	44.33
735.808	43.48
735.989	44.05
736.17	44.22
736.351	45.12
736.533	45.29
736.714	45.1
736.895	43.85
737.076	42.96
737.257	43.07
737.438	42.73
737.619	43.01
737.8	43.12
737.981	43.37
738.162	43.33
738.343	43.04
738.524	43.67
738.705	43.67
738.886	44.07
739.067	44.27
739.247	44.17
739.428	44.27
739.609	44.02
739.79	44.94
739.971	45.24
740.151	45.46
740.332	45.34
740.513	45.19
740.694	45.31
740.874	44.51
741.055	44.18
741.236	43.87
741.417	44.22
741.597	43.46
741.778	42.18
741.958	40.29
742.139	38.62
742.32	38.64
742.5	38.52
742.681	39.08
742.861	40.32
743.042	40.98
743.222	41.17
743.403	40.43
743.583	43.22
743.764	44.17
743.944	45.62
744.124	47.18
744.305	48.26
744.485	47.84
744.666	47.56
744.846	47.55
745.026	48.41
745.207	48.05
745.387	47.98
745.567	46.34
745.747	46.5
745.928	46.58
746.108	46.76
746.288	45.42
746.468	45.54
746.648	45.4
746.829	45.55
747.009	45.53
747.189	45.87
747.369	45.49
747.549	45.05
747.729	44.78
747.909	44.88
748.089	44.55
748.269	44.9
748.449	46.04
748.629	47.09
748.809	46.86
748.989	46.41
749.169	47.32
749.349	47.99
749.529	47.5
749.709	47.47
749.889	46.43
750.068	45.74
750.248	45.99
750.428	45
750.608	43.96
750.788	44.3
750.967	43.88
751.147	42.29
751.327	41.94
751.507	42.44
751.686	41.93
751.866	43.19
752.046	44.02
752.225	43.68
752.405	42.83
752.585	42.86
752.764	43.17
752.944	42.46
753.123	44.98
753.303	45.59
753.482	45.44
753.662	45.74
753.841	46.39
754.021	45.31
754.2	45.9
754.38	46.81
754.559	46.84
754.739	46.52
754.918	47.42
755.097	44.86
755.277	43.87
755.456	43.67
755.635	43.72
755.815	42.39
755.994	43.44
756.173	42.45
756.352	42.94
756.532	43.21
756.711	42.72
756.89	43.13
757.069	44.79
757.248	45.14
757.427	45.41
757.607	45.66
757.786	45.07
757.965	44.72
758.144	45.14
758.323	45.42
758.502	45.53
758.681	45.36
758.86	45.85
759.039	44.57
759.218	44.31
759.397	44.15
759.576	43.99
759.755	43.78
759.934	43.8
760.113	43.71
760.291	43.91
760.47	44.79
760.649	45.39
760.828	44.54
761.007	44.1
761.186	44.19
761.364	44.67
761.543	44.51
761.722	45.89
761.901	45.56
762.079	46.48
762.258	46.36
762.437	44.32
762.615	43.85
762.794	43.78
762.972	44.57
763.151	44.87
763.33	44.36
763.508	44.47
763.687	44.23
763.865	44.83
764.044	44.29
764.222	43.53
764.401	44.05
764.579	43.85
764.758	43.58
764.936	44.15
765.114	44.57
765.293	45.03
765.471	45.3
765.65	44.96
765.828	44.09
766.006	44.04
766.184	45.13
766.363	45.75
766.541	45.48
766.719	45.31
766.898	44.52
767.076	43.92
767.254	44.3
767.432	43.81
767.61	44.44
767.788	44.1
767.967	43.14
768.145	41.82
768.323	41.1
768.501	41.32
768.679	41.7
768.857	42.24
769.035	42.8
769.213	43.31
769.391	43.62
769.569	43.48
769.747	45.04
769.925	44.97
770.103	46.03
770.281	45.49
770.459	45.9
770.636	45.92
770.814	45.34
770.992	46.11
771.17	45.79
771.348	46.35
771.525	45.75
771.703	46.65
771.881	48.36
772.059	48.13
772.236	48.53
772.414	49.94
772.592	49.93
772.769	49.63
772.947	47.98
773.125	46.65
773.302	47.25
773.48	48.92
773.657	47.94
773.835	46.54
774.013	46.36
774.19	46.75
774.368	45.48
774.545	45.52
774.723	47.57
774.9	48.25
775.077	48.26
775.255	46.4
775.432	44.36
775.61	43.76
775.787	44.53
775.964	44.24
776.142	44.02
776.319	44.62
776.496	46.65
776.674	45.76
776.851	46.54
777.028	46.9
777.205	46.9
777.382	48.92
777.56	49.94
777.737	53.79
777.914	53.8
778.091	55.49
778.268	54
778.445	52.81
778.622	52.87
778.8	51.91
778.977	51.66
779.154	54.19
779.331	53.83
779.508	52.64
779.685	49.39
779.862	51.12
780.038	51.15
780.215	52.94
780.392	53.95
780.569	54.77
780.746	54.39
780.923	54.96
781.1	52.5
781.277	50.43
781.453	49.89
781.63	48.59
781.807	47.97
781.984	46.93
782.16	47.83
782.337	46.66
782.514	44.32
782.691	45.71
782.867	45.69
783.044	48.44
783.221	50.22
783.397	49.84
783.574	50.62
783.75	50.83
783.927	51.78
784.103	51.11
784.28	49.2
784.456	49.18
784.633	49.05
784.809	48.82
784.986	44.59
785.162	45.88
785.339	47.11
785.515	46.17
785.692	44.04
785.868	44.57
786.044	44.24
786.221	47.94
786.397	49.56
786.573	47.81
786.749	48.02
786.926	50.27
787.102	49.33
787.278	47.96
787.454	50.68
787.631	51.85
787.807	49.22
787.983	50.55
788.159	50.18
788.335	49.73
788.511	51.9
788.687	51.24
788.863	51.59
789.039	51.2
789.216	52.86
789.392	52.34
789.568	49.8
789.744	52.92
789.919	52.71
790.095	51.69
790.271	50.39
790.447	48.23
790.623	47.83
790.799	46.61
790.975	46.23
791.151	46.99
791.327	44.06
791.502	44.93
791.678	43.6
791.854	44.26
792.03	42.66
792.205	44.6
792.381	45.07
792.557	44.33
792.733	44.15
792.908	42.68
793.084	42.86
793.259	44.08
793.435	45.59
793.611	46.15
793.786	44.25
793.962	43.27
794.137	41.4
794.313	41.18
794.488	43.51
794.664	44.06
794.839	45.3
795.015	44.01
795.19	42.87
795.366	44.9
795.541	43.26
795.716	41.7
795.892	44.51
796.067	45.24
796.242	45.8
796.418	46.07
796.593	46.23
796.768	44.46
796.944	44.16
797.119	45.53
797.294	43.78
797.469	45.61
797.644	46.18
797.82	45.01
797.995	45.22
798.17	45.1
798.345	45.43
798.52	44.83
798.695	46.2
798.87	45.17
799.045	44.89
799.22	44.61
799.395	44.88
799.57	45.59
799.745	45.7
799.92	44.24
800.095	44.2
800.27	43.57
800.445	44.05
800.62	43.33
800.795	42.65
800.97	44.1
801.145	46.6
801.319	44.66
801.494	43.98
801.669	47.33
801.844	48.95
802.018	49.21
802.193	49.03
802.368	48.59
802.543	49.01
802.717	53.9
802.892	52.29
803.067	50.76
803.241	51.32
803.416	52.46
803.59	50.59
803.765	51.38
803.94	54.85
804.114	53.53
804.289	56.51
804.463	57.34
804.638	52.53
804.812	53.71
804.986	52.61
805.161	53.83
805.335	54.06
805.51	51.79
805.684	52.46
805.858	50.59
806.033	51.2
806.207	48.56
806.381	50.78
806.556	52.33
806.73	53.34
806.904	54.09
807.078	54.29
807.253	53.85
807.427	54.91
807.601	52.63
807.775	51.28
807.949	49.74
808.123	49.42
808.298	47.42
808.472	46.99
808.646	48.2
808.82	46.48
808.994	44.08
809.168	42.91
809.342	45.01
809.516	47.36
809.69	47.91
809.864	49.85
810.038	51.63
810.212	50.61
810.385	48.8
810.559	47.14
810.733	48.07
810.907	48.5
811.081	51.02
811.255	51.12
811.428	48.14
811.602	45.97
811.776	45.09
811.95	41.1
812.123	43.36
812.297	45.81
812.471	43.87
812.644	45.29
812.818	46.08
812.992	48.92
813.165	48.05
813.339	50.53
813.512	52.03
813.686	53.6
813.86	54.85
814.033	54.19
814.207	54.32
814.38	55.92
814.554	53.84
814.727	54.96
814.9	53.29
815.074	52.02
815.247	47.39
815.421	46.86
815.594	43.46
815.767	44.93
815.941	43.61
816.114	47.16
816.287	46.96
816.46	46.99
816.634	44.87
816.807	47.16
816.98	47.82
817.153	50.83
817.327	52.22
817.5	53.78
817.673	54.97
817.846	56.1
818.019	57.59
818.192	57.15
818.365	54.31
818.538	55.77
818.711	51.48
818.884	50.6
819.057	51.57
819.23	50.23
819.403	51.54
819.576	52.44
819.749	51.98
819.922	48.53
820.095	50.08
820.268	54.29
820.441	54.39
820.614	54.95
820.786	54.29
820.959	54.64
821.132	52.87
821.305	50.91
821.477	48.94
821.65	48.53
821.823	49.18
821.996	48.08
822.168	47.48
822.341	46.5
822.514	46.39
822.686	46.11
822.859	45.48
823.031	45.51
823.204	45.77
823.376	45.39
823.549	45.59
823.722	44.69
823.894	45.12
824.067	44.6
824.239	45.12
824.411	44.56
824.584	44.96
824.756	44.67
824.929	44.41
825.101	44.19
825.273	44.61
825.446	45.16
825.618	45.07
825.79	45.19
825.963	45.37
826.135	45.14
826.307	46.37
826.479	45.86
826.652	47.08
826.824	48.54
826.996	48.2
827.168	48.39
827.34	47.56
827.512	48.62
827.684	47.51
827.856	46.49
828.029	45.58
828.201	44.08
828.373	44.77
828.545	44.07
828.717	43.85
828.889	43.51
829.061	44.25
829.232	44.9
829.404	44.53
829.576	45.27
829.748	47.21
829.92	50.34
830.092	52.36
830.264	51.21
830.436	50.84
830.607	51.34
830.779	53.93
830.951	52.69
831.123	53.89
831.294	53.65
831.466	53.21
831.638	51.06
831.809	47.87
831.981	46.35
832.153	49.17
832.324	48.68
832.496	47.73
832.667	50.58
832.839	53.16
833.011	49.43
833.182	51.3
833.354	50.72
833.525	52.2
833.697	50.78
833.868	50.72
834.039	49.55
834.211	50.67
834.382	49.48
834.554	46.76
834.725	45.01
834.896	42.96
835.068	41.57
835.239	41.72
835.41	42.51
835.581	42.43
835.753	41.93
835.924	42.9
836.095	41.87
836.266	41.87
836.438	40.8
836.609	40.39
836.78	43.48
836.951	44.54
837.122	44.36
837.293	44.73
837.464	46.38
837.635	50.32
837.806	47.56
837.977	48.23
838.148	51.45
838.319	52.46
838.49	57.89
838.661	57.01
838.832	60.03
839.003	59.91
839.174	58.64
839.345	61.72
839.516	61.09
839.687	66.78
839.857	65.42
840.028	65.01
840.199	65.45
840.37	62.82
840.54	64.36
840.711	58.95
840.882	60.31
841.053	64.02
841.223	60.94
841.394	62.5
841.564	61.38
841.735	66.99
841.906	65.03
842.076	64.02
842.247	60.39
842.417	60.66
842.588	65.45
842.758	68.14
842.929	64.73
843.099	68.56
843.27	63.52
843.44	60.1
843.611	62.58
843.781	63.13
843.951	58.02
844.122	53.93
844.292	47.11
844.462	43.63
844.633	42.92
844.803	42.13
844.973	38.2
845.144	38.01
845.314	37.22
845.484	35.36
845.654	33.76
845.824	37.54
845.995	44.03
846.165	46.94
846.335	57.22
846.505	61.95
846.675	62.01
846.845	63.45
847.015	76.33
847.185	86.73
847.355	82.33
847.525	88.38
847.695	89.37
847.865	92.1
848.035	103.1
848.205	83.88
848.375	82.83
848.545	87.16
848.715	79.82
848.884	63.41
849.054	62.83
849.224	56.14
849.394	55.68
849.564	60.76
849.733	64.34
849.903	58.29
850.073	59.26
850.243	59.91
850.412	58.6
850.582	64.77
850.752	60.75
850.921	49.03
851.091	61.12
851.26	66.81
851.43	61.47
851.599	57.87
851.769	61.94
851.939	75.32
852.108	70.89
852.278	74.84
852.447	74.14
852.616	86.33
852.786	89.08
852.955	86.76
853.125	82.01
853.294	84.8
853.463	81.46
853.633	77.41
853.802	73.17
853.971	82.29
854.141	69.03
854.31	81.74
854.479	80.27
854.648	104.08
854.818	96.19
854.987	86.88
855.156	72.54
855.325	72.9
855.494	88.64
855.663	76.24
855.832	69.75
856.001	76.42
856.171	62.19
856.34	69.72
856.509	67.58
856.678	60.97
856.847	60.62
857.016	71.23
857.185	69.1
857.353	62.14
857.522	62.77
857.691	49.64
857.86	54.61
858.029	54.42
858.198	55.67
858.367	55.16
858.535	64.71
858.704	67.66
858.873	74.04
859.042	70.92
859.21	73.74
859.379	74.22
859.548	78.66
859.717	75.93
859.885	86.08
860.054	78.55
860.222	61.22
860.391	59.71
860.56	65.67
860.728	67.56
860.897	68.87
861.065	68.13
861.234	68.13
861.402	70.15
861.571	64.2
861.739	64.36
861.908	60.76
862.076	85.55
862.244	79.53
862.413	79.82
862.581	78.21
862.749	78.6
862.918	76.92
863.086	79.6
863.254	82.87
863.423	98.59
863.591	75.44
863.759	82.1
863.927	56.7
864.096	51.66
864.264	48.15
864.432	50.76
864.6	56.27
864.768	64.34
864.936	60.63
865.104	60.32
865.272	54.79
865.44	62.99
865.608	59.23
865.776	68.01
865.944	73.53
866.112	76.28
866.28	78.54
866.448	72.03
866.616	87.38
866.784	79.69
866.952	73.23
867.12	88.64
867.288	83.9
867.455	98.88
867.623	104.78
867.791	110.83
867.959	117.73
868.127	113.28
868.294	98.69
868.462	68.23
868.63	76.72
868.797	91.44
868.965	74.3
869.133	62.55
869.3	49.94
869.468	53.98
869.636	41.88
869.803	41.04
869.971	34.54
870.138	35.48
870.306	36.23
870.473	41.67
870.641	31.6
870.808	32.19
870.975	40.6
871.143	38.39
871.31	32.87
871.478	33.31
871.645	31.97
871.812	49.94
871.98	55.92
872.147	55.38
872.314	42.48
872.482	40.19
872.649	46.35
872.816	47.54
872.983	59.38
873.15	59.93
873.318	64.59
873.485	78.06
873.652	62.26
873.819	57.36
873.986	63.02
874.153	83.74
874.32	97.71
874.487	98.54
874.654	106.47
874.821	100.36
874.988	108.58
875.155	107.5
875.322	76.9
875.489	85.53
875.656	81.35
875.823	81.16
875.99	51.9
876.157	43.96
876.324	41.72
876.49	47.85
876.657	49.47
876.824	49.93
876.991	48.73
877.157	49.79
877.324	54.76
877.491	60.23
877.658	60.32
877.824	70.05
877.991	69.13
878.157	71.34
878.324	70.68
878.491	62.43
878.657	63.47
878.824	72.26
878.99	73.72
879.157	73.1
879.323	67.83
879.49	64.7
879.656	57.21
879.823	71.45
879.989	73.85
880.156	76.16
880.322	84.79
880.488	79.71
880.655	70.96
880.821	68.48
880.987	74.83
881.154	78.72
881.32	78.46
881.486	74.19
881.652	68.82
881.819	65.48
881.985	64.41
882.151	63.05
882.317	59.88
882.483	60.58
882.649	58.97
882.816	54.35
882.982	54.41
883.148	52.85
883.314	51.7
883.48	49.73
883.646	49.24
883.812	48.48
883.978	49.08
884.144	50.42
884.31	50.67
884.476	49.76
884.642	49.62
884.807	49.45
884.973	49
885.139	50.14
885.305	52.66
885.471	51.94
885.637	53.52
885.802	51.82
885.968	51.35
886.134	51.15
886.3	54.06
886.465	54.76
886.631	54.12
886.797	57.78
886.962	58.7
887.128	57.65
887.293	63.03
887.459	57.04
887.625	57.33
887.79	60.4
887.956	60.16
888.121	59.37
888.287	63.01
888.452	63.7
888.618	59.55
888.783	61.76
