Data from CB_063_Reflection_1.txt Node
Date: Sat Nov 14 10:34:50 EST 2015
User: robert
Spectrometer: USB4E03001
Autoset integration time: false
Trigger mode: 4
Integration Time (sec): 1.000000E-1
Scans to average: 15
Electric dark correction enabled: true
Nonlinearity correction enabled: false
Boxcar width: 5
Stray light correction enabled: false
XAxis mode: Wavelengths
Stop averaging: false
Number of Pixels in Spectrum: 3648
>>>>>Begin Spectral Data<<<<<
177.566	-66.47
177.785	-20.88
178.005	-285.01
178.225	16.82
178.445	-91.37
178.665	-436.39
178.885	223.6
179.105	-24.17
179.324	-45.57
179.544	-148.29
179.764	-12.43
179.984	-27.34
180.204	-18.79
180.423	-234.55
180.643	-172.59
180.863	-438.39
181.083	-2257.09
181.302	-10456.35
181.522	962.5
181.742	1045.98
181.961	1167.98
182.181	176.14
182.401	144.45
182.621	220.33
182.84	851.58
183.06	-1791.19
183.279	-86.34
183.499	19.53
183.719	115.76
183.938	39.45
184.158	52.57
184.377	50.86
184.597	42.68
184.816	29.82
185.036	19.42
185.256	13.02
185.475	-0.22
185.695	-25.55
185.914	-113.14
186.134	-131.25
186.353	-194.04
186.572	-145.83
186.792	-459
187.011	3208.82
187.231	-1293.51
187.45	-90.53
187.67	-94.38
187.889	294.49
188.108	199.21
188.328	127.99
188.547	106.19
188.766	64.21
188.986	73.45
189.205	82.01
189.424	90.48
189.644	105.7
189.863	167.18
190.082	203.17
190.302	269.26
190.521	202.42
190.74	219.59
190.959	714.26
191.178	700.28
191.398	544.15
191.617	1457.65
191.836	4567.2
192.055	724.98
192.274	135.95
192.494	157.66
192.713	3910.71
192.932	-695.47
193.151	93750
193.37	188.07
193.589	-4538.05
193.808	-408.99
194.027	-919.2
194.246	1860.44
194.465	-1367.43
194.685	364.99
194.904	372.21
195.123	211.71
195.342	112.41
195.561	132.55
195.78	450.96
195.999	817.37
196.218	323.67
196.436	-85.7
196.655	88.68
196.874	73.95
197.093	193.06
197.312	182.69
197.531	393.36
197.75	515.34
197.969	1695.5
198.188	323.5
198.407	213.3
198.625	232.91
198.844	333.55
199.063	421.82
199.282	764.03
199.501	-3272.66
199.719	-1572.56
199.938	712.39
200.157	479.21
200.376	-2438.32
200.594	-118.31
200.813	-245.97
201.032	-416.82
201.251	-138.03
201.469	-28.94
201.688	-585.67
201.907	1927.52
202.125	600.58
202.344	1313.68
202.563	7657.97
202.781	439.53
203	184.65
203.218	196.9
203.437	378.67
203.656	334.29
203.874	749.11
204.093	705.06
204.311	437.37
204.53	1357.84
204.748	405.23
204.967	621.66
205.185	490.07
205.404	502.01
205.622	659.89
205.841	315.63
206.059	198
206.278	165.41
206.496	274.59
206.715	357.48
206.933	249.15
207.151	291.16
207.37	175.04
207.588	216.08
207.806	298.84
208.025	403.09
208.243	691.73
208.461	-51259.09
208.68	1546.04
208.898	516.32
209.116	305.43
209.335	229.96
209.553	210.71
209.771	185.08
209.989	153.49
210.208	109.76
210.426	85.87
210.644	67.18
210.862	69.59
211.081	69.95
211.299	70.57
211.517	80.46
211.735	76.7
211.953	68.17
212.171	80.68
212.39	94.22
212.608	91.5
212.826	104.4
213.044	105.86
213.262	98.89
213.48	96.44
213.698	107.65
213.916	79.26
214.134	103.5
214.352	214
214.57	76.14
214.788	64.32
215.006	67.16
215.224	78.38
215.442	322.69
215.66	743.71
215.878	275.29
216.096	133.54
216.314	486.81
216.532	2086.8
216.75	-587.22
216.968	-945.59
217.185	-7356.64
217.403	1524.52
217.621	-98144.44
217.839	-351.84
218.057	-11929.17
218.275	-187.92
218.492	16.85
218.71	-517.43
218.928	490.48
219.146	418.17
219.363	178.79
219.581	214.43
219.799	-1192.52
220.017	128.84
220.234	222.17
220.452	247.65
220.67	478.16
220.887	230.21
221.105	309.7
221.323	186.14
221.54	137.39
221.758	160.96
221.976	136.82
222.193	111.09
222.411	118.63
222.629	106.2
222.846	82.35
223.064	69.74
223.281	64.04
223.499	64.26
223.716	51.02
223.934	35.65
224.151	37.74
224.369	53.08
224.586	57.57
224.804	77.12
225.021	92.07
225.239	96.09
225.456	95.13
225.674	93.93
225.891	91.66
226.108	78.61
226.326	74.4
226.543	68.2
226.76	47.23
226.978	47.99
227.195	44.34
227.413	35.81
227.63	41.99
227.847	39.95
228.064	32.8
228.282	30.39
228.499	30.06
228.716	28.34
228.934	26.35
229.151	27.95
229.368	23.97
229.585	21.44
229.802	19.92
230.02	17.51
230.237	20.46
230.454	21.55
230.671	23.28
230.888	26.87
231.105	31.07
231.323	37.32
231.54	40.07
231.757	39.83
231.974	47.75
232.191	48.4
232.408	46.39
232.625	45.44
232.842	45.38
233.059	37.86
233.276	37.54
233.493	33.4
233.71	28.92
233.927	24.21
234.144	28.31
234.361	26.75
234.578	30.77
234.795	31.07
235.012	29.2
235.229	22.92
235.446	32.78
235.663	32.17
235.879	29.25
236.096	30.5
236.313	39.45
236.53	38.87
236.747	32.3
236.964	28.59
237.181	31.16
237.397	29.83
237.614	48.43
237.831	47.92
238.048	53.2
238.264	55.05
238.481	58.55
238.698	53.1
238.915	49.78
239.131	50.48
239.348	48.73
239.565	52.54
239.781	52.15
239.998	42.91
240.215	34.27
240.431	29.3
240.648	29.6
240.865	27.31
241.081	24.35
241.298	21.73
241.514	24.34
241.731	22.4
241.947	18.78
242.164	18.89
242.38	16.38
242.597	17.25
242.814	17.9
243.03	17.97
243.246	16.45
243.463	17.35
243.679	16.84
243.896	13
244.112	13.99
244.329	16.06
244.545	16.45
244.762	19.92
244.978	21.32
245.194	18.83
245.411	17.75
245.627	17.78
245.843	20.71
246.06	23.37
246.276	22.66
246.492	23.15
246.709	21.62
246.925	20.35
247.141	20.07
247.357	19.56
247.574	20.08
247.79	20.03
248.006	19.46
248.222	17.92
248.439	16.99
248.655	17.38
248.871	16.86
249.087	17.34
249.303	18.63
249.519	18.11
249.736	19.38
249.952	18.57
250.168	20.99
250.384	22.85
250.6	23.15
250.816	23.63
251.032	24.96
251.248	24.69
251.464	23.39
251.68	21.07
251.896	16.88
252.112	15.56
252.328	16.52
252.544	14.82
252.76	12.74
252.976	10.24
253.192	8.23
253.408	6.41
253.624	4.49
253.84	6.31
254.056	6.36
254.272	9.95
254.487	9.01
254.703	7.41
254.919	6.43
255.135	9.97
255.351	18.39
255.567	21.15
255.782	24.46
255.998	24.61
256.214	22.8
256.43	23.32
256.646	22.88
256.861	23.82
257.077	21.14
257.293	20.94
257.508	20.69
257.724	17.51
257.94	15.07
258.155	14.37
258.371	14.43
258.587	11.81
258.802	11.3
259.018	11.38
259.234	11.61
259.449	12.46
259.665	13.17
259.88	12.76
260.096	12.92
260.312	12.62
260.527	11.72
260.743	11.66
260.958	12.83
261.174	13.54
261.389	14.55
261.605	14.45
261.82	13.24
262.036	13.45
262.251	13.48
262.466	12.41
262.682	13.7
262.897	13.63
263.113	14.51
263.328	12.19
263.543	11.39
263.759	10.98
263.974	11.95
264.189	13.59
264.405	12.54
264.62	13.55
264.835	13.88
265.051	14.22
265.266	15.71
265.481	15.26
265.696	18.23
265.912	16.49
266.127	15.4
266.342	12.62
266.557	14.17
266.773	13.92
266.988	13.82
267.203	14.12
267.418	14.19
267.633	13.91
267.848	13.39
268.064	11.41
268.279	12.71
268.494	11.3
268.709	11.28
268.924	11.3
269.139	10.53
269.354	11.37
269.569	10.4
269.784	10.44
269.999	11.66
270.214	13.43
270.429	13.26
270.644	13.35
270.859	12.86
271.074	13.23
271.289	13.75
271.504	13.77
271.719	12.92
271.934	13.71
272.149	12.24
272.363	13.37
272.578	11.94
272.793	12.54
273.008	12.38
273.223	13.01
273.438	12.87
273.653	12.78
273.867	12.96
274.082	13.86
274.297	14.23
274.512	15.72
274.726	13.89
274.941	14.87
275.156	16.96
275.371	16.82
275.585	18.52
275.8	19.66
276.015	17.72
276.229	17.08
276.444	16.05
276.659	14.81
276.873	13.53
277.088	14.49
277.302	14.97
277.517	11.28
277.732	9.98
277.946	8.01
278.161	7.4
278.375	7.83
278.59	8.98
278.804	9.24
279.019	10.85
279.233	10.15
279.448	8.29
279.662	7
279.877	7.88
280.091	7.16
280.306	7.74
280.52	7
280.735	7.95
280.949	9.43
281.163	9.07
281.378	8.42
281.592	10.62
281.806	10.42
282.021	10.35
282.235	10.9
282.449	13.35
282.664	12.9
282.878	14.36
283.092	14.37
283.307	12.38
283.521	12.23
283.735	12.34
283.949	12.6
284.164	12.55
284.378	12.99
284.592	13.22
284.806	12.65
285.02	13.23
285.234	11.62
285.449	11.63
285.663	12.18
285.877	12.43
286.091	11.64
286.305	10.56
286.519	12.42
286.733	12.28
286.947	12.68
287.161	12.2
287.375	11.71
287.589	13.94
287.803	14.5
288.017	14.15
288.231	14.72
288.445	16.51
288.659	17.96
288.873	16.94
289.087	16.55
289.301	16.65
289.515	15.71
289.729	16.23
289.943	15.37
290.157	15.23
290.371	15.94
290.584	15.9
290.798	14.71
291.012	14.08
291.226	13.43
291.44	14.12
291.654	13.46
291.867	14.6
292.081	14.75
292.295	14.95
292.509	14.7
292.722	14.61
292.936	14.02
293.15	14.42
293.364	14.2
293.577	15.18
293.791	15.25
294.005	15.06
294.218	16.03
294.432	16.19
294.645	15.52
294.859	15.54
295.073	15.13
295.286	15.18
295.5	15.2
295.713	14.78
295.927	14.26
296.14	13.25
296.354	13.42
296.568	12.32
296.781	11.48
296.994	12.02
297.208	11.41
297.421	11.96
297.635	12.58
297.848	12.67
298.062	13.14
298.275	13.38
298.489	14.35
298.702	15.55
298.915	15.54
299.129	15.88
299.342	16.16
299.555	17.66
299.769	16.42
299.982	15.8
300.195	16.53
300.409	15.71
300.622	16.6
300.835	15.37
301.048	13.38
301.262	13.87
301.475	16.37
301.688	14.94
301.901	13.54
302.115	14.59
302.328	14.2
302.541	13.46
302.754	15.71
302.967	14.12
303.18	15.48
303.393	15.98
303.607	16.93
303.82	15.48
304.033	17.15
304.246	18.09
304.459	17.42
304.672	18.21
304.885	19.42
305.098	18.08
305.311	19.31
305.524	19.23
305.737	19.4
305.95	19.35
306.163	19.92
306.376	18.38
306.589	17.83
306.802	19.19
307.015	20.15
307.228	20.31
307.44	19.78
307.653	19.22
307.866	19.09
308.079	19.8
308.292	18.16
308.505	19.49
308.718	20.32
308.93	21.59
309.143	20.77
309.356	20.12
309.569	18.81
309.781	19.18
309.994	19.24
310.207	19.22
310.42	18.75
310.632	19.37
310.845	17.86
311.058	18.57
311.27	17.86
311.483	18.13
311.696	18
311.908	18.06
312.121	18.57
312.333	18.95
312.546	18.69
312.759	18.11
312.971	17.73
313.184	17.64
313.396	16.87
313.609	17.26
313.821	17.65
314.034	16.89
314.246	16.17
314.459	15.96
314.671	15.46
314.884	16.05
315.096	17.16
315.309	18.82
315.521	19.31
315.733	18.33
315.946	17.39
316.158	17.91
316.371	17.86
316.583	18.04
316.795	17.19
317.008	18.71
317.22	19.31
317.432	19.42
317.644	18.82
317.857	18.23
318.069	19.78
318.281	21.41
318.494	21.7
318.706	22.93
318.918	25.12
319.13	25.58
319.342	23.93
319.555	22.69
319.767	22.96
319.979	22.58
320.191	22.34
320.403	21.93
320.615	22.47
320.827	22.44
321.039	22.34
321.252	21.6
321.464	22.64
321.676	22.71
321.888	23.97
322.1	22.91
322.312	21.81
322.524	22.6
322.736	21.54
322.948	20.66
323.16	19.33
323.372	20.14
323.584	19.44
323.796	19.06
324.007	19.15
324.219	18.37
324.431	19.56
324.643	21.41
324.855	22.31
325.067	23.25
325.279	23.43
325.491	24.52
325.702	25.13
325.914	25.77
326.126	25.42
326.338	25.11
326.55	25.92
326.761	25.74
326.973	25.18
327.185	24.55
327.396	24.94
327.608	24.42
327.82	24.44
328.032	24.19
328.243	24.44
328.455	26.46
328.666	27.08
328.878	26.76
329.09	26.64
329.301	26.52
329.513	26.44
329.725	26.08
329.936	26.78
330.148	25.94
330.359	25.96
330.571	25.98
330.782	24.55
330.994	25.43
331.205	26.09
331.417	27.39
331.628	28.09
331.84	29.88
332.051	30.71
332.262	31.12
332.474	31.83
332.685	30.97
332.897	30.93
333.108	31.33
333.319	31.55
333.531	31.88
333.742	30.71
333.953	30.53
334.165	29.61
334.376	30.39
334.587	30.56
334.799	30.19
335.01	29.87
335.221	30.19
335.432	29.13
335.644	28.73
335.855	27.86
336.066	28.29
336.277	29
336.488	28.79
336.7	28.18
336.911	28.19
337.122	28.8
337.333	29.78
337.544	29.01
337.755	30.3
337.966	30.81
338.177	30.76
338.388	30.13
338.599	29.47
338.811	29.53
339.022	29.98
339.233	29.83
339.444	28.4
339.655	28.34
339.866	27.99
340.076	27.38
340.287	26.36
340.498	27.42
340.709	27.93
340.92	28.3
341.131	28.18
341.342	27.88
341.553	27.1
341.764	28.96
341.975	28.34
342.185	29.14
342.396	29.77
342.607	30.02
342.818	29.58
343.029	29.09
343.239	29.32
343.45	29.46
343.661	29.23
343.872	29.31
344.082	28.15
344.293	27.96
344.504	27.89
344.714	27.42
344.925	27.95
345.136	26.96
345.346	26.85
345.557	26.26
345.768	25.69
345.978	25.4
346.189	25.21
346.399	24.3
346.61	24.16
346.821	24.42
347.031	24.22
347.242	23.35
347.452	23.85
347.663	24.51
347.873	24.95
348.084	24.9
348.294	24.32
348.504	25.19
348.715	27.07
348.925	27.19
349.136	26.35
349.346	26.78
349.557	26.7
349.767	27.48
349.977	27.33
350.188	26.34
350.398	27.14
350.608	27.55
350.819	27.82
351.029	26.97
351.239	27.67
351.449	27.83
351.66	27.34
351.87	28.32
352.08	27.5
352.29	27.07
352.501	27.87
352.711	27.02
352.921	28.09
353.131	27.1
353.341	27.08
353.552	25.8
353.762	25.26
353.972	24.85
354.182	24.54
354.392	24.65
354.602	25.15
354.812	25.15
355.022	25.41
355.232	24.64
355.442	24.87
355.652	24.66
355.862	25.58
356.072	26.45
356.282	26.54
356.492	26.62
356.702	26.54
356.912	26.12
357.122	26.23
357.332	26.39
357.542	26
357.752	25.28
357.962	25.67
358.171	25.82
358.381	25.6
358.591	26.06
358.801	25.64
359.011	25.87
359.221	26.6
359.43	26.06
359.64	25.81
359.85	25.74
360.06	25.99
360.269	25.5
360.479	25.23
360.689	25.29
360.899	24.86
361.108	24.97
361.318	24.08
361.528	23.35
361.737	23.66
361.947	23.8
362.156	23.66
362.366	23.64
362.576	23.57
362.785	23.39
362.995	23.58
363.204	23.65
363.414	23.37
363.623	23.71
363.833	24.12
364.042	23.6
364.252	23.74
364.461	23.92
364.671	24.46
364.88	25.01
365.09	25.52
365.299	25.56
365.509	25.89
365.718	25.36
365.927	26.36
366.137	25.93
366.346	26.45
366.555	26.13
366.765	26.1
366.974	25.7
367.183	25.47
367.393	24.69
367.602	24.21
367.811	23.97
368.021	24.84
368.23	24.1
368.439	24.17
368.648	23.22
368.857	22.75
369.067	22.84
369.276	23.23
369.485	23.04
369.694	23.32
369.903	22.9
370.112	22.57
370.321	22.29
370.531	22.2
370.74	21.6
370.949	21.98
371.158	22.15
371.367	21.92
371.576	20.88
371.785	20.74
371.994	20.64
372.203	20.91
372.412	20.81
372.621	21.15
372.83	21.35
373.039	21.66
373.248	21.45
373.457	21.31
373.666	20.68
373.874	20.88
374.083	20.59
374.292	20.67
374.501	20.26
374.71	20.68
374.919	20.17
375.128	19.54
375.336	19.36
375.545	19.71
375.754	19.82
375.963	20.24
376.171	19.93
376.38	19.48
376.589	18.77
376.798	18.52
377.006	17.68
377.215	17.11
377.424	17.34
377.632	17.01
377.841	16.79
378.05	16.44
378.258	16.18
378.467	16.16
378.675	17.03
378.884	17.22
379.093	17
379.301	17.31
379.51	17.65
379.718	17.37
379.927	17.81
380.135	17.87
380.344	17.9
380.552	18.13
380.761	17.93
380.969	17.27
381.177	16.87
381.386	17.15
381.594	16.45
381.803	16.28
382.011	16.36
382.219	16.01
382.428	15.99
382.636	15.74
382.845	15.02
383.053	15.44
383.261	15.35
383.469	15.47
383.678	15.8
383.886	16.48
384.094	16.44
384.302	16.23
384.511	16.46
384.719	16.08
384.927	16.21
385.135	16.46
385.343	16.16
385.552	16.18
385.76	16.19
385.968	15.77
386.176	15.21
386.384	14.88
386.592	14.45
386.8	14.22
387.008	14.39
387.216	14.35
387.424	14.5
387.633	14.06
387.841	14.22
388.049	14.26
388.257	14.6
388.465	14.62
388.672	14.67
388.88	15.06
389.088	14.33
389.296	13.68
389.504	13.09
389.712	12.81
389.92	12.84
390.128	12.48
390.336	12.1
390.544	11.65
390.751	11.82
390.959	11.61
391.167	11.42
391.375	12
391.583	12.14
391.79	12.14
391.998	12.55
392.206	12.67
392.414	12.31
392.621	12.35
392.829	12.18
393.037	11.82
393.244	11.82
393.452	11.63
393.66	11.21
393.867	11.3
394.075	11.33
394.283	10.75
394.49	10.57
394.698	10.68
394.905	10.74
395.113	10.93
395.32	11.02
395.528	11.17
395.735	11.18
395.943	11.67
396.15	11.75
396.358	11.6
396.565	11.66
396.773	11.59
396.98	11.93
397.188	11.82
397.395	11.54
397.602	11.41
397.81	11.16
398.017	11.12
398.225	11
398.432	10.56
398.639	10.66
398.847	10.3
399.054	10.36
399.261	9.98
399.468	9.99
399.676	10.46
399.883	10.32
400.09	10.42
400.297	10.45
400.505	10.23
400.712	10.37
400.919	10.57
401.126	10.67
401.333	10.79
401.54	10.77
401.748	10.81
401.955	10.45
402.162	10.34
402.369	10.24
402.576	10.16
402.783	9.84
402.99	9.97
403.197	9.65
403.404	9.72
403.611	9.58
403.818	9.77
404.025	9.63
404.232	9.66
404.439	9.68
404.646	9.56
404.853	9.44
405.06	9.26
405.267	9
405.474	9.39
405.681	9.24
405.887	9.26
406.094	9.15
406.301	8.83
406.508	8.76
406.715	9.03
406.922	9.04
407.128	9.51
407.335	9.69
407.542	9.64
407.749	9.25
407.955	9.49
408.162	9.15
408.369	8.98
408.575	9.59
408.782	9.53
408.989	9.16
409.195	9.06
409.402	8.86
409.609	8.76
409.815	8.72
410.022	8.67
410.228	8.7
410.435	9.09
410.642	9.15
410.848	8.8
411.055	8.71
411.261	8.88
411.468	9.28
411.674	9.13
411.881	9.43
412.087	9.36
412.294	9.5
412.5	9.56
412.706	9.29
412.913	8.98
413.119	8.89
413.326	8.98
413.532	8.94
413.738	8.48
413.945	7.99
414.151	8.11
414.357	8.29
414.564	8.23
414.77	8.13
414.976	8.41
415.182	8.85
415.389	8.8
415.595	8.49
415.801	8.63
416.007	8.78
416.214	8.91
416.42	8.53
416.626	8.49
416.832	8.5
417.038	8.62
417.244	8.46
417.45	8.21
417.657	8.31
417.863	8.21
418.069	8.16
418.275	8.16
418.481	8.14
418.687	8.31
418.893	8.28
419.099	8.39
419.305	8.05
419.511	8.01
419.717	7.96
419.923	7.94
420.129	8.17
420.335	8.11
420.541	7.91
420.746	7.97
420.952	7.92
421.158	7.96
421.364	7.73
421.57	7.84
421.776	7.84
421.982	8.04
422.187	7.96
422.393	7.79
422.599	7.73
422.805	7.75
423.01	7.77
423.216	7.72
423.422	7.76
423.628	7.89
423.833	7.75
424.039	7.67
424.245	7.55
424.45	7.54
424.656	7.64
424.862	7.56
425.067	7.57
425.273	7.59
425.478	7.7
425.684	7.72
425.889	7.72
426.095	7.88
426.301	8.04
426.506	7.95
426.712	8.12
426.917	8
427.123	8.05
427.328	8.1
427.533	8.03
427.739	7.87
427.944	7.65
428.15	7.61
428.355	7.48
428.561	7.47
428.766	7.67
428.971	7.47
429.177	7.48
429.382	7.57
429.587	7.64
429.793	7.82
429.998	8
430.203	8.09
430.408	8.07
430.614	8.26
430.819	7.91
431.024	7.68
431.229	7.82
431.434	7.88
431.64	7.88
431.845	7.65
432.05	7.39
432.255	7.11
432.46	7.16
432.665	7.08
432.87	6.92
433.076	7.03
433.281	7.05
433.486	6.94
433.691	7
433.896	7.09
434.101	7.15
434.306	7.22
434.511	7.29
434.716	7.17
434.921	7.35
435.126	7.43
435.331	7.47
435.535	7.43
435.74	7.36
435.945	7.21
436.15	7.08
436.355	7.3
436.56	7.3
436.765	7.46
436.97	7.51
437.174	7.58
437.379	7.53
437.584	7.45
437.789	7.61
437.993	7.84
438.198	7.88
438.403	7.9
438.608	7.73
438.812	7.69
439.017	7.51
439.222	7.53
439.426	7.32
439.631	7.28
439.836	7.47
440.04	7.46
440.245	7.35
440.45	7.35
440.654	7.43
440.859	7.4
441.063	7.5
441.268	7.57
441.472	7.48
441.677	7.43
441.881	7.38
442.086	7.23
442.29	7.16
442.495	7.09
442.699	7.1
442.904	6.8
443.108	7
443.312	6.86
443.517	6.89
443.721	6.83
443.925	6.8
444.13	6.73
444.334	6.59
444.538	6.52
444.743	6.61
444.947	6.67
445.151	6.97
445.356	6.95
445.56	7.05
445.764	6.99
445.968	7.06
446.173	7.1
446.377	7.17
446.581	7.28
446.785	7.4
446.989	7.37
447.193	7.32
447.398	7.27
447.602	7
447.806	6.92
448.01	6.99
448.214	7.08
448.418	6.97
448.622	7.06
448.826	6.99
449.03	6.87
449.234	6.98
449.438	7.09
449.642	6.89
449.846	7.08
450.05	6.92
450.254	6.68
450.458	6.39
450.662	6.75
450.866	6.72
451.069	6.97
451.273	6.93
451.477	6.8
451.681	6.75
451.885	6.82
452.089	6.89
452.292	6.9
452.496	6.97
452.7	7.15
452.904	6.87
453.107	6.81
453.311	6.48
453.515	6.65
453.719	6.54
453.922	6.49
454.126	6.64
454.33	6.51
454.533	6.63
454.737	6.75
454.94	6.62
455.144	6.88
455.348	6.9
455.551	7.11
455.755	7.13
455.958	7.2
456.162	7.29
456.365	7.16
456.569	7.15
456.772	7.1
456.976	7
457.179	7.19
457.383	7.04
457.586	7.02
457.79	7.07
457.993	6.94
458.196	7.07
458.4	7.15
458.603	7.13
458.807	7.25
459.01	7.23
459.213	7.21
459.417	7.16
459.62	7.09
459.823	7.13
460.026	7.08
460.23	7.1
460.433	6.95
460.636	6.77
460.839	6.71
461.042	6.54
461.246	6.62
461.449	6.68
461.652	6.64
461.855	6.71
462.058	6.59
462.261	6.59
462.464	6.4
462.668	6.37
462.871	6.44
463.074	6.45
463.277	6.58
463.48	6.45
463.683	6.55
463.886	6.5
464.089	6.4
464.292	6.38
464.495	6.52
464.698	6.56
464.901	6.54
465.104	6.45
465.306	6.4
465.509	6.48
465.712	6.58
465.915	6.51
466.118	6.57
466.321	6.73
466.524	6.79
466.726	6.68
466.929	6.72
467.132	6.7
467.335	6.93
467.538	7.08
467.74	6.9
467.943	6.73
468.146	6.59
468.348	6.58
468.551	6.23
468.754	6.34
468.956	6.38
469.159	6.33
469.362	6.57
469.564	6.43
469.767	6.51
469.969	6.67
470.172	6.9
470.375	6.95
470.577	7.03
470.78	7.34
470.982	7.24
471.185	7.24
471.387	7.39
471.59	7.26
471.792	7.13
471.995	7.15
472.197	7.13
472.399	7.29
472.602	7.26
472.804	7.16
473.007	7.11
473.209	7.12
473.411	6.88
473.614	7.06
473.816	7.11
474.018	7.29
474.22	7.31
474.423	7.19
474.625	7.11
474.827	7.26
475.03	7.3
475.232	7.25
475.434	7.19
475.636	7.36
475.838	7.02
476.04	7.07
476.243	6.93
476.445	6.86
476.647	6.8
476.849	6.71
477.051	6.62
477.253	6.74
477.455	6.71
477.657	6.75
477.859	6.63
478.061	6.61
478.263	6.52
478.465	6.54
478.667	6.36
478.869	6.31
479.071	6.3
479.273	6.19
479.475	5.99
479.677	6.13
479.879	6.08
480.081	6.06
480.283	6.21
480.485	6.16
480.686	6.33
480.888	6.48
481.09	6.56
481.292	6.38
481.494	6.42
481.695	6.44
481.897	6.38
482.099	6.42
482.301	6.47
482.502	6.29
482.704	6.34
482.906	6.23
483.107	6.16
483.309	6.17
483.511	6.18
483.712	6.2
483.914	6.2
484.115	6.16
484.317	6.16
484.519	6.16
484.72	6.22
484.922	6.18
485.123	6.17
485.325	6.25
485.526	6.22
485.728	6.26
485.929	6.24
486.131	6.18
486.332	6.18
486.534	6.16
486.735	6.13
486.936	6.16
487.138	6.17
487.339	6.18
487.541	6.1
487.742	6.12
487.943	6.12
488.144	6.19
488.346	6.28
488.547	6.27
488.748	6.28
488.95	6.31
489.151	6.31
489.352	6.26
489.553	6.3
489.755	6.36
489.956	6.37
490.157	6.33
490.358	6.16
490.559	6.03
490.76	6.08
490.961	5.99
491.163	6.06
491.364	5.98
491.565	5.97
491.766	6.01
491.967	6.01
492.168	6
492.369	6.01
492.57	6.13
492.771	6.23
492.972	6.17
493.173	6.32
493.374	6.31
493.575	6.42
493.776	6.62
493.976	6.52
494.177	6.44
494.378	6.5
494.579	6.66
494.78	6.76
494.981	6.79
495.182	6.97
495.382	6.98
495.583	7
495.784	6.99
495.985	7.02
496.185	6.98
496.386	7.13
496.587	7.19
496.788	7.08
496.988	6.84
497.189	6.93
497.39	6.93
497.59	6.85
497.791	6.67
497.992	6.64
498.192	6.55
498.393	6.64
498.593	6.58
498.794	6.6
498.994	6.69
499.195	6.76
499.395	6.7
499.596	6.72
499.796	6.73
499.997	6.98
500.197	7.05
500.398	7.05
500.598	6.91
500.799	7.07
500.999	6.96
501.199	6.94
501.4	7.07
501.6	7.02
501.801	6.9
502.001	6.98
502.201	6.76
502.402	6.74
502.602	6.66
502.802	6.87
503.002	6.73
503.203	6.91
503.403	6.89
503.603	6.94
503.803	7.02
504.003	7.15
504.204	7.21
504.404	7.58
504.604	7.6
504.804	7.83
505.004	7.73
505.204	7.87
505.404	7.92
505.604	7.97
505.804	8.02
506.005	8.08
506.205	8.03
506.405	8.03
506.605	7.93
506.805	8.06
507.005	8.03
507.204	8.08
507.404	8.01
507.604	8
507.804	8.06
508.004	7.99
508.204	7.89
508.404	8.04
508.604	8.12
508.804	8.16
509.003	8.27
509.203	8.35
509.403	8.53
509.603	8.63
509.803	8.7
510.002	8.72
510.202	8.87
510.402	9.05
510.602	9.03
510.801	9.1
511.001	9.11
511.201	9.09
511.4	9.02
511.6	9.05
511.8	9.07
511.999	9.14
512.199	9.08
512.398	9.1
512.598	9.18
512.797	9.55
512.997	9.64
513.197	9.72
513.396	9.74
513.596	9.88
513.795	10
513.994	10.09
514.194	10.14
514.393	10.27
514.593	10.34
514.792	10.49
514.992	10.32
515.191	10.29
515.39	10.35
515.59	10.43
515.789	10.53
515.988	10.65
516.188	10.76
516.387	10.84
516.586	11.06
516.786	11.18
516.985	11.18
517.184	11.28
517.383	11.55
517.582	11.58
517.782	11.72
517.981	11.89
518.18	11.82
518.379	11.89
518.578	11.92
518.777	12.08
518.976	12.19
519.176	12.34
519.375	12.25
519.574	12.25
519.773	12.38
519.972	12.46
520.171	12.55
520.37	12.68
520.569	12.83
520.768	13.11
520.967	13.07
521.166	13.25
521.365	13.35
521.564	13.66
521.762	13.79
521.961	13.84
522.16	13.93
522.359	14.01
522.558	14.03
522.757	14.03
522.956	13.98
523.154	14.21
523.353	14.17
523.552	14.16
523.751	14.23
523.949	14.43
524.148	14.6
524.347	14.77
524.546	15
524.744	15.3
524.943	15.48
525.142	15.47
525.34	15.57
525.539	15.74
525.737	15.95
525.936	16.08
526.135	16.14
526.333	16.28
526.532	16.27
526.73	16.29
526.929	16.45
527.127	16.59
527.326	16.8
527.524	16.91
527.723	17.01
527.921	17.12
528.12	17.28
528.318	17.36
528.516	17.45
528.715	17.57
528.913	17.59
529.112	17.64
529.31	17.66
529.508	17.71
529.707	17.74
529.905	17.84
530.103	17.79
530.301	17.79
530.5	17.89
530.698	17.93
530.896	18.03
531.094	18.25
531.293	18.35
531.491	18.51
531.689	18.61
531.887	18.76
532.085	18.83
532.283	19.03
532.481	19.13
532.68	19.29
532.878	19.34
533.076	19.51
533.274	19.49
533.472	19.53
533.67	19.65
533.868	19.82
534.066	19.91
534.264	20
534.462	20.07
534.66	20.19
534.858	20.25
535.056	20.54
535.253	20.55
535.451	20.7
535.649	20.83
535.847	20.9
536.045	20.94
536.243	21.05
536.441	21.2
536.638	21.28
536.836	21.39
537.034	21.46
537.232	21.39
537.43	21.49
537.627	21.48
537.825	21.57
538.023	21.69
538.22	21.87
538.418	21.97
538.616	22.06
538.813	22.21
539.011	22.22
539.209	22.37
539.406	22.43
539.604	22.62
539.801	22.82
539.999	22.97
540.196	22.98
540.394	22.98
540.591	22.97
540.789	23.08
540.986	23.12
541.184	23.27
541.381	23.3
541.579	23.36
541.776	23.38
541.974	23.43
542.171	23.4
542.368	23.44
542.566	23.47
542.763	23.56
542.96	23.55
543.158	23.72
543.355	23.72
543.552	23.75
543.75	23.91
543.947	24.05
544.144	24.15
544.341	24.26
544.539	24.37
544.736	24.53
544.933	24.58
545.13	24.62
545.327	24.52
545.524	24.6
545.722	24.64
545.919	24.59
546.116	24.53
546.313	24.49
546.51	24.61
546.707	24.76
546.904	24.72
547.101	24.84
547.298	25.03
547.495	25.14
547.692	25.18
547.889	25.2
548.086	25.3
548.283	25.5
548.48	25.62
548.677	25.71
548.874	25.55
549.07	25.82
549.267	25.88
549.464	25.78
549.661	25.96
549.858	26.07
550.055	26.3
550.251	26.23
550.448	26.11
550.645	26.16
550.842	26.23
551.038	26.5
551.235	26.55
551.432	26.72
551.628	26.97
551.825	27.06
552.022	27.12
552.218	27
552.415	27.24
552.612	27.41
552.808	27.45
553.005	27.3
553.201	27.14
553.398	27.04
553.594	26.96
553.791	27.02
553.987	26.99
554.184	26.99
554.38	26.88
554.577	26.97
554.773	27.13
554.97	27.26
555.166	27.52
555.362	27.66
555.559	27.75
555.755	27.88
555.952	27.76
556.148	27.9
556.344	27.97
556.541	28.29
556.737	28.25
556.933	28.13
557.129	28.08
557.326	28.18
557.522	28.37
557.718	28.47
557.914	28.61
558.11	28.52
558.307	28.35
558.503	28.55
558.699	28.69
558.895	28.85
559.091	28.91
559.287	29.08
559.483	29.16
559.679	29.05
559.876	28.87
560.072	28.75
560.268	28.91
560.464	28.99
560.66	28.94
560.856	29.18
561.052	29.16
561.247	29.04
561.443	28.94
561.639	28.94
561.835	29.18
562.031	29.34
562.227	29.57
562.423	29.73
562.619	29.98
562.815	30.07
563.01	30.06
563.206	30.08
563.402	30.26
563.598	30.52
563.793	30.72
563.989	30.78
564.185	30.82
564.381	30.67
564.576	30.72
564.772	30.51
564.968	30.66
565.163	30.63
565.359	30.57
565.555	30.59
565.75	30.55
565.946	30.44
566.141	30.39
566.337	30.53
566.532	30.68
566.728	30.71
566.923	30.71
567.119	30.73
567.314	30.72
567.51	30.76
567.705	30.77
567.901	30.81
568.096	30.8
568.292	31.06
568.487	31.06
568.682	30.99
568.878	31.16
569.073	31.13
569.268	30.97
569.464	31.02
569.659	31.11
569.854	31.17
570.05	31
570.245	31.17
570.44	30.93
570.635	30.95
570.831	31.11
571.026	31.04
571.221	31.5
571.416	31.58
571.611	31.46
571.806	31.39
572.002	31.55
572.197	31.75
572.392	31.78
572.587	31.82
572.782	31.8
572.977	31.83
573.172	31.84
573.367	31.57
573.562	31.69
573.757	31.74
573.952	31.62
574.147	31.51
574.342	31.47
574.537	31.26
574.732	31.23
574.927	31.21
575.121	31.05
575.316	31.02
575.511	31.04
575.706	30.93
575.901	31.06
576.096	31.43
576.29	31.43
576.485	31.48
576.68	31.6
576.875	31.58
577.069	31.67
577.264	31.65
577.459	31.82
577.654	32.03
577.848	32.18
578.043	32.28
578.238	32.2
578.432	32.18
578.627	32.09
578.821	32.42
579.016	32.45
579.21	32.66
579.405	32.92
579.6	32.87
579.794	32.71
579.989	32.7
580.183	32.81
580.378	32.82
580.572	33.22
580.766	33.29
580.961	32.81
581.155	32.95
581.35	32.72
581.544	32.49
581.738	32.76
581.933	32.95
582.127	32.98
582.321	32.74
582.516	32.74
582.71	32.52
582.904	32.67
583.099	33.1
583.293	33.15
583.487	33.12
583.681	33.42
583.875	33.04
584.07	32.9
584.264	32.92
584.458	33.03
584.652	33.03
584.846	33.1
585.04	33.01
585.234	33.1
585.428	33.23
585.623	33.54
585.817	33.45
586.011	33.41
586.205	33.39
586.399	33.64
586.593	33.69
586.787	33.72
586.981	33.7
587.174	33.76
587.368	33.66
587.562	33.57
587.756	33.44
587.95	33.63
588.144	33.79
588.338	33.79
588.532	33.47
588.725	33.55
588.919	33.76
589.113	33.73
589.307	34.06
589.501	33.79
589.694	33.9
589.888	33.9
590.082	33.57
590.275	33.51
590.469	33.67
590.663	33.84
590.856	33.73
591.05	33.56
591.244	33.67
591.437	33.7
591.631	33.86
591.824	33.55
592.018	33.75
592.212	34.16
592.405	34.31
592.599	34.38
592.792	34.35
592.986	34.29
593.179	34.14
593.372	34.19
593.566	33.75
593.759	33.93
593.953	34.24
594.146	34.11
594.339	34.12
594.533	34.27
594.726	34.15
594.92	34.06
595.113	34.17
595.306	34.15
595.499	34.1
595.693	34.39
595.886	34.53
596.079	34.69
596.272	34.77
596.466	34.73
596.659	34.55
596.852	34.73
597.045	34.86
597.238	34.91
597.431	35.16
597.624	35.32
597.818	35.18
598.011	34.96
598.204	34.75
598.397	34.64
598.59	34.69
598.783	34.72
598.976	34.81
599.169	34.89
599.362	35.11
599.555	34.86
599.748	34.68
599.941	34.86
600.134	35.03
600.326	35.25
600.519	35.51
600.712	35.59
600.905	35.75
601.098	35.64
601.291	35.76
601.483	35.26
601.676	35.42
601.869	35.22
602.062	35.37
602.255	35.48
602.447	35.25
602.64	35.21
602.833	35.16
603.025	35.18
603.218	35.11
603.411	34.97
603.603	35.05
603.796	35.19
603.989	35.29
604.181	35.25
604.374	35.13
604.566	35.28
604.759	35.08
604.951	35.22
605.144	35.25
605.336	35.45
605.529	35.52
605.721	35.53
605.914	35.68
606.106	35.81
606.299	35.84
606.491	36.1
606.683	36.17
606.876	36.47
607.068	36.17
607.26	35.98
607.453	35.65
607.645	35.51
607.837	35.8
608.03	35.44
608.222	35.47
608.414	35.42
608.606	35.13
608.799	35.02
608.991	35.13
609.183	35.24
609.375	35.53
609.567	35.74
609.759	35.94
609.952	35.7
610.144	35.72
610.336	35.67
610.528	35.81
610.72	35.82
610.912	36.17
611.104	36.09
611.296	35.86
611.488	35.93
611.68	35.85
611.872	35.55
612.064	36.1
612.256	36.17
612.448	36.36
612.64	36.26
612.832	36.54
613.023	36.13
613.215	36.22
613.407	36.26
613.599	35.94
613.791	36.02
613.983	36.01
614.174	35.59
614.366	35.69
614.558	35.6
614.75	35.83
614.941	35.83
615.133	35.59
615.325	35.54
615.516	36.35
615.708	36.69
615.9	36.8
616.091	37.1
616.283	37.26
616.475	37.09
616.666	36.96
616.858	36.85
617.049	36.61
617.241	36.91
617.432	36.74
617.624	36.26
617.815	35.99
618.007	35.91
618.198	35.82
618.39	35.99
618.581	36.16
618.773	36.27
618.964	36.31
619.155	36.21
619.347	36.27
619.538	36.41
619.729	36.67
619.921	36.83
620.112	36.92
620.303	36.99
620.494	36.75
620.686	36.8
620.877	36.92
621.068	36.88
621.259	36.97
621.451	37.11
621.642	36.98
621.833	36.84
622.024	36.6
622.215	36.53
622.406	36.39
622.597	36.25
622.788	36.12
622.98	35.87
623.171	35.82
623.362	35.91
623.553	35.99
623.744	36
623.935	35.8
624.126	35.82
624.317	35.73
624.508	35.87
624.698	35.92
624.889	36.04
625.08	36.35
625.271	36.3
625.462	36.36
625.653	36.12
625.844	36.1
626.034	36.32
626.225	36.43
626.416	36.39
626.607	36.49
626.798	36.65
626.988	36.66
627.179	36.53
627.37	36.45
627.56	36.51
627.751	36.96
627.942	36.97
628.132	36.76
628.323	36.78
628.514	36.92
628.704	36.82
628.895	36.77
629.085	36.52
629.276	36.57
629.466	36.68
629.657	36.23
629.847	35.86
630.038	36.38
630.228	36.6
630.419	36.88
630.609	36.92
630.8	37.03
630.99	37.36
631.181	37.79
631.371	37.83
631.561	37.86
631.752	38.32
631.942	38.37
632.132	37.73
632.323	37.54
632.513	37.06
632.703	36.79
632.893	36.6
633.084	36.27
633.274	36.16
633.464	35.97
633.654	36.05
633.844	36.22
634.034	36.03
634.225	36.07
634.415	36.23
634.605	36.6
634.795	36.8
634.985	37.04
635.175	37.14
635.365	37.17
635.555	37.38
635.745	37.31
635.935	37.25
636.125	37.46
636.315	37.73
636.505	37.51
636.695	37.18
636.885	37.06
637.075	37.04
637.265	36.73
637.455	37.08
637.644	37.2
637.834	37.13
638.024	36.97
638.214	37.27
638.404	37.23
638.593	37.17
638.783	37.4
638.973	37.57
639.163	37.68
639.352	37.95
639.542	37.69
639.732	37.6
639.921	37.89
640.111	37.95
640.301	37.48
640.49	37.66
640.68	38.03
640.87	38.27
641.059	38.14
641.249	38.56
641.438	38.15
641.628	37.95
641.817	38.48
642.007	38.33
642.196	38.57
642.386	38.65
642.575	38.9
642.764	38.78
642.954	38.53
643.143	38.69
643.333	38.4
643.522	38.9
643.711	38.83
643.901	38.28
644.09	38.25
644.279	38.47
644.469	38.43
644.658	38.19
644.847	38.5
645.036	38.66
645.226	38.87
645.415	39.08
645.604	38.84
645.793	39.2
645.982	39.02
646.171	39.11
646.361	38.58
646.55	39.17
646.739	39.04
646.928	38.84
647.117	38.57
647.306	38.44
647.495	38.06
647.684	38.17
647.873	38.12
648.062	38.24
648.251	38.06
648.44	38.14
648.629	37.36
648.818	37.32
649.007	37.27
649.196	37.29
649.384	36.85
649.573	36.96
649.762	36.91
649.951	36.86
650.14	37.21
650.328	37.28
650.517	37.12
650.706	37.56
650.895	37.79
651.083	37.97
651.272	38.35
651.461	38.59
651.65	38.18
651.838	38.08
652.027	38.01
652.216	37.79
652.404	37.44
652.593	37.71
652.781	37.36
652.97	36.68
653.158	36.13
653.347	35.62
653.535	35.74
653.724	36.14
653.912	36.9
654.101	36.68
654.289	36.74
654.478	36.94
654.666	36.87
654.855	37.02
655.043	37.72
655.231	38.22
655.42	38.55
655.608	38.78
655.796	38.4
655.985	38
656.173	38.29
656.361	37.89
656.55	38.01
656.738	38.07
656.926	37.94
657.114	37.3
657.302	37.4
657.491	37.27
657.679	37.07
657.867	37.31
658.055	37.42
658.243	37.54
658.431	37.91
658.619	38.11
658.807	38.24
658.996	38.41
659.184	38.56
659.372	38.54
659.56	38.76
659.748	38.72
659.936	38.74
660.124	38.42
660.311	38.49
660.499	38.22
660.687	37.89
660.875	37.68
661.063	37.77
661.251	37.82
661.439	37.94
661.627	37.89
661.814	38.15
662.002	38.08
662.19	38.64
662.378	38.38
662.565	39.02
662.753	39.31
662.941	39.88
663.129	39.35
663.316	39.73
663.504	39.36
663.692	39.12
663.879	38.73
664.067	38.55
664.254	38.15
664.442	38.36
664.63	37.9
664.817	38.14
665.005	37.33
665.192	37.9
665.38	37.98
665.567	38.02
665.755	38.15
665.942	37.98
666.13	38.25
666.317	37.87
666.504	38.02
666.692	38.38
666.879	37.7
667.067	38.22
667.254	38.3
667.441	38.09
667.629	38.21
667.816	38.23
668.003	38.7
668.19	39.04
668.378	39.68
668.565	39.39
668.752	38.86
668.939	39.53
669.127	39.34
669.314	38.83
669.501	39.25
669.688	39.27
669.875	39.35
670.062	39.4
670.249	39.03
670.436	38.97
670.623	38.8
670.81	38.83
670.997	38.36
671.184	38.2
671.371	38.71
671.558	38.28
671.745	38.07
671.932	37.55
672.119	37.21
672.306	37.53
672.493	36.97
672.68	37.36
672.867	37.76
673.054	38
673.24	38.14
673.427	38.23
673.614	38.31
673.801	38.75
673.988	39.58
674.174	39.85
674.361	39.49
674.548	39.55
674.734	39.41
674.921	39.14
675.108	38.95
675.294	39.53
675.481	39.37
675.668	39.28
675.854	39.09
676.041	39.14
676.227	39.04
676.414	39.35
676.601	39.66
676.787	39.64
676.974	39.85
677.16	40.09
677.347	39.75
677.533	39.75
677.719	40.14
677.906	40.35
678.092	39.82
678.279	40.08
678.465	39.79
678.651	39.57
678.838	39.36
679.024	39.49
679.21	39.28
679.397	38.65
679.583	38.83
679.769	38.7
679.955	38.5
680.142	38.55
680.328	38.67
680.514	38.86
680.7	38.58
680.886	38.66
681.073	38.59
681.259	38.99
681.445	39.64
681.631	39.11
681.817	39.14
682.003	39.19
682.189	39.06
682.375	38.75
682.561	38.71
682.747	38.83
682.933	38.93
683.119	38.47
683.305	38.04
683.491	38.11
683.677	38.63
683.863	38.79
684.049	38.67
684.235	39.01
684.42	39.37
684.606	39.4
684.792	39.94
684.978	40.2
685.164	40.48
685.349	40.89
685.535	41.04
685.721	40.88
685.907	40.38
686.092	40.59
686.278	40.41
686.464	40.4
686.649	40.52
686.835	40.16
687.021	40.2
687.206	40.18
687.392	40.2
687.577	40.14
687.763	40.67
687.948	40.62
688.134	40.47
688.319	40.73
688.505	40.31
688.69	40.44
688.876	40.59
689.061	40.37
689.247	40.29
689.432	40.06
689.618	39.41
689.803	39.01
689.988	39.27
690.174	39.62
690.359	39
690.544	38.97
690.73	38.4
690.915	38.37
691.1	38.02
691.285	38.31
691.471	38.58
691.656	39.13
691.841	39.21
692.026	39.3
692.211	39.15
692.396	39.57
692.582	40.37
692.767	40.62
692.952	40.88
693.137	41.46
693.322	41.5
693.507	41.04
693.692	40.85
693.877	40.56
694.062	40.43
694.247	40.72
694.432	40.57
694.617	40.14
694.802	40.26
694.987	40.53
695.172	40.45
695.357	40.81
695.541	40.85
695.726	41.52
695.911	42.26
696.096	42.43
696.281	41.74
696.466	42.04
696.65	42.12
696.835	42.07
697.02	41.47
697.204	41.9
697.389	41.23
697.574	41.18
697.759	40.41
697.943	39.64
698.128	39.5
698.312	40
698.497	40.25
698.682	39.83
698.866	39.83
699.051	40.09
699.235	39.59
699.42	39.64
699.604	39.46
699.789	39.79
699.973	40.16
700.158	40.15
700.342	39.66
700.527	39.43
700.711	39.95
700.895	40.23
701.08	39.97
701.264	39.91
701.448	39.82
701.633	40.25
701.817	40.51
702.001	40.79
702.186	41.27
702.37	40.65
702.554	41.12
702.738	41.18
702.923	40.48
703.107	40.31
703.291	40.59
703.475	41.28
703.659	41.25
703.843	40.9
704.027	40.32
704.212	38.96
704.396	40.33
704.58	39.78
704.764	38.81
704.948	39.15
705.132	40.31
705.316	40.44
705.5	40.41
705.684	40.3
705.868	40.5
706.052	40.94
706.235	41.92
706.419	41.84
706.603	41.71
706.787	41.95
706.971	41.8
707.155	41.46
707.339	40.6
707.522	40.67
707.706	40.83
707.89	40.06
708.074	39.69
708.257	39.25
708.441	39.4
708.625	39.37
708.808	39.53
708.992	39.68
709.176	39.39
709.359	40.33
709.543	40.31
709.727	40.37
709.91	40.49
710.094	40.62
710.277	41.76
710.461	41.59
710.644	42.12
710.828	42.74
711.011	42
711.195	42.2
711.378	42.33
711.562	41.87
711.745	41.67
711.928	42.05
712.112	41.84
712.295	40.94
712.478	41.18
712.662	41.06
712.845	41.01
713.028	42.03
713.212	42.23
713.395	41.45
713.578	42.02
713.761	42.54
713.945	42.18
714.128	42.44
714.311	42.12
714.494	42.04
714.677	41.85
714.86	41.23
715.043	40.97
715.227	40.37
715.41	41.33
715.593	40.52
715.776	40.27
715.959	40.77
716.142	40.7
716.325	41.5
716.508	41.34
716.691	40.78
716.874	41.12
717.057	40.86
717.239	40.46
717.422	39.71
717.605	40.41
717.788	39.79
717.971	39.48
718.154	39.48
718.337	38.93
718.519	37.96
718.702	38.67
718.885	38.39
719.068	38.99
719.25	40.27
719.433	40.84
719.616	40.78
719.798	42.09
719.981	42.13
720.164	42.2
720.346	43.13
720.529	44.2
720.712	43.82
720.894	44.89
721.077	44.64
721.259	43.85
721.442	44.33
721.624	44.29
721.807	43.39
721.989	42.94
722.172	43.61
722.354	42.88
722.537	42.24
722.719	42.26
722.901	42.11
723.084	41.78
723.266	42.25
723.448	42.1
723.631	41.44
723.813	42.22
723.995	43.07
724.178	43.18
724.36	43.65
724.542	44.08
724.724	44.63
724.907	44.96
725.089	45.88
725.271	45.43
725.453	45.08
725.635	45.74
725.817	45.49
725.999	44.86
726.181	44.7
726.364	44.18
726.546	43.68
726.728	42.99
726.91	41.64
727.092	40.93
727.274	41.02
727.456	41.55
727.638	41.07
727.819	41.39
728.001	41.28
728.183	40.45
728.365	41.39
728.547	42.2
728.729	42.71
728.911	43.43
729.093	43.86
729.274	43.1
729.456	42.12
729.638	42.72
729.82	42.45
730.001	42.82
730.183	43.25
730.365	42.76
730.546	42.36
730.728	41.5
730.91	41.18
731.091	41.16
731.273	41.93
731.455	42.08
731.636	42.24
731.818	42.61
731.999	42.45
732.181	41.93
732.362	41.99
732.544	42.64
732.725	43.06
732.907	42.83
733.088	43.19
733.27	43.76
733.451	43.82
733.633	43.04
733.814	43.11
733.995	43.22
734.177	44.34
734.358	44.01
734.539	44
734.721	44.86
734.902	46.04
735.083	45.31
735.264	44.24
735.446	45.27
735.627	45.27
735.808	45.08
735.989	45.38
736.17	44.63
736.351	45.3
736.533	44.91
736.714	44.38
736.895	43.38
737.076	43.63
737.257	44.84
737.438	43.05
737.619	44.07
737.8	42.73
737.981	43.03
738.162	42.64
738.343	42.18
738.524	42.14
738.705	42.5
738.886	42.03
739.067	42.36
739.247	41.85
739.428	42.31
739.609	41.28
739.79	42.86
739.971	42.58
740.151	43.41
740.332	43.21
740.513	43.47
740.694	42.94
740.874	42.43
741.055	41.78
741.236	42.48
741.417	43.04
741.597	43.23
741.778	43.16
741.958	42.4
742.139	41.69
742.32	41.95
742.5	41.58
742.681	42
742.861	43.05
743.042	43.06
743.222	41.88
743.403	40.93
743.583	41.88
743.764	41.02
743.944	42.01
744.124	42.3
744.305	41.89
744.485	41.6
744.666	41.43
744.846	41.91
745.026	42.75
745.207	43.14
745.387	43.45
745.567	43.64
745.747	43.78
745.928	42.9
746.108	42.77
746.288	43.41
746.468	44.54
746.648	44.31
746.829	44.29
747.009	43.77
747.189	43.5
747.369	44.01
747.549	43.25
747.729	42.87
747.909	43.36
748.089	43.19
748.269	42.76
748.449	41.65
748.629	42.57
748.809	41.87
748.989	42.03
749.169	43.33
749.349	43.27
749.529	44.29
749.709	45.05
749.889	46.15
750.068	46.69
750.248	47.03
750.428	47.77
750.608	46.7
750.788	47.1
750.967	46.98
751.147	44.98
751.327	45
751.507	43.96
751.686	44.13
751.866	42.75
752.046	42.23
752.225	41.69
752.405	41.57
752.585	41.52
752.764	41.24
752.944	40.93
753.123	41.52
753.303	41.18
753.482	41.07
753.662	40.73
753.841	40.95
754.021	40.51
754.2	40.97
754.38	40.66
754.559	41.65
754.739	42.28
754.918	42.59
755.097	42.63
755.277	42
755.456	42.82
755.635	42.14
755.815	43
755.994	44.87
756.173	44.41
756.352	44.08
756.532	44.01
756.711	43.5
756.89	44.03
757.069	45.01
757.248	44.75
757.427	44.17
757.607	44.56
757.786	43.21
757.965	42.2
758.144	43.18
758.323	44.07
758.502	44.35
758.681	43.93
758.86	43.85
759.039	42.29
759.218	42.9
759.397	43.72
759.576	43.19
759.755	43.59
759.934	43.83
760.113	43.96
760.291	43.64
760.47	43.62
760.649	45.2
760.828	44.56
761.007	45.49
761.186	45.96
761.364	45.42
761.543	45.76
761.722	47.03
761.901	45.55
762.079	44.6
762.258	43.41
762.437	42.46
762.615	41.2
762.794	41.4
762.972	41.18
763.151	40.55
763.33	40.69
763.508	41.07
763.687	41.02
763.865	41.79
764.044	41.85
764.222	42
764.401	42.1
764.579	42.69
764.758	42.79
764.936	42.84
765.114	43.58
765.293	43.12
765.471	42.95
765.65	41.94
765.828	42.6
766.006	42.64
766.184	42.78
766.363	42.61
766.541	41.92
766.719	41.02
766.898	41.6
767.076	41.11
767.254	41.5
767.432	41.54
767.61	41.96
767.788	41.47
767.967	40.65
768.145	41.13
768.323	41.81
768.501	42.01
768.679	42.15
768.857	41.18
769.035	40.97
769.213	41.84
769.391	42.46
769.569	42.2
769.747	41.75
769.925	42.21
770.103	41.75
770.281	39.46
770.459	38.4
770.636	38.73
770.814	40.92
770.992	42.76
771.17	42.15
771.348	41.07
771.525	42
771.703	42.55
771.881	42.83
772.059	44.54
772.236	43.54
772.414	45.39
772.592	46.31
772.769	43.01
772.947	41.93
773.125	41.12
773.302	41.91
773.48	40.21
773.657	40.6
773.835	39.78
774.013	40.49
774.19	42.86
774.368	42.45
774.545	41.89
774.723	42.61
774.9	42.33
775.077	42.7
775.255	42.97
775.432	43.92
775.61	43.43
775.787	43.89
775.964	42.01
776.142	43.12
776.319	42.46
776.496	43.7
776.674	45.43
776.851	47.75
777.028	47.85
777.205	48.49
777.382	49.15
777.56	49.38
777.737	50.34
777.914	50.78
778.091	50.14
778.268	50.97
778.445	51.34
778.622	50.74
778.8	48.09
778.977	49.62
779.154	48.28
779.331	47.97
779.508	48.73
779.685	48.31
779.862	49.67
780.038	51.68
780.215	52.8
780.392	50.68
780.569	49.8
780.746	51.58
780.923	49.22
781.1	47.49
781.277	47.2
781.453	45.4
781.63	46.89
781.807	46.81
781.984	43.79
782.16	43.57
782.337	46.63
782.514	46.71
782.691	45.78
782.867	47.3
783.044	51.82
783.221	51.19
783.397	51.17
783.574	48.91
783.75	47.76
783.927	50.92
784.103	49.83
784.28	48.69
784.456	47.49
784.633	46.87
784.809	46.73
784.986	42.44
785.162	44.41
785.339	44.58
785.515	45.54
785.692	46.22
785.868	44.07
786.044	44.66
786.221	46.98
786.397	51.03
786.573	50.7
786.749	51.02
786.926	51.34
787.102	49.81
787.278	50.45
787.454	52.35
787.631	52.11
787.807	53.51
787.983	55.51
788.159	53
788.335	52.52
788.511	52.36
788.687	52.1
788.863	54.12
789.039	52.55
789.216	52.99
789.392	52.06
789.568	49.75
789.744	49.95
789.919	47.11
790.095	47.67
790.271	47.4
790.447	48.42
790.623	48.39
790.799	47.12
790.975	47.99
791.151	48.59
791.327	47.17
791.502	49.24
791.678	47.16
791.854	48.74
792.03	46.32
792.205	45.21
792.381	45.34
792.557	43.57
792.733	42.29
792.908	42.61
793.084	43.37
793.259	43.61
793.435	41.72
793.611	41.9
793.786	41.78
793.962	43.66
794.137	44.44
794.313	42.02
794.488	43.29
794.664	45.97
794.839	46.63
795.015	44.23
795.19	42.64
795.366	44.72
795.541	45.89
795.716	41.79
795.892	41.55
796.067	40.71
796.242	44.25
796.418	44.76
796.593	42.93
796.768	42.52
796.944	42.61
797.119	43.77
797.294	44.66
797.469	44.89
797.644	47.88
797.82	46.01
797.995	46.54
798.17	44.89
798.345	44.62
798.52	44.75
798.695	45.92
798.87	46
799.045	46.58
799.22	45.4
799.395	44.79
799.57	45.97
799.745	47.55
799.92	45.45
800.095	45.85
800.27	46.43
800.445	46.07
800.62	43.23
800.795	44.92
800.97	46.52
801.145	47.68
801.319	46.48
801.494	46.1
801.669	49.1
801.844	49.94
802.018	47.93
802.193	46.16
802.368	46.77
802.543	48.03
802.717	47.65
802.892	45.88
803.067	46.8
803.241	48.86
803.416	46.88
803.59	47.16
803.765	48.12
803.94	50.93
804.114	49.86
804.289	52.73
804.463	52.51
804.638	49.31
804.812	48.71
804.986	46.27
805.161	45.25
805.335	47.24
805.51	43.27
805.684	43.93
805.858	42.88
806.033	45.74
806.207	42.06
806.381	44.31
806.556	46.14
806.73	45.38
806.904	46.58
807.078	47.83
807.253	47.24
807.427	48.18
807.601	47.78
807.775	47.97
807.949	48.84
808.123	49.11
808.298	49.27
808.472	48.96
808.646	51.76
808.82	50.93
808.994	49.79
809.168	48.79
809.342	47.55
809.516	44.58
809.69	44.01
809.864	41.79
810.038	44.4
810.212	44.87
810.385	44.72
810.559	46.46
810.733	46.6
810.907	46.32
811.081	47.13
811.255	50.24
811.428	51.85
811.602	52.06
811.776	52.92
811.95	52.15
812.123	53.01
812.297	54.52
812.471	53.98
812.644	57.43
812.818	54.54
812.992	57.87
813.165	59.16
813.339	60.39
813.512	62.05
813.686	62.88
813.86	60.24
814.033	54.68
814.207	53.4
814.38	48.76
814.554	44.23
814.727	48.95
814.9	46.22
815.074	42.71
815.247	41.51
815.421	39.85
815.594	38.94
815.767	41.16
815.941	41.93
816.114	45.82
816.287	45.53
816.46	47.29
816.634	43.74
816.807	44.34
816.98	46.53
817.153	50.01
817.327	54.46
817.5	52.4
817.673	51.79
817.846	52.65
818.019	48.25
818.192	52.91
818.365	49.18
818.538	51.73
818.711	50.79
818.884	47.64
819.057	44.96
819.23	41.99
819.403	43.66
819.576	43.38
819.749	46.04
819.922	47.38
820.095	45.28
820.268	47.49
820.441	46.79
820.614	45.67
820.786	46.46
820.959	48.7
821.132	46.01
821.305	43.45
821.477	43.27
821.65	41.48
821.823	41.37
821.996	41.66
822.168	41.9
822.341	41.89
822.514	42.1
822.686	42.4
822.859	41.47
823.031	41.64
823.204	41.97
823.376	42.37
823.549	42.78
823.722	42.58
823.894	42.09
824.067	42.36
824.239	41.73
824.411	41.83
824.584	41.77
824.756	41.71
824.929	41.84
825.101	42.76
825.273	42.47
825.446	42.83
825.618	43.54
825.79	43.82
825.963	43.58
826.135	44.34
826.307	43.95
826.479	43.68
826.652	44.33
826.824	45.64
826.996	44.49
827.168	44.59
827.34	44.08
827.512	43.92
827.684	43.42
827.856	42.25
828.029	42.34
828.201	42.69
828.373	42.71
828.545	42.43
828.717	41.8
828.889	40.98
829.061	41.2
829.232	41.67
829.404	41.72
829.576	43.14
829.748	44.97
829.92	46.54
830.092	46.95
830.264	46.57
830.436	46.12
830.607	46.69
830.779	49.41
830.951	50.67
831.123	50.06
831.294	49.58
831.466	48.79
831.638	47.52
831.809	45.71
831.981	47.38
832.153	49
832.324	50.21
832.496	50.61
832.667	50.29
832.839	47.97
833.011	48.9
833.182	49.05
833.354	48.38
833.525	48.86
833.697	47.33
833.868	45.32
834.039	46.13
834.211	47.28
834.382	46.23
834.554	46.41
834.725	45.34
834.896	42.96
835.068	42.95
835.239	43.53
835.41	45.13
835.581	45.37
835.753	47.17
835.924	46.67
836.095	46.75
836.266	45.77
836.438	45.4
836.609	45.24
836.78	47.17
836.951	48.5
837.122	46.87
837.293	45.23
837.464	46.43
837.635	44.98
837.806	43.82
837.977	41.07
838.148	44.28
838.319	44.69
838.49	46.35
838.661	44.99
838.832	46.11
839.003	47.36
839.174	47.72
839.345	48.55
839.516	48.21
839.687	52.05
839.857	51.24
840.028	51.67
840.199	50.25
840.37	52.61
840.54	54.47
840.711	51.58
840.882	54.21
841.053	56.17
841.223	54.47
841.394	60.36
841.564	62.75
841.735	66.88
841.906	63.04
842.076	62.88
842.247	60.07
842.417	60.04
842.588	59.22
842.758	61.44
842.929	61.48
843.099	64.72
843.27	57.22
843.44	56.89
843.611	55.66
843.781	55.96
843.951	61.73
844.122	58.03
844.292	53.53
844.462	57.96
844.633	54.75
844.803	51.34
844.973	49.03
845.144	54.09
845.314	48.29
845.484	48.8
845.654	51.5
845.824	47.57
845.995	50.94
846.165	62.24
846.335	60.32
846.505	69.26
846.675	74.5
846.845	74.83
847.015	78.15
847.185	84.9
847.355	89.73
847.525	91.78
847.695	95.86
847.865	101
848.035	86.01
848.205	83.18
848.375	74.82
848.545	69.24
848.715	64.3
848.884	58.09
849.054	52.18
849.224	53.83
849.394	54.85
849.564	48.74
849.733	56.78
849.903	56.63
850.073	54.76
850.243	52.55
850.412	51.11
850.582	54.52
850.752	56.45
850.921	58.05
851.091	58.73
851.26	59.72
851.43	61.22
851.599	54.29
851.769	55.4
851.939	67.74
852.108	75.49
852.278	78.3
852.447	85.79
852.616	82.36
852.786	73.5
852.955	66.88
853.125	60.13
853.294	67.98
853.463	65.24
853.633	61.47
853.802	61.48
853.971	64.04
854.141	60.55
854.31	49.85
854.479	30.59
854.648	58.8
854.818	63.39
854.987	72.95
855.156	74.05
855.325	80.1
855.494	90.91
855.663	79.79
855.832	66.4
856.001	66.57
856.171	59.8
856.34	79.31
856.509	66.64
856.678	72.55
856.847	60.92
857.016	46.16
857.185	42.49
857.353	50.19
857.522	52.72
857.691	48.36
857.86	46.28
858.029	60.54
858.198	65.45
858.367	62.27
858.535	62.07
858.704	60.35
858.873	68.79
859.042	70.56
859.21	64.75
859.379	48.78
859.548	48.62
859.717	55.3
859.885	55.56
860.054	45.8
860.222	47.28
860.391	45.31
860.56	51.45
860.728	53.15
860.897	52.65
861.065	46.45
861.234	52.54
861.402	53.46
861.571	56.2
861.739	56.53
861.908	58.96
862.076	70.88
862.244	78.96
862.413	76.12
862.581	77.23
862.749	77.65
862.918	79.84
863.086	89.49
863.254	108.04
863.423	111.88
863.591	98.91
863.759	102.73
863.927	98.43
864.096	100.01
864.264	101.84
864.432	93.24
864.6	94.04
864.768	98.16
864.936	90.97
865.104	75.72
865.272	71.52
865.44	74.16
865.608	71.89
865.776	83.84
865.944	82.93
866.112	80.08
866.28	82.79
866.448	84.14
866.616	97.99
866.784	95.88
866.952	94.85
867.12	114.75
867.288	124.45
867.455	139.71
867.623	118.81
867.791	105.68
867.959	114.88
868.127	108.69
868.294	101.28
868.462	79.1
868.63	76.79
868.797	76.92
868.965	62.34
869.133	57.38
869.3	46.22
869.468	60.47
869.636	61.94
869.803	57.4
869.971	57.85
870.138	52.97
870.306	50.45
870.473	51.53
870.641	48.4
870.808	44.57
870.975	45.21
871.143	49.96
871.31	44.87
871.478	31.92
871.645	31.66
871.812	40.75
871.98	45.46
872.147	38.22
872.314	37.18
872.482	37.22
872.649	48.13
872.816	48.83
872.983	54.81
873.15	58.7
873.318	74.64
873.485	71.83
873.652	69.99
873.819	65.71
873.986	89.99
874.153	102.02
874.32	112.96
874.487	116.94
874.654	125.13
874.821	116.29
874.988	112.61
875.155	108.81
875.322	102.2
875.489	95.04
875.656	88.3
875.823	62.85
875.99	50.07
876.157	47.42
876.324	45.59
876.49	51.08
876.657	53.94
876.824	58.36
876.991	55.15
877.157	63.59
877.324	71.6
877.491	74.1
877.658	69.92
877.824	66.43
877.991	70.81
878.157	71.26
878.324	69.51
878.491	62.07
878.657	59.04
878.824	66.3
878.99	59.6
879.157	57.46
879.323	56.77
879.49	66.73
879.656	73.22
879.823	77.46
879.989	76.71
880.156	75.61
880.322	77.61
880.488	77.59
880.655	58.13
880.821	59.64
880.987	61.54
881.154	58.06
881.32	58.3
881.486	58.84
881.652	58.53
881.819	57.61
881.985	58.28
882.151	62.25
882.317	57.33
882.483	61.11
882.649	61.15
882.816	56.12
882.982	54.5
883.148	49.9
883.314	46.89
883.48	44.04
883.646	44.76
883.812	45.04
883.978	43.65
884.144	44.37
884.31	45.73
884.476	44.61
884.642	46.08
884.807	46.71
884.973	47.71
885.139	48.94
885.305	49.59
885.471	48.06
885.637	48.77
885.802	49.54
885.968	51.25
886.134	51.4
886.3	54.13
886.465	54.32
886.631	54.72
886.797	58
886.962	58.63
887.128	65.61
887.293	68.04
887.459	63.49
887.625	62.86
887.79	60.82
887.956	54.78
888.121	50.14
888.287	49.66
888.452	54.76
888.618	47.47
888.783	51.76
