Data from CB_048_Reflection_3.txt Node
Date: Wed Nov 11 22:29:14 EST 2015
User: robert
Spectrometer: USB4E03001
Autoset integration time: false
Trigger mode: 4
Integration Time (sec): 1.000000E-1
Scans to average: 15
Electric dark correction enabled: true
Nonlinearity correction enabled: false
Boxcar width: 5
Stray light correction enabled: false
XAxis mode: Wavelengths
Stop averaging: false
Number of Pixels in Spectrum: 3648
>>>>>Begin Spectral Data<<<<<
177.566	-164.69
177.785	-2028.29
178.005	344.01
178.225	305.12
178.445	26.62
178.665	50.62
178.885	646.87
179.105	-149.61
179.324	-99.4
179.544	14.24
179.764	25.58
179.984	40.79
180.204	7.18
180.423	41.72
180.643	78.66
180.863	74.95
181.083	78.36
181.302	70.62
181.522	53.13
181.742	54.07
181.961	53.27
182.181	53.05
182.401	62.12
182.621	67.26
182.84	37.41
183.06	29.41
183.279	38.23
183.499	39.22
183.719	46.45
183.938	69.61
184.158	69.1
184.377	63.73
184.597	63.22
184.816	55.11
185.036	67.24
185.256	82.08
185.475	81.72
185.695	52.82
185.914	14.54
186.134	49.77
186.353	17.82
186.572	-5.7
186.792	-14.62
187.011	-19.11
187.231	5.89
187.45	-10.36
187.67	15.78
187.889	29.57
188.108	21.69
188.328	31.57
188.547	1.08
188.766	-11.21
188.986	0.36
189.205	-7.86
189.424	-4.59
189.644	-16.25
189.863	-0.2
190.082	3.07
190.302	-1.05
190.521	38.7
190.74	48.35
190.959	66.85
191.178	70.7
191.398	51.44
191.617	62.94
191.836	65.24
192.055	58.37
192.274	44.65
192.494	33.25
192.713	30.1
192.932	35.59
193.151	14.88
193.37	27.05
193.589	39.52
193.808	56.55
194.027	53.87
194.246	51.37
194.465	32.71
194.685	35.4
194.904	33.42
195.123	27.44
195.342	-2.72
195.561	25.75
195.78	5.41
195.999	-11.51
196.218	-38.63
196.436	-32.82
196.655	-39.09
196.874	-26.14
197.093	-19.62
197.312	17.85
197.531	2.94
197.75	16.01
197.969	5.22
198.188	0.51
198.407	-17.1
198.625	1.16
198.844	7.26
199.063	9.69
199.282	-0.86
199.501	-14.35
199.719	-37.95
199.938	8.1
200.157	-39.1
200.376	16.24
200.594	44.73
200.813	61.67
201.032	66.65
201.251	75.5
201.469	73.98
201.688	76.1
201.907	76.23
202.125	58.97
202.344	57.2
202.563	77.34
202.781	66.36
203	58.36
203.218	48.35
203.437	65.82
203.656	58.42
203.874	50.49
204.093	38.08
204.311	38.91
204.53	28.08
204.748	22.8
204.967	22.99
205.185	15.34
205.404	21.44
205.622	9.25
205.841	-1.36
206.059	-15.06
206.278	3.78
206.496	17.24
206.715	19.54
206.933	39.4
207.151	44.75
207.37	37.83
207.588	44.67
207.806	45.48
208.025	53.41
208.243	64.3
208.461	74.52
208.68	70.08
208.898	65.6
209.116	52.86
209.335	52.91
209.553	26.87
209.771	28.69
209.989	20.76
210.208	6.44
210.426	-10.65
210.644	-24.95
210.862	-62.73
211.081	-39.79
211.299	-59.16
211.517	11.52
211.735	-12
211.953	18.58
212.171	27.01
212.39	35.29
212.608	49.38
212.826	66.36
213.044	69.35
213.262	66.81
213.48	60.35
213.698	62.24
213.916	44.33
214.134	37.95
214.352	30.77
214.57	45.91
214.788	54.61
215.006	16.01
215.224	8
215.442	-16.78
215.66	-43.99
215.878	-9.76
216.096	4.53
216.314	-6.06
216.532	13.97
216.75	17
216.968	12.33
217.185	12.19
217.403	32.3
217.621	27
217.839	32.72
218.057	32.96
218.275	37.18
218.492	40.35
218.71	32.34
218.928	34.89
219.146	32.91
219.363	23.57
219.581	27.42
219.799	18.59
220.017	17.67
220.234	8.73
220.452	14.79
220.67	41.71
220.887	27.16
221.105	39.41
221.323	19.49
221.54	28.82
221.758	33.17
221.976	24.05
222.193	21.44
222.411	22.35
222.629	25.08
222.846	21.21
223.064	5.48
223.281	20.49
223.499	21.82
223.716	27.68
223.934	25.29
224.151	20.07
224.369	21.82
224.586	16.45
224.804	18.76
225.021	15.01
225.239	34.12
225.456	28.85
225.674	19.07
225.891	22.51
226.108	25.56
226.326	19.28
226.543	18.86
226.76	12.98
226.978	12.58
227.195	11.21
227.413	11.85
227.63	12.48
227.847	9.58
228.064	8.78
228.282	6.19
228.499	3.67
228.716	2.28
228.934	3.58
229.151	1.89
229.368	2.39
229.585	3.88
229.802	0.42
230.02	-3.98
230.237	-2.38
230.454	-1.21
230.671	-4.04
230.888	-3.86
231.105	-2.31
231.323	1.06
231.54	6.58
231.757	3.8
231.974	-1.12
232.191	2.43
232.408	8.93
232.625	4.61
232.842	5.73
233.059	9.34
233.276	10.21
233.493	9.53
233.71	5.84
233.927	1.71
234.144	0.65
234.361	5.05
234.578	7.16
234.795	-0.12
235.012	3.04
235.229	2.5
235.446	4.91
235.663	5.07
235.879	4.08
236.096	4.83
236.313	6.3
236.53	9.19
236.747	9.62
236.964	11.02
237.181	15.72
237.397	14.01
237.614	14.37
237.831	10.79
238.048	11.31
238.264	12.11
238.481	7.8
238.698	6.11
238.915	8.42
239.131	3.99
239.348	3.34
239.565	4.29
239.781	9.78
239.998	11.61
240.215	14.48
240.431	12.68
240.648	16.2
240.865	14.18
241.081	16.55
241.298	15.21
241.514	16.3
241.731	16.59
241.947	12.98
242.164	13.5
242.38	12.23
242.597	10.45
242.814	11.05
243.03	10.38
243.246	12.35
243.463	11.72
243.679	12.63
243.896	13.82
244.112	13.21
244.329	16.73
244.545	13.6
244.762	14.09
244.978	14.16
245.194	12.97
245.411	11.07
245.627	12.05
245.843	11.02
246.06	9.91
246.276	8.04
246.492	6.94
246.709	5.27
246.925	6.9
247.141	7.6
247.357	7.6
247.574	7.46
247.79	7.77
248.006	6.99
248.222	7.43
248.439	7.23
248.655	8.08
248.871	8.57
249.087	8.52
249.303	7.55
249.519	5.2
249.736	4.57
249.952	4.37
250.168	6.17
250.384	4.22
250.6	2.68
250.816	2.96
251.032	2.87
251.248	3.6
251.464	2.79
251.68	3.26
251.896	4.62
252.112	4.85
252.328	5.23
252.544	5.28
252.76	4.34
252.976	5.35
253.192	4.37
253.408	3.82
253.624	3.43
253.84	4.11
254.056	5.24
254.272	9.37
254.487	9.77
254.703	10.2
254.919	7.61
255.135	10.2
255.351	9.26
255.567	11.87
255.782	11.07
255.998	10.6
256.214	9.17
256.43	9.74
256.646	5.47
256.861	6.5
257.077	5.83
257.293	4.77
257.508	5.88
257.724	6.55
257.94	5.86
258.155	5.06
258.371	5.26
258.587	6.61
258.802	5.97
259.018	5.99
259.234	5.25
259.449	6.25
259.665	6.43
259.88	6.31
260.096	5.74
260.312	5.25
260.527	5.94
260.743	5.45
260.958	5.51
261.174	5.66
261.389	6.04
261.605	6.31
261.82	5.91
262.036	6.91
262.251	8.05
262.466	9.08
262.682	10.24
262.897	8.97
263.113	8.62
263.328	9.02
263.543	7.79
263.759	6.91
263.974	8.6
264.189	8.22
264.405	7
264.62	4.58
264.835	2.55
265.051	1.68
265.266	4.31
265.481	4.67
265.696	4.25
265.912	4.58
266.127	6.57
266.342	5.97
266.557	5.46
266.773	4.49
266.988	5.57
267.203	6.03
267.418	7.73
267.633	7.13
267.848	8.78
268.064	9.1
268.279	9.72
268.494	8.27
268.709	8.12
268.924	10.27
269.139	10.94
269.354	11.08
269.569	10.49
269.784	10.57
269.999	9.13
270.214	7.33
270.429	7.35
270.644	6.8
270.859	7.71
271.074	7.17
271.289	6.45
271.504	6.45
271.719	6
271.934	6.13
272.149	6.48
272.363	8.03
272.578	9.61
272.793	9.4
273.008	9.62
273.223	8.49
273.438	8.81
273.653	9.28
273.867	10.16
274.082	9.97
274.297	10.49
274.512	9.53
274.726	8.33
274.941	6.82
275.156	7.62
275.371	7.13
275.585	7.26
275.8	7.33
276.015	6.27
276.229	5.84
276.444	5.95
276.659	6.22
276.873	6.25
277.088	7.41
277.302	8.91
277.517	8.4
277.732	9.86
277.946	10.04
278.161	10.11
278.375	9.77
278.59	9.41
278.804	9.48
279.019	9.44
279.233	9.39
279.448	7.87
279.662	8.27
279.877	7.55
280.091	5.83
280.306	5.83
280.52	4.62
280.735	4.77
280.949	4.85
281.163	5.19
281.378	4.55
281.592	3.28
281.806	4.66
282.021	1.94
282.235	2.48
282.449	2.47
282.664	1.29
282.878	2.02
283.092	2.73
283.307	3.95
283.521	4.33
283.735	4.71
283.949	5.67
284.164	4.51
284.378	6.1
284.592	5.9
284.806	6.8
285.02	7.41
285.234	7.15
285.449	7.39
285.663	6.77
285.877	6.42
286.091	6.99
286.305	6.68
286.519	6.53
286.733	7.01
286.947	7.29
287.161	6.91
287.375	8.26
287.589	8.79
287.803	7.55
288.017	6.83
288.231	7.43
288.445	7.74
288.659	8.72
288.873	10.1
289.087	9.66
289.301	10.45
289.515	10.92
289.729	10.39
289.943	9.67
290.157	10.57
290.371	10.4
290.584	10.15
290.798	9.14
291.012	8.95
291.226	9.75
291.44	8.72
291.654	7.37
291.867	6.98
292.081	6.14
292.295	6.51
292.509	5.71
292.722	5.73
292.936	4.45
293.15	5.13
293.364	4.88
293.577	2.54
293.791	3.23
294.005	3.38
294.218	3.56
294.432	4.52
294.645	3.63
294.859	3.65
295.073	3.57
295.286	4.16
295.5	3.13
295.713	2.57
295.927	3.05
296.14	3.57
296.354	3.89
296.568	3.82
296.781	3.9
296.994	5.42
297.208	6.3
297.421	6.73
297.635	7.12
297.848	7.9
298.062	8.66
298.275	9.29
298.489	9.02
298.702	9.19
298.915	10.05
299.129	10.91
299.342	10.31
299.555	10.3
299.769	10.79
299.982	10.89
300.195	11.25
300.409	10.17
300.622	10.6
300.835	10.82
301.048	9.7
301.262	8.39
301.475	7.36
301.688	7.78
301.901	7.95
302.115	8.04
302.328	8.48
302.541	8.15
302.754	8.73
302.967	7.77
303.18	9.45
303.393	10.32
303.607	11.1
303.82	10.71
304.033	9.53
304.246	8.58
304.459	8.61
304.672	8.02
304.885	8.94
305.098	8.9
305.311	9.53
305.524	7.01
305.737	7.25
305.95	7.04
306.163	7.41
306.376	8.73
306.589	9.15
306.802	8.24
307.015	8.91
307.228	7.57
307.44	8.88
307.653	8.56
307.866	9.33
308.079	9.78
308.292	9.82
308.505	10.59
308.718	10.18
308.93	9.83
309.143	10.28
309.356	10.16
309.569	10.64
309.781	9.52
309.994	10.17
310.207	10.93
310.42	10.36
310.632	11.39
310.845	11.03
311.058	11.51
311.27	11.58
311.483	11.77
311.696	12.02
311.908	12.85
312.121	13.27
312.333	12.84
312.546	13.13
312.759	12.51
312.971	11.2
313.184	10.56
313.396	10.9
313.609	12.7
313.821	13.01
314.034	13.08
314.246	12.43
314.459	12.99
314.671	14.34
314.884	14.79
315.096	15.88
315.309	15.67
315.521	16.16
315.733	15.27
315.946	14.28
316.158	13.59
316.371	12.9
316.583	12.5
316.795	11.4
317.008	10.62
317.22	9.28
317.432	9.39
317.644	10.33
317.857	10.79
318.069	10.72
318.281	9.78
318.494	10.37
318.706	10.78
318.918	11.25
319.13	13.19
319.342	13.25
319.555	13.35
319.767	12.78
319.979	12.83
320.191	12.21
320.403	12.92
320.615	12.9
320.827	13.4
321.039	13.36
321.252	12.76
321.464	12.08
321.676	11.93
321.888	12.12
322.1	12.32
322.312	12.76
322.524	13.13
322.736	12.14
322.948	13.26
323.16	12.98
323.372	11.75
323.584	12.57
323.796	12.94
324.007	12.64
324.219	12.94
324.431	13.93
324.643	13.97
324.855	14.94
325.067	15.76
325.279	15.57
325.491	16.19
325.702	17.49
325.914	16.98
326.126	15.52
326.338	14.66
326.55	14.82
326.761	15.08
326.973	14.88
327.185	14.46
327.396	14.95
327.608	15.05
327.82	14.86
328.032	15.04
328.243	15.67
328.455	16.7
328.666	17.76
328.878	16.93
329.09	16.61
329.301	16.13
329.513	16.04
329.725	15.4
329.936	16.22
330.148	16.2
330.359	15.78
330.571	16.32
330.782	16.98
330.994	17.46
331.205	19.2
331.417	19.98
331.628	20.67
331.84	21.19
332.051	22.1
332.262	21.53
332.474	21.92
332.685	22.25
332.897	22.54
333.108	23.22
333.319	24.36
333.531	23.77
333.742	24.51
333.953	24.93
334.165	25.1
334.376	25.75
334.587	26.45
334.799	26.81
335.01	27.3
335.221	26.76
335.432	26.48
335.644	25.83
335.855	26.53
336.066	25.89
336.277	26.48
336.488	26.49
336.7	25.42
336.911	24.31
337.122	23.86
337.333	24.06
337.544	24.33
337.755	23.74
337.966	23.22
338.177	22.39
338.388	21.23
338.599	21.31
338.811	20.98
339.022	21.23
339.233	22.83
339.444	22.82
339.655	22.51
339.866	22.79
340.076	23.4
340.287	24.46
340.498	24.82
340.709	25.71
340.92	25.21
341.131	25.51
341.342	25.91
341.553	25.5
341.764	25.43
341.975	25.67
342.185	25
342.396	25.29
342.607	25.12
342.818	24.33
343.029	23.83
343.239	23.81
343.45	24.16
343.661	24.47
343.872	23.66
344.082	23.4
344.293	23.2
344.504	22.98
344.714	22.5
344.925	22.07
345.136	22.6
345.346	23.7
345.557	23.73
345.768	22.98
345.978	22.78
346.189	24.2
346.399	24.23
346.61	23.92
346.821	24.35
347.031	24.14
347.242	24.63
347.452	25.04
347.663	24.68
347.873	24.96
348.084	25.74
348.294	25.94
348.504	24.78
348.715	25.14
348.925	25.23
349.136	24.93
349.346	25.48
349.557	24.94
349.767	24.51
349.977	24.88
350.188	24.04
350.398	23.41
350.608	23.24
350.819	23.02
351.029	23.05
351.239	22.96
351.449	23.16
351.66	22.01
351.87	23.23
352.08	23.71
352.29	23.04
352.501	23.62
352.711	23.99
352.921	22.91
353.131	23.28
353.341	23.04
353.552	23.12
353.762	22.72
353.972	23.91
354.182	23.11
354.392	22.74
354.602	23.08
354.812	22.67
355.022	22.38
355.232	22.89
355.442	23.05
355.652	23.2
355.862	23.24
356.072	23.74
356.282	23.23
356.492	23.3
356.702	24.1
356.912	23.73
357.122	23.59
357.332	24.05
357.542	24.71
357.752	23.99
357.962	23.66
358.171	23.84
358.381	23.7
358.591	23.55
358.801	22.73
359.011	21.12
359.221	21.42
359.43	22.33
359.64	21.17
359.85	20.39
360.06	20.51
360.269	20.68
360.479	20.46
360.689	20.05
360.899	20.33
361.108	20.88
361.318	21.41
361.528	21.44
361.737	20.49
361.947	21.13
362.156	21.05
362.366	21.38
362.576	21.32
362.785	21.32
362.995	21.79
363.204	21.51
363.414	21.29
363.623	21.32
363.833	20.88
364.042	21.23
364.252	21.55
364.461	21.76
364.671	21.37
364.88	21.4
365.09	21.29
365.299	21.49
365.509	21.51
365.718	21.46
365.927	21.25
366.137	21.12
366.346	20.82
366.555	20.24
366.765	19.8
366.974	20.31
367.183	20.54
367.393	20.8
367.602	20.88
367.811	20.81
368.021	21.29
368.23	21.48
368.439	21.52
368.648	22.1
368.857	22.12
369.067	22.28
369.276	21.64
369.485	20.82
369.694	20.66
369.903	19.8
370.112	20.05
370.321	19.67
370.531	19.98
370.74	20.31
370.949	19.82
371.158	19.65
371.367	19.79
371.576	20.1
371.785	20.99
371.994	21.3
372.203	21.55
372.412	21.77
372.621	21.4
372.83	20.66
373.039	19.98
373.248	20.09
373.457	20.28
373.666	20.22
373.874	20.35
374.083	19.21
374.292	18.58
374.501	18.47
374.71	18.35
374.919	18.4
375.128	18.92
375.336	19.56
375.545	19.13
375.754	19.36
375.963	19.21
376.171	19.07
376.38	19.47
376.589	19.66
376.798	19.39
377.006	19.26
377.215	19.52
377.424	19.6
377.632	19.16
377.841	19.72
378.05	19.23
378.258	19.18
378.467	18.97
378.675	19.15
378.884	18.84
379.093	18.74
379.301	18.63
379.51	18.53
379.718	18.64
379.927	18.55
380.135	17.74
380.344	17.79
380.552	17.53
380.761	16.91
380.969	16.44
381.177	16.58
381.386	16.53
381.594	16.32
381.803	16.26
382.011	15.66
382.219	15.65
382.428	16.37
382.636	16.2
382.845	16.83
383.053	17.54
383.261	17.58
383.469	17.31
383.678	17.53
383.886	16.96
384.094	16.68
384.302	17.13
384.511	17
384.719	16.53
384.927	16.7
385.135	16.62
385.343	16.54
385.552	16.86
385.76	16.95
385.968	16.67
386.176	17.23
386.384	17.21
386.592	16.7
386.8	16.85
387.008	16.84
387.216	16.51
387.424	16.5
387.633	15.99
387.841	15.72
388.049	15.56
388.257	15.48
388.465	15.24
388.672	15.29
388.88	15.31
389.088	15.14
389.296	14.7
389.504	14.58
389.712	13.84
389.92	14.12
390.128	13.74
390.336	13.79
390.544	14.2
390.751	14.09
390.959	14.3
391.167	14.33
391.375	14.34
391.583	14.67
391.79	14.41
391.998	14.8
392.206	14.85
392.414	14.88
392.621	14.37
392.829	14.31
393.037	14.43
393.244	14.48
393.452	14.46
393.66	14.73
393.867	14.6
394.075	14.97
394.283	14.67
394.49	14.46
394.698	14.71
394.905	15.26
395.113	14.76
395.32	14.88
395.528	14.42
395.735	14.43
395.943	14.17
396.15	14.12
396.358	14.05
396.565	14.31
396.773	14.39
396.98	14.14
397.188	13.94
397.395	14.04
397.602	13.78
397.81	14.06
398.017	13.89
398.225	13.6
398.432	13.72
398.639	13.53
398.847	13.25
399.054	13.1
399.261	13.05
399.468	13.22
399.676	12.99
399.883	13.03
400.09	12.39
400.297	12.35
400.505	12.18
400.712	11.75
400.919	11.63
401.126	11.66
401.333	11.59
401.54	11.45
401.748	11.23
401.955	11.67
402.162	11.81
402.369	12.16
402.576	12.14
402.783	12.33
402.99	12.33
403.197	12.51
403.404	12.55
403.611	12.88
403.818	12.95
404.025	12.95
404.232	13.02
404.439	12.89
404.646	12.67
404.853	12.65
405.06	12.56
405.267	12.79
405.474	12.74
405.681	12.55
405.887	12.51
406.094	12.75
406.301	12.81
406.508	12.45
406.715	12.35
406.922	12.75
407.128	12.99
407.335	13.04
407.542	12.73
407.749	12.79
407.955	12.62
408.162	12.34
408.369	11.88
408.575	11.69
408.782	12.06
408.989	12.34
409.195	12.03
409.402	11.56
409.609	11.7
409.815	11.61
410.022	11.67
410.228	11.89
410.435	12.02
410.642	11.95
410.848	11.95
411.055	11.74
411.261	11.52
411.468	11.7
411.674	11.95
411.881	11.93
412.087	12.19
412.294	12.26
412.5	12.22
412.706	12.28
412.913	12.43
413.119	12.37
413.326	12.03
413.532	11.93
413.738	11.88
413.945	11.56
414.151	11.26
414.357	11.24
414.564	10.81
414.77	10.69
414.976	10.6
415.182	10.53
415.389	10.3
415.595	10.35
415.801	10.42
416.007	10.27
416.214	10.33
416.42	10.68
416.626	10.7
416.832	10.89
417.038	11.04
417.244	10.91
417.45	10.97
417.657	11.21
417.863	11.43
418.069	11.18
418.275	11.23
418.481	11.24
418.687	11.16
418.893	11.27
419.099	11.32
419.305	11.13
419.511	11.15
419.717	11.24
419.923	11.12
420.129	11.04
420.335	11.18
420.541	11.16
420.746	11.1
420.952	11.04
421.158	10.81
421.364	10.71
421.57	10.72
421.776	10.77
421.982	10.65
422.187	10.62
422.393	10.62
422.599	10.55
422.805	10.46
423.01	10.5
423.216	10.49
423.422	10.62
423.628	10.56
423.833	10.5
424.039	10.5
424.245	10.6
424.45	10.7
424.656	10.66
424.862	10.71
425.067	10.79
425.273	10.78
425.478	10.79
425.684	10.84
425.889	10.93
426.095	11.22
426.301	10.98
426.506	10.9
426.712	10.86
426.917	10.88
427.123	10.9
427.328	10.91
427.533	10.92
427.739	10.97
427.944	10.65
428.15	10.53
428.355	10.31
428.561	10.49
428.766	10.55
428.971	10.73
429.177	10.85
429.382	10.64
429.587	10.55
429.793	10.57
429.998	10.47
430.203	10.47
430.408	10.51
430.614	10.66
430.819	10.48
431.024	10.51
431.229	10.43
431.434	10.15
431.64	10.34
431.845	10.5
432.05	10.5
432.255	10.5
432.46	10.63
432.665	10.46
432.87	10.53
433.076	10.8
433.281	10.69
433.486	10.64
433.691	10.66
433.896	10.63
434.101	10.51
434.306	10.61
434.511	10.53
434.716	10.53
434.921	10.79
435.126	10.72
435.331	10.47
435.535	10.47
435.74	10.35
435.945	10.23
436.15	10.3
436.355	10.49
436.56	10.49
436.765	10.4
436.97	10.48
437.174	10.38
437.379	10.43
437.584	10.68
437.789	10.57
437.993	10.72
438.198	10.89
438.403	10.9
438.608	10.49
438.812	10.44
439.017	10.67
439.222	10.55
439.426	10.49
439.631	10.31
439.836	10.22
440.04	10.16
440.245	9.98
440.45	10
440.654	9.95
440.859	10.07
441.063	9.99
441.268	9.87
441.472	9.98
441.677	10.13
441.881	10.26
442.086	10.13
442.29	10.16
442.495	10.26
442.699	10.19
442.904	10.11
443.108	10.19
443.312	10.18
443.517	10.26
443.721	10.25
443.925	10.12
444.13	9.96
444.334	9.87
444.538	10.09
444.743	10.04
444.947	10
445.151	10.06
445.356	9.95
445.56	10.02
445.764	10.08
445.968	10.07
446.173	10.07
446.377	10.09
446.581	10.33
446.785	10.18
446.989	10.13
447.193	10.31
447.398	10.2
447.602	10.09
447.806	10.07
448.01	9.98
448.214	9.84
448.418	9.78
448.622	9.62
448.826	9.56
449.03	9.59
449.234	9.62
449.438	9.38
449.642	9.44
449.846	9.57
450.05	9.57
450.254	9.47
450.458	9.73
450.662	9.85
450.866	9.82
451.069	9.71
451.273	9.61
451.477	9.54
451.681	9.69
451.885	9.57
452.089	9.48
452.292	9.42
452.496	9.61
452.7	9.39
452.904	9.4
453.107	9.68
453.311	9.63
453.515	9.75
453.719	9.82
453.922	9.84
454.126	9.79
454.33	9.93
454.533	9.89
454.737	9.82
454.94	9.95
455.144	9.73
455.348	9.8
455.551	9.98
455.755	9.89
455.958	10
456.162	9.79
456.365	9.98
456.569	10.07
456.772	10.12
456.976	10.03
457.179	9.86
457.383	9.94
457.586	9.81
457.79	9.64
457.993	9.6
458.196	9.53
458.4	9.67
458.603	9.6
458.807	9.54
459.01	9.49
459.213	9.47
459.417	9.56
459.62	9.71
459.823	9.69
460.026	9.71
460.23	9.71
460.433	9.72
460.636	9.72
460.839	9.66
461.042	9.74
461.246	9.74
461.449	9.75
461.652	9.81
461.855	9.62
462.058	9.59
462.261	9.55
462.464	9.63
462.668	9.62
462.871	9.82
463.074	9.98
463.277	9.85
463.48	10
463.683	10.16
463.886	10.01
464.089	10.04
464.292	10.1
464.495	9.97
464.698	9.95
464.901	9.79
465.104	9.51
465.306	9.4
465.509	9.38
465.712	9.4
465.915	9.16
466.118	9.25
466.321	9.41
466.524	9.43
466.726	9.59
466.929	9.63
467.132	9.56
467.335	9.62
467.538	9.89
467.74	10.01
467.943	10
468.146	10.21
468.348	10.27
468.551	10.17
468.754	10.18
468.956	10.28
469.159	10.26
469.362	10.44
469.564	10.41
469.767	10.04
469.969	9.88
470.172	9.76
470.375	9.63
470.577	9.67
470.78	9.7
470.982	9.68
471.185	9.67
471.387	9.74
471.59	9.76
471.792	9.72
471.995	9.74
472.197	9.98
472.399	9.88
472.602	9.93
472.804	10.02
473.007	10.11
473.209	10.08
473.411	9.82
473.614	9.62
473.816	9.65
474.018	9.85
474.22	10.01
474.423	9.82
474.625	10.01
474.827	10.12
475.03	10.01
475.232	9.93
475.434	9.86
475.636	9.99
475.838	10.06
476.04	9.85
476.243	9.69
476.445	9.61
476.647	9.68
476.849	9.73
477.051	9.62
477.253	9.55
477.455	9.49
477.657	9.55
477.859	9.61
478.061	9.77
478.263	9.93
478.465	10.07
478.667	10.03
478.869	9.96
479.071	9.88
479.273	9.91
479.475	9.94
479.677	10.06
479.879	10.17
480.081	10.13
480.283	10
480.485	10
480.686	9.92
480.888	10.02
481.09	10.23
481.292	10.22
481.494	10.16
481.695	10.17
481.897	10.05
482.099	9.97
482.301	9.93
482.502	9.93
482.704	9.99
482.906	9.92
483.107	9.88
483.309	9.68
483.511	9.65
483.712	9.65
483.914	9.63
484.115	9.63
484.317	9.57
484.519	9.57
484.72	9.62
484.922	9.52
485.123	9.54
485.325	9.52
485.526	9.59
485.728	9.6
485.929	9.56
486.131	9.55
486.332	9.62
486.534	9.69
486.735	9.65
486.936	9.55
487.138	9.59
487.339	9.49
487.541	9.45
487.742	9.47
487.943	9.44
488.144	9.48
488.346	9.49
488.547	9.44
488.748	9.41
488.95	9.38
489.151	9.36
489.352	9.39
489.553	9.48
489.755	9.54
489.956	9.53
490.157	9.56
490.358	9.62
490.559	9.5
490.76	9.51
490.961	9.52
491.163	9.52
491.364	9.58
491.565	9.58
491.766	9.61
491.967	9.58
492.168	9.54
492.369	9.56
492.57	9.43
492.771	9.53
492.972	9.54
493.173	9.47
493.374	9.55
493.575	9.48
493.776	9.41
493.976	9.41
494.177	9.52
494.378	9.62
494.579	9.6
494.78	9.71
494.981	9.68
495.182	9.62
495.382	9.88
495.583	9.76
495.784	9.93
495.985	10.01
496.185	10.01
496.386	9.79
496.587	9.83
496.788	9.73
496.988	9.6
497.189	9.7
497.39	9.83
497.59	9.7
497.791	9.76
497.992	9.69
498.192	9.66
498.393	9.63
498.593	9.93
498.794	9.82
498.994	9.94
499.195	10.01
499.395	10
499.596	10.02
499.796	10.04
499.997	10.2
500.197	10.38
500.398	10.42
500.598	10.39
500.799	10.29
500.999	10.41
501.199	10.31
501.4	10.4
501.6	10.42
501.801	10.41
502.001	10.54
502.201	10.45
502.402	10.35
502.602	10.42
502.802	10.37
503.002	10.38
503.203	10.34
503.403	10.48
503.603	10.57
503.803	10.7
504.003	10.73
504.204	10.83
504.404	11.01
504.604	10.91
504.804	11.08
505.004	11.31
505.204	11.31
505.404	11.3
505.604	11.25
505.804	11.36
506.005	11.31
506.205	11.51
506.405	11.4
506.605	11.2
506.805	11.41
507.005	11.25
507.204	11.23
507.404	11.4
507.604	11.58
507.804	11.7
508.004	11.7
508.204	11.74
508.404	11.62
508.604	11.65
508.804	11.83
509.003	11.94
509.203	11.93
509.403	11.9
509.603	11.87
509.803	11.92
510.002	11.87
510.202	11.83
510.402	11.97
510.602	12.06
510.801	12.06
511.001	12.07
511.201	11.97
511.4	12.06
511.6	12.26
511.8	12.25
511.999	12.4
512.199	12.61
512.398	12.78
512.598	12.84
512.797	12.81
512.997	13.11
513.197	13.08
513.396	13.24
513.596	13.22
513.795	13.25
513.994	13.42
514.194	13.3
514.393	13.3
514.593	13.34
514.792	13.28
514.992	13.4
515.191	13.31
515.39	13.43
515.59	13.54
515.789	13.69
515.988	13.78
516.188	13.68
516.387	13.67
516.586	13.88
516.786	13.93
516.985	13.99
517.184	13.95
517.383	14.05
517.582	14.19
517.782	14.21
517.981	14.31
518.18	14.34
518.379	14.4
518.578	14.52
518.777	14.36
518.976	14.4
519.176	14.41
519.375	14.6
519.574	14.59
519.773	14.68
519.972	14.65
520.171	14.67
520.37	14.76
520.569	14.83
520.768	14.69
520.967	15.04
521.166	15.16
521.365	15.33
521.564	15.38
521.762	15.42
521.961	15.42
522.16	15.61
522.359	15.61
522.558	15.63
522.757	15.63
522.956	15.99
523.154	15.99
523.353	15.93
523.552	16.06
523.751	16.16
523.949	16.45
524.148	16.39
524.347	16.33
524.546	16.64
524.744	16.66
524.943	16.87
525.142	16.84
525.34	16.81
525.539	16.93
525.737	17
525.936	16.95
526.135	16.99
526.333	17.14
526.532	17.22
526.73	17.12
526.929	17.14
527.127	17.18
527.326	17.32
527.524	17.48
527.723	17.55
527.921	17.53
528.12	17.62
528.318	17.58
528.516	17.61
528.715	17.69
528.913	17.84
529.112	18
529.31	17.99
529.508	18
529.707	18.02
529.905	18.01
530.103	18.08
530.301	18.12
530.5	18.21
530.698	18.37
530.896	18.41
531.094	18.42
531.293	18.43
531.491	18.62
531.689	18.78
531.887	18.77
532.085	18.93
532.283	18.97
532.481	19.08
532.68	19.14
532.878	19.15
533.076	19.21
533.274	19.19
533.472	19.28
533.67	19.34
533.868	19.38
534.066	19.46
534.264	19.46
534.462	19.52
534.66	19.52
534.858	19.54
535.056	19.65
535.253	19.78
535.451	19.91
535.649	19.85
535.847	19.92
536.045	19.96
536.243	20.08
536.441	20.21
536.638	20.35
536.836	20.51
537.034	20.56
537.232	20.54
537.43	20.57
537.627	20.63
537.825	20.83
538.023	20.91
538.22	21.05
538.418	21.09
538.616	20.99
538.813	21.05
539.011	21.09
539.209	21.3
539.406	21.32
539.604	21.53
539.801	21.74
539.999	21.74
540.196	21.71
540.394	21.74
540.591	21.78
540.789	21.89
540.986	21.84
541.184	21.83
541.381	21.84
541.579	21.96
541.776	21.85
541.974	21.76
542.171	21.78
542.368	21.81
542.566	21.81
542.763	21.84
542.96	21.93
543.158	22.11
543.355	22.16
543.552	22.25
543.75	22.29
543.947	22.41
544.144	22.55
544.341	22.63
544.539	22.76
544.736	22.64
544.933	22.73
545.13	22.86
545.327	22.86
545.524	22.95
545.722	22.93
545.919	22.88
546.116	23
546.313	23.07
546.51	23.13
546.707	23.18
546.904	23.48
547.101	23.48
547.298	23.48
547.495	23.38
547.692	23.36
547.889	23.39
548.086	23.54
548.283	23.62
548.48	23.73
548.677	23.84
548.874	23.93
549.07	24
549.267	24.06
549.464	24.18
549.661	24.44
549.858	24.66
550.055	24.76
550.251	24.79
550.448	24.8
550.645	24.81
550.842	24.66
551.038	24.67
551.235	24.64
551.432	24.86
551.628	24.9
551.825	24.97
552.022	24.86
552.218	24.83
552.415	24.94
552.612	24.92
552.808	24.82
553.005	24.86
553.201	24.89
553.398	24.88
553.594	24.94
553.791	25.01
553.987	24.85
554.184	25
554.38	25
554.577	25.18
554.773	25.38
554.97	25.57
555.166	25.63
555.362	25.76
555.559	26.09
555.755	25.77
555.952	25.77
556.148	26.09
556.344	26.16
556.541	26.33
556.737	26
556.933	25.88
557.129	25.91
557.326	25.99
557.522	26.08
557.718	25.85
557.914	26.22
558.11	26.32
558.307	26.37
558.503	26.27
558.699	26.3
558.895	26.49
559.091	26.68
559.287	26.89
559.483	26.98
559.679	26.91
559.876	27.02
560.072	26.97
560.268	26.87
560.464	26.85
560.66	26.92
560.856	27.1
561.052	27.34
561.247	27.07
561.443	26.81
561.639	26.95
561.835	27.12
562.031	27
562.227	27.04
562.423	26.91
562.619	26.74
562.815	26.78
563.01	26.83
563.206	26.88
563.402	27.21
563.598	27.39
563.793	27.24
563.989	27.23
564.185	27.51
564.381	27.62
564.576	28.01
564.772	28.26
564.968	28.36
565.163	28.2
565.359	28.04
565.555	28.12
565.75	28.03
565.946	28.19
566.141	28.38
566.337	28.24
566.532	28.28
566.728	28.2
566.923	28.13
567.119	28.22
567.314	28.38
567.51	28.44
567.705	28.42
567.901	28.66
568.096	28.82
568.292	28.77
568.487	28.78
568.682	28.81
568.878	28.86
569.073	28.95
569.268	29.02
569.464	28.99
569.659	29.03
569.854	28.96
570.05	29.13
570.245	29
570.44	28.97
570.635	29.17
570.831	29.16
571.026	29.26
571.221	29.49
571.416	29.44
571.611	29.42
571.806	29.65
572.002	29.81
572.197	29.68
572.392	29.74
572.587	29.81
572.782	29.92
572.977	30
573.172	29.99
573.367	29.95
573.562	30.07
573.757	30.14
573.952	30.01
574.147	30.04
574.342	30.13
574.537	30.2
574.732	30.19
574.927	30.14
575.121	30.28
575.316	30.25
575.511	30.29
575.706	30.18
575.901	30.26
576.096	30.1
576.29	30.12
576.485	30.3
576.68	30.28
576.875	30.36
577.069	30.52
577.264	30.44
577.459	30.61
577.654	30.65
577.848	30.81
578.043	31.03
578.238	31.62
578.432	31.52
578.627	31.28
578.821	31.52
579.016	31.69
579.21	31.33
579.405	31.39
579.6	31.48
579.794	31.32
579.989	31.43
580.183	31.14
580.378	31.01
580.572	30.93
580.766	31.1
580.961	31.01
581.155	30.94
581.35	31.16
581.544	31.21
581.738	31.15
581.933	31.27
582.127	31.35
582.321	31.62
582.516	31.42
582.71	31.82
582.904	31.77
583.099	31.7
583.293	31.65
583.487	31.79
583.681	31.82
583.875	31.64
584.07	31.65
584.264	31.78
584.458	31.7
584.652	31.74
584.846	31.55
585.04	31.93
585.234	31.98
585.428	31.85
585.623	31.94
585.817	32.07
586.011	32.32
586.205	32.31
586.399	32.23
586.593	32.44
586.787	32.5
586.981	32.5
587.174	31.93
587.368	32
587.562	32.07
587.756	32.14
587.95	32.03
588.144	32.14
588.338	32.12
588.532	32.07
588.725	32.17
588.919	32.1
589.113	32.28
589.307	32.55
589.501	32.73
589.694	32.79
589.888	32.72
590.082	32.62
590.275	32.45
590.469	32.57
590.663	32.4
590.856	32.3
591.05	32.56
591.244	32.62
591.437	32.57
591.631	32.51
591.824	32.47
592.018	32.44
592.212	32.42
592.405	32.6
592.599	32.57
592.792	32.75
592.986	32.64
593.179	32.63
593.372	32.58
593.566	32.66
593.759	32.41
593.953	32.49
594.146	32.59
594.339	32.83
594.533	32.7
594.726	32.61
594.92	32.35
595.113	32.33
595.306	32.32
595.499	32.08
595.693	32.12
595.886	32.35
596.079	32.34
596.272	32.36
596.466	32.37
596.659	32.34
596.852	32.51
597.045	32.72
597.238	32.6
597.431	32.51
597.624	32.81
597.818	33.02
598.011	33.02
598.204	33.26
598.397	33.38
598.59	33.19
598.783	33.24
598.976	33.26
599.169	33.14
599.362	33.37
599.555	33.69
599.748	33.53
599.941	33.41
600.134	33.52
600.326	33.35
600.519	33.4
600.712	33.59
600.905	33.46
601.098	33.66
601.291	33.98
601.483	34.03
601.676	33.78
601.869	34.07
602.062	33.92
602.255	33.8
602.447	33.73
602.64	33.64
602.833	33.76
603.025	34.03
603.218	33.81
603.411	33.77
603.603	33.68
603.796	33.83
603.989	33.65
604.181	33.76
604.374	33.79
604.566	33.87
604.759	33.95
604.951	33.84
605.144	33.69
605.336	33.82
605.529	33.68
605.721	33.8
605.914	33.8
606.106	33.9
606.299	33.81
606.491	33.78
606.683	33.91
606.876	33.84
607.068	33.82
607.26	34.01
607.453	33.77
607.645	34.05
607.837	34.04
608.03	33.92
608.222	33.9
608.414	33.9
608.606	33.71
608.799	33.65
608.991	33.67
609.183	33.87
609.375	33.77
609.567	34.01
609.759	33.93
609.952	34.17
610.144	34.22
610.336	34.31
610.528	34.35
610.72	34.7
610.912	34.72
611.104	34.76
611.296	34.71
611.488	34.84
611.68	34.95
611.872	35.01
612.064	34.75
612.256	34.84
612.448	34.79
612.64	34.94
612.832	34.4
613.023	34.41
613.215	34.26
613.407	34.35
613.599	34.41
613.791	34.07
613.983	34.48
614.174	34.46
614.366	34.6
614.558	34.6
614.75	34.62
614.941	35.36
615.133	35.18
615.325	34.86
615.516	34.95
615.708	34.81
615.9	34.93
616.091	34.32
616.283	34.58
616.475	34.22
616.666	34.4
616.858	34.21
617.049	33.95
617.241	34.01
617.432	34.38
617.624	34.44
617.815	34.48
618.007	34.56
618.198	34.79
618.39	34.57
618.581	34.72
618.773	34.56
618.964	34.54
619.155	34.58
619.347	34.79
619.538	34.94
619.729	34.72
619.921	34.83
620.112	35.15
620.303	34.98
620.494	34.78
620.686	34.6
620.877	34.7
621.068	34.77
621.259	34.72
621.451	34.86
621.642	34.74
621.833	35.12
622.024	35.03
622.215	34.77
622.406	35.04
622.597	35.05
622.788	35.06
622.98	34.97
623.171	34.95
623.362	34.95
623.553	34.64
623.744	34.64
623.935	34.31
624.126	34.17
624.317	33.81
624.508	33.75
624.698	33.75
624.889	34.1
625.08	33.94
625.271	34.21
625.462	34.07
625.653	34
625.844	33.87
626.034	33.79
626.225	34.04
626.416	34.19
626.607	34.12
626.798	34.25
626.988	34
627.179	34.17
627.37	33.82
627.56	34.18
627.751	34.19
627.942	34.2
628.132	34.36
628.323	34.42
628.514	34.58
628.704	34.82
628.895	35.03
629.085	35.12
629.276	35.11
629.466	35.15
629.657	35.04
629.847	35.13
630.038	35.33
630.228	35.35
630.419	35.06
630.609	35.02
630.8	34.73
630.99	34.71
631.181	34.68
631.371	34.47
631.561	34.56
631.752	34.53
631.942	34.78
632.132	34.77
632.323	34.8
632.513	35.29
632.703	35.11
632.893	35.11
633.084	34.97
633.274	35.11
633.464	34.96
633.654	34.76
633.844	34.53
634.034	34.24
634.225	34.34
634.415	34.24
634.605	34
634.795	34.41
634.985	34.45
635.175	34.22
635.365	34.4
635.555	34.63
635.745	34.86
635.935	35.06
636.125	35.11
636.315	34.74
636.505	34.75
636.695	34.43
636.885	33.97
637.075	33.96
637.265	34.49
637.455	34.05
637.644	34.17
637.834	33.85
638.024	33.76
638.214	33.56
638.404	33.92
638.593	34.02
638.783	34.03
638.973	34.17
639.163	34.08
639.352	33.78
639.542	34.1
639.732	33.88
639.921	34.03
640.111	34.26
640.301	34.5
640.49	34.62
640.68	34.79
640.87	35.1
641.059	35.36
641.249	35.4
641.438	35.71
641.628	35.45
641.817	35.82
642.007	36.04
642.196	36.16
642.386	36.23
642.575	36.31
642.764	35.56
642.954	35.91
643.143	36.23
643.333	36.57
643.522	36.49
643.711	36.34
643.901	36.55
644.09	36.47
644.279	36.47
644.469	36.02
644.658	35.45
644.847	35.91
645.036	35.59
645.226	35.01
645.415	34.89
645.604	34.6
645.793	34.69
645.982	34.45
646.171	34.54
646.361	34.29
646.55	34.66
646.739	34.87
646.928	34.89
647.117	34.47
647.306	34.72
647.495	34.93
647.684	34.99
647.873	35.18
648.062	35
648.251	34.87
648.44	34.73
648.629	35.06
648.818	35.14
649.007	35.25
649.196	35.55
649.384	35.73
649.573	35.67
649.762	35.93
649.951	35.96
650.14	36.18
650.328	36.73
650.517	36.9
650.706	36.82
650.895	36.98
651.083	36.46
651.272	36.46
651.461	35.79
651.65	35.65
651.838	35.37
652.027	35.24
652.216	35.27
652.404	34.9
652.593	35.06
652.781	35.14
652.97	35.12
653.158	35.31
653.347	35.39
653.535	35.81
653.724	35.95
653.912	36.12
654.101	36.27
654.289	36.58
654.478	36.68
654.666	36.33
654.855	35.95
655.043	35.97
655.231	36.3
655.42	36.81
655.608	36.93
655.796	36.63
655.985	36.14
656.173	36.25
656.361	35.84
656.55	35.57
656.738	35.97
656.926	36.28
657.114	36.26
657.302	35.88
657.491	35.39
657.679	35.18
657.867	35.2
658.055	35.67
658.243	35.71
658.431	35.57
658.619	36.03
658.807	35.67
658.996	35.81
659.184	35.73
659.372	36.05
659.56	36.4
659.748	36.29
659.936	36.12
660.124	36.17
660.311	35.76
660.499	35.77
660.687	35.33
660.875	34.98
661.063	34.76
661.251	34.89
661.439	35.08
661.627	34.59
661.814	34.88
662.002	35.34
662.19	35.31
662.378	35.32
662.565	35.32
662.753	35.46
662.941	35.67
663.129	35.69
663.316	35.47
663.504	34.86
663.692	34.79
663.879	34.72
664.067	34.64
664.254	34.54
664.442	34.78
664.63	35.04
664.817	34.95
665.005	35.07
665.192	35.09
665.38	35.18
665.567	35.65
665.755	36.01
665.942	36.02
666.13	35.75
666.317	35.56
666.504	35.6
666.692	35.63
666.879	35.86
667.067	36.03
667.254	36.05
667.441	36.31
667.629	36.42
667.816	36.5
668.003	36.36
668.19	36.65
668.378	36.99
668.565	37.16
668.752	37.01
668.939	36.97
669.127	36.69
669.314	36.84
669.501	36.42
669.688	36.22
669.875	35.93
670.062	35.7
670.249	35.45
670.436	35.48
670.623	35.43
670.81	35.54
670.997	35.47
671.184	35.92
671.371	35.74
671.558	35.73
671.745	35.32
671.932	35.54
672.119	36.03
672.306	35.85
672.493	35.43
672.68	35.51
672.867	35.16
673.054	35.12
673.24	34.9
673.427	34.61
673.614	34.69
673.801	35.03
673.988	34.94
674.174	34.49
674.361	34.66
674.548	35.1
674.734	34.9
674.921	35.44
675.108	35.42
675.294	35.75
675.481	36.05
675.668	36.09
675.854	36.01
676.041	35.84
676.227	36.3
676.414	36.37
676.601	36.25
676.787	36
676.974	35.58
677.16	35.84
677.347	35.76
677.533	36.12
677.719	36.32
677.906	36.15
678.092	36.7
678.279	36.57
678.465	36.65
678.651	36.66
678.838	36.74
679.024	36.76
679.21	36.64
679.397	36.57
679.583	36.54
679.769	36.2
679.955	36.09
680.142	35.58
680.328	35.76
680.514	35.42
680.7	35.56
680.886	36.14
681.073	36.1
681.259	36.03
681.445	36.06
681.631	35.54
681.817	35.68
682.003	36.18
682.189	36.69
682.375	36.31
682.561	36.47
682.747	36.19
682.933	35.6
683.119	35.6
683.305	35.5
683.491	35.57
683.677	35.37
683.863	35.3
684.049	35.13
684.235	34.84
684.42	34.9
684.606	35.1
684.792	34.69
684.978	35.3
685.164	34.99
685.349	35.42
685.535	35.05
685.721	35.59
685.907	35.31
686.092	34.97
686.278	34.74
686.464	34.88
686.649	34.41
686.835	35.03
687.021	34.51
687.206	34.81
687.392	34.5
687.577	34.99
687.763	35.05
687.948	35.45
688.134	35.81
688.319	36.09
688.505	36.29
688.69	37.52
688.876	37.24
689.061	37.48
689.247	37.3
689.432	37.26
689.618	36.92
689.803	36.76
689.988	36.65
690.174	36.5
690.359	36.23
690.544	35.91
690.73	34.83
690.915	35.23
691.1	34.96
691.285	35.64
691.471	35.71
691.656	35.73
691.841	35.5
692.026	35.07
692.211	35.29
692.396	35.48
692.582	35.49
692.767	35.59
692.952	35.08
693.137	34.68
693.322	34.37
693.507	34.78
693.692	34.77
693.877	34.99
694.062	35.72
694.247	35.09
694.432	35.18
694.617	35.45
694.802	35.47
694.987	35.55
695.172	36.1
695.357	36.47
695.541	35.91
695.726	36.3
695.911	36.73
696.096	37.03
696.281	37
696.466	36.89
696.65	36.83
696.835	36.81
697.02	37.44
697.204	37.36
697.389	37.15
697.574	37.71
697.759	37.42
697.943	36.99
698.128	36.59
698.312	37
698.497	37.09
698.682	36.98
698.866	37.08
699.051	36.82
699.235	36.9
699.42	36.51
699.604	36.5
699.789	36.34
699.973	36.72
700.158	36.78
700.342	37.05
700.527	36.83
700.711	37.2
700.895	37.37
701.08	37.31
701.264	37.5
701.448	38.43
701.633	37.82
701.817	37.96
702.001	37.35
702.186	37.42
702.37	36.96
702.554	36.86
702.738	36.88
702.923	36.27
703.107	36.99
703.291	36.75
703.475	36.29
703.659	36.58
703.843	36.15
704.027	36.69
704.212	35.92
704.396	36.15
704.58	36.57
704.764	35.81
704.948	36.48
705.132	36.04
705.316	35.79
705.5	35.15
705.684	34.79
705.868	35.03
706.052	34.9
706.235	35.38
706.419	35.64
706.603	34.75
706.787	34.54
706.971	34.63
707.155	33.9
707.339	34.06
707.522	34.01
707.706	34.41
707.89	34.88
708.074	34.91
708.257	35.12
708.441	34.33
708.625	35.18
708.808	35.25
708.992	35.24
709.176	35.34
709.359	35.31
709.543	35.67
709.727	35.25
709.91	35
710.094	35.35
710.277	35.34
710.461	35.66
710.644	35.89
710.828	36.21
711.011	36.07
711.195	36.31
711.378	35.97
711.562	36.23
711.745	36.25
711.928	36.46
712.112	35.71
712.295	36.11
712.478	35.63
712.662	35.27
712.845	35.43
713.028	35.41
713.212	35.31
713.395	34.5
713.578	34.87
713.761	35.13
713.945	34.93
714.128	35.31
714.311	35.27
714.494	35.61
714.677	35.57
714.86	36.33
715.043	36.28
715.227	36.75
715.41	37.56
715.593	37.14
715.776	36.77
715.959	36.89
716.142	37.29
716.325	37.37
716.508	37.76
716.691	37.69
716.874	37.19
717.057	36.45
717.239	36.45
717.422	36.03
717.605	35.59
717.788	35.4
717.971	34.9
718.154	34.39
718.337	33.38
718.519	33.27
718.702	33.02
718.885	32.85
719.068	33.62
719.25	33.27
719.433	34.24
719.616	34.76
719.798	35.67
719.981	36.02
720.164	36.07
720.346	36.96
720.529	36.85
720.712	36.44
720.894	35.93
721.077	36.27
721.259	36.1
721.442	36.03
721.624	35.79
721.807	35.56
721.989	36.62
722.172	36.38
722.354	35.66
722.537	35.18
722.719	36.02
722.901	35.68
723.084	34.81
723.266	34.29
723.448	34.16
723.631	33.73
723.813	34.46
723.995	33.91
724.178	34.27
724.36	34.84
724.542	36.1
724.724	35.95
724.907	35.89
725.089	36.22
725.271	36.7
725.453	36.64
725.635	36.84
725.817	35.84
725.999	35.65
726.181	34.49
726.364	34.85
726.546	34.32
726.728	35.12
726.91	35.5
727.092	35.91
727.274	35.47
727.456	34.97
727.638	34.78
727.819	35.06
728.001	34.82
728.183	35.14
728.365	34.48
728.547	34.48
728.729	34.9
728.911	35.62
729.093	35.31
729.274	36.08
729.456	35.68
729.638	36.42
729.82	36.06
730.001	36.04
730.183	36.15
730.365	37.34
730.546	37.38
730.728	37.06
730.91	36.22
731.091	36.76
731.273	35.99
731.455	36.14
731.636	35.46
731.818	35.77
731.999	36.35
732.181	36.45
732.362	35.83
732.544	35.21
732.725	34.85
732.907	35.75
733.088	35.88
733.27	36.59
733.451	37.2
733.633	37.6
733.814	39.06
733.995	38.58
734.177	38.66
734.358	37.57
734.539	38.53
734.721	38.11
734.902	37.57
735.083	36.16
735.264	36.13
735.446	36.84
735.627	36.65
735.808	35.32
735.989	35.29
736.17	35.49
736.351	37.3
736.533	36.81
736.714	37.29
736.895	36.9
737.076	38.15
737.257	38.39
737.438	38.29
737.619	38.67
737.8	38.15
737.981	38.41
738.162	38.99
738.343	37.56
738.524	36.76
738.705	36.01
738.886	36.48
739.067	36.78
739.247	35.78
739.428	35.18
739.609	35.23
739.79	36.44
739.971	35.95
740.151	35.55
740.332	36.82
740.513	38.04
740.694	38.3
740.874	38.33
741.055	37.73
741.236	38.85
741.417	39.13
741.597	38.06
741.778	37.36
741.958	37.98
742.139	37.8
742.32	36.37
742.5	35.8
742.681	36.19
742.861	36.97
743.042	37.41
743.222	37.57
743.403	37.8
743.583	39.14
743.764	38.36
743.944	37.67
744.124	37.63
744.305	38.79
744.485	38.07
744.666	37.38
744.846	36.68
745.026	36.1
745.207	35.63
745.387	34.35
745.567	33.91
745.747	34.75
745.928	35.24
746.108	34.78
746.288	33.48
746.468	33.98
746.648	34.24
746.829	32.67
747.009	32.97
747.189	33.56
747.369	34.34
747.549	35.08
747.729	34.88
747.909	34.33
748.089	34.84
748.269	35.78
748.449	35.75
748.629	36.94
748.809	37.68
748.989	36.86
749.169	35.16
749.349	34.27
749.529	32.88
749.709	33.34
749.889	34.5
750.068	33.89
750.248	34.42
750.428	34.6
750.608	34.45
750.788	34.47
750.967	33.94
751.147	34.13
751.327	35.28
751.507	34.65
751.686	34.15
751.866	34.33
752.046	34.7
752.225	34.31
752.405	34.44
752.585	34.48
752.764	35.77
752.944	36.9
753.123	38.12
753.303	37.35
753.482	38.7
753.662	39.04
753.841	38.47
754.021	38.72
754.2	37.74
754.38	37.41
754.559	36.24
754.739	34.09
754.918	33.77
755.097	33.61
755.277	33.44
755.456	33.58
755.635	32.46
755.815	32.36
755.994	32.69
756.173	32.8
756.352	33.36
756.532	33.34
756.711	34.17
756.89	34.48
757.069	34.49
757.248	35.45
757.427	33.59
757.607	35.01
757.786	35.23
757.965	35.84
758.144	37.48
758.323	36.4
758.502	36.71
758.681	37.59
758.86	36.51
759.039	36.17
759.218	36.04
759.397	37.53
759.576	36.86
759.755	36.74
759.934	34.42
760.113	33.02
760.291	34.5
760.47	35.81
760.649	35.67
760.828	37.02
761.007	37.18
761.186	36.05
761.364	36.13
761.543	36.5
761.722	36.53
761.901	38.07
762.079	38.02
762.258	37.96
762.437	36.76
762.615	36.35
762.794	35.98
762.972	35.63
763.151	35.95
763.33	36
763.508	35.82
763.687	35.42
763.865	36.11
764.044	36.97
764.222	36.43
764.401	36.29
764.579	36.82
764.758	36.74
764.936	36.48
765.114	37.09
765.293	36.32
765.471	36.92
765.65	36.92
765.828	36.07
766.006	35.06
766.184	35.13
766.363	34.82
766.541	34.36
766.719	35.16
766.898	35.76
767.076	35.87
767.254	36.65
767.432	36.11
767.61	36.27
767.788	36
767.967	36.72
768.145	35.96
768.323	34.99
768.501	35.43
768.679	34.09
768.857	34.26
769.035	35.87
769.213	35.81
769.391	36.1
769.569	35.55
769.747	34.98
769.925	33.62
770.103	34.36
770.281	36.21
770.459	35.19
770.636	35.63
770.814	35.6
770.992	33.8
771.17	32.62
771.348	31.94
771.525	32.29
771.703	32.33
771.881	33.27
772.059	34.47
772.236	35.52
772.414	37.03
772.592	35.84
772.769	36.51
772.947	36.39
773.125	39.13
773.302	37.73
773.48	38.57
773.657	39.84
773.835	38.93
774.013	37.67
774.19	37.59
774.368	37.23
774.545	38.07
774.723	37.09
774.9	36.35
775.077	36.14
775.255	38.03
775.432	37.4
775.61	37.43
775.787	37.7
775.964	38.36
776.142	36.06
776.319	34.39
776.496	33.53
776.674	32.81
776.851	33.82
777.028	31.79
777.205	31.69
777.382	32.42
777.56	31.06
777.737	30.87
777.914	29.03
778.091	30.8
778.268	30.74
778.445	32
778.622	31.36
778.8	31.64
778.977	32.4
779.154	31.14
779.331	31
779.508	32.56
779.685	33.36
779.862	34.96
780.038	35.74
780.215	37.95
780.392	37.78
780.569	39.36
780.746	38.82
780.923	38.68
781.1	41.26
781.277	40.08
781.453	37.64
781.63	36.61
781.807	36.5
781.984	35.23
782.16	35.68
782.337	37.14
782.514	36.9
782.691	36.15
782.867	37.33
783.044	36.53
783.221	36.7
783.397	40.57
783.574	41.79
783.75	42.26
783.927	44.24
784.103	42
784.28	41.46
784.456	42.46
784.633	44.31
784.809	43.59
784.986	41.85
785.162	42
785.339	40.2
785.515	38.36
785.692	36.27
785.868	34.8
786.044	35.17
786.221	33.66
786.397	33.44
786.573	33.48
786.749	31.2
786.926	31.64
787.102	36.76
787.278	34.03
787.454	34.62
787.631	35.82
787.807	35.29
787.983	36.12
788.159	37.23
788.335	36.14
788.511	34.43
788.687	35.12
788.863	35.42
789.039	31.01
789.216	31.86
789.392	33.12
789.568	33.45
789.744	34.96
789.919	31.99
790.095	31.14
790.271	32.3
790.447	32.29
790.623	32.56
790.799	31.8
790.975	30.96
791.151	33.8
791.327	33.77
791.502	33.38
791.678	30.75
791.854	33.43
792.03	32.09
792.205	30.9
792.381	31.4
792.557	34
792.733	33.37
792.908	34.07
793.084	33.02
793.259	34.67
793.435	34.35
793.611	38.98
793.786	39.03
793.962	41.1
794.137	41
794.313	38.55
794.488	33.34
794.664	33.3
794.839	35.48
795.015	36.21
795.19	33.39
795.366	35.52
795.541	31.73
795.716	30.57
795.892	32.72
796.067	34.08
796.242	36.26
796.418	37.92
796.593	37.81
796.768	35.07
796.944	34.58
797.119	34.24
797.294	33.73
797.469	32.71
797.644	33.71
797.82	33.61
797.995	32.34
798.17	32.75
798.345	35.13
798.52	34.9
798.695	36.46
798.87	33.13
799.045	33.32
799.22	31.52
799.395	33.55
799.57	31.61
799.745	30.29
799.92	30.88
800.095	29.96
800.27	30.72
800.445	33.43
800.62	34.83
800.795	34.9
800.97	36.77
801.145	34.79
801.319	34.24
801.494	34.78
801.669	34.92
801.844	33.84
802.018	34.48
802.193	31.55
802.368	30.03
802.543	29.01
802.717	32.07
802.892	29.16
803.067	33.57
803.241	38.72
803.416	40.48
803.59	39.02
803.765	39.6
803.94	37.29
804.114	36.25
804.289	37.55
804.463	37.21
804.638	39.68
804.812	41.05
804.986	41.29
805.161	34.56
805.335	35.79
805.51	33.9
805.684	35.07
805.858	37.07
806.033	39.34
806.207	40.28
806.381	40.27
806.556	34.86
806.73	34.82
806.904	30.86
807.078	33.2
807.253	31
807.427	33.1
807.601	31.74
807.775	28.7
807.949	28.33
808.123	27.84
808.298	28.32
808.472	30.73
808.646	31.71
808.82	33.54
808.994	32.38
809.168	32.6
809.342	35.38
809.516	34.2
809.69	37.35
809.864	40.06
810.038	36.26
810.212	37.55
810.385	38.65
810.559	36.97
810.733	37.83
810.907	38.92
811.081	38.52
811.255	33.98
811.428	33.76
811.602	34.87
811.776	32.23
811.95	37.95
812.123	36.59
812.297	34.09
812.471	36.66
812.644	40.67
812.818	40.31
812.992	42.52
813.165	40.39
813.339	42.1
813.512	41.1
813.686	40.5
813.86	39.94
814.033	38.13
814.207	41.33
814.38	42.35
814.554	39.76
814.727	38.24
814.9	37.95
815.074	41.91
815.247	42.93
815.421	42.28
815.594	42.63
815.767	40
815.941	39.31
816.114	36.87
816.287	32.45
816.46	30.53
816.634	32.62
816.807	33.96
816.98	33.26
817.153	34.16
817.327	35.24
817.5	36.6
817.673	36.97
817.846	35.34
818.019	36.81
818.192	39.88
818.365	37.85
818.538	39.02
818.711	38.53
818.884	37.98
819.057	35.97
819.23	35.18
819.403	33.81
819.576	30.96
819.749	33.87
819.922	32.01
820.095	28.86
820.268	30.59
820.441	29.38
820.614	29.2
820.786	30.4
820.959	29.71
821.132	29.73
821.305	31.05
821.477	33
821.65	32.74
821.823	33.85
821.996	35.72
822.168	36.14
822.341	36.25
822.514	35.74
822.686	35.73
822.859	35.58
823.031	35.78
823.204	35.69
823.376	35.65
823.549	36.45
823.722	36.09
823.894	35.64
824.067	35.12
824.239	34.69
824.411	34.72
824.584	34.92
824.756	35.72
824.929	35.67
825.101	34.51
825.273	34.22
825.446	33.31
825.618	33.81
825.79	33.87
825.963	34.35
826.135	34.56
826.307	34.29
826.479	33.65
826.652	32.95
826.824	33.42
826.996	34.29
827.168	34.86
827.34	35.26
827.512	34.47
827.684	34.66
827.856	34.83
828.029	35.52
828.201	35.92
828.373	35.83
828.545	36.56
828.717	35.91
828.889	36.43
829.061	35.97
829.232	35.66
829.404	36.98
829.576	36.88
829.748	37.41
829.92	36.78
830.092	37.76
830.264	39.38
830.436	40.41
830.607	41.21
830.779	41.43
830.951	41.61
831.123	41
831.294	38.63
831.466	39.17
831.638	38.12
831.809	39.32
831.981	37.35
832.153	35.06
832.324	33.35
832.496	31.68
832.667	30.71
832.839	29.71
833.011	31.21
833.182	30.49
833.354	27.84
833.525	27.43
833.697	27.42
833.868	29.3
834.039	28.89
834.211	27.84
834.382	30.22
834.554	32.03
834.725	32.77
834.896	32.79
835.068	34.12
835.239	35.82
835.41	37.06
835.581	36.34
835.753	36
835.924	37.05
836.095	38.41
836.266	37.05
836.438	34.68
836.609	34.24
836.78	33.95
836.951	34.11
837.122	31.93
837.293	31.58
837.464	32.44
837.635	31.27
837.806	31.55
837.977	31.9
838.148	31.1
838.319	32.64
838.49	33.88
838.661	33.48
838.832	33.8
839.003	32.48
839.174	31.49
839.345	30.75
839.516	31.6
839.687	29.83
839.857	28.25
840.028	30.2
840.199	31.75
840.37	30.35
840.54	32.65
840.711	33.05
840.882	37.24
841.053	35.84
841.223	36.29
841.394	34.55
841.564	30.24
841.735	25.01
841.906	24.68
842.076	21.04
842.247	22.45
842.417	19.85
842.588	22
842.758	22.95
842.929	20.9
843.099	16.57
843.27	23.86
843.44	30.06
843.611	36.33
843.781	34.43
843.951	34.94
844.122	38.32
844.292	40.19
844.462	34.96
844.633	31.98
844.803	32.1
844.973	31.61
845.144	28.07
845.314	23.72
845.484	20.88
845.654	25.45
845.824	27.21
845.995	23.67
846.165	24.12
846.335	25.02
846.505	27.38
846.675	32.72
846.845	42.13
847.015	41.32
847.185	47.26
847.355	52.27
847.525	52.82
847.695	44.62
847.865	37.1
848.035	32.77
848.205	37.37
848.375	40.35
848.545	43.12
848.715	38.08
848.884	34.81
849.054	39.52
849.224	38.31
849.394	38.97
849.564	44.72
849.733	47.96
849.903	51.53
850.073	53.09
850.243	46.18
850.412	38.68
850.582	33.78
850.752	30.34
850.921	20.11
851.091	17.84
851.26	13.27
851.43	7.54
851.599	4.87
851.769	-8.11
851.939	-10.61
852.108	-10.32
852.278	-1.56
852.447	7.06
852.616	13.1
852.786	17.71
852.955	16.26
853.125	21.58
853.294	28.61
853.463	40.82
853.633	46.07
853.802	48.01
853.971	52.81
854.141	42.5
854.31	37.6
854.479	35.39
854.648	28.66
854.818	35.92
854.987	30.3
855.156	31.5
855.325	25.95
855.494	28.65
855.663	32.81
855.832	24.54
856.001	25.94
856.171	22.75
856.34	22.48
856.509	27.17
856.678	22.64
856.847	24.39
857.016	22.57
857.185	25.17
857.353	23.71
857.522	16.86
857.691	22.37
857.86	22.17
858.029	24.96
858.198	27.82
858.367	27.48
858.535	22.03
858.704	23.71
858.873	21.12
859.042	18.3
859.21	26.14
859.379	33.38
859.548	32.79
859.717	42.05
859.885	51.46
860.054	52.16
860.222	53.85
860.391	57.6
860.56	63.66
860.728	66.17
860.897	66.89
861.065	67.66
861.234	68.79
861.402	68.35
861.571	66.31
861.739	66.02
861.908	70.08
862.076	57.92
862.244	63.17
862.413	55.15
862.581	54.6
862.749	52.32
862.918	49.55
863.086	46.41
863.254	46.84
863.423	46.92
863.591	39.63
863.759	35.73
863.927	42.09
864.096	42.26
864.264	39.98
864.432	36.87
864.6	38.61
864.768	31.66
864.936	25.02
865.104	22.96
865.272	14.31
865.44	13.17
865.608	13.88
865.776	15.12
865.944	15.41
866.112	13.18
866.28	18.66
866.448	16.21
866.616	20.17
866.784	23.72
866.952	26.39
867.12	22.45
867.288	22.81
867.455	29.4
867.623	35.18
867.791	33.75
867.959	47.01
868.127	37.71
868.294	35.47
868.462	36.69
868.63	33.28
868.797	35.99
868.965	45.39
869.133	40.66
869.3	33.37
869.468	33.16
869.636	29.63
869.803	21.93
869.971	37.08
870.138	41.23
870.306	41.51
870.473	43.9
870.641	44.19
870.808	36.51
870.975	35.14
871.143	29.55
871.31	27.24
871.478	34.15
871.645	40.42
871.812	30.69
871.98	33.28
872.147	37.04
872.314	37.08
872.482	28.65
872.649	36.54
872.816	52.91
872.983	57.43
873.15	52.74
873.318	38.81
873.485	38.85
873.652	43.32
873.819	39.16
873.986	35.53
874.153	34.71
874.32	39.38
874.487	42.48
874.654	38.47
874.821	43.94
874.988	43.54
875.155	53.15
875.322	43.15
875.489	41.19
875.656	43.83
875.823	49.88
875.99	59.05
876.157	59.07
876.324	60.29
876.49	56.74
876.657	55.88
876.824	59.93
876.991	50.48
877.157	62.2
877.324	59.73
877.491	57.21
877.658	53.26
877.824	43.38
877.991	45.2
878.157	40.9
878.324	41.53
878.491	36.71
878.657	37.28
878.824	45.11
878.99	47.87
879.157	50.97
879.323	43.66
879.49	44.83
879.656	41.61
879.823	36.98
879.989	29.05
880.156	35.14
880.322	35.31
880.488	34.96
880.655	35.56
880.821	32.11
880.987	31.93
881.154	36.23
881.32	33.84
881.486	36.98
881.652	38.28
881.819	41.48
881.985	35.18
882.151	34.93
882.317	37.07
882.483	35
882.649	33.25
882.816	33.5
882.982	35.21
883.148	34.97
883.314	36.28
883.48	34.89
883.646	35.6
883.812	36.74
883.978	37.17
884.144	36.35
884.31	36.87
884.476	38.8
884.642	38.77
884.807	37.68
884.973	36.15
885.139	35.75
885.305	37.77
885.471	36.84
885.637	35.74
885.802	36.73
885.968	36.87
886.134	37.8
886.3	36.17
886.465	34.45
886.631	33.23
886.797	35.69
886.962	32.87
887.128	30.05
887.293	32.14
887.459	36.67
887.625	33.24
887.79	30.87
887.956	24.2
888.121	23.56
888.287	24.31
888.452	24.83
888.618	23.71
888.783	23.6
