Data from CB_009_Reflection_2.txt Node
Date: Wed Nov 11 18:39:34 EST 2015
User: robert
Spectrometer: USB4E03001
Autoset integration time: false
Trigger mode: 4
Integration Time (sec): 1.000000E-1
Scans to average: 15
Electric dark correction enabled: true
Nonlinearity correction enabled: false
Boxcar width: 5
Stray light correction enabled: false
XAxis mode: Wavelengths
Stop averaging: false
Number of Pixels in Spectrum: 3648
>>>>>Begin Spectral Data<<<<<
177.566	59.74
177.785	102.2
178.005	73.2
178.225	772.85
178.445	-42.2
178.665	-353.13
178.885	60.51
179.105	28.83
179.324	87.37
179.544	29.86
179.764	46.48
179.984	-72.08
180.204	97.79
180.423	24.49
180.643	21.3
180.863	357.14
181.083	90.08
181.302	141.36
181.522	-667.07
181.742	-109.18
181.961	164.34
182.181	59.46
182.401	13.32
182.621	115.84
182.84	70.57
183.06	91.12
183.279	89.97
183.499	225.42
183.719	351.05
183.938	166.43
184.158	156.2
184.377	-13.97
184.597	-44.37
184.816	-112.12
185.036	-435.8
185.256	-134.33
185.475	340.14
185.695	-3322.99
185.914	152.09
186.134	115.49
186.353	152.45
186.572	289.28
186.792	243.79
187.011	198.76
187.231	174.82
187.45	189.6
187.67	153.21
187.889	1264.56
188.108	369.55
188.328	653.71
188.547	-202.64
188.766	-690.24
188.986	233.95
189.205	-17040.91
189.424	545.3
189.644	2475.21
189.863	205.14
190.082	267.57
190.302	231.41
190.521	184.94
190.74	138.91
190.959	112.57
191.178	85.55
191.398	84.27
191.617	53.65
191.836	62
192.055	77.39
192.274	79.6
192.494	70.94
192.713	68.89
192.932	75.82
193.151	81.4
193.37	96.83
193.589	90.66
193.808	121.72
194.027	151.25
194.246	150.55
194.465	136.67
194.685	99.06
194.904	110.93
195.123	251.5
195.342	930.94
195.561	135.56
195.78	159.21
195.999	135.19
196.218	-89.41
196.436	341.02
196.655	946.4
196.874	-393.79
197.093	-334.44
197.312	-613.64
197.531	333.72
197.75	412.23
197.969	160.77
198.188	188.17
198.407	157.59
198.625	261.56
198.844	188.41
199.063	167.09
199.282	103.09
199.501	113.18
199.719	103.52
199.938	546.48
200.157	42.34
200.376	-41.6
200.594	51.94
200.813	654.29
201.032	367.27
201.251	122.87
201.469	209.18
201.688	257.49
201.907	262.27
202.125	216.87
202.344	161.01
202.563	220.87
202.781	252.76
203	194.36
203.218	158.56
203.437	137.95
203.656	138.67
203.874	114.03
204.093	81.43
204.311	71.49
204.53	51.07
204.748	-16.7
204.967	-77.19
205.185	-47.51
205.404	-1.61
205.622	-4.84
205.841	22.65
206.059	-5.03
206.278	-22.29
206.496	-29.62
206.715	-13.87
206.933	82.33
207.151	129.43
207.37	90.35
207.588	135.47
207.806	195.63
208.025	274.3
208.243	176.34
208.461	115.46
208.68	111.36
208.898	184.4
209.116	198.3
209.335	162.62
209.553	-436.36
209.771	300.2
209.989	-3252.17
210.208	-1031.87
210.426	-437.19
210.644	-119.71
210.862	-85.92
211.081	-103.27
211.299	-95.52
211.517	-167.18
211.735	-145.66
211.953	-215.43
212.171	20.75
212.39	-176.44
212.608	-1454.3
212.826	228.64
213.044	157.76
213.262	137.19
213.48	91.95
213.698	180.44
213.916	-624.43
214.134	-207.02
214.352	-476.77
214.57	702.96
214.788	198.84
215.006	196.9
215.224	168.08
215.442	95.63
215.66	81.24
215.878	110.81
216.096	93.74
216.314	82.64
216.532	79.73
216.75	93.78
216.968	85.14
217.185	79.4
217.403	102.67
217.621	88.08
217.839	168.73
218.057	3294.97
218.275	-1127.37
218.492	-110.66
218.71	-79.37
218.928	-178.65
219.146	-62.26
219.363	-18.09
219.581	-88.07
219.799	-104.88
220.017	-77.81
220.234	-44.82
220.452	-47.45
220.67	-34.75
220.887	-61.96
221.105	-16.41
221.323	14.09
221.54	33.86
221.758	26.77
221.976	24.69
222.193	15.36
222.411	-13.58
222.629	-4.58
222.846	-25.64
223.064	10.47
223.281	-5.38
223.499	-42.15
223.716	-59.64
223.934	-379.17
224.151	-731.34
224.369	-433.58
224.586	240300
224.804	-851.68
225.021	-413.22
225.239	-179.73
225.456	-149.92
225.674	-78.7
225.891	-19.72
226.108	-19.37
226.326	-13.85
226.543	1.67
226.76	7.89
226.978	25.71
227.195	12.8
227.413	9.97
227.63	5.31
227.847	-8.4
228.064	-6.28
228.282	0.07
228.499	4.78
228.716	6.82
228.934	6.21
229.151	4.53
229.368	3.63
229.585	4.75
229.802	7.3
230.02	5.53
230.237	9.57
230.454	11.41
230.671	11.39
230.888	7.56
231.105	6.1
231.323	8.42
231.54	12.74
231.757	6.58
231.974	4.22
232.191	-1.76
232.408	7.79
232.625	-2.03
232.842	-11.31
233.059	-13.13
233.276	-3.9
233.493	-5.07
233.71	-10.06
233.927	-12.98
234.144	-1.03
234.361	4.01
234.578	3.08
234.795	-3.51
235.012	-1.35
235.229	3.6
235.446	-1.83
235.663	-12.46
235.879	-7.45
236.096	-4.97
236.313	-12.57
236.53	-18.58
236.747	-15.76
236.964	-17.64
237.181	-21.37
237.397	-17.49
237.614	-11.15
237.831	-12.5
238.048	-11.72
238.264	-19.71
238.481	-26.65
238.698	-15.77
238.915	-19.29
239.131	-23.21
239.348	-27.37
239.565	-20.7
239.781	-14.74
239.998	-13.62
240.215	-8.24
240.431	-2.39
240.648	5.02
240.865	9.31
241.081	7.26
241.298	10.14
241.514	11.06
241.731	13.11
241.947	12.68
242.164	12.33
242.38	9.99
242.597	10.03
242.814	10.41
243.03	8.24
243.246	8.67
243.463	9.19
243.679	10.23
243.896	10.61
244.112	10.41
244.329	8.17
244.545	7.58
244.762	8.95
244.978	8.15
245.194	4.38
245.411	6.03
245.627	4.57
245.843	5.39
246.06	6.85
246.276	7.39
246.492	7.45
246.709	7.99
246.925	6.88
247.141	6.91
247.357	7.41
247.574	9.21
247.79	8.8
248.006	8.39
248.222	8.98
248.439	7.63
248.655	7.42
248.871	7.85
249.087	8.41
249.303	9.45
249.519	8.38
249.736	8.4
249.952	6.69
250.168	6.63
250.384	8.11
250.6	6.56
250.816	7.88
251.032	6.71
251.248	4.7
251.464	4.16
251.68	2.94
251.896	5.51
252.112	4.18
252.328	5.64
252.544	5.07
252.76	3.87
252.976	3.46
253.192	2.72
253.408	2.54
253.624	2.43
253.84	1.7
254.056	1.38
254.272	-0.12
254.487	1.01
254.703	1.69
254.919	2.85
255.135	3.28
255.351	3.13
255.567	4.63
255.782	4.13
255.998	6.68
256.214	8.63
256.43	11.42
256.646	10.69
256.861	8.61
257.077	5.55
257.293	2.69
257.508	3.51
257.724	3.19
257.94	0.75
258.155	-0.18
258.371	0.43
258.587	-1.11
258.802	-0.93
259.018	-0.2
259.234	1.19
259.449	2.3
259.665	3.11
259.88	2.85
260.096	3.35
260.312	3.77
260.527	4.63
260.743	4.31
260.958	4.7
261.174	4.78
261.389	3.66
261.605	3.23
261.82	3.17
262.036	2.76
262.251	3.33
262.466	4.19
262.682	3.15
262.897	1.79
263.113	0.47
263.328	1.3
263.543	0.88
263.759	1.28
263.974	1.31
264.189	1.36
264.405	0.88
264.62	-2.11
264.835	-5.07
265.051	-2.41
265.266	-2.75
265.481	-0.08
265.696	-1.51
265.912	-0.12
266.127	1.4
266.342	2.18
266.557	0.27
266.773	-0.04
266.988	1.4
267.203	1.74
267.418	0.35
267.633	-0.3
267.848	-1.21
268.064	-0.66
268.279	-1.61
268.494	-1.41
268.709	-0.71
268.924	0.49
269.139	1.69
269.354	2.15
269.569	4.1
269.784	6.28
269.999	7.46
270.214	7.62
270.429	5.89
270.644	5.9
270.859	5.67
271.074	4.39
271.289	4.65
271.504	4.44
271.719	3.47
271.934	2.63
272.149	2.25
272.363	2.78
272.578	2.79
272.793	5.53
273.008	4.9
273.223	4.83
273.438	5.66
273.653	5.31
273.867	6.05
274.082	5.63
274.297	5.75
274.512	4.88
274.726	4.78
274.941	4.46
275.156	2.42
275.371	3.1
275.585	3.1
275.8	2.32
276.015	1.51
276.229	0.36
276.444	3.18
276.659	1.12
276.873	0.05
277.088	-0.71
277.302	-0.03
277.517	-0.69
277.732	-1.35
277.946	-1.39
278.161	-1.49
278.375	-0.69
278.59	0.39
278.804	-0.53
279.019	1.54
279.233	4.38
279.448	4.73
279.662	4.15
279.877	6.1
280.091	7.66
280.306	7.74
280.52	7.78
280.735	7.45
280.949	8.01
281.163	8.39
281.378	7.93
281.592	7.56
281.806	7.8
282.021	6.78
282.235	5.64
282.449	3.96
282.664	3.9
282.878	3.76
283.092	4.42
283.307	4.32
283.521	4.62
283.735	6.38
283.949	4.94
284.164	4.6
284.378	6.67
284.592	6.97
284.806	7.91
285.02	7.64
285.234	7.86
285.449	7.26
285.663	6.4
285.877	5.71
286.091	4.04
286.305	4.68
286.519	5.05
286.733	5
286.947	3.97
287.161	3.7
287.375	3.69
287.589	2.92
287.803	4.05
288.017	4.38
288.231	3.46
288.445	4.52
288.659	3.53
288.873	2.65
289.087	2.02
289.301	4.01
289.515	4.58
289.729	4.82
289.943	5.86
290.157	5.27
290.371	5.07
290.584	6.58
290.798	6.25
291.012	6.97
291.226	7.99
291.44	6.98
291.654	6.25
291.867	6.44
292.081	5.48
292.295	4.79
292.509	4.04
292.722	4.49
292.936	3.7
293.15	4.44
293.364	3.44
293.577	3.68
293.791	5.39
294.005	4.47
294.218	4.55
294.432	5.59
294.645	6.15
294.859	6.71
295.073	6.11
295.286	5.57
295.5	6.12
295.713	7.33
295.927	7.16
296.14	6.93
296.354	8.2
296.568	7.5
296.781	6.89
296.994	6.15
297.208	6.24
297.421	6.62
297.635	7.5
297.848	6.73
298.062	7.28
298.275	6.43
298.489	5.49
298.702	5.27
298.915	6.29
299.129	6.96
299.342	7.73
299.555	6.68
299.769	7.03
299.982	7.06
300.195	7.72
300.409	6.74
300.622	7.17
300.835	7.61
301.048	7.02
301.262	6.24
301.475	6.22
301.688	7.63
301.901	9.03
302.115	8.1
302.328	7.06
302.541	5.48
302.754	5.48
302.967	4.68
303.18	4.58
303.393	7.37
303.607	7.78
303.82	7.45
304.033	5.7
304.246	5.31
304.459	4.57
304.672	5.39
304.885	6.05
305.098	5.88
305.311	8.63
305.524	8.7
305.737	5.8
305.95	5.65
306.163	6.96
306.376	7.43
306.589	7.37
306.802	9.34
307.015	9.08
307.228	9
307.44	9.9
307.653	9.32
307.866	9.77
308.079	10.11
308.292	10.14
308.505	9.84
308.718	8.54
308.93	8.66
309.143	7.65
309.356	7.8
309.569	8.01
309.781	8.25
309.994	6.78
310.207	7.25
310.42	7.61
310.632	7.35
310.845	8.26
311.058	10.12
311.27	9.98
311.483	11.15
311.696	11.14
311.908	11.04
312.121	10.46
312.333	11.24
312.546	11.15
312.759	10.87
312.971	10.62
313.184	8.87
313.396	9.03
313.609	10.26
313.821	8.71
314.034	9.29
314.246	10.12
314.459	9.27
314.671	9.18
314.884	9.31
315.096	10.39
315.309	10.02
315.521	10.67
315.733	9.24
315.946	8.29
316.158	9.24
316.371	8.39
316.583	7.08
316.795	8.83
317.008	8.4
317.22	8.54
317.432	7.55
317.644	7.41
317.857	7.75
318.069	8.16
318.281	8.47
318.494	8.26
318.706	7.38
318.918	7.72
319.13	6.59
319.342	6.55
319.555	5.84
319.767	4.56
319.979	6.3
320.191	5.5
320.403	4.01
320.615	2.68
320.827	3.18
321.039	3.92
321.252	4.85
321.464	5.65
321.676	5.83
321.888	5.77
322.1	7.86
322.312	7.79
322.524	9.16
322.736	10.73
322.948	11.6
323.16	11.98
323.372	12.21
323.584	11.61
323.796	12.31
324.007	12.79
324.219	12.76
324.431	13.57
324.643	13.35
324.855	13.21
325.067	13.4
325.279	13.94
325.491	12.74
325.702	13.55
325.914	14.58
326.126	13.92
326.338	14.68
326.55	16.29
326.761	16.48
326.973	16.39
327.185	15.93
327.396	15.36
327.608	15.18
327.82	16.6
328.032	15.8
328.243	15.41
328.455	15.99
328.666	15.71
328.878	15.1
329.09	13.29
329.301	13.23
329.513	14.41
329.725	14.77
329.936	14.37
330.148	13.7
330.359	15.19
330.571	16.08
330.782	16.96
330.994	16.63
331.205	16.12
331.417	16.99
331.628	17.59
331.84	17.32
332.051	17.61
332.262	16.82
332.474	17.35
332.685	17.16
332.897	17.06
333.108	16.16
333.319	17.76
333.531	18.25
333.742	18.09
333.953	18.98
334.165	18.44
334.376	17.71
334.587	18.65
334.799	19.31
335.01	18.78
335.221	18.89
335.432	19.36
335.644	17.86
335.855	18.32
336.066	18.88
336.277	18.22
336.488	18.53
336.7	20.21
336.911	21.37
337.122	20.82
337.333	20.73
337.544	20.09
337.755	19.97
337.966	19.56
338.177	19.13
338.388	18.39
338.599	18.24
338.811	18.11
339.022	17.44
339.233	15.76
339.444	16.21
339.655	17.93
339.866	18.09
340.076	17.66
340.287	18.82
340.498	20.26
340.709	20.64
340.92	20.83
341.131	21.12
341.342	20.79
341.553	20.91
341.764	20.52
341.975	18.61
342.185	19.19
342.396	19.94
342.607	19.11
342.818	16.56
343.029	16.32
343.239	16.13
343.45	16.09
343.661	16.14
343.872	16.9
344.082	16.94
344.293	17.44
344.504	18.04
344.714	17.53
344.925	18.68
345.136	19.25
345.346	20.1
345.557	20.63
345.768	20.93
345.978	21.47
346.189	21.7
346.399	21.76
346.61	22.07
346.821	21.12
347.031	20.56
347.242	19.59
347.452	20.04
347.663	19.28
347.873	19.43
348.084	19.86
348.294	19.28
348.504	18.36
348.715	18.45
348.925	18.35
349.136	17.61
349.346	18.05
349.557	18.62
349.767	18.34
349.977	18
350.188	17.6
350.398	16.8
350.608	16.97
350.819	17.4
351.029	17.33
351.239	17.18
351.449	17.06
351.66	17.79
351.87	17.67
352.08	17.81
352.29	18.7
352.501	18.89
352.711	18.54
352.921	18.01
353.131	18.25
353.341	17.8
353.552	17.54
353.762	17.57
353.972	16.86
354.182	17.13
354.392	16.62
354.602	16.45
354.812	16.05
355.022	16.59
355.232	16.6
355.442	15.63
355.652	16.03
355.862	16.46
356.072	16.88
356.282	17.21
356.492	16.8
356.702	17.65
356.912	17.1
357.122	16.54
357.332	16.4
357.542	16.32
357.752	17.49
357.962	17.48
358.171	17.61
358.381	17.27
358.591	17.17
358.801	17.59
359.011	17.21
359.221	17.26
359.43	17.24
359.64	17.82
359.85	18.37
360.06	17.6
360.269	17.27
360.479	16.55
360.689	16.86
360.899	17.52
361.108	17.21
361.318	17.25
361.528	17.6
361.737	17.95
361.947	17.3
362.156	17.04
362.366	17.2
362.576	16.7
362.785	16.7
362.995	16.65
363.204	16.12
363.414	15.83
363.623	15.51
363.833	15.31
364.042	15.35
364.252	15.38
364.461	15.78
364.671	15.68
364.88	16.16
365.09	16.03
365.299	16.03
365.509	15.54
365.718	15.67
365.927	15.72
366.137	15.72
366.346	15.22
366.555	14.48
366.765	13.78
366.974	13.64
367.183	13.33
367.393	13.69
367.602	13.26
367.811	13.17
368.021	13.09
368.23	13.56
368.439	13.12
368.648	13.23
368.857	14.32
369.067	14.39
369.276	14.44
369.485	14.92
369.694	14.78
369.903	15.03
370.112	15.5
370.321	14.91
370.531	14.26
370.74	13.88
370.949	13.67
371.158	12.54
371.367	12.79
371.576	12.46
371.785	12.31
371.994	12.17
372.203	12.26
372.412	12.21
372.621	13.09
372.83	13.58
373.039	14.19
373.248	14.53
373.457	15.14
373.666	15.13
373.874	15.38
374.083	15.57
374.292	15.24
374.501	15.17
374.71	14.58
374.919	14.12
375.128	13.81
375.336	13.29
375.545	12.87
375.754	12.24
375.963	11.44
376.171	11.28
376.38	10.64
376.589	10.67
376.798	10.54
377.006	10.34
377.215	10.44
377.424	10.39
377.632	10.69
377.841	10.7
378.05	10.24
378.258	10.51
378.467	10.64
378.675	10.51
378.884	10.19
379.093	9.74
379.301	10.28
379.51	10.04
379.718	9.51
379.927	9.35
380.135	8.93
380.344	9.56
380.552	9.32
380.761	8.93
380.969	9.27
381.177	10.1
381.386	10.33
381.594	9.65
381.803	9.28
382.011	9.63
382.219	9.46
382.428	9.57
382.636	10
382.845	10.24
383.053	10.31
383.261	9.81
383.469	9.49
383.678	9.72
383.886	9.95
384.094	9.72
384.302	9.77
384.511	9.9
384.719	10
384.927	9.78
385.135	9.7
385.343	9.27
385.552	9.93
385.76	9.51
385.968	9.36
386.176	9.07
386.384	9.56
386.592	9.14
386.8	8.91
387.008	8.67
387.216	8.55
387.424	8.68
387.633	9
387.841	8.65
388.049	8.39
388.257	8.38
388.465	8.51
388.672	8.17
388.88	8.11
389.088	8.1
389.296	8.28
389.504	8.12
389.712	7.73
389.92	7.75
390.128	7.47
390.336	7.76
390.544	7.77
390.751	7.83
390.959	7.84
391.167	7.9
391.375	7.86
391.583	7.61
391.79	7.5
391.998	7.42
392.206	7.02
392.414	7.36
392.621	7.34
392.829	7.18
393.037	6.92
393.244	6.8
393.452	6.51
393.66	6.15
393.867	5.97
394.075	6.09
394.283	5.97
394.49	6.09
394.698	5.78
394.905	5.71
395.113	5.51
395.32	5.68
395.528	5.4
395.735	5.56
395.943	5.71
396.15	5.91
396.358	5.74
396.565	5.71
396.773	5.86
396.98	5.71
397.188	5.83
397.395	5.82
397.602	5.56
397.81	5.8
398.017	5.77
398.225	5.9
398.432	6.04
398.639	6.35
398.847	6.57
399.054	6.21
399.261	6.23
399.468	6.13
399.676	6.1
399.883	5.97
400.09	6.15
400.297	5.94
400.505	5.46
400.712	5.46
400.919	5.25
401.126	5.15
401.333	5.31
401.54	5.24
401.748	4.8
401.955	4.83
402.162	4.9
402.369	4.58
402.576	4.93
402.783	5.28
402.99	4.92
403.197	4.93
403.404	4.41
403.611	4.27
403.818	4.39
404.025	4.85
404.232	4.85
404.439	4.95
404.646	4.91
404.853	4.8
405.06	4.74
405.267	4.93
405.474	4.72
405.681	5.3
405.887	5.34
406.094	5.4
406.301	5.35
406.508	5.22
406.715	5.26
406.922	5.59
407.128	5.64
407.335	5.53
407.542	5.47
407.749	5.38
407.955	5.27
408.162	5.39
408.369	5.32
408.575	5.21
408.782	5.5
408.989	5.34
409.195	5.26
409.402	5.05
409.609	5.22
409.815	5.49
410.022	5.48
410.228	5.35
410.435	5.3
410.642	5.2
410.848	5.11
411.055	4.84
411.261	4.77
411.468	4.71
411.674	4.84
411.881	4.66
412.087	4.22
412.294	4.51
412.5	4.52
412.706	4.5
412.913	4.02
413.119	4.09
413.326	4.32
413.532	4.24
413.738	4.34
413.945	4.07
414.151	4.34
414.357	4.5
414.564	4.35
414.77	4.35
414.976	4.39
415.182	4.66
415.389	4.78
415.595	4.8
415.801	4.77
416.007	4.74
416.214	4.84
416.42	4.58
416.626	4.67
416.832	4.6
417.038	4.55
417.244	4.38
417.45	4.53
417.657	4.32
417.863	4.19
418.069	4.24
418.275	4.2
418.481	4.2
418.687	4.06
418.893	3.92
419.099	3.93
419.305	4.15
419.511	4.16
419.717	4.22
419.923	4.24
420.129	4.19
420.335	4.17
420.541	4.04
420.746	4.22
420.952	4.49
421.158	4.58
421.364	4.48
421.57	4.37
421.776	4.26
421.982	4.15
422.187	4.14
422.393	4.16
422.599	4.3
422.805	4.32
423.01	4.28
423.216	4.09
423.422	3.91
423.628	3.96
423.833	3.97
424.039	4.23
424.245	4.31
424.45	4.48
424.656	4.45
424.862	4.45
425.067	4.53
425.273	4.47
425.478	4.64
425.684	4.82
425.889	4.96
426.095	4.84
426.301	4.76
426.506	4.77
426.712	4.59
426.917	4.82
427.123	4.77
427.328	4.68
427.533	4.63
427.739	4.49
427.944	4.38
428.15	4.29
428.355	4.5
428.561	4.48
428.766	4.13
428.971	4.27
429.177	4.13
429.382	3.88
429.587	3.83
429.793	3.6
429.998	3.71
430.203	3.67
430.408	3.3
430.614	3.02
430.819	3.1
431.024	3.1
431.229	3.05
431.434	2.92
431.64	2.95
431.845	3.13
432.05	3.55
432.255	3.32
432.46	3.31
432.665	3.62
432.87	3.82
433.076	3.93
433.281	3.94
433.486	3.88
433.691	3.7
433.896	3.83
434.101	3.88
434.306	3.68
434.511	3.71
434.716	3.78
434.921	3.77
435.126	3.65
435.331	3.28
435.535	3.41
435.74	3.42
435.945	3.64
436.15	3.59
436.355	3.61
436.56	3.52
436.765	3.5
436.97	3.5
437.174	3.44
437.379	3.55
437.584	3.76
437.789	3.76
437.993	3.79
438.198	3.99
438.403	4.12
438.608	4.05
438.812	4.04
439.017	4.2
439.222	4.27
439.426	4.31
439.631	4.21
439.836	4.24
440.04	4.36
440.245	4.4
440.45	4.25
440.654	4.29
440.859	4.26
441.063	4.27
441.268	4.25
441.472	4.26
441.677	4.17
441.881	4.1
442.086	4.04
442.29	3.82
442.495	3.68
442.699	3.79
442.904	3.7
443.108	3.69
443.312	3.84
443.517	3.75
443.721	3.8
443.925	3.9
444.13	4.04
444.334	4.14
444.538	4.27
444.743	4.39
444.947	4.21
445.151	4.15
445.356	4.24
445.56	4.06
445.764	4.19
445.968	4.08
446.173	4.09
446.377	3.96
446.581	3.84
446.785	3.82
446.989	3.74
447.193	3.7
447.398	3.69
447.602	3.49
447.806	3.55
448.01	3.39
448.214	3.37
448.418	3.28
448.622	3.45
448.826	3.66
449.03	3.77
449.234	3.83
449.438	3.87
449.642	3.87
449.846	3.82
450.05	3.88
450.254	3.98
450.458	3.99
450.662	3.93
450.866	3.71
451.069	3.51
451.273	3.41
451.477	3.32
451.681	3.32
451.885	3.25
452.089	3.33
452.292	3.4
452.496	3.46
452.7	3.46
452.904	3.48
453.107	3.42
453.311	3.44
453.515	3.35
453.719	3.4
453.922	3.38
454.126	3.57
454.33	3.75
454.533	3.58
454.737	3.42
454.94	3.44
455.144	3.4
455.348	3.52
455.551	3.41
455.755	3.54
455.958	3.35
456.162	3.24
456.365	3
456.569	2.77
456.772	2.81
456.976	2.61
457.179	2.48
457.383	2.59
457.586	2.38
457.79	2.52
457.993	2.36
458.196	2.5
458.4	2.69
458.603	2.87
458.807	3.02
459.01	3.11
459.213	3.27
459.417	3.29
459.62	3.37
459.823	3.5
460.026	3.47
460.23	3.55
460.433	3.59
460.636	3.6
460.839	3.7
461.042	3.65
461.246	3.64
461.449	3.81
461.652	3.86
461.855	3.79
462.058	3.86
462.261	3.83
462.464	3.96
462.668	4.07
462.871	4.08
463.074	3.91
463.277	3.98
463.48	3.91
463.683	3.77
463.886	3.73
464.089	3.7
464.292	3.49
464.495	3.57
464.698	3.58
464.901	3.48
465.104	3.42
465.306	3.44
465.509	3.38
465.712	3.3
465.915	3.44
466.118	3.85
466.321	3.84
466.524	3.93
466.726	4.05
466.929	3.84
467.132	3.87
467.335	3.88
467.538	3.84
467.74	3.92
467.943	4.07
468.146	3.94
468.348	3.68
468.551	3.74
468.754	3.97
468.956	3.87
469.159	3.91
469.362	3.73
469.564	3.8
469.767	3.71
469.969	3.95
470.172	3.94
470.375	3.88
470.577	3.74
470.78	3.77
470.982	3.68
471.185	3.58
471.387	3.71
471.59	3.93
471.792	3.9
471.995	4.02
472.197	3.85
472.399	3.86
472.602	3.93
472.804	4.03
473.007	3.91
473.209	3.87
473.411	3.78
473.614	3.64
473.816	3.51
474.018	3.49
474.22	3.46
474.423	3.35
474.625	3.27
474.827	3.17
475.03	3.03
475.232	3.09
475.434	3.18
475.636	3.3
475.838	3.22
476.04	3.26
476.243	3.37
476.445	3.45
476.647	3.4
476.849	3.44
477.051	3.43
477.253	3.39
477.455	3.51
477.657	3.41
477.859	3.56
478.061	3.67
478.263	3.8
478.465	3.51
478.667	3.45
478.869	3.53
479.071	3.44
479.273	3.52
479.475	3.58
479.677	3.38
479.879	3.39
480.081	3.22
480.283	3.13
480.485	3.1
480.686	3.22
480.888	3.21
481.09	3.1
481.292	3.22
481.494	3.27
481.695	3.3
481.897	3.53
482.099	3.6
482.301	3.59
482.502	3.71
482.704	3.64
482.906	3.72
483.107	3.73
483.309	3.84
483.511	3.87
483.712	3.88
483.914	3.83
484.115	3.79
484.317	3.79
484.519	3.84
484.72	3.76
484.922	3.78
485.123	3.76
485.325	3.79
485.526	3.75
485.728	3.68
485.929	3.71
486.131	3.83
486.332	3.82
486.534	3.83
486.735	3.82
486.936	3.93
487.138	3.93
487.339	3.97
487.541	3.9
487.742	3.92
487.943	3.93
488.144	3.86
488.346	3.78
488.547	3.78
488.748	3.74
488.95	3.69
489.151	3.67
489.352	3.64
489.553	3.52
489.755	3.59
489.956	3.57
490.157	3.58
490.358	3.62
490.559	3.65
490.76	3.74
490.961	3.74
491.163	3.73
491.364	3.74
491.565	3.71
491.766	3.85
491.967	3.86
492.168	3.84
492.369	3.78
492.57	3.81
492.771	3.77
492.972	3.65
493.173	3.71
493.374	3.67
493.575	3.58
493.776	3.57
493.976	3.41
494.177	3.37
494.378	3.31
494.579	3.34
494.78	3.23
494.981	3.35
495.182	3.41
495.382	3.27
495.583	3.42
495.784	3.5
495.985	3.56
496.185	3.61
496.386	3.49
496.587	3.5
496.788	3.56
496.988	3.6
497.189	3.65
497.39	3.66
497.59	3.72
497.791	3.66
497.992	3.76
498.192	3.78
498.393	3.85
498.593	3.92
498.794	4.05
498.994	3.97
499.195	4.05
499.395	4.09
499.596	4
499.796	4.1
499.997	4.15
500.197	3.96
500.398	3.99
500.598	3.85
500.799	3.83
500.999	3.89
501.199	4.17
501.4	4.17
501.6	4.13
501.801	4.25
502.001	4.2
502.201	4.25
502.402	4.41
502.602	4.42
502.802	4.63
503.002	4.84
503.203	4.72
503.403	4.65
503.603	4.56
503.803	4.31
504.003	4.27
504.204	4.4
504.404	4.45
504.604	4.37
504.804	4.39
505.004	4.28
505.204	4.24
505.404	4.27
505.604	4.24
505.804	4.3
506.005	4.49
506.205	4.58
506.405	4.58
506.605	4.63
506.805	4.7
507.005	4.76
507.204	4.85
507.404	4.84
507.604	4.8
507.804	4.91
508.004	5.15
508.204	5.22
508.404	5.25
508.604	5.13
508.804	5.14
509.003	5.33
509.203	5.37
509.403	5.33
509.603	5.39
509.803	5.57
510.002	5.66
510.202	5.62
510.402	5.68
510.602	5.65
510.801	5.75
511.001	5.82
511.201	5.63
511.4	5.77
511.6	6.02
511.8	5.94
511.999	5.65
512.199	5.57
512.398	5.55
512.598	5.66
512.797	5.87
512.997	5.78
513.197	5.78
513.396	5.95
513.596	5.83
513.795	5.61
513.994	5.78
514.194	6.09
514.393	6.18
514.593	6.08
514.792	5.93
514.992	5.9
515.191	6.06
515.39	6.12
515.59	6.34
515.789	6.49
515.988	6.67
516.188	6.78
516.387	6.75
516.586	6.78
516.786	6.93
516.985	7.16
517.184	7.16
517.383	7.21
517.582	7.25
517.782	7.2
517.981	7.29
518.18	7.39
518.379	7.33
518.578	7.5
518.777	7.59
518.976	7.66
519.176	7.81
519.375	7.86
519.574	8
519.773	8.1
519.972	8.06
520.171	8.12
520.37	8.16
520.569	8.26
520.768	8.15
520.967	8.19
521.166	8.18
521.365	7.95
521.564	7.85
521.762	7.8
521.961	7.79
522.16	7.9
522.359	7.85
522.558	7.96
522.757	8.06
522.956	8.16
523.154	8.14
523.353	8.29
523.552	8.46
523.751	8.79
523.949	8.9
524.148	9.04
524.347	9.15
524.546	9.36
524.744	9.43
524.943	9.53
525.142	9.6
525.34	9.75
525.539	9.77
525.737	9.89
525.936	9.86
526.135	9.92
526.333	9.84
526.532	9.91
526.73	9.84
526.929	9.82
527.127	9.76
527.326	9.79
527.524	9.85
527.723	9.9
527.921	9.86
528.12	9.94
528.318	9.96
528.516	10.09
528.715	10.12
528.913	10.12
529.112	10.14
529.31	10.18
529.508	10.25
529.707	10.22
529.905	10.2
530.103	10.22
530.301	10.19
530.5	10.22
530.698	10.21
530.896	10.18
531.094	10.29
531.293	10.38
531.491	10.43
531.689	10.38
531.887	10.39
532.085	10.57
532.283	10.64
532.481	10.75
532.68	10.79
532.878	10.85
533.076	10.98
533.274	11
533.472	11.02
533.67	10.99
533.868	11.11
534.066	11.24
534.264	11.28
534.462	11.41
534.66	11.46
534.858	11.46
535.056	11.54
535.253	11.55
535.451	11.54
535.649	11.65
535.847	11.77
536.045	11.86
536.243	11.97
536.441	12.01
536.638	11.98
536.836	11.95
537.034	12.05
537.232	11.97
537.43	12.09
537.627	12.22
537.825	12.21
538.023	12.33
538.22	12.43
538.418	12.36
538.616	12.41
538.813	12.44
539.011	12.46
539.209	12.51
539.406	12.57
539.604	12.49
539.801	12.51
539.999	12.56
540.196	12.52
540.394	12.61
540.591	12.69
540.789	12.67
540.986	12.77
541.184	12.91
541.381	12.97
541.579	13.07
541.776	13.13
541.974	13.22
542.171	13.28
542.368	13.4
542.566	13.31
542.763	13.34
542.96	13.37
543.158	13.4
543.355	13.4
543.552	13.41
543.75	13.4
543.947	13.43
544.144	13.41
544.341	13.47
544.539	13.45
544.736	13.67
544.933	13.71
545.13	13.89
545.327	13.95
545.524	14.12
545.722	14.17
545.919	14.3
546.116	14.49
546.313	14.54
546.51	14.59
546.707	14.66
546.904	14.75
547.101	14.89
547.298	14.9
547.495	14.98
547.692	14.96
547.889	15.08
548.086	15.1
548.283	15.1
548.48	15.3
548.677	15.27
548.874	15.42
549.07	15.4
549.267	15.45
549.464	15.41
549.661	15.48
549.858	15.59
550.055	15.61
550.251	15.69
550.448	15.9
550.645	15.78
550.842	15.97
551.038	15.88
551.235	15.85
551.432	15.85
551.628	16.04
551.825	16.19
552.022	16.4
552.218	16.62
552.415	16.82
552.612	16.67
552.808	16.87
553.005	16.89
553.201	17.04
553.398	17.13
553.594	17.08
553.791	17.2
553.987	17.24
554.184	17.15
554.38	17.01
554.577	16.99
554.773	17.13
554.97	17.25
555.166	17.25
555.362	17.26
555.559	17.46
555.755	17.62
555.952	17.63
556.148	17.85
556.344	17.77
556.541	18.08
556.737	18.12
556.933	17.94
557.129	17.78
557.326	18
557.522	18.19
557.718	18.1
557.914	18.14
558.11	18.25
558.307	18.06
558.503	18.37
558.699	18.24
558.895	18.32
559.091	18.61
559.287	18.68
559.483	18.62
559.679	18.68
559.876	18.78
560.072	18.95
560.268	18.89
560.464	19.02
560.66	19.05
560.856	19.11
561.052	19.17
561.247	19.34
561.443	19.53
561.639	19.89
561.835	20.02
562.031	20.12
562.227	20.13
562.423	20.38
562.619	20.54
562.815	20.76
563.01	20.92
563.206	20.93
563.402	20.99
563.598	21.2
563.793	20.83
563.989	20.78
564.185	20.88
564.381	20.78
564.576	20.72
564.772	20.73
564.968	20.73
565.163	20.84
565.359	21.11
565.555	21.03
565.75	20.9
565.946	20.97
566.141	20.92
566.337	21.05
566.532	21.42
566.728	21.38
566.923	21.42
567.119	21.35
567.314	21.58
567.51	21.65
567.705	21.81
567.901	21.84
568.096	22.15
568.292	22.46
568.487	22.49
568.682	22.52
568.878	22.7
569.073	22.77
569.268	22.71
569.464	22.71
569.659	22.57
569.854	22.58
570.05	22.85
570.245	22.83
570.44	22.53
570.635	22.39
570.831	22.43
571.026	22.77
571.221	22.78
571.416	22.92
571.611	22.87
571.806	22.93
572.002	22.9
572.197	22.78
572.392	22.95
572.587	23.11
572.782	23.31
572.977	23.35
573.172	23.21
573.367	23.39
573.562	23.53
573.757	23.61
573.952	23.84
574.147	23.89
574.342	23.99
574.537	23.93
574.732	24.04
574.927	23.95
575.121	23.88
575.316	24.04
575.511	23.93
575.706	23.82
575.901	23.74
576.096	23.5
576.29	23.53
576.485	23.52
576.68	23.47
576.875	23.53
577.069	23.73
577.264	23.73
577.459	23.49
577.654	23.86
577.848	23.87
578.043	24.05
578.238	24.09
578.432	24.35
578.627	24.52
578.821	24.69
579.016	24.72
579.21	24.68
579.405	24.83
579.6	25.06
579.794	24.77
579.989	24.72
580.183	24.74
580.378	24.94
580.572	24.9
580.766	25
580.961	24.82
581.155	24.79
581.35	24.68
581.544	24.49
581.738	24.55
581.933	24.49
582.127	24.74
582.321	25.02
582.516	25.19
582.71	25.02
582.904	24.72
583.099	25.14
583.293	25.12
583.487	25.44
583.681	25.51
583.875	25.24
584.07	25.33
584.264	25.34
584.458	25.18
584.652	25.1
584.846	25.4
585.04	25.72
585.234	25.31
585.428	25.43
585.623	25.1
585.817	25.19
586.011	25.15
586.205	25.09
586.399	25.25
586.593	25.22
586.787	25.22
586.981	25.28
587.174	25.29
587.368	25.57
587.562	25.56
587.756	25.92
587.95	26.16
588.144	26.38
588.338	26.71
588.532	26.99
588.725	26.92
588.919	26.91
589.113	26.98
589.307	26.94
589.501	27.15
589.694	27.57
589.888	27.45
590.082	27.31
590.275	27.5
590.469	27.29
590.663	27.2
590.856	27.11
591.05	27.37
591.244	27.31
591.437	27.43
591.631	27.43
591.824	27.32
592.018	27.31
592.212	27.55
592.405	27.63
592.599	27.77
592.792	27.63
592.986	28.07
593.179	27.96
593.372	27.99
593.566	27.8
593.759	27.78
593.953	27.81
594.146	28.14
594.339	27.91
594.533	27.84
594.726	27.92
594.92	27.79
595.113	27.45
595.306	27.5
595.499	27.57
595.693	27.75
595.886	27.61
596.079	27.57
596.272	27.44
596.466	27.68
596.659	27.69
596.852	27.43
597.045	27.63
597.238	27.85
597.431	27.75
597.624	27.83
597.818	27.78
598.011	28.02
598.204	28.03
598.397	28.08
598.59	27.93
598.783	28.07
598.976	28.29
599.169	28.22
599.362	28.29
599.555	28.09
599.748	27.96
599.941	27.86
600.134	27.59
600.326	27.51
600.519	27.63
600.712	27.78
600.905	27.55
601.098	27.76
601.291	27.69
601.483	27.58
601.676	28.03
601.869	28.16
602.062	28.43
602.255	28.47
602.447	28.52
602.64	28.3
602.833	28.33
603.025	28.38
603.218	28.29
603.411	28.47
603.603	28.52
603.796	28.53
603.989	28.55
604.181	28.53
604.374	28.66
604.566	28.66
604.759	28.79
604.951	28.74
605.144	28.76
605.336	28.73
605.529	28.85
605.721	28.86
605.914	28.86
606.106	28.82
606.299	28.87
606.491	28.85
606.683	28.91
606.876	28.81
607.068	28.9
607.26	29.01
607.453	29.16
607.645	29
607.837	29.1
608.03	29.3
608.222	29.17
608.414	29.21
608.606	29.16
608.799	29.33
608.991	29.52
609.183	29.55
609.375	29.54
609.567	29.49
609.759	29.5
609.952	29.39
610.144	28.95
610.336	28.79
610.528	28.61
610.72	28.83
610.912	28.68
611.104	28.47
611.296	28.23
611.488	27.99
611.68	27.77
611.872	27.63
612.064	27.56
612.256	27.89
612.448	27.95
612.64	27.94
612.832	27.68
613.023	27.6
613.215	27.43
613.407	27.43
613.599	27.13
613.791	27.36
613.983	27.84
614.174	27.79
614.366	27.77
614.558	28.61
614.75	28.58
614.941	28.71
615.133	29.01
615.325	29.38
615.516	29.73
615.708	30.42
615.9	30.53
616.091	30.08
616.283	30.41
616.475	30.28
616.666	29.93
616.858	29.95
617.049	29.98
617.241	29.75
617.432	29.6
617.624	29.66
617.815	29.28
618.007	28.99
618.198	29.04
618.39	28.8
618.581	28.74
618.773	28.69
618.964	28.87
619.155	29.06
619.347	29.21
619.538	29.51
619.729	29.4
619.921	29.47
620.112	29.72
620.303	29.73
620.494	29.94
620.686	30.21
620.877	29.9
621.068	29.81
621.259	29.76
621.451	29.83
621.642	29.65
621.833	29.8
622.024	29.95
622.215	29.84
622.406	30.05
622.597	29.65
622.788	29.53
622.98	29.58
623.171	29.47
623.362	29.24
623.553	29.28
623.744	29.34
623.935	29.23
624.126	29.28
624.317	29.34
624.508	29.32
624.698	29.54
624.889	29.67
625.08	30.09
625.271	30.23
625.462	30.36
625.653	30.35
625.844	30.14
626.034	30.22
626.225	30.31
626.416	30.44
626.607	30.42
626.798	30.43
626.988	30.47
627.179	30.15
627.37	30.38
627.56	30.4
627.751	30.34
627.942	30.67
628.132	30.68
628.323	30.64
628.514	30.82
628.704	31
628.895	31.2
629.085	31.19
629.276	31.43
629.466	31.59
629.657	31.44
629.847	31.53
630.038	31.59
630.228	31.61
630.419	31.62
630.609	31.34
630.8	31.22
630.99	31.33
631.181	31.56
631.371	31.59
631.561	31.11
631.752	31.18
631.942	30.88
632.132	30.74
632.323	30.9
632.513	30.9
632.703	30.97
632.893	30.68
633.084	30.63
633.274	30.33
633.464	30.27
633.654	30.37
633.844	30.48
634.034	30.65
634.225	30.61
634.415	30.5
634.605	30.67
634.795	30.76
634.985	31.17
635.175	31.1
635.365	31.16
635.555	30.85
635.745	30.88
635.935	30.3
636.125	30.61
636.315	30.72
636.505	30.67
636.695	30.82
636.885	30.95
637.075	30.51
637.265	30.33
637.455	30.38
637.644	30.53
637.834	30.45
638.024	30.91
638.214	30.75
638.404	30.7
638.593	30.5
638.783	30.57
638.973	30.41
639.163	30.92
639.352	31.37
639.542	31.25
639.732	31.26
639.921	31.7
640.111	31.94
640.301	32.37
640.49	32.28
640.68	32.57
640.87	32.05
641.059	32.51
641.249	32.48
641.438	32.12
641.628	32.37
641.817	32.64
642.007	32.32
642.196	32.68
642.386	31.7
642.575	31.53
642.764	31.61
642.954	31.95
643.143	31.6
643.333	31.16
643.522	31.22
643.711	31.11
643.901	30.9
644.09	30.96
644.279	31.03
644.469	31.6
644.658	31.57
644.847	31.03
645.036	30.64
645.226	30.35
645.415	30.94
645.604	31.2
645.793	31.21
645.982	31.1
646.171	30.97
646.361	30.29
646.55	30.24
646.739	30.31
646.928	31
647.117	31.55
647.306	31.52
647.495	31.3
647.684	30.86
647.873	30.92
648.062	31.18
648.251	31.35
648.44	31.32
648.629	31.24
648.818	31.44
649.007	30.94
649.196	30.64
649.384	31.15
649.573	31.22
649.762	31.66
649.951	31.19
650.14	31.04
650.328	31.02
650.517	31.22
650.706	31.52
650.895	31.3
651.083	31.22
651.272	31.64
651.461	31.27
651.65	31.2
651.838	30.98
652.027	31.41
652.216	31.76
652.404	31.83
652.593	32.01
652.781	31.85
652.97	32.04
653.158	32.09
653.347	31.76
653.535	32.09
653.724	32.07
653.912	32.1
654.101	32.04
654.289	32.08
654.478	32.04
654.666	31.93
654.855	31.78
655.043	31.67
655.231	31.96
655.42	31.94
655.608	31.66
655.796	31.3
655.985	31.45
656.173	31.65
656.361	31.25
656.55	30.99
656.738	31.11
656.926	31.49
657.114	31.82
657.302	32.05
657.491	32.34
657.679	32.36
657.867	32.82
658.055	32.71
658.243	32.96
658.431	33.11
658.619	33.33
658.807	32.95
658.996	32.73
659.184	32.93
659.372	32.76
659.56	32.56
659.748	32.74
659.936	32.73
660.124	32.81
660.311	32.6
660.499	32.73
660.687	32.69
660.875	33.26
661.063	33.43
661.251	33.44
661.439	33.19
661.627	33.16
661.814	33.14
662.002	32.97
662.19	32.91
662.378	33.11
662.565	33.21
662.753	33.56
662.941	33.3
663.129	33.69
663.316	33.4
663.504	33.93
663.692	34.13
663.879	34.27
664.067	34.21
664.254	34.63
664.442	34.2
664.63	33.98
664.817	33.54
665.005	33.46
665.192	32.56
665.38	32.78
665.567	32.74
665.755	32.58
665.942	32.53
666.13	32.93
666.317	32.75
666.504	32.58
666.692	32.92
666.879	33.55
667.067	33.85
667.254	34.25
667.441	33.69
667.629	33.23
667.816	33.54
668.003	33.45
668.19	33.45
668.378	33.41
668.565	33.72
668.752	33.57
668.939	32.99
669.127	32.86
669.314	32.52
669.501	33.1
669.688	33.29
669.875	33.11
670.062	33.11
670.249	33.19
670.436	33.27
670.623	33.03
670.81	32.96
670.997	33.36
671.184	33.63
671.371	34.1
671.558	33.58
671.745	33.85
671.932	33.75
672.119	33.45
672.306	33.39
672.493	33.37
672.68	33.43
672.867	33.21
673.054	32.82
673.24	32.2
673.427	32.09
673.614	32.39
673.801	32.39
673.988	32.24
674.174	32.33
674.361	32.1
674.548	31.93
674.734	32.08
674.921	32.42
675.108	32.27
675.294	32.84
675.481	32.69
675.668	32.9
675.854	32.38
676.041	32.53
676.227	32.46
676.414	32.38
676.601	32.26
676.787	32.27
676.974	32.45
677.16	32.8
677.347	32.6
677.533	32.59
677.719	32.63
677.906	32.76
678.092	32.48
678.279	32.87
678.465	32.92
678.651	33.09
678.838	33.25
679.024	32.75
679.21	32.89
679.397	33.02
679.583	33.05
679.769	32.83
679.955	33.23
680.142	33.33
680.328	33.33
680.514	32.99
680.7	33.29
680.886	33.13
681.073	33.39
681.259	33.45
681.445	33.3
681.631	33.31
681.817	33.26
682.003	33.07
682.189	33.56
682.375	33.57
682.561	33.94
682.747	33.41
682.933	33.54
683.119	32.97
683.305	32.74
683.491	33.02
683.677	33.42
683.863	33.64
684.049	34.15
684.235	33.47
684.42	33.61
684.606	33.36
684.792	33.64
684.978	33.31
685.164	33.59
685.349	33.41
685.535	33.39
685.721	32.86
685.907	32.97
686.092	32.76
686.278	33.44
686.464	33.35
686.649	33.44
686.835	33.18
687.021	33.76
687.206	33.62
687.392	33.73
687.577	33.58
687.763	33.6
687.948	33.33
688.134	33.23
688.319	32.58
688.505	32.36
688.69	32.48
688.876	33.11
689.061	32.91
689.247	33.39
689.432	33.44
689.618	33.87
689.803	33.9
689.988	33.92
690.174	33.76
690.359	34.24
690.544	34.55
690.73	34.78
690.915	34.47
691.1	34.41
691.285	34.15
691.471	34.31
691.656	33.96
691.841	34.36
692.026	34.24
692.211	34
692.396	33.68
692.582	33.62
692.767	33.52
692.952	33.37
693.137	33.45
693.322	34.11
693.507	33.74
693.692	33.13
693.877	33
694.062	33.26
694.247	33.66
694.432	33.86
694.617	34.17
694.802	34.33
694.987	33.88
695.172	33.58
695.357	32.95
695.541	33.08
695.726	33.79
695.911	33.7
696.096	34
696.281	34.06
696.466	33.95
696.65	33.57
696.835	33.58
697.02	33.82
697.204	34.68
697.389	34.64
697.574	34.99
697.759	34.51
697.943	33.99
698.128	33.66
698.312	33.87
698.497	33.75
698.682	33.66
698.866	33.49
699.051	33.79
699.235	33.61
699.42	33.94
699.604	33.74
699.789	33.93
699.973	34.31
700.158	34.38
700.342	34.35
700.527	34.71
700.711	35.07
700.895	35.28
701.08	35.03
701.264	34.84
701.448	34.72
701.633	34.96
701.817	35.22
702.001	35.62
702.186	35.86
702.37	35.33
702.554	35.33
702.738	35.41
702.923	35.27
703.107	35.29
703.291	34.89
703.475	35
703.659	34.38
703.843	34.13
704.027	33.98
704.212	33.97
704.396	34.32
704.58	33.83
704.764	32.65
704.948	33.15
705.132	33.7
705.316	33.82
705.5	33.33
705.684	33.44
705.868	33.6
706.052	33.45
706.235	33.18
706.419	33.61
706.603	33.51
706.787	34.58
706.971	34.53
707.155	33.89
707.339	33.09
707.522	33.61
707.706	33.84
707.89	33.57
708.074	33.41
708.257	33.03
708.441	32.47
708.625	32.69
708.808	32.47
708.992	32.94
709.176	33.31
709.359	34.49
709.543	33.92
709.727	34.17
709.91	33.94
710.094	34.68
710.277	34.98
710.461	35.16
710.644	35.31
710.828	35.18
711.011	34.73
711.195	35.04
711.378	35.15
711.562	35.4
711.745	35.27
711.928	35.53
712.112	35.75
712.295	35.88
712.478	36.05
712.662	35.98
712.845	36.29
713.028	36.3
713.212	35.11
713.395	34.82
713.578	34.8
713.761	34.53
713.945	34.89
714.128	34.26
714.311	33.94
714.494	33.7
714.677	33.85
714.86	34.08
715.043	33.62
715.227	34.4
715.41	34.2
715.593	34.09
715.776	34.2
715.959	33.32
716.142	32.93
716.325	33.84
716.508	33.27
716.691	33.53
716.874	33.12
717.057	33.41
717.239	33.6
717.422	33.29
717.605	33.45
717.788	33.88
717.971	34.62
718.154	34.87
718.337	34.49
718.519	35.63
718.702	34.78
718.885	34.81
719.068	34.5
719.25	33.73
719.433	35.06
719.616	34.67
719.798	33.7
719.981	33.94
720.164	33.48
720.346	32.41
720.529	32.39
720.712	33.72
720.894	33.36
721.077	33.63
721.259	34.38
721.442	33.82
721.624	33.83
721.807	35.43
721.989	34.62
722.172	34.96
722.354	36.91
722.537	36.82
722.719	35.42
722.901	34.89
723.084	35.04
723.266	34.77
723.448	34
723.631	34.35
723.813	33
723.995	34.47
724.178	34.79
724.36	33.59
724.542	33.1
724.724	34.27
724.907	34.85
725.089	34.18
725.271	33.27
725.453	33.81
725.635	34.33
725.817	34.68
725.999	33.68
726.181	33.39
726.364	33.04
726.546	32.18
726.728	31.37
726.91	31.11
727.092	32
727.274	32.86
727.456	32.68
727.638	32.82
727.819	33.36
728.001	33.22
728.183	33.92
728.365	33.93
728.547	34.88
728.729	35.18
728.911	35.52
729.093	35.27
729.274	34.86
729.456	35.59
729.638	35.35
729.82	34.59
730.001	34.43
730.183	33.45
730.365	33.85
730.546	34.22
730.728	33.59
730.91	33.55
731.091	33.88
731.273	34.72
731.455	34.1
731.636	33.6
731.818	33.91
731.999	33.26
732.181	34.03
732.362	34.6
732.544	34.59
732.725	34.68
732.907	34.81
733.088	33.89
733.27	34.28
733.451	33.73
733.633	34.54
733.814	35.18
733.995	36.34
734.177	36.01
734.358	35.28
734.539	34.25
734.721	35.26
734.902	35.75
735.083	35.87
735.264	34.62
735.446	35.77
735.627	34.53
735.808	32.92
735.989	32.43
736.17	32.21
736.351	32.49
736.533	32.98
736.714	32.76
736.895	31.51
737.076	31.84
737.257	32.35
737.438	31.79
737.619	32.13
737.8	32.68
737.981	33.29
738.162	33.31
738.343	32.8
738.524	32.2
738.705	31.72
738.886	31.98
739.067	31.55
739.247	32.07
739.428	32.63
739.609	32.46
739.79	32.87
739.971	33.08
740.151	33.98
740.332	34.28
740.513	34.67
740.694	34.87
740.874	35.08
741.055	36.03
741.236	35.36
741.417	34.72
741.597	35.34
741.778	36.17
741.958	36.28
742.139	35.01
742.32	34.96
742.5	36.55
742.681	37.14
742.861	37.69
743.042	37.72
743.222	37.88
743.403	38.56
743.583	38.95
743.764	37.48
743.944	36.64
744.124	37.29
744.305	37.19
744.485	35.8
744.666	35.68
744.846	35.62
745.026	36.42
745.207	36.93
745.387	35.38
745.567	33.86
745.747	33.29
745.928	33.68
746.108	33.5
746.288	33.14
746.468	33.04
746.648	31.65
746.829	31.72
747.009	30.58
747.189	29.78
747.369	30.08
747.549	30.5
747.729	31.83
747.909	30.98
748.089	31.65
748.269	32.25
748.449	32.94
748.629	34.27
748.809	34.22
748.989	33.83
749.169	34.84
749.349	33.99
749.529	34.19
749.709	34.52
749.889	34.93
750.068	34.48
750.248	34.85
750.428	35.17
750.608	34.21
750.788	33.83
750.967	34.26
751.147	32.4
751.327	33.62
751.507	34.35
751.686	34.01
751.866	34.7
752.046	34.07
752.225	34.73
752.405	33.85
752.585	34.9
752.764	35.18
752.944	34.99
753.123	34.94
753.303	34.95
753.482	34.18
753.662	33.8
753.841	34.21
754.021	34.56
754.2	34.19
754.38	34.13
754.559	32.92
754.739	32.75
754.918	32.33
755.097	34.24
755.277	33.29
755.456	34.46
755.635	35.54
755.815	34.91
755.994	35.05
756.173	34.95
756.352	35.9
756.532	36.82
756.711	36.69
756.89	36.71
757.069	36.62
757.248	37.51
757.427	37.38
757.607	35.54
757.786	34.79
757.965	34.63
758.144	34.09
758.323	34.42
758.502	34.05
758.681	35.18
758.86	36.58
759.039	36.47
759.218	36.79
759.397	36.95
759.576	37.27
759.755	37.84
759.934	38.83
760.113	39.99
760.291	39.82
760.47	39.72
760.649	39.52
760.828	38.96
761.007	39.08
761.186	39.11
761.364	39.2
761.543	40.01
761.722	39.73
761.901	38.8
762.079	38.5
762.258	37.94
762.437	38.53
762.615	37.88
762.794	38.29
762.972	37.71
763.151	37.19
763.33	36.43
763.508	36.91
763.687	37.9
763.865	38.06
764.044	37.7
764.222	37.13
764.401	37.02
764.579	36.82
764.758	36.03
764.936	35.46
765.114	36.26
765.293	36.68
765.471	35.5
765.65	33.83
765.828	32.97
766.006	32.75
766.184	32.89
766.363	32.53
766.541	32.41
766.719	32.22
766.898	32.85
767.076	31.78
767.254	30.37
767.432	30.75
767.61	31.13
767.788	31.09
767.967	29.43
768.145	30.01
768.323	29.89
768.501	29.95
768.679	31.04
768.857	30.72
769.035	30
769.213	30.82
769.391	30.72
769.569	31.6
769.747	33.12
769.925	34.59
770.103	34.13
770.281	35.14
770.459	35.37
770.636	34.1
770.814	34.17
770.992	34.41
771.17	34.62
771.348	35
771.525	34.32
771.703	32.81
771.881	32.48
772.059	32.08
772.236	30.92
772.414	30.93
772.592	29.07
772.769	29.03
772.947	29.84
773.125	30.05
773.302	29.93
773.48	28.88
773.657	29.54
773.835	29.81
774.013	31.02
774.19	30.65
774.368	30.91
774.545	33.59
774.723	34.1
774.9	32.73
775.077	32.02
775.255	32.84
775.432	32.05
775.61	32.73
775.787	32.18
775.964	31.53
776.142	30.69
776.319	29.45
776.496	28.95
776.674	30.06
776.851	32.88
777.028	32.18
777.205	30.15
777.382	31.71
777.56	31.24
777.737	31.09
777.914	31.09
778.091	32.03
778.268	32.41
778.445	32.87
778.622	30.62
778.8	28.39
778.977	30.09
779.154	43.18
779.331	44.12
779.508	44.22
779.685	44.6
779.862	46.97
780.038	48.47
780.215	47.73
780.392	46.54
780.569	47.54
780.746	47.26
780.923	47.82
781.1	34.06
781.277	33.5
781.453	32.31
781.63	32.48
781.807	31.32
781.984	30.25
782.16	33.17
782.337	35.08
782.514	34.91
782.691	37.86
782.867	35.64
783.044	37.58
783.221	38.35
783.397	38.25
783.574	40.02
783.75	37.28
783.927	35.48
784.103	34.71
784.28	33.71
784.456	34.82
784.633	34.98
784.809	37.2
784.986	36.04
785.162	35.09
785.339	37.12
785.515	34.67
785.692	35.81
785.868	36.89
786.044	34.62
786.221	33.24
786.397	30.74
786.573	29.31
786.749	27.72
786.926	27.59
787.102	26.34
787.278	25.48
787.454	27.22
787.631	28.38
787.807	28.93
787.983	31.76
788.159	33.51
788.335	32.74
788.511	34.2
788.687	36.36
788.863	36.84
789.039	39.01
789.216	38.32
789.392	37.9
789.568	34.93
789.744	34.03
789.919	32.87
790.095	31.61
790.271	34.44
790.447	33.57
790.623	32.41
790.799	32.15
790.975	33.91
791.151	32.81
791.327	31.61
791.502	34.79
791.678	36.86
791.854	36
792.03	36.61
792.205	34.57
792.381	32.17
792.557	30.9
792.733	31.64
792.908	32.02
793.084	34.26
793.259	35.28
793.435	32.89
793.611	31.01
793.786	31.64
793.962	33.22
794.137	35.54
794.313	35.6
794.488	37.52
794.664	38.11
794.839	33.95
795.015	34.43
795.19	36.55
795.366	38.14
795.541	39.89
795.716	37.49
795.892	35.52
796.067	31.87
796.242	32.05
796.418	31.58
796.593	30.34
796.768	32.04
796.944	31.53
797.119	31.27
797.294	32.3
797.469	29.81
797.644	31.33
797.82	32.89
797.995	36.12
798.17	37.62
798.345	36.84
798.52	36.56
798.695	36.27
798.87	38.22
799.045	37.36
799.22	37.18
799.395	37.91
799.57	37.5
799.745	37.58
799.92	36.98
800.095	36.78
800.27	37.68
800.445	39.28
800.62	39.47
800.795	34.92
800.97	32.9
801.145	30.98
801.319	33.77
801.494	34.23
801.669	31.5
801.844	31.59
802.018	29.17
802.193	27.69
802.368	26.19
802.543	24.8
802.717	27.05
802.892	27.76
803.067	28.54
803.241	26.99
803.416	27.26
803.59	26.13
803.765	25.6
803.94	28.24
804.114	27.94
804.289	27.11
804.463	27.37
804.638	27.17
804.812	26.98
804.986	25.22
805.161	26.71
805.335	27.16
805.51	30.13
805.684	27.17
805.858	28.39
806.033	28.56
806.207	30.34
806.381	29.24
806.556	28.02
806.73	28.63
806.904	31.66
807.078	30.28
807.253	31.78
807.427	31.03
807.601	33.78
807.775	31.24
807.949	35.05
808.123	33.29
808.298	33.54
808.472	35.42
808.646	35.19
808.82	35.34
808.994	35.2
809.168	30.43
809.342	30.44
809.516	32.38
809.69	31.66
809.864	31.37
810.038	34.85
810.212	38.13
810.385	39.2
810.559	40.03
810.733	39.1
810.907	37.15
811.081	39.44
811.255	36.92
811.428	35.07
811.602	38.31
811.776	35.37
811.95	32.84
812.123	32.26
812.297	32.49
812.471	30.6
812.644	32
812.818	33.29
812.992	33.13
813.165	39.57
813.339	41.69
813.512	40.01
813.686	40.3
813.86	38.33
814.033	35.05
814.207	34.8
814.38	37.51
814.554	35.3
814.727	32.19
814.9	34.88
815.074	32.95
815.247	29.93
815.421	33.67
815.594	33.06
815.767	34.45
815.941	33.87
816.114	33.25
816.287	30.44
816.46	30.1
816.634	35.09
816.807	32.59
816.98	32.84
817.153	34.42
817.327	31.77
817.5	34.79
817.673	36.64
817.846	39
818.019	42.17
818.192	40.85
818.365	42.19
818.538	41.26
818.711	42.01
818.884	39.99
819.057	37.86
819.23	36.75
819.403	34.29
819.576	33.44
819.749	35.18
819.922	29.12
820.095	28.92
820.268	29.85
820.441	30.12
820.614	31.67
820.786	33.01
820.959	35.48
821.132	36.18
821.305	35.09
821.477	34.82
821.65	34.75
821.823	36.06
821.996	37.47
822.168	37.33
822.341	37.65
822.514	37.98
822.686	37.49
822.859	36.75
823.031	36.9
823.204	37.06
823.376	37.67
823.549	37.75
823.722	38.07
823.894	37.51
824.067	36.75
824.239	36.88
824.411	36.46
824.584	37.01
824.756	37.68
824.929	37.66
825.101	38.37
825.273	37.82
825.446	37.05
825.618	37.37
825.79	38.01
825.963	38.76
826.135	38.77
826.307	39.21
826.479	39.19
826.652	39.1
826.824	38.92
826.996	38.23
827.168	38.04
827.34	38.8
827.512	37.89
827.684	37.12
827.856	38.1
828.029	38.23
828.201	37.32
828.373	37
828.545	36.57
828.717	36.48
828.889	37.38
829.061	37.86
829.232	37.42
829.404	37.39
829.576	36.75
829.748	33.66
829.92	31.12
830.092	30.51
830.264	29.4
830.436	29.53
830.607	30.15
830.779	30.28
830.951	29.66
831.123	27.97
831.294	28.47
831.466	28.93
831.638	32.2
831.809	34.82
831.981	35.08
832.153	37.61
832.324	39.91
832.496	41.16
832.667	40.13
832.839	41.92
833.011	44.4
833.182	44.07
833.354	46.64
833.525	44.76
833.697	43.32
833.868	44.48
834.039	42.8
834.211	41.77
834.382	40.36
834.554	40.84
834.725	37.75
834.896	37.4
835.068	37.86
835.239	36.35
835.41	36.63
835.581	37.78
835.753	36.89
835.924	36.36
836.095	35.2
836.266	37.07
836.438	36.04
836.609	38.15
836.78	37.62
836.951	33.91
837.122	36.61
837.293	35.89
837.464	35.1
837.635	35.05
837.806	36.2
837.977	33.7
838.148	27.79
838.319	26.87
838.49	26.69
838.661	28.07
838.832	32.85
839.003	29.15
839.174	24.28
839.345	22.55
839.516	24.59
839.687	20.32
839.857	25.48
840.028	25.28
840.199	30.88
840.37	30.87
840.54	30.06
840.711	29.6
840.882	32.92
841.053	34.79
841.223	35.32
841.394	30.61
841.564	35.93
841.735	37.08
841.906	35.41
842.076	32.22
842.247	33.58
842.417	32.73
842.588	32.16
842.758	27.59
842.929	37.99
843.099	39.28
843.27	42.33
843.44	33.85
843.611	29.27
843.781	34.08
843.951	35.43
844.122	30.68
844.292	35.57
844.462	35.02
844.633	29.09
844.803	23.35
844.973	22.96
845.144	24.04
845.314	28.14
845.484	30.88
845.654	28.99
845.824	18.82
845.995	23.43
846.165	23.77
846.335	19.52
846.505	34.41
846.675	33.03
846.845	26.63
847.015	23.09
847.185	40.95
847.355	40.46
847.525	35.9
847.695	49.63
847.865	46.12
848.035	41.57
848.205	44.44
848.375	41.03
848.545	42.52
848.715	54.77
848.884	55.2
849.054	41.69
849.224	37.92
849.394	47.33
849.564	54.11
849.733	52.77
849.903	49.29
850.073	46.18
850.243	35.3
850.412	34.66
850.582	32.85
850.752	29.35
850.921	40.7
851.091	44.33
851.26	64.92
851.43	46.36
851.599	52.44
851.769	36.18
851.939	46.49
852.108	56.16
852.278	64.25
852.447	56.67
852.616	56.76
852.786	60.36
852.955	63.26
853.125	51.42
853.294	51.4
853.463	42.47
853.633	46.56
853.802	48.61
853.971	60.24
854.141	51.29
854.31	57.88
854.479	57.99
854.648	53.48
854.818	44.12
854.987	42.31
855.156	35.95
855.325	38.22
855.494	42.3
855.663	40.23
855.832	28.5
856.001	35.14
856.171	36.76
856.34	34.73
856.509	26.83
856.678	36.15
856.847	45.48
857.016	77.41
857.185	79.45
857.353	83.17
857.522	89.57
857.691	88.4
857.86	74.04
858.029	73.41
858.198	65.53
858.367	74.73
858.535	66.75
858.704	67.15
858.873	45.73
859.042	39.1
859.21	37.61
859.379	35.51
859.548	27.92
859.717	8.69
859.885	4.12
860.054	18.38
860.222	13.94
860.391	33.09
860.56	20.14
860.728	15.18
860.897	25.12
861.065	21.79
861.234	20.19
861.402	24.75
861.571	40.36
861.739	34.99
861.908	32.54
862.076	28.2
862.244	22.19
862.413	23.15
862.581	31.02
862.749	30.53
862.918	28.97
863.086	23.41
863.254	35.8
863.423	21.24
863.591	25.13
863.759	7.61
863.927	19.91
864.096	12.56
864.264	-6.73
864.432	-21.76
864.6	-42.51
864.768	-29.54
864.936	-19.52
865.104	-17.42
865.272	-7.66
865.44	-12.1
865.608	-4.6
865.776	-17.05
865.944	-2.56
866.112	10.48
866.28	24.33
866.448	34.66
866.616	40.51
866.784	53.39
866.952	48.92
867.12	34.68
867.288	48.03
867.455	57.33
867.623	48.41
867.791	49.1
867.959	33.13
868.127	6.06
868.294	-5.71
868.462	16
868.63	20.63
868.797	29.89
868.965	38.9
869.133	22.87
869.3	26.27
869.468	41.18
869.636	38.51
869.803	46.68
869.971	61.09
870.138	61.01
870.306	50.3
870.473	47.88
870.641	44.2
870.808	43.68
870.975	60.96
871.143	69.62
871.31	57.67
871.478	62.03
871.645	63.46
871.812	48.23
871.98	64.81
872.147	57.54
872.314	61.51
872.482	38.83
872.649	44.76
872.816	36.66
872.983	17.72
873.15	13.57
873.318	6.48
873.485	1.63
873.652	-10.61
873.819	-12.04
873.986	-16.51
874.153	-14.74
874.32	-10.98
874.487	-18.54
874.654	-13.81
874.821	-7.83
874.988	-9.3
875.155	0.14
875.322	1.13
875.489	13.87
875.656	10.78
875.823	19.58
875.99	24.4
876.157	26.74
876.324	30.8
876.49	18.98
876.657	17.15
876.824	22.7
876.991	11.91
877.157	16.17
877.324	22.65
877.491	25.66
877.658	37.37
877.824	44.41
877.991	53.95
878.157	33.14
878.324	42.29
878.491	18.06
878.657	31.58
878.824	52.79
878.99	55.14
879.157	38.86
879.323	40.05
879.49	22.7
879.656	10.68
879.823	11.41
879.989	21.65
880.156	12.37
880.322	21.11
880.488	13.22
880.655	13.39
880.821	13
880.987	18.72
881.154	13.9
881.32	25.94
881.486	27.4
881.652	28.33
881.819	27.43
881.985	30.71
882.151	32.44
882.317	36.71
882.483	34.22
882.649	32.61
882.816	34.03
882.982	36.21
883.148	32.44
883.314	32.78
883.48	33.01
883.646	34.45
883.812	34.68
883.978	34.45
884.144	33.92
884.31	34.77
884.476	37.18
884.642	36.36
884.807	35.11
884.973	33.9
885.139	33.75
885.305	33.45
885.471	33.32
885.637	33.76
885.802	34.28
885.968	33.45
886.134	31.91
886.3	31.42
886.465	32.24
886.631	35.02
886.797	35.83
886.962	36.38
887.128	34.89
887.293	33.69
887.459	32.44
887.625	29.17
887.79	25.77
887.956	27.89
888.121	23.69
888.287	18.39
888.452	10.77
888.618	9.44
888.783	1.26
