Data from CB_028_Reflection_2.txt Node
Date: Wed Nov 11 20:42:24 EST 2015
User: robert
Spectrometer: USB4E03001
Autoset integration time: false
Trigger mode: 4
Integration Time (sec): 1.000000E-1
Scans to average: 15
Electric dark correction enabled: true
Nonlinearity correction enabled: false
Boxcar width: 5
Stray light correction enabled: false
XAxis mode: Wavelengths
Stop averaging: false
Number of Pixels in Spectrum: 3648
>>>>>Begin Spectral Data<<<<<
177.566	-143.88
177.785	-195.05
178.005	789.93
178.225	-333.51
178.445	-294.7
178.665	563.97
178.885	356.2
179.105	3758.7
179.324	379.36
179.544	512.58
179.764	-458.7
179.984	-650
180.204	19532.5
180.423	414.63
180.643	-1954.66
180.863	4143.4
181.083	443.45
181.302	948.17
181.522	1201.82
181.742	-3049.47
181.961	-400.22
182.181	-3472.95
182.401	1777.02
182.621	-146.56
182.84	-93.34
183.06	8.46
183.279	-116.61
183.499	-113.02
183.719	-96.43
183.938	-47.27
184.158	17.73
184.377	-23.58
184.597	-52.03
184.816	-23.98
185.036	-71
185.256	-61.02
185.475	-78.49
185.695	-30.11
185.914	15.57
186.134	-74.29
186.353	802.73
186.572	96.3
186.792	133.52
187.011	392.58
187.231	574.48
187.45	384.79
187.67	270.57
187.889	195.81
188.108	176.67
188.328	333.36
188.547	543.93
188.766	727.01
188.986	3167.67
189.205	3472.52
189.424	903.84
189.644	326.21
189.863	231.51
190.082	727.77
190.302	108.48
190.521	169.65
190.74	31.82
190.959	67.77
191.178	20.23
191.398	42.68
191.617	98.83
191.836	190.2
192.055	26.01
192.274	150.51
192.494	128.18
192.713	553.68
192.932	707.92
193.151	-32.5
193.37	42.63
193.589	-46.89
193.808	-95.17
194.027	-21.9
194.246	0
194.465	-36.21
194.685	31.85
194.904	189.37
195.123	166.41
195.342	98.97
195.561	150.84
195.78	227.18
195.999	82.26
196.218	76.91
196.436	-100.12
196.655	456.43
196.874	396.07
197.093	1241.01
197.312	-452.43
197.531	1533.66
197.75	711.29
197.969	926.88
198.188	1438.96
198.407	643.16
198.625	598.65
198.844	875.7
199.063	-2782.64
199.282	-1681.22
199.501	-1033.51
199.719	-1206.34
199.938	-688.86
200.157	3060.29
200.376	-112.85
200.594	-757.52
200.813	-312.83
201.032	429.38
201.251	292.85
201.469	442.48
201.688	224.09
201.907	551.98
202.125	312.12
202.344	1055.76
202.563	451.04
202.781	390.64
203	235.94
203.218	137.71
203.437	378.18
203.656	567.88
203.874	327.96
204.093	866.06
204.311	648.03
204.53	272.72
204.748	428.22
204.967	669.6
205.185	9743.81
205.404	-267.84
205.622	-85.28
205.841	-34.19
206.059	-63.53
206.278	-29.56
206.496	-68.13
206.715	-167.63
206.933	-56.15
207.151	-99.68
207.37	-37
207.588	-126.06
207.806	-23.37
208.025	-26.07
208.243	161.38
208.461	75.51
208.68	82.06
208.898	-321.54
209.116	28.52
209.335	3.93
209.553	-4.22
209.771	-231.44
209.989	334.68
210.208	130.52
210.426	155.97
210.644	308.24
210.862	394.69
211.081	159.56
211.299	113.95
211.517	120.05
211.735	555.72
211.953	155.74
212.171	294.23
212.39	-1443.38
212.608	-141.47
212.826	-65.66
213.044	20.46
213.262	-25.19
213.48	-44.39
213.698	-88.05
213.916	-77.48
214.134	-5.64
214.352	-33.15
214.57	45.65
214.788	-41.07
215.006	-173.97
215.224	204.56
215.442	763.27
215.66	269.99
215.878	283.76
216.096	67.91
216.314	135.91
216.532	384.46
216.75	672.08
216.968	295.14
217.185	168.7
217.403	126.39
217.621	296.8
217.839	48.4
218.057	132.27
218.275	188.74
218.492	-450.67
218.71	186.87
218.928	33.32
219.146	27.17
219.363	-4.25
219.581	-96.89
219.799	-30.76
220.017	-125.36
220.234	-136.98
220.452	-182.82
220.67	-348.25
220.887	2675.77
221.105	-471.49
221.323	-119.55
221.54	-131.81
221.758	-451.12
221.976	-133.27
222.193	-90.55
222.411	-6.73
222.629	8.57
222.846	-71.17
223.064	-58.4
223.281	-10.79
223.499	-6.12
223.716	-41.44
223.934	-73.68
224.151	-16.58
224.369	-25.78
224.586	-29.34
224.804	-34.62
225.021	-44.29
225.239	-45.1
225.456	-25.76
225.674	-41.87
225.891	-45.86
226.108	-51.01
226.326	-19.89
226.543	-23.4
226.76	-12.87
226.978	-9.42
227.195	-1.59
227.413	10.06
227.63	19.14
227.847	12.92
228.064	14.92
228.282	16.94
228.499	17.82
228.716	17.86
228.934	19.54
229.151	17.63
229.368	15.89
229.585	15.02
229.802	13.07
230.02	9.17
230.237	9.54
230.454	9.54
230.671	6.44
230.888	7.43
231.105	13.79
231.323	10.74
231.54	13.59
231.757	12.42
231.974	11.1
232.191	9.95
232.408	8.44
232.625	11.11
232.842	10.85
233.059	10.59
233.276	13.88
233.493	-0.52
233.71	-3.67
233.927	-1.15
234.144	-1.59
234.361	-1.22
234.578	-5.27
234.795	-10.57
235.012	-9.54
235.229	-10.89
235.446	-11.35
235.663	-15.17
235.879	-7.38
236.096	-4.81
236.313	-9.42
236.53	-7.76
236.747	-10.01
236.964	-9.49
237.181	0.15
237.397	1.48
237.614	-3.1
237.831	-4.14
238.048	-13.02
238.264	-21.58
238.481	-15.55
238.698	-19.81
238.915	-15.17
239.131	-11.02
239.348	-2.56
239.565	-1.9
239.781	-7.57
239.998	-4.23
240.215	1.56
240.431	5.26
240.648	5.84
240.865	5.99
241.081	4.03
241.298	1.36
241.514	2.27
241.731	1.02
241.947	-0.79
242.164	1.39
242.38	4.09
242.597	1.27
242.814	-0.77
243.03	2.66
243.246	0.03
243.463	1.85
243.679	0.6
243.896	0.17
244.112	1.81
244.329	5.55
244.545	5.2
244.762	1.76
244.978	4.7
245.194	9.26
245.411	6.32
245.627	8.14
245.843	9.76
246.06	11.57
246.276	11.66
246.492	9.09
246.709	8.63
246.925	9.28
247.141	9.82
247.357	9.97
247.574	9.35
247.79	10.21
248.006	10.52
248.222	11.62
248.439	10.91
248.655	10.51
248.871	11.44
249.087	10.15
249.303	10.9
249.519	11.58
249.736	9.99
249.952	11.66
250.168	10.24
250.384	8.7
250.6	5.47
250.816	6.11
251.032	7.17
251.248	9.92
251.464	11.39
251.68	9.33
251.896	7.33
252.112	11.13
252.328	10.55
252.544	10.54
252.76	11.87
252.976	15.14
253.192	15.52
253.408	14.62
253.624	11.39
253.84	12.32
254.056	13.04
254.272	15.16
254.487	11.49
254.703	8.9
254.919	10.87
255.135	6.97
255.351	-4.68
255.567	-5.64
255.782	-5.37
255.998	-3.41
256.214	-6.49
256.43	-9.09
256.646	-8.64
256.861	-6.47
257.077	-4.85
257.293	-5.92
257.508	-2.12
257.724	1.02
257.94	2.63
258.155	5.01
258.371	3.51
258.587	3.84
258.802	4.14
259.018	4.23
259.234	3.74
259.449	4.99
259.665	4.76
259.88	5.48
260.096	5.89
260.312	6.41
260.527	5.31
260.743	5.51
260.958	5.55
261.174	6.36
261.389	5.2
261.605	5.89
261.82	5.94
262.036	6.6
262.251	3.8
262.466	2.93
262.682	2.42
262.897	3
263.113	5.56
263.328	6.82
263.543	6.11
263.759	8.17
263.974	7.61
264.189	4.42
264.405	5.19
264.62	5.9
264.835	8.35
265.051	6.04
265.266	7.51
265.481	6.19
265.696	4.34
265.912	4.96
266.127	4.97
266.342	3.45
266.557	5.01
266.773	3.41
266.988	3.84
267.203	0.79
267.418	1.45
267.633	0.31
267.848	1.34
268.064	1.84
268.279	1.69
268.494	1.32
268.709	4.01
268.924	3.62
269.139	6.09
269.354	5.63
269.569	7.23
269.784	9.03
269.999	9.53
270.214	9.04
270.429	7.88
270.644	7.57
270.859	7.26
271.074	6.34
271.289	6.38
271.504	5.56
271.719	6.29
271.934	5.73
272.149	4.74
272.363	5.15
272.578	3.42
272.793	4.33
273.008	3.76
273.223	3.04
273.438	0.43
273.653	-0.19
273.867	-1.71
274.082	-2.32
274.297	-2.1
274.512	-1.9
274.726	-2.2
274.941	-1.98
275.156	-1.82
275.371	-1.74
275.585	-0.13
275.8	2.02
276.015	2.16
276.229	4.77
276.444	6.79
276.659	6.66
276.873	5.52
277.088	3.65
277.302	2.17
277.517	2.65
277.732	2.78
277.946	3.73
278.161	4.31
278.375	4.28
278.59	3.03
278.804	0.2
279.019	0.42
279.233	1.5
279.448	3.91
279.662	6.74
279.877	6.79
280.091	7.09
280.306	6.99
280.52	8.92
280.735	9.48
280.949	9.52
281.163	10.5
281.378	11.34
281.592	10.46
281.806	9.09
282.021	8.53
282.235	6.52
282.449	5.82
282.664	5.8
282.878	4.67
283.092	4.06
283.307	3.06
283.521	2.34
283.735	1.82
283.949	2.18
284.164	2
284.378	2.81
284.592	4.11
284.806	2.61
285.02	1.69
285.234	0.88
285.449	0.67
285.663	0.18
285.877	1.46
286.091	0.86
286.305	-0.06
286.519	0.55
286.733	0.78
286.947	0.97
287.161	2.59
287.375	3.11
287.589	4.32
287.803	4.76
288.017	5.85
288.231	4.73
288.445	5.42
288.659	6.12
288.873	6.78
289.087	5.6
289.301	5.96
289.515	6.44
289.729	6.22
289.943	5.29
290.157	5.54
290.371	5.54
290.584	6.83
290.798	6.81
291.012	6.99
291.226	6.38
291.44	7.36
291.654	5.45
291.867	4.49
292.081	4.94
292.295	4.93
292.509	4.82
292.722	3.65
292.936	2.51
293.15	0.83
293.364	2.55
293.577	2.79
293.791	1.83
294.005	4.51
294.218	5.35
294.432	4.71
294.645	5.65
294.859	5.97
295.073	7.4
295.286	7.9
295.5	9.6
295.713	8.45
295.927	8.61
296.14	8.93
296.354	8.07
296.568	8.49
296.781	9.2
296.994	8.8
297.208	9.31
297.421	9.52
297.635	9.61
297.848	9.02
298.062	8.84
298.275	9.87
298.489	10.79
298.702	11.08
298.915	10.96
299.129	10.4
299.342	11.3
299.555	11.08
299.769	9.99
299.982	9.93
300.195	10.04
300.409	10.88
300.622	9.49
300.835	8.53
301.048	9.5
301.262	9.27
301.475	9.9
301.688	9.68
301.901	9.38
302.115	11
302.328	10.49
302.541	12.77
302.754	11.71
302.967	12.89
303.18	13.8
303.393	13
303.607	12.25
303.82	12.76
304.033	12.69
304.246	14.04
304.459	12.88
304.672	13.86
304.885	12.44
305.098	13.82
305.311	12.23
305.524	11.4
305.737	12.85
305.95	15.04
306.163	14.51
306.376	15.15
306.589	12.79
306.802	13.86
307.015	12.84
307.228	13.72
307.44	12.93
307.653	13.84
307.866	12.69
308.079	11.9
308.292	10.42
308.505	10.23
308.718	8.56
308.93	8.84
309.143	7.72
309.356	9.56
309.569	9.6
309.781	10.32
309.994	9.53
310.207	10.72
310.42	10.46
310.632	9.9
310.845	10.33
311.058	11.46
311.27	12.57
311.483	13.1
311.696	12.52
311.908	12.06
312.121	11.55
312.333	11.63
312.546	11.69
312.759	12
312.971	12.43
313.184	12.06
313.396	10.78
313.609	11.3
313.821	10.72
314.034	10.09
314.246	9.74
314.459	9.48
314.671	10.71
314.884	10.21
315.096	9.97
315.309	10.49
315.521	11.66
315.733	11.02
315.946	10.05
316.158	9.73
316.371	10.17
316.583	10.92
316.795	12.11
317.008	12.81
317.22	13.42
317.432	13.48
317.644	13.44
317.857	13.33
318.069	14.88
318.281	14.49
318.494	16.3
318.706	16.83
318.918	16.37
319.13	16.34
319.342	16.23
319.555	15.29
319.767	15.01
319.979	15.09
320.191	13.61
320.403	13.56
320.615	14.55
320.827	13.02
321.039	12.52
321.252	12.78
321.464	12.22
321.676	12.05
321.888	13.18
322.1	13.28
322.312	14.23
322.524	14.55
322.736	14.9
322.948	14.86
323.16	14.94
323.372	16.88
323.584	16.6
323.796	17.54
324.007	17.22
324.219	18
324.431	17.46
324.643	16.92
324.855	17.7
325.067	18.51
325.279	18.49
325.491	19.48
325.702	18.8
325.914	19.07
326.126	17.62
326.338	17.67
326.55	17.15
326.761	17.37
326.973	17.96
327.185	17.63
327.396	16.62
327.608	16.25
327.82	15.63
328.032	13.7
328.243	13.15
328.455	14.26
328.666	14.94
328.878	15.79
329.09	16.36
329.301	16.73
329.513	16.73
329.725	17.75
329.936	17.69
330.148	18.25
330.359	19.54
330.571	19.67
330.782	19.85
330.994	19.62
331.205	18.59
331.417	18.99
331.628	18.57
331.84	18.47
332.051	17.65
332.262	18.96
332.474	19.26
332.685	19.53
332.897	20.61
333.108	21.02
333.319	21.82
333.531	22.07
333.742	22.39
333.953	22.79
334.165	23.52
334.376	24.21
334.587	22.95
334.799	23.01
335.01	22.94
335.221	22.76
335.432	22.93
335.644	21.27
335.855	20.04
336.066	20.46
336.277	19.13
336.488	18.42
336.7	18.46
336.911	19.03
337.122	18.68
337.333	18.62
337.544	18.17
337.755	16.8
337.966	17.68
338.177	17.69
338.388	17.28
338.599	17.79
338.811	18.42
339.022	19.06
339.233	17.77
339.444	17.23
339.655	17.46
339.866	17.14
340.076	17.55
340.287	16.57
340.498	18.36
340.709	16.6
340.92	17.32
341.131	17.22
341.342	16.17
341.553	17.65
341.764	18.62
341.975	17.48
342.185	18.25
342.396	19.15
342.607	20.35
342.818	20.08
343.029	22.34
343.239	21.6
343.45	21.56
343.661	21.77
343.872	22.24
344.082	22.04
344.293	23.4
344.504	23.4
344.714	22.88
344.925	22.33
345.136	21.51
345.346	20.44
345.557	20.38
345.768	20
345.978	20.15
346.189	19.05
346.399	19.21
346.61	18.54
346.821	18.09
347.031	17.87
347.242	17.62
347.452	17.96
347.663	18.13
347.873	19.04
348.084	18.35
348.294	18.64
348.504	18.9
348.715	18.21
348.925	18.03
349.136	18.37
349.346	18.08
349.557	18.16
349.767	18.67
349.977	19.15
350.188	18.35
350.398	18.69
350.608	18.36
350.819	18.51
351.029	19.47
351.239	19.37
351.449	19.7
351.66	20.7
351.87	21.07
352.08	20.4
352.29	19.88
352.501	19.94
352.711	20.12
352.921	19.87
353.131	19.8
353.341	19.09
353.552	19.36
353.762	19.03
353.972	17.87
354.182	18.28
354.392	18.21
354.602	17.98
354.812	18.43
355.022	18.77
355.232	18.11
355.442	18.75
355.652	18.31
355.862	18.84
356.072	19
356.282	19.45
356.492	18.86
356.702	19.07
356.912	19.21
357.122	18.92
357.332	19.33
357.542	20
357.752	19.59
357.962	20.15
358.171	19.85
358.381	19.24
358.591	19.2
358.801	19.54
359.011	20.18
359.221	20.46
359.43	19.73
359.64	19.87
359.85	19.89
360.06	19.18
360.269	19.3
360.479	19.09
360.689	18.83
360.899	19.01
361.108	18.53
361.318	18.02
361.528	17.86
361.737	18.5
361.947	18.41
362.156	18.41
362.366	18.2
362.576	17.82
362.785	17.77
362.995	18.29
363.204	17.86
363.414	18.09
363.623	18.32
363.833	17.49
364.042	17.59
364.252	17.42
364.461	17.08
364.671	17.03
364.88	16.9
365.09	16.93
365.299	16.9
365.509	17.22
365.718	17.07
365.927	16.62
366.137	17
366.346	16.86
366.555	16.66
366.765	16.25
366.974	17.39
367.183	16.7
367.393	16.71
367.602	16.07
367.811	16.01
368.021	15.77
368.23	15.86
368.439	16.1
368.648	16
368.857	15.87
369.067	16.57
369.276	16.12
369.485	16.83
369.694	16.5
369.903	15.99
370.112	15.19
370.321	15.31
370.531	15.02
370.74	14.83
370.949	14.96
371.158	14.81
371.367	14.13
371.576	13.83
371.785	13.69
371.994	13.92
372.203	15
372.412	15.66
372.621	15.88
372.83	16.06
373.039	15.75
373.248	15.04
373.457	15.22
373.666	15.3
373.874	14.86
374.083	14.86
374.292	14.38
374.501	13.85
374.71	13.74
374.919	13.26
375.128	12.25
375.336	13.39
375.545	13.9
375.754	13.55
375.963	13.6
376.171	13.7
376.38	13.62
376.589	13.39
376.798	13
377.006	12.98
377.215	12.89
377.424	13.27
377.632	12.3
377.841	11.89
378.05	11.67
378.258	11.31
378.467	11.61
378.675	11.51
378.884	11.32
379.093	11.21
379.301	10.75
379.51	11.11
379.718	11.24
379.927	11.68
380.135	11.61
380.344	11.59
380.552	12.43
380.761	12.39
380.969	12.13
381.177	12.59
381.386	12.72
381.594	12.99
381.803	12.27
382.011	12.49
382.219	12.41
382.428	12.37
382.636	12.38
382.845	11.4
383.053	11.11
383.261	11.8
383.469	11.27
383.678	11.47
383.886	11.03
384.094	11.14
384.302	10.78
384.511	10.6
384.719	11.05
384.927	11.09
385.135	11.26
385.343	11.1
385.552	10.51
385.76	10.72
385.968	10.72
386.176	11.09
386.384	10.96
386.592	10.93
386.8	10.71
387.008	10.41
387.216	9.89
387.424	9.62
387.633	9.71
387.841	9.67
388.049	9.38
388.257	9.2
388.465	9.29
388.672	9.54
388.88	9.16
389.088	9.31
389.296	9.26
389.504	9.73
389.712	9.88
389.92	9.69
390.128	9.62
390.336	9.79
390.544	9.49
390.751	9
390.959	8.93
391.167	9.48
391.375	9.54
391.583	9.27
391.79	9.67
391.998	9.73
392.206	9.83
392.414	10.1
392.621	10.21
392.829	10.34
393.037	10.46
393.244	10.49
393.452	10.08
393.66	9.7
393.867	9.54
394.075	9.17
394.283	8.81
394.49	8.68
394.698	8.59
394.905	8.58
395.113	8.62
395.32	8.36
395.528	7.91
395.735	7.72
395.943	7.64
396.15	7.87
396.358	7.3
396.565	7.2
396.773	7.14
396.98	6.79
397.188	6.96
397.395	7.01
397.602	7.17
397.81	7.25
398.017	7.36
398.225	7.67
398.432	7.93
398.639	8.18
398.847	8.36
399.054	8.6
399.261	8.63
399.468	8.25
399.676	8.21
399.883	8.65
400.09	8.34
400.297	8.53
400.505	8.19
400.712	7.57
400.919	7.43
401.126	7.54
401.333	7.52
401.54	7.4
401.748	7.46
401.955	7.06
402.162	6.57
402.369	6.98
402.576	7.17
402.783	7.37
402.99	7.69
403.197	8.09
403.404	8.07
403.611	7.87
403.818	7.93
404.025	8.15
404.232	8.24
404.439	8.45
404.646	8.28
404.853	7.96
405.06	7.85
405.267	7.7
405.474	7.35
405.681	7.34
405.887	7.18
406.094	7.27
406.301	7.21
406.508	7.61
406.715	7.86
406.922	8.05
407.128	7.85
407.335	7.77
407.542	7.43
407.749	7.33
407.955	7.4
408.162	7.71
408.369	7.54
408.575	7.38
408.782	6.87
408.989	6.29
409.195	6.11
409.402	6.42
409.609	6.59
409.815	6.72
410.022	6.89
410.228	6.91
410.435	6.56
410.642	6.71
410.848	6.46
411.055	6.54
411.261	6.5
411.468	6.96
411.674	6.97
411.881	6.91
412.087	7.05
412.294	7.24
412.5	7.12
412.706	7.3
412.913	7.11
413.119	7.35
413.326	7.31
413.532	7.19
413.738	6.84
413.945	6.66
414.151	6.7
414.357	6.77
414.564	6.35
414.77	6.49
414.976	6.85
415.182	7.02
415.389	7.02
415.595	7.26
415.801	7.47
416.007	7.24
416.214	7.32
416.42	7.4
416.626	7.44
416.832	7.57
417.038	7.34
417.244	7.24
417.45	7.3
417.657	7.22
417.863	7.16
418.069	7.23
418.275	7.39
418.481	7.37
418.687	7.17
418.893	7.23
419.099	7.42
419.305	7.51
419.511	7.46
419.717	7.47
419.923	7.31
420.129	7.29
420.335	7.25
420.541	7.22
420.746	7.21
420.952	7.27
421.158	7.17
421.364	7.08
421.57	7.13
421.776	7.04
421.982	6.81
422.187	6.73
422.393	6.53
422.599	6.55
422.805	6.64
423.01	6.51
423.216	6.52
423.422	6.36
423.628	6.33
423.833	6.31
424.039	6.15
424.245	6.24
424.45	6.55
424.656	6.67
424.862	6.54
425.067	6.42
425.273	6.44
425.478	6.3
425.684	6.25
425.889	6.01
426.095	5.92
426.301	6.06
426.506	6
426.712	5.65
426.917	5.65
427.123	5.68
427.328	5.76
427.533	5.77
427.739	5.64
427.944	5.66
428.15	5.82
428.355	5.66
428.561	5.41
428.766	5.45
428.971	5.41
429.177	5.47
429.382	5.33
429.587	5.25
429.793	5.17
429.998	5.31
430.203	5.35
430.408	5.39
430.614	5.59
430.819	5.79
431.024	5.92
431.229	6.08
431.434	6.01
431.64	6.1
431.845	6.15
432.05	6.2
432.255	6.24
432.46	6.51
432.665	6.54
432.87	6.54
433.076	6.56
433.281	6.38
433.486	6.48
433.691	6.45
433.896	6.45
434.101	6.38
434.306	6.3
434.511	6.35
434.716	6.12
434.921	6.12
435.126	6.04
435.331	5.92
435.535	5.98
435.74	5.7
435.945	5.52
436.15	5.5
436.355	5.63
436.56	5.96
436.765	5.93
436.97	6.05
437.174	6.02
437.379	6.2
437.584	6.13
437.789	6.22
437.993	6.41
438.198	6.51
438.403	6.54
438.608	6.29
438.812	6.18
439.017	6.18
439.222	6.32
439.426	6.21
439.631	6.19
439.836	6.4
440.04	6.48
440.245	6.53
440.45	6.54
440.654	6.36
440.859	6.54
441.063	6.51
441.268	6.63
441.472	6.48
441.677	6.55
441.881	6.38
442.086	6.55
442.29	6.35
442.495	6.51
442.699	6.62
442.904	6.62
443.108	6.52
443.312	6.46
443.517	6.4
443.721	6.48
443.925	6.49
444.13	6.43
444.334	6.16
444.538	6.18
444.743	5.9
444.947	5.88
445.151	6.01
445.356	5.95
445.56	5.94
445.764	5.92
445.968	5.78
446.173	5.81
446.377	6.01
446.581	6.07
446.785	6.07
446.989	6.08
447.193	6.03
447.398	6.09
447.602	6.13
447.806	6.03
448.01	6.06
448.214	6.07
448.418	6.07
448.622	5.95
448.826	5.88
449.03	5.97
449.234	6.02
449.438	6.13
449.642	6.1
449.846	6
450.05	6.14
450.254	6.19
450.458	6.27
450.662	6.28
450.866	6.23
451.069	6.01
451.273	6.06
451.477	5.93
451.681	5.84
451.885	5.83
452.089	5.91
452.292	5.9
452.496	5.8
452.7	6.02
452.904	5.91
453.107	5.91
453.311	6
453.515	5.91
453.719	6.13
453.922	6.15
454.126	6.15
454.33	6.03
454.533	6.18
454.737	6.18
454.94	5.91
455.144	5.79
455.348	5.7
455.551	5.8
455.755	5.67
455.958	5.33
456.162	5.04
456.365	5
456.569	5.41
456.772	5.18
456.976	5.25
457.179	5.42
457.383	5.69
457.586	5.75
457.79	5.65
457.993	5.62
458.196	5.88
458.4	6.08
458.603	6.03
458.807	6.01
459.01	6.09
459.213	5.98
459.417	6.01
459.62	5.91
459.823	5.78
460.026	5.8
460.23	5.92
460.433	5.83
460.636	5.85
460.839	5.98
461.042	5.79
461.246	5.82
461.449	5.8
461.652	5.72
461.855	5.8
462.058	5.96
462.261	6.21
462.464	6.12
462.668	5.98
462.871	5.99
463.074	5.91
463.277	5.99
463.48	5.95
463.683	5.94
463.886	5.67
464.089	5.55
464.292	5.33
464.495	5.19
464.698	5.17
464.901	5.41
465.104	5.34
465.306	5.27
465.509	5.26
465.712	5.27
465.915	5.28
466.118	5.59
466.321	5.79
466.524	6.03
466.726	6.09
466.929	6.1
467.132	5.8
467.335	5.83
467.538	5.99
467.74	6.06
467.943	5.97
468.146	6.13
468.348	6.15
468.551	5.98
468.754	6.04
468.956	5.88
469.159	6.03
469.362	6.12
469.564	6.21
469.767	5.99
469.969	5.95
470.172	6.1
470.375	5.99
470.577	5.77
470.78	5.91
470.982	5.88
471.185	5.95
471.387	5.94
471.59	6.22
471.792	6.11
471.995	6.1
472.197	6.01
472.399	5.87
472.602	5.85
472.804	6.02
473.007	5.99
473.209	5.92
473.411	5.92
473.614	5.71
473.816	5.6
474.018	5.52
474.22	5.71
474.423	5.86
474.625	5.95
474.827	6.11
475.03	5.99
475.232	5.84
475.434	5.95
475.636	5.72
475.838	6.03
476.04	6.1
476.243	6.26
476.445	6.2
476.647	6.1
476.849	6.19
477.051	5.98
477.253	6.09
477.455	6.26
477.657	6.24
477.859	6.46
478.061	6.41
478.263	6.14
478.465	6.01
478.667	5.96
478.869	5.98
479.071	5.9
479.273	6.03
479.475	5.72
479.677	5.56
479.879	5.45
480.081	5.33
480.283	5.34
480.485	5.53
480.686	5.57
480.888	5.57
481.09	5.55
481.292	5.45
481.494	5.39
481.695	5.63
481.897	5.72
482.099	5.69
482.301	5.73
482.502	5.7
482.704	5.77
482.906	5.74
483.107	5.82
483.309	5.78
483.511	5.84
483.712	5.88
483.914	5.87
484.115	5.89
484.317	5.96
484.519	5.99
484.72	6.02
484.922	6.03
485.123	6.01
485.325	5.99
485.526	6.04
485.728	5.97
485.929	5.96
486.131	5.97
486.332	5.94
486.534	5.92
486.735	5.92
486.936	5.85
487.138	5.86
487.339	5.93
487.541	5.83
487.742	5.81
487.943	5.86
488.144	5.76
488.346	5.75
488.547	5.69
488.748	5.66
488.95	5.7
489.151	5.67
489.352	5.63
489.553	5.59
489.755	5.74
489.956	5.78
490.157	5.69
490.358	5.83
490.559	5.83
490.76	5.93
490.961	5.91
491.163	5.73
491.364	5.86
491.565	5.78
491.766	5.79
491.967	5.78
492.168	5.89
492.369	6.03
492.57	5.96
492.771	5.89
492.972	5.89
493.173	5.92
493.374	6.02
493.575	5.94
493.776	5.97
493.976	6
494.177	5.93
494.378	5.72
494.579	5.49
494.78	5.64
494.981	5.9
495.182	5.85
495.382	5.86
495.583	5.86
495.784	5.9
495.985	6
496.185	5.83
496.386	5.74
496.587	5.78
496.788	5.92
496.988	5.91
497.189	5.78
497.39	5.75
497.59	5.72
497.791	5.59
497.992	5.54
498.192	5.53
498.393	5.73
498.593	5.77
498.794	5.79
498.994	5.87
499.195	5.95
499.395	6.06
499.596	6.17
499.796	6.2
499.997	6.28
500.197	6.33
500.398	6.37
500.598	6.37
500.799	6.38
500.999	6.45
501.199	6.46
501.4	6.47
501.6	6.42
501.801	6.26
502.001	6.26
502.201	6.6
502.402	6.62
502.602	6.57
502.802	6.63
503.002	6.85
503.203	6.92
503.403	6.83
503.603	6.85
503.803	6.95
504.003	7.13
504.204	7.24
504.404	7.04
504.604	7.07
504.804	7.33
505.004	7.31
505.204	7.26
505.404	7.33
505.604	7.36
505.804	7.13
506.005	7.13
506.205	7.01
506.405	7.06
506.605	7.11
506.805	7.16
507.005	7.05
507.204	7.09
507.404	7.13
507.604	7.18
507.804	7.25
508.004	7.24
508.204	7.32
508.404	7.68
508.604	7.67
508.804	7.82
509.003	7.89
509.203	8.06
509.403	8.21
509.603	8.38
509.803	8.24
510.002	8.26
510.202	8.69
510.402	8.75
510.602	8.8
510.801	8.9
511.001	8.96
511.201	9.04
511.4	9.06
511.6	9.23
511.8	9.24
511.999	9.36
512.199	9.53
512.398	9.39
512.598	9.49
512.797	9.28
512.997	9.33
513.197	9.43
513.396	9.64
513.596	9.55
513.795	9.4
513.994	9.56
514.194	9.55
514.393	9.79
514.593	9.87
514.792	9.82
514.992	10.05
515.191	10.35
515.39	10.35
515.59	10.31
515.789	10.56
515.988	10.67
516.188	10.8
516.387	11.22
516.586	11.2
516.786	11.42
516.985	11.68
517.184	11.81
517.383	11.92
517.582	11.99
517.782	12.11
517.981	12.37
518.18	12.56
518.379	12.53
518.578	12.48
518.777	12.51
518.976	12.73
519.176	12.74
519.375	12.91
519.574	12.96
519.773	13.05
519.972	13.19
520.171	13.14
520.37	13.16
520.569	13.28
520.768	13.36
520.967	13.51
521.166	13.51
521.365	13.59
521.564	13.58
521.762	13.56
521.961	13.72
522.16	13.95
522.359	13.95
522.558	14.23
522.757	14.47
522.956	14.67
523.154	14.81
523.353	14.88
523.552	15.06
523.751	15.22
523.949	15.33
524.148	15.46
524.347	15.46
524.546	15.66
524.744	15.66
524.943	15.75
525.142	15.95
525.34	16.06
525.539	16.23
525.737	16.27
525.936	16.36
526.135	16.54
526.333	16.61
526.532	16.65
526.73	16.82
526.929	16.94
527.127	17.07
527.326	17.18
527.524	17.24
527.723	17.35
527.921	17.43
528.12	17.55
528.318	17.67
528.516	17.72
528.715	17.84
528.913	17.86
529.112	17.97
529.31	18.05
529.508	18.05
529.707	18.12
529.905	18.18
530.103	18.28
530.301	18.28
530.5	18.26
530.698	18.39
530.896	18.49
531.094	18.61
531.293	18.71
531.491	18.75
531.689	18.85
531.887	18.98
532.085	19.08
532.283	19.23
532.481	19.39
532.68	19.54
532.878	19.64
533.076	19.74
533.274	19.83
533.472	19.82
533.67	19.89
533.868	19.95
534.066	19.99
534.264	20.09
534.462	20.1
534.66	20.17
534.858	20.2
535.056	20.27
535.253	20.28
535.451	20.39
535.649	20.54
535.847	20.67
536.045	20.83
536.243	20.93
536.441	20.98
536.638	21.09
536.836	21.16
537.034	21.33
537.232	21.32
537.43	21.43
537.627	21.45
537.825	21.4
538.023	21.38
538.22	21.37
538.418	21.46
538.616	21.45
538.813	21.44
539.011	21.57
539.209	21.5
539.406	21.69
539.604	21.93
539.801	21.97
539.999	22.18
540.196	22.35
540.394	22.48
540.591	22.56
540.789	22.55
540.986	22.73
541.184	22.81
541.381	23.01
541.579	23.02
541.776	23.01
541.974	23.15
542.171	23.22
542.368	23.39
542.566	23.54
542.763	23.63
542.96	23.76
543.158	23.74
543.355	23.8
543.552	23.8
543.75	23.93
543.947	23.99
544.144	23.94
544.341	23.93
544.539	23.86
544.736	23.84
544.933	23.91
545.13	24.14
545.327	24.3
545.524	24.4
545.722	24.44
545.919	24.51
546.116	24.55
546.313	24.74
546.51	24.82
546.707	24.94
546.904	24.97
547.101	24.95
547.298	25.02
547.495	25.11
547.692	25.03
547.889	25.05
548.086	25.15
548.283	25.23
548.48	25.33
548.677	25.35
548.874	25.4
549.07	25.46
549.267	25.76
549.464	25.82
549.661	25.74
549.858	26.03
550.055	26.11
550.251	26.1
550.448	26.23
550.645	26.33
550.842	26.47
551.038	26.54
551.235	26.69
551.432	26.39
551.628	26.24
551.825	26.44
552.022	26.53
552.218	26.74
552.415	26.85
552.612	26.84
552.808	26.66
553.005	26.79
553.201	26.9
553.398	26.79
553.594	26.97
553.791	27.26
553.987	27.22
554.184	27.24
554.38	27.22
554.577	27.39
554.773	27.32
554.97	27.4
555.166	27.43
555.362	27.2
555.559	27.52
555.755	27.7
555.952	27.56
556.148	27.7
556.344	27.79
556.541	27.73
556.737	27.78
556.933	27.86
557.129	28.11
557.326	28.06
557.522	28.25
557.718	28.06
557.914	28.19
558.11	28.53
558.307	28.62
558.503	28.68
558.699	28.69
558.895	28.8
559.091	29.06
559.287	29.08
559.483	29.3
559.679	29.53
559.876	29.72
560.072	29.7
560.268	29.48
560.464	29.57
560.66	29.49
560.856	29.71
561.052	29.65
561.247	29.75
561.443	29.73
561.639	29.9
561.835	29.87
562.031	29.71
562.227	29.6
562.423	29.7
562.619	29.73
562.815	29.75
563.01	29.81
563.206	29.91
563.402	29.97
563.598	30.12
563.793	30.01
563.989	30.1
564.185	30.5
564.381	30.67
564.576	30.78
564.772	30.83
564.968	30.96
565.163	31.26
565.359	31.13
565.555	30.99
565.75	31.15
565.946	31.1
566.141	31.1
566.337	31.08
566.532	31.04
566.728	31
566.923	31.08
567.119	31.05
567.314	30.79
567.51	30.97
567.705	31.06
567.901	31.01
568.096	31.22
568.292	31.28
568.487	31.32
568.682	31.4
568.878	31.62
569.073	31.67
569.268	31.78
569.464	31.96
569.659	31.86
569.854	32.16
570.05	32.22
570.245	32.16
570.44	32.22
570.635	32.21
570.831	32.31
571.026	32.37
571.221	32.42
571.416	32.4
571.611	32.47
571.806	32.66
572.002	32.45
572.197	32.56
572.392	32.73
572.587	32.73
572.782	32.8
572.977	32.77
573.172	32.7
573.367	32.85
573.562	32.91
573.757	32.87
573.952	32.79
574.147	32.74
574.342	32.69
574.537	32.66
574.732	32.87
574.927	32.87
575.121	32.9
575.316	32.92
575.511	32.84
575.706	32.88
575.901	32.79
576.096	32.54
576.29	32.71
576.485	32.66
576.68	32.66
576.875	32.26
577.069	32.46
577.264	32.55
577.459	32.8
577.654	32.95
577.848	33.02
578.043	33.22
578.238	33.6
578.432	33.58
578.627	33.73
578.821	33.69
579.016	34
579.21	33.6
579.405	33.86
579.6	33.48
579.794	33.23
579.989	33.33
580.183	33.08
580.378	33.04
580.572	33.31
580.766	33.28
580.961	33.26
581.155	33.28
581.35	33.49
581.544	33.2
581.738	33.52
581.933	33.79
582.127	33.71
582.321	33.99
582.516	34.25
582.71	34.29
582.904	34.43
583.099	34.66
583.293	34.74
583.487	35.05
583.681	35.08
583.875	35.14
584.07	35.23
584.264	35.29
584.458	35.44
584.652	35.44
584.846	35.27
585.04	35.12
585.234	34.99
585.428	35.15
585.623	35.12
585.817	35.37
586.011	35.24
586.205	35.19
586.399	35.15
586.593	35.28
586.787	35.3
586.981	35.09
587.174	35.12
587.368	35.11
587.562	35.07
587.756	34.86
587.95	34.89
588.144	34.89
588.338	34.4
588.532	34.31
588.725	34.09
588.919	34.17
589.113	34.48
589.307	34.45
589.501	34.47
589.694	34.54
589.888	34.86
590.082	34.76
590.275	34.86
590.469	35.18
590.663	35.28
590.856	35.59
591.05	35.59
591.244	35.51
591.437	35.46
591.631	35.75
591.824	35.55
592.018	35.47
592.212	35.61
592.405	35.64
592.599	35.77
592.792	35.66
592.986	35.65
593.179	35.58
593.372	35.84
593.566	36.43
593.759	36.23
593.953	36.37
594.146	36.27
594.339	36.24
594.533	36.35
594.726	36.53
594.92	36.88
595.113	36.75
595.306	36.77
595.499	36.74
595.693	36.64
595.886	36.76
596.079	36.87
596.272	37.07
596.466	37.16
596.659	37.18
596.852	37.15
597.045	37.08
597.238	37.22
597.431	37.41
597.624	37.49
597.818	37.51
598.011	37.69
598.204	37.9
598.397	37.87
598.59	37.82
598.783	37.83
598.976	38
599.169	38.28
599.362	38.41
599.555	38.36
599.748	38.56
599.941	38.36
600.134	38.34
600.326	38.02
600.519	38.04
600.712	37.96
600.905	38.04
601.098	37.73
601.291	37.67
601.483	37.46
601.676	37.43
601.869	37.33
602.062	37.57
602.255	37.32
602.447	37.24
602.64	37.46
602.833	37.74
603.025	37.98
603.218	38.12
603.411	38.22
603.603	38.65
603.796	38.55
603.989	38.32
604.181	38.15
604.374	38.36
604.566	38.63
604.759	38.66
604.951	38.58
605.144	38.33
605.336	38.55
605.529	38.43
605.721	38.25
605.914	38.49
606.106	38.73
606.299	39.03
606.491	39
606.683	39.11
606.876	39.07
607.068	39.13
607.26	39.38
607.453	39.2
607.645	39.25
607.837	38.96
608.03	38.68
608.222	38.53
608.414	38.37
608.606	38.17
608.799	37.83
608.991	37.65
609.183	37.67
609.375	37.56
609.567	37.44
609.759	37.44
609.952	37.45
610.144	37.71
610.336	37.7
610.528	37.73
610.72	37.94
610.912	37.91
611.104	37.86
611.296	37.64
611.488	37.37
611.68	37.41
611.872	37.41
612.064	37.6
612.256	37.71
612.448	37.96
612.64	37.94
612.832	37.83
613.023	38.02
613.215	37.93
613.407	38.16
613.599	38.58
613.791	38.57
613.983	38.54
614.174	38.68
614.366	38.42
614.558	38.47
614.75	38.53
614.941	38.81
615.133	39.01
615.325	39.25
615.516	39.51
615.708	39.58
615.9	39.89
616.091	39.96
616.283	39.97
616.475	40.05
616.666	40.11
616.858	40.08
617.049	39.88
617.241	40.19
617.432	40.4
617.624	40.07
617.815	40.13
618.007	40.37
618.198	40.51
618.39	40.52
618.581	40.4
618.773	40.8
618.964	40.77
619.155	40.7
619.347	40.47
619.538	40.27
619.729	40.89
619.921	41.23
620.112	40.88
620.303	40.79
620.494	40.63
620.686	41.09
620.877	40.72
621.068	40.94
621.259	41.2
621.451	41.31
621.642	41.51
621.833	40.52
622.024	40.33
622.215	40.47
622.406	40.84
622.597	40.88
622.788	40.73
622.98	40.71
623.171	40.7
623.362	41
623.553	40.81
623.744	40.8
623.935	41.54
624.126	41.18
624.317	41.09
624.508	40.84
624.698	40.86
624.889	40.73
625.08	40.39
625.271	40.57
625.462	40.28
625.653	40.52
625.844	40.4
626.034	40.38
626.225	40.82
626.416	40.89
626.607	40.95
626.798	41.13
626.988	41.3
627.179	41.53
627.37	41.39
627.56	41.27
627.751	41.15
627.942	41.07
628.132	41.06
628.323	41.01
628.514	41.18
628.704	41.16
628.895	40.84
629.085	40.72
629.276	41.04
629.466	40.83
629.657	40.95
629.847	41.06
630.038	41.15
630.228	41.17
630.419	41.01
630.609	40.83
630.8	41.05
630.99	41.35
631.181	41.2
631.371	41.13
631.561	41.46
631.752	41.8
631.942	41.56
632.132	41.88
632.323	41.79
632.513	42.03
632.703	42.12
632.893	41.87
633.084	42.01
633.274	42.16
633.464	41.97
633.654	41.97
633.844	41.74
634.034	41.94
634.225	41.99
634.415	42.29
634.605	42.06
634.795	41.87
634.985	41.7
635.175	41.53
635.365	41.83
635.555	42.02
635.745	42
635.935	41.79
636.125	41.9
636.315	41.75
636.505	41.77
636.695	41.98
636.885	42.32
637.075	42.53
637.265	42.73
637.455	42.73
637.644	42.49
637.834	42.4
638.024	43.04
638.214	42.97
638.404	43.25
638.593	43.36
638.783	43.3
638.973	42.9
639.163	43.53
639.352	43.86
639.542	44.04
639.732	44.34
639.921	44.78
640.111	44.44
640.301	44.38
640.49	44.54
640.68	43.96
640.87	44.35
641.059	44.76
641.249	44.56
641.438	44.06
641.628	44.11
641.817	44.09
642.007	44.11
642.196	44.05
642.386	44.5
642.575	44.22
642.764	44.9
642.954	44.24
643.143	44.39
643.333	44.13
643.522	44.23
643.711	43.88
643.901	43.63
644.09	43.38
644.279	43.53
644.469	43.16
644.658	43.23
644.847	42.99
645.036	42.8
645.226	42.65
645.415	42.82
645.604	43.11
645.793	43.46
645.982	43.92
646.171	43.93
646.361	43.85
646.55	43.93
646.739	43.92
646.928	43.67
647.117	44.1
647.306	44.14
647.495	44.03
647.684	43.78
647.873	43.21
648.062	42.99
648.251	42.91
648.44	42.73
648.629	42.57
648.818	42.4
649.007	42.63
649.196	42.73
649.384	42.95
649.573	42.83
649.762	42.79
649.951	43.09
650.14	42.97
650.328	43.36
650.517	43.82
650.706	43.75
650.895	44.08
651.083	44.05
651.272	44.12
651.461	43.95
651.65	44.02
651.838	43.99
652.027	44.25
652.216	44.48
652.404	44.16
652.593	44.38
652.781	44.83
652.97	44.4
653.158	44.47
653.347	44.42
653.535	44.28
653.724	43.9
653.912	43.96
654.101	44.1
654.289	44.4
654.478	44.48
654.666	44.09
654.855	44.03
655.043	44.25
655.231	43.95
655.42	43.68
655.608	43.79
655.796	44
655.985	44.6
656.173	44.46
656.361	43.69
656.55	43.49
656.738	43.24
656.926	43.46
657.114	43.69
657.302	44.34
657.491	44.69
657.679	44.63
657.867	44.9
658.055	44.52
658.243	44.25
658.431	44.52
658.619	44.54
658.807	45.11
658.996	44.99
659.184	44.84
659.372	44.72
659.56	45.09
659.748	45.18
659.936	44.97
660.124	44.97
660.311	45.22
660.499	45.03
660.687	45.33
660.875	45.02
661.063	45.16
661.251	45.19
661.439	44.81
661.627	44.16
661.814	44.3
662.002	44.7
662.19	44.79
662.378	44.42
662.565	44.78
662.753	45.05
662.941	45.27
663.129	44.64
663.316	45.1
663.504	45.56
663.692	45.94
663.879	46.03
664.067	45.91
664.254	46.01
664.442	46.29
664.63	46.59
664.817	45.88
665.005	45.67
665.192	46.35
665.38	45.72
665.567	45.86
665.755	45.85
665.942	45.61
666.13	45.88
666.317	45.85
666.504	45.71
666.692	45.62
666.879	45.78
667.067	45.71
667.254	45.45
667.441	46.16
667.629	45.32
667.816	45.52
668.003	45.86
668.19	45.64
668.378	45.56
668.565	45.94
668.752	45.51
668.939	46.09
669.127	46.46
669.314	46.28
669.501	46.02
669.688	46.89
669.875	47.01
670.062	47
670.249	46.98
670.436	46.67
670.623	46.16
670.81	46.78
670.997	46.38
671.184	46.15
671.371	46.11
671.558	46.13
671.745	45.92
671.932	45.98
672.119	45.4
672.306	45.39
672.493	45.49
672.68	45.59
672.867	45.32
673.054	45.25
673.24	45.67
673.427	45.93
673.614	45.9
673.801	46.4
673.988	45.88
674.174	46.41
674.361	46.83
674.548	47.58
674.734	47.78
674.921	48.2
675.108	48.1
675.294	47.87
675.481	48.09
675.668	47.36
675.854	46.63
676.041	46.77
676.227	46.63
676.414	46.4
676.601	45.73
676.787	45.57
676.974	44.92
677.16	45.27
677.347	45.3
677.533	45.05
677.719	45.65
677.906	45.92
678.092	45.62
678.279	45.54
678.465	45.4
678.651	45.96
678.838	46.16
679.024	46.2
679.21	46.4
679.397	46.62
679.583	46.86
679.769	46.63
679.955	46.57
680.142	47.3
680.328	47.89
680.514	48.18
680.7	47.95
680.886	48.28
681.073	48.77
681.259	48.68
681.445	48.28
681.631	48.47
681.817	48.97
682.003	48.75
682.189	48.15
682.375	47.41
682.561	47.15
682.747	47.46
682.933	47.09
683.119	46.77
683.305	46.42
683.491	46.71
683.677	46.52
683.863	46.43
684.049	46.93
684.235	47.06
684.42	47.5
684.606	47.44
684.792	47.6
684.978	47.81
685.164	48.14
685.349	48.42
685.535	48.46
685.721	48.22
685.907	48.3
686.092	48.23
686.278	48.3
686.464	48.41
686.649	48.26
686.835	48.06
687.021	47.5
687.206	47.35
687.392	47.5
687.577	47.46
687.763	47.08
687.948	47.5
688.134	47.89
688.319	47.85
688.505	47.99
688.69	47.93
688.876	47.44
689.061	47.68
689.247	47.75
689.432	47.65
689.618	47.66
689.803	48.19
689.988	47.64
690.174	47.58
690.359	47.81
690.544	47.52
690.73	47.59
690.915	47.6
691.1	47.94
691.285	47.76
691.471	47.8
691.656	47.31
691.841	47.62
692.026	46.97
692.211	46.1
692.396	45.76
692.582	45.94
692.767	45.81
692.952	46.36
693.137	46.01
693.322	46.07
693.507	45.88
693.692	45.79
693.877	45.6
694.062	46.68
694.247	47.32
694.432	47.35
694.617	46.72
694.802	47.51
694.987	46.65
695.172	46.94
695.357	46.59
695.541	47
695.726	47.45
695.911	47.77
696.096	47.69
696.281	47.69
696.466	47.97
696.65	48.1
696.835	47.86
697.02	48.38
697.204	48.33
697.389	48.91
697.574	48.78
697.759	49.16
697.943	48.65
698.128	48.56
698.312	48.55
698.497	48.51
698.682	48.63
698.866	48.48
699.051	48.83
699.235	49.12
699.42	48.67
699.604	48.49
699.789	48.33
699.973	48.63
700.158	48.72
700.342	48.74
700.527	48.93
700.711	48.96
700.895	49.33
701.08	49.25
701.264	48.77
701.448	49
701.633	49.45
701.817	49.32
702.001	49.3
702.186	49.19
702.37	49.17
702.554	48.84
702.738	48.94
702.923	49.66
703.107	49.07
703.291	49.48
703.475	49.43
703.659	49.41
703.843	49.86
704.027	49.55
704.212	49.45
704.396	49.05
704.58	49.09
704.764	48.62
704.948	47.39
705.132	48.02
705.316	48.13
705.5	48.47
705.684	48.4
705.868	48.59
706.052	49.21
706.235	49.31
706.419	49.45
706.603	49.33
706.787	49.39
706.971	49.42
707.155	49.08
707.339	48.12
707.522	47.79
707.706	47.66
707.89	46.69
708.074	46.57
708.257	46.28
708.441	46.56
708.625	45.6
708.808	46.59
708.992	46.93
709.176	47.33
709.359	47.79
709.543	47.69
709.727	47.38
709.91	47.73
710.094	47.54
710.277	47.64
710.461	47.85
710.644	48.93
710.828	48.52
711.011	48.35
711.195	48.08
711.378	48.16
711.562	47.65
711.745	47.62
711.928	48.14
712.112	48.19
712.295	48.21
712.478	48.09
712.662	47.73
712.845	47.48
713.028	48.21
713.212	47.79
713.395	48.06
713.578	49.24
713.761	50.23
713.945	49.53
714.128	49.59
714.311	49.09
714.494	49.16
714.677	50.26
714.86	50.41
715.043	49.51
715.227	50.02
715.41	50.16
715.593	49.73
715.776	49.9
715.959	50.23
716.142	50.4
716.325	51.06
716.508	50.9
716.691	50.18
716.874	50.03
717.057	50.27
717.239	50.55
717.422	50.24
717.605	50.08
717.788	49.41
717.971	49.02
718.154	48.44
718.337	48.17
718.519	48.75
718.702	48.22
718.885	48.54
719.068	48.4
719.25	47.87
719.433	47.72
719.616	48.12
719.798	47.81
719.981	48.85
720.164	48.94
720.346	49.46
720.529	49.19
720.712	50.06
720.894	50.66
721.077	51.69
721.259	51.4
721.442	51.73
721.624	51.47
721.807	51.38
721.989	51.11
722.172	52.12
722.354	51.56
722.537	51.53
722.719	51.19
722.901	50.64
723.084	50.22
723.266	49.92
723.448	50.19
723.631	49.95
723.813	49.9
723.995	48.73
724.178	48.08
724.36	48.83
724.542	49.25
724.724	49.81
724.907	49.95
725.089	49.1
725.271	49.87
725.453	49.71
725.635	50.27
725.817	50.62
725.999	50.89
726.181	50.92
726.364	51.1
726.546	50.02
726.728	49.78
726.91	49.61
727.092	50.62
727.274	49.87
727.456	49.72
727.638	49.2
727.819	49.11
728.001	49.87
728.183	49.53
728.365	48.77
728.547	49.44
728.729	49.54
728.911	48.92
729.093	48.82
729.274	49.98
729.456	50.28
729.638	50.51
729.82	50.88
730.001	51.05
730.183	51
730.365	51.49
730.546	51.59
730.728	51.71
730.91	51.88
731.091	51.97
731.273	51.64
731.455	51.14
731.636	51.56
731.818	51.43
731.999	51.17
732.181	51.5
732.362	51.56
732.544	51.14
732.725	51.21
732.907	51.54
733.088	50.73
733.27	50.63
733.451	50.96
733.633	49.63
733.814	50.02
733.995	50.23
734.177	49.59
734.358	49.54
734.539	49.16
734.721	48.53
734.902	49.36
735.083	49.66
735.264	50.07
735.446	50.69
735.627	51.28
735.808	51.18
735.989	50.31
736.17	50.41
736.351	50.64
736.533	50.35
736.714	51.28
736.895	51.15
737.076	51.53
737.257	51.03
737.438	49.96
737.619	50.56
737.8	50.03
737.981	50.69
738.162	50.64
738.343	50.26
738.524	50.19
738.705	49.8
738.886	48.63
739.067	47.94
739.247	47.98
739.428	48.82
739.609	48.83
739.79	48.85
739.971	49.44
740.151	50.19
740.332	50.08
740.513	50.62
740.694	50.61
740.874	51.55
741.055	52.11
741.236	51.59
741.417	51.41
741.597	51.67
741.778	51.19
741.958	50.71
742.139	50.33
742.32	50.6
742.5	51.7
742.681	51.75
742.861	51
743.042	50.24
743.222	50.91
743.403	51.23
743.583	50.87
743.764	49.86
743.944	49.38
744.124	48.66
744.305	48.19
744.485	48.58
744.666	48.54
744.846	48.24
745.026	48.62
745.207	47.39
745.387	46.64
745.567	44.84
745.747	47.72
745.928	47.93
746.108	49.33
746.288	50.36
746.468	48.97
746.648	49.17
746.829	50.8
747.009	51.89
747.189	53.05
747.369	53.04
747.549	55.36
747.729	54.4
747.909	54.67
748.089	55.17
748.269	53.92
748.449	54.1
748.629	53.75
748.809	52.63
748.989	51.03
749.169	50.67
749.349	50.48
749.529	49.22
749.709	48.77
749.889	47.9
750.068	47.11
750.248	47.8
750.428	47.32
750.608	46.88
750.788	46.55
750.967	46.94
751.147	47.06
751.327	46.53
751.507	47.79
751.686	47.62
751.866	48.52
752.046	48.34
752.225	48.48
752.405	48.85
752.585	49.81
752.764	50.7
752.944	51.59
753.123	51.34
753.303	52.02
753.482	51.46
753.662	52.21
753.841	51.95
754.021	50.26
754.2	50.2
754.38	50.6
754.559	50.09
754.739	49.97
754.918	48.22
755.097	48.94
755.277	49.39
755.456	49.41
755.635	48.85
755.815	48.97
755.994	50.31
756.173	50.09
756.352	49.03
756.532	48.25
756.711	47.65
756.89	49.51
757.069	50.65
757.248	50.91
757.427	50.26
757.607	50.37
757.786	51.25
757.965	51.81
758.144	52.29
758.323	53.08
758.502	52.97
758.681	53.92
758.86	53.89
759.039	51.47
759.218	51.62
759.397	52.19
759.576	53.06
759.755	52
759.934	53.29
760.113	51.6
760.291	52.84
760.47	53.63
760.649	52.07
760.828	51.72
761.007	52.39
761.186	51.23
761.364	51.22
761.543	50.64
761.722	50.34
761.901	48.78
762.079	50.33
762.258	49.96
762.437	49.83
762.615	50.31
762.794	50.52
762.972	50.83
763.151	50.49
763.33	51.07
763.508	51.05
763.687	51.26
763.865	50.85
764.044	50.27
764.222	50.3
764.401	50.55
764.579	50.64
764.758	50.27
764.936	50.09
765.114	50.83
765.293	50.48
765.471	50.05
765.65	49.64
765.828	50.72
766.006	51.45
766.184	50.77
766.363	51.1
766.541	51.67
766.719	51.98
766.898	52.01
767.076	51.69
767.254	51.4
767.432	52.49
767.61	53.13
767.788	52.33
767.967	51.19
768.145	51.07
768.323	51.2
768.501	50.96
768.679	50.56
768.857	50.76
769.035	51.47
769.213	50.88
769.391	51.12
769.569	51.63
769.747	51.6
769.925	51.89
770.103	52.54
770.281	52.09
770.459	52.47
770.636	52.92
770.814	53.09
770.992	53.48
771.17	54.98
771.348	53.53
771.525	55
771.703	56.9
771.881	58.08
772.059	58.75
772.236	58
772.414	57.21
772.592	56.03
772.769	56.77
772.947	55.98
773.125	55.59
773.302	53.66
773.48	51.38
773.657	47.99
773.835	46.54
774.013	45.12
774.19	46.13
774.368	45.44
774.545	45.74
774.723	44.54
774.9	43.84
775.077	44.83
775.255	48.04
775.432	47.3
775.61	48.58
775.787	50.94
775.964	53.35
776.142	52.4
776.319	54.29
776.496	53.96
776.674	54.81
776.851	53.58
777.028	51.84
777.205	50.55
777.382	50.79
777.56	50.84
777.737	48.38
777.914	46.88
778.091	45.68
778.268	46.15
778.445	45.93
778.622	46.01
778.8	46.21
778.977	47.3
779.154	14.92
779.331	14.51
779.508	14.59
779.685	15.19
779.862	14.67
780.038	18.47
780.215	16.5
780.392	19.01
780.569	18.09
780.746	18.71
780.923	17.32
781.1	51.15
781.277	51.69
781.453	52.3
781.63	52.7
781.807	53.06
781.984	49.26
782.16	50.41
782.337	49.22
782.514	46.85
782.691	47.54
782.867	47.26
783.044	44.92
783.221	43.52
783.397	42.18
783.574	41.36
783.75	40.73
783.927	40.59
784.103	38.1
784.28	37.49
784.456	38.91
784.633	38.39
784.809	39.32
784.986	39.62
785.162	41.56
785.339	43.1
785.515	44.11
785.692	43.41
785.868	46.04
786.044	47.85
786.221	48.76
786.397	49.98
786.573	50.02
786.749	51.81
786.926	51.98
787.102	50.95
787.278	51.48
787.454	51.64
787.631	51.21
787.807	52.32
787.983	53.05
788.159	52.57
788.335	51.34
788.511	52.15
788.687	48.87
788.863	50.59
789.039	49.94
789.216	47.29
789.392	46.42
789.568	46.04
789.744	43.25
789.919	42.43
790.095	42.82
790.271	43.4
790.447	43.33
790.623	45.61
790.799	44.54
790.975	43.49
791.151	44.45
791.327	45.9
791.502	46.99
791.678	47.43
791.854	47.44
792.03	47.41
792.205	46.79
792.381	46.91
792.557	44.97
792.733	47.24
792.908	49.48
793.084	50.28
793.259	49.85
793.435	50.32
793.611	51.45
793.786	48.93
793.962	48.76
794.137	48.64
794.313	49.24
794.488	50.11
794.664	47.55
794.839	47.36
795.015	47.49
795.19	47.86
795.366	48.27
795.541	47.72
795.716	52.32
795.892	52.71
796.067	52.42
796.242	50.73
796.418	52.27
796.593	50.59
796.768	50.35
796.944	49.01
797.119	49.88
797.294	51.39
797.469	51.04
797.644	48.65
797.82	50.17
797.995	51.1
798.17	50.48
798.345	48.54
798.52	51.2
798.695	51.55
798.87	55.21
799.045	56
799.22	51.89
799.395	54.43
799.57	53.9
799.745	51.58
799.92	52.84
800.095	56.42
800.27	58.86
800.445	61.29
800.62	60.04
800.795	59.15
800.97	55.97
801.145	57.28
801.319	54.45
801.494	53.1
801.669	53.97
801.844	54.47
802.018	50.85
802.193	49.23
802.368	45.47
802.543	44.35
802.717	42.54
802.892	44.08
803.067	44.85
803.241	44.82
803.416	46.73
803.59	47.09
803.765	47.53
803.94	47.49
804.114	48.11
804.289	50.04
804.463	51.47
804.638	51.44
804.812	51.74
804.986	53.78
805.161	55.43
805.335	55.62
805.51	55.75
805.684	53.95
805.858	54.57
806.033	55.84
806.207	53.49
806.381	53.51
806.556	52.63
806.73	50.62
806.904	47.07
807.078	46.16
807.253	44.33
807.427	44.16
807.601	44.74
807.775	45.71
807.949	42.65
808.123	43.23
808.298	45.74
808.472	45.13
808.646	44.84
808.82	45.05
808.994	45.78
809.168	46.29
809.342	45.7
809.516	42.29
809.69	42.2
809.864	44.96
810.038	46.25
810.212	42.68
810.385	41.87
810.559	43.82
810.733	47.45
810.907	45.61
811.081	49.25
811.255	49.25
811.428	53.16
811.602	47.78
811.776	46.37
811.95	46.37
812.123	50.77
812.297	52.68
812.471	49.36
812.644	48.08
812.818	48.18
812.992	45.41
813.165	44.72
813.339	44
813.512	50.4
813.686	49.04
813.86	49.44
814.033	46.98
814.207	44.55
814.38	46.15
814.554	44.58
814.727	46.35
814.9	48.66
815.074	48.53
815.247	48.18
815.421	49.55
815.594	49.04
815.767	46.27
815.941	42.94
816.114	45.02
816.287	48.05
816.46	50.17
816.634	49.16
816.807	47.07
816.98	47.18
817.153	47.47
817.327	43
817.5	47.18
817.673	46.11
817.846	43.19
818.019	45.35
818.192	45.01
818.365	41.32
818.538	43.68
818.711	43.33
818.884	45.68
819.057	44.48
819.23	42.78
819.403	41.7
819.576	43.13
819.749	46.05
819.922	47.3
820.095	45.51
820.268	49.64
820.441	46.5
820.614	48.45
820.786	48.67
820.959	49.42
821.132	51.56
821.305	52.43
821.477	53.13
821.65	53.82
821.823	52.5
821.996	52.65
822.168	51.31
822.341	52.31
822.514	52.05
822.686	51.61
822.859	51.44
823.031	52
823.204	51.59
823.376	51.77
823.549	51.61
823.722	51.58
823.894	51.31
824.067	52.03
824.239	51.55
824.411	51.67
824.584	52.36
824.756	52.59
824.929	52.07
825.101	52.52
825.273	52.09
825.446	52
825.618	52.42
825.79	52.63
825.963	52.24
826.135	52.42
826.307	52.95
826.479	51.2
826.652	52.25
826.824	52.13
826.996	52.17
827.168	53.08
827.34	52.91
827.512	52.61
827.684	52.06
827.856	52.13
828.029	51.49
828.201	50
828.373	51.55
828.545	50.17
828.717	50.13
828.889	48.79
829.061	48.23
829.232	49.13
829.404	49.26
829.576	50.28
829.748	50.32
829.92	49.41
830.092	50.23
830.264	49.73
830.436	49.75
830.607	50.52
830.779	50.78
830.951	49.48
831.123	46.95
831.294	47.29
831.466	45.07
831.638	43.92
831.809	45.58
831.981	44.89
832.153	46.11
832.324	45.16
832.496	44.91
832.667	43.08
832.839	42.7
833.011	45.36
833.182	43.97
833.354	44.58
833.525	45.68
833.697	45.2
833.868	45.6
834.039	44.55
834.211	46.85
834.382	47.22
834.554	50.43
834.725	52.22
834.896	50.89
835.068	49.36
835.239	49.77
835.41	49.6
835.581	51.08
835.753	50.92
835.924	49.65
836.095	47.71
836.266	43.97
836.438	40.06
836.609	37.03
836.78	36.86
836.951	36.86
837.122	37.8
837.293	38.08
837.464	36.58
837.635	35.35
837.806	36.52
837.977	37.46
838.148	41.97
838.319	45.35
838.49	46.8
838.661	50.72
838.832	53.2
839.003	53.01
839.174	52.98
839.345	54.36
839.516	56.9
839.687	53.91
839.857	52.62
840.028	49.79
840.199	49.28
840.37	51.73
840.54	43.91
840.711	44.45
840.882	43.94
841.053	40.58
841.223	41.9
841.394	42.34
841.564	49.37
841.735	50.45
841.906	53.13
842.076	47.42
842.247	48.74
842.417	54.34
842.588	56.05
842.758	59.18
842.929	60
843.099	55.27
843.27	50
843.44	41.61
843.611	36.83
843.781	29.8
843.951	38.71
844.122	40.48
844.292	40.12
844.462	44.49
844.633	48.24
844.803	47.02
844.973	50.77
845.144	52.93
845.314	65.19
845.484	65.49
845.654	77.96
845.824	74.9
845.995	65.27
846.165	56.01
846.335	47.7
846.505	41
846.675	48.56
846.845	48.3
847.015	51.47
847.185	49.42
847.355	43.6
847.525	39.32
847.695	36.22
847.865	26.34
848.035	23.92
848.205	28.28
848.375	28.85
848.545	18.24
848.715	25.34
848.884	24.37
849.054	19.47
849.224	24.37
849.394	26.63
849.564	29.98
849.733	42.61
849.903	46.08
850.073	42.33
850.243	46.67
850.412	51.77
850.582	47.96
850.752	59.08
850.921	58.91
851.091	76.84
851.26	75.06
851.43	77.85
851.599	64.79
851.769	69.26
851.939	68.97
852.108	56.9
852.278	56.2
852.447	54.5
852.616	43.32
852.786	48.23
852.955	36.3
853.125	32.51
853.294	31.07
853.463	28.11
853.633	14.14
853.802	-1.64
853.971	0.91
854.141	-11.29
854.31	-13.87
854.479	-11.34
854.648	-23.71
854.818	-24.59
854.987	-15.02
855.156	-1.43
855.325	4.89
855.494	17.15
855.663	20.77
855.832	24.51
856.001	37.8
856.171	25.66
856.34	18.53
856.509	33.88
856.678	35.65
856.847	45.84
857.016	43.07
857.185	39.36
857.353	37.29
857.522	46.3
857.691	50.07
857.86	42.74
858.029	47.17
858.198	59.73
858.367	46.31
858.535	45.82
858.704	41.45
858.873	48.11
859.042	55.9
859.21	62.65
859.379	54.45
859.548	45.56
859.717	67.5
859.885	70.59
860.054	62.37
860.222	86.04
860.391	73.29
860.56	68.75
860.728	59.54
860.897	46
861.065	33.83
861.234	44.68
861.402	32.55
861.571	31.7
861.739	35.83
861.908	40.85
862.076	25.77
862.244	28.68
862.413	36.52
862.581	32
862.749	42.48
862.918	43.97
863.086	37.49
863.254	43.03
863.423	36.96
863.591	37.29
863.759	37.49
863.927	41.58
864.096	45.53
864.264	39.58
864.432	48.41
864.6	49.47
864.768	59.53
864.936	73.09
865.104	67.37
865.272	69.66
865.44	85.25
865.608	89.29
865.776	72.36
865.944	66.38
866.112	67.03
866.28	50.25
866.448	32.47
866.616	37.23
866.784	34.04
866.952	21.94
867.12	26.32
867.288	16.36
867.455	11.33
867.623	21.05
867.791	5.3
867.959	21.12
868.127	47.86
868.294	77.84
868.462	45.7
868.63	45.68
868.797	72.84
868.965	79.24
869.133	78.85
869.3	70.32
869.468	56.16
869.636	54.82
869.803	44.67
869.971	41.87
870.138	24.61
870.306	33.22
870.473	38.99
870.641	32.86
870.808	18.69
870.975	14.37
871.143	8.15
871.31	17.38
871.478	3.01
871.645	23.93
871.812	20.87
871.98	41.8
872.147	49.19
872.314	42.99
872.482	42.75
872.649	40.68
872.816	34.91
872.983	38.34
873.15	25.2
873.318	43.1
873.485	27.61
873.652	20.29
873.819	8.84
873.986	12.06
874.153	-7.95
874.32	-7.57
874.487	7.28
874.654	-1.91
874.821	-13.93
874.988	12.12
875.155	-7.04
875.322	5.33
875.489	4.41
875.656	7.56
875.823	-2.73
875.99	14.2
876.157	15.22
876.324	14.71
876.49	34.06
876.657	36.22
876.824	29.01
876.991	37.88
877.157	27.03
877.324	38.01
877.491	37.19
877.658	44.38
877.824	31.17
877.991	29.49
878.157	12.99
878.324	-7.14
878.491	-3.89
878.657	6.51
878.824	3.4
878.99	18.11
879.157	18.08
879.323	14.6
879.49	7.54
879.656	21.34
879.823	17.89
879.989	27.42
880.156	39.03
880.322	37.04
880.488	34.44
880.655	40.66
880.821	35.9
880.987	34.98
881.154	39.8
881.32	37.12
881.486	39.06
881.652	40.53
881.819	41.27
881.985	42.46
882.151	41.49
882.317	43.43
882.483	41.31
882.649	42.26
882.816	40.43
882.982	39.96
883.148	41.55
883.314	42.38
883.48	42.93
883.646	43.83
883.812	43.75
883.978	44.21
884.144	45.04
884.31	43.87
884.476	45.94
884.642	46.99
884.807	46.7
884.973	47.75
885.139	45.41
885.305	45.67
885.471	46.42
885.637	45.87
885.802	46.34
885.968	46.04
886.134	48.51
886.3	46.32
886.465	47.66
886.631	49.31
886.797	49.82
886.962	53.52
887.128	50.93
887.293	47.92
887.459	48.75
887.625	50.14
887.79	47.75
887.956	45.77
888.121	45.82
888.287	43.14
888.452	42.21
888.618	40.94
888.783	34.76
