Data from CB_006_Reflection_3.txt Node
Date: Wed Nov 11 18:28:20 EST 2015
User: robert
Spectrometer: USB4E03001
Autoset integration time: false
Trigger mode: 4
Integration Time (sec): 1.000000E-1
Scans to average: 15
Electric dark correction enabled: true
Nonlinearity correction enabled: false
Boxcar width: 5
Stray light correction enabled: false
XAxis mode: Wavelengths
Stop averaging: false
Number of Pixels in Spectrum: 3648
>>>>>Begin Spectral Data<<<<<
177.566	-15.33
177.785	-137.14
178.005	-51.66
178.225	-1596.69
178.445	291.33
178.665	434.09
178.885	58.75
179.105	316.33
179.324	242.94
179.544	-52.35
179.764	20.64
179.984	-32.61
180.204	212.21
180.423	-43.61
180.643	-322.6
180.863	791.67
181.083	3457.02
181.302	578.56
181.522	-832.04
181.742	-220.47
181.961	343.34
182.181	204.34
182.401	216.12
182.621	1036.11
182.84	239.96
183.06	255.15
183.279	278.87
183.499	635.06
183.719	517.08
183.938	402.85
184.158	958.9
184.377	-1165.99
184.597	-301.45
184.816	-205.23
185.036	-476.53
185.256	-61.52
185.475	259.15
185.695	-5988.51
185.914	240.77
186.134	134.48
186.353	168.73
186.572	167.26
186.792	145.22
187.011	16.34
187.231	15.18
187.45	27.26
187.67	57.83
187.889	821.84
188.108	289.98
188.328	382.18
188.547	-263.92
188.766	-456.9
188.986	291.55
189.205	-20727.27
189.424	702.3
189.644	5014.88
189.863	252.42
190.082	201.83
190.302	130.16
190.521	78.51
190.74	73.43
190.959	66.48
191.178	53.14
191.398	49.33
191.617	31.72
191.836	32.75
192.055	46.96
192.274	31.45
192.494	53.43
192.713	62.5
192.932	67.7
193.151	73
193.37	79.62
193.589	94.47
193.808	116.21
194.027	137.36
194.246	187.68
194.465	170.93
194.685	154.4
194.904	177.44
195.123	455.38
195.342	1529.6
195.561	226.53
195.78	230.18
195.999	199.11
196.218	719.44
196.436	-298.74
196.655	-512.39
196.874	369.77
197.093	598.71
197.312	414.83
197.531	32.32
197.75	-13.63
197.969	-2.33
198.188	49.97
198.407	59.41
198.625	15.66
198.844	81.71
199.063	-60.08
199.282	-51.52
199.501	65.78
199.719	16.65
199.938	-1430.86
200.157	225.67
200.376	178.21
200.594	450.99
200.813	-13882.86
201.032	701.45
201.251	155.29
201.469	129.47
201.688	89.21
201.907	80.87
202.125	23.8
202.344	35.54
202.563	28.64
202.781	28.44
203	-4.04
203.218	-16.53
203.437	-2.27
203.656	-33.54
203.874	-19.94
204.093	-5.41
204.311	-2.3
204.53	14.01
204.748	-22.34
204.967	-36.24
205.185	-26.62
205.404	8.55
205.622	40.3
205.841	28.96
206.059	57.08
206.278	53.28
206.496	-29.78
206.715	34.16
206.933	44.65
207.151	95.94
207.37	69.4
207.588	144.38
207.806	174.99
208.025	135.76
208.243	205.16
208.461	98.97
208.68	151.43
208.898	213.55
209.116	220.2
209.335	186.43
209.553	-452.1
209.771	282.28
209.989	-1603.91
210.208	-719.95
210.426	-321.32
210.644	-5.63
210.862	5.05
211.081	40.78
211.299	29.94
211.517	0.13
211.735	-35.57
211.953	-31.6
212.171	87.33
212.39	-198.68
212.608	-1146.48
212.826	230.71
213.044	284.37
213.262	216.42
213.48	199.04
213.698	222.68
213.916	-1041.1
214.134	-237.5
214.352	-452.42
214.57	560.06
214.788	135.97
215.006	123.34
215.224	96.08
215.442	46
215.66	49.22
215.878	75.05
216.096	101.41
216.314	67.96
216.532	78.54
216.75	73.94
216.968	71.38
217.185	84.7
217.403	97.57
217.621	74.83
217.839	116.85
218.057	1906.03
218.275	-464.44
218.492	4.64
218.71	13.41
218.928	29.13
219.146	1.69
219.363	22.57
219.581	-5.34
219.799	-0.76
220.017	-10.55
220.234	-11.23
220.452	-12.03
220.67	-37.09
220.887	-80.01
221.105	-59.6
221.323	-75.87
221.54	12.89
221.758	28.07
221.976	50.4
222.193	33.91
222.411	-2.35
222.629	25.76
222.846	24.01
223.064	59.08
223.281	51.72
223.499	53.63
223.716	44.94
223.934	-142.68
224.151	-396.46
224.369	-312.57
224.586	161450
224.804	-475.39
225.021	-192.35
225.239	-228.6
225.456	-227.56
225.674	-308.32
225.891	-98.38
226.108	-100.39
226.326	-56.2
226.543	-46.44
226.76	-39.54
226.978	-22.4
227.195	-11.42
227.413	-12.86
227.63	-11.86
227.847	-8.48
228.064	-0.39
228.282	2.68
228.499	11.57
228.716	10.96
228.934	9.31
229.151	6.93
229.368	6.28
229.585	2
229.802	4.75
230.02	5.05
230.237	5.07
230.454	4.58
230.671	3.79
230.888	-3.91
231.105	-4.15
231.323	-4.69
231.54	-0.95
231.757	1.96
231.974	5.37
232.191	2.43
232.408	3.43
232.625	-1.93
232.842	-3.73
233.059	-8.77
233.276	-3.4
233.493	-3.2
233.71	1.74
233.927	0.79
234.144	4.34
234.361	1.48
234.578	-2.61
234.795	-3.9
235.012	-5.49
235.229	-3.77
235.446	-3.59
235.663	-12.25
235.879	-10.03
236.096	-16.28
236.313	-24.28
236.53	-39.93
236.747	-27.05
236.964	-18.82
237.181	-24.76
237.397	-7.66
237.614	-2.4
237.831	-12.68
238.048	-8.21
238.264	-16.14
238.481	-12.34
238.698	-3.38
238.915	-9.92
239.131	-16.72
239.348	-23.18
239.565	-15.28
239.781	-19.37
239.998	-16.71
240.215	-11.13
240.431	-7.58
240.648	-0.85
240.865	0.12
241.081	-0.69
241.298	5.39
241.514	3.26
241.731	4.76
241.947	5.24
242.164	5.9
242.38	4.32
242.597	3.6
242.814	4.01
243.03	-0.04
243.246	0.71
243.463	0.4
243.679	0.56
243.896	2.8
244.112	2.01
244.329	1.72
244.545	0.86
244.762	0.02
244.978	3.22
245.194	0.45
245.411	3.19
245.627	0.16
245.843	1.11
246.06	3.22
246.276	4.38
246.492	4.4
246.709	4.21
246.925	3.57
247.141	4.13
247.357	3.58
247.574	4.54
247.79	5.74
248.006	6.41
248.222	6.45
248.439	4.37
248.655	3.96
248.871	4.1
249.087	4.96
249.303	5.22
249.519	4.1
249.736	3.53
249.952	2.07
250.168	-3.35
250.384	-3.68
250.6	-4.75
250.816	-5.16
251.032	-7.02
251.248	-7.64
251.464	-8.38
251.68	-10.47
251.896	-6.22
252.112	-6.54
252.328	-5.06
252.544	-1.58
252.76	-2.51
252.976	-2.05
253.192	-0.54
253.408	-1.34
253.624	-1.52
253.84	-4.55
254.056	-4.07
254.272	-6.9
254.487	-6.59
254.703	-5.61
254.919	-5.26
255.135	-5.49
255.351	-4.36
255.567	-2.49
255.782	-2.98
255.998	-0.93
256.214	1.86
256.43	3.77
256.646	4.34
256.861	2.7
257.077	-1.48
257.293	-6.85
257.508	-6.01
257.724	-5.49
257.94	-7.44
258.155	-5.92
258.371	-3.13
258.587	-2.44
258.802	-3.32
259.018	-3.49
259.234	-0.68
259.449	1.22
259.665	2.54
259.88	3.52
260.096	2.79
260.312	3.21
260.527	4.23
260.743	2.86
260.958	2.93
261.174	3.64
261.389	3.67
261.605	2.04
261.82	2.4
262.036	2.91
262.251	1.59
262.466	1.6
262.682	1.3
262.897	-1.55
263.113	-2.73
263.328	-2.63
263.543	-0.58
263.759	-0.57
263.974	0.75
264.189	-0.97
264.405	-4.12
264.62	-3.54
264.835	-2.91
265.051	-1.48
265.266	-1.36
265.481	1.72
265.696	-1.88
265.912	-4.27
266.127	-3
266.342	-3.66
266.557	-4.84
266.773	-2.81
266.988	-2.26
267.203	-2.91
267.418	-3.33
267.633	-4.38
267.848	-4.53
268.064	-2.35
268.279	-3.65
268.494	-4.59
268.709	-3.58
268.924	-1.98
269.139	-0.61
269.354	-0.41
269.569	2.18
269.784	1.05
269.999	1.77
270.214	0.98
270.429	0.35
270.644	1.56
270.859	1.28
271.074	0.11
271.289	-0.09
271.504	0.15
271.719	-2.13
271.934	-3.13
272.149	-2.27
272.363	-1.49
272.578	-0.76
272.793	1.11
273.008	1.73
273.223	1.89
273.438	2.89
273.653	3
273.867	2
274.082	2.71
274.297	3.01
274.512	3.38
274.726	4.17
274.941	3.77
275.156	2.21
275.371	0.92
275.585	0.26
275.8	-0.47
276.015	-1.75
276.229	-1.96
276.444	-0.01
276.659	-0.99
276.873	-2.51
277.088	-3.32
277.302	-3.75
277.517	-4.01
277.732	-4.38
277.946	-3.74
278.161	-3.91
278.375	-3.49
278.59	-2.78
278.804	-2.63
279.019	-2.01
279.233	0.68
279.448	0.6
279.662	0.9
279.877	0.98
280.091	3.28
280.306	4.35
280.52	5.18
280.735	4.37
280.949	5.37
281.163	5.63
281.378	4.38
281.592	3.93
281.806	4.04
282.021	3.74
282.235	3.03
282.449	1
282.664	-0.32
282.878	-1.01
283.092	-0.18
283.307	-0.8
283.521	-0.39
283.735	1.03
283.949	1.03
284.164	1.76
284.378	3.15
284.592	4.25
284.806	5.33
285.02	5.99
285.234	7.23
285.449	7.83
285.663	7.06
285.877	5.84
286.091	5.26
286.305	5.35
286.519	5.16
286.733	4.6
286.947	4.28
287.161	4.6
287.375	3.68
287.589	1.93
287.803	1.82
288.017	2.63
288.231	2.65
288.445	3.4
288.659	2.69
288.873	3.45
289.087	2.49
289.301	3.47
289.515	3.41
289.729	3.43
289.943	4.43
290.157	3.74
290.371	2.89
290.584	3.54
290.798	3.14
291.012	2.97
291.226	2.1
291.44	2.01
291.654	1.05
291.867	0.96
292.081	1.2
292.295	0.97
292.509	0.87
292.722	1.55
292.936	0.74
293.15	0.9
293.364	2.49
293.577	3.23
293.791	4.41
294.005	5.2
294.218	5.93
294.432	6.34
294.645	7.53
294.859	7.66
295.073	7.4
295.286	7.39
295.5	7.99
295.713	7.35
295.927	6.94
296.14	7.31
296.354	6.86
296.568	5.5
296.781	4.55
296.994	3.32
297.208	2.97
297.421	3.58
297.635	3.4
297.848	3.28
298.062	4.57
298.275	4.18
298.489	3.08
298.702	3.47
298.915	4.5
299.129	5.37
299.342	5.85
299.555	7.52
299.769	7.09
299.982	8.01
300.195	8.14
300.409	6.35
300.622	7.28
300.835	7.93
301.048	7.04
301.262	6.6
301.475	7.61
301.688	8.04
301.901	7.1
302.115	7.8
302.328	8.2
302.541	6.79
302.754	6.79
302.967	5.67
303.18	5.89
303.393	6.91
303.607	7.53
303.82	6.39
304.033	5.68
304.246	5.41
304.459	3.93
304.672	4.14
304.885	4.45
305.098	4.71
305.311	5.95
305.524	5.35
305.737	4.71
305.95	2.81
306.163	3.9
306.376	4.51
306.589	5.03
306.802	5.64
307.015	4.91
307.228	5.83
307.44	6.91
307.653	6.11
307.866	6.21
308.079	5.37
308.292	7.1
308.505	7.35
308.718	6.61
308.93	6.47
309.143	7.29
309.356	7.34
309.569	7.05
309.781	7.38
309.994	6.28
310.207	7.16
310.42	8.01
310.632	7.84
310.845	7.58
311.058	8.65
311.27	8.19
311.483	8.66
311.696	8.47
311.908	8.56
312.121	7.71
312.333	9.22
312.546	9.6
312.759	8.53
312.971	7.97
313.184	7.22
313.396	7.2
313.609	7.68
313.821	5.94
314.034	7.18
314.246	6.83
314.459	6.57
314.671	6.45
314.884	4.86
315.096	7.33
315.309	7.82
315.521	7.95
315.733	6.24
315.946	7.14
316.158	7.55
316.371	6.8
316.583	7.19
316.795	8.05
317.008	7.34
317.22	8.06
317.432	6.45
317.644	5.06
317.857	5.3
318.069	6.01
318.281	4.13
318.494	3.89
318.706	2.82
318.918	2.98
319.13	0.71
319.342	1.68
319.555	1.45
319.767	1.26
319.979	3.37
320.191	3.28
320.403	2
320.615	2.74
320.827	3.15
321.039	4.31
321.252	3.86
321.464	4.89
321.676	3.89
321.888	3.33
322.1	4.43
322.312	3.08
322.524	3.97
322.736	6.1
322.948	5.88
323.16	6.68
323.372	6.38
323.584	7.64
323.796	6.63
324.007	6.66
324.219	6.48
324.431	6.32
324.643	6.21
324.855	5.86
325.067	6.58
325.279	7.23
325.491	6.59
325.702	6.72
325.914	6.86
326.126	7.98
326.338	8.89
326.55	10.68
326.761	11.39
326.973	12.95
327.185	13.19
327.396	11.78
327.608	11.29
327.82	11.94
328.032	11.66
328.243	11.34
328.455	11.63
328.666	12.31
328.878	11.66
329.09	11.38
329.301	9.55
329.513	8.97
329.725	10.43
329.936	11.21
330.148	11.12
330.359	11.67
330.571	11.29
330.782	12.22
330.994	11.03
331.205	10.6
331.417	11.2
331.628	12.9
331.84	14.42
332.051	13.38
332.262	13.22
332.474	13.11
332.685	14.11
332.897	14.26
333.108	14.06
333.319	16.05
333.531	16.6
333.742	15.51
333.953	15.71
334.165	15.07
334.376	15.38
334.587	16.14
334.799	16.14
335.01	16.07
335.221	17.71
335.432	18.04
335.644	16.92
335.855	17.51
336.066	18.83
336.277	18.68
336.488	19.16
336.7	19.74
336.911	20.08
337.122	21.47
337.333	20.9
337.544	19.77
337.755	20.11
337.966	19.14
338.177	18.25
338.388	17.34
338.599	16.68
338.811	16.25
339.022	16.5
339.233	15.68
339.444	15.35
339.655	16.7
339.866	18.1
340.076	18.11
340.287	19.8
340.498	21.1
340.709	22.18
340.92	22.86
341.131	23.75
341.342	23.2
341.553	23.34
341.764	23.11
341.975	22.78
342.185	22.18
342.396	22.08
342.607	21.26
342.818	20.08
343.029	19.71
343.239	19.98
343.45	19.99
343.661	20.02
343.872	20.67
344.082	20.29
344.293	20.02
344.504	20.4
344.714	20.12
344.925	20.73
345.136	20.95
345.346	21.67
345.557	21.4
345.768	21.78
345.978	22.35
346.189	21.69
346.399	22.4
346.61	23.25
346.821	22.95
347.031	22.81
347.242	22.11
347.452	22.1
347.663	21.65
347.873	23.36
348.084	22.74
348.294	22.51
348.504	22.86
348.715	22.99
348.925	22.04
349.136	21.77
349.346	22.3
349.557	23.19
349.767	23.48
349.977	23
350.188	21.55
350.398	22.4
350.608	22.74
350.819	23.33
351.029	22.35
351.239	21.98
351.449	21.33
351.66	21.78
351.87	22.26
352.08	22.31
352.29	22.62
352.501	23.07
352.711	22.87
352.921	21.98
353.131	21.42
353.341	22.63
353.552	22.53
353.762	23.95
353.972	23.11
354.182	23.06
354.392	22.78
354.602	22.42
354.812	22.2
355.022	22
355.232	22.77
355.442	22.47
355.652	21.89
355.862	22.68
356.072	21.51
356.282	22.04
356.492	21.41
356.702	22.07
356.912	22.33
357.122	21.97
357.332	21.39
357.542	21.08
357.752	21.72
357.962	21.82
358.171	21.98
358.381	22.56
358.591	22.92
358.801	23.17
359.011	23.31
359.221	23.09
359.43	23.58
359.64	24.07
359.85	24.98
360.06	24.86
360.269	24.94
360.479	24.14
360.689	24.02
360.899	23.19
361.108	23.19
361.318	22.6
361.528	22.8
361.737	22.67
361.947	22.52
362.156	21.51
362.366	21.32
362.576	21.08
362.785	21.42
362.995	21.37
363.204	22
363.414	21.76
363.623	22.01
363.833	22.15
364.042	22.59
364.252	22.59
364.461	22.99
364.671	23.12
364.88	22.76
365.09	22.35
365.299	21.93
365.509	20.73
365.718	21.03
365.927	20.62
366.137	20.56
366.346	19.65
366.555	19.2
366.765	19.06
366.974	19.14
367.183	19.18
367.393	19.44
367.602	19.41
367.811	19.81
368.021	19.2
368.23	19.65
368.439	19.04
368.648	18.64
368.857	19.01
369.067	18.6
369.276	18.28
369.485	18.76
369.694	18.79
369.903	19.16
370.112	19.19
370.321	18.97
370.531	18.49
370.74	18.23
370.949	18.1
371.158	18.01
371.367	17.83
371.576	17.81
371.785	17.3
371.994	17.12
372.203	16.59
372.412	17
372.621	17.9
372.83	18.62
373.039	19.11
373.248	20.28
373.457	20.24
373.666	20.72
373.874	20.55
374.083	20.96
374.292	21.15
374.501	21.58
374.71	21.24
374.919	20.66
375.128	20.03
375.336	19.41
375.545	18.82
375.754	18.5
375.963	18.53
376.171	18.71
376.38	18.06
376.589	17.63
376.798	17.08
377.006	16.04
377.215	16.32
377.424	16.56
377.632	16.77
377.841	16.65
378.05	16.01
378.258	15.59
378.467	15.69
378.675	15.69
378.884	15.44
379.093	15.41
379.301	16.48
379.51	16.32
379.718	15.94
379.927	16.11
380.135	16.04
380.344	16.55
380.552	16.7
380.761	16.17
380.969	16.18
381.177	16.63
381.386	16.46
381.594	16.2
381.803	15.8
382.011	16.32
382.219	15.88
382.428	15.49
382.636	15.83
382.845	15.77
383.053	15.99
383.261	16.04
383.469	16.02
383.678	16.17
383.886	16
384.094	16.1
384.302	15.32
384.511	15.6
384.719	15.81
384.927	15.97
385.135	15.97
385.343	15.75
385.552	15.72
385.76	15.7
385.968	15.59
386.176	15.79
386.384	15.35
386.592	14.99
386.8	14.73
387.008	14.83
387.216	14.69
387.424	15.06
387.633	15.21
387.841	15.32
388.049	15.02
388.257	15.38
388.465	15.14
388.672	15.5
388.88	16.01
389.088	16.25
389.296	15.59
389.504	15.62
389.712	14.84
389.92	14.5
390.128	14.16
390.336	13.75
390.544	13.74
390.751	13.87
390.959	13.37
391.167	13.42
391.375	13.16
391.583	13.79
391.79	13.17
391.998	13.36
392.206	13.39
392.414	13.53
392.621	14.08
392.829	13.92
393.037	13.64
393.244	13.88
393.452	13.65
393.66	13.71
393.867	13.55
394.075	13.7
394.283	13.71
394.49	13.8
394.698	14.05
394.905	13.76
395.113	13.7
395.32	13.73
395.528	13.64
395.735	13.69
395.943	13.51
396.15	13.25
396.358	13.15
396.565	13.1
396.773	12.87
396.98	12.44
397.188	12.4
397.395	12.45
397.602	12.57
397.81	12.72
398.017	12.72
398.225	12.74
398.432	12.65
398.639	13.11
398.847	13.08
399.054	13.09
399.261	13.35
399.468	13.43
399.676	13.68
399.883	13.43
400.09	13.48
400.297	13.28
400.505	13.29
400.712	13.71
400.919	13.37
401.126	13.36
401.333	13.45
401.54	13.1
401.748	12.95
401.955	12.37
402.162	12.44
402.369	12.28
402.576	12.51
402.783	12.7
402.99	12.54
403.197	12.68
403.404	12.39
403.611	12.42
403.818	12.45
404.025	12.47
404.232	12.77
404.439	12.9
404.646	12.71
404.853	12.74
405.06	12.63
405.267	12.81
405.474	12.74
405.681	12.96
405.887	13.02
406.094	13.27
406.301	13.34
406.508	13.34
406.715	13.27
406.922	13.59
407.128	13.42
407.335	13.44
407.542	13.06
407.749	13.28
407.955	13.17
408.162	13.39
408.369	13.47
408.575	13.65
408.782	13.63
408.989	13.68
409.195	13.75
409.402	13.9
409.609	13.84
409.815	14.36
410.022	14.11
410.228	14.38
410.435	14.12
410.642	13.85
410.848	13.98
411.055	13.77
411.261	13.64
411.468	13.75
411.674	13.48
411.881	13.26
412.087	12.97
412.294	13.14
412.5	13.21
412.706	13.47
412.913	13.08
413.119	12.86
413.326	13.07
413.532	13.36
413.738	13.15
413.945	13.32
414.151	13.59
414.357	13.26
414.564	13.2
414.77	12.9
414.976	12.28
415.182	12.65
415.389	12.75
415.595	12.78
415.801	12.67
416.007	12.82
416.214	12.8
416.42	12.9
416.626	13.03
416.832	13.03
417.038	12.92
417.244	13.06
417.45	13.01
417.657	12.83
417.863	12.9
418.069	12.83
418.275	12.73
418.481	12.71
418.687	12.59
418.893	12.61
419.099	12.65
419.305	13.01
419.511	13.1
419.717	13.18
419.923	13.15
420.129	13.08
420.335	13.06
420.541	12.85
420.746	12.92
420.952	13.01
421.158	13.04
421.364	12.82
421.57	12.58
421.776	12.37
421.982	12.28
422.187	12.24
422.393	12.18
422.599	12.32
422.805	12.35
423.01	12.26
423.216	12
423.422	11.89
423.628	12.03
423.833	11.98
424.039	12.2
424.245	12.3
424.45	12.36
424.656	12.32
424.862	12.3
425.067	12.57
425.273	12.68
425.478	12.81
425.684	12.83
425.889	12.79
426.095	12.81
426.301	12.75
426.506	12.69
426.712	12.73
426.917	12.88
427.123	12.71
427.328	12.42
427.533	12.25
427.739	12.16
427.944	12.2
428.15	12.14
428.355	12.27
428.561	12.15
428.766	11.96
428.971	12.14
429.177	12.01
429.382	11.94
429.587	12.07
429.793	11.95
429.998	12.04
430.203	12.16
430.408	12.07
430.614	11.98
430.819	12.16
431.024	12.05
431.229	11.77
431.434	11.74
431.64	11.75
431.845	11.66
432.05	12
432.255	11.93
432.46	11.78
432.665	11.96
432.87	12.12
433.076	12.09
433.281	12.09
433.486	11.99
433.691	11.91
433.896	11.74
434.101	11.78
434.306	11.81
434.511	11.69
434.716	11.69
434.921	11.63
435.126	11.48
435.331	11.22
435.535	11.42
435.74	11.62
435.945	11.7
436.15	11.89
436.355	11.96
436.56	11.8
436.765	11.88
436.97	11.92
437.174	12.07
437.379	12.18
437.584	12.43
437.789	12.43
437.993	12.41
438.198	12.44
438.403	12.71
438.608	12.5
438.812	12.42
439.017	12.48
439.222	12.5
439.426	12.38
439.631	12.25
439.836	12.18
440.04	12.26
440.245	12.21
440.45	12.09
440.654	11.93
440.859	12
441.063	12
441.268	11.93
441.472	12.02
441.677	12.07
441.881	12.06
442.086	12.24
442.29	12.27
442.495	12.27
442.699	12.34
442.904	12.28
443.108	12.33
443.312	12.45
443.517	12.59
443.721	12.55
443.925	12.74
444.13	12.78
444.334	12.82
444.538	12.77
444.743	12.78
444.947	12.63
445.151	12.6
445.356	12.69
445.56	12.48
445.764	12.41
445.968	12.3
446.173	12.09
446.377	12.01
446.581	11.8
446.785	11.68
446.989	11.73
447.193	11.85
447.398	11.9
447.602	11.77
447.806	11.95
448.01	11.87
448.214	11.92
448.418	11.93
448.622	12.05
448.826	11.98
449.03	12.03
449.234	12.05
449.438	12
449.642	11.99
449.846	11.85
450.05	11.66
450.254	11.87
450.458	11.78
450.662	11.84
450.866	11.73
451.069	11.81
451.273	11.82
451.477	11.75
451.681	11.71
451.885	11.61
452.089	11.78
452.292	11.82
452.496	11.77
452.7	11.7
452.904	11.76
453.107	11.73
453.311	11.94
453.515	11.88
453.719	11.78
453.922	11.77
454.126	11.76
454.33	11.83
454.533	11.83
454.737	11.75
454.94	11.73
455.144	11.36
455.348	11.45
455.551	11.24
455.755	11.34
455.958	11.25
456.162	11.29
456.365	11.24
456.569	11.21
456.772	11.29
456.976	11.17
457.179	11.34
457.383	11.59
457.586	11.44
457.79	11.55
457.993	11.44
458.196	11.46
458.4	11.49
458.603	11.59
458.807	11.56
459.01	11.47
459.213	11.6
459.417	11.41
459.62	11.5
459.823	11.49
460.026	11.33
460.23	11.46
460.433	11.4
460.636	11.28
460.839	11.22
461.042	11.35
461.246	11.37
461.449	11.39
461.652	11.56
461.855	11.42
462.058	11.59
462.261	11.61
462.464	11.62
462.668	11.84
462.871	12.04
463.074	12.01
463.277	11.89
463.48	11.88
463.683	11.9
463.886	11.86
464.089	11.95
464.292	11.76
464.495	11.85
464.698	11.99
464.901	11.99
465.104	12.04
465.306	12.2
465.509	12
465.712	11.95
465.915	11.87
466.118	12.22
466.321	11.98
466.524	12.24
466.726	12.25
466.929	11.94
467.132	11.7
467.335	11.72
467.538	11.6
467.74	11.76
467.943	11.93
468.146	11.84
468.348	11.53
468.551	11.85
468.754	11.73
468.956	11.68
469.159	11.68
469.362	11.83
469.564	11.77
469.767	11.9
469.969	11.99
470.172	11.91
470.375	11.92
470.577	11.84
470.78	11.73
470.982	11.71
471.185	11.83
471.387	11.95
471.59	11.99
471.792	11.87
471.995	11.94
472.197	12.11
472.399	12.21
472.602	12.16
472.804	12.25
473.007	12.02
473.209	11.94
473.411	11.91
473.614	11.8
473.816	11.65
474.018	11.74
474.22	11.59
474.423	11.34
474.625	11.31
474.827	11.46
475.03	11.26
475.232	11.4
475.434	11.52
475.636	11.47
475.838	11.55
476.04	11.66
476.243	11.65
476.445	11.69
476.647	11.53
476.849	11.68
477.051	11.71
477.253	11.87
477.455	11.97
477.657	11.94
477.859	12.1
478.061	12.05
478.263	12.21
478.465	12.1
478.667	12.19
478.869	12.35
479.071	12.09
479.273	12.04
479.475	12
479.677	11.82
479.879	11.77
480.081	11.64
480.283	11.69
480.485	11.59
480.686	11.69
480.888	11.51
481.09	11.44
481.292	11.69
481.494	11.75
481.695	11.78
481.897	11.91
482.099	11.93
482.301	11.88
482.502	11.91
482.704	11.84
482.906	11.94
483.107	12.04
483.309	12.09
483.511	12.05
483.712	12
483.914	11.93
484.115	11.91
484.317	11.96
484.519	11.97
484.72	11.92
484.922	11.99
485.123	11.9
485.325	11.89
485.526	11.87
485.728	11.84
485.929	11.88
486.131	12
486.332	11.96
486.534	11.93
486.735	11.95
486.936	12.04
487.138	12.06
487.339	12.09
487.541	12.05
487.742	12.05
487.943	12.04
488.144	12.05
488.346	12.08
488.547	12.14
488.748	12.18
488.95	12.16
489.151	12.12
489.352	12.06
489.553	12.06
489.755	12.09
489.956	12.07
490.157	12.05
490.358	12.06
490.559	12.02
490.76	12.02
490.961	11.92
491.163	11.95
491.364	11.98
491.565	11.97
491.766	11.98
491.967	11.97
492.168	12.06
492.369	12.03
492.57	11.98
492.771	11.94
492.972	11.94
493.173	11.95
493.374	11.95
493.575	11.87
493.776	11.89
493.976	11.89
494.177	11.81
494.378	11.65
494.579	11.63
494.78	11.66
494.981	11.58
495.182	11.58
495.382	11.66
495.583	11.74
495.784	11.8
495.985	11.84
496.185	11.81
496.386	11.82
496.587	11.79
496.788	11.69
496.988	11.72
497.189	11.73
497.39	11.58
497.59	11.46
497.791	11.42
497.992	11.48
498.192	11.49
498.393	11.57
498.593	11.57
498.794	11.56
498.994	11.75
499.195	11.73
499.395	11.81
499.596	12.01
499.796	12.07
499.997	12.03
500.197	11.89
500.398	12.01
500.598	11.99
500.799	12.01
500.999	12.04
501.199	12.12
501.4	12.08
501.6	12.24
501.801	12.22
502.001	12.28
502.201	12.34
502.402	12.42
502.602	12.29
502.802	12.26
503.002	12.38
503.203	12.63
503.403	12.6
503.603	12.59
503.803	12.42
504.003	12.47
504.204	12.61
504.404	12.82
504.604	12.77
504.804	12.81
505.004	12.89
505.204	12.85
505.404	12.66
505.604	12.61
505.804	12.8
506.005	12.86
506.205	12.92
506.405	12.77
506.605	12.58
506.805	12.69
507.005	12.66
507.204	12.58
507.404	12.63
507.604	12.67
507.804	12.68
508.004	12.68
508.204	12.86
508.404	12.77
508.604	12.71
508.804	12.9
509.003	12.99
509.203	13.19
509.403	13.31
509.603	13.48
509.803	13.68
510.002	13.76
510.202	13.87
510.402	13.84
510.602	14.04
510.801	14.35
511.001	14.26
511.201	14.07
511.4	14
511.6	14.16
511.8	14.1
511.999	13.94
512.199	14.08
512.398	13.99
512.598	14.01
512.797	13.97
512.997	13.8
513.197	13.85
513.396	14.18
513.596	14.26
513.795	14.15
513.994	14.12
514.194	14.27
514.393	14.4
514.593	14.5
514.792	14.53
514.992	14.56
515.191	14.68
515.39	14.77
515.59	14.84
515.789	14.84
515.988	14.97
516.188	15.21
516.387	15.26
516.586	15.15
516.786	15.12
516.985	15.24
517.184	15.25
517.383	15.4
517.582	15.32
517.782	15.29
517.981	15.49
518.18	15.35
518.379	15.33
518.578	15.43
518.777	15.57
518.976	15.64
519.176	15.71
519.375	15.89
519.574	15.97
519.773	16.16
519.972	16.1
520.171	15.98
520.37	16.14
520.569	16.13
520.768	16.1
520.967	16.02
521.166	16.04
521.365	16.11
521.564	16.03
521.762	16.03
521.961	15.99
522.16	16.32
522.359	16.53
522.558	16.73
522.757	17.04
522.956	17.13
523.154	17.3
523.353	17.51
523.552	17.54
523.751	17.73
523.949	17.9
524.148	18.13
524.347	18.16
524.546	18.29
524.744	18.38
524.943	18.31
525.142	18.4
525.34	18.6
525.539	18.66
525.737	18.65
525.936	18.69
526.135	18.6
526.333	18.59
526.532	18.72
526.73	18.7
526.929	18.75
527.127	18.87
527.326	19.08
527.524	19.07
527.723	19.14
527.921	19.28
528.12	19.44
528.318	19.52
528.516	19.64
528.715	19.66
528.913	19.77
529.112	19.76
529.31	19.78
529.508	19.76
529.707	19.85
529.905	19.9
530.103	19.94
530.301	19.91
530.5	20.04
530.698	20.08
530.896	20.06
531.094	20.08
531.293	20.27
531.491	20.32
531.689	20.38
531.887	20.51
532.085	20.66
532.283	20.71
532.481	20.85
532.68	20.87
532.878	20.91
533.076	21.1
533.274	21.24
533.472	21.24
533.67	21.34
533.868	21.43
534.066	21.41
534.264	21.44
534.462	21.53
534.66	21.51
534.858	21.56
535.056	21.63
535.253	21.7
535.451	21.7
535.649	21.8
535.847	21.96
536.045	22.11
536.243	22.32
536.441	22.45
536.638	22.54
536.836	22.59
537.034	22.74
537.232	22.77
537.43	22.78
537.627	22.83
537.825	22.98
538.023	23.05
538.22	23.07
538.418	22.99
538.616	22.99
538.813	23.11
539.011	23.23
539.209	23.15
539.406	23.22
539.604	23.4
539.801	23.56
539.999	23.6
540.196	23.7
540.394	23.77
540.591	23.91
540.789	23.97
540.986	23.95
541.184	24.08
541.381	24.2
541.579	24.26
541.776	24.31
541.974	24.36
542.171	24.36
542.368	24.35
542.566	24.32
542.763	24.35
542.96	24.34
543.158	24.51
543.355	24.44
543.552	24.53
543.75	24.59
543.947	24.54
544.144	24.55
544.341	24.65
544.539	24.71
544.736	24.86
544.933	24.84
545.13	24.91
545.327	24.81
545.524	24.91
545.722	24.82
545.919	24.93
546.116	25.05
546.313	25.07
546.51	25.1
546.707	25.27
546.904	25.39
547.101	25.55
547.298	25.74
547.495	25.85
547.692	25.95
547.889	26.07
548.086	26.09
548.283	26.11
548.48	26.25
548.677	26.32
548.874	26.33
549.07	26.24
549.267	26.24
549.464	26.04
549.661	26.07
549.858	26.07
550.055	26.13
550.251	26.1
550.448	26.41
550.645	26.45
550.842	26.57
551.038	26.46
551.235	26.65
551.432	26.58
551.628	26.95
551.825	27.18
552.022	27.42
552.218	27.48
552.415	27.74
552.612	27.64
552.808	27.59
553.005	27.5
553.201	27.74
553.398	27.64
553.594	27.57
553.791	27.48
553.987	27.41
554.184	27.36
554.38	27.26
554.577	27.19
554.773	27.1
554.97	27.11
555.166	27.08
555.362	27.01
555.559	27.08
555.755	27.37
555.952	27.6
556.148	27.69
556.344	27.55
556.541	27.84
556.737	27.75
556.933	27.77
557.129	27.81
557.326	27.95
557.522	27.9
557.718	28.22
557.914	28.33
558.11	27.99
558.307	27.93
558.503	28.04
558.699	28.02
558.895	28.29
559.091	28.48
559.287	28.65
559.483	28.83
559.679	28.98
559.876	28.83
560.072	28.81
560.268	28.88
560.464	29.07
560.66	29.21
560.856	29.19
561.052	29.19
561.247	29.24
561.443	29.24
561.639	29.17
561.835	29.25
562.031	29.3
562.227	29.23
562.423	29.41
562.619	29.42
562.815	29.36
563.01	29.57
563.206	29.6
563.402	29.62
563.598	29.58
563.793	29.52
563.989	29.46
564.185	29.52
564.381	29.65
564.576	29.87
564.772	29.79
564.968	30.05
565.163	30.08
565.359	30.06
565.555	29.91
565.75	30.03
565.946	30.18
566.141	30.3
566.337	30.37
566.532	30.43
566.728	30.39
566.923	30.47
567.119	30.22
567.314	30.31
567.51	30.38
567.705	30.55
567.901	30.6
568.096	30.58
568.292	30.46
568.487	30.47
568.682	30.7
568.878	30.68
569.073	30.86
569.268	30.93
569.464	30.91
569.659	30.84
569.854	30.85
570.05	30.67
570.245	30.87
570.44	31.05
570.635	31.1
570.831	31.01
571.026	31.07
571.221	30.95
571.416	31.02
571.611	31.18
571.806	31.14
572.002	31.2
572.197	31.28
572.392	31.28
572.587	31.37
572.782	31.2
572.977	31.29
573.172	31.28
573.367	31.46
573.562	31.6
573.757	31.45
573.952	31.71
574.147	31.53
574.342	31.64
574.537	31.54
574.732	31.4
574.927	31.58
575.121	31.34
575.316	31.49
575.511	31.37
575.706	31.33
575.901	31.26
576.096	31.12
576.29	31.47
576.485	31.55
576.68	31.59
576.875	31.65
577.069	31.68
577.264	31.93
577.459	31.76
577.654	32.04
577.848	31.84
578.043	31.9
578.238	32
578.432	32.13
578.627	32.14
578.821	32.22
579.016	32.51
579.21	32.57
579.405	32.5
579.6	32.48
579.794	32.13
579.989	32.4
580.183	32.24
580.378	32.43
580.572	32.11
580.766	32.27
580.961	32.13
581.155	31.9
581.35	31.71
581.544	31.64
581.738	32.03
581.933	32.01
582.127	32.1
582.321	32.6
582.516	32.54
582.71	32.65
582.904	32.74
583.099	33.05
583.293	33.15
583.487	33.33
583.681	33.46
583.875	33.28
584.07	33.26
584.264	33.29
584.458	33.3
584.652	33.37
584.846	33.69
585.04	33.42
585.234	33.14
585.428	33.15
585.623	33.14
585.817	33.06
586.011	33.06
586.205	33.17
586.399	33.17
586.593	33.09
586.787	32.96
586.981	32.78
587.174	32.96
587.368	33.07
587.562	33.07
587.756	33.13
587.95	33.3
588.144	33.46
588.338	33.24
588.532	33.53
588.725	33.53
588.919	33.62
589.113	33.61
589.307	33.66
589.501	33.84
589.694	33.8
589.888	33.9
590.082	33.74
590.275	33.89
590.469	34.23
590.663	33.85
590.856	33.66
591.05	33.74
591.244	33.64
591.437	33.54
591.631	33.44
591.824	33.45
592.018	33.49
592.212	33.73
592.405	33.51
592.599	33.54
592.792	33.82
592.986	34.17
593.179	34.09
593.372	34.28
593.566	34.33
593.759	34.44
593.953	34.62
594.146	34.77
594.339	34.55
594.533	34.43
594.726	34.4
594.92	34.29
595.113	33.94
595.306	33.93
595.499	33.9
595.693	33.76
595.886	33.73
596.079	33.69
596.272	33.58
596.466	33.7
596.659	33.87
596.852	33.82
597.045	33.98
597.238	34.24
597.431	34.23
597.624	34.17
597.818	34.35
598.011	34.42
598.204	34.39
598.397	34.44
598.59	34.5
598.783	34.51
598.976	34.76
599.169	34.61
599.362	34.56
599.555	34.54
599.748	34.63
599.941	34.59
600.134	34.59
600.326	34.56
600.519	34.62
600.712	34.58
600.905	34.61
601.098	34.51
601.291	34.48
601.483	34.37
601.676	34.49
601.869	34.55
602.062	35.01
602.255	34.84
602.447	34.97
602.64	34.78
602.833	34.84
603.025	34.92
603.218	35.11
603.411	35.06
603.603	35.15
603.796	35.25
603.989	35.22
604.181	34.95
604.374	35.17
604.566	35.11
604.759	35.08
604.951	35.22
605.144	35.22
605.336	34.9
605.529	35.17
605.721	35.33
605.914	35.45
606.106	35.47
606.299	35.55
606.491	35.5
606.683	35.63
606.876	35.79
607.068	35.65
607.26	35.49
607.453	35.69
607.645	35.53
607.837	35.26
608.03	35.3
608.222	35.3
608.414	35.13
608.606	35.14
608.799	35.29
608.991	35.43
609.183	35.56
609.375	35.77
609.567	35.71
609.759	35.65
609.952	35.71
610.144	35.5
610.336	35.4
610.528	35.43
610.72	35.51
610.912	35.11
611.104	34.97
611.296	34.73
611.488	34.27
611.68	34.08
611.872	34.22
612.064	33.99
612.256	33.91
612.448	34.14
612.64	34.14
612.832	34.01
613.023	34.21
613.215	33.76
613.407	33.77
613.599	33.93
613.791	34.49
613.983	34.44
614.174	34.62
614.366	34.56
614.558	34.53
614.75	34.42
614.941	34.6
615.133	34.74
615.325	35.25
615.516	35.34
615.708	35.78
615.9	35.46
616.091	35.37
616.283	35.27
616.475	35.01
616.666	34.7
616.858	34.72
617.049	34.86
617.241	34.57
617.432	34.49
617.624	34.61
617.815	34.37
618.007	34.51
618.198	34.45
618.39	34.57
618.581	34.85
618.773	35.5
618.964	35.67
619.155	35.25
619.347	35.51
619.538	35.65
619.729	35.5
619.921	35.73
620.112	35.48
620.303	35.67
620.494	35.74
620.686	35.76
620.877	35.18
621.068	35.07
621.259	35.31
621.451	35.32
621.642	35.28
621.833	35.42
622.024	35.43
622.215	35.56
622.406	35.38
622.597	35.58
622.788	35.63
622.98	35.89
623.171	35.63
623.362	35.5
623.553	35.68
623.744	35.56
623.935	35.55
624.126	35.22
624.317	35.26
624.508	35.52
624.698	35.49
624.889	35.61
625.08	35.41
625.271	35.58
625.462	35.75
625.653	35.52
625.844	35.6
626.034	35.76
626.225	35.96
626.416	35.97
626.607	35.81
626.798	35.57
626.988	35.22
627.179	35.43
627.37	35.6
627.56	35.54
627.751	35.58
627.942	35.6
628.132	35.6
628.323	35.67
628.514	35.98
628.704	36.04
628.895	36.28
629.085	36.69
629.276	36.56
629.466	36.67
629.657	36.56
629.847	36.59
630.038	36.71
630.228	36.55
630.419	36.31
630.609	35.74
630.8	35.69
630.99	35.69
631.181	35.9
631.371	36.33
631.561	36.02
631.752	35.8
631.942	35.55
632.132	35.43
632.323	35.57
632.513	35.8
632.703	35.9
632.893	35.96
633.084	35.92
633.274	35.65
633.464	35.23
633.654	35.33
633.844	35.71
634.034	35.87
634.225	35.9
634.415	35.85
634.605	35.97
634.795	36.41
634.985	36.56
635.175	36.6
635.365	36.7
635.555	36.81
635.745	36.62
635.935	36.41
636.125	36.18
636.315	36.33
636.505	36.22
636.695	35.99
636.885	35.81
637.075	35.41
637.265	35.26
637.455	35.28
637.644	35.34
637.834	35.72
638.024	36.1
638.214	36.5
638.404	36.81
638.593	36.96
638.783	37.02
638.973	37.08
639.163	37.2
639.352	37.43
639.542	37.35
639.732	37.46
639.921	37.72
640.111	37.57
640.301	37.57
640.49	37.04
640.68	36.95
640.87	37.09
641.059	37.18
641.249	37.05
641.438	37.13
641.628	37.1
641.817	36.98
642.007	36.67
642.196	36.69
642.386	36.82
642.575	37.01
642.764	37.61
642.954	37.61
643.143	37.47
643.333	37.81
643.522	37.46
643.711	37.59
643.901	37.47
644.09	37.5
644.279	37.81
644.469	38.13
644.658	37.88
644.847	37.63
645.036	37.44
645.226	37.07
645.415	37.27
645.604	37.59
645.793	37.6
645.982	37.71
646.171	37.56
646.361	37.25
646.55	36.97
646.739	36.81
646.928	37.03
647.117	37.25
647.306	37.48
647.495	37.1
647.684	36.72
647.873	36.68
648.062	36.36
648.251	36.48
648.44	36.36
648.629	36.33
648.818	36.48
649.007	35.68
649.196	35.34
649.384	35.86
649.573	35.95
649.762	36.36
649.951	35.94
650.14	36.07
650.328	35.94
650.517	36.4
650.706	36.56
650.895	36.58
651.083	36.85
651.272	37.05
651.461	36.4
651.65	36.5
651.838	36.03
652.027	36.49
652.216	36.49
652.404	36.79
652.593	36.62
652.781	36.47
652.97	36.81
653.158	36.73
653.347	36.56
653.535	36.93
653.724	36.88
653.912	37.3
654.101	37.06
654.289	37.31
654.478	37.33
654.666	36.92
654.855	36.92
655.043	36.71
655.231	36.85
655.42	36.97
655.608	36.67
655.796	36.22
655.985	36.49
656.173	36.52
656.361	36.01
656.55	35.9
656.738	36.14
656.926	36.32
657.114	36.52
657.302	36.58
657.491	36.56
657.679	36.81
657.867	37.06
658.055	36.89
658.243	37.18
658.431	37.35
658.619	37.43
658.807	37.11
658.996	36.67
659.184	36.51
659.372	36.54
659.56	36.5
659.748	36.55
659.936	36.59
660.124	36.46
660.311	36.44
660.499	36.82
660.687	36.8
660.875	36.87
661.063	37.27
661.251	37.27
661.439	37.5
661.627	37.5
661.814	37.51
662.002	37.51
662.19	37.71
662.378	37.29
662.565	37.11
662.753	37.14
662.941	37.54
663.129	37.45
663.316	37.22
663.504	37
663.692	37.13
663.879	37.34
664.067	37.26
664.254	37.07
664.442	37.34
664.63	37.83
664.817	37.86
665.005	37.75
665.192	37.52
665.38	37.55
665.567	37.47
665.755	36.87
665.942	36.54
666.13	36.68
666.317	37.05
666.504	37.28
666.692	36.65
666.879	36.55
667.067	36.36
667.254	36.33
667.441	36.45
667.629	36.27
667.816	36.84
668.003	37.01
668.19	37.44
668.378	37.32
668.565	37.29
668.752	37.5
668.939	37.92
669.127	38.39
669.314	38.49
669.501	38.72
669.688	38.61
669.875	38.66
670.062	38.45
670.249	38.45
670.436	38.17
670.623	38.18
670.81	37.65
670.997	37.14
671.184	36.56
671.371	36.66
671.558	36.57
671.745	36.6
671.932	36.5
672.119	36.66
672.306	36.6
672.493	36.26
672.68	36.02
672.867	36.36
673.054	36.3
673.24	36.37
673.427	36.02
673.614	35.87
673.801	36.14
673.988	36.3
674.174	36.25
674.361	36.03
674.548	36.48
674.734	36.69
674.921	36.52
675.108	36.51
675.294	36.86
675.481	37.01
675.668	37.29
675.854	37.24
676.041	37.13
676.227	37.47
676.414	37.27
676.601	37.25
676.787	36.86
676.974	37.15
677.16	37.01
677.347	36.78
677.533	36.82
677.719	37.04
677.906	37.43
678.092	37.25
678.279	37
678.465	37.25
678.651	37.77
678.838	38.02
679.024	37.95
679.21	38.4
679.397	38.39
679.583	38.89
679.769	38.82
679.955	38.31
680.142	38.46
680.328	38.04
680.514	37.64
680.7	37.44
680.886	37.18
681.073	37.05
681.259	36.92
681.445	37.18
681.631	36.96
681.817	36.93
682.003	37.11
682.189	37.13
682.375	37.53
682.561	37.54
682.747	37.3
682.933	37.61
683.119	37.74
683.305	37.44
683.491	37.37
683.677	37.37
683.863	37.06
684.049	37.2
684.235	37.05
684.42	37.23
684.606	37.06
684.792	37.38
684.978	37.52
685.164	37.11
685.349	37.45
685.535	37.49
685.721	37.15
685.907	37.26
686.092	37.29
686.278	37.66
686.464	37.43
686.649	38.01
686.835	37.43
687.021	37.67
687.206	37.81
687.392	37.53
687.577	37.36
687.763	37.66
687.948	37.72
688.134	37.46
688.319	37.13
688.505	37.2
688.69	37.32
688.876	37.57
689.061	37.06
689.247	37.57
689.432	37.6
689.618	37.9
689.803	37.52
689.988	37.43
690.174	37.12
690.359	37.41
690.544	37.44
690.73	37.54
690.915	37.77
691.1	38.09
691.285	37.95
691.471	37.67
691.656	37.88
691.841	38.54
692.026	38.56
692.211	38.46
692.396	37.91
692.582	37.94
692.767	37.58
692.952	36.94
693.137	36.88
693.322	37.17
693.507	37.83
693.692	37.16
693.877	36.63
694.062	36.17
694.247	36.86
694.432	37.22
694.617	37.55
694.802	37.87
694.987	38.03
695.172	38.18
695.357	37.72
695.541	37.4
695.726	37.5
695.911	37.47
696.096	38.22
696.281	38.09
696.466	38.26
696.65	38.14
696.835	38.54
697.02	38.51
697.204	38.57
697.389	38.45
697.574	38.71
697.759	38.92
697.943	38.81
698.128	38.56
698.312	39.13
698.497	38.86
698.682	38.5
698.866	38.12
699.051	38.36
699.235	38.22
699.42	38.74
699.604	38.62
699.789	38.48
699.973	38.39
700.158	38.36
700.342	37.93
700.527	38.12
700.711	38.53
700.895	38.28
701.08	38.28
701.264	38.45
701.448	38.13
701.633	38.1
701.817	38.45
702.001	38.78
702.186	38.76
702.37	38.41
702.554	38.5
702.738	38.33
702.923	38.65
703.107	38.76
703.291	38.73
703.475	38.8
703.659	38.83
703.843	38.29
704.027	38.03
704.212	38.05
704.396	38.61
704.58	38.41
704.764	37.84
704.948	37.68
705.132	37.62
705.316	37.41
705.5	37.49
705.684	37.32
705.868	37.72
706.052	38.17
706.235	38.46
706.419	38.5
706.603	38.64
706.787	39.28
706.971	39.21
707.155	38.85
707.339	39.05
707.522	38.65
707.706	39.62
707.89	39.5
708.074	39.27
708.257	38.47
708.441	38.43
708.625	37.92
708.808	37.78
708.992	37.74
709.176	38.35
709.359	38.53
709.543	38.04
709.727	37.3
709.91	37.28
710.094	38.02
710.277	38.19
710.461	38.62
710.644	38.97
710.828	38.76
711.011	39.69
711.195	39.23
711.378	38.95
711.562	38.84
711.745	38.63
711.928	38.13
712.112	38.05
712.295	38.5
712.478	38.25
712.662	38.48
712.845	38.48
713.028	37.69
713.212	37.14
713.395	37.16
713.578	37.77
713.761	37.49
713.945	37.8
714.128	37.23
714.311	37.37
714.494	36.73
714.677	36.42
714.86	36.73
715.043	37.21
715.227	37.26
715.41	36.9
715.593	36.83
715.776	37.71
715.959	37.87
716.142	37.96
716.325	38.02
716.508	38.37
716.691	38.75
716.874	38.07
717.057	37.41
717.239	37.99
717.422	38.15
717.605	38.23
717.788	38.16
717.971	39.13
718.154	38.99
718.337	38.52
718.519	38.99
718.702	38.41
718.885	38.35
719.068	38.35
719.25	38.06
719.433	37.47
719.616	37.19
719.798	35.85
719.981	34.94
720.164	34.52
720.346	34.17
720.529	33.39
720.712	33.94
720.894	34.62
721.077	34.74
721.259	34.53
721.442	35.52
721.624	36.12
721.807	37.8
721.989	37.24
722.172	38.25
722.354	38.27
722.537	38.56
722.719	38.48
722.901	39.16
723.084	38.96
723.266	39.51
723.448	39.13
723.631	37.68
723.813	36.5
723.995	36.6
724.178	36.78
724.36	37.53
724.542	37.61
724.724	37.37
724.907	36.15
725.089	37.06
725.271	36.34
725.453	36.79
725.635	38.61
725.817	39
725.999	39.23
726.181	39.17
726.364	39.04
726.546	38.56
726.728	36.89
726.91	37.71
727.092	37.46
727.274	37.56
727.456	37.7
727.638	37.43
727.819	37.81
728.001	37.15
728.183	36.54
728.365	36.58
728.547	36.91
728.729	38.63
728.911	38.17
729.093	37.38
729.274	38.37
729.456	37.81
729.638	37.6
729.82	37.89
730.001	38.23
730.183	38.2
730.365	38.09
730.546	38.54
730.728	38.7
730.91	38.89
731.091	38.87
731.273	38.15
731.455	37.93
731.636	37.53
731.818	37.19
731.999	36.54
732.181	36.97
732.362	36.81
732.544	36.4
732.725	36.54
732.907	37.01
733.088	37.77
733.27	38.32
733.451	38.45
733.633	38.84
733.814	38.45
733.995	39.33
734.177	38.87
734.358	39.14
734.539	38.46
734.721	38.84
734.902	38.6
735.083	38.26
735.264	38.46
735.446	38.85
735.627	38.57
735.808	39.23
735.989	39.32
736.17	39.38
736.351	39.68
736.533	40.46
736.714	39.79
736.895	39.37
737.076	39.76
737.257	38.88
737.438	38.28
737.619	37.8
737.8	37.25
737.981	37.44
738.162	37.84
738.343	37.63
738.524	37.32
738.705	36.26
738.886	37.04
739.067	35.68
739.247	35.97
739.428	35.96
739.609	36.2
739.79	36.43
739.971	36.59
740.151	35.84
740.332	35.6
740.513	35.91
740.694	36.31
740.874	35
741.055	35.77
741.236	36.18
741.417	36.69
741.597	37.07
741.778	37.36
741.958	37.65
742.139	37.77
742.32	37.79
742.5	39.37
742.681	39.83
742.861	39.02
743.042	39.36
743.222	37.71
743.403	37.63
743.583	38.26
743.764	37.27
743.944	36.65
744.124	36.98
744.305	37.3
744.485	35.59
744.666	34.66
744.846	35.57
745.026	36.37
745.207	38.25
745.387	38.68
745.567	37.63
745.747	39.29
745.928	39.94
746.108	39.67
746.288	38.58
746.468	38.85
746.648	39.97
746.829	40.4
747.009	40.19
747.189	40.26
747.369	39.98
747.549	40.7
747.729	40.33
747.909	39.65
748.089	39.11
748.269	40.38
748.449	40.22
748.629	40.12
748.809	40.41
748.989	40.1
749.169	40.92
749.349	39.43
749.529	39.98
749.709	40.11
749.889	40.32
750.068	41.24
750.248	41.09
750.428	40.11
750.608	39.89
750.788	40.36
750.967	39.7
751.147	37.85
751.327	38.27
751.507	37.37
751.686	36.21
751.866	35.9
752.046	35.78
752.225	36.27
752.405	36.26
752.585	36.99
752.764	36.61
752.944	38.25
753.123	38.57
753.303	38.98
753.482	38.27
753.662	37.99
753.841	37.63
754.021	36.64
754.2	37.04
754.38	37.23
754.559	37.22
754.739	37.31
754.918	35.07
755.097	35.81
755.277	35.18
755.456	37.35
755.635	38.63
755.815	38.43
755.994	39.4
756.173	38.14
756.352	39.29
756.532	38.51
756.711	38.33
756.89	39.73
757.069	40.18
757.248	41.18
757.427	40.29
757.607	38.79
757.786	39.45
757.965	39.85
758.144	39.24
758.323	38.97
758.502	39.74
758.681	40.69
758.86	40.44
759.039	39.63
759.218	39.8
759.397	40.2
759.576	40.18
759.755	39.85
759.934	40.06
760.113	40.56
760.291	40.85
760.47	40.52
760.649	39.79
760.828	38.93
761.007	39.83
761.186	40.08
761.364	39.56
761.543	40.9
761.722	40.91
761.901	40.23
762.079	40.53
762.258	40.42
762.437	40.95
762.615	41.26
762.794	42.37
762.972	41.24
763.151	40.68
763.33	40.4
763.508	40.43
763.687	41.79
763.865	41.32
764.044	41.29
764.222	41.31
764.401	41.21
764.579	41.02
764.758	40.51
764.936	40.5
765.114	40.63
765.293	40.38
765.471	40.34
765.65	39.03
765.828	39.63
766.006	39.8
766.184	38.7
766.363	37.69
766.541	37.44
766.719	37.85
766.898	37.73
767.076	38.56
767.254	38.14
767.432	38
767.61	37.78
767.788	36.99
767.967	35.82
768.145	36.92
768.323	36.87
768.501	35.58
768.679	35.95
768.857	36.71
769.035	35.66
769.213	36.02
769.391	35.98
769.569	37.6
769.747	37.47
769.925	40.07
770.103	39.62
770.281	39.84
770.459	41.15
770.636	40.17
770.814	39.54
770.992	40
771.17	41.01
771.348	40.43
771.525	38.09
771.703	39.38
771.881	36.51
772.059	35.44
772.236	37.34
772.414	38.34
772.592	37.64
772.769	38.39
772.947	38.03
773.125	36.44
773.302	36.54
773.48	37.94
773.657	38.14
773.835	39.11
774.013	38.69
774.19	37.53
774.368	36.26
774.545	35.85
774.723	36.45
774.9	36.85
775.077	37.99
775.255	37.74
775.432	35.54
775.61	36.37
775.787	36.24
775.964	38.05
776.142	36.21
776.319	35.71
776.496	38.36
776.674	38.05
776.851	36.99
777.028	37.4
777.205	38.03
777.382	40.31
777.56	37.55
777.737	36.51
777.914	35.98
778.091	37.82
778.268	36.94
778.445	33.85
778.622	32.55
778.8	32.68
778.977	33.21
779.154	37.5
779.331	36.82
779.508	39.13
779.685	41.12
779.862	42.56
780.038	42.19
780.215	40.61
780.392	42.75
780.569	43.18
780.746	44.19
780.923	43.31
781.1	36.68
781.277	37.54
781.453	35.94
781.63	34.18
781.807	33.9
781.984	33.88
782.16	35.35
782.337	33.53
782.514	32.59
782.691	34.03
782.867	34.81
783.044	36.54
783.221	35.32
783.397	35.59
783.574	36.71
783.75	35.54
783.927	34.09
784.103	34.13
784.28	34.63
784.456	37.99
784.633	37.9
784.809	37.65
784.986	37.63
785.162	37.07
785.339	36.19
785.515	34.66
785.692	36.73
785.868	37.04
786.044	38.49
786.221	38.58
786.397	36.78
786.573	34.26
786.749	33.61
786.926	34.2
787.102	35.73
787.278	36.82
787.454	36.03
787.631	35.7
787.807	38.08
787.983	39.29
788.159	40.99
788.335	40.5
788.511	41.9
788.687	42.68
788.863	42.1
789.039	39.46
789.216	40.12
789.392	42.59
789.568	39.91
789.744	38.54
789.919	38.19
790.095	36.97
790.271	37.26
790.447	37.05
790.623	38.48
790.799	38.26
790.975	40.58
791.151	38.49
791.327	38.31
791.502	41.86
791.678	44.28
791.854	41.67
792.03	41.8
792.205	41.17
792.381	39.64
792.557	37.59
792.733	38.92
792.908	38.62
793.084	39.02
793.259	37.19
793.435	32.96
793.611	31.16
793.786	31.93
793.962	31.85
794.137	31.76
794.313	29.86
794.488	28.87
794.664	27
794.839	26.68
795.015	27
795.19	30.57
795.366	33.74
795.541	32.73
795.716	33.86
795.892	33.54
796.067	33.62
796.242	34.36
796.418	32.87
796.593	34.24
796.768	33.78
796.944	35.26
797.119	33.29
797.294	32.78
797.469	32.08
797.644	33.78
797.82	35.11
797.995	35.51
798.17	36.73
798.345	38.49
798.52	37.96
798.695	38.57
798.87	38.38
799.045	38.24
799.22	38.13
799.395	38.74
799.57	38.2
799.745	35.61
799.92	34.92
800.095	34.6
800.27	34.27
800.445	35.3
800.62	35.29
800.795	33.45
800.97	33.28
801.145	31.74
801.319	31.1
801.494	29.33
801.669	30.46
801.844	30.81
802.018	29.94
802.193	28.25
802.368	28.52
802.543	25.85
802.717	29.26
802.892	28.42
803.067	29.63
803.241	31.29
803.416	31.99
803.59	30.28
803.765	28.94
803.94	29.08
804.114	32.99
804.289	28.88
804.463	34.79
804.638	32.98
804.812	33.11
804.986	31.92
805.161	31.68
805.335	31.51
805.51	34.15
805.684	34.1
805.858	35.54
806.033	33.48
806.207	36.27
806.381	32.15
806.556	31.56
806.73	34.44
806.904	33.32
807.078	33.8
807.253	32.14
807.427	31.43
807.601	33.16
807.775	34.72
807.949	33.76
808.123	34.51
808.298	32.75
808.472	33.35
808.646	30.35
808.82	31.5
808.994	29.56
809.168	30.28
809.342	32.8
809.516	31.77
809.69	27.22
809.864	29.33
810.038	28.46
810.212	33.36
810.385	32.45
810.559	32.27
810.733	36.63
810.907	38.27
811.081	36.74
811.255	31.79
811.428	32.24
811.602	36.34
811.776	37.89
811.95	35.09
812.123	32.58
812.297	33.53
812.471	37.52
812.644	37.83
812.818	38.21
812.992	42.1
813.165	45.02
813.339	49.62
813.512	50.19
813.686	50.59
813.86	52.99
814.033	53.52
814.207	53.31
814.38	54.03
814.554	49.26
814.727	48.74
814.9	47.21
815.074	45.95
815.247	43.17
815.421	42.04
815.594	39.6
815.767	40.39
815.941	36.67
816.114	38.76
816.287	31.25
816.46	31.69
816.634	31.52
816.807	33.08
816.98	34.16
817.153	34.83
817.327	32.34
817.5	33.62
817.673	37.69
817.846	40.41
818.019	38.88
818.192	43.16
818.365	45.45
818.538	45.52
818.711	44.47
818.884	46.59
819.057	44.98
819.23	44.88
819.403	42.37
819.576	40.55
819.749	42.32
819.922	41.63
820.095	41.42
820.268	38.71
820.441	42.01
820.614	42.98
820.786	41.7
820.959	42.44
821.132	42.28
821.305	41.07
821.477	39.98
821.65	39.35
821.823	39.88
821.996	40.49
822.168	40.73
822.341	40.45
822.514	40.78
822.686	40.65
822.859	40.05
823.031	41.03
823.204	41.39
823.376	41.89
823.549	42.54
823.722	42.16
823.894	41.6
824.067	41.12
824.239	40.98
824.411	40.64
824.584	40.83
824.756	41.33
824.929	41.07
825.101	41.2
825.273	41.01
825.446	39.93
825.618	39.96
825.79	40.06
825.963	40.85
826.135	40.54
826.307	41.12
826.479	40.99
826.652	40.55
826.824	40.53
826.996	40.23
827.168	40.3
827.34	40.75
827.512	42
827.684	42.21
827.856	42.31
828.029	42.74
828.201	42.12
828.373	41.53
828.545	42.48
828.717	43.42
828.889	44.35
829.061	44.31
829.232	44.55
829.404	43.79
829.576	41.98
829.748	40.91
829.92	39.65
830.092	39.56
830.264	40.46
830.436	39.23
830.607	37.19
830.779	37.47
830.951	37.52
831.123	35.35
831.294	35.66
831.466	36.9
831.638	37.63
831.809	37.78
831.981	35.87
832.153	36.69
832.324	39.35
832.496	37.7
832.667	34.73
832.839	33.03
833.011	35.28
833.182	35.18
833.354	37.77
833.525	39.18
833.697	39.1
833.868	41.42
834.039	41.82
834.211	42.74
834.382	41.14
834.554	42.7
834.725	43.51
834.896	42.19
835.068	42.1
835.239	41.91
835.41	42.28
835.581	42.95
835.753	40.67
835.924	39.02
836.095	36.55
836.266	37.7
836.438	36.91
836.609	35.17
836.78	35.95
836.951	33.59
837.122	31.79
837.293	28.76
837.464	26.45
837.635	27.97
837.806	27.51
837.977	27.58
838.148	28.15
838.319	29.51
838.49	31.6
838.661	31.28
838.832	35.94
839.003	38.98
839.174	37.91
839.345	37.29
839.516	38.16
839.687	39.86
839.857	38.1
840.028	40.58
840.199	37.56
840.37	36.31
840.54	38.04
840.711	32.81
840.882	30.87
841.053	34.3
841.223	30.41
841.394	25.29
841.564	22.37
841.735	20.07
841.906	17.3
842.076	15.48
842.247	17.44
842.417	14.29
842.588	9.84
842.758	9.21
842.929	10.52
843.099	21.77
843.27	25.94
843.44	25.25
843.611	30.32
843.781	28.39
843.951	34.46
844.122	32.78
844.292	36.95
844.462	43.53
844.633	46.54
844.803	44.95
844.973	40.13
845.144	42
845.314	48.62
845.484	50.61
845.654	51.1
845.824	42.29
845.995	50.14
846.165	43.98
846.335	51.85
846.505	41.85
846.675	31.01
846.845	36.85
847.015	32.56
847.185	33.18
847.355	29.08
847.525	20.09
847.695	19.65
847.865	19.22
848.035	19.82
848.205	7.16
848.375	17.72
848.545	17.81
848.715	19.73
848.884	25.1
849.054	11.72
849.224	-0.77
849.394	18.68
849.564	39.11
849.733	37.33
849.903	52.11
850.073	42.49
850.243	37.5
850.412	42.43
850.582	48.02
850.752	42.18
850.921	59.63
851.091	66.59
851.26	62.97
851.43	38.03
851.599	34.97
851.769	12.82
851.939	21.81
852.108	15.41
852.278	26.54
852.447	17.19
852.616	28.9
852.786	17.97
852.955	19.88
853.125	20.55
853.294	24.66
853.463	9.4
853.633	-0.53
853.802	7.41
853.971	13.6
854.141	4.49
854.31	19.14
854.479	16.34
854.648	25.55
854.818	19.84
854.987	22.11
855.156	21.12
855.325	28.29
855.494	43.95
855.663	43.64
855.832	40.7
856.001	44.67
856.171	36.18
856.34	37.59
856.509	32.36
856.678	39.58
856.847	40.08
857.016	60.73
857.185	64.35
857.353	55.39
857.522	50.47
857.691	44.12
857.86	54.02
858.029	67.74
858.198	57.85
858.367	51.16
858.535	47.4
858.704	42.95
858.873	24.66
859.042	-6.09
859.21	-4.62
859.379	0.79
859.548	1.98
859.717	-10.64
859.885	-22.46
860.054	-8.32
860.222	2.58
860.391	20.62
860.56	-0.99
860.728	-3.21
860.897	18.41
861.065	14.03
861.234	-1.6
861.402	3.12
861.571	6.17
861.739	-8.11
861.908	-26.68
862.076	-44.67
862.244	-31.02
862.413	-5.46
862.581	-9.55
862.749	-4.76
862.918	-5.34
863.086	17.78
863.254	22.13
863.423	0.63
863.591	19.97
863.759	13.13
863.927	52.96
864.096	51.7
864.264	14.5
864.432	14.2
864.6	-19.06
864.768	-26.67
864.936	-33.26
865.104	-33.2
865.272	-24.01
865.44	-40.01
865.608	-12.51
865.776	-42.2
865.944	-51.11
866.112	-29.35
866.28	-7.08
866.448	0.43
866.616	25.44
866.784	35.04
866.952	32.95
867.12	15.98
867.288	18.95
867.455	21.09
867.623	24.9
867.791	58.54
867.959	56.23
868.127	44.45
868.294	51.95
868.462	42.25
868.63	42.39
868.797	40.01
868.965	45.24
869.133	37.49
869.3	28.71
869.468	34.25
869.636	24.65
869.803	31.03
869.971	44.62
870.138	51.94
870.306	41.75
870.473	46.91
870.641	42.84
870.808	47.31
870.975	56.46
871.143	58.4
871.31	30.18
871.478	29.22
871.645	8.23
871.812	-3.68
871.98	-24.94
872.147	-34.34
872.314	-28.45
872.482	-7.55
872.649	-10.13
872.816	6.38
872.983	19.69
873.15	37.29
873.318	27.43
873.485	28.18
873.652	23.97
873.819	34.6
873.986	32.76
874.153	36.23
874.32	29.39
874.487	23.74
874.654	25.55
874.821	1.74
874.988	12.2
875.155	22.32
875.322	25.44
875.489	23.69
875.656	27.18
875.823	35.32
875.99	33.33
876.157	37.82
876.324	44.45
876.49	39.57
876.657	53
876.824	49.84
876.991	34.77
877.157	46.59
877.324	50.74
877.491	50.5
877.658	54.38
877.824	56.19
877.991	57.93
878.157	39.39
878.324	37.81
878.491	20.14
878.657	32.26
878.824	64.7
878.99	54.29
879.157	54.24
879.323	44.4
879.49	44.47
879.656	43.1
879.823	33.67
879.989	42.16
880.156	31.57
880.322	41.79
880.488	38.19
880.655	36.52
880.821	39.29
880.987	40.28
881.154	39.47
881.32	38.16
881.486	37.76
881.652	46.1
881.819	43.97
881.985	48.62
882.151	47.36
882.317	49.08
882.483	47.42
882.649	43.05
882.816	41.46
882.982	42.26
883.148	42.09
883.314	39.32
883.48	38.34
883.646	40.84
883.812	40.21
883.978	38.72
884.144	37.41
884.31	38.22
884.476	41.02
884.642	40.69
884.807	40.23
884.973	40.25
885.139	42.82
885.305	40.08
885.471	36.26
885.637	38.02
885.802	36.28
885.968	36.06
886.134	34.37
886.3	33.38
886.465	35.44
886.631	38.4
886.797	41.52
886.962	38.61
887.128	41.3
887.293	43.69
887.459	39.69
887.625	42.37
887.79	37.72
887.956	37.28
888.121	33.7
888.287	29.88
888.452	20.7
888.618	5.65
888.783	6.61
