Data from CB_039_Reflection_21-47-01-392.txt Node
Date: Wed Nov 11 21:47:01 EST 2015
User: robert
Spectrometer: USB4E03001
Autoset integration time: false
Trigger mode: 4
Integration Time (sec): 1.000000E-1
Scans to average: 15
Electric dark correction enabled: true
Nonlinearity correction enabled: false
Boxcar width: 5
Stray light correction enabled: false
XAxis mode: Wavelengths
Stop averaging: false
Number of Pixels in Spectrum: 3648
>>>>>Begin Spectral Data<<<<<
177.566	81.11
177.785	-490.79
178.005	-14.06
178.225	-279.86
178.445	63.93
178.665	22.52
178.885	182.56
179.105	-23.06
179.324	-45.65
179.544	61.75
179.764	105.24
179.984	39.44
180.204	-13.4
180.423	-10.67
180.643	2.31
180.863	22.48
181.083	14.8
181.302	13.3
181.522	12.11
181.742	37.88
181.961	30.28
182.181	34.95
182.401	46.67
182.621	59.5
182.84	52.04
183.06	65.82
183.279	58.63
183.499	56.68
183.719	55.22
183.938	55.25
184.158	39.62
184.377	42.62
184.597	49.19
184.816	56.03
185.036	54.47
185.256	56.19
185.475	49.44
185.695	39.8
185.914	56.86
186.134	80.98
186.353	100.16
186.572	68.64
186.792	79.61
187.011	38.99
187.231	21.28
187.45	44.17
187.67	59.68
187.889	11.91
188.108	15.14
188.328	11.76
188.547	10.26
188.766	-3.32
188.986	-2.49
189.205	-16.68
189.424	-7.87
189.644	-8.32
189.863	-1.33
190.082	-2.3
190.302	10.89
190.521	41.64
190.74	38.76
190.959	31.11
191.178	33.41
191.398	36.01
191.617	47.89
191.836	56.28
192.055	48.3
192.274	38.79
192.494	33.25
192.713	54.1
192.932	49.25
193.151	51.82
193.37	60.81
193.589	87.07
193.808	67.29
194.027	61.29
194.246	67.88
194.465	58.68
194.685	66.92
194.904	59.23
195.123	40.55
195.342	16.84
195.561	19.69
195.78	14.57
195.999	11.64
196.218	15.37
196.436	20.35
196.655	-0.44
196.874	20.02
197.093	51.1
197.312	78.32
197.531	92.11
197.75	96.68
197.969	115.6
198.188	84.48
198.407	70.76
198.625	65.64
198.844	63.77
199.063	64.43
199.282	37.49
199.501	10.51
199.719	-18.37
199.938	4.17
200.157	-21.81
200.376	-3.66
200.594	34.01
200.813	21.95
201.032	31.55
201.251	40.23
201.469	34.98
201.688	54.71
201.907	51.42
202.125	39.4
202.344	29.34
202.563	27.28
202.781	19.73
203	9.57
203.218	13.45
203.437	20.34
203.656	29.72
203.874	28.42
204.093	23.8
204.311	18.38
204.53	1.13
204.748	10.44
204.967	19.72
205.185	7.42
205.404	1.53
205.622	15.79
205.841	12.87
206.059	-17.19
206.278	6.92
206.496	9.9
206.715	18.35
206.933	37.97
207.151	35.68
207.37	32.08
207.588	40.02
207.806	44.6
208.025	47.39
208.243	56.43
208.461	70.92
208.68	61.91
208.898	78.77
209.116	78.09
209.335	76.58
209.553	86.75
209.771	97.89
209.989	86.39
210.208	87.06
210.426	82.79
210.644	82.82
210.862	64.81
211.081	71.38
211.299	53.61
211.517	81.04
211.735	64.69
211.953	65.49
212.171	54.48
212.39	67.05
212.608	70.16
212.826	65
213.044	74.17
213.262	61.97
213.48	51.54
213.698	67.44
213.916	63.09
214.134	79.18
214.352	57.12
214.57	55.28
214.788	54.06
215.006	30.29
215.224	6.23
215.442	-20.28
215.66	-2.9
215.878	2.34
216.096	2.57
216.314	-31.9
216.532	-26.98
216.75	8.12
216.968	38.43
217.185	35.16
217.403	48.44
217.621	50.92
217.839	43.52
218.057	49.06
218.275	57.87
218.492	70.65
218.71	77.83
218.928	76.99
219.146	73.25
219.363	64.74
219.581	74.19
219.799	75.3
220.017	101.86
220.234	91.02
220.452	92.31
220.67	79.09
220.887	62.84
221.105	57.36
221.323	22.48
221.54	41.31
221.758	48.79
221.976	56.4
222.193	49.63
222.411	45.07
222.629	53.97
222.846	35.54
223.064	29.51
223.281	31.11
223.499	42.32
223.716	50.6
223.934	41.66
224.151	27.75
224.369	18.93
224.586	11.69
224.804	17.95
225.021	14.16
225.239	43.19
225.456	56.59
225.674	52.56
225.891	43.67
226.108	42.39
226.326	37.03
226.543	35.99
226.76	34.29
226.978	27.77
227.195	27.23
227.413	22.96
227.63	21.06
227.847	18.27
228.064	18.46
228.282	16.5
228.499	19.29
228.716	19.32
228.934	16.79
229.151	14.35
229.368	17.39
229.585	17.3
229.802	16.58
230.02	14.96
230.237	12.63
230.454	11.71
230.671	11.1
230.888	5.99
231.105	5.4
231.323	10.21
231.54	14.7
231.757	8.9
231.974	5.62
232.191	6.07
232.408	8.14
232.625	9.96
232.842	12.36
233.059	10.26
233.276	16.3
233.493	18.37
233.71	19.28
233.927	16.64
234.144	19.53
234.361	20.88
234.578	23.06
234.795	24.37
235.012	18.47
235.229	19.4
235.446	25.48
235.663	21.09
235.879	19.7
236.096	15.43
236.313	14.17
236.53	15.98
236.747	17.57
236.964	18.71
237.181	18.89
237.397	19.31
237.614	18.36
237.831	12.89
238.048	19.08
238.264	18.74
238.481	20.73
238.698	21.16
238.915	24.52
239.131	19.87
239.348	20.49
239.565	15.65
239.781	17.05
239.998	16.84
240.215	17.3
240.431	14.52
240.648	15.2
240.865	11.38
241.081	15.78
241.298	11.15
241.514	10.13
241.731	10.33
241.947	8.65
242.164	11.77
242.38	11.88
242.597	11.61
242.814	13.02
243.03	13.69
243.246	14.79
243.463	13.12
243.679	14.05
243.896	16.45
244.112	15.5
244.329	19.55
244.545	14.96
244.762	14.42
244.978	14.16
245.194	12.95
245.411	10.54
245.627	11.14
245.843	11.41
246.06	11.99
246.276	11
246.492	9.27
246.709	7.79
246.925	10.98
247.141	10.64
247.357	11.16
247.574	11
247.79	12.1
248.006	12.6
248.222	12.56
248.439	12.62
248.655	13.94
248.871	15.75
249.087	16.56
249.303	15.52
249.519	16.61
249.736	16.88
249.952	16.53
250.168	16.6
250.384	15.58
250.6	15.78
250.816	16.35
251.032	11.89
251.248	12.54
251.464	11.84
251.68	12.94
251.896	12.57
252.112	12
252.328	11.88
252.544	11.87
252.76	12.72
252.976	12.69
253.192	9.41
253.408	10.55
253.624	10.18
253.84	12.3
254.056	12.89
254.272	15.91
254.487	17.93
254.703	20.54
254.919	19.47
255.135	17.33
255.351	18.78
255.567	22.12
255.782	24.1
255.998	23.18
256.214	19.05
256.43	18.31
256.646	12.99
256.861	9.17
257.077	8.76
257.293	8.55
257.508	11.4
257.724	10.65
257.94	11.77
258.155	10.56
258.371	10.54
258.587	11.04
258.802	10.59
259.018	10.33
259.234	9.83
259.449	10.3
259.665	9.77
259.88	9.87
260.096	9.22
260.312	8.31
260.527	8.37
260.743	7.71
260.958	7.01
261.174	6.56
261.389	7.75
261.605	9.26
261.82	8.55
262.036	9.46
262.251	9.39
262.466	10.56
262.682	11.75
262.897	11.37
263.113	10.81
263.328	11.14
263.543	11.44
263.759	7.91
263.974	8.11
264.189	7.57
264.405	6.52
264.62	5.51
264.835	5.21
265.051	4.63
265.266	6.31
265.481	9.3
265.696	11.77
265.912	12.33
266.127	15.86
266.342	15.28
266.557	14.78
266.773	14.43
266.988	14.22
267.203	12.46
267.418	12.53
267.633	12.53
267.848	12.26
268.064	11.06
268.279	9.36
268.494	7.41
268.709	8.56
268.924	9.44
269.139	9.43
269.354	9.91
269.569	10.71
269.784	10.41
269.999	9.24
270.214	8.14
270.429	9
270.644	10.07
270.859	11.23
271.074	9.3
271.289	9.77
271.504	11.01
271.719	9.96
271.934	9.75
272.149	9.51
272.363	10.35
272.578	11.55
272.793	11.1
273.008	10.5
273.223	10.62
273.438	10.78
273.653	11.5
273.867	11.06
274.082	11.92
274.297	12.22
274.512	13.01
274.726	11.15
274.941	11.2
275.156	12.42
275.371	12.62
275.585	11
275.8	11.11
276.015	9.84
276.229	8.46
276.444	7.76
276.659	8.4
276.873	7.83
277.088	10.54
277.302	9.59
277.517	9.68
277.732	11.6
277.946	11.12
278.161	11.61
278.375	11.41
278.59	12.94
278.804	12.21
279.019	11.01
279.233	10.83
279.448	9.77
279.662	11.17
279.877	9.72
280.091	8.27
280.306	10.37
280.52	9.62
280.735	10.01
280.949	9.22
281.163	10.39
281.378	9.84
281.592	9.75
281.806	10.49
282.021	8.29
282.235	8.52
282.449	8.51
282.664	7.05
282.878	7.32
283.092	7.28
283.307	7.87
283.521	6.53
283.735	7.48
283.949	7.78
284.164	7.85
284.378	9.79
284.592	10.1
284.806	9.72
285.02	10.31
285.234	11.17
285.449	11.34
285.663	10.86
285.877	12.36
286.091	11.68
286.305	11.31
286.519	10.93
286.733	10.11
286.947	9.55
287.161	9.79
287.375	10.85
287.589	10.7
287.803	10.31
288.017	10.56
288.231	10.61
288.445	11.75
288.659	11.71
288.873	11.69
289.087	12.21
289.301	12.67
289.515	14.14
289.729	12.81
289.943	12.24
290.157	11.7
290.371	11.4
290.584	10.82
290.798	11.49
291.012	11.01
291.226	11.18
291.44	10.89
291.654	11.14
291.867	9.71
292.081	9.17
292.295	9.39
292.509	9.19
292.722	8.4
292.936	8.18
293.15	8.05
293.364	9.3
293.577	9.08
293.791	9.67
294.005	8.87
294.218	9.8
294.432	11.3
294.645	10.76
294.859	11.21
295.073	12.2
295.286	12.15
295.5	11.46
295.713	11.43
295.927	11.46
296.14	11.34
296.354	11.67
296.568	10.94
296.781	10.63
296.994	11.31
297.208	12.6
297.421	12.8
297.635	12.7
297.848	12.67
298.062	12.86
298.275	13.46
298.489	12.68
298.702	12.8
298.915	13.85
299.129	15
299.342	15.03
299.555	14.79
299.769	15.58
299.982	15.73
300.195	16.47
300.409	16.43
300.622	16.21
300.835	16.98
301.048	16.56
301.262	15.6
301.475	14.73
301.688	15.58
301.901	16.15
302.115	15.73
302.328	16.42
302.541	16.05
302.754	15.52
302.967	15.04
303.18	16.31
303.393	16.33
303.607	16.33
303.82	15.96
304.033	14.75
304.246	13.13
304.459	13.45
304.672	13.17
304.885	13.81
305.098	13.41
305.311	14.36
305.524	13.22
305.737	14.26
305.95	14.8
306.163	15.32
306.376	16.5
306.589	17.91
306.802	17.38
307.015	17.91
307.228	15.98
307.44	17.36
307.653	17.49
307.866	17.39
308.079	16.74
308.292	16.41
308.505	17.17
308.718	16.67
308.93	16.33
309.143	16.5
309.356	16.15
309.569	17.31
309.781	17.2
309.994	16.98
310.207	16.64
310.42	16.77
310.632	18.25
310.845	17.48
311.058	17.41
311.27	17.36
311.483	16.47
311.696	16.68
311.908	17.19
312.121	16.76
312.333	16.68
312.546	17.18
312.759	17.85
312.971	16.67
313.184	16.44
313.396	15.9
313.609	15.99
313.821	16.48
314.034	16.09
314.246	15.37
314.459	16.28
314.671	14.85
314.884	14.85
315.096	14.18
315.309	14.09
315.521	14.43
315.733	14.81
315.946	14.13
316.158	14.44
316.371	15.26
316.583	15.14
316.795	13.57
317.008	15.54
317.22	15.86
317.432	16.08
317.644	16.01
317.857	16.29
318.069	16.48
318.281	15.24
318.494	16.93
318.706	16.78
318.918	16.93
319.13	18.13
319.342	17.8
319.555	16.95
319.767	17.15
319.979	17.17
320.191	16.7
320.403	18
320.615	18.4
320.827	16.45
321.039	16.2
321.252	16.3
321.464	16.25
321.676	15.84
321.888	17.31
322.1	17.22
322.312	17.61
322.524	17.88
322.736	16.85
322.948	17.91
323.16	18.06
323.372	16.97
323.584	16.65
323.796	17.45
324.007	17.12
324.219	17.17
324.431	17.97
324.643	17.92
324.855	17.96
325.067	18.2
325.279	18.56
325.491	19.38
325.702	20.68
325.914	21.39
326.126	21.21
326.338	20.83
326.55	20.36
326.761	19.77
326.973	20.4
327.185	20.85
327.396	20.41
327.608	20.14
327.82	20.49
328.032	20.94
328.243	21.55
328.455	22.05
328.666	22.71
328.878	22.47
329.09	22.48
329.301	21.25
329.513	20.5
329.725	19.44
329.936	20.48
330.148	19.98
330.359	20.18
330.571	19.03
330.782	18.45
330.994	18.73
331.205	19.07
331.417	19.72
331.628	19.69
331.84	20.42
332.051	21.33
332.262	20.53
332.474	21.09
332.685	20.63
332.897	21.54
333.108	21.42
333.319	22.17
333.531	22.36
333.742	22.59
333.953	23.28
334.165	22.71
334.376	23.89
334.587	24.09
334.799	24.62
335.01	24.06
335.221	23.77
335.432	24.66
335.644	23.77
335.855	24.01
336.066	23.69
336.277	24.53
336.488	24.97
336.7	24.56
336.911	25.2
337.122	24.2
337.333	24.67
337.544	24.96
337.755	25.06
337.966	25.59
338.177	25.84
338.388	25.51
338.599	24.61
338.811	24.08
339.022	23.5
339.233	23.01
339.444	23.72
339.655	23.97
339.866	23.38
340.076	22.65
340.287	22.63
340.498	22.41
340.709	22.8
340.92	23.69
341.131	24.22
341.342	25.06
341.553	25.09
341.764	24.15
341.975	23.92
342.185	24.36
342.396	24.68
342.607	24.84
342.818	24.14
343.029	23.79
343.239	23.75
343.45	23.53
343.661	22.98
343.872	22.58
344.082	22.96
344.293	22.65
344.504	22.2
344.714	21.9
344.925	20.99
345.136	21.78
345.346	22.08
345.557	21.11
345.768	20.62
345.978	21.11
346.189	21.79
346.399	20.96
346.61	20.83
346.821	21.4
347.031	21.52
347.242	22.46
347.452	21.94
347.663	21.8
347.873	22.23
348.084	23.15
348.294	23.07
348.504	22.27
348.715	23.12
348.925	22.83
349.136	22.2
349.346	21.76
349.557	21.44
349.767	22.48
349.977	22.45
350.188	21.94
350.398	21.15
350.608	20.68
350.819	20.72
351.029	20.76
351.239	20.69
351.449	21.09
351.66	20.25
351.87	21.07
352.08	20.3
352.29	19.9
352.501	20.6
352.711	20.52
352.921	20.26
353.131	20.36
353.341	20.66
353.552	20.67
353.762	20.35
353.972	21.25
354.182	20.32
354.392	20.14
354.602	20.7
354.812	19.69
355.022	20.68
355.232	21.23
355.442	21.46
355.652	21.44
355.862	22.2
356.072	22.31
356.282	22.32
356.492	23.1
356.702	23.9
356.912	23.49
357.122	24.22
357.332	24.41
357.542	25.01
357.752	24.78
357.962	24.36
358.171	24.32
358.381	24.34
358.591	24.22
358.801	23.56
359.011	22.62
359.221	23.09
359.43	23.6
359.64	22.32
359.85	21.48
360.06	21.28
360.269	21.14
360.479	20.8
360.689	20.48
360.899	20.85
361.108	20.66
361.318	20.83
361.528	20.2
361.737	18.66
361.947	18.76
362.156	18.84
362.366	19.14
362.576	19.05
362.785	19.09
362.995	18.92
363.204	18.45
363.414	18.4
363.623	18.37
363.833	18.67
364.042	19.28
364.252	20.21
364.461	20.15
364.671	20.41
364.88	20.82
365.09	20.58
365.299	21.43
365.509	21.82
365.718	21.98
365.927	22.05
366.137	21.75
366.346	21.76
366.555	21.6
366.765	21.39
366.974	21.16
367.183	20.92
367.393	20.82
367.602	20.18
367.811	19.73
368.021	19.48
368.23	19.54
368.439	19.79
368.648	20.26
368.857	19.56
369.067	19
369.276	18.78
369.485	18.62
369.694	19.06
369.903	18.56
370.112	18.43
370.321	18.31
370.531	17.41
370.74	17.22
370.949	16.86
371.158	16.57
371.367	16.95
371.576	16.7
371.785	16.27
371.994	15.99
372.203	16.05
372.412	16.41
372.621	16.78
372.83	16.64
373.039	16.07
373.248	15.81
373.457	15.53
373.666	15.92
373.874	15.98
374.083	15.88
374.292	15.53
374.501	15.91
374.71	15.16
374.919	14.8
375.128	15.35
375.336	15.43
375.545	15.23
375.754	16.07
375.963	15.18
376.171	15.28
376.38	15.42
376.589	15.75
376.798	15.29
377.006	15.12
377.215	15.15
377.424	14.73
377.632	14.46
377.841	14.1
378.05	13.53
378.258	13.78
378.467	13.08
378.675	13.65
378.884	13.19
379.093	12.81
379.301	13.01
379.51	12.58
379.718	12.57
379.927	12.95
380.135	13.25
380.344	13.17
380.552	12.9
380.761	12.9
380.969	11.97
381.177	12.29
381.386	12.32
381.594	12.13
381.803	12.48
382.011	12.41
382.219	12.29
382.428	12.53
382.636	12.72
382.845	13.35
383.053	13.47
383.261	13.79
383.469	13.18
383.678	13.36
383.886	13.11
384.094	13.04
384.302	13.45
384.511	13.12
384.719	12.87
384.927	13.06
385.135	12.78
385.343	12.81
385.552	12.7
385.76	13.14
385.968	13.03
386.176	13.17
386.384	12.95
386.592	12.71
386.8	12.91
387.008	12.95
387.216	12.53
387.424	12.36
387.633	12.07
387.841	12.05
388.049	11.53
388.257	11.25
388.465	11.26
388.672	11.29
388.88	11.61
389.088	11.59
389.296	11.4
389.504	11.18
389.712	11.1
389.92	10.96
390.128	10.88
390.336	10.92
390.544	11.42
390.751	11.61
390.959	11.63
391.167	11.18
391.375	10.89
391.583	10.99
391.79	11.06
391.998	10.98
392.206	11.18
392.414	11.06
392.621	10.81
392.829	10.69
393.037	10.37
393.244	10.31
393.452	10.26
393.66	10.32
393.867	10.37
394.075	10.23
394.283	10.42
394.49	10.42
394.698	10.47
394.905	10.88
395.113	10.62
395.32	10.59
395.528	10.52
395.735	10.3
395.943	10.12
396.15	10.18
396.358	10.15
396.565	10.16
396.773	9.96
396.98	10
397.188	9.82
397.395	9.97
397.602	10.12
397.81	10.18
398.017	10.03
398.225	10.1
398.432	9.92
398.639	10.19
398.847	9.76
399.054	9.82
399.261	9.44
399.468	9.29
399.676	9.16
399.883	8.95
400.09	8.3
400.297	8.62
400.505	8.78
400.712	8.74
400.919	8.26
401.126	8.49
401.333	8.17
401.54	8.04
401.748	8.2
401.955	8.42
402.162	8.45
402.369	8.45
402.576	8.22
402.783	8.23
402.99	7.9
403.197	8.03
403.404	7.89
403.611	8.38
403.818	8.54
404.025	8.21
404.232	8.01
404.439	7.95
404.646	8.3
404.853	8.07
405.06	8.01
405.267	8.1
405.474	8.06
405.681	7.93
405.887	8.13
406.094	8.3
406.301	8.54
406.508	8.36
406.715	8.4
406.922	8.53
407.128	8.94
407.335	8.78
407.542	8.86
407.749	9.1
407.955	9.21
408.162	8.81
408.369	8.39
408.575	8.5
408.782	9.03
408.989	9.18
409.195	8.91
409.402	8.72
409.609	9.02
409.815	8.84
410.022	8.77
410.228	8.59
410.435	8.5
410.642	8.76
410.848	8.49
411.055	8.31
411.261	8.32
411.468	8.48
411.674	8.57
411.881	8.11
412.087	8.02
412.294	7.95
412.5	8.21
412.706	7.94
412.913	7.74
413.119	7.8
413.326	7.58
413.532	7.4
413.738	7.37
413.945	7.09
414.151	7.32
414.357	7.61
414.564	7.49
414.77	7.33
414.976	7.56
415.182	7.63
415.389	7.2
415.595	7.19
415.801	7.08
416.007	7.03
416.214	7
416.42	7.05
416.626	6.9
416.832	6.82
417.038	6.93
417.244	6.73
417.45	6.71
417.657	7.21
417.863	7.17
418.069	7.08
418.275	7.13
418.481	7.26
418.687	7.36
418.893	7.45
419.099	7.7
419.305	7.58
419.511	7.84
419.717	7.91
419.923	7.63
420.129	7.67
420.335	7.79
420.541	7.83
420.746	7.74
420.952	7.64
421.158	7.54
421.364	7.35
421.57	7.33
421.776	7.17
421.982	7.17
422.187	7.2
422.393	7.12
422.599	7.04
422.805	6.82
423.01	6.82
423.216	6.71
423.422	6.76
423.628	6.79
423.833	6.77
424.039	6.77
424.245	6.84
424.45	6.98
424.656	7.02
424.862	7.02
425.067	7.39
425.273	7.48
425.478	7.53
425.684	7.49
425.889	7.5
426.095	7.68
426.301	7.72
426.506	7.71
426.712	7.62
426.917	7.52
427.123	7.45
427.328	7.09
427.533	7.04
427.739	7.06
427.944	7.18
428.15	6.99
428.355	6.88
428.561	6.75
428.766	6.69
428.971	6.67
429.177	6.73
429.382	6.89
429.587	6.85
429.793	6.98
429.998	6.9
430.203	6.66
430.408	6.89
430.614	7.1
430.819	7.11
431.024	7.14
431.229	7.35
431.434	7.32
431.64	7.4
431.845	7.67
432.05	7.54
432.255	7.46
432.46	7.65
432.665	7.42
432.87	7.28
433.076	7.42
433.281	7.38
433.486	7.23
433.691	7.2
433.896	7.05
434.101	6.82
434.306	6.75
434.511	6.74
434.716	6.76
434.921	7.14
435.126	7.08
435.331	7.13
435.535	6.93
435.74	6.92
435.945	6.87
436.15	7.17
436.355	7.24
436.56	7.3
436.765	7.25
436.97	7.22
437.174	7.15
437.379	7.12
437.584	6.95
437.789	7.09
437.993	7.15
438.198	7.25
438.403	6.97
438.608	6.81
438.812	6.82
439.017	6.93
439.222	6.96
439.426	6.84
439.631	6.9
439.836	7.01
440.04	6.88
440.245	6.84
440.45	6.77
440.654	6.86
440.859	6.97
441.063	7
441.268	6.96
441.472	6.98
441.677	7.02
441.881	6.99
442.086	6.86
442.29	7.14
442.495	7.12
442.699	7.27
442.904	6.89
443.108	6.86
443.312	6.85
443.517	6.91
443.721	6.78
443.925	6.52
444.13	6.38
444.334	6.28
444.538	6.11
444.743	6.13
444.947	6.08
445.151	6.3
445.356	6.26
445.56	6.2
445.764	6.25
445.968	6.27
446.173	6.4
446.377	6.45
446.581	6.6
446.785	6.54
446.989	6.45
447.193	6.48
447.398	6.41
447.602	6.38
447.806	6.39
448.01	6.34
448.214	6.27
448.418	6.17
448.622	6.12
448.826	5.97
449.03	5.98
449.234	6.01
449.438	6.04
449.642	6.23
449.846	6.34
450.05	6.31
450.254	6.19
450.458	6.35
450.662	6.55
450.866	6.5
451.069	6.56
451.273	6.43
451.477	6.37
451.681	6.37
451.885	6.32
452.089	6.13
452.292	6.18
452.496	6.18
452.7	6.08
452.904	6
453.107	6.23
453.311	6.22
453.515	6.33
453.719	6.45
453.922	6.2
454.126	6.14
454.33	6.34
454.533	6.52
454.737	6.75
454.94	6.89
455.144	6.79
455.348	6.75
455.551	6.82
455.755	6.72
455.958	6.86
456.162	6.91
456.365	7.16
456.569	7.29
456.772	7.18
456.976	6.82
457.179	6.72
457.383	6.72
457.586	6.61
457.79	6.56
457.993	6.65
458.196	6.51
458.4	6.4
458.603	6.07
458.807	6.02
459.01	6.06
459.213	6.33
459.417	6.35
459.62	6.43
459.823	6.41
460.026	6.39
460.23	6.42
460.433	6.42
460.636	6.51
460.839	6.68
461.042	6.59
461.246	6.45
461.449	6.29
461.652	6.06
461.855	6.06
462.058	6.12
462.261	6.09
462.464	6.01
462.668	6.07
462.871	6.09
463.074	5.75
463.277	5.82
463.48	5.88
463.683	6.04
463.886	6.44
464.089	6.56
464.292	6.72
464.495	6.69
464.698	6.79
464.901	6.66
465.104	6.55
465.306	6.64
465.509	6.61
465.712	6.75
465.915	6.63
466.118	6.49
466.321	6.44
466.524	6.35
466.726	6.31
466.929	6.18
467.132	6.14
467.335	6.25
467.538	6.59
467.74	6.67
467.943	6.56
468.146	6.71
468.348	6.66
468.551	6.57
468.754	6.52
468.956	6.63
469.159	6.63
469.362	6.7
469.564	6.78
469.767	6.54
469.969	6.51
470.172	6.56
470.375	6.44
470.577	6.61
470.78	6.61
470.982	6.52
471.185	6.5
471.387	6.58
471.59	6.62
471.792	6.49
471.995	6.6
472.197	6.85
472.399	6.75
472.602	6.76
472.804	6.7
473.007	6.75
473.209	6.74
473.411	6.76
473.614	6.75
473.816	6.65
474.018	6.93
474.22	6.97
474.423	6.73
474.625	6.66
474.827	6.86
475.03	6.95
475.232	6.82
475.434	6.78
475.636	6.63
475.838	6.53
476.04	6.52
476.243	6.2
476.445	6.08
476.647	6.2
476.849	6.3
477.051	6.12
477.253	6
477.455	5.91
477.657	6.05
477.859	6.21
478.061	6.4
478.263	6.35
478.465	6.53
478.667	6.45
478.869	6.28
479.071	6.34
479.273	6.49
479.475	6.5
479.677	6.73
479.879	6.74
480.081	6.78
480.283	6.71
480.485	6.87
480.686	6.72
480.888	6.75
481.09	6.87
481.292	6.9
481.494	6.74
481.695	6.67
481.897	6.59
482.099	6.59
482.301	6.53
482.502	6.48
482.704	6.45
482.906	6.47
483.107	6.49
483.309	6.39
483.511	6.3
483.712	6.33
483.914	6.35
484.115	6.36
484.317	6.3
484.519	6.28
484.72	6.31
484.922	6.24
485.123	6.25
485.325	6.22
485.526	6.27
485.728	6.32
485.929	6.27
486.131	6.25
486.332	6.25
486.534	6.24
486.735	6.2
486.936	6.18
487.138	6.23
487.339	6.23
487.541	6.3
487.742	6.34
487.943	6.31
488.144	6.31
488.346	6.3
488.547	6.22
488.748	6.23
488.95	6.19
489.151	6.13
489.352	6.17
489.553	6.1
489.755	6.04
489.956	5.97
490.157	5.98
490.358	6.05
490.559	5.99
490.76	6.09
490.961	6.06
491.163	6.2
491.364	6.27
491.565	6.31
491.766	6.37
491.967	6.38
492.168	6.36
492.369	6.35
492.57	6.26
492.771	6.32
492.972	6.29
493.173	6.29
493.374	6.3
493.575	6.3
493.776	6.14
493.976	6.16
494.177	6.12
494.378	6.15
494.579	6.24
494.78	6.41
494.981	6.44
495.182	6.44
495.382	6.61
495.583	6.53
495.784	6.55
495.985	6.66
496.185	6.62
496.386	6.66
496.587	6.61
496.788	6.43
496.988	6.32
497.189	6.35
497.39	6.42
497.59	6.39
497.791	6.42
497.992	6.42
498.192	6.5
498.393	6.33
498.593	6.4
498.794	6.48
498.994	6.54
499.195	6.64
499.395	6.6
499.596	6.52
499.796	6.52
499.997	6.63
500.197	6.77
500.398	6.74
500.598	6.98
500.799	6.9
500.999	6.98
501.199	6.99
501.4	6.92
501.6	6.95
501.801	7.06
502.001	7.08
502.201	7.08
502.402	6.91
502.602	7.02
502.802	6.98
503.002	7.02
503.203	6.89
503.403	6.95
503.603	7.17
503.803	7.49
504.003	7.38
504.204	7.47
504.404	7.44
504.604	7.41
504.804	7.53
505.004	7.69
505.204	7.73
505.404	7.8
505.604	7.87
505.804	7.95
506.005	7.94
506.205	8.15
506.405	8.15
506.605	8.18
506.805	8.52
507.005	8.69
507.204	8.67
507.404	8.83
507.604	8.87
507.804	8.94
508.004	8.97
508.204	8.7
508.404	8.75
508.604	8.83
508.804	8.92
509.003	8.87
509.203	8.78
509.403	8.78
509.603	8.87
509.803	8.9
510.002	8.95
510.202	8.96
510.402	9.23
510.602	9.39
510.801	9.43
511.001	9.53
511.201	9.6
511.4	9.59
511.6	9.74
511.8	9.75
511.999	9.94
512.199	10.03
512.398	10.17
512.598	10.39
512.797	10.53
512.997	10.77
513.197	10.85
513.396	10.96
513.596	11.03
513.795	11.09
513.994	11.3
514.194	11.33
514.393	11.27
514.593	11.36
514.792	11.26
514.992	11.22
515.191	11.21
515.39	11.36
515.59	11.41
515.789	11.49
515.988	11.65
516.188	11.64
516.387	11.79
516.586	12.16
516.786	12.18
516.985	12.4
517.184	12.35
517.383	12.62
517.582	12.74
517.782	12.97
517.981	13.07
518.18	13.07
518.379	13.24
518.578	13.26
518.777	13.27
518.976	13.37
519.176	13.38
519.375	13.66
519.574	13.71
519.773	13.78
519.972	13.77
520.171	13.95
520.37	14.22
520.569	14.36
520.768	14.43
520.967	14.67
521.166	14.84
521.365	15.12
521.564	15.35
521.762	15.4
521.961	15.59
522.16	15.71
522.359	15.78
522.558	15.74
522.757	15.62
522.956	15.94
523.154	16
523.353	16.08
523.552	16.14
523.751	16.23
523.949	16.37
524.148	16.32
524.347	16.53
524.546	16.84
524.744	16.95
524.943	17.19
525.142	17.19
525.34	17.27
525.539	17.35
525.737	17.35
525.936	17.33
526.135	17.55
526.333	17.79
526.532	17.81
526.73	17.89
526.929	18.14
527.127	18.27
527.326	18.45
527.524	18.64
527.723	18.78
527.921	19.02
528.12	19.17
528.318	19.2
528.516	19.22
528.715	19.35
528.913	19.4
529.112	19.46
529.31	19.46
529.508	19.47
529.707	19.51
529.905	19.53
530.103	19.49
530.301	19.55
530.5	19.65
530.698	19.78
530.896	19.9
531.094	20.07
531.293	20.11
531.491	20.43
531.689	20.63
531.887	20.75
532.085	21.04
532.283	21.18
532.481	21.28
532.68	21.31
532.878	21.32
533.076	21.47
533.274	21.53
533.472	21.54
533.67	21.59
533.868	21.74
534.066	21.9
534.264	21.93
534.462	22.11
534.66	22.17
534.858	22.29
535.056	22.55
535.253	22.62
535.451	22.67
535.649	22.81
535.847	22.89
536.045	22.97
536.243	22.85
536.441	22.95
536.638	22.94
536.836	23.06
537.034	23.16
537.232	23.14
537.43	23.18
537.627	23.21
537.825	23.46
538.023	23.5
538.22	23.63
538.418	23.86
538.616	23.76
538.813	23.97
539.011	24.12
539.209	24.21
539.406	24.4
539.604	24.55
539.801	24.86
539.999	24.94
540.196	25.11
540.394	25.06
540.591	25.19
540.789	25.45
540.986	25.43
541.184	25.41
541.381	25.48
541.579	25.46
541.776	25.48
541.974	25.41
542.171	25.47
542.368	25.51
542.566	25.61
542.763	25.66
542.96	25.6
543.158	25.72
543.355	25.93
543.552	26.02
543.75	26.22
543.947	26.27
544.144	26.41
544.341	26.53
544.539	26.49
544.736	26.51
544.933	26.55
545.13	26.84
545.327	26.85
545.524	26.68
545.722	26.58
545.919	26.59
546.116	26.72
546.313	26.83
546.51	26.79
546.707	27
546.904	27.13
547.101	27.3
547.298	27.21
547.495	27.2
547.692	27.33
547.889	27.55
548.086	27.74
548.283	27.82
548.48	27.85
548.677	27.9
548.874	27.85
549.07	27.98
549.267	28.01
549.464	28.06
549.661	28.36
549.858	28.52
550.055	28.62
550.251	28.48
550.448	28.62
550.645	28.77
550.842	28.98
551.038	29.2
551.235	29.46
551.432	29.63
551.628	29.78
551.825	29.9
552.022	29.94
552.218	29.97
552.415	30.1
552.612	30.21
552.808	30.28
553.005	30.29
553.201	30.24
553.398	30
553.594	30.03
553.791	30.13
553.987	30.03
554.184	30.05
554.38	30.25
554.577	30.2
554.773	30.22
554.97	30.35
555.166	30.42
555.362	30.45
555.559	30.65
555.755	30.5
555.952	30.61
556.148	30.85
556.344	30.97
556.541	30.74
556.737	30.74
556.933	30.85
557.129	30.78
557.326	30.81
557.522	31.07
557.718	31.16
557.914	31.57
558.11	31.55
558.307	31.5
558.503	31.47
558.699	31.76
558.895	31.82
559.091	31.86
559.287	32
559.483	31.96
559.679	32.17
559.876	32.27
560.072	32.09
560.268	31.93
560.464	31.9
560.66	31.9
560.856	31.93
561.052	32.08
561.247	31.99
561.443	31.82
561.639	31.99
561.835	31.74
562.031	31.65
562.227	31.61
562.423	31.73
562.619	31.6
562.815	31.83
563.01	31.8
563.206	31.94
563.402	32.07
563.598	32.4
563.793	32.4
563.989	32.51
564.185	32.65
564.381	32.93
564.576	33.05
564.772	33.32
564.968	33.29
565.163	33.47
565.359	33.38
565.555	33.37
565.75	33.11
565.946	33.13
566.141	33.36
566.337	33.26
566.532	33.19
566.728	33.34
566.923	33.38
567.119	33.42
567.314	33.4
567.51	33.35
567.705	33.45
567.901	33.72
568.096	33.94
568.292	33.89
568.487	34.04
568.682	34.15
568.878	34.09
569.073	34.24
569.268	34.35
569.464	34.34
569.659	34.47
569.854	34.45
570.05	34.4
570.245	34.42
570.44	34.34
570.635	34.32
570.831	34.32
571.026	34.45
571.221	34.24
571.416	34.23
571.611	34.23
571.806	34.28
572.002	34.12
572.197	34.22
572.392	34.31
572.587	34.45
572.782	34.4
572.977	34.23
573.172	34.06
573.367	34.24
573.562	34.25
573.757	34.38
573.952	34.44
574.147	34.69
574.342	34.82
574.537	34.72
574.732	34.55
574.927	34.78
575.121	34.95
575.316	35.14
575.511	35.18
575.706	35.26
575.901	35.31
576.096	35.27
576.29	35.35
576.485	35.2
576.68	35.21
576.875	35.42
577.069	35.33
577.264	35.54
577.459	35.7
577.654	35.72
577.848	35.6
578.043	35.6
578.238	35.86
578.432	35.76
578.627	35.77
578.821	35.78
579.016	35.88
579.21	35.75
579.405	35.47
579.6	35.46
579.794	35.48
579.989	35.68
580.183	35.61
580.378	35.48
580.572	35.46
580.766	35.71
580.961	35.88
581.155	35.86
581.35	36.01
581.544	35.99
581.738	35.89
581.933	35.83
582.127	35.98
582.321	36.14
582.516	35.96
582.71	36.19
582.904	35.94
583.099	35.64
583.293	35.68
583.487	35.88
583.681	36.06
583.875	35.83
584.07	35.9
584.264	35.8
584.458	35.57
584.652	35.83
584.846	35.68
585.04	35.82
585.234	36.1
585.428	35.84
585.623	35.88
585.817	35.84
586.011	35.85
586.205	35.83
586.399	35.94
586.593	36.2
586.787	36.18
586.981	35.96
587.174	35.95
587.368	36.07
587.562	36.08
587.756	36.02
587.95	35.99
588.144	36.47
588.338	36.39
588.532	36.17
588.725	36.17
588.919	36.19
589.113	36.67
589.307	36.51
589.501	36.45
589.694	36.62
589.888	36.52
590.082	36.53
590.275	36.27
590.469	36.46
590.663	36.52
590.856	36.71
591.05	36.76
591.244	36.53
591.437	36.54
591.631	36.54
591.824	36.57
592.018	36.64
592.212	36.81
592.405	36.8
592.599	37
592.792	37.22
592.986	37.1
593.179	37.23
593.372	37.36
593.566	37.59
593.759	37.63
593.953	37.64
594.146	37.75
594.339	37.71
594.533	37.73
594.726	37.58
594.92	37.13
595.113	37.24
595.306	37.09
595.499	37.12
595.693	37.14
595.886	36.99
596.079	36.99
596.272	36.97
596.466	36.98
596.659	37.11
596.852	37.04
597.045	37.34
597.238	37.03
597.431	36.99
597.624	36.94
597.818	37
598.011	37.09
598.204	37.1
598.397	37.11
598.59	37.2
598.783	37.36
598.976	37.44
599.169	37.37
599.362	37.8
599.555	38.13
599.748	38.25
599.941	38.25
600.134	38.26
600.326	38.31
600.519	38.68
600.712	38.65
600.905	38.37
601.098	38.24
601.291	38.31
601.483	38.42
601.676	38.33
601.869	38.36
602.062	38.56
602.255	38.61
602.447	38.48
602.64	38.35
602.833	38.47
603.025	38.53
603.218	38.62
603.411	38.89
603.603	38.8
603.796	38.65
603.989	38.5
604.181	38.42
604.374	38.53
604.566	38.55
604.759	38.61
604.951	38.53
605.144	38.58
605.336	38.74
605.529	38.57
605.721	38.55
605.914	38.62
606.106	38.69
606.299	38.77
606.491	38.69
606.683	38.76
606.876	38.81
607.068	38.72
607.26	39.08
607.453	38.69
607.645	38.55
607.837	38.72
608.03	38.55
608.222	38.77
608.414	38.77
608.606	38.7
608.799	38.83
608.991	38.56
609.183	38.84
609.375	38.34
609.567	38.44
609.759	38.56
609.952	38.28
610.144	38.23
610.336	37.83
610.528	37.48
610.72	37.67
610.912	37.54
611.104	37.53
611.296	37.16
611.488	37.28
611.68	37.4
611.872	37.26
612.064	37.2
612.256	37.5
612.448	37.57
612.64	37.89
612.832	37.48
613.023	37.36
613.215	37.03
613.407	37.13
613.599	37.01
613.791	36.87
613.983	37.46
614.174	37.63
614.366	37.64
614.558	38.04
614.75	37.94
614.941	38.21
615.133	38.24
615.325	38.65
615.516	38.94
615.708	38.98
615.9	38.99
616.091	38.64
616.283	38.68
616.475	38.9
616.666	38.72
616.858	38.8
617.049	38.94
617.241	38.91
617.432	39.19
617.624	39.44
617.815	39.68
618.007	39.69
618.198	39.77
618.39	39.83
618.581	39.54
618.773	39.71
618.964	39.51
619.155	39.35
619.347	39.46
619.538	39.29
619.729	38.75
619.921	38.66
620.112	38.83
620.303	38.63
620.494	38.66
620.686	38.87
620.877	38.95
621.068	39.16
621.259	39.06
621.451	39.05
621.642	38.96
621.833	39.55
622.024	39.77
622.215	39.78
622.406	40.06
622.597	40.08
622.788	39.83
622.98	39.51
623.171	39.58
623.362	39.74
623.553	39.84
623.744	39.95
623.935	39.57
624.126	39.2
624.317	39.23
624.508	38.92
624.698	38.66
624.889	39.04
625.08	39.2
625.271	39.32
625.462	39.11
625.653	39.02
625.844	39.28
626.034	39.39
626.225	39.39
626.416	39.28
626.607	39.37
626.798	39.22
626.988	38.96
627.179	38.89
627.37	38.7
627.56	38.72
627.751	38.72
627.942	38.43
628.132	38.27
628.323	38.49
628.514	38.54
628.704	38.73
628.895	38.78
629.085	38.81
629.276	38.92
629.466	38.87
629.657	39.24
629.847	39.54
630.038	39.58
630.228	39.84
630.419	39.91
630.609	40.15
630.8	40
630.99	40.45
631.181	40.36
631.371	40.06
631.561	40.34
631.752	40.28
631.942	40.16
632.132	40.16
632.323	39.83
632.513	39.84
632.703	39.72
632.893	39.72
633.084	39.42
633.274	39.58
633.464	39.74
633.654	39.63
633.844	39.57
634.034	39.51
634.225	39.77
634.415	39.91
634.605	40.07
634.795	40.26
634.985	40.48
635.175	40.65
635.365	40.62
635.555	40.52
635.745	40.61
635.935	40.86
636.125	40.91
636.315	40.66
636.505	40.57
636.695	40.3
636.885	39.82
637.075	39.54
637.265	39.48
637.455	39.55
637.644	39.78
637.834	39.68
638.024	39.2
638.214	39.2
638.404	39.53
638.593	40.18
638.783	40.15
638.973	40.39
639.163	40.61
639.352	40.8
639.542	41.27
639.732	41.33
639.921	41.25
640.111	41.34
640.301	41.34
640.49	41.29
640.68	41.01
640.87	40.88
641.059	41.09
641.249	40.92
641.438	40.46
641.628	39.76
641.817	39.67
642.007	39.92
642.196	40.32
642.386	40.16
642.575	40.05
642.764	39.77
642.954	40.29
643.143	39.97
643.333	40.32
643.522	41.12
643.711	41.22
643.901	41.33
644.09	41.08
644.279	40.79
644.469	40.87
644.658	40.33
644.847	40.71
645.036	40.68
645.226	40.55
645.415	39.95
645.604	39.46
645.793	39.58
645.982	39.66
646.171	39.93
646.361	39.83
646.55	39.71
646.739	40.05
646.928	39.67
647.117	39.14
647.306	39.62
647.495	40.08
647.684	39.92
647.873	40.14
648.062	40.1
648.251	39.7
648.44	40.04
648.629	40.3
648.818	40.3
649.007	40.22
649.196	40.79
649.384	40.88
649.573	40.51
649.762	40.57
649.951	40.5
650.14	40.1
650.328	40.54
650.517	40.4
650.706	40.13
650.895	40.43
651.083	40.66
651.272	40.34
651.461	40.06
651.65	40.41
651.838	40.34
652.027	40.29
652.216	40.96
652.404	40.84
652.593	40.95
652.781	41.26
652.97	40.86
653.158	40.8
653.347	40.96
653.535	40.96
653.724	40.78
653.912	41.16
654.101	41.24
654.289	40.86
654.478	41.24
654.666	40.71
654.855	40.72
655.043	40.98
655.231	41
655.42	40.97
655.608	41.03
655.796	41.27
655.985	41.1
656.173	41.1
656.361	41.29
656.55	40.76
656.738	41.09
656.926	41.4
657.114	41.48
657.302	40.8
657.491	41.06
657.679	41.41
657.867	41.21
658.055	41.25
658.243	41.53
658.431	41.21
658.619	41.41
658.807	41.66
658.996	41.44
659.184	41.42
659.372	41.59
659.56	41.58
659.748	41.14
659.936	41.07
660.124	40.77
660.311	40.14
660.499	40.19
660.687	40.28
660.875	39.9
661.063	39.69
661.251	40.03
661.439	40.48
661.627	40.36
661.814	40.44
662.002	41.09
662.19	41.53
662.378	41.68
662.565	42.17
662.753	42.26
662.941	42.45
663.129	42.87
663.316	42.64
663.504	42.39
663.692	42.19
663.879	42.15
664.067	41.51
664.254	41.5
664.442	42.09
664.63	41.92
664.817	42
665.005	42.04
665.192	42.1
665.38	41.78
665.567	42.12
665.755	42.35
665.942	42.95
666.13	43.27
666.317	43.08
666.504	42.16
666.692	42.21
666.879	41.9
667.067	41.99
667.254	41.86
667.441	42.01
667.629	42.36
667.816	42.02
668.003	41.95
668.19	41.85
668.378	42.5
668.565	43.47
668.752	43.02
668.939	43.13
669.127	42.97
669.314	42.86
669.501	42.75
669.688	42.39
669.875	42.61
670.062	42.19
670.249	41.56
670.436	40.9
670.623	40.89
670.81	41.15
670.997	41.12
671.184	41.24
671.371	41.64
671.558	41.6
671.745	41.22
671.932	40.97
672.119	41.17
672.306	41.67
672.493	41.9
672.68	41.58
672.867	41.3
673.054	40.71
673.24	40.61
673.427	40.27
673.614	40.17
673.801	40.47
673.988	41.32
674.174	40.91
674.361	40.83
674.548	40.88
674.734	40.84
674.921	41.21
675.108	41.62
675.294	41.67
675.481	41.78
675.668	42
675.854	41.85
676.041	40.7
676.227	40.86
676.414	40.85
676.601	40.95
676.787	40.68
676.974	40.52
677.16	40.64
677.347	41.15
677.533	40.72
677.719	41.26
677.906	41.18
678.092	42.03
678.279	42.37
678.465	42.76
678.651	42.75
678.838	43
679.024	42.94
679.21	42.97
679.397	42.63
679.583	43.29
679.769	43.2
679.955	43.27
680.142	43.01
680.328	42.75
680.514	42.18
680.7	42.58
680.886	42.74
681.073	42.36
681.259	42.32
681.445	42.14
681.631	41.41
681.817	40.74
682.003	40.74
682.189	40.59
682.375	40.36
682.561	40.75
682.747	40.1
682.933	39.85
683.119	40.49
683.305	40.61
683.491	40.66
683.677	40.89
683.863	41.42
684.049	41.73
684.235	41.98
684.42	42.4
684.606	42.63
684.792	42.91
684.978	43.65
685.164	43.25
685.349	43.07
685.535	42.53
685.721	42.8
685.907	42.2
686.092	41.51
686.278	41.09
686.464	40.76
686.649	40.34
686.835	40.18
687.021	39.49
687.206	39.95
687.392	39.78
687.577	40.3
687.763	40.18
687.948	40.98
688.134	41.07
688.319	40.94
688.505	41.49
688.69	42.22
688.876	41.97
689.061	41.69
689.247	41.4
689.432	42.05
689.618	42.08
689.803	42.29
689.988	41.51
690.174	42.06
690.359	42.49
690.544	42
690.73	41.15
690.915	41.42
691.1	41.63
691.285	41.9
691.471	41.83
691.656	42.11
691.841	42
692.026	42.18
692.211	42.28
692.396	42.01
692.582	42.23
692.767	42.43
692.952	42.18
693.137	42.11
693.322	42.14
693.507	42
693.692	41.3
693.877	40.9
694.062	41.5
694.247	41.15
694.432	41.34
694.617	41.22
694.802	40.61
694.987	40.66
695.172	40.56
695.357	40.69
695.541	40.32
695.726	41.03
695.911	41.77
696.096	41.7
696.281	41.92
696.466	42
696.65	41.79
696.835	42.08
697.02	42.5
697.204	42.46
697.389	41.68
697.574	42.39
697.759	42
697.943	41.6
698.128	41.41
698.312	41.33
698.497	41.71
698.682	41.62
698.866	41.7
699.051	41.39
699.235	41.37
699.42	41.66
699.604	41.67
699.789	41.69
699.973	41.95
700.158	42.23
700.342	42.01
700.527	41.68
700.711	41.98
700.895	41.81
701.08	41.56
701.264	41.85
701.448	42.15
701.633	41.49
701.817	41.27
702.001	41.21
702.186	41.22
702.37	42
702.554	41.61
702.738	41.56
702.923	41.77
703.107	42.63
703.291	42.3
703.475	42.06
703.659	42.48
703.843	42.97
704.027	42.68
704.212	42.37
704.396	41.74
704.58	42.22
704.764	42.6
704.948	42.71
705.132	42.27
705.316	42.57
705.5	42.54
705.684	42.33
705.868	42.29
706.052	42.54
706.235	42.57
706.419	43.03
706.603	42.28
706.787	41.99
706.971	42.52
707.155	42.55
707.339	42.43
707.522	42.22
707.706	41.82
707.89	41.78
708.074	41.95
708.257	42.04
708.441	41.75
708.625	41.99
708.808	42
708.992	41.7
709.176	41.57
709.359	41.72
709.543	42.04
709.727	42.17
709.91	42.52
710.094	42.35
710.277	42.49
710.461	42.62
710.644	42.88
710.828	43.15
711.011	43.58
711.195	43.72
711.378	43.77
711.562	43.84
711.745	43.86
711.928	43.23
712.112	43.05
712.295	42.69
712.478	42.17
712.662	42.1
712.845	42.09
713.028	41.65
713.212	41.77
713.395	41.38
713.578	41.6
713.761	41.21
713.945	41.98
714.128	42.47
714.311	42.69
714.494	43.08
714.677	43.43
714.86	43.45
715.043	43.31
715.227	43.94
715.41	44.13
715.593	43.28
715.776	43.78
715.959	43.79
716.142	44.05
716.325	44.01
716.508	43.68
716.691	43.81
716.874	43.53
717.057	43.29
717.239	42.49
717.422	41.87
717.605	42.63
717.788	41.52
717.971	40.58
718.154	39.85
718.337	39.05
718.519	39.94
718.702	38.93
718.885	38.86
719.068	39.33
719.25	39.55
719.433	41.06
719.616	41.41
719.798	42.37
719.981	42.6
720.164	41.46
720.346	42.3
720.529	41.61
720.712	41.92
720.894	42.43
721.077	42.06
721.259	41.48
721.442	40.42
721.624	39.68
721.807	39.92
721.989	40.67
722.172	41.21
722.354	41.2
722.537	40.93
722.719	42.11
722.901	41.13
723.084	41.09
723.266	41.27
723.448	41.38
723.631	41.63
723.813	42.01
723.995	41.19
724.178	41.16
724.36	41.47
724.542	42.06
724.724	41.12
724.907	42.38
725.089	42.31
725.271	43.06
725.453	42.96
725.635	42.73
725.817	42.07
725.999	42.61
726.181	43.01
726.364	42.46
726.546	42.44
726.728	42.46
726.91	41.34
727.092	41.23
727.274	41.05
727.456	41.58
727.638	41.65
727.819	41.75
728.001	41.89
728.183	42.16
728.365	42.39
728.547	42
728.729	42.73
728.911	44.18
729.093	44.46
729.274	45.23
729.456	44.63
729.638	44.71
729.82	45.38
730.001	45.18
730.183	45.01
730.365	45.31
730.546	45.79
730.728	46.01
730.91	45.15
731.091	45.72
731.273	45
731.455	45.92
731.636	46.41
731.818	46.43
731.999	46.65
732.181	45.78
732.362	45.53
732.544	45.53
732.725	45.08
732.907	45.01
733.088	44.71
733.27	44.48
733.451	44.22
733.633	44.22
733.814	43.9
733.995	43.49
734.177	44.37
734.358	43.96
734.539	44.19
734.721	43.36
734.902	43.21
735.083	42.58
735.264	42.79
735.446	43.28
735.627	42.49
735.808	42.36
735.989	42.24
736.17	42.07
736.351	42.83
736.533	42.26
736.714	42.78
736.895	43.57
737.076	44.07
737.257	43.35
737.438	42.86
737.619	43.62
737.8	43.24
737.981	43.09
738.162	42.99
738.343	42.47
738.524	41.94
738.705	42.22
738.886	41.72
739.067	42.69
739.247	43.47
739.428	43.49
739.609	43.93
739.79	44.23
739.971	44.67
740.151	45.16
740.332	46.33
740.513	47.42
740.694	46.85
740.874	46.84
741.055	45.14
741.236	45.01
741.417	43.99
741.597	43.68
741.778	43.54
741.958	43.43
742.139	43.52
742.32	42.3
742.5	42.27
742.681	42.65
742.861	43.07
743.042	43.75
743.222	43.99
743.403	44.03
743.583	43.93
743.764	43.59
743.944	43.33
744.124	43.8
744.305	43.92
744.485	43.51
744.666	43.79
744.846	42.84
745.026	42.84
745.207	42.36
745.387	41.54
745.567	40.73
745.747	41.21
745.928	42.34
746.108	41.45
746.288	42
746.468	42.3
746.648	41.65
746.829	41.08
747.009	40.81
747.189	40.86
747.369	42.07
747.549	42.71
747.729	43.5
747.909	42.11
748.089	42.38
748.269	42.1
748.449	40.99
748.629	41.83
748.809	42.75
748.989	42.69
749.169	42.76
749.349	43.17
749.529	42.84
749.709	42.12
749.889	42.68
750.068	42.43
750.248	41.93
750.428	43.25
750.608	42.52
750.788	42.21
750.967	42.73
751.147	42.02
751.327	41.26
751.507	40.59
751.686	41.19
751.866	40.8
752.046	40.85
752.225	41.38
752.405	39.99
752.585	39.92
752.764	40.3
752.944	42.06
753.123	42.47
753.303	43.63
753.482	44.79
753.662	44.02
753.841	44.93
754.021	44.15
754.2	43.35
754.38	44.19
754.559	43.69
754.739	43.62
754.918	41.65
755.097	41.18
755.277	39.89
755.456	39.95
755.635	39.62
755.815	37.91
755.994	38.28
756.173	39.22
756.352	39.71
756.532	40.07
756.711	40.47
756.89	40.69
757.069	41.94
757.248	42.01
757.427	40.93
757.607	41.28
757.786	42.07
757.965	43.28
758.144	42.71
758.323	42.42
758.502	43.65
758.681	45.07
758.86	45.35
759.039	44.92
759.218	45.85
759.397	45.58
759.576	46.22
759.755	46.27
759.934	45.7
760.113	46.27
760.291	46.46
760.47	45.98
760.649	43.01
760.828	42.78
761.007	42.98
761.186	42
761.364	42.69
761.543	41.72
761.722	42.05
761.901	42.54
762.079	42.26
762.258	42.44
762.437	41.99
762.615	42.56
762.794	42.01
762.972	41.46
763.151	41.75
763.33	41.37
763.508	40.92
763.687	40.92
763.865	40.74
764.044	40.72
764.222	40.49
764.401	41.12
764.579	41.7
764.758	41.57
764.936	41.35
765.114	41.41
765.293	41.54
765.471	42.2
765.65	42.15
765.828	42.46
766.006	42.16
766.184	42.03
766.363	41.23
766.541	40.87
766.719	41.66
766.898	42.92
767.076	43.5
767.254	43.68
767.432	44.9
767.61	44.84
767.788	44.08
767.967	44.41
768.145	43.85
768.323	42.89
768.501	43.29
768.679	42.37
768.857	42.07
769.035	41.1
769.213	41.56
769.391	39.84
769.569	38.2
769.747	38.89
769.925	38.37
770.103	39.66
770.281	41.38
770.459	41.11
770.636	42.74
770.814	41.6
770.992	42.21
771.17	42.26
771.348	42.81
771.525	44.46
771.703	43.49
771.881	43.63
772.059	43.31
772.236	43.55
772.414	42.73
772.592	40.12
772.769	40.81
772.947	41.74
773.125	40.9
773.302	40.26
773.48	40.52
773.657	41.4
773.835	40.78
774.013	41.21
774.19	41.09
774.368	42.9
774.545	46.05
774.723	46.75
774.9	45.43
775.077	47.57
775.255	47.78
775.432	46.37
775.61	47.03
775.787	48.83
775.964	47.77
776.142	46.21
776.319	45.19
776.496	42.24
776.674	40.99
776.851	41.69
777.028	38.66
777.205	39.1
777.382	40.11
777.56	39.35
777.737	38.72
777.914	38.16
778.091	39.54
778.268	40.99
778.445	42.66
778.622	42.58
778.8	42.72
778.977	43.23
779.154	41.73
779.331	43.1
779.508	42.42
779.685	43.42
779.862	45.85
780.038	46.05
780.215	44.33
780.392	44.36
780.569	43.01
780.746	42.2
780.923	42.78
781.1	45.59
781.277	44.67
781.453	46
781.63	43.49
781.807	43.39
781.984	43.28
782.16	43.32
782.337	43.3
782.514	45.58
782.691	44.68
782.867	45.44
783.044	43.07
783.221	42.17
783.397	40.95
783.574	42.19
783.75	40.68
783.927	40.3
784.103	39.19
784.28	39.28
784.456	38.89
784.633	42.52
784.809	42.55
784.986	44.09
785.162	44.92
785.339	43.64
785.515	42.91
785.692	42.88
785.868	44.26
786.044	46.39
786.221	45.65
786.397	46.73
786.573	44.17
786.749	41.45
786.926	40.26
787.102	42.39
787.278	45.05
787.454	46.07
787.631	45.01
787.807	43.56
787.983	44.84
788.159	44.02
788.335	44.26
788.511	44.18
788.687	43.78
788.863	46.57
789.039	44.63
789.216	43.1
789.392	43.46
789.568	44.21
789.744	45.24
789.919	43.69
790.095	44.37
790.271	43.1
790.447	43.94
790.623	44.94
790.799	43.25
790.975	44.2
791.151	45.2
791.327	45.21
791.502	44.83
791.678	44.84
791.854	45.87
792.03	46.58
792.205	45.95
792.381	44.28
792.557	46.61
792.733	46.19
792.908	45.19
793.084	45.74
793.259	46.22
793.435	46.01
793.611	46.93
793.786	46.59
793.962	45.48
794.137	47.04
794.313	46.39
794.488	45.54
794.664	45.52
794.839	46.48
795.015	46.75
795.19	46.09
795.366	46.42
795.541	43.54
795.716	42.13
795.892	42.74
796.067	43.33
796.242	44.22
796.418	43.06
796.593	43.37
796.768	43.76
796.944	41.54
797.119	40.67
797.294	40.35
797.469	40.23
797.644	40.83
797.82	41.62
797.995	40.34
798.17	43.66
798.345	43.95
798.52	43.97
798.695	45.54
798.87	44.16
799.045	43.85
799.22	44.51
799.395	48.45
799.57	46.25
799.745	43.96
799.92	43.22
800.095	39.28
800.27	38.82
800.445	37.42
800.62	34.78
800.795	35.07
800.97	36.14
801.145	33.37
801.319	32.3
801.494	35.06
801.669	35.53
801.844	37.02
802.018	38.64
802.193	39.46
802.368	40.22
802.543	40.55
802.717	44.21
802.892	44
803.067	47.73
803.241	48.71
803.416	47.6
803.59	49.09
803.765	46.54
803.94	45.4
804.114	43.64
804.289	45.33
804.463	46.26
804.638	47.07
804.812	45.69
804.986	46.08
805.161	42.28
805.335	43.57
805.51	45.05
805.684	45.52
805.858	44.92
806.033	47.67
806.207	48.28
806.381	46.01
806.556	44.68
806.73	42.59
806.904	41.94
807.078	44.21
807.253	43.77
807.427	40.5
807.601	42.64
807.775	43.28
807.949	42.56
808.123	42.6
808.298	43.11
808.472	42.51
808.646	45.75
808.82	46.95
808.994	46.13
809.168	47.24
809.342	52.29
809.516	49.79
809.69	49.83
809.864	50
810.038	45.62
810.212	46.7
810.385	45.22
810.559	45.42
810.733	42.53
810.907	41.94
811.081	42.4
811.255	38.97
811.428	40.18
811.602	39.34
811.776	39.57
811.95	40.77
812.123	43.29
812.297	43.83
812.471	45.12
812.644	45.82
812.818	47.14
812.992	43.92
813.165	46.6
813.339	48.31
813.512	49.6
813.686	50.83
813.86	52.18
814.033	49.64
814.207	50.43
814.38	51.09
814.554	51.58
814.727	50.84
814.9	53.62
815.074	51.6
815.247	50.07
815.421	49.49
815.594	47.49
815.767	51.82
815.941	48.45
816.114	49.06
816.287	45.81
816.46	44.13
816.634	43.5
816.807	39.35
816.98	41.85
817.153	43.73
817.327	44.71
817.5	42.71
817.673	40.15
817.846	43.29
818.019	40.15
818.192	44.08
818.365	48.66
818.538	47.81
818.711	49.96
818.884	47.29
819.057	43.74
819.23	42.88
819.403	45.68
819.576	41.62
819.749	41.92
819.922	41.98
820.095	40.61
820.268	39.91
820.441	40.53
820.614	41.43
820.786	41.72
820.959	40.8
821.132	42.25
821.305	41.84
821.477	41.43
821.65	40.76
821.823	40.36
821.996	39.83
822.168	39.37
822.341	38.97
822.514	38.47
822.686	39.09
822.859	40.17
823.031	39.43
823.204	39.82
823.376	40.64
823.549	40.98
823.722	41.82
823.894	41.84
824.067	41.74
824.239	41.76
824.411	41.73
824.584	41.54
824.756	41.48
824.929	41.98
825.101	40.7
825.273	40.21
825.446	40.32
825.618	40.55
825.79	40.73
825.963	40.81
826.135	41.56
826.307	41.62
826.479	40.89
826.652	40.52
826.824	40.79
826.996	42.15
827.168	42.42
827.34	41.76
827.512	41.47
827.684	40.9
827.856	40.63
828.029	40.53
828.201	40.63
828.373	41.89
828.545	42.03
828.717	40.95
828.889	41.75
829.061	42.12
829.232	42.11
829.404	41.66
829.576	42.68
829.748	43.22
829.92	43.54
830.092	44.7
830.264	44.57
830.436	44.98
830.607	47.19
830.779	46.01
830.951	46.95
831.123	48.6
831.294	50.62
831.466	48.61
831.638	49.13
831.809	49.18
831.981	48.97
832.153	48.36
832.324	48.45
832.496	45.59
832.667	45.61
832.839	41.3
833.011	39.92
833.182	38.78
833.354	40.7
833.525	39.68
833.697	39.33
833.868	38.4
834.039	38.96
834.211	38.27
834.382	38.25
834.554	39.44
834.725	42.63
834.896	42.25
835.068	42.18
835.239	41.95
835.41	42.9
835.581	42.7
835.753	43.04
835.924	42.6
836.095	44.45
836.266	46.25
836.438	44.93
836.609	42.18
836.78	42.78
836.951	42.34
837.122	43.87
837.293	45.06
837.464	46
837.635	47.46
837.806	47.49
837.977	45.78
838.148	42.34
838.319	41.95
838.49	43.17
838.661	42.85
838.832	43.5
839.003	41.56
839.174	39.1
839.345	38.95
839.516	36.22
839.687	38.08
839.857	38.44
840.028	42.75
840.199	45.48
840.37	49.44
840.54	50.46
840.711	50.51
840.882	50.01
841.053	46.66
841.223	46.59
841.394	47.81
841.564	41.63
841.735	39.26
841.906	37.42
842.076	33.15
842.247	32.98
842.417	32.84
842.588	34.34
842.758	36.93
842.929	41.38
843.099	39.25
843.27	38.95
843.44	44.87
843.611	48.43
843.781	50.4
843.951	51.96
844.122	44.62
844.292	38.12
844.462	38.83
844.633	36.93
844.803	36.72
844.973	42.2
845.144	41.95
845.314	36.84
845.484	32.15
845.654	33.52
845.824	29.73
845.995	34.34
846.165	38.46
846.335	29.5
846.505	30.16
846.675	30.94
846.845	33.53
847.015	37.44
847.185	45.86
847.355	50.45
847.525	47.55
847.695	45.32
847.865	46.02
848.035	47.5
848.205	51.02
848.375	50.07
848.545	56.38
848.715	48.33
848.884	41.68
849.054	39.66
849.224	37.82
849.394	37.12
849.564	44.69
849.733	43.68
849.903	47.45
850.073	53.8
850.243	49.41
850.412	43.92
850.582	45.45
850.752	47.55
850.921	47.76
851.091	50.71
851.26	46.41
851.43	38.95
851.599	36.77
851.769	34.23
851.939	29.76
852.108	35.62
852.278	35.15
852.447	35.82
852.616	28.98
852.786	24.71
852.955	20.98
853.125	23.96
853.294	27.65
853.463	29.04
853.633	25.79
853.802	30.46
853.971	27.85
854.141	21.14
854.31	22.84
854.479	22.19
854.648	24.65
854.818	28.9
854.987	28.83
855.156	32.41
855.325	33.67
855.494	36.96
855.663	35.66
855.832	30.78
856.001	35.12
856.171	29.07
856.34	33.9
856.509	34.47
856.678	38.53
856.847	42.97
857.016	42.29
857.185	47.42
857.353	50.42
857.522	50.09
857.691	48.43
857.86	50.59
858.029	59.32
858.198	58.7
858.367	59.37
858.535	44.2
858.704	46.04
858.873	50.92
859.042	50.06
859.21	54.96
859.379	49.67
859.548	47.79
859.717	53.25
859.885	56.88
860.054	59.86
860.222	63.1
860.391	64.1
860.56	60.2
860.728	60.81
860.897	68.03
861.065	63.61
861.234	61.24
861.402	66.35
861.571	63.17
861.739	57.35
861.908	58.91
862.076	52.99
862.244	62.04
862.413	68.34
862.581	66.78
862.749	51.26
862.918	56.9
863.086	60.07
863.254	66.56
863.423	70.43
863.591	64.02
863.759	58.27
863.927	62.03
864.096	61.21
864.264	54.89
864.432	52.89
864.6	58.95
864.768	37.95
864.936	37.28
865.104	33.04
865.272	31.01
865.44	26.5
865.608	24.02
865.776	27.57
865.944	27.71
866.112	30.25
866.28	31.96
866.448	32.14
866.616	40.85
866.784	45.09
866.952	45.77
867.12	38.2
867.288	43.63
867.455	50.12
867.623	43.22
867.791	41.82
867.959	45.58
868.127	39.32
868.294	37.8
868.462	44.71
868.63	43.83
868.797	45.41
868.965	54.37
869.133	59.49
869.3	61.68
869.468	62.4
869.636	56
869.803	53.26
869.971	69.37
870.138	73.55
870.306	63.01
870.473	55.71
870.641	59.73
870.808	59.21
870.975	50.9
871.143	45.97
871.31	48.72
871.478	55.18
871.645	50.74
871.812	43.4
871.98	34.75
872.147	40.42
872.314	47.95
872.482	29.71
872.649	20.92
872.816	24.78
872.983	34.5
873.15	35.96
873.318	38.04
873.485	46.72
873.652	41.07
873.819	43.05
873.986	46.55
874.153	46.4
874.32	56.71
874.487	60.6
874.654	66.29
874.821	70.78
874.988	72.28
875.155	65.13
875.322	55.68
875.489	57.36
875.656	61.8
875.823	65.29
875.99	66.1
876.157	58.96
876.324	60.98
876.49	60.61
876.657	54.1
876.824	59.41
876.991	68.28
877.157	73.97
877.324	72.57
877.491	54.93
877.658	47.23
877.824	47.1
877.991	48.48
878.157	53.54
878.324	53.2
878.491	41.84
878.657	41.09
878.824	41.96
878.99	40.88
879.157	43
879.323	50.96
879.49	51.75
879.656	47.87
879.823	47.2
879.989	39.81
880.156	32.81
880.322	35.31
880.488	34.75
880.655	32.7
880.821	29.99
880.987	35.34
881.154	36.67
881.32	36.56
881.486	40.5
881.652	38.38
881.819	40.51
881.985	44.28
882.151	45.33
882.317	43.72
882.483	44.01
882.649	47.46
882.816	44.34
882.982	42.4
883.148	40.47
883.314	40.07
883.48	39.49
883.646	38.27
883.812	37.39
883.978	36.39
884.144	37.61
884.31	37.8
884.476	38.59
884.642	39.6
884.807	39.86
884.973	41.99
885.139	42.68
885.305	44.03
885.471	44.46
885.637	43.47
885.802	45.89
885.968	46.44
886.134	47.02
886.3	44.35
886.465	43.28
886.631	44.9
886.797	45.07
886.962	45.56
887.128	47.71
887.293	49.75
887.459	53.43
887.625	54.21
887.79	51.01
887.956	48.27
888.121	50.64
888.287	53.47
888.452	52.3
888.618	51.41
888.783	48.69
