Data from CB_049_Reflection_3.txt Node
Date: Wed Nov 11 22:36:08 EST 2015
User: robert
Spectrometer: USB4E03001
Autoset integration time: false
Trigger mode: 4
Integration Time (sec): 1.000000E-1
Scans to average: 15
Electric dark correction enabled: true
Nonlinearity correction enabled: false
Boxcar width: 5
Stray light correction enabled: false
XAxis mode: Wavelengths
Stop averaging: false
Number of Pixels in Spectrum: 3648
>>>>>Begin Spectral Data<<<<<
177.566	42.79
177.785	-770.39
178.005	133.86
178.225	711.6
178.445	40.4
178.665	38.11
178.885	-211.44
179.105	5.62
179.324	99.44
179.544	89.52
179.764	71.85
179.984	57.69
180.204	61.54
180.423	71.14
180.643	57.09
180.863	85.4
181.083	78.01
181.302	65.58
181.522	66.32
181.742	53.79
181.961	59.45
182.181	65.18
182.401	78.22
182.621	58.56
182.84	46.55
183.06	50.61
183.279	35.56
183.499	48.15
183.719	48.41
183.938	67.91
184.158	89.54
184.377	79.31
184.597	78.56
184.816	68.4
185.036	67.16
185.256	85.6
185.475	91.13
185.695	95.51
185.914	49.32
186.134	68.09
186.353	52.91
186.572	28.63
186.792	24.3
187.011	28.63
187.231	35.89
187.45	42.24
187.67	20.4
187.889	3.68
188.108	29.84
188.328	36.93
188.547	22.37
188.766	7.73
188.986	-32.59
189.205	-21.26
189.424	-1.87
189.644	-44.63
189.863	-20.17
190.082	-1.38
190.302	0.33
190.521	-6.04
190.74	20.59
190.959	30.78
191.178	40.48
191.398	57.38
191.617	61.61
191.836	48.1
192.055	60.18
192.274	48.94
192.494	60.42
192.713	79.47
192.932	76.79
193.151	58
193.37	68.57
193.589	77.46
193.808	76.32
194.027	70.83
194.246	76.68
194.465	78.44
194.685	85.39
194.904	71.7
195.123	65.61
195.342	46.18
195.561	65.52
195.78	76.71
195.999	92.98
196.218	85.87
196.436	81.37
196.655	108.61
196.874	124.1
197.093	116.53
197.312	90
197.531	70.54
197.75	83.44
197.969	98.35
198.188	59.07
198.407	59.51
198.625	41.24
198.844	30.41
199.063	31.78
199.282	16.89
199.501	34.54
199.719	24.86
199.938	30.2
200.157	27.12
200.376	37.76
200.594	116.41
200.813	90.16
201.032	142.67
201.251	247.65
201.469	188.57
201.688	177.65
201.907	113.81
202.125	101.15
202.344	110.81
202.563	115.64
202.781	106.95
203	74.82
203.218	76.82
203.437	73.97
203.656	55.51
203.874	43.24
204.093	46
204.311	53.61
204.53	54
204.748	39.53
204.967	39.52
205.185	32.36
205.404	39.79
205.622	46.01
205.841	44.22
206.059	27.17
206.278	53.98
206.496	47.81
206.715	36.76
206.933	41
207.151	46.84
207.37	39.74
207.588	31.36
207.806	31.45
208.025	24.87
208.243	15.8
208.461	37.19
208.68	26.75
208.898	41.94
209.116	43.91
209.335	39.66
209.553	35.51
209.771	46.76
209.989	57.36
210.208	51.36
210.426	56.45
210.644	72.91
210.862	59.48
211.081	75.26
211.299	66.19
211.517	92.25
211.735	90.77
211.953	110.1
212.171	114.78
212.39	110.5
212.608	115.16
212.826	102.74
213.044	96.79
213.262	91.42
213.48	91.3
213.698	68.12
213.916	75.25
214.134	66.22
214.352	20.59
214.57	16.43
214.788	30.59
215.006	19.89
215.224	14
215.442	0.87
215.66	-4.35
215.878	15.06
216.096	51.4
216.314	29.45
216.532	38.95
216.75	49.51
216.968	66.99
217.185	51.57
217.403	53.79
217.621	53.44
217.839	55.44
218.057	51.29
218.275	58.34
218.492	52.46
218.71	56.92
218.928	56.1
219.146	54.56
219.363	48.32
219.581	53.13
219.799	43.6
220.017	60.43
220.234	47.28
220.452	39.63
220.67	26.12
220.887	6.77
221.105	-2.35
221.323	-26.44
221.54	-20.81
221.758	-1.41
221.976	-8.18
222.193	7.77
222.411	-5.32
222.629	0.85
222.846	2.31
223.064	3.2
223.281	25.4
223.499	16.02
223.716	33.85
223.934	39.92
224.151	33.54
224.369	37.79
224.586	32.31
224.804	45.43
225.021	39.31
225.239	32.51
225.456	35.15
225.674	24.57
225.891	42.99
226.108	33.75
226.326	21.05
226.543	20.58
226.76	22.73
226.978	23.91
227.195	22.48
227.413	14.95
227.63	25.73
227.847	22.74
228.064	20.47
228.282	15.18
228.499	15.37
228.716	17.57
228.934	16.75
229.151	10.49
229.368	9.8
229.585	8.99
229.802	9.65
230.02	5.4
230.237	5.42
230.454	6.77
230.671	6.03
230.888	4.15
231.105	4.69
231.323	6.26
231.54	16.15
231.757	14.76
231.974	13.52
232.191	12.98
232.408	17
232.625	17.74
232.842	15.65
233.059	18.02
233.276	20.01
233.493	19.27
233.71	19.56
233.927	12.57
234.144	16.06
234.361	15.24
234.578	18.87
234.795	18.43
235.012	19.43
235.229	21.88
235.446	26.77
235.663	23.93
235.879	19.45
236.096	16.99
236.313	17.56
236.53	21.14
236.747	26.41
236.964	24
237.181	24.5
237.397	18.97
237.614	19.26
237.831	15.21
238.048	18.75
238.264	23.4
238.481	21.91
238.698	22.02
238.915	20.26
239.131	14.4
239.348	13.68
239.565	11.98
239.781	13.49
239.998	10.73
240.215	11.08
240.431	10.82
240.648	11.87
240.865	9.75
241.081	12.17
241.298	10.53
241.514	11.56
241.731	14.88
241.947	13.5
242.164	15.97
242.38	16.17
242.597	14.91
242.814	14.63
243.03	15.18
243.246	16.56
243.463	14.87
243.679	15.1
243.896	16.55
244.112	15.15
244.329	18.32
244.545	14.78
244.762	14.35
244.978	15.22
245.194	14.75
245.411	12.35
245.627	11.89
245.843	13.68
246.06	13.41
246.276	11.08
246.492	10.85
246.709	10.01
246.925	11.44
247.141	12.48
247.357	11.68
247.574	11.94
247.79	12.44
248.006	12.7
248.222	12.77
248.439	12.58
248.655	14.49
248.871	13.98
249.087	13.71
249.303	13.67
249.519	13.19
249.736	13.97
249.952	13.66
250.168	13.98
250.384	13.66
250.6	12.67
250.816	12.36
251.032	10.5
251.248	11.93
251.464	11.36
251.68	10.7
251.896	9.58
252.112	9.06
252.328	8.73
252.544	9.3
252.76	8.68
252.976	9.86
253.192	10.03
253.408	10.01
253.624	9.54
253.84	10.68
254.056	11.31
254.272	16.56
254.487	17.07
254.703	16.95
254.919	15.32
255.135	17.19
255.351	15.66
255.567	16.07
255.782	17.35
255.998	17.66
256.214	14.44
256.43	15.44
256.646	10.48
256.861	12.98
257.077	13.86
257.293	14.08
257.508	13.33
257.724	12.99
257.94	12.4
258.155	10.98
258.371	10.17
258.587	11.39
258.802	11.28
259.018	11.57
259.234	9.84
259.449	9.96
259.665	9.99
259.88	9.36
260.096	9.69
260.312	9.82
260.527	10.04
260.743	10.2
260.958	10.32
261.174	10.04
261.389	9.86
261.605	10.42
261.82	10.21
262.036	10.23
262.251	12.83
262.466	12.81
262.682	12.93
262.897	13.35
263.113	13.35
263.328	11.18
263.543	10.85
263.759	9.37
263.974	9.7
264.189	10.84
264.405	8.63
264.62	6.53
264.835	5.05
265.051	4.75
265.266	4.52
265.481	5.46
265.696	7.12
265.912	7.64
266.127	10.94
266.342	10.62
266.557	10.15
266.773	10.53
266.988	10.61
267.203	9.83
267.418	10.35
267.633	10.94
267.848	10.27
268.064	11.1
268.279	11.28
268.494	9.74
268.709	10.12
268.924	10.56
269.139	11.34
269.354	12.29
269.569	12.97
269.784	12.99
269.999	12.58
270.214	12.88
270.429	12.38
270.644	12.11
270.859	12.31
271.074	12.22
271.289	12.22
271.504	13.15
271.719	11.93
271.934	11.2
272.149	11.02
272.363	10.77
272.578	11.18
272.793	11.12
273.008	10.62
273.223	10.26
273.438	10.71
273.653	11.01
273.867	10.77
274.082	10.42
274.297	11.84
274.512	12.12
274.726	10.95
274.941	10.91
275.156	11.78
275.371	11.95
275.585	12.77
275.8	11.79
276.015	10.77
276.229	10.92
276.444	10.79
276.659	10.55
276.873	11.11
277.088	12.62
277.302	12.38
277.517	12.12
277.732	13.42
277.946	13.47
278.161	14.42
278.375	15.12
278.59	14.82
278.804	13.92
279.019	12.51
279.233	11.76
279.448	10.48
279.662	9.82
279.877	9.73
280.091	8.62
280.306	8.09
280.52	6.13
280.735	5.74
280.949	6.04
281.163	7.23
281.378	8.09
281.592	7.16
281.806	8.19
282.021	7.92
282.235	7.9
282.449	7.1
282.664	5.64
282.878	5.18
283.092	4.52
283.307	4.11
283.521	3.23
283.735	3.77
283.949	4.91
284.164	5.79
284.378	6.77
284.592	6.59
284.806	8.61
285.02	9.53
285.234	11.32
285.449	12.21
285.663	12.08
285.877	12.56
286.091	12.57
286.305	11.75
286.519	11.66
286.733	11.33
286.947	11.71
287.161	11.27
287.375	11.46
287.589	10.71
287.803	9.89
288.017	9.19
288.231	9.4
288.445	9.09
288.659	9.93
288.873	9.3
289.087	9.25
289.301	9.47
289.515	9.17
289.729	9.36
289.943	9.42
290.157	9.9
290.371	10.27
290.584	11.03
290.798	10.96
291.012	11.17
291.226	12.07
291.44	12.45
291.654	12.55
291.867	13
292.081	12.75
292.295	13.52
292.509	12.56
292.722	12.49
292.936	11.82
293.15	12.85
293.364	12.3
293.577	11.72
293.791	11.43
294.005	9.53
294.218	9.44
294.432	11.77
294.645	11.92
294.859	11.86
295.073	11.72
295.286	11.46
295.5	10.21
295.713	10.85
295.927	10.13
296.14	9.73
296.354	11.02
296.568	10.53
296.781	8.86
296.994	8.45
297.208	10.1
297.421	10.27
297.635	10.51
297.848	10.4
298.062	9.67
298.275	11.15
298.489	11.7
298.702	11.3
298.915	12.13
299.129	13.08
299.342	13.56
299.555	13.67
299.769	14.54
299.982	14.69
300.195	15.96
300.409	16.82
300.622	15.98
300.835	15.42
301.048	15.73
301.262	15.27
301.475	14.65
301.688	14.67
301.901	13.48
302.115	13.4
302.328	14.32
302.541	14.36
302.754	14.69
302.967	13.85
303.18	15.6
303.393	15.39
303.607	15.29
303.82	15.89
304.033	15.42
304.246	14.56
304.459	15.1
304.672	13.93
304.885	13.65
305.098	12.7
305.311	14.63
305.524	13.38
305.737	14.06
305.95	14.75
306.163	14.04
306.376	14.43
306.589	15.31
306.802	15.19
307.015	16.13
307.228	16.76
307.44	17.76
307.653	16.78
307.866	16.9
308.079	16.17
308.292	14.99
308.505	15.18
308.718	14.4
308.93	14.61
309.143	13.74
309.356	12.96
309.569	12.01
309.781	11.32
309.994	11.25
310.207	11.04
310.42	11.23
310.632	12.27
310.845	12.85
311.058	13.57
311.27	14.03
311.483	14.18
311.696	14.55
311.908	15.51
312.121	16.12
312.333	15.47
312.546	15.54
312.759	15.94
312.971	16.1
313.184	15.66
313.396	15.09
313.609	14.63
313.821	14.33
314.034	14.54
314.246	14.23
314.459	14.29
314.671	15
314.884	16.33
315.096	16.68
315.309	14.9
315.521	14.49
315.733	15.1
315.946	14.61
316.158	14.91
316.371	14.4
316.583	13.12
316.795	12.81
317.008	13.74
317.22	13.32
317.432	12.85
317.644	14.62
317.857	15.24
318.069	15.42
318.281	14.24
318.494	14.42
318.706	15.76
318.918	17.13
319.13	18.08
319.342	17.01
319.555	16.01
319.767	16.39
319.979	15.94
320.191	14.89
320.403	15.24
320.615	16.7
320.827	16.46
321.039	15.6
321.252	15.1
321.464	14.29
321.676	14.01
321.888	15.02
322.1	15.01
322.312	15.39
322.524	17.31
322.736	16.97
322.948	16.69
323.16	17.18
323.372	17.3
323.584	17.53
323.796	16.64
324.007	16.87
324.219	17.26
324.431	17.1
324.643	16.95
324.855	17.31
325.067	17.73
325.279	18.89
325.491	19.8
325.702	19.29
325.914	19.98
326.126	21.39
326.338	20.79
326.55	21.02
326.761	21.95
326.973	22.95
327.185	22.61
327.396	22.23
327.608	21.24
327.82	21.01
328.032	22.4
328.243	22.17
328.455	22.64
328.666	24.47
328.878	23.84
329.09	23.08
329.301	21.62
329.513	21.1
329.725	21.11
329.936	22.53
330.148	22.17
330.359	21.48
330.571	21.7
330.782	21.11
330.994	20.81
331.205	21.59
331.417	23.1
331.628	23.83
331.84	23.25
332.051	24.02
332.262	24.57
332.474	24.54
332.685	25.27
332.897	24.96
333.108	25.93
333.319	26.97
333.531	27.69
333.742	27.29
333.953	27.81
334.165	29.09
334.376	30.03
334.587	29.48
334.799	29.98
335.01	30.24
335.221	30.88
335.432	30.82
335.644	30.35
335.855	30.4
336.066	30.69
336.277	31.43
336.488	30.98
336.7	30.2
336.911	30.35
337.122	30.95
337.333	30.78
337.544	30.96
337.755	30.6
337.966	30.32
338.177	29.99
338.388	29.18
338.599	29.43
338.811	29.78
339.022	30.54
339.233	30.68
339.444	30.41
339.655	30.74
339.866	30.74
340.076	30.55
340.287	31.29
340.498	31.23
340.709	32.17
340.92	31.79
341.131	32.33
341.342	31.77
341.553	31.94
341.764	31.55
341.975	31.25
342.185	31.11
342.396	31.21
342.607	30.53
342.818	29.65
343.029	28.65
343.239	28.19
343.45	27.75
343.661	27.41
343.872	26.76
344.082	26.89
344.293	27.13
344.504	27.17
344.714	27.93
344.925	28.1
345.136	28.74
345.346	29.57
345.557	29.56
345.768	29.21
345.978	29.94
346.189	30.54
346.399	30.18
346.61	30.01
346.821	30.4
347.031	30.05
347.242	30.05
347.452	30.14
347.663	29.99
347.873	29.87
348.084	30.33
348.294	29.99
348.504	29.59
348.715	30.23
348.925	30
349.136	29.25
349.346	28.81
349.557	28.75
349.767	28.91
349.977	28.31
350.188	28.54
350.398	27.66
350.608	27.63
350.819	27.75
351.029	27.33
351.239	27.12
351.449	27.43
351.66	27.21
351.87	27.63
352.08	27.3
352.29	27.19
352.501	27.39
352.711	28.91
352.921	28.95
353.131	28.93
353.341	29.12
353.552	29.77
353.762	29.69
353.972	30.5
354.182	29.69
354.392	29.62
354.602	29.65
354.812	28.91
355.022	27.72
355.232	27.61
355.442	27.85
355.652	27.84
355.862	27.6
356.072	27.6
356.282	27.56
356.492	28.02
356.702	27.84
356.912	28.03
357.122	28.59
357.332	29.95
357.542	30.41
357.752	29.92
357.962	29.71
358.171	29.77
358.381	29.63
358.591	28.7
358.801	28.19
359.011	27.87
359.221	28.07
359.43	28.01
359.64	26.74
359.85	26.22
360.06	25.88
360.269	26.27
360.479	26.45
360.689	26.53
360.899	26.89
361.108	27.38
361.318	27.67
361.528	27.73
361.737	27.48
361.947	27.59
362.156	27.26
362.366	27.98
362.576	27.66
362.785	27.4
362.995	27.59
363.204	27.79
363.414	27.59
363.623	27.63
363.833	27.12
364.042	26.6
364.252	27.1
364.461	27.18
364.671	26.97
364.88	27.04
365.09	26.37
365.299	26.05
365.509	25.79
365.718	25.98
365.927	26.05
366.137	25.75
366.346	26.57
366.555	26.32
366.765	26.21
366.974	26.65
367.183	26.64
367.393	27.26
367.602	27.46
367.811	27.39
368.021	26.9
368.23	26.73
368.439	26.98
368.648	26.87
368.857	25.92
369.067	25.96
369.276	25.11
369.485	25.18
369.694	24.94
369.903	24.26
370.112	23.61
370.321	24.38
370.531	24.14
370.74	24.11
370.949	23.9
371.158	23.95
371.367	23.87
371.576	23.87
371.785	23.5
371.994	23.52
372.203	23.36
372.412	23.87
372.621	23.05
372.83	22.68
373.039	22.52
373.248	22.26
373.457	22.56
373.666	22.73
373.874	22.71
374.083	21.92
374.292	21.06
374.501	21.38
374.71	21.44
374.919	21.61
375.128	22.17
375.336	21.97
375.545	21.37
375.754	21.18
375.963	20.67
376.171	20.4
376.38	20.35
376.589	20.79
376.798	20.09
377.006	19.55
377.215	19.38
377.424	18.97
377.632	18.92
377.841	19.01
378.05	18.8
378.258	18.61
378.467	18.39
378.675	18.64
378.884	18.56
379.093	18.9
379.301	19.06
379.51	19.18
379.718	19.21
379.927	19.01
380.135	18.92
380.344	18.67
380.552	18.88
380.761	18.72
380.969	18.64
381.177	18.53
381.386	17.95
381.594	17.79
381.803	17.29
382.011	17.04
382.219	17.05
382.428	17.24
382.636	17.5
382.845	17.89
383.053	17.86
383.261	17.51
383.469	17.2
383.678	16.94
383.886	16.84
384.094	16.89
384.302	17.22
384.511	17.23
384.719	17
384.927	17.04
385.135	16.52
385.343	16.54
385.552	16.88
385.76	16.97
385.968	17.15
386.176	16.94
386.384	16.74
386.592	16.44
386.8	16.37
387.008	16.45
387.216	16.17
387.424	16.16
387.633	15.99
387.841	15.8
388.049	15.8
388.257	15.9
388.465	15.84
388.672	15.71
388.88	15.69
389.088	15.65
389.296	15.45
389.504	15.13
389.712	14.82
389.92	14.75
390.128	14.32
390.336	13.72
390.544	13.91
390.751	13.85
390.959	13.89
391.167	13.66
391.375	13.4
391.583	13.49
391.79	13.48
391.998	13.54
392.206	13.5
392.414	13.74
392.621	13.58
392.829	13.35
393.037	13.28
393.244	13.22
393.452	13.38
393.66	13.35
393.867	13.29
394.075	13.33
394.283	13.45
394.49	13.58
394.698	13.74
394.905	14.19
395.113	13.8
395.32	13.65
395.528	13.73
395.735	13.63
395.943	13.75
396.15	13.76
396.358	14.02
396.565	13.91
396.773	13.69
396.98	13.52
397.188	13.5
397.395	13.72
397.602	13.99
397.81	14.07
398.017	13.68
398.225	13.16
398.432	13.18
398.639	12.84
398.847	12.53
399.054	12.39
399.261	12.11
399.468	12.23
399.676	12.06
399.883	11.91
400.09	11.52
400.297	11.49
400.505	11.52
400.712	11.35
400.919	11.33
401.126	11.51
401.333	11.6
401.54	11.41
401.748	10.94
401.955	11.11
402.162	11.15
402.369	11.25
402.576	11.22
402.783	11.48
402.99	10.95
403.197	10.67
403.404	10.57
403.611	10.74
403.818	10.92
404.025	10.89
404.232	10.79
404.439	10.67
404.646	10.34
404.853	10.24
405.06	10.23
405.267	10.52
405.474	10.54
405.681	10.31
405.887	10.24
406.094	10.3
406.301	10.34
406.508	10.06
406.715	9.96
406.922	10.21
407.128	10.75
407.335	10.76
407.542	10.63
407.749	10.61
407.955	10.96
408.162	10.59
408.369	10.12
408.575	10.04
408.782	10.63
408.989	10.79
409.195	10.58
409.402	9.97
409.609	9.74
409.815	9.6
410.022	9.83
410.228	9.63
410.435	9.81
410.642	10.21
410.848	10.24
411.055	10.02
411.261	9.8
411.468	9.89
411.674	9.93
411.881	9.91
412.087	10.21
412.294	10.19
412.5	10.51
412.706	10.26
412.913	9.97
413.119	10.02
413.326	9.92
413.532	9.99
413.738	10.04
413.945	9.83
414.151	9.83
414.357	9.66
414.564	9.5
414.77	9.18
414.976	9.4
415.182	9.51
415.389	9.19
415.595	9.03
415.801	8.86
416.007	8.49
416.214	8.52
416.42	8.55
416.626	8.65
416.832	8.53
417.038	8.62
417.244	8.65
417.45	8.56
417.657	8.76
417.863	8.99
418.069	8.97
418.275	9.24
418.481	9.39
418.687	9.46
418.893	9.36
419.099	9.51
419.305	9.38
419.511	9.27
419.717	9.38
419.923	9.27
420.129	9.16
420.335	9.21
420.541	9.2
420.746	8.95
420.952	8.76
421.158	8.68
421.364	8.6
421.57	8.43
421.776	8.4
421.982	8.23
422.187	8.3
422.393	8.28
422.599	8.23
422.805	8.16
423.01	8.27
423.216	8.26
423.422	8.23
423.628	8.08
423.833	8.15
424.039	8.2
424.245	8.27
424.45	8.24
424.656	8.21
424.862	8.18
425.067	8.25
425.273	8.37
425.478	8.42
425.684	8.59
425.889	8.61
426.095	8.77
426.301	8.85
426.506	8.88
426.712	8.7
426.917	8.7
427.123	8.61
427.328	8.3
427.533	8.08
427.739	8.09
427.944	7.9
428.15	7.97
428.355	7.82
428.561	7.66
428.766	7.73
428.971	8.1
429.177	8.21
429.382	8.26
429.587	8.52
429.793	8.64
429.998	8.48
430.203	8.35
430.408	8.46
430.614	8.42
430.819	8.28
431.024	8.16
431.229	8.24
431.434	8.09
431.64	8.31
431.845	8.29
432.05	8.39
432.255	8.36
432.46	8.54
432.665	8.4
432.87	8.61
433.076	8.9
433.281	8.98
433.486	8.75
433.691	8.76
433.896	8.76
434.101	8.7
434.306	8.67
434.511	8.65
434.716	8.62
434.921	8.78
435.126	8.59
435.331	8.29
435.535	8.06
435.74	7.98
435.945	7.89
436.15	7.92
436.355	8.14
436.56	8.17
436.765	8.1
436.97	8.08
437.174	7.9
437.379	7.95
437.584	7.99
437.789	8.06
437.993	8.18
438.198	8.17
438.403	8.14
438.608	7.84
438.812	7.63
439.017	7.88
439.222	7.87
439.426	7.88
439.631	7.86
439.836	7.9
440.04	7.73
440.245	7.63
440.45	7.64
440.654	7.61
440.859	7.63
441.063	7.63
441.268	7.57
441.472	7.62
441.677	7.68
441.881	7.69
442.086	7.68
442.29	7.93
442.495	7.98
442.699	8.01
442.904	7.91
443.108	7.93
443.312	8.09
443.517	7.99
443.721	7.99
443.925	7.8
444.13	7.71
444.334	7.61
444.538	7.42
444.743	7.37
444.947	7.28
445.151	7.16
445.356	7.28
445.56	7.11
445.764	7.27
445.968	7.21
446.173	7.3
446.377	7.32
446.581	7.37
446.785	7.44
446.989	7.41
447.193	7.57
447.398	7.61
447.602	7.38
447.806	7.41
448.01	7.34
448.214	7.32
448.418	7.25
448.622	7.16
448.826	7.11
449.03	7.12
449.234	7.25
449.438	7.13
449.642	7.22
449.846	7.48
450.05	7.62
450.254	7.73
450.458	7.81
450.662	7.92
450.866	7.92
451.069	7.9
451.273	7.76
451.477	7.58
451.681	7.66
451.885	7.56
452.089	7.34
452.292	7.3
452.496	7.12
452.7	7.09
452.904	7.14
453.107	7.58
453.311	7.38
453.515	7.38
453.719	7.52
453.922	7.45
454.126	7.52
454.33	7.59
454.533	7.48
454.737	7.56
454.94	7.55
455.144	7.39
455.348	7.02
455.551	7.18
455.755	7.24
455.958	7.09
456.162	7.07
456.365	7.01
456.569	7.09
456.772	7.05
456.976	6.93
457.179	6.95
457.383	6.98
457.586	7.02
457.79	7.02
457.993	6.88
458.196	6.87
458.4	6.7
458.603	6.62
458.807	6.69
459.01	6.88
459.213	6.92
459.417	6.93
459.62	7.01
459.823	6.91
460.026	7
460.23	7.14
460.433	7.27
460.636	7.37
460.839	7.51
461.042	7.46
461.246	7.4
461.449	7.48
461.652	7.51
461.855	7.56
462.058	7.73
462.261	7.65
462.464	7.65
462.668	7.45
462.871	7.5
463.074	7.2
463.277	7.08
463.48	7.26
463.683	7.3
463.886	7.37
464.089	7.38
464.292	7.21
464.495	7.17
464.698	7.11
464.901	7.19
465.104	7.15
465.306	7.38
465.509	7.58
465.712	7.39
465.915	7.33
466.118	7.26
466.321	7.2
466.524	7.3
466.726	7.42
466.929	7.54
467.132	7.53
467.335	7.62
467.538	7.67
467.74	7.54
467.943	7.45
468.146	7.38
468.348	7.31
468.551	7.23
468.754	7.28
468.956	7.31
469.159	7.26
469.362	7.16
469.564	7.22
469.767	7.08
469.969	7.15
470.172	7.11
470.375	7.07
470.577	7.18
470.78	7.27
470.982	7.16
471.185	7.2
471.387	7.13
471.59	7.24
471.792	7.15
471.995	7.18
472.197	7.31
472.399	7.44
472.602	7.52
472.804	7.61
473.007	7.57
473.209	7.56
473.411	7.61
473.614	7.55
473.816	7.36
474.018	7.44
474.22	7.62
474.423	7.45
474.625	7.38
474.827	7.44
475.03	7.43
475.232	7.39
475.434	7.32
475.636	7.15
475.838	7.34
476.04	7.42
476.243	7.25
476.445	7.22
476.647	7.32
476.849	7.44
477.051	7.37
477.253	7.22
477.455	7.25
477.657	7.28
477.859	7.48
478.061	7.51
478.263	7.66
478.465	7.88
478.667	7.69
478.869	7.65
479.071	7.64
479.273	7.67
479.475	7.77
479.677	7.75
479.879	7.86
480.081	7.89
480.283	7.77
480.485	7.84
480.686	7.68
480.888	7.65
481.09	7.69
481.292	7.68
481.494	7.74
481.695	7.6
481.897	7.63
482.099	7.56
482.301	7.4
482.502	7.4
482.704	7.37
482.906	7.35
483.107	7.4
483.309	7.23
483.511	7.16
483.712	7.11
483.914	7.11
484.115	7.1
484.317	7.07
484.519	7.1
484.72	7.13
484.922	7.01
485.123	7.05
485.325	6.99
485.526	7.07
485.728	7.09
485.929	7.11
486.131	7.11
486.332	7.06
486.534	7.09
486.735	7.01
486.936	7.04
487.138	7.13
487.339	7.05
487.541	7.1
487.742	7.15
487.943	7.17
488.144	7.17
488.346	7.12
488.547	7.18
488.748	7.14
488.95	7.15
489.151	7
489.352	6.95
489.553	7
489.755	6.98
489.956	6.96
490.157	6.92
490.358	6.95
490.559	6.97
490.76	6.96
490.961	6.99
491.163	7.07
491.364	7.18
491.565	7.23
491.766	7.34
491.967	7.36
492.168	7.32
492.369	7.36
492.57	7.23
492.771	7.23
492.972	7.17
493.173	7.11
493.374	7.08
493.575	7.02
493.776	6.93
493.976	6.81
494.177	6.89
494.378	6.96
494.579	6.95
494.78	7.14
494.981	7.09
495.182	7.18
495.382	7.43
495.583	7.53
495.784	7.71
495.985	7.82
496.185	7.87
496.386	7.66
496.587	7.6
496.788	7.57
496.988	7.51
497.189	7.61
497.39	7.65
497.59	7.64
497.791	7.6
497.992	7.52
498.192	7.6
498.393	7.39
498.593	7.69
498.794	7.7
498.994	7.77
499.195	7.86
499.395	8.13
499.596	8.15
499.796	7.98
499.997	8.15
500.197	8.31
500.398	8.32
500.598	8.41
500.799	8.18
500.999	8.26
501.199	8.27
501.4	8.42
501.6	8.18
501.801	8.3
502.001	8.39
502.201	8.41
502.402	8.35
502.602	8.22
502.802	8.48
503.002	8.66
503.203	8.7
503.403	8.63
503.603	8.71
503.803	9.03
504.003	8.97
504.204	9.18
504.404	9.42
504.604	9.26
504.804	9.54
505.004	9.52
505.204	9.6
505.404	9.65
505.604	9.85
505.804	9.81
506.005	9.67
506.205	9.76
506.405	9.79
506.605	9.58
506.805	9.92
507.005	10.05
507.204	10.1
507.404	10.23
507.604	10.42
507.804	10.57
508.004	10.64
508.204	10.79
508.404	10.96
508.604	11
508.804	11.2
509.003	11.33
509.203	11.3
509.403	11.43
509.603	11.52
509.803	11.48
510.002	11.55
510.202	11.65
510.402	11.78
510.602	11.88
510.801	12.03
511.001	12.12
511.201	12.1
511.4	12.12
511.6	12.38
511.8	12.5
511.999	12.65
512.199	12.56
512.398	12.78
512.598	12.92
512.797	13.06
512.997	13.23
513.197	13.27
513.396	13.38
513.596	13.63
513.795	13.59
513.994	13.68
514.194	13.8
514.393	14.08
514.593	14.06
514.792	14.07
514.992	14.22
515.191	14.4
515.39	14.54
515.59	14.77
515.789	14.83
515.988	14.96
516.188	14.95
516.387	15.17
516.586	15.6
516.786	15.85
516.985	15.96
517.184	15.93
517.383	16.1
517.582	16.2
517.782	16.3
517.981	16.45
518.18	16.61
518.379	16.87
518.578	17.04
518.777	16.96
518.976	17.03
519.176	17.09
519.375	17.35
519.574	17.44
519.773	17.66
519.972	17.8
520.171	18.04
520.37	18.25
520.569	18.37
520.768	18.47
520.967	18.71
521.166	18.87
521.365	19.23
521.564	19.37
521.762	19.43
521.961	19.52
522.16	19.76
522.359	19.73
522.558	19.92
522.757	20.05
522.956	20.2
523.154	20.35
523.353	20.52
523.552	20.67
523.751	20.73
523.949	21.08
524.148	21.33
524.347	21.55
524.546	21.87
524.744	21.91
524.943	22.12
525.142	22.2
525.34	22.28
525.539	22.43
525.737	22.51
525.936	22.73
526.135	23.02
526.333	23.18
526.532	23.26
526.73	23.4
526.929	23.58
527.127	23.72
527.326	23.97
527.524	24.2
527.723	24.33
527.921	24.52
528.12	24.65
528.318	24.71
528.516	24.76
528.715	24.84
528.913	24.92
529.112	25.05
529.31	25.06
529.508	25.12
529.707	25.12
529.905	25.18
530.103	25.22
530.301	25.27
530.5	25.29
530.698	25.47
530.896	25.71
531.094	25.9
531.293	25.95
531.491	26.31
531.689	26.54
531.887	26.74
532.085	27.15
532.283	27.28
532.481	27.43
532.68	27.51
532.878	27.46
533.076	27.55
533.274	27.69
533.472	27.84
533.67	27.9
533.868	27.92
534.066	28.15
534.264	28.12
534.462	28.31
534.66	28.43
534.858	28.52
535.056	28.82
535.253	28.95
535.451	29.04
535.649	29.13
535.847	29.26
536.045	29.41
536.243	29.46
536.441	29.54
536.638	29.64
536.836	29.74
537.034	29.83
537.232	29.88
537.43	29.88
537.627	29.89
537.825	30.09
538.023	30.04
538.22	30.07
538.418	30.16
538.616	30.07
538.813	30.25
539.011	30.27
539.209	30.48
539.406	30.56
539.604	30.8
539.801	30.94
539.999	30.96
540.196	31.14
540.394	31.26
540.591	31.25
540.789	31.41
540.986	31.29
541.184	31.34
541.381	31.36
541.579	31.45
541.776	31.36
541.974	31.38
542.171	31.38
542.368	31.45
542.566	31.54
542.763	31.63
542.96	31.68
543.158	31.79
543.355	31.97
543.552	32.06
543.75	32.12
543.947	32.25
544.144	32.34
544.341	32.44
544.539	32.44
544.736	32.41
544.933	32.49
545.13	32.62
545.327	32.78
545.524	32.68
545.722	32.63
545.919	32.65
546.116	32.65
546.313	32.79
546.51	32.87
546.707	32.97
546.904	33.15
547.101	33.34
547.298	33.47
547.495	33.28
547.692	33.39
547.889	33.44
548.086	33.5
548.283	33.68
548.48	33.69
548.677	33.77
548.874	33.9
549.07	34.03
549.267	33.92
549.464	34.04
549.661	34.5
549.858	34.68
550.055	34.91
550.251	34.76
550.448	34.86
550.645	34.79
550.842	34.79
551.038	34.69
551.235	34.54
551.432	34.58
551.628	34.58
551.825	34.4
552.022	34.46
552.218	34.55
552.415	34.93
552.612	34.99
552.808	35.27
553.005	35.43
553.201	35.62
553.398	35.57
553.594	35.64
553.791	35.66
553.987	35.79
554.184	35.71
554.38	35.73
554.577	35.75
554.773	35.8
554.97	35.79
555.166	35.6
555.362	35.68
555.559	35.87
555.755	35.74
555.952	35.59
556.148	35.82
556.344	36.02
556.541	36.04
556.737	36.08
556.933	36.21
557.129	36.17
557.326	36.33
557.522	36.09
557.718	36.09
557.914	36.33
558.11	36.58
558.307	36.54
558.503	36.44
558.699	36.71
558.895	36.42
559.091	36.45
559.287	36.59
559.483	36.56
559.679	36.8
559.876	37.13
560.072	37.17
560.268	37.15
560.464	37.09
560.66	37.25
560.856	37.08
561.052	37.2
561.247	36.81
561.443	36.68
561.639	36.85
561.835	37.1
562.031	36.68
562.227	36.73
562.423	36.67
562.619	36.55
562.815	36.37
563.01	36.26
563.206	36.49
563.402	36.89
563.598	36.96
563.793	36.84
563.989	36.64
564.185	36.96
564.381	36.85
564.576	37.06
564.772	37.22
564.968	37.29
565.163	37.3
565.359	37.12
565.555	37.22
565.75	37.29
565.946	37.39
566.141	37.33
566.337	37.09
566.532	37.35
566.728	37.12
566.923	37.06
567.119	37.08
567.314	37.3
567.51	37.47
567.705	37.31
567.901	37.25
568.096	37.32
568.292	37.34
568.487	37.33
568.682	37.16
568.878	37.42
569.073	37.56
569.268	37.69
569.464	37.47
569.659	37.37
569.854	37.35
570.05	37.6
570.245	37.68
570.44	37.87
570.635	38.07
570.831	38.13
571.026	38.22
571.221	38.12
571.416	38.09
571.611	38.16
571.806	38.24
572.002	38.3
572.197	37.95
572.392	37.83
572.587	37.73
572.782	37.69
572.977	37.69
573.172	37.46
573.367	37.49
573.562	37.35
573.757	37.44
573.952	37.52
574.147	37.61
574.342	37.83
574.537	37.81
574.732	37.82
574.927	37.98
575.121	37.99
575.316	38.11
575.511	38.06
575.706	38.1
575.901	38.1
576.096	37.9
576.29	37.84
576.485	37.95
576.68	37.88
576.875	37.94
577.069	37.73
577.264	37.73
577.459	37.79
577.654	37.9
577.848	37.89
578.043	38.01
578.238	38.13
578.432	38.15
578.627	37.95
578.821	38.08
579.016	38.05
579.21	38
579.405	37.87
579.6	37.78
579.794	37.79
579.989	37.95
580.183	37.8
580.378	38.06
580.572	37.97
580.766	38.23
580.961	38.58
581.155	38.74
581.35	38.96
581.544	39.15
581.738	39.42
581.933	39.54
582.127	39.57
582.321	39.63
582.516	39.35
582.71	39.51
582.904	39.14
583.099	38.74
583.293	38.98
583.487	38.95
583.681	38.96
583.875	38.6
584.07	38.75
584.264	38.88
584.458	38.76
584.652	38.78
584.846	38.51
585.04	38.61
585.234	38.84
585.428	38.43
585.623	38.53
585.817	38.74
586.011	38.93
586.205	38.63
586.399	38.76
586.593	39.21
586.787	39.08
586.981	39.32
587.174	39.62
587.368	39.45
587.562	39.67
587.756	39.68
587.95	39.4
588.144	39.7
588.338	39.93
588.532	39.83
588.725	39.76
588.919	40.15
589.113	40.54
589.307	40.4
589.501	40.45
589.694	40.24
589.888	40.33
590.082	40.6
590.275	40.35
590.469	40.03
590.663	40.03
590.856	39.91
591.05	39.83
591.244	39.53
591.437	39.62
591.631	39.87
591.824	40.04
592.018	39.91
592.212	39.64
592.405	39.71
592.599	39.96
592.792	39.97
592.986	40.1
593.179	40.25
593.372	40.48
593.566	40.42
593.759	40.04
593.953	40.01
594.146	40.2
594.339	40.26
594.533	40.27
594.726	40.23
594.92	40.11
595.113	39.95
595.306	39.8
595.499	39.63
595.693	39.65
595.886	40.08
596.079	39.9
596.272	39.9
596.466	40.09
596.659	39.95
596.852	40.21
597.045	40.05
597.238	40.13
597.431	39.92
597.624	39.98
597.818	40.06
598.011	39.79
598.204	40.17
598.397	40.19
598.59	40.09
598.783	40.34
598.976	40.11
599.169	40.38
599.362	40.56
599.555	41.05
599.748	41
599.941	41.09
600.134	41.17
600.326	40.98
600.519	41.25
600.712	41.27
600.905	41.16
601.098	41.24
601.291	41.37
601.483	41.13
601.676	40.77
601.869	40.77
602.062	40.74
602.255	40.57
602.447	40.65
602.64	40.67
602.833	40.48
603.025	40.53
603.218	40.58
603.411	40.73
603.603	40.79
603.796	40.96
603.989	41.13
604.181	41.1
604.374	41.39
604.566	41.28
604.759	41.09
604.951	41.25
605.144	41.04
605.336	40.94
605.529	40.59
605.721	40.72
605.914	40.56
606.106	40.57
606.299	40.73
606.491	40.43
606.683	40.57
606.876	40.65
607.068	40.55
607.26	40.78
607.453	40.57
607.645	40.8
607.837	40.82
608.03	40.83
608.222	40.63
608.414	40.45
608.606	40.55
608.799	40.43
608.991	40.14
609.183	40.4
609.375	40.25
609.567	40.38
609.759	40.32
609.952	40.18
610.144	40.15
610.336	39.97
610.528	39.87
610.72	39.92
610.912	39.76
611.104	39.77
611.296	39.46
611.488	39.68
611.68	39.76
611.872	39.68
612.064	39.66
612.256	39.64
612.448	40.04
612.64	40.2
612.832	39.99
613.023	40.16
613.215	40
613.407	40.24
613.599	40.19
613.791	40.18
613.983	40.67
614.174	40.54
614.366	40.96
614.558	40.68
614.75	40.55
614.941	40.95
615.133	40.87
615.325	41.24
615.516	41.23
615.708	41.27
615.9	41.49
616.091	41.15
616.283	41.38
616.475	41.13
616.666	41.19
616.858	41.11
617.049	41.09
617.241	41.21
617.432	41.21
617.624	41.3
617.815	41.33
618.007	41.22
618.198	41.37
618.39	41.35
618.581	41.3
618.773	41.34
618.964	41.41
619.155	41.34
619.347	41.5
619.538	41.79
619.729	41.72
619.921	41.82
620.112	42
620.303	41.7
620.494	41.53
620.686	41.73
620.877	41.83
621.068	42.13
621.259	42.2
621.451	42.19
621.642	41.62
621.833	42.11
622.024	42.26
622.215	42.09
622.406	42.36
622.597	42.45
622.788	42.18
622.98	42.33
623.171	42.41
623.362	42.39
623.553	42.21
623.744	42.68
623.935	41.93
624.126	41.62
624.317	41.49
624.508	41.42
624.698	41.53
624.889	41.8
625.08	41.55
625.271	41.41
625.462	41.26
625.653	41.49
625.844	41.45
626.034	41.67
626.225	41.47
626.416	41.66
626.607	41.59
626.798	41.28
626.988	41.22
627.179	41.28
627.37	41.13
627.56	41.26
627.751	40.94
627.942	40.73
628.132	40.71
628.323	40.77
628.514	40.86
628.704	40.89
628.895	41.39
629.085	41.59
629.276	41.53
629.466	41.42
629.657	41.56
629.847	41.89
630.038	42.15
630.228	42.15
630.419	42.14
630.609	41.89
630.8	41.86
630.99	41.57
631.181	41.52
631.371	41.47
631.561	41.67
631.752	41.5
631.942	41.68
632.132	41.6
632.323	41.43
632.513	42.01
632.703	41.96
632.893	42.02
633.084	41.88
633.274	41.85
633.464	41.83
633.654	41.84
633.844	41.63
634.034	41.47
634.225	41.43
634.415	41.59
634.605	41.25
634.795	41.64
634.985	41.85
635.175	41.99
635.365	41.71
635.555	41.85
635.745	42.18
635.935	42.42
636.125	42.32
636.315	42.3
636.505	42.36
636.695	42.42
636.885	42.03
637.075	42.05
637.265	42.13
637.455	42.47
637.644	42.65
637.834	42.08
638.024	41.95
638.214	41.99
638.404	42.14
638.593	42.04
638.783	41.59
638.973	41.8
639.163	41.69
639.352	41.6
639.542	41.38
639.732	41.09
639.921	41.53
640.111	41.67
640.301	41.48
640.49	41.06
640.68	41.26
640.87	41.73
641.059	41.57
641.249	41.14
641.438	41.3
641.628	41.37
641.817	41.5
642.007	41.48
642.196	41.57
642.386	41.74
642.575	42.08
642.764	41.64
642.954	42.24
643.143	42.44
643.333	43.27
643.522	43.46
643.711	43.57
643.901	43.62
644.09	43.46
644.279	43.32
644.469	43.32
644.658	43.44
644.847	43.92
645.036	43.55
645.226	43.18
645.415	42.52
645.604	42.2
645.793	42.15
645.982	42.32
646.171	42.46
646.361	42.22
646.55	42.23
646.739	42.06
646.928	42.04
647.117	41.44
647.306	41.51
647.495	41.69
647.684	41.74
647.873	41.58
648.062	41.61
648.251	41.06
648.44	41.76
648.629	41.92
648.818	42.12
649.007	41.83
649.196	42.39
649.384	42.75
649.573	42.94
649.762	42.98
649.951	43.35
650.14	42.9
650.328	43.64
650.517	43.47
650.706	43.24
650.895	43.13
651.083	43.02
651.272	42.62
651.461	42.19
651.65	42.21
651.838	42.23
652.027	42.02
652.216	42.3
652.404	41.96
652.593	42.01
652.781	42.24
652.97	42.4
653.158	42.63
653.347	42.55
653.535	42.97
653.724	42.76
653.912	42.82
654.101	42.51
654.289	42.78
654.478	42.98
654.666	42.61
654.855	42.32
655.043	42.05
655.231	41.87
655.42	42.58
655.608	42.4
655.796	42.53
655.985	42.17
656.173	42.52
656.361	42.11
656.55	42.18
656.738	42.58
656.926	42.92
657.114	43.03
657.302	42.9
657.491	42.46
657.679	42.58
657.867	42.43
658.055	42.71
658.243	42.79
658.431	42.66
658.619	42.81
658.807	42.78
658.996	42.5
659.184	42.1
659.372	42.31
659.56	42.2
659.748	42.09
659.936	41.96
660.124	41.74
660.311	41.74
660.499	41.67
660.687	41.23
660.875	40.84
661.063	40.82
661.251	41.71
661.439	41.77
661.627	41.81
661.814	41.92
662.002	42.16
662.19	41.99
662.378	41.72
662.565	41.75
662.753	42.22
662.941	42
663.129	42
663.316	41.2
663.504	41.03
663.692	41.21
663.879	41.34
664.067	41.21
664.254	41.86
664.442	41.82
664.63	42.39
664.817	42.36
665.005	43.02
665.192	43.33
665.38	43.63
665.567	44.25
665.755	44.13
665.942	44.2
666.13	44.14
666.317	44
666.504	44.47
666.692	44.63
666.879	44.41
667.067	44.43
667.254	44.32
667.441	44.62
667.629	44.36
667.816	44.65
668.003	44.36
668.19	44.42
668.378	44.26
668.565	44.27
668.752	43.55
668.939	43.37
669.127	43.1
669.314	43.12
669.501	42.65
669.688	42.37
669.875	42.03
670.062	42.11
670.249	42.16
670.436	42.37
670.623	42.39
670.81	42.84
670.997	43.08
671.184	43
671.371	43.16
671.558	42.89
671.745	43.03
671.932	43.37
672.119	43.31
672.306	43.45
672.493	43.23
672.68	42.46
672.867	41.69
673.054	40.94
673.24	41.05
673.427	40.92
673.614	41.62
673.801	41.84
673.988	41.79
674.174	41.39
674.361	41.57
674.548	41.72
674.734	41.86
674.921	42.48
675.108	43.04
675.294	43.06
675.481	42.98
675.668	42.64
675.854	42.61
676.041	42.58
676.227	42.71
676.414	42.43
676.601	42.35
676.787	42.69
676.974	42.33
677.16	42.83
677.347	43.13
677.533	43.83
677.719	44.12
677.906	44.13
678.092	44.09
678.279	44.52
678.465	44.73
678.651	44.86
678.838	44.76
679.024	44.52
679.21	44.04
679.397	44.2
679.583	43.93
679.769	43.66
679.955	43.14
680.142	43.03
680.328	42.85
680.514	42.69
680.7	42.78
680.886	42.76
681.073	43.21
681.259	43.47
681.445	42.93
681.631	42.47
681.817	42.77
682.003	43.27
682.189	43.31
682.375	42.94
682.561	42.93
682.747	42.85
682.933	42.71
683.119	42.76
683.305	42.53
683.491	42.88
683.677	42.96
683.863	42.57
684.049	42.53
684.235	42.93
684.42	43.28
684.606	43.45
684.792	43.25
684.978	43.52
685.164	43.47
685.349	43.78
685.535	43.3
685.721	43.48
685.907	43.25
686.092	42.56
686.278	41.66
686.464	41.65
686.649	41.51
686.835	41.43
687.021	41.46
687.206	41.06
687.392	40.83
687.577	41.09
687.763	41.05
687.948	41.47
688.134	41.87
688.319	42.19
688.505	42.14
688.69	42.5
688.876	42.12
689.061	41.93
689.247	41.95
689.432	41.77
689.618	41.89
689.803	41.95
689.988	42.08
690.174	42.02
690.359	41.86
690.544	41.44
690.73	41.36
690.915	41.77
691.1	41.65
691.285	42.4
691.471	42.62
691.656	42.18
691.841	42.16
692.026	41.85
692.211	42.38
692.396	42.56
692.582	42.95
692.767	42.62
692.952	42.95
693.137	43.12
693.322	42.64
693.507	42.68
693.692	42.9
693.877	43.14
694.062	43.07
694.247	42.42
694.432	42.89
694.617	43.22
694.802	43.37
694.987	42.91
695.172	43.06
695.357	43.62
695.541	43.59
695.726	44.52
695.911	44.06
696.096	44.21
696.281	44.34
696.466	44.2
696.65	44.06
696.835	43.92
697.02	44.57
697.204	44.38
697.389	43.89
697.574	44.34
697.759	43.52
697.943	43.52
698.128	43.4
698.312	43.69
698.497	43.41
698.682	43.39
698.866	43.03
699.051	42.65
699.235	42.52
699.42	42.19
699.604	41.7
699.789	41.62
699.973	41.99
700.158	42.33
700.342	42.34
700.527	42.9
700.711	42.95
700.895	43.65
701.08	43.54
701.264	43.94
701.448	44.33
701.633	44.77
701.817	45.25
702.001	45
702.186	44.74
702.37	44.78
702.554	44.32
702.738	44.43
702.923	43.59
703.107	44.16
703.291	43.95
703.475	44.02
703.659	43.39
703.843	43.33
704.027	43.03
704.212	42.86
704.396	42.4
704.58	42.37
704.764	41.8
704.948	41.94
705.132	41.5
705.316	41.51
705.5	41.11
705.684	41.61
705.868	42.08
706.052	42.45
706.235	42.81
706.419	43.07
706.603	43.07
706.787	43.12
706.971	43.64
707.155	44.01
707.339	44.06
707.522	44.46
707.706	44.4
707.89	43.65
708.074	43.65
708.257	43.97
708.441	43.91
708.625	43.98
708.808	44.29
708.992	43.86
709.176	44.04
709.359	44.29
709.543	44.71
709.727	44.25
709.91	44.87
710.094	45.38
710.277	44.98
710.461	44.93
710.644	44.86
710.828	45.25
711.011	46.37
711.195	45.77
711.378	45.2
711.562	45
711.745	44.86
711.928	43.99
712.112	42.87
712.295	42.73
712.478	42.67
712.662	43.13
712.845	43.06
713.028	42.5
713.212	42.74
713.395	42.1
713.578	41.71
713.761	42.24
713.945	43.23
714.128	43.89
714.311	43.97
714.494	43.94
714.677	43.32
714.86	43.41
715.043	42.97
715.227	43.46
715.41	44.07
715.593	43.97
715.776	43.44
715.959	42.91
716.142	43.1
716.325	42.64
716.508	42.92
716.691	43.01
716.874	42.9
717.057	43.52
717.239	43.71
717.422	43.57
717.605	43.27
717.788	43.05
717.971	42.16
718.154	41.27
718.337	41.75
718.519	41.41
718.702	40.65
718.885	40.81
719.068	40.08
719.25	39.11
719.433	40.19
719.616	40.67
719.798	41.44
719.981	41.75
720.164	42.27
720.346	42.25
720.529	42.13
720.712	43.2
720.894	42.06
721.077	41.59
721.259	41.22
721.442	40.08
721.624	40.15
721.807	40.36
721.989	41.31
722.172	41.25
722.354	41.45
722.537	42.03
722.719	42.13
722.901	42.89
723.084	43.23
723.266	43.84
723.448	44.5
723.631	44.24
723.813	44.43
723.995	44.42
724.178	44.7
724.36	45.05
724.542	45.86
724.724	46.4
724.907	46.17
725.089	46.21
725.271	46.65
725.453	46.36
725.635	47.74
725.817	47.65
725.999	47.56
726.181	46.41
726.364	46.21
726.546	45.37
726.728	44.84
726.91	44.39
727.092	44.06
727.274	43.38
727.456	43.02
727.638	41.51
727.819	41.62
728.001	41.35
728.183	42.77
728.365	42.67
728.547	43.11
728.729	42.61
728.911	43.74
729.093	43.83
729.274	43.97
729.456	44.4
729.638	45.34
729.82	44.47
730.001	45
730.183	44.9
730.365	44.96
730.546	43.61
730.728	44.6
730.91	44.07
731.091	44.83
731.273	45.08
731.455	45.2
731.636	45.45
731.818	45.72
731.999	44.92
732.181	43.99
732.362	44.11
732.544	44.52
732.725	44.31
732.907	44.77
733.088	44.27
733.27	44.29
733.451	43.88
733.633	43.08
733.814	42.87
733.995	43.27
734.177	43.69
734.358	43.32
734.539	44.37
734.721	43.32
734.902	42.52
735.083	42.56
735.264	42.72
735.446	44.23
735.627	44.48
735.808	44.74
735.989	44.87
736.17	44.55
736.351	44.24
736.533	44.16
736.714	45.8
736.895	46.73
737.076	46.75
737.257	47.4
737.438	46.65
737.619	46.69
737.8	46.58
737.981	46.47
738.162	47.35
738.343	48.26
738.524	47.26
738.705	46.7
738.886	46.34
739.067	47.27
739.247	46.69
739.428	46.62
739.609	46.21
739.79	46.85
739.971	47.16
740.151	47.42
740.332	46.85
740.513	47.39
740.694	46.69
740.874	46.42
741.055	45.75
741.236	45.21
741.417	43.87
741.597	44.73
741.778	44.73
741.958	44.71
742.139	43.83
742.32	42.91
742.5	42.62
742.681	42.96
742.861	42.57
743.042	43.05
743.222	43.72
743.403	45.42
743.583	45.55
743.764	44.21
743.944	43.48
744.124	44.08
744.305	44.74
744.485	43.86
744.666	43.29
744.846	43.38
745.026	43.06
745.207	44.52
745.387	43.38
745.567	43.5
745.747	44.53
745.928	45.15
746.108	44.44
746.288	43.86
746.468	44.57
746.648	45.27
746.829	44.95
747.009	45.2
747.189	44.07
747.369	44.53
747.549	44.01
747.729	43.75
747.909	42
748.089	42.48
748.269	43.19
748.449	43.93
748.629	43.88
748.809	43.83
748.989	43.26
749.169	42.12
749.349	43.07
749.529	41.55
749.709	42.94
749.889	44.2
750.068	44.54
750.248	44.74
750.428	43.9
750.608	43.53
750.788	44.01
750.967	43.38
751.147	42.93
751.327	43.2
751.507	44.33
751.686	43.36
751.866	43.94
752.046	43.34
752.225	43.4
752.405	44.04
752.585	44.78
752.764	46.21
752.944	47.44
753.123	48.1
753.303	47.37
753.482	47.01
753.662	47.86
753.841	48.05
754.021	47.14
754.2	46.58
754.38	46.32
754.559	45.49
754.739	43.12
754.918	42.4
755.097	41.76
755.277	41.36
755.456	42.17
755.635	41.42
755.815	40.43
755.994	40.72
756.173	40.93
756.352	41.69
756.532	41.59
756.711	42.28
756.89	41.45
757.069	42.07
757.248	41.67
757.427	40.06
757.607	40.36
757.786	41.43
757.965	41.73
758.144	42.7
758.323	42.19
758.502	42.13
758.681	42.42
758.86	43.5
759.039	43.33
759.218	43.48
759.397	44.84
759.576	45.25
759.755	43.9
759.934	43.67
760.113	42.47
760.291	41.1
760.47	41.58
760.649	40.92
760.828	40.72
761.007	41.14
761.186	40.58
761.364	39.98
761.543	39.01
761.722	39.43
761.901	39.83
762.079	40.49
762.258	41.65
762.437	41.62
762.615	41.72
762.794	41.78
762.972	42.16
763.151	43.03
763.33	43.2
763.508	43.34
763.687	43.45
763.865	44.01
764.044	44.14
764.222	43.92
764.401	43.76
764.579	44.38
764.758	43.56
764.936	42.62
765.114	42.43
765.293	42.71
765.471	42.92
765.65	43.51
765.828	43.58
766.006	42.22
766.184	41.35
766.363	40.91
766.541	40.36
766.719	41.66
766.898	42.54
767.076	42.23
767.254	41.75
767.432	40.82
767.61	39.91
767.788	39.85
767.967	41.26
768.145	41.87
768.323	42.27
768.501	43.36
768.679	41.85
768.857	40.57
769.035	40.9
769.213	40.55
769.391	41.41
769.569	40.63
769.747	39.5
769.925	38.18
770.103	38.53
770.281	39.04
770.459	37.73
770.636	39.38
770.814	40.45
770.992	41.39
771.17	42.1
771.348	42.4
771.525	42.69
771.703	42.35
771.881	42.12
772.059	43.7
772.236	43.29
772.414	41.63
772.592	41.91
772.769	42.6
772.947	40.99
773.125	40.84
773.302	40.08
773.48	39.75
773.657	39.65
773.835	40.89
774.013	38.86
774.19	40.11
774.368	42.64
774.545	42.42
774.723	43.02
774.9	45.48
775.077	46.72
775.255	47.99
775.432	49.04
775.61	50.95
775.787	50.46
775.964	51.93
776.142	52.27
776.319	50.98
776.496	49.73
776.674	48.09
776.851	45.95
777.028	45.3
777.205	45.15
777.382	44.54
777.56	43.82
777.737	44.25
777.914	42.95
778.091	42.22
778.268	41.81
778.445	43.85
778.622	43.93
778.8	44.11
778.977	43.11
779.154	41.2
779.331	42.61
779.508	43.21
779.685	44.07
779.862	44.27
780.038	42.59
780.215	43.37
780.392	42.08
780.569	41.59
780.746	41.77
780.923	42.11
781.1	42.44
781.277	41.58
781.453	39.61
781.63	39.38
781.807	39.43
781.984	39.55
782.16	40.07
782.337	39.74
782.514	41.25
782.691	41.43
782.867	41.82
783.044	41.72
783.221	42.14
783.397	43.62
783.574	42.82
783.75	42.42
783.927	44.59
784.103	43.51
784.28	42.85
784.456	43.28
784.633	42.79
784.809	43.25
784.986	42.75
785.162	41
785.339	39.76
785.515	38.67
785.692	39.15
785.868	40.43
786.044	41.38
786.221	41.92
786.397	39.82
786.573	40.33
786.749	38.52
786.926	38.85
787.102	41.61
787.278	39.83
787.454	40.18
787.631	40.62
787.807	36.95
787.983	36.88
788.159	37.53
788.335	39.66
788.511	39.67
788.687	39.94
788.863	41.11
789.039	37.8
789.216	38.91
789.392	41.47
789.568	41.44
789.744	45.18
789.919	44.85
790.095	44.81
790.271	45.39
790.447	44.79
790.623	45.88
790.799	45.89
790.975	47.28
791.151	49.35
791.327	49.6
791.502	50.66
791.678	47.67
791.854	47.59
792.03	49.55
792.205	48.16
792.381	48.04
792.557	47.86
792.733	46.83
792.908	47.97
793.084	48.07
793.259	47.22
793.435	45.2
793.611	46.38
793.786	47.79
793.962	43.37
794.137	44.91
794.313	44.48
794.488	42.44
794.664	42.83
794.839	43.43
795.015	42.11
795.19	40.49
795.366	40.43
795.541	38.61
795.716	36.94
795.892	37.18
796.067	35.44
796.242	35.42
796.418	36.43
796.593	37.86
796.768	37.64
796.944	37.65
797.119	36.86
797.294	36.41
797.469	36.29
797.644	36.36
797.82	37.69
797.995	37.95
798.17	41.3
798.345	43.68
798.52	43.56
798.695	42.17
798.87	42.53
799.045	43.01
799.22	44.45
799.395	44.97
799.57	45.92
799.745	45.85
799.92	45.99
800.095	44.65
800.27	42.68
800.445	41.83
800.62	42.71
800.795	41.48
800.97	42.31
801.145	40.81
801.319	41.98
801.494	41.34
801.669	44.5
801.844	45.07
802.018	44.81
802.193	44.98
802.368	46.05
802.543	45.06
802.717	48.14
802.892	46.38
803.067	49.1
803.241	49.59
803.416	51.32
803.59	49.65
803.765	47.22
803.94	45.37
804.114	45.02
804.289	45.08
804.463	47.74
804.638	44.55
804.812	45.89
804.986	47.29
805.161	46.63
805.335	45.6
805.51	44.64
805.684	45.92
805.858	46.69
806.033	48.46
806.207	48.75
806.381	46.14
806.556	45.69
806.73	44.73
806.904	41.33
807.078	41.94
807.253	41.23
807.427	41.19
807.601	39.81
807.775	40.3
807.949	38.81
808.123	39.94
808.298	42.5
808.472	43.39
808.646	46.1
808.82	47.17
808.994	44.7
809.168	45.71
809.342	47.81
809.516	47.64
809.69	47.58
809.864	47.24
810.038	45.74
810.212	42.96
810.385	43.42
810.559	41.29
810.733	42.4
810.907	44.52
811.081	43.48
811.255	41.51
811.428	43.7
811.602	43.16
811.776	43.23
811.95	40.91
812.123	43.68
812.297	42.79
812.471	44.83
812.644	42.66
812.818	43.28
812.992	44.65
813.165	44.7
813.339	44.02
813.512	45.91
813.686	44.72
813.86	45.38
814.033	42.71
814.207	45.43
814.38	44.98
814.554	46.55
814.727	44.57
814.9	43.52
815.074	43.26
815.247	41.42
815.421	38.84
815.594	40.83
815.767	43.88
815.941	42.46
816.114	42.24
816.287	41.17
816.46	38.65
816.634	39.59
816.807	38.68
816.98	39.82
817.153	43.2
817.327	44.07
817.5	42.58
817.673	39.31
817.846	40.92
818.019	38.52
818.192	41.68
818.365	41.68
818.538	43.65
818.711	45.35
818.884	43.84
819.057	42.83
819.23	42.71
819.403	46.26
819.576	48.26
819.749	49.64
819.922	50.29
820.095	46.66
820.268	48.52
820.441	47.76
820.614	48.65
820.786	49.85
820.959	48.65
821.132	47.7
821.305	45.09
821.477	43.62
821.65	42.14
821.823	41.55
821.996	42.76
822.168	42.08
822.341	42.24
822.514	42.09
822.686	41.71
822.859	41.72
823.031	42.31
823.204	43.25
823.376	43.35
823.549	44.15
823.722	44.33
823.894	43.22
824.067	43.54
824.239	43.29
824.411	42.46
824.584	42.89
824.756	42.9
824.929	42.82
825.101	42
825.273	41.61
825.446	40.97
825.618	40.76
825.79	41.58
825.963	41.78
826.135	42.22
826.307	42.79
826.479	41.83
826.652	41.54
826.824	41.08
826.996	40.89
827.168	40.67
827.34	41.55
827.512	41.67
827.684	41.53
827.856	40.83
828.029	40.9
828.201	41.06
828.373	41.37
828.545	41.59
828.717	41.79
828.889	41.75
829.061	42.24
829.232	41.67
829.404	41.93
829.576	43.28
829.748	43.24
829.92	42.76
830.092	42.8
830.264	42.48
830.436	43.09
830.607	43.65
830.779	44.54
830.951	47.05
831.123	46.18
831.294	46.12
831.466	44.18
831.638	44.98
831.809	44.83
831.981	47.41
832.153	47.08
832.324	46.49
832.496	44.5
832.667	45.94
832.839	41.04
833.011	42.29
833.182	43.15
833.354	42.19
833.525	42.2
833.697	41.93
833.868	40.64
834.039	42.12
834.211	43.09
834.382	44.44
834.554	45.49
834.725	48.25
834.896	47.31
835.068	46.79
835.239	48.74
835.41	49.35
835.581	49.38
835.753	49.52
835.924	48.61
836.095	48.64
836.266	48.51
836.438	45.53
836.609	45.11
836.78	44.83
836.951	45.54
837.122	43.63
837.293	42.87
837.464	43.6
837.635	43.05
837.806	42.83
837.977	42.97
838.148	40.73
838.319	42.96
838.49	42.32
838.661	46.71
838.832	44.6
839.003	45.56
839.174	42.81
839.345	40.9
839.516	38.65
839.687	39.85
839.857	38.61
840.028	41.84
840.199	40.71
840.37	45.24
840.54	43.18
840.711	44.2
840.882	44.26
841.053	43.39
841.223	43.32
841.394	44.34
841.564	42.95
841.735	42.11
841.906	39.66
842.076	37.83
842.247	35.04
842.417	32.57
842.588	37.81
842.758	36.76
842.929	34.77
843.099	30.62
843.27	34.65
843.44	34.63
843.611	35.17
843.781	36.48
843.951	38.75
844.122	38.53
844.292	45.35
844.462	36.17
844.633	41.81
844.803	49.39
844.973	54.33
845.144	51.79
845.314	52.49
845.484	51.03
845.654	52.67
845.824	51.38
845.995	49.17
846.165	43
846.335	40.96
846.505	40.8
846.675	42.2
846.845	45.05
847.015	47.34
847.185	45.16
847.355	52.71
847.525	53.7
847.695	49.24
847.865	48.66
848.035	45.34
848.205	49
848.375	51.92
848.545	51.04
848.715	44.61
848.884	44.79
849.054	49.7
849.224	48.89
849.394	46.36
849.564	49.59
849.733	54.79
849.903	56.22
850.073	56.41
850.243	45.9
850.412	46.55
850.582	51.24
850.752	40.02
850.921	36.61
851.091	33.77
851.26	31.62
851.43	28.44
851.599	20.93
851.769	19.16
851.939	24.39
852.108	25.43
852.278	21.42
852.447	21.31
852.616	29.52
852.786	29.89
852.955	36.82
853.125	41.06
853.294	42.16
853.463	44.51
853.633	42.28
853.802	38.46
853.971	43.59
854.141	43.99
854.31	39.38
854.479	41.24
854.648	45.51
854.818	40.1
854.987	36.69
855.156	36.19
855.325	41.18
855.494	44.65
855.663	48.55
855.832	47.81
856.001	50.01
856.171	55.16
856.34	50.67
856.509	44.91
856.678	45.25
856.847	48.97
857.016	53.36
857.185	49.27
857.353	51.48
857.522	51.46
857.691	44.45
857.86	48.16
858.029	52.11
858.198	60.84
858.367	65.89
858.535	67.71
858.704	64.88
858.873	69.25
859.042	79.35
859.21	76.05
859.379	67.3
859.548	77.16
859.717	68
859.885	62.54
860.054	54.06
860.222	53.44
860.391	55.5
860.56	62.07
860.728	52.71
860.897	52.02
861.065	45.37
861.234	51.45
861.402	49.77
861.571	54.3
861.739	52.61
861.908	57.57
862.076	54.63
862.244	46.38
862.413	33.98
862.581	42.23
862.749	34.11
862.918	43.54
863.086	42.33
863.254	42.39
863.423	39.76
863.591	43.67
863.759	37.31
863.927	39.41
864.096	48.89
864.264	43.71
864.432	39.49
864.6	43.64
864.768	37.54
864.936	33.29
865.104	34.7
865.272	32.3
865.44	24.99
865.608	26.49
865.776	27.68
865.944	23.12
866.112	29.54
866.28	33.36
866.448	39.72
866.616	38.9
866.784	40.2
866.952	38.29
867.12	36.73
867.288	40.8
867.455	48.21
867.623	57.19
867.791	59.35
867.959	69.82
868.127	70.97
868.294	67.49
868.462	76.94
868.63	96.93
868.797	100.73
868.965	90.78
869.133	89.81
869.3	89.29
869.468	78.24
869.636	77.49
869.803	76.65
869.971	76.76
870.138	80.9
870.306	73.49
870.473	67.16
870.641	61.73
870.808	64.1
870.975	65.9
871.143	58.63
871.31	58.59
871.478	56.95
871.645	55.31
871.812	45.85
871.98	33.36
872.147	37.51
872.314	32.07
872.482	35.47
872.649	30.33
872.816	31.57
872.983	33.32
873.15	39.2
873.318	28
873.485	22.24
873.652	29.1
873.819	32.25
873.986	38.52
874.153	41.85
874.32	41.6
874.487	47.94
874.654	48.64
874.821	56.61
874.988	52.03
875.155	58.09
875.322	52.77
875.489	55.91
875.656	57.27
875.823	51.75
875.99	59.86
876.157	63.31
876.324	61.59
876.49	60.68
876.657	50.22
876.824	56.74
876.991	58.78
877.157	67.63
877.324	65.44
877.491	64.02
877.658	56.21
877.824	42.35
877.991	40.34
878.157	41.48
878.324	47.64
878.491	50.32
878.657	53.54
878.824	56.9
878.99	57.79
879.157	58.51
879.323	55.98
879.49	59.28
879.656	61.31
879.823	58.6
879.989	53.25
880.156	44.75
880.322	48.15
880.488	42.8
880.655	44.62
880.821	44.33
880.987	43.74
881.154	47.56
881.32	52.39
881.486	49.17
881.652	51.26
881.819	48.29
881.985	48.71
882.151	44.57
882.317	44.97
882.483	43.41
882.649	39.77
882.816	39.46
882.982	39.83
883.148	37.37
883.314	38.45
883.48	36.55
883.646	38.47
883.812	38.77
883.978	39.6
884.144	40.02
884.31	40.57
884.476	42.76
884.642	42.91
884.807	41.52
884.973	43.45
885.139	43.1
885.305	46.27
885.471	46.19
885.637	47.69
885.802	49.83
885.968	50.51
886.134	50.44
886.3	51.51
886.465	50.03
886.631	50.7
886.797	48.76
886.962	51.9
887.128	47.13
887.293	46.15
887.459	47.74
887.625	45.73
887.79	44.79
887.956	40.85
888.121	40.76
888.287	44.35
888.452	45
888.618	46.32
888.783	39.12
