Data from CB_009_Reflection_1.txt Node
Date: Wed Nov 11 18:39:27 EST 2015
User: robert
Spectrometer: USB4E03001
Autoset integration time: false
Trigger mode: 4
Integration Time (sec): 1.000000E-1
Scans to average: 15
Electric dark correction enabled: true
Nonlinearity correction enabled: false
Boxcar width: 5
Stray light correction enabled: false
XAxis mode: Wavelengths
Stop averaging: false
Number of Pixels in Spectrum: 3648
>>>>>Begin Spectral Data<<<<<
177.566	-89.58
177.785	-330.4
178.005	-236.25
178.225	-2116.56
178.445	473.99
178.665	325.56
178.885	53.27
179.105	217.35
179.324	153.47
179.544	-111.63
179.764	-126.7
179.984	-89.78
180.204	232.85
180.423	-173.17
180.643	-222.6
180.863	851.43
181.083	355.37
181.302	152.3
181.522	-502.4
181.742	-253.53
181.961	277.53
182.181	117.17
182.401	177.74
182.621	760.94
182.84	162.63
183.06	162.56
183.279	188.47
183.499	566.03
183.719	378.96
183.938	219.79
184.158	296.01
184.377	-302.19
184.597	-105.05
184.816	-14.4
185.036	-301.03
185.256	-77.05
185.475	302.19
185.695	-4857.47
185.914	191.7
186.134	175.4
186.353	204.44
186.572	310.06
186.792	203.19
187.011	140.66
187.231	148.76
187.45	143.51
187.67	149.19
187.889	2254.75
188.108	588.38
188.328	813.4
188.547	-580.08
188.766	-923.74
188.986	371.24
189.205	-26359.09
189.424	854.92
189.644	3406.61
189.863	217.91
190.082	193.43
190.302	150.76
190.521	102.74
190.74	97.98
190.959	88.82
191.178	106.77
191.398	90.12
191.617	65.64
191.836	65.83
192.055	81.33
192.274	77.45
192.494	87.97
192.713	76.45
192.932	74.36
193.151	80.52
193.37	79.42
193.589	53.35
193.808	75.61
194.027	87.49
194.246	101.08
194.465	135.47
194.685	109.78
194.904	120.47
195.123	245.59
195.342	1201.12
195.561	191.44
195.78	159.67
195.999	171.51
196.218	284.55
196.436	-213.2
196.655	-955.62
196.874	545.13
197.093	602.68
197.312	639.23
197.531	-122.09
197.75	-217.93
197.969	-13.56
198.188	1.96
198.407	-5.48
198.625	-257.33
198.844	-139.66
199.063	-65.57
199.282	-8.39
199.501	13.88
199.719	-64.28
199.938	-2407.42
200.157	240.87
200.376	344.53
200.594	750.3
200.813	-29011.43
201.032	1538.91
201.251	365
201.469	393.43
201.688	351.37
201.907	335.19
202.125	240.09
202.344	155.38
202.563	201.75
202.781	202.51
203	137.93
203.218	120.41
203.437	122.44
203.656	107.87
203.874	123.94
204.093	113.02
204.311	74.98
204.53	72.14
204.748	70.17
204.967	34.11
205.185	51.62
205.404	83.22
205.622	71.55
205.841	80.1
206.059	139.4
206.278	114.96
206.496	99.43
206.715	315.75
206.933	404.84
207.151	195.94
207.37	232.31
207.588	224.75
207.806	268.37
208.025	367.35
208.243	322.76
208.461	150.91
208.68	153.61
208.898	190.71
209.116	94.67
209.335	58.08
209.553	-222.48
209.771	222.58
209.989	-2323.48
210.208	-1226.17
210.426	-669.47
210.644	-235.6
210.862	-119.08
211.081	-115.73
211.299	-93.22
211.517	-209.03
211.735	-157.75
211.953	-97.48
212.171	76.07
212.39	181.88
212.608	-132.42
212.826	-37.92
213.044	47.5
213.262	15.37
213.48	-20.16
213.698	-24.13
213.916	563.7
214.134	145.37
214.352	-176.29
214.57	348.01
214.788	130.35
215.006	145.33
215.224	154.09
215.442	102.15
215.66	118.73
215.878	147.89
216.096	171.98
216.314	132.06
216.532	152.35
216.75	141.14
216.968	134.02
217.185	183.55
217.403	213.03
217.621	245.74
217.839	338.5
218.057	5768.84
218.275	-1815.73
218.492	-121.32
218.71	-110.51
218.928	-130.59
219.146	-62.61
219.363	-46.4
219.581	-102.67
219.799	-74.46
220.017	-54.11
220.234	-34.26
220.452	-38.24
220.67	-49.17
220.887	-140.53
221.105	-82.56
221.323	-91.13
221.54	-1.73
221.758	-2.05
221.976	-16.29
222.193	-38.67
222.411	-99.21
222.629	-120.22
222.846	-147.21
223.064	-132.85
223.281	-135.99
223.499	-189.31
223.716	-197.52
223.934	-944.87
224.151	-1383.92
224.369	-714.83
224.586	326650
224.804	-993.56
225.021	-416.16
225.239	-233.99
225.456	-158.02
225.674	-108.17
225.891	-17.41
226.108	-10.88
226.326	-19
226.543	6.37
226.76	3.39
226.978	8.93
227.195	-1.99
227.413	-3.96
227.63	-5.92
227.847	-13.67
228.064	-10.96
228.282	-4.78
228.499	0.36
228.716	2.95
228.934	-2.28
229.151	-2.43
229.368	-0.69
229.585	-4.38
229.802	-0.93
230.02	-1.84
230.237	0.52
230.454	3.58
230.671	1.55
230.888	-0.41
231.105	-1.64
231.323	4.17
231.54	7.41
231.757	5.03
231.974	7.65
232.191	-4.02
232.408	1.78
232.625	-5.24
232.842	-9.31
233.059	-0.62
233.276	-4.18
233.493	-3.72
233.71	-13.58
233.927	-9.61
234.144	-6.84
234.361	-1.02
234.578	8.05
234.795	3.39
235.012	3.96
235.229	2.32
235.446	-0.6
235.663	-4.3
235.879	1.46
236.096	4.74
236.313	-4.55
236.53	-10.43
236.747	-10.31
236.964	-13.76
237.181	-13.6
237.397	-6.02
237.614	-6.18
237.831	-14.65
238.048	-15.56
238.264	-25.31
238.481	-19.86
238.698	-17.36
238.915	-18.66
239.131	-21.61
239.348	-29.99
239.565	-27.93
239.781	-29.48
239.998	-26.74
240.215	-24.25
240.431	-17.69
240.648	-12.72
240.865	-10.83
241.081	-8.79
241.298	-3.66
241.514	-2.89
241.731	1.98
241.947	1.87
242.164	2.66
242.38	3.68
242.597	5.05
242.814	6.02
243.03	5.54
243.246	6.96
243.463	8.11
243.679	6.62
243.896	7.19
244.112	6.23
244.329	8.93
244.545	9.68
244.762	10.05
244.978	10.17
245.194	5.95
245.411	6.34
245.627	2.74
245.843	2.9
246.06	6.14
246.276	7.17
246.492	6.13
246.709	5.47
246.925	4.58
247.141	4.45
247.357	4.62
247.574	5.57
247.79	5.55
248.006	6.29
248.222	6.85
248.439	6.16
248.655	6.61
248.871	6.9
249.087	7.49
249.303	8.58
249.519	9.01
249.736	6.95
249.952	6.71
250.168	7.11
250.384	7.2
250.6	5.41
250.816	3.54
251.032	1.63
251.248	2.07
251.464	-1.17
251.68	-3.56
251.896	-3.87
252.112	-2.54
252.328	-0.44
252.544	-1.17
252.76	-2.62
252.976	-1.65
253.192	0.47
253.408	0.16
253.624	1.91
253.84	2
254.056	3.17
254.272	3.61
254.487	4.56
254.703	3.4
254.919	3.9
255.135	3.44
255.351	1.82
255.567	-1.96
255.782	-3.55
255.998	-4.13
256.214	-3.22
256.43	-1.01
256.646	-0.59
256.861	-1.53
257.077	-1.57
257.293	-3.9
257.508	-2.01
257.724	-3.24
257.94	-2.22
258.155	-2.04
258.371	-1.57
258.587	-0.91
258.802	-2.09
259.018	-1.97
259.234	-0.39
259.449	0.62
259.665	1.66
259.88	2.44
260.096	2.6
260.312	2.99
260.527	4.19
260.743	4.09
260.958	3.83
261.174	4.42
261.389	4.24
261.605	3.53
261.82	3.74
262.036	3.55
262.251	3.62
262.466	4.23
262.682	3.71
262.897	1.98
263.113	0.3
263.328	0.51
263.543	1.4
263.759	1.8
263.974	2.3
264.189	0.3
264.405	-0.01
264.62	-0.38
264.835	0.22
265.051	1.6
265.266	0.58
265.481	2.9
265.696	3.01
265.912	2.05
266.127	0.83
266.342	1.92
266.557	0.82
266.773	1.46
266.988	-0.98
267.203	-2.12
267.418	-2.34
267.633	-2.12
267.848	-3.41
268.064	-2.85
268.279	-3.42
268.494	-3.51
268.709	-4.35
268.924	-4.14
269.139	-3.93
269.354	-3.5
269.569	-1.23
269.784	-0.89
269.999	-1.21
270.214	-0.98
270.429	-2.27
270.644	-2.05
270.859	-1.48
271.074	-1.34
271.289	-0.39
271.504	0.14
271.719	0.08
271.934	-0.95
272.149	-0.53
272.363	-0.44
272.578	0.92
272.793	2.68
273.008	1.95
273.223	2.34
273.438	1.62
273.653	1.92
273.867	1.67
274.082	1.23
274.297	0.78
274.512	-0.69
274.726	0.04
274.941	-2.11
275.156	-4.93
275.371	-5.2
275.585	-6.65
275.8	-5.97
276.015	-7.07
276.229	-9.62
276.444	-7.54
276.659	-8.64
276.873	-9.74
277.088	-11.18
277.302	-10.27
277.517	-9.97
277.732	-10.04
277.946	-8.76
278.161	-9.5
278.375	-9.39
278.59	-6.93
278.804	-6.51
279.019	-3.75
279.233	-0.94
279.448	1.58
279.662	1.22
279.877	2.42
280.091	3.79
280.306	4.64
280.52	4.57
280.735	4.25
280.949	5.06
281.163	5.7
281.378	4.43
281.592	4.48
281.806	4.09
282.021	4.28
282.235	3.27
282.449	3.2
282.664	2.09
282.878	3.27
283.092	4.38
283.307	4.31
283.521	3.54
283.735	5.05
283.949	3.68
284.164	3.12
284.378	4.54
284.592	5.07
284.806	3.99
285.02	3.61
285.234	3.1
285.449	2.76
285.663	2.11
285.877	2.45
286.091	1.93
286.305	2.78
286.519	3.22
286.733	3.23
286.947	4.11
287.161	5.35
287.375	5.48
287.589	5.9
287.803	5.84
288.017	6.39
288.231	5.72
288.445	6.06
288.659	5.69
288.873	5.04
289.087	3.75
289.301	4.25
289.515	4.12
289.729	4.66
289.943	4.93
290.157	5.18
290.371	3.81
290.584	5.16
290.798	5.19
291.012	5.08
291.226	5.5
291.44	4.83
291.654	2.82
291.867	3.57
292.081	3.12
292.295	2.6
292.509	2.79
292.722	4
292.936	2.1
293.15	2.77
293.364	3.23
293.577	3.25
293.791	5.48
294.005	6.47
294.218	6.42
294.432	6.97
294.645	8.11
294.859	7.71
295.073	7.78
295.286	7.79
295.5	7.49
295.713	7.82
295.927	8.27
296.14	8.11
296.354	8.26
296.568	7.48
296.781	7.16
296.994	5.84
297.208	5.21
297.421	6.19
297.635	7.34
297.848	7.87
298.062	8.4
298.275	7.62
298.489	6.92
298.702	6.56
298.915	7.59
299.129	8.32
299.342	8.77
299.555	9.56
299.769	9.04
299.982	9.1
300.195	8.88
300.409	7.58
300.622	9.05
300.835	9.25
301.048	10.31
301.262	8.81
301.475	8.9
301.688	9.84
301.901	10.01
302.115	9.09
302.328	6.96
302.541	5.1
302.754	5.96
302.967	3.43
303.18	2.82
303.393	3.01
303.607	4.22
303.82	3.15
304.033	1.77
304.246	2.5
304.459	1.97
304.672	3.06
304.885	2.8
305.098	2.15
305.311	3.84
305.524	3.85
305.737	2.78
305.95	3.07
306.163	4.96
306.376	6.19
306.589	6.68
306.802	8.54
307.015	7.08
307.228	7.14
307.44	7.94
307.653	9.03
307.866	9.9
308.079	10.08
308.292	8.84
308.505	8.32
308.718	8.3
308.93	6.81
309.143	6.47
309.356	7.69
309.569	9.07
309.781	8.86
309.994	7.79
310.207	8.65
310.42	9.7
310.632	10.1
310.845	10.58
311.058	11.13
311.27	10.82
311.483	11.22
311.696	11.59
311.908	10.85
312.121	11.11
312.333	11.1
312.546	11.41
312.759	10.55
312.971	10.71
313.184	9.7
313.396	9.45
313.609	11.11
313.821	10.65
314.034	11.13
314.246	12.01
314.459	10.98
314.671	12.17
314.884	11.17
315.096	12.02
315.309	12.09
315.521	12.6
315.733	11.09
315.946	9.68
316.158	8.27
316.371	6.37
316.583	5.54
316.795	5.98
317.008	5.08
317.22	5.32
317.432	5.03
317.644	4.15
317.857	3.65
318.069	5.3
318.281	6.48
318.494	7.91
318.706	9.16
318.918	9.06
319.13	8.07
319.342	7.27
319.555	5.54
319.767	3.76
319.979	5.32
320.191	5.53
320.403	4.21
320.615	2.76
320.827	2.07
321.039	1.89
321.252	2.36
321.464	2.84
321.676	2.64
321.888	3.2
322.1	4.57
322.312	3.88
322.524	5.13
322.736	7.01
322.948	7.15
323.16	8.83
323.372	9.29
323.584	9.91
323.796	11.88
324.007	12.92
324.219	13.71
324.431	14.57
324.643	14.04
324.855	13.64
325.067	12.81
325.279	14.08
325.491	12.88
325.702	12.91
325.914	12.73
326.126	11.24
326.338	10.86
326.55	11.13
326.761	10.84
326.973	11.71
327.185	10.6
327.396	9.98
327.608	9.38
327.82	10.25
328.032	10.24
328.243	10.65
328.455	10.4
328.666	11.16
328.878	11.21
329.09	10.97
329.301	9.77
329.513	11.91
329.725	13.04
329.936	13.93
330.148	13.3
330.359	12.42
330.571	12.65
330.782	13.69
330.994	13.58
331.205	13.18
331.417	12.66
331.628	13.15
331.84	12.48
332.051	12.34
332.262	11.4
332.474	12.13
332.685	13.96
332.897	13.54
333.108	12.73
333.319	14.19
333.531	13.72
333.742	14.92
333.953	16.15
334.165	16.08
334.376	15.84
334.587	16.92
334.799	15.96
335.01	15.04
335.221	15.01
335.432	16.32
335.644	15.26
335.855	16.28
336.066	15.89
336.277	15.85
336.488	16.2
336.7	16.89
336.911	17.01
337.122	17.83
337.333	18.32
337.544	19.46
337.755	20.26
337.966	20.05
338.177	19.28
338.388	18.94
338.599	18.37
338.811	17.84
339.022	17.46
339.233	15.88
339.444	15.64
339.655	16.45
339.866	16.25
340.076	14.51
340.287	14.99
340.498	15.75
340.709	15.8
340.92	15.61
341.131	16.22
341.342	16.45
341.553	16.78
341.764	15.96
341.975	14.34
342.185	12.99
342.396	13.31
342.607	12.22
342.818	11.49
343.029	11.15
343.239	11.67
343.45	11.44
343.661	11.18
343.872	11.1
344.082	12.02
344.293	12.43
344.504	13.24
344.714	13.39
344.925	14.73
345.136	14.12
345.346	15.71
345.557	15.55
345.768	15.39
345.978	15.71
346.189	15.86
346.399	16.09
346.61	16.29
346.821	16.53
347.031	16.45
347.242	15.63
347.452	16.11
347.663	15.14
347.873	16.41
348.084	16.32
348.294	16.12
348.504	16.07
348.715	15.83
348.925	16.19
349.136	15.51
349.346	15.71
349.557	16.16
349.767	15.81
349.977	15.51
350.188	14.89
350.398	14.81
350.608	15.15
350.819	15.54
351.029	15.45
351.239	14.98
351.449	14.22
351.66	14.82
351.87	14.82
352.08	15.34
352.29	16.24
352.501	15.61
352.711	16.1
352.921	15.09
353.131	14.53
353.341	14.56
353.552	14.1
353.762	14.96
353.972	14.25
354.182	13.68
354.392	13.51
354.602	13.21
354.812	12.72
355.022	12.54
355.232	13.18
355.442	13.3
355.652	13.59
355.862	14.23
356.072	13.44
356.282	13.15
356.492	13.79
356.702	14.58
356.912	14.05
357.122	13.64
357.332	13.22
357.542	13.11
357.752	13.39
357.962	12.9
358.171	12.97
358.381	13.08
358.591	13.38
358.801	12.71
359.011	11.83
359.221	11.74
359.43	12.46
359.64	13.32
359.85	13.85
360.06	13.64
360.269	13.95
360.479	13.7
360.689	14.26
360.899	14.43
361.108	14.45
361.318	15.08
361.528	14.79
361.737	14.9
361.947	14.27
362.156	13.35
362.366	13.37
362.576	12.56
362.785	12.51
362.995	12.57
363.204	12.07
363.414	12.08
363.623	11.69
363.833	11.68
364.042	11.36
364.252	11.56
364.461	12.13
364.671	12.37
364.88	12.79
365.09	12.23
365.299	11.98
365.509	11.86
365.718	11.97
365.927	11.78
366.137	11.92
366.346	12.16
366.555	11.48
366.765	11.23
366.974	10.88
367.183	11.14
367.393	11.83
367.602	11.28
367.811	11.18
368.021	11.72
368.23	11.8
368.439	11.78
368.648	11.82
368.857	12.65
369.067	12.14
369.276	12.49
369.485	12.58
369.694	12.3
369.903	12.39
370.112	13.02
370.321	12.24
370.531	11.91
370.74	11.24
370.949	10.81
371.158	10.2
371.367	10.37
371.576	10.04
371.785	10.19
371.994	10.31
372.203	10.67
372.412	10.3
372.621	10.6
372.83	10.94
373.039	11.86
373.248	11.81
373.457	12.01
373.666	12.19
373.874	12.4
374.083	12.31
374.292	11.87
374.501	11.37
374.71	11.17
374.919	10.87
375.128	10.84
375.336	9.87
375.545	9.94
375.754	9.36
375.963	9.4
376.171	9.46
376.38	9.41
376.589	9.63
376.798	9.61
377.006	9.47
377.215	9.41
377.424	9.28
377.632	9.59
377.841	9.35
378.05	9.06
378.258	8.69
378.467	8.69
378.675	8.02
378.884	7.73
379.093	7.7
379.301	7.9
379.51	7.61
379.718	7.78
379.927	8.23
380.135	8.34
380.344	8.85
380.552	9.1
380.761	8.83
380.969	9.04
381.177	9.54
381.386	9.53
381.594	9.56
381.803	9.55
382.011	9.41
382.219	9.12
382.428	8.86
382.636	9.04
382.845	9.22
383.053	9.27
383.261	9.19
383.469	9.23
383.678	9.41
383.886	9.42
384.094	9.48
384.302	9.14
384.511	8.85
384.719	9.02
384.927	9.06
385.135	8.85
385.343	8.25
385.552	8.39
385.76	7.93
385.968	7.65
386.176	7.3
386.384	7.18
386.592	7.03
386.8	6.86
387.008	6.55
387.216	6.43
387.424	6.61
387.633	7.09
387.841	6.88
388.049	6.8
388.257	6.92
388.465	6.98
388.672	6.78
388.88	6.71
389.088	6.65
389.296	6.67
389.504	6.43
389.712	5.98
389.92	5.77
390.128	5.46
390.336	5.24
390.544	4.87
390.751	4.51
390.959	4.6
391.167	4.82
391.375	5.21
391.583	5.46
391.79	5.34
391.998	5.59
392.206	5.22
392.414	5.52
392.621	5.94
392.829	6.18
393.037	6.19
393.244	6.32
393.452	6.13
393.66	5.83
393.867	5.73
394.075	5.69
394.283	5.37
394.49	5.68
394.698	5.75
394.905	5.44
395.113	5.11
395.32	5.6
395.528	5.31
395.735	5.18
395.943	5
396.15	4.9
396.358	5.22
396.565	5.28
396.773	5.07
396.98	4.71
397.188	4.63
397.395	4.94
397.602	4.41
397.81	4.66
398.017	5.04
398.225	5.45
398.432	5.39
398.639	5.25
398.847	5.35
399.054	5.33
399.261	5.58
399.468	5.68
399.676	5.54
399.883	5.79
400.09	5.79
400.297	4.99
400.505	4.65
400.712	4.94
400.919	5.11
401.126	4.89
401.333	4.85
401.54	4.68
401.748	4.44
401.955	4.42
402.162	4.04
402.369	4.22
402.576	4.97
402.783	4.97
402.99	4.92
403.197	4.81
403.404	4.49
403.611	4.49
403.818	4.34
404.025	4.56
404.232	4.61
404.439	4.86
404.646	4.51
404.853	4.46
405.06	4.41
405.267	4.1
405.474	4.03
405.681	4.46
405.887	4.57
406.094	4.84
406.301	4.81
406.508	4.78
406.715	4.66
406.922	4.86
407.128	4.72
407.335	5.07
407.542	5.04
407.749	4.83
407.955	4.69
408.162	4.61
408.369	4.55
408.575	4.56
408.782	4.8
408.989	4.93
409.195	5.05
409.402	4.94
409.609	4.53
409.815	4.87
410.022	4.79
410.228	4.86
410.435	5.1
410.642	5.09
410.848	5.14
411.055	4.99
411.261	4.97
411.468	4.95
411.674	5.02
411.881	4.98
412.087	4.88
412.294	4.93
412.5	4.74
412.706	4.59
412.913	4.31
413.119	4.26
413.326	4.1
413.532	4.03
413.738	3.81
413.945	3.59
414.151	3.89
414.357	3.44
414.564	3.61
414.77	3.7
414.976	3.83
415.182	3.91
415.389	3.77
415.595	3.87
415.801	3.9
416.007	3.88
416.214	4.05
416.42	3.85
416.626	3.9
416.832	3.86
417.038	3.8
417.244	3.73
417.45	3.89
417.657	3.74
417.863	3.71
418.069	3.72
418.275	3.87
418.481	3.8
418.687	3.79
418.893	3.82
419.099	3.77
419.305	3.97
419.511	3.92
419.717	3.93
419.923	4.07
420.129	3.99
420.335	3.91
420.541	3.89
420.746	3.99
420.952	4.14
421.158	4.27
421.364	4.21
421.57	4.03
421.776	3.89
421.982	3.65
422.187	3.63
422.393	3.6
422.599	3.71
422.805	3.69
423.01	3.68
423.216	3.54
423.422	3.31
423.628	3.42
423.833	3.43
424.039	3.65
424.245	3.84
424.45	3.97
424.656	3.85
424.862	3.76
425.067	3.72
425.273	3.79
425.478	3.87
425.684	4.14
425.889	4.22
426.095	4.24
426.301	4.23
426.506	4.24
426.712	4.21
426.917	4.69
427.123	4.76
427.328	4.62
427.533	4.58
427.739	4.5
427.944	4.26
428.15	4.07
428.355	4.3
428.561	4.15
428.766	3.91
428.971	3.63
429.177	3.44
429.382	3.27
429.587	3.2
429.793	2.84
429.998	2.96
430.203	3.13
430.408	2.85
430.614	2.58
430.819	2.79
431.024	2.78
431.229	2.92
431.434	2.83
431.64	2.65
431.845	2.86
432.05	3.2
432.255	3.11
432.46	2.98
432.665	3.25
432.87	3.35
433.076	3.41
433.281	3.44
433.486	3.24
433.691	3.09
433.896	3.24
434.101	3.17
434.306	3.29
434.511	3.21
434.716	3.16
434.921	3.15
435.126	3.17
435.331	2.99
435.535	3.18
435.74	3.28
435.945	3.53
436.15	3.54
436.355	3.66
436.56	3.34
436.765	3.32
436.97	3.4
437.174	3.53
437.379	3.44
437.584	3.25
437.789	3.14
437.993	3.17
438.198	3.19
438.403	3.26
438.608	3.24
438.812	3.4
439.017	3.48
439.222	3.64
439.426	3.42
439.631	3.42
439.836	3.56
440.04	3.58
440.245	3.68
440.45	3.65
440.654	3.77
440.859	3.73
441.063	3.67
441.268	3.73
441.472	3.67
441.677	3.78
441.881	3.79
442.086	3.77
442.29	3.77
442.495	3.77
442.699	3.53
442.904	3.41
443.108	3.47
443.312	3.47
443.517	3.45
443.721	3.45
443.925	3.48
444.13	3.53
444.334	3.58
444.538	3.57
444.743	3.5
444.947	3.65
445.151	3.59
445.356	3.66
445.56	3.59
445.764	3.41
445.968	3.44
446.173	3.35
446.377	3.29
446.581	3.31
446.785	3.38
446.989	3.43
447.193	3.43
447.398	3.46
447.602	3.39
447.806	3.44
448.01	3.49
448.214	3.6
448.418	3.61
448.622	3.7
448.826	3.63
449.03	3.49
449.234	3.35
449.438	3.43
449.642	3.32
449.846	3.25
450.05	3.3
450.254	3.5
450.458	3.25
450.662	3.31
450.866	3.18
451.069	3.26
451.273	3.36
451.477	3.42
451.681	3.33
451.885	3.33
452.089	3.14
452.292	3.21
452.496	3.18
452.7	3.25
452.904	3.24
453.107	3.22
453.311	3.21
453.515	3.14
453.719	3.11
453.922	2.98
454.126	3.13
454.33	3.33
454.533	3.13
454.737	3.07
454.94	2.86
455.144	2.79
455.348	2.81
455.551	2.77
455.755	2.69
455.958	2.61
456.162	2.65
456.365	2.47
456.569	2.52
456.772	2.5
456.976	2.3
457.179	2.54
457.383	2.63
457.586	2.45
457.79	2.31
457.993	2.37
458.196	2.39
458.4	2.62
458.603	2.79
458.807	2.96
459.01	3.04
459.213	3.21
459.417	3.09
459.62	3.17
459.823	3.25
460.026	3.35
460.23	3.39
460.433	3.42
460.636	3.28
460.839	3.29
461.042	3.15
461.246	3.12
461.449	3.12
461.652	3.2
461.855	3.05
462.058	3.01
462.261	3
462.464	3.01
462.668	3.12
462.871	3.2
463.074	3.26
463.277	3.18
463.48	3.16
463.683	3.02
463.886	3.08
464.089	3.21
464.292	3.22
464.495	3.1
464.698	3.24
464.901	3.32
465.104	3.29
465.306	3.14
465.509	3.21
465.712	3.28
465.915	3.47
466.118	3.57
466.321	3.46
466.524	3.49
466.726	3.71
466.929	3.58
467.132	3.32
467.335	3.52
467.538	3.54
467.74	3.71
467.943	3.74
468.146	3.81
468.348	3.61
468.551	3.62
468.754	3.84
468.956	3.74
469.159	3.75
469.362	3.89
469.564	3.67
469.767	3.71
469.969	3.6
470.172	3.46
470.375	3.17
470.577	3.08
470.78	3.14
470.982	3.03
471.185	3.07
471.387	3.1
471.59	3
471.792	2.96
471.995	2.95
472.197	2.89
472.399	2.98
472.602	3.07
472.804	3.18
473.007	3.06
473.209	3.06
473.411	2.97
473.614	2.8
473.816	2.84
474.018	2.9
474.22	2.89
474.423	2.87
474.625	2.86
474.827	2.89
475.03	2.85
475.232	2.9
475.434	2.81
475.636	2.93
475.838	2.92
476.04	2.98
476.243	3.02
476.445	3.1
476.647	3.12
476.849	3.02
477.051	3.05
477.253	3.1
477.455	3.26
477.657	3.32
477.859	3.31
478.061	3.31
478.263	3.43
478.465	3.3
478.667	3.24
478.869	3.26
479.071	3.23
479.273	3.08
479.475	3.04
479.677	2.84
479.879	2.93
480.081	2.87
480.283	2.92
480.485	2.85
480.686	2.88
480.888	2.86
481.09	2.79
481.292	3.09
481.494	3.19
481.695	3.12
481.897	3.2
482.099	3.1
482.301	3.18
482.502	3.19
482.704	3.2
482.906	3.25
483.107	3.29
483.309	3.38
483.511	3.34
483.712	3.35
483.914	3.34
484.115	3.37
484.317	3.43
484.519	3.42
484.72	3.39
484.922	3.37
485.123	3.32
485.325	3.33
485.526	3.25
485.728	3.17
485.929	3.21
486.131	3.28
486.332	3.22
486.534	3.14
486.735	3.1
486.936	3.17
487.138	3.2
487.339	3.31
487.541	3.28
487.742	3.32
487.943	3.34
488.144	3.34
488.346	3.35
488.547	3.31
488.748	3.29
488.95	3.27
489.151	3.24
489.352	3.23
489.553	3.16
489.755	3.2
489.956	3.14
490.157	3.09
490.358	3.01
490.559	3.02
490.76	3.12
490.961	3.19
491.163	3.27
491.364	3.3
491.565	3.3
491.766	3.33
491.967	3.35
492.168	3.45
492.369	3.48
492.57	3.48
492.771	3.45
492.972	3.47
493.173	3.46
493.374	3.47
493.575	3.39
493.776	3.33
493.976	3.38
494.177	3.28
494.378	3.21
494.579	3.15
494.78	3.22
494.981	3.23
495.182	3.21
495.382	3.16
495.583	3.12
495.784	3.25
495.985	3.4
496.185	3.28
496.386	3.1
496.587	3.04
496.788	3.05
496.988	2.98
497.189	2.93
497.39	2.81
497.59	2.9
497.791	2.8
497.992	2.9
498.192	2.76
498.393	2.8
498.593	2.95
498.794	3.03
498.994	3.13
499.195	3.17
499.395	3.3
499.596	3.33
499.796	3.33
499.997	3.46
500.197	3.11
500.398	3.21
500.598	3.34
500.799	3.46
500.999	3.59
501.199	3.79
501.4	3.7
501.6	3.81
501.801	3.9
502.001	3.94
502.201	4.1
502.402	4.32
502.602	4.3
502.802	4.24
503.002	4.24
503.203	4.18
503.403	4.06
503.603	4.05
503.803	3.89
504.003	3.84
504.204	3.93
504.404	3.8
504.604	3.82
504.804	3.8
505.004	3.76
505.204	3.65
505.404	3.45
505.604	3.35
505.804	3.5
506.005	3.51
506.205	3.75
506.405	3.85
506.605	3.99
506.805	3.87
507.005	3.94
507.204	3.9
507.404	3.87
507.604	4.1
507.804	4.26
508.004	4.53
508.204	4.61
508.404	4.48
508.604	4.31
508.804	4.2
509.003	4.3
509.203	4.42
509.403	4.44
509.603	4.61
509.803	4.66
510.002	4.66
510.202	4.47
510.402	4.52
510.602	4.54
510.801	4.67
511.001	4.79
511.201	4.78
511.4	4.87
511.6	5.11
511.8	5.05
511.999	4.91
512.199	4.85
512.398	4.89
512.598	4.99
512.797	5.14
512.997	5.06
513.197	5.08
513.396	5.21
513.596	5.17
513.795	4.98
513.994	5.09
514.194	5.35
514.393	5.54
514.593	5.66
514.792	5.64
514.992	5.75
515.191	5.94
515.39	5.91
515.59	6.12
515.789	6.09
515.988	6.26
516.188	6.42
516.387	6.43
516.586	6.47
516.786	6.42
516.985	6.48
517.184	6.37
517.383	6.34
517.582	6.53
517.782	6.48
517.981	6.47
518.18	6.52
518.379	6.54
518.578	6.53
518.777	6.6
518.976	6.66
519.176	6.76
519.375	6.76
519.574	6.84
519.773	6.82
519.972	6.77
520.171	6.93
520.37	6.88
520.569	6.83
520.768	6.91
520.967	6.8
521.166	6.8
521.365	6.75
521.564	6.85
521.762	6.76
521.961	6.77
522.16	6.98
522.359	7
522.558	7.14
522.757	7.25
522.956	7.22
523.154	7.31
523.353	7.38
523.552	7.37
523.751	7.52
523.949	7.7
524.148	7.78
524.347	7.79
524.546	7.86
524.744	8.04
524.943	8.2
525.142	8.27
525.34	8.33
525.539	8.4
525.737	8.47
525.936	8.46
526.135	8.47
526.333	8.44
526.532	8.49
526.73	8.39
526.929	8.31
527.127	8.39
527.326	8.42
527.524	8.47
527.723	8.57
527.921	8.6
528.12	8.64
528.318	8.64
528.516	8.76
528.715	8.81
528.913	8.93
529.112	8.97
529.31	8.89
529.508	8.92
529.707	8.93
529.905	8.9
530.103	8.92
530.301	8.87
530.5	8.96
530.698	8.95
530.896	8.88
531.094	8.96
531.293	9.11
531.491	9.16
531.689	9.2
531.887	9.31
532.085	9.37
532.283	9.38
532.481	9.6
532.68	9.53
532.878	9.67
533.076	9.82
533.274	9.86
533.472	9.77
533.67	9.84
533.868	9.92
534.066	10.01
534.264	10.14
534.462	10.27
534.66	10.28
534.858	10.32
535.056	10.31
535.253	10.4
535.451	10.33
535.649	10.5
535.847	10.61
536.045	10.62
536.243	10.65
536.441	10.63
536.638	10.58
536.836	10.55
537.034	10.72
537.232	10.7
537.43	10.65
537.627	10.73
537.825	10.72
538.023	10.73
538.22	10.78
538.418	10.79
538.616	10.86
538.813	10.97
539.011	11.07
539.209	11
539.406	11.09
539.604	11.21
539.801	11.23
539.999	11.3
540.196	11.37
540.394	11.44
540.591	11.44
540.789	11.43
540.986	11.47
541.184	11.54
541.381	11.66
541.579	11.72
541.776	11.78
541.974	11.91
542.171	11.94
542.368	11.99
542.566	11.99
542.763	12.06
542.96	12.14
543.158	12.15
543.355	12.14
543.552	12.12
543.75	12.13
543.947	12.17
544.144	12.19
544.341	12.33
544.539	12.29
544.736	12.46
544.933	12.42
545.13	12.46
545.327	12.59
545.524	12.69
545.722	12.75
545.919	12.77
546.116	12.83
546.313	12.89
546.51	12.77
546.707	12.9
546.904	12.93
547.101	13.07
547.298	13
547.495	13.09
547.692	13.17
547.889	13.25
548.086	13.38
548.283	13.35
548.48	13.44
548.677	13.53
548.874	13.52
549.07	13.6
549.267	13.83
549.464	13.85
549.661	13.9
549.858	14
550.055	14.12
550.251	14.27
550.448	14.39
550.645	14.38
550.842	14.38
551.038	14.42
551.235	14.38
551.432	14.32
551.628	14.72
551.825	14.93
552.022	15.11
552.218	15.24
552.415	15.32
552.612	15.1
552.808	15.1
553.005	15.21
553.201	15.49
553.398	15.52
553.594	15.51
553.791	15.36
553.987	15.39
554.184	15.33
554.38	15.26
554.577	15.1
554.773	15.45
554.97	15.57
555.166	15.59
555.362	15.58
555.559	15.87
555.755	15.98
555.952	16.28
556.148	16.16
556.344	16.16
556.541	16.31
556.737	16.37
556.933	16.15
557.129	16.16
557.326	16.23
557.522	16.27
557.718	16.09
557.914	16.29
558.11	16.15
558.307	16.29
558.503	16.55
558.699	16.56
558.895	16.64
559.091	16.76
559.287	16.71
559.483	16.77
559.679	16.89
559.876	17.23
560.072	17.14
560.268	17.14
560.464	17.19
560.66	17.18
560.856	17.31
561.052	17.35
561.247	17.58
561.443	17.73
561.639	17.95
561.835	18.02
562.031	17.73
562.227	17.74
562.423	17.92
562.619	18.14
562.815	18.42
563.01	18.54
563.206	18.71
563.402	18.97
563.598	19.14
563.793	19.08
563.989	18.89
564.185	19.17
564.381	19.21
564.576	19.51
564.772	19.51
564.968	19.28
565.163	19.18
565.359	19.24
565.555	19.14
565.75	19.1
565.946	19.2
566.141	19.29
566.337	19.49
566.532	19.65
566.728	19.4
566.923	19.33
567.119	19.31
567.314	19.72
567.51	19.83
567.705	19.91
567.901	20.09
568.096	20.14
568.292	20.31
568.487	20.24
568.682	20.19
568.878	20.37
569.073	20.3
569.268	20.34
569.464	20.42
569.659	20.31
569.854	20.24
570.05	20.31
570.245	20.46
570.44	20.59
570.635	20.52
570.831	20.84
571.026	20.93
571.221	21.07
571.416	21.11
571.611	20.89
571.806	21.02
572.002	21.18
572.197	20.99
572.392	21.08
572.587	21.07
572.782	21.12
572.977	21.05
573.172	21.05
573.367	21.3
573.562	21.38
573.757	21.4
573.952	21.56
574.147	21.41
574.342	21.55
574.537	21.42
574.732	21.41
574.927	21.56
575.121	21.48
575.316	21.64
575.511	21.53
575.706	21.56
575.901	21.69
576.096	21.46
576.29	21.63
576.485	21.73
576.68	21.82
576.875	21.81
577.069	21.73
577.264	21.87
577.459	21.65
577.654	22.01
577.848	22.12
578.043	22.24
578.238	22.62
578.432	22.78
578.627	22.99
578.821	23.05
579.016	23.31
579.21	23.52
579.405	23.62
579.6	23.92
579.794	23.55
579.989	23.48
580.183	23.57
580.378	23.55
580.572	23.59
580.766	23.67
580.961	23.74
581.155	23.67
581.35	23.48
581.544	23.22
581.738	22.9
581.933	22.9
582.127	23.06
582.321	22.9
582.516	22.94
582.71	22.72
582.904	22.47
583.099	22.73
583.293	22.64
583.487	22.92
583.681	23.21
583.875	23.5
584.07	23.23
584.264	23.31
584.458	23.66
584.652	23.78
584.846	23.87
585.04	23.94
585.234	23.61
585.428	23.83
585.623	23.68
585.817	23.7
586.011	23.53
586.205	23.86
586.399	23.98
586.593	23.71
586.787	23.59
586.981	23.81
587.174	23.84
587.368	23.8
587.562	23.72
587.756	23.8
587.95	23.85
588.144	24.21
588.338	24.27
588.532	24.43
588.725	24.57
588.919	24.47
589.113	24.46
589.307	24.53
589.501	25
589.694	25.21
589.888	25.22
590.082	25.17
590.275	25.06
590.469	25.28
590.663	25.13
590.856	24.8
591.05	25.08
591.244	25.14
591.437	25.12
591.631	24.92
591.824	24.85
592.018	25.12
592.212	25.26
592.405	25.38
592.599	25.29
592.792	25.35
592.986	25.67
593.179	25.64
593.372	25.87
593.566	26.04
593.759	26.4
593.953	26.43
594.146	26.32
594.339	26.21
594.533	26.14
594.726	25.96
594.92	25.95
595.113	25.95
595.306	25.85
595.499	25.83
595.693	25.56
595.886	25.36
596.079	25.38
596.272	25.61
596.466	26.04
596.659	26.03
596.852	26.11
597.045	26.12
597.238	26.37
597.431	26.37
597.624	26.51
597.818	26.65
598.011	26.61
598.204	26.5
598.397	26.43
598.59	26.17
598.783	26.3
598.976	26.36
599.169	26.37
599.362	26.11
599.555	26.1
599.748	25.8
599.941	26.08
600.134	25.9
600.326	26.3
600.519	26.3
600.712	26.13
600.905	26.16
601.098	26.31
601.291	26.19
601.483	26.28
601.676	26.6
601.869	26.65
602.062	26.81
602.255	27.01
602.447	26.62
602.64	26.52
602.833	26.74
603.025	26.85
603.218	27.02
603.411	27.12
603.603	27.01
603.796	26.89
603.989	27.04
604.181	26.82
604.374	26.89
604.566	27.06
604.759	27.06
604.951	27.02
605.144	26.93
605.336	26.61
605.529	26.64
605.721	26.8
605.914	26.81
606.106	26.77
606.299	26.9
606.491	26.79
606.683	26.79
606.876	26.74
607.068	26.74
607.26	26.84
607.453	27.05
607.645	27.12
607.837	26.94
608.03	27.05
608.222	27.05
608.414	26.87
608.606	26.99
608.799	27.21
608.991	27.29
609.183	27.16
609.375	27.28
609.567	27.28
609.759	27.47
609.952	27.48
610.144	27.34
610.336	27.19
610.528	27.19
610.72	27.21
610.912	26.84
611.104	26.82
611.296	26.94
611.488	26.49
611.68	26.47
611.872	26.21
612.064	26.2
612.256	26.24
612.448	26.23
612.64	26.38
612.832	26.15
613.023	26.29
613.215	26.13
613.407	26.15
613.599	26.26
613.791	26.29
613.983	26.56
614.174	26.8
614.366	26.72
614.558	26.9
614.75	26.63
614.941	26.93
615.133	27.22
615.325	27.44
615.516	27.5
615.708	27.76
615.9	27.91
616.091	27.53
616.283	27.26
616.475	27.22
616.666	27.15
616.858	27.13
617.049	27.21
617.241	27.12
617.432	26.97
617.624	26.73
617.815	26.6
618.007	26.57
618.198	26.62
618.39	26.55
618.581	26.49
618.773	26.74
618.964	27.02
619.155	26.99
619.347	27.03
619.538	27.44
619.729	27.59
619.921	27.87
620.112	27.71
620.303	27.83
620.494	28.1
620.686	28.41
620.877	28.14
621.068	27.91
621.259	27.92
621.451	27.99
621.642	27.64
621.833	27.92
622.024	27.73
622.215	27.81
622.406	27.86
622.597	27.72
622.788	27.97
622.98	27.94
623.171	28.14
623.362	28.18
623.553	28.14
623.744	28.34
623.935	27.99
624.126	28.15
624.317	28.22
624.508	28.31
624.698	28.29
624.889	27.96
625.08	28.09
625.271	27.96
625.462	27.75
625.653	27.85
625.844	27.86
626.034	27.95
626.225	28
626.416	27.93
626.607	28.01
626.798	28.2
626.988	28.37
627.179	28.31
627.37	28.75
627.56	28.98
627.751	28.77
627.942	28.6
628.132	28.74
628.323	28.58
628.514	28.95
628.704	28.99
628.895	29.04
629.085	28.99
629.276	29.04
629.466	28.58
629.657	28.43
629.847	28.84
630.038	29.02
630.228	28.87
630.419	28.98
630.609	28.52
630.8	28.25
630.99	28.31
631.181	28.54
631.371	29.02
631.561	29.2
631.752	29.18
631.942	28.8
632.132	28.99
632.323	29.29
632.513	29.41
632.703	29.55
632.893	29.51
633.084	29.52
633.274	29.39
633.464	28.96
633.654	28.86
633.844	28.94
634.034	29.08
634.225	28.78
634.415	28.54
634.605	28.73
634.795	28.89
634.985	29.28
635.175	29.27
635.365	28.98
635.555	28.98
635.745	29.1
635.935	28.82
636.125	28.84
636.315	28.87
636.505	29.17
636.695	28.93
636.885	29.04
637.075	28.63
637.265	28.5
637.455	28.82
637.644	28.83
637.834	28.93
638.024	29.44
638.214	29.66
638.404	29.93
638.593	29.53
638.783	29.58
638.973	29.58
639.163	29.56
639.352	30.12
639.542	30.09
639.732	30.05
639.921	30.18
640.111	29.99
640.301	29.64
640.49	29.7
640.68	30
640.87	30.3
641.059	30.23
641.249	30.58
641.438	30.32
641.628	30.34
641.817	30.37
642.007	30.02
642.196	30.23
642.386	30.29
642.575	30.11
642.764	30.21
642.954	29.96
643.143	29.59
643.333	29.5
643.522	29.04
643.711	28.97
643.901	28.92
644.09	29.44
644.279	29.6
644.469	30.03
644.658	30.21
644.847	30.05
645.036	29.66
645.226	29.84
645.415	30.1
645.604	30.34
645.793	30.38
645.982	30.63
646.171	30.49
646.361	29.94
646.55	29.67
646.739	29.42
646.928	29.51
647.117	29.78
647.306	29.56
647.495	29.57
647.684	29.54
647.873	29.5
648.062	29.43
648.251	29.54
648.44	29.52
648.629	29.62
648.818	29.63
649.007	29.68
649.196	29.19
649.384	29.3
649.573	28.99
649.762	28.99
649.951	29.1
650.14	28.6
650.328	28.56
650.517	28.83
650.706	28.86
650.895	28.75
651.083	28.39
651.272	29.1
651.461	29.32
651.65	29.47
651.838	29.57
652.027	29.51
652.216	29.83
652.404	29.48
652.593	29.38
652.781	29.49
652.97	29.91
653.158	30.09
653.347	29.54
653.535	29.57
653.724	29.57
653.912	28.94
654.101	28.92
654.289	29.31
654.478	29.73
654.666	29.6
654.855	29.16
655.043	28.88
655.231	29.15
655.42	29.15
655.608	28.86
655.796	28.64
655.985	29.35
656.173	29.56
656.361	28.93
656.55	28.43
656.738	28.39
656.926	28.82
657.114	28.97
657.302	29.06
657.491	29.7
657.679	29.86
657.867	29.98
658.055	29.92
658.243	30.03
658.431	30.42
658.619	30.85
658.807	31.08
658.996	30.38
659.184	30.51
659.372	30.53
659.56	30.47
659.748	30.37
659.936	30.46
660.124	30.57
660.311	30.06
660.499	30.14
660.687	30.04
660.875	30.24
661.063	31
661.251	30.96
661.439	30.74
661.627	30.58
661.814	30.83
662.002	30.95
662.19	30.98
662.378	31.56
662.565	31.6
662.753	31.71
662.941	31.31
663.129	31.14
663.316	30.98
663.504	31.06
663.692	31.1
663.879	30.99
664.067	30.68
664.254	30.63
664.442	30.63
664.63	30.53
664.817	30.3
665.005	30.68
665.192	30.3
665.38	30.48
665.567	30.46
665.755	30.17
665.942	30.54
666.13	30.97
666.317	30.7
666.504	30.61
666.692	30.47
666.879	30.46
667.067	30.16
667.254	30.53
667.441	30.22
667.629	30.09
667.816	30.6
668.003	30.29
668.19	29.6
668.378	30.02
668.565	30.2
668.752	30.29
668.939	30.95
669.127	30.69
669.314	30.41
669.501	31.09
669.688	31.28
669.875	31.02
670.062	31.22
670.249	31.69
670.436	31.51
670.623	31.09
670.81	30.67
670.997	30.07
671.184	30.42
671.371	30.79
671.558	29.95
671.745	29.92
671.932	29.9
672.119	29.84
672.306	29.82
672.493	29.67
672.68	29.71
672.867	29.98
673.054	29.61
673.24	29.28
673.427	28.97
673.614	28.94
673.801	29.19
673.988	29.27
674.174	29.39
674.361	29.12
674.548	29.69
674.734	29.98
674.921	30.43
675.108	30.73
675.294	31.5
675.481	31.63
675.668	32.35
675.854	31.76
676.041	31.97
676.227	32.19
676.414	32.46
676.601	32.25
676.787	32.07
676.974	32.02
677.16	32.47
677.347	32.3
677.533	32.15
677.719	32.12
677.906	32.98
678.092	32.86
678.279	32.26
678.465	32.34
678.651	32.51
678.838	32.49
679.024	32.19
679.21	31.54
679.397	31.46
679.583	31.4
679.769	31.12
679.955	30.48
680.142	30.48
680.328	30.37
680.514	30
680.7	29.91
680.886	30.17
681.073	30.46
681.259	30.67
681.445	30.6
681.631	30.86
681.817	31.32
682.003	31.7
682.189	32.25
682.375	32.86
682.561	33.1
682.747	33
682.933	32.83
683.119	32.14
683.305	32.31
683.491	32.12
683.677	32.12
683.863	31.72
684.049	31.67
684.235	30.69
684.42	30.99
684.606	31
684.792	30.25
684.978	29.96
685.164	30.37
685.349	30.77
685.535	30.83
685.721	30.77
685.907	30.84
686.092	30.53
686.278	31.22
686.464	30.73
686.649	30.7
686.835	30.61
687.021	30.93
687.206	31.03
687.392	31.08
687.577	31.27
687.763	31.37
687.948	31.5
688.134	31.42
688.319	31.07
688.505	30.74
688.69	30.91
688.876	31.78
689.061	31.62
689.247	31.81
689.432	31.36
689.618	31.61
689.803	31.48
689.988	31.11
690.174	31.17
690.359	31.75
690.544	31.91
690.73	32.04
690.915	32.17
691.1	32.31
691.285	32.33
691.471	32.68
691.656	32.91
691.841	32.83
692.026	33.07
692.211	33.53
692.396	33.06
692.582	33.76
692.767	33.47
692.952	32.83
693.137	32.78
693.322	32.77
693.507	32.39
693.692	31.41
693.877	31.64
694.062	31.23
694.247	31.22
694.432	31.24
694.617	30.91
694.802	30.9
694.987	30.64
695.172	31.35
695.357	31.42
695.541	30.94
695.726	31.39
695.911	30.87
696.096	31.61
696.281	31.72
696.466	32.1
696.65	31.57
696.835	32.13
697.02	32.89
697.204	32.61
697.389	32.74
697.574	32.85
697.759	33.03
697.943	33.05
698.128	32.65
698.312	32.38
698.497	32
698.682	32.1
698.866	31.8
699.051	31.66
699.235	31.54
699.42	31.26
699.604	31.27
699.789	31.1
699.973	31.29
700.158	31.36
700.342	31.84
700.527	31.91
700.711	32.39
700.895	32.61
701.08	32.68
701.264	32.63
701.448	32.76
701.633	33.21
701.817	33.22
702.001	33.55
702.186	33.2
702.37	32.38
702.554	32.42
702.738	32.34
702.923	31.84
703.107	31.67
703.291	31.81
703.475	32.4
703.659	32.01
703.843	32.14
704.027	31.04
704.212	31.6
704.396	31.55
704.58	31.12
704.764	30.69
704.948	31.56
705.132	31.93
705.316	31.97
705.5	30.93
705.684	31.03
705.868	31.17
706.052	32.02
706.235	32.3
706.419	32.98
706.603	34.14
706.787	34.14
706.971	33.13
707.155	33.21
707.339	32.69
707.522	32.95
707.706	33.07
707.89	32.93
708.074	32.59
708.257	31.67
708.441	31.13
708.625	29.8
708.808	30.13
708.992	30.73
709.176	30.45
709.359	31.22
709.543	31.32
709.727	31.43
709.91	31.52
710.094	31.94
710.277	32.09
710.461	32.44
710.644	33.08
710.828	32.47
711.011	32.12
711.195	32.38
711.378	31.71
711.562	32.01
711.745	31.87
711.928	31.35
712.112	31.79
712.295	32.28
712.478	31.91
712.662	31.62
712.845	32.06
713.028	32.82
713.212	32.08
713.395	32.09
713.578	31.89
713.761	31.65
713.945	32.06
714.128	31.74
714.311	31.01
714.494	31.22
714.677	31.4
714.86	30.78
715.043	30.39
715.227	30.69
715.41	30.84
715.593	30.46
715.776	30.59
715.959	30.43
716.142	30.21
716.325	30.9
716.508	30.5
716.691	30.66
716.874	30.86
717.057	30.77
717.239	31.46
717.422	31.9
717.605	32.06
717.788	31.9
717.971	32.16
718.154	32.02
718.337	32.05
718.519	32.59
718.702	32.08
718.885	32.76
719.068	32.17
719.25	31.27
719.433	30.88
719.616	31.04
719.798	30.61
719.981	31.39
720.164	31.3
720.346	30.32
720.529	29.99
720.712	30.74
720.894	30.91
721.077	31.86
721.259	31.63
721.442	32.28
721.624	32.06
721.807	32.88
721.989	32.13
722.172	31.73
722.354	32.46
722.537	32.94
722.719	32.06
722.901	31.18
723.084	30.26
723.266	30.95
723.448	31.75
723.631	31.97
723.813	32
723.995	33.09
724.178	33.92
724.36	34.15
724.542	33.14
724.724	34
724.907	33.54
725.089	33.73
725.271	33.65
725.453	32.12
725.635	33
725.817	32.87
725.999	31.74
726.181	31.3
726.364	31.57
726.546	31.7
726.728	31.01
726.91	31.57
727.092	31.66
727.274	31
727.456	31.58
727.638	30.91
727.819	31.59
728.001	31.02
728.183	31.93
728.365	31.29
728.547	31.59
728.729	31.62
728.911	31.44
729.093	31.95
729.274	33.21
729.456	32.86
729.638	33.29
729.82	33.33
730.001	33.39
730.183	33.36
730.365	33.77
730.546	35.31
730.728	35.46
730.91	36.26
731.091	36.16
731.273	35.17
731.455	35
731.636	34.46
731.818	34.11
731.999	33.66
732.181	33.53
732.362	33.47
732.544	32.14
732.725	33.03
732.907	32.57
733.088	32.46
733.27	32.87
733.451	33.18
733.633	33.61
733.814	33.98
733.995	35.07
734.177	34.59
734.358	35.04
734.539	35.41
734.721	35.49
734.902	36.48
735.083	36.55
735.264	35.89
735.446	35.31
735.627	34.48
735.808	33.06
735.989	32
736.17	32.14
736.351	31.65
736.533	31.44
736.714	30.83
736.895	30.15
737.076	30.16
737.257	30.66
737.438	30.79
737.619	30.59
737.8	31.88
737.981	32.99
738.162	32.99
738.343	33.05
738.524	32.68
738.705	32.22
738.886	31.97
739.067	31.45
739.247	31.29
739.428	31.08
739.609	31.9
739.79	31.25
739.971	30.97
740.151	31.18
740.332	30.69
740.513	31.04
740.694	30.46
740.874	29.51
741.055	29.09
741.236	29.26
741.417	30.35
741.597	29.93
741.778	30.44
741.958	30.77
742.139	29.49
742.32	29.35
742.5	30.27
742.681	31.61
742.861	31.88
743.042	34.3
743.222	34.24
743.403	34.84
743.583	35.97
743.764	35.52
743.944	36.25
744.124	37.25
744.305	38.21
744.485	36.93
744.666	36.5
744.846	37.21
745.026	35.7
745.207	36.3
745.387	34.93
745.567	33.16
745.747	32.98
745.928	31.52
746.108	31.17
746.288	30.22
746.468	30.68
746.648	30.34
746.829	31.94
747.009	31.47
747.189	31.16
747.369	31.08
747.549	31.91
747.729	31.15
747.909	31.04
748.089	31.69
748.269	33.13
748.449	32.51
748.629	32.44
748.809	30.42
748.989	30.47
749.169	31.58
749.349	31.08
749.529	31.86
749.709	32.33
749.889	32.65
750.068	32.67
750.248	31.87
750.428	32.19
750.608	33.75
750.788	35.24
750.967	35.99
751.147	34.63
751.327	34.9
751.507	34.55
751.686	35.59
751.866	35.55
752.046	33.99
752.225	35.28
752.405	36.08
752.585	35.56
752.764	33.99
752.944	34.04
753.123	33.84
753.303	34.14
753.482	32.43
753.662	31.73
753.841	31.64
754.021	32.84
754.2	32.5
754.38	31.49
754.559	31.09
754.739	31.74
754.918	30.72
755.097	30.81
755.277	30.15
755.456	31.91
755.635	32.39
755.815	32.32
755.994	32.13
756.173	31.3
756.352	32.24
756.532	32.01
756.711	31.97
756.89	32.1
757.069	33.14
757.248	33.79
757.427	33.64
757.607	32.7
757.786	33.43
757.965	33.92
758.144	34.4
758.323	33.14
758.502	33.73
758.681	33.64
758.86	34.63
759.039	34.02
759.218	35.35
759.397	35.97
759.576	36.66
759.755	36.13
759.934	35.36
760.113	34.45
760.291	35.78
760.47	35.26
760.649	35.5
760.828	34.88
761.007	34.96
761.186	34.56
761.364	33.47
761.543	33.87
761.722	33.36
761.901	34.01
762.079	34.55
762.258	34.09
762.437	34
762.615	34.2
762.794	34.18
762.972	34.37
763.151	33.4
763.33	33.41
763.508	33.42
763.687	35.07
763.865	34.96
764.044	35.14
764.222	34.81
764.401	34.5
764.579	34.51
764.758	34.93
764.936	33.88
765.114	34.29
765.293	34.52
765.471	34.48
765.65	33.2
765.828	33.57
766.006	33.31
766.184	33.31
766.363	33.72
766.541	32.62
766.719	31.98
766.898	32.57
767.076	33.07
767.254	32.81
767.432	32.9
767.61	33.11
767.788	32.6
767.967	32.29
768.145	32.56
768.323	33.03
768.501	34.13
768.679	34.36
768.857	35.09
769.035	33.49
769.213	33.29
769.391	32.32
769.569	32.4
769.747	31.9
769.925	32.02
770.103	31.21
770.281	30
770.459	29.47
770.636	28.75
770.814	28.85
770.992	28.34
771.17	29.99
771.348	30.42
771.525	30.43
771.703	31.44
771.881	32.17
772.059	33.33
772.236	34.3
772.414	35.19
772.592	36.06
772.769	34.52
772.947	35.61
773.125	32.94
773.302	32.45
773.48	31.93
773.657	30.91
773.835	29.67
774.013	31.3
774.19	30.67
774.368	31.06
774.545	30.13
774.723	32.04
774.9	32.08
775.077	33.06
775.255	34.23
775.432	32.45
775.61	34.39
775.787	35.03
775.964	34.07
776.142	33.26
776.319	32.84
776.496	34.83
776.674	35.14
776.851	34.82
777.028	35.47
777.205	34.33
777.382	35.14
777.56	33.5
777.737	32.58
777.914	30.27
778.091	31.55
778.268	29.58
778.445	29.28
778.622	27.97
778.8	29.56
778.977	30.71
779.154	46.57
779.331	46.81
779.508	47.12
779.685	49.08
779.862	51.7
780.038	51.43
780.215	50.87
780.392	49.95
780.569	49.2
780.746	49.59
780.923	48.34
781.1	30.32
781.277	31.17
781.453	29.52
781.63	28.42
781.807	26.63
781.984	26.07
782.16	29.05
782.337	28.99
782.514	30
782.691	28.61
782.867	28.54
783.044	28.98
783.221	29.99
783.397	30.98
783.574	32.68
783.75	31.41
783.927	31.06
784.103	27.72
784.28	25.7
784.456	26.84
784.633	30.06
784.809	32.89
784.986	33.89
785.162	32.13
785.339	31.66
785.515	28.44
785.692	31.82
785.868	34.1
786.044	35.73
786.221	35.76
786.397	33.46
786.573	30.39
786.749	28.43
786.926	28.58
787.102	29.9
787.278	30.9
787.454	32.72
787.631	30.38
787.807	30.8
787.983	30.58
788.159	31.19
788.335	31.49
788.511	31.18
788.687	29.98
788.863	30.85
789.039	31.07
789.216	30.93
789.392	31.24
789.568	30.56
789.744	28.15
789.919	28.84
790.095	29.23
790.271	32.29
790.447	33.05
790.623	33.95
790.799	34.18
790.975	33.44
791.151	32.8
791.327	30.98
791.502	35.66
791.678	39.22
791.854	39.04
792.03	39.37
792.205	37.25
792.381	36.8
792.557	35.59
792.733	34.66
792.908	35.05
793.084	34.51
793.259	35.18
793.435	31.17
793.611	29.69
793.786	30.25
793.962	28.82
794.137	29.42
794.313	27.55
794.488	27.94
794.664	26.23
794.839	26.67
795.015	26.26
795.19	26.43
795.366	26.43
795.541	24.56
795.716	22.25
795.892	24.69
796.067	25.47
796.242	27.8
796.418	29.69
796.593	29.59
796.768	29
796.944	29.04
797.119	29.79
797.294	28.89
797.469	30.34
797.644	30.72
797.82	28.75
797.995	28.88
798.17	28.84
798.345	27.63
798.52	29.56
798.695	30.08
798.87	32.96
799.045	34.3
799.22	35.44
799.395	34.82
799.57	33.59
799.745	35.25
799.92	36.01
800.095	35.14
800.27	34.83
800.445	34.54
800.62	33.08
800.795	29.39
800.97	27.52
801.145	28.82
801.319	28.68
801.494	29.16
801.669	29.17
801.844	27.35
802.018	27.49
802.193	28.86
802.368	29.82
802.543	31.93
802.717	35.05
802.892	32.68
803.067	32.68
803.241	31.52
803.416	33.41
803.59	31.28
803.765	29.56
803.94	28.27
804.114	26.51
804.289	23.57
804.463	22.38
804.638	22.09
804.812	25.14
804.986	22.73
805.161	26.8
805.335	25.99
805.51	28.74
805.684	28.63
805.858	29.77
806.033	32.8
806.207	34.62
806.381	31.11
806.556	30.55
806.73	28.08
806.904	27.14
807.078	23.81
807.253	25.54
807.427	22.51
807.601	22.81
807.775	24.78
807.949	23.98
808.123	22.43
808.298	24.23
808.472	22.93
808.646	23.07
808.82	22.8
808.994	25.27
809.168	21.91
809.342	26.83
809.516	24.8
809.69	22.59
809.864	23.98
810.038	24.99
810.212	26.42
810.385	29.49
810.559	30.29
810.733	33.02
810.907	28.6
811.081	30.44
811.255	24.19
811.428	27.01
811.602	28.6
811.776	24.58
811.95	24.14
812.123	26.83
812.297	25.89
812.471	23.46
812.644	22.48
812.818	23.12
812.992	20.86
813.165	26.91
813.339	27.62
813.512	28.97
813.686	29.97
813.86	30.31
814.033	26.02
814.207	25.62
814.38	27.87
814.554	28.09
814.727	25.15
814.9	26.12
815.074	22.74
815.247	21.96
815.421	21.31
815.594	23.13
815.767	21.91
815.941	22.65
816.114	22.97
816.287	22.68
816.46	21.64
816.634	26.85
816.807	28.1
816.98	30.45
817.153	33.65
817.327	33.3
817.5	33.91
817.673	36.37
817.846	37.74
818.019	39.34
818.192	41.38
818.365	41.79
818.538	38.11
818.711	36.86
818.884	35.68
819.057	30.92
819.23	29.02
819.403	27.47
819.576	25.41
819.749	26.66
819.922	23.97
820.095	22.48
820.268	22.09
820.441	25.39
820.614	26.57
820.786	28.69
820.959	32.09
821.132	34.11
821.305	33.04
821.477	34.23
821.65	33.12
821.823	34.89
821.996	35.02
822.168	35.5
822.341	36.45
822.514	37.02
822.686	36.09
822.859	35.6
823.031	35.39
823.204	35.81
823.376	35.93
823.549	36.29
823.722	35.33
823.894	35.61
824.067	35.26
824.239	34.62
824.411	34.55
824.584	34.63
824.756	35.23
824.929	35.62
825.101	35.8
825.273	35.61
825.446	34.83
825.618	35.51
825.79	35.04
825.963	35.33
826.135	35.34
826.307	35.86
826.479	36.71
826.652	35.49
826.824	35.25
826.996	34.9
827.168	34.73
827.34	35.92
827.512	35.91
827.684	36.8
827.856	37.36
828.029	37.56
828.201	37
828.373	35.74
828.545	36.2
828.717	36.19
828.889	37.68
829.061	37.91
829.232	36.69
829.404	36.71
829.576	35.29
829.748	34.37
829.92	33.78
830.092	33.77
830.264	34.56
830.436	35.17
830.607	34.54
830.779	32.96
830.951	32.92
831.123	32.9
831.294	31.3
831.466	32.76
831.638	31.84
831.809	32.52
831.981	30.45
832.153	31.88
832.324	31.95
832.496	32
832.667	30.6
832.839	28.99
833.011	30.04
833.182	31.65
833.354	32.84
833.525	33.4
833.697	32.83
833.868	33.97
834.039	32.1
834.211	33
834.382	32.52
834.554	32.9
834.725	32.89
834.896	31.83
835.068	33.89
835.239	31.97
835.41	33.39
835.581	33.21
835.753	32.72
835.924	33.73
836.095	33.06
836.266	34.4
836.438	35.53
836.609	36.01
836.78	36.12
836.951	31.05
837.122	29.76
837.293	26.34
837.464	25.96
837.635	26.14
837.806	27.53
837.977	22.72
838.148	22.59
838.319	20.28
838.49	21.41
838.661	21.96
838.832	25.73
839.003	31.57
839.174	28.35
839.345	29.24
839.516	29.59
839.687	23.54
839.857	29.58
840.028	23.91
840.199	26.25
840.37	19.49
840.54	25.04
840.711	25.27
840.882	21.65
841.053	26.55
841.223	22.21
841.394	22.68
841.564	24.34
841.735	21.11
841.906	21.69
842.076	20.13
842.247	29.41
842.417	26.08
842.588	25.09
842.758	23.73
842.929	24.26
843.099	21.21
843.27	24.72
843.44	20.5
843.611	20.37
843.781	23.52
843.951	25.51
844.122	19.36
844.292	21.64
844.462	21.42
844.633	18.93
844.803	17.04
844.973	19.51
845.144	11.37
845.314	14.26
845.484	18.2
845.654	13.11
845.824	3.22
845.995	0.66
846.165	2.91
846.335	8.84
846.505	11.02
846.675	13.04
846.845	12.53
847.015	8.97
847.185	14.8
847.355	15.82
847.525	11
847.695	8.24
847.865	15.41
848.035	6.13
848.205	-0.9
848.375	-7.3
848.545	-9.52
848.715	6.77
848.884	12.48
849.054	-1.21
849.224	-4.92
849.394	2.56
849.564	9.92
849.733	3.47
849.903	1.12
850.073	-12.01
850.243	-0.88
850.412	5.08
850.582	-19.67
850.752	-49.77
850.921	-25.72
851.091	-29.42
851.26	-22.81
851.43	-54.7
851.599	-30.6
851.769	-23.03
851.939	-19.5
852.108	-25.33
852.278	-28.31
852.447	-26.77
852.616	-3.81
852.786	-8.62
852.955	-0.96
853.125	-2.81
853.294	14.67
853.463	5.3
853.633	-7.88
853.802	4.94
853.971	13.58
854.141	22.11
854.31	36.27
854.479	35.27
854.648	39.12
854.818	38.55
854.987	38.73
855.156	31.4
855.325	27.93
855.494	36.98
855.663	33.89
855.832	24.29
856.001	13.57
856.171	12.58
856.34	9.4
856.509	-4.48
856.678	-7.07
856.847	-12.41
857.016	9.69
857.185	33.11
857.353	29.9
857.522	24.5
857.691	30.21
857.86	45.48
858.029	47.22
858.198	49.09
858.367	50.66
858.535	38.64
858.704	34.83
858.873	22.87
859.042	-13.16
859.21	0.9
859.379	6.73
859.548	9.15
859.717	-3.1
859.885	-8.96
860.054	4.6
860.222	19.54
860.391	39.19
860.56	49.44
860.728	42.78
860.897	50.62
861.065	34.73
861.234	36.65
861.402	27.52
861.571	28.61
861.739	28
861.908	30.17
862.076	35.84
862.244	26.15
862.413	19.21
862.581	21.73
862.749	11.8
862.918	4.27
863.086	-12.42
863.254	5.86
863.423	-10.66
863.591	-7.9
863.759	-39.58
863.927	-36.33
864.096	-36.46
864.264	-65.45
864.432	-71.28
864.6	-73.39
864.768	-36.27
864.936	-19.94
865.104	-13.28
865.272	-3.02
865.44	-23.01
865.608	-10.92
865.776	-27.65
865.944	-31.99
866.112	-13.22
866.28	19.62
866.448	16.89
866.616	16.62
866.784	21.81
866.952	9.46
867.12	-10.44
867.288	9.2
867.455	2.7
867.623	2.9
867.791	16.27
867.959	-0.93
868.127	-53.75
868.294	-28.57
868.462	-28.75
868.63	-26.71
868.797	-26.88
868.965	-8.15
869.133	0.7
869.3	5.79
869.468	20.13
869.636	10.59
869.803	12.64
869.971	19.04
870.138	18.49
870.306	28.82
870.473	26.96
870.641	19.75
870.808	29.31
870.975	20.59
871.143	12.89
871.31	-6.44
871.478	-4.09
871.645	-0.5
871.812	-3.61
871.98	7.81
872.147	2.47
872.314	15.5
872.482	22.79
872.649	5.59
872.816	12.97
872.983	16.34
873.15	18.67
873.318	11.99
873.485	9.85
873.652	9.14
873.819	15.24
873.986	10.53
874.153	9.9
874.32	-7.23
874.487	-5.47
874.654	-9.98
874.821	-16.87
874.988	-20.08
875.155	-3.27
875.322	8.77
875.489	15.7
875.656	22.04
875.823	25.04
875.99	28.5
876.157	44.54
876.324	46.2
876.49	44.67
876.657	47.55
876.824	44.28
876.991	30.62
877.157	33.24
877.324	21.5
877.491	13.52
877.658	18.98
877.824	18.97
877.991	11.19
878.157	-0.11
878.324	8.69
878.491	-18.78
878.657	5.46
878.824	19.28
878.99	1.6
879.157	2.03
879.323	-1.73
879.49	-0.87
879.656	-0.33
879.823	6.99
879.989	4.07
880.156	7.66
880.322	22.45
880.488	21.29
880.655	20.96
880.821	24.34
880.987	31.53
881.154	30.81
881.32	35.78
881.486	33.51
881.652	31.21
881.819	38.05
881.985	38.59
882.151	40.27
882.317	38.5
882.483	35.42
882.649	32.55
882.816	32.36
882.982	32.15
883.148	29.42
883.314	29.25
883.48	30.2
883.646	29.23
883.812	29.62
883.978	28.17
884.144	28.73
884.31	29.52
884.476	30.11
884.642	31.29
884.807	30.39
884.973	30.46
885.139	30.76
885.305	28.68
885.471	28.25
885.637	28.04
885.802	26.2
885.968	26.61
886.134	28.14
886.3	29.5
886.465	26.15
886.631	28.95
886.797	29.62
886.962	29.48
887.128	32.16
887.293	30.57
887.459	25.67
887.625	29.45
887.79	25.91
887.956	22.69
888.121	19.18
888.287	19.77
888.452	17.67
888.618	11.44
888.783	7.09
