Data from CB_021_Reflection_3.txt Node
Date: Wed Nov 11 20:09:47 EST 2015
User: robert
Spectrometer: USB4E03001
Autoset integration time: false
Trigger mode: 4
Integration Time (sec): 1.000000E-1
Scans to average: 15
Electric dark correction enabled: true
Nonlinearity correction enabled: false
Boxcar width: 5
Stray light correction enabled: false
XAxis mode: Wavelengths
Stop averaging: false
Number of Pixels in Spectrum: 3648
>>>>>Begin Spectral Data<<<<<
177.566	-115.33
177.785	-225.26
178.005	505.38
178.225	-159.17
178.445	-221.93
178.665	644.12
178.885	91.27
179.105	1656.52
179.324	94.59
179.544	141
179.764	-115.01
179.984	-241.96
180.204	5792.5
180.423	160.26
180.643	-720.43
180.863	1522.55
181.083	230.41
181.302	238.88
181.522	284.77
181.742	-1266.22
181.961	-329.55
182.181	-2676.81
182.401	1159.68
182.621	-147.43
182.84	-42.84
183.06	13.32
183.279	-23.5
183.499	11.16
183.719	-8.9
183.938	42.05
184.158	97.61
184.377	103.65
184.597	109.1
184.816	104.05
185.036	106.59
185.256	110.95
185.475	138.85
185.695	92.1
185.914	161.05
186.134	931.43
186.353	-943.17
186.572	-71.56
186.792	-28.48
187.011	72.72
187.231	184.02
187.45	190.52
187.67	130.96
187.889	120.31
188.108	145.49
188.328	245.83
188.547	382.95
188.766	369.68
188.986	1444
189.205	1711.26
189.424	587.96
189.644	124.27
189.863	28.28
190.082	-31.6
190.302	0.55
190.521	-44.56
190.74	-42.04
190.959	-41.19
191.178	34.88
191.398	60.74
191.617	23.75
191.836	-161.81
192.055	50.61
192.274	69.29
192.494	57.76
192.713	401.32
192.932	390.1
193.151	25.65
193.37	96.01
193.589	77.67
193.808	181.03
194.027	223.04
194.246	721.25
194.465	268.77
194.685	551.36
194.904	-458.62
195.123	894.32
195.342	367.16
195.561	1209.18
195.78	8087.38
195.999	879.19
196.218	543.24
196.436	1162.36
196.655	-694.36
196.874	-448.12
197.093	-984.12
197.312	391.51
197.531	-713.24
197.75	-17.78
197.969	60.88
198.188	-41.08
198.407	92.95
198.625	152.81
198.844	276.29
199.063	-315.98
199.282	-439.59
199.501	-327.68
199.719	-473.54
199.938	-291.12
200.157	1705.74
200.376	-76.91
200.594	-968.23
200.813	-302.22
201.032	295.77
201.251	309.55
201.469	306.09
201.688	228.77
201.907	531.26
202.125	303.84
202.344	1337.37
202.563	329.71
202.781	339.06
203	150.07
203.218	107.74
203.437	321.61
203.656	294.06
203.874	360.71
204.093	733.94
204.311	531.34
204.53	203.56
204.748	307.9
204.967	542.93
205.185	8855.24
205.404	-237.98
205.622	-58.15
205.841	2.15
206.059	-32.79
206.278	-5.34
206.496	9.06
206.715	1.3
206.933	11.85
207.151	4.48
207.37	15.36
207.588	102.57
207.806	71.65
208.025	166
208.243	-68
208.461	-74.37
208.68	-62.12
208.898	438.3
209.116	71.41
209.335	307.85
209.553	164.71
209.771	255.17
209.989	-148.32
210.208	3.52
210.426	115.84
210.644	329.93
210.862	409.77
211.081	204.26
211.299	130.14
211.517	94.27
211.735	411.14
211.953	167.4
212.171	185.68
212.39	-1267.65
212.608	-109.12
212.826	8.41
213.044	78.72
213.262	72.24
213.48	79.28
213.698	82.79
213.916	69.03
214.134	207.7
214.352	239.73
214.57	154.32
214.788	277.6
215.006	453.71
215.224	-55.43
215.442	-55.5
215.66	24.36
215.878	-25.7
216.096	-45.04
216.314	-108.35
216.532	-200.67
216.75	-189.66
216.968	4.86
217.185	-0.22
217.403	9.53
217.621	-226.21
217.839	-137.58
218.057	-192.41
218.275	-510.48
218.492	818.07
218.71	-205.35
218.928	-60.69
219.146	6.7
219.363	-350
219.581	59.38
219.799	-10.4
220.017	-122.5
220.234	-143.1
220.452	-172.8
220.67	-398.42
220.887	2305.83
221.105	-451.95
221.323	-74.1
221.54	-29.64
221.758	-289.97
221.976	-111.92
222.193	-64.58
222.411	-4.23
222.629	-13.02
222.846	2.13
223.064	42.42
223.281	42.77
223.499	50.24
223.716	51.19
223.934	12.24
224.151	25.65
224.369	26.39
224.586	25.57
224.804	25.13
225.021	14.36
225.239	2.81
225.456	7.95
225.674	10.26
225.891	-11.61
226.108	-13.02
226.326	8.68
226.543	15.29
226.76	21.38
226.978	16.28
227.195	16.73
227.413	38.58
227.63	34.89
227.847	22.92
228.064	19.48
228.282	19.41
228.499	15.47
228.716	17.54
228.934	20.03
229.151	19.24
229.368	18.7
229.585	17.82
229.802	10.98
230.02	7.21
230.237	8.74
230.454	9.6
230.671	9.14
230.888	11.46
231.105	16.13
231.323	16.7
231.54	17.37
231.757	17.83
231.974	13.85
232.191	12.55
232.408	15.59
232.625	19.47
232.842	18.66
233.059	22.79
233.276	24.58
233.493	12.6
233.71	6.51
233.927	8.92
234.144	-0.63
234.361	1.25
234.578	4.23
234.795	-1
235.012	-1.68
235.229	-3.39
235.446	-9.75
235.663	-15.4
235.879	-9.74
236.096	-3.75
236.313	-5.49
236.53	4.32
236.747	11.73
236.964	10.9
237.181	9.48
237.397	7.5
237.614	4.53
237.831	6.97
238.048	-0.3
238.264	-8.76
238.481	-13.94
238.698	-19.35
238.915	-14.59
239.131	-15.93
239.348	-12.04
239.565	-6.7
239.781	-7.81
239.998	-3.71
240.215	-0.54
240.431	6.15
240.648	7.77
240.865	10.55
241.081	9.01
241.298	5.25
241.514	5.56
241.731	5.1
241.947	5.63
242.164	6.38
242.38	6.05
242.597	5.3
242.814	4.36
243.03	7.44
243.246	7.95
243.463	9.19
243.679	9
243.896	8.43
244.112	11.79
244.329	13.73
244.545	14.24
244.762	14.63
244.978	17.01
245.194	19.27
245.411	16.98
245.627	13.07
245.843	14.3
246.06	14.34
246.276	13.68
246.492	10.06
246.709	10.1
246.925	10.33
247.141	9.77
247.357	8.34
247.574	7.94
247.79	8.55
248.006	8.77
248.222	9.18
248.439	9.87
248.655	9.93
248.871	10.87
249.087	9.69
249.303	8.97
249.519	10.33
249.736	10.74
249.952	10.62
250.168	9.95
250.384	11.13
250.6	8.1
250.816	6.42
251.032	7.26
251.248	8.89
251.464	11.89
251.68	12.57
251.896	11.02
252.112	11.89
252.328	11.38
252.544	9.82
252.76	9.15
252.976	11.77
253.192	11.79
253.408	10.29
253.624	9.3
253.84	6.8
254.056	4.81
254.272	5.24
254.487	5.85
254.703	5.09
254.919	6.7
255.135	3.56
255.351	-1.69
255.567	1.85
255.782	4.45
255.998	6.01
256.214	3.85
256.43	3.28
256.646	3.37
256.861	3.41
257.077	2.94
257.293	-0.51
257.508	2.12
257.724	4.96
257.94	5.08
258.155	5.33
258.371	4.19
258.587	5.43
258.802	5.83
259.018	6.16
259.234	5.08
259.449	5.34
259.665	5.65
259.88	6.58
260.096	5.75
260.312	6.01
260.527	5.01
260.743	4.89
260.958	4.62
261.174	5.79
261.389	4.98
261.605	6.5
261.82	6.96
262.036	9.32
262.251	7.29
262.466	7.82
262.682	6.67
262.897	6.69
263.113	8.89
263.328	9.12
263.543	7.19
263.759	8.43
263.974	6.36
264.189	5.76
264.405	4.68
264.62	5.95
264.835	6.29
265.051	5.41
265.266	7.53
265.481	6.92
265.696	6.53
265.912	5.83
266.127	4.67
266.342	2.54
266.557	3.28
266.773	2.45
266.988	2.56
267.203	1.23
267.418	3.42
267.633	3.33
267.848	2.9
268.064	4.17
268.279	7.13
268.494	7.95
268.709	10.48
268.924	9.89
269.139	9.04
269.354	9.83
269.569	10.5
269.784	9.96
269.999	11.01
270.214	10.24
270.429	9.3
270.644	7.77
270.859	7.4
271.074	6.44
271.289	6.4
271.504	7.06
271.719	6.76
271.934	6.35
272.149	6.26
272.363	5.79
272.578	4.79
272.793	4.05
273.008	2.77
273.223	3.78
273.438	3.52
273.653	3.46
273.867	1.73
274.082	1.53
274.297	3.18
274.512	3.26
274.726	2.12
274.941	3.64
275.156	4.08
275.371	4.82
275.585	3.45
275.8	2.65
276.015	4.18
276.229	7.5
276.444	8.93
276.659	7.51
276.873	6.03
277.088	5.67
277.302	5.33
277.517	7.13
277.732	5.9
277.946	7.31
278.161	8.45
278.375	6.24
278.59	4.11
278.804	1.46
279.019	2.06
279.233	2.23
279.448	4.73
279.662	4.64
279.877	2.7
280.091	4.81
280.306	4.52
280.52	7.25
280.735	7.5
280.949	9.15
281.163	10.15
281.378	10.43
281.592	11.09
281.806	10.1
282.021	10.96
282.235	10.31
282.449	9.09
282.664	8.21
282.878	6.7
283.092	6.62
283.307	4.65
283.521	4.73
283.735	4.3
283.949	3.83
284.164	3.32
284.378	3.02
284.592	3.49
284.806	3.21
285.02	2.91
285.234	2.82
285.449	3.15
285.663	4.32
285.877	3.99
286.091	4.25
286.305	4.4
286.519	5.84
286.733	5.25
286.947	5.58
287.161	6.81
287.375	7.29
287.589	7.27
287.803	7.38
288.017	6.78
288.231	7.26
288.445	7.76
288.659	8.09
288.873	6.07
289.087	6.89
289.301	6.58
289.515	6.9
289.729	7.58
289.943	6.69
290.157	6.9
290.371	7.21
290.584	7.22
290.798	6.34
291.012	4.97
291.226	5.46
291.44	5.63
291.654	4.82
291.867	4.27
292.081	3.52
292.295	3.9
292.509	3.65
292.722	4.33
292.936	4.67
293.15	5.11
293.364	6.8
293.577	7.81
293.791	6.85
294.005	8.61
294.218	8
294.432	8.26
294.645	8.29
294.859	9.53
295.073	8.07
295.286	8.37
295.5	8.84
295.713	8.47
295.927	8.31
296.14	8.29
296.354	8.02
296.568	7.9
296.781	7.54
296.994	7.46
297.208	7.17
297.421	7.83
297.635	7.97
297.848	7.16
298.062	7.72
298.275	7.96
298.489	8.89
298.702	8.68
298.915	9.23
299.129	9.33
299.342	9.5
299.555	8.94
299.769	9.65
299.982	8.96
300.195	8.96
300.409	8.48
300.622	7.74
300.835	7.7
301.048	9.02
301.262	8.18
301.475	8.27
301.688	8.41
301.901	8.32
302.115	7.52
302.328	7.2
302.541	9.18
302.754	8.59
302.967	10.16
303.18	9.49
303.393	9.06
303.607	9.18
303.82	9.82
304.033	9.73
304.246	10.09
304.459	9.77
304.672	10.51
304.885	8.68
305.098	8.6
305.311	7.19
305.524	6.47
305.737	6.42
305.95	8.17
306.163	7.63
306.376	8.59
306.589	8.27
306.802	9.76
307.015	9.29
307.228	10.57
307.44	11.17
307.653	10.65
307.866	11.06
308.079	10.21
308.292	7.73
308.505	7.1
308.718	6.7
308.93	7.03
309.143	5.28
309.356	5.68
309.569	5.6
309.781	5.69
309.994	6.52
310.207	6.66
310.42	7.57
310.632	7.38
310.845	8.16
311.058	8.51
311.27	8.65
311.483	9.46
311.696	9.68
311.908	10.08
312.121	9.39
312.333	9.69
312.546	10.75
312.759	9.41
312.971	10.23
313.184	9.56
313.396	8.82
313.609	9.37
313.821	9.92
314.034	10.43
314.246	9.25
314.459	10.88
314.671	10.89
314.884	9.37
315.096	10.98
315.309	12.57
315.521	14.58
315.733	14.79
315.946	13.63
316.158	12.5
316.371	11.72
316.583	11.54
316.795	10.72
317.008	10.49
317.22	10.43
317.432	9.07
317.644	6.88
317.857	5.87
318.069	6.68
318.281	7.16
318.494	6.79
318.706	7.06
318.918	6.23
319.13	6.31
319.342	6.35
319.555	7.18
319.767	6.8
319.979	7.25
320.191	6.57
320.403	5.85
320.615	6.36
320.827	6.41
321.039	5.26
321.252	7.13
321.464	6.81
321.676	6.58
321.888	6.92
322.1	8.27
322.312	9.03
322.524	8.91
322.736	9.52
322.948	9.05
323.16	10.12
323.372	12.06
323.584	12.96
323.796	13.43
324.007	13.81
324.219	13.6
324.431	14.05
324.643	14.65
324.855	14.61
325.067	14.31
325.279	14.63
325.491	15.44
325.702	14.7
325.914	13.75
326.126	14.28
326.338	14.52
326.55	15.07
326.761	15.16
326.973	15.56
327.185	16.8
327.396	17.23
327.608	17.45
327.82	16.74
328.032	16.99
328.243	16.2
328.455	17.24
328.666	17.76
328.878	18.02
329.09	18.5
329.301	18.95
329.513	19.2
329.725	20.61
329.936	21.02
330.148	22.69
330.359	22.82
330.571	24.67
330.782	23.8
330.994	23.21
331.205	22.5
331.417	22.16
331.628	21.9
331.84	20.35
332.051	20
332.262	20.61
332.474	19.32
332.685	19.14
332.897	19.24
333.108	20.03
333.319	20.33
333.531	21.58
333.742	22.08
333.953	20.97
334.165	22.32
334.376	22.69
334.587	22.46
334.799	22.65
335.01	23.62
335.221	23.69
335.432	23.18
335.644	23.28
335.855	22.41
336.066	23.02
336.277	23.3
336.488	23.32
336.7	23.06
336.911	23.47
337.122	22.47
337.333	22.94
337.544	22.79
337.755	22.29
337.966	22.12
338.177	22.67
338.388	22.42
338.599	23.62
338.811	23.06
339.022	22.71
339.233	22.33
339.444	23.09
339.655	21.54
339.866	21.63
340.076	22.28
340.287	22.56
340.498	23.82
340.709	22.98
340.92	22.49
341.131	22.79
341.342	22.26
341.553	21.85
341.764	22.24
341.975	22.31
342.185	22.06
342.396	22.95
342.607	22.86
342.818	21.65
343.029	22.85
343.239	22.54
343.45	23.15
343.661	23.97
343.872	24.54
344.082	24.58
344.293	25.77
344.504	26.19
344.714	25.07
344.925	26.26
345.136	26.18
345.346	25.19
345.557	25.49
345.768	24.74
345.978	24.8
346.189	24.46
346.399	24.45
346.61	24.11
346.821	24.27
347.031	24.47
347.242	22.77
347.452	22.98
347.663	23.01
347.873	23.22
348.084	23.42
348.294	23.37
348.504	23.04
348.715	22.93
348.925	22.9
349.136	23.3
349.346	22.65
349.557	22.89
349.767	22.45
349.977	23.35
350.188	22.41
350.398	22.81
350.608	22.93
350.819	22.44
351.029	22.41
351.239	21.73
351.449	20.88
351.66	21.34
351.87	22.27
352.08	22.47
352.29	22.04
352.501	22.6
352.711	21.37
352.921	20.94
353.131	22.25
353.341	22.11
353.552	22.17
353.762	22.36
353.972	21.82
354.182	20.62
354.392	20.42
354.602	20.16
354.812	20.33
355.022	21.9
355.232	21.69
355.442	21.54
355.652	21.19
355.862	21.61
356.072	22.18
356.282	22.84
356.492	23.17
356.702	23.43
356.912	23.73
357.122	23.73
357.332	23.57
357.542	23.53
357.752	23.88
357.962	24.44
358.171	24.14
358.381	23.56
358.591	23.54
358.801	23.41
359.011	23.64
359.221	23.38
359.43	22.32
359.64	21.53
359.85	21.98
360.06	20.93
360.269	21.04
360.479	20.76
360.689	20.6
360.899	20.72
361.108	20.71
361.318	20.72
361.528	21.01
361.737	22.29
361.947	22.6
362.156	22.46
362.366	22.36
362.576	21.87
362.785	21.84
362.995	21.98
363.204	21.86
363.414	22.24
363.623	21.64
363.833	20.97
364.042	20.51
364.252	20.46
364.461	20.05
364.671	20.21
364.88	20.3
365.09	20.77
365.299	21.12
365.509	21.16
365.718	20.43
365.927	20.85
366.137	21.05
366.346	20.82
366.555	20.73
366.765	20.59
366.974	21.3
367.183	21.03
367.393	20.7
367.602	20.43
367.811	19.66
368.021	20.35
368.23	19.85
368.439	19.69
368.648	19.39
368.857	18.46
369.067	18.69
369.276	18.6
369.485	19.27
369.694	19.1
369.903	18.3
370.112	18.59
370.321	18.34
370.531	18.34
370.74	18.8
370.949	19.08
371.158	19.4
371.367	19.28
371.576	18.71
371.785	18.01
371.994	17.86
372.203	18.36
372.412	19.04
372.621	19.01
372.83	19.11
373.039	18.59
373.248	17.93
373.457	17.8
373.666	17.63
373.874	17.67
374.083	17.82
374.292	17.86
374.501	18.22
374.71	17.08
374.919	16.94
375.128	16.55
375.336	16.39
375.545	16.4
375.754	16.77
375.963	16.66
376.171	16.18
376.38	16.27
376.589	15.98
376.798	15.11
377.006	15.36
377.215	15.29
377.424	15.18
377.632	14.73
377.841	14.67
378.05	14.64
378.258	14.57
378.467	15.01
378.675	14.58
378.884	14.8
379.093	15.09
379.301	15.19
379.51	14.84
379.718	15.27
379.927	15.9
380.135	15.82
380.344	15.67
380.552	15.97
380.761	15.81
380.969	16.04
381.177	16.32
381.386	16.35
381.594	15.92
381.803	15.49
382.011	15.23
382.219	14.73
382.428	14.59
382.636	14.18
382.845	13.73
383.053	13.65
383.261	13.23
383.469	12.75
383.678	12.63
383.886	12.5
384.094	12.48
384.302	12.31
384.511	12.47
384.719	12.82
384.927	12.88
385.135	12.65
385.343	12.34
385.552	12.29
385.76	11.93
385.968	11.58
386.176	11.63
386.384	11.79
386.592	11.42
386.8	11.47
387.008	11.51
387.216	11.16
387.424	11.23
387.633	11.26
387.841	11.17
388.049	11.49
388.257	11.81
388.465	12.24
388.672	12.22
388.88	12.63
389.088	12.49
389.296	12.32
389.504	12.63
389.712	13.03
389.92	13.11
390.128	13.29
390.336	13.11
390.544	12.65
390.751	12.14
390.959	12.21
391.167	12.23
391.375	11.91
391.583	11.66
391.79	11.64
391.998	11.32
392.206	11.18
392.414	11.28
392.621	11.26
392.829	11.52
393.037	11.58
393.244	11.64
393.452	11.08
393.66	11.55
393.867	11.41
394.075	11.4
394.283	10.84
394.49	11.08
394.698	11.06
394.905	11
395.113	11.13
395.32	11.04
395.528	10.73
395.735	10.81
395.943	10.17
396.15	10.24
396.358	9.88
396.565	10.35
396.773	9.79
396.98	9.61
397.188	9.59
397.395	9.52
397.602	9.34
397.81	9.36
398.017	9.03
398.225	9.13
398.432	9.19
398.639	9.59
398.847	9.3
399.054	9.68
399.261	9.66
399.468	9.74
399.676	9.43
399.883	9.47
400.09	9.26
400.297	10.22
400.505	10.22
400.712	10.22
400.919	10.17
401.126	10.58
401.333	10.6
401.54	10.36
401.748	10.02
401.955	9.94
402.162	10.37
402.369	10.2
402.576	9.39
402.783	9.54
402.99	9.26
403.197	9.24
403.404	9.02
403.611	8.85
403.818	8.98
404.025	9.47
404.232	9.58
404.439	9.32
404.646	9.64
404.853	10.06
405.06	10.04
405.267	10.32
405.474	10.18
405.681	10.15
405.887	10.02
406.094	9.89
406.301	9.84
406.508	9.92
406.715	10.37
406.922	10.43
407.128	9.93
407.335	9.92
407.542	9.57
407.749	9.43
407.955	9.57
408.162	9.73
408.369	9.66
408.575	9.29
408.782	9.19
408.989	8.75
409.195	8.44
409.402	8.95
409.609	8.78
409.815	8.89
410.022	8.87
410.228	8.91
410.435	8.78
410.642	9.1
410.848	9.11
411.055	8.96
411.261	8.81
411.468	9.22
411.674	9.03
411.881	8.89
412.087	8.97
412.294	9.21
412.5	9.11
412.706	9.13
412.913	8.8
413.119	8.66
413.326	8.54
413.532	8.63
413.738	8.7
413.945	8.62
414.151	8.89
414.357	8.93
414.564	8.67
414.77	8.74
414.976	8.86
415.182	8.84
415.389	9.28
415.595	9.33
415.801	9.14
416.007	8.76
416.214	9.01
416.42	8.84
416.626	8.87
416.832	8.95
417.038	8.64
417.244	8.83
417.45	9.08
417.657	8.94
417.863	8.92
418.069	8.84
418.275	8.92
418.481	8.94
418.687	8.84
418.893	8.75
419.099	8.87
419.305	8.98
419.511	8.77
419.717	8.72
419.923	8.77
420.129	8.89
420.335	9.15
420.541	9.06
420.746	9.01
420.952	9.17
421.158	9.15
421.364	9.07
421.57	9.16
421.776	9.15
421.982	8.99
422.187	8.85
422.393	8.68
422.599	8.39
422.805	8.44
423.01	8.18
423.216	8.07
423.422	7.93
423.628	7.9
423.833	7.85
424.039	7.59
424.245	7.78
424.45	7.78
424.656	7.89
424.862	7.89
425.067	7.79
425.273	7.99
425.478	8.05
425.684	8.09
425.889	7.96
426.095	7.9
426.301	8.05
426.506	7.75
426.712	7.61
426.917	7.54
427.123	7.81
427.328	7.91
427.533	8.03
427.739	8.01
427.944	7.96
428.15	8.04
428.355	7.77
428.561	7.62
428.766	7.59
428.971	7.8
429.177	7.76
429.382	7.46
429.587	7.43
429.793	7.14
429.998	6.83
430.203	6.9
430.408	6.93
430.614	7.05
430.819	7.18
431.024	7.34
431.229	7.17
431.434	7.31
431.64	7.52
431.845	7.48
432.05	7.6
432.255	7.89
432.46	7.96
432.665	7.86
432.87	7.83
433.076	7.95
433.281	8.07
433.486	8.11
433.691	8.11
433.896	7.96
434.101	7.88
434.306	7.88
434.511	7.77
434.716	7.68
434.921	7.69
435.126	7.75
435.331	7.64
435.535	7.45
435.74	7.34
435.945	7.2
436.15	7.19
436.355	7.31
436.56	7.08
436.765	7.1
436.97	7.02
437.174	7.08
437.379	7.38
437.584	7.47
437.789	7.58
437.993	7.67
438.198	7.7
438.403	7.78
438.608	7.81
438.812	7.98
439.017	8.09
439.222	8.08
439.426	8.02
439.631	7.97
439.836	7.9
440.04	7.99
440.245	8
440.45	8.02
440.654	7.94
440.859	7.85
441.063	7.79
441.268	7.8
441.472	7.97
441.677	7.86
441.881	7.71
442.086	8.02
442.29	7.71
442.495	7.84
442.699	7.75
442.904	7.7
443.108	7.82
443.312	7.82
443.517	7.7
443.721	7.65
443.925	7.82
444.13	7.72
444.334	7.36
444.538	7.41
444.743	7.11
444.947	7.13
445.151	7.29
445.356	7.34
445.56	7.25
445.764	7.35
445.968	7.33
446.173	7.28
446.377	7.44
446.581	7.46
446.785	7.59
446.989	7.65
447.193	7.61
447.398	7.5
447.602	7.49
447.806	7.39
448.01	7.41
448.214	7.43
448.418	7.46
448.622	7.32
448.826	7.31
449.03	7.23
449.234	7.09
449.438	7.27
449.642	7.42
449.846	7.18
450.05	7.35
450.254	7.38
450.458	7.28
450.662	7.32
450.866	7.34
451.069	7.22
451.273	7.31
451.477	7.33
451.681	7.24
451.885	7.14
452.089	7.05
452.292	7.05
452.496	6.94
452.7	7.17
452.904	6.97
453.107	6.91
453.311	7.09
453.515	7.02
453.719	7.31
453.922	7.3
454.126	7.19
454.33	7.25
454.533	7.27
454.737	7.16
454.94	6.86
455.144	6.85
455.348	6.86
455.551	6.77
455.755	6.92
455.958	6.75
456.162	6.41
456.365	6.71
456.569	6.88
456.772	7.07
456.976	7.26
457.179	7.33
457.383	7.44
457.586	7.61
457.79	7.5
457.993	7.3
458.196	7.55
458.4	8
458.603	7.66
458.807	7.73
459.01	7.65
459.213	7.38
459.417	7.41
459.62	7.37
459.823	7.23
460.026	7.28
460.23	7.35
460.433	7.2
460.636	7.09
460.839	7.26
461.042	7.14
461.246	7
461.449	7.05
461.652	7.08
461.855	7.26
462.058	7.46
462.261	7.73
462.464	7.76
462.668	7.63
462.871	7.5
463.074	7.52
463.277	7.63
463.48	7.73
463.683	7.93
463.886	7.69
464.089	7.48
464.292	7.07
464.495	6.78
464.698	6.65
464.901	6.82
465.104	6.81
465.306	6.84
465.509	6.77
465.712	7
465.915	6.91
466.118	7.2
466.321	7.48
466.524	7.79
466.726	7.97
466.929	8
467.132	7.85
467.335	7.94
467.538	7.84
467.74	7.86
467.943	7.65
468.146	7.7
468.348	7.69
468.551	7.59
468.754	7.54
468.956	7.39
469.159	7.52
469.362	7.66
469.564	7.71
469.767	7.74
469.969	7.69
470.172	7.61
470.375	7.6
470.577	7.42
470.78	7.38
470.982	7.47
471.185	7.55
471.387	7.5
471.59	7.48
471.792	7.39
471.995	7.34
472.197	7.27
472.399	7.5
472.602	7.36
472.804	7.53
473.007	7.45
473.209	7.34
473.411	7.24
473.614	7.26
473.816	7.53
474.018	7.48
474.22	7.53
474.423	7.68
474.625	7.6
474.827	7.74
475.03	7.65
475.232	7.57
475.434	7.66
475.636	7.61
475.838	7.65
476.04	7.39
476.243	7.56
476.445	7.62
476.647	7.58
476.849	7.58
477.051	7.19
477.253	7.22
477.455	7.38
477.657	7.37
477.859	7.5
478.061	7.33
478.263	7.17
478.465	6.97
478.667	6.91
478.869	6.77
479.071	6.6
479.273	6.86
479.475	6.68
479.677	6.4
479.879	6.26
480.081	6.16
480.283	6.41
480.485	6.68
480.686	6.76
480.888	6.73
481.09	6.87
481.292	7.07
481.494	7.15
481.695	7.32
481.897	7.53
482.099	7.61
482.301	7.73
482.502	7.64
482.704	7.61
482.906	7.6
483.107	7.63
483.309	7.59
483.511	7.53
483.712	7.51
483.914	7.5
484.115	7.45
484.317	7.45
484.519	7.45
484.72	7.4
484.922	7.4
485.123	7.38
485.325	7.36
485.526	7.38
485.728	7.38
485.929	7.4
486.131	7.34
486.332	7.35
486.534	7.35
486.735	7.31
486.936	7.29
487.138	7.31
487.339	7.33
487.541	7.27
487.742	7.28
487.943	7.28
488.144	7.2
488.346	7.24
488.547	7.17
488.748	7.1
488.95	7.12
489.151	7.13
489.352	7.11
489.553	7.12
489.755	7.14
489.956	7.12
490.157	7.1
490.358	7.09
490.559	7.07
490.76	7.07
490.961	7.18
491.163	7.01
491.364	7.04
491.565	6.95
491.766	6.98
491.967	7.06
492.168	7.11
492.369	7.15
492.57	7.05
492.771	7.13
492.972	7.25
493.173	7.18
493.374	7.39
493.575	7.34
493.776	7.43
493.976	7.46
494.177	7.41
494.378	7.28
494.579	7.15
494.78	7.51
494.981	7.47
495.182	7.48
495.382	7.45
495.583	7.26
495.784	7.37
495.985	7.46
496.185	7.21
496.386	7.17
496.587	7.23
496.788	7.28
496.988	7.24
497.189	7.22
497.39	7.22
497.59	7.25
497.791	7.18
497.992	7.2
498.192	7.02
498.393	7.23
498.593	7.36
498.794	7.4
498.994	7.42
499.195	7.45
499.395	7.53
499.596	7.74
499.796	7.81
499.997	8.06
500.197	8.2
500.398	8.32
500.598	8.31
500.799	8.29
500.999	8.24
501.199	8.35
501.4	8.37
501.6	8.34
501.801	8.11
502.001	8.12
502.201	8.31
502.402	8.34
502.602	8.39
502.802	8.55
503.002	8.48
503.203	8.56
503.403	8.68
503.603	8.66
503.803	8.64
504.003	8.8
504.204	8.79
504.404	8.84
504.604	8.83
504.804	8.99
505.004	9.01
505.204	9.05
505.404	9.18
505.604	9.02
505.804	9.06
506.005	9.29
506.205	9.2
506.405	9.31
506.605	9.2
506.805	9.1
507.005	8.99
507.204	8.98
507.404	9.04
507.604	9.06
507.804	9.22
508.004	9.18
508.204	9.03
508.404	9.12
508.604	9.06
508.804	9.19
509.003	9.26
509.203	9.46
509.403	9.55
509.603	9.65
509.803	9.61
510.002	9.71
510.202	9.85
510.402	10
510.602	10.19
510.801	10.14
511.001	10.17
511.201	10.24
511.4	10.27
511.6	10.27
511.8	10.45
511.999	10.61
512.199	10.69
512.398	10.74
512.598	10.89
512.797	10.72
512.997	10.98
513.197	10.95
513.396	11.08
513.596	11.03
513.795	10.95
513.994	10.94
514.194	10.96
514.393	11.08
514.593	11.24
514.792	11.04
514.992	11.22
515.191	11.32
515.39	11.47
515.59	11.69
515.789	11.87
515.988	12.05
516.188	12.25
516.387	12.32
516.586	12.28
516.786	12.26
516.985	12.47
517.184	12.65
517.383	12.78
517.582	12.77
517.782	12.83
517.981	12.98
518.18	13.13
518.379	13.15
518.578	13.27
518.777	13.48
518.976	13.72
519.176	13.83
519.375	13.87
519.574	13.94
519.773	14.05
519.972	14.19
520.171	14.18
520.37	14.21
520.569	14.35
520.768	14.4
520.967	14.47
521.166	14.48
521.365	14.63
521.564	14.82
521.762	15
521.961	15.19
522.16	15.2
522.359	15.28
522.558	15.51
522.757	15.55
522.956	15.69
523.154	15.8
523.353	15.85
523.552	15.94
523.751	16.07
523.949	16.02
524.148	16.2
524.347	16.36
524.546	16.57
524.744	16.6
524.943	16.78
525.142	17.06
525.34	17.27
525.539	17.44
525.737	17.54
525.936	17.58
526.135	17.74
526.333	17.81
526.532	17.95
526.73	18.14
526.929	18.4
527.127	18.57
527.326	18.7
527.524	18.73
527.723	18.92
527.921	18.98
528.12	19.04
528.318	19.2
528.516	19.3
528.715	19.4
528.913	19.46
529.112	19.54
529.31	19.6
529.508	19.58
529.707	19.63
529.905	19.64
530.103	19.77
530.301	19.93
530.5	19.98
530.698	20.09
530.896	20.16
531.094	20.28
531.293	20.36
531.491	20.48
531.689	20.78
531.887	21.1
532.085	21.24
532.283	21.53
532.481	21.68
532.68	21.75
532.878	21.91
533.076	22.04
533.274	22.15
533.472	22.21
533.67	22.18
533.868	22.21
534.066	22.15
534.264	22.22
534.462	22.23
534.66	22.3
534.858	22.45
535.056	22.53
535.253	22.71
535.451	22.8
535.649	22.9
535.847	23.16
536.045	23.18
536.243	23.46
536.441	23.53
536.638	23.64
536.836	23.75
537.034	23.9
537.232	23.99
537.43	23.98
537.627	24.04
537.825	24.06
538.023	24.08
538.22	24.27
538.418	24.31
538.616	24.44
538.813	24.29
539.011	24.39
539.209	24.44
539.406	24.61
539.604	24.88
539.801	25.07
539.999	25.26
540.196	25.44
540.394	25.57
540.591	25.59
540.789	25.7
540.986	25.94
541.184	26.09
541.381	26.17
541.579	26.15
541.776	26.11
541.974	26.15
542.171	26.24
542.368	26.3
542.566	26.4
542.763	26.54
542.96	26.68
543.158	26.75
543.355	26.73
543.552	26.76
543.75	26.75
543.947	26.89
544.144	27.02
544.341	26.98
544.539	27.08
544.736	27.13
544.933	27.18
545.13	27.16
545.327	27.19
545.524	27.22
545.722	27.43
545.919	27.66
546.116	27.73
546.313	27.79
546.51	28.06
546.707	28.18
546.904	28.25
547.101	28.26
547.298	28.41
547.495	28.54
547.692	28.61
547.889	28.45
548.086	28.45
548.283	28.53
548.48	28.52
548.677	28.49
548.874	28.31
549.07	28.32
549.267	28.65
549.464	28.74
549.661	28.77
549.858	28.97
550.055	29.09
550.251	29.32
550.448	29.28
550.645	29.36
550.842	29.55
551.038	29.62
551.235	29.62
551.432	29.34
551.628	29.36
551.825	29.48
552.022	29.35
552.218	29.56
552.415	29.68
552.612	29.84
552.808	29.89
553.005	29.77
553.201	30.06
553.398	30.17
553.594	30.26
553.791	30.32
553.987	30.39
554.184	30.68
554.38	30.53
554.577	30.46
554.773	30.2
554.97	30.47
555.166	30.79
555.362	30.75
555.559	30.77
555.755	30.72
555.952	30.67
556.148	30.55
556.344	30.44
556.541	30.52
556.737	30.66
556.933	31.09
557.129	30.93
557.326	30.59
557.522	30.4
557.718	30.41
557.914	30.66
558.11	30.94
558.307	30.96
558.503	31.29
558.699	31.38
558.895	31.31
559.091	31.14
559.287	31.2
559.483	31.31
559.679	31.63
559.876	31.45
560.072	31.55
560.268	31.44
560.464	31.68
560.66	31.33
560.856	31.69
561.052	31.5
561.247	31.66
561.443	31.69
561.639	31.87
561.835	32.07
562.031	32.14
562.227	31.83
562.423	31.81
562.619	31.78
562.815	32.01
563.01	31.94
563.206	32.35
563.402	32.47
563.598	32.4
563.793	32.33
563.989	32.32
564.185	32.63
564.381	32.94
564.576	32.95
564.772	32.82
564.968	32.87
565.163	32.81
565.359	32.6
565.555	32.6
565.75	32.84
565.946	32.88
566.141	32.69
566.337	32.8
566.532	32.77
566.728	32.82
566.923	33.07
567.119	33.06
567.314	33.04
567.51	33.3
567.705	33.2
567.901	33.12
568.096	33.33
568.292	33.52
568.487	33.47
568.682	33.42
568.878	33.59
569.073	33.62
569.268	33.72
569.464	33.73
569.659	33.5
569.854	33.72
570.05	33.82
570.245	33.86
570.44	33.94
570.635	33.89
570.831	34
571.026	34
571.221	34.05
571.416	34.06
571.611	34.08
571.806	34.26
572.002	34.16
572.197	34.21
572.392	34.1
572.587	34.06
572.782	34.15
572.977	34.26
573.172	34.26
573.367	34
573.562	33.97
573.757	34.08
573.952	34.02
574.147	34.1
574.342	34.1
574.537	33.98
574.732	34.03
574.927	34.11
575.121	33.91
575.316	34.05
575.511	34.23
575.706	34.4
575.901	34.36
576.096	34.44
576.29	34.51
576.485	34.42
576.68	34.62
576.875	34.67
577.069	34.75
577.264	34.78
577.459	34.68
577.654	34.94
577.848	34.87
578.043	35.06
578.238	35.03
578.432	34.99
578.627	35.05
578.821	35.01
579.016	34.92
579.21	34.76
579.405	34.94
579.6	34.95
579.794	34.8
579.989	34.77
580.183	34.62
580.378	34.68
580.572	34.55
580.766	34.72
580.961	34.91
581.155	34.62
581.35	34.51
581.544	34.57
581.738	34.63
581.933	34.72
582.127	34.7
582.321	34.74
582.516	35.05
582.71	35.35
582.904	35.15
583.099	35.42
583.293	35.64
583.487	35.64
583.681	35.74
583.875	35.78
584.07	35.64
584.264	35.88
584.458	35.82
584.652	35.63
584.846	35.41
585.04	35.49
585.234	35.13
585.428	35.4
585.623	35.64
585.817	35.71
586.011	35.83
586.205	35.96
586.399	35.76
586.593	36.01
586.787	36.07
586.981	36.19
587.174	36.31
587.368	36.3
587.562	36.01
587.756	35.94
587.95	35.99
588.144	35.67
588.338	35.29
588.532	35.37
588.725	35.33
588.919	35.38
589.113	35.31
589.307	35.17
589.501	35.16
589.694	35.35
589.888	35.52
590.082	35.3
590.275	35.55
590.469	35.97
590.663	35.61
590.856	35.68
591.05	35.88
591.244	36.01
591.437	35.99
591.631	36.14
591.824	36.26
592.018	36.14
592.212	36.3
592.405	35.96
592.599	35.91
592.792	36.51
592.986	36.54
593.179	36.51
593.372	36.33
593.566	36.65
593.759	36.82
593.953	36.81
594.146	36.68
594.339	36.69
594.533	37.08
594.726	37.12
594.92	36.79
595.113	36.77
595.306	36.56
595.499	36.66
595.693	36.56
595.886	36.3
596.079	36.27
596.272	36.55
596.466	36.51
596.659	36.33
596.852	36.17
597.045	36.28
597.238	36.51
597.431	36.62
597.624	36.79
597.818	36.78
598.011	36.91
598.204	36.85
598.397	36.83
598.59	36.84
598.783	37.04
598.976	37.3
599.169	37.58
599.362	37.29
599.555	37.5
599.748	37.46
599.941	37.57
600.134	37.72
600.326	37.47
600.519	37.54
600.712	37.69
600.905	37.58
601.098	37.34
601.291	37.01
601.483	36.99
601.676	36.72
601.869	36.81
602.062	36.8
602.255	36.6
602.447	36.94
602.64	36.93
602.833	36.97
603.025	37.22
603.218	37.4
603.411	37.48
603.603	37.64
603.796	37.64
603.989	37.69
604.181	37.65
604.374	37.83
604.566	37.96
604.759	38.01
604.951	37.95
605.144	37.67
605.336	37.69
605.529	37.7
605.721	37.71
605.914	37.82
606.106	37.72
606.299	37.87
606.491	37.58
606.683	37.6
606.876	37.58
607.068	37.84
607.26	38.22
607.453	38.19
607.645	38.21
607.837	38.02
608.03	37.73
608.222	37.64
608.414	37.39
608.606	37.41
608.799	37.32
608.991	37.23
609.183	36.9
609.375	36.74
609.567	36.75
609.759	37.03
609.952	37.02
610.144	37.15
610.336	37.28
610.528	37.35
610.72	37.58
610.912	37.45
611.104	37.53
611.296	37.57
611.488	37.77
611.68	37.85
611.872	37.89
612.064	38.17
612.256	38.3
612.448	38.26
612.64	38.43
612.832	38.49
613.023	38.52
613.215	38.25
613.407	38.25
613.599	38.22
613.791	38.02
613.983	37.45
614.174	37.2
614.366	37.13
614.558	37.53
614.75	37.55
614.941	37.6
615.133	37.54
615.325	38.03
615.516	38.29
615.708	38.32
615.9	38.45
616.091	38.58
616.283	38.7
616.475	39.03
616.666	38.55
616.858	38.43
617.049	37.94
617.241	38.46
617.432	38.22
617.624	37.67
617.815	37.48
618.007	37.73
618.198	38.1
618.39	38.13
618.581	37.55
618.773	37.79
618.964	37.85
619.155	38.27
619.347	38.13
619.538	38.21
619.729	38.47
619.921	38.73
620.112	38.54
620.303	38.25
620.494	38.23
620.686	38.82
620.877	38.94
621.068	38.76
621.259	38.7
621.451	38.48
621.642	38.38
621.833	38.29
622.024	38.01
622.215	37.79
622.406	38.04
622.597	38.1
622.788	37.63
622.98	37.43
623.171	37.9
623.362	37.82
623.553	37.97
623.744	37.79
623.935	38.28
624.126	38.17
624.317	38.31
624.508	38.34
624.698	38.35
624.889	38.58
625.08	38.72
625.271	38.69
625.462	38.89
625.653	38.81
625.844	38.99
626.034	38.77
626.225	39
626.416	39.17
626.607	39.1
626.798	38.9
626.988	38.84
627.179	38.65
627.37	38.76
627.56	38.4
627.751	38.44
627.942	38.57
628.132	38.88
628.323	39.03
628.514	39.1
628.704	39.21
628.895	39.38
629.085	39.29
629.276	39.48
629.466	39
629.657	39.31
629.847	39.35
630.038	39.33
630.228	39.11
630.419	38.92
630.609	38.89
630.8	38.74
630.99	38.57
631.181	38.8
631.371	38.62
631.561	38.4
631.752	38.74
631.942	38.46
632.132	38.5
632.323	38.26
632.513	38.24
632.703	37.98
632.893	37.75
633.084	38.03
633.274	37.61
633.464	37.67
633.654	38.24
633.844	37.73
634.034	37.86
634.225	37.63
634.415	37.97
634.605	37.64
634.795	37.68
634.985	37.83
635.175	37.62
635.365	37.87
635.555	37.87
635.745	37.53
635.935	37.66
636.125	37.56
636.315	37.44
636.505	37.21
636.695	37.31
636.885	37.4
637.075	36.89
637.265	37.12
637.455	37.23
637.644	37.02
637.834	37.09
638.024	37.13
638.214	37.35
638.404	37.56
638.593	37.5
638.783	37.32
638.973	37.6
639.163	38.36
639.352	38.61
639.542	38.76
639.732	39.06
639.921	39.47
640.111	39.4
640.301	39.59
640.49	39.81
640.68	39.65
640.87	40.19
641.059	39.86
641.249	39.66
641.438	39.2
641.628	39.2
641.817	39.44
642.007	39.05
642.196	39.5
642.386	39.37
642.575	39.5
642.764	40.06
642.954	39.75
643.143	39.73
643.333	39.71
643.522	39.48
643.711	39.14
643.901	38.65
644.09	38.46
644.279	38.14
644.469	37.95
644.658	38.3
644.847	38.06
645.036	38.11
645.226	38.45
645.415	38.89
645.604	39.39
645.793	39.47
645.982	39.8
646.171	40.4
646.361	40.18
646.55	40.33
646.739	39.73
646.928	39.87
647.117	40.01
647.306	39.73
647.495	39.13
647.684	38.68
647.873	38.67
648.062	38.42
648.251	37.85
648.44	38.02
648.629	38.02
648.818	38.1
649.007	37.83
649.196	37.83
649.384	37.96
649.573	37.94
649.762	37.88
649.951	37.95
650.14	38.12
650.328	38.1
650.517	38.26
650.706	38.08
650.895	38.28
651.083	38.27
651.272	38.76
651.461	38.68
651.65	38.76
651.838	38.95
652.027	39.61
652.216	39.47
652.404	39.67
652.593	39.74
652.781	40.17
652.97	39.96
653.158	39.95
653.347	39.6
653.535	39.12
653.724	39.05
653.912	39.26
654.101	39.23
654.289	39.39
654.478	39.25
654.666	39.32
654.855	39.13
655.043	39.42
655.231	39.41
655.42	39.1
655.608	39.64
655.796	39.71
655.985	39.76
656.173	39.09
656.361	39.03
656.55	39.5
656.738	38.79
656.926	39.07
657.114	38.79
657.302	39.3
657.491	39.71
657.679	39.21
657.867	39.22
658.055	38.71
658.243	38.64
658.431	38.64
658.619	38.47
658.807	39.08
658.996	38.98
659.184	39.06
659.372	38.49
659.56	38.54
659.748	38.82
659.936	39.14
660.124	39.73
660.311	39.9
660.499	39.77
660.687	39.9
660.875	39.59
661.063	39.46
661.251	39.4
661.439	39.67
661.627	39.5
661.814	39.56
662.002	39.59
662.19	39.27
662.378	39.26
662.565	39.98
662.753	39.96
662.941	40.12
663.129	40.07
663.316	40.32
663.504	40.44
663.692	40.46
663.879	40.53
664.067	40.42
664.254	40.3
664.442	40.46
664.63	40.23
664.817	39.8
665.005	39.89
665.192	40.05
665.38	39.66
665.567	39.86
665.755	39.76
665.942	39.6
666.13	39.11
666.317	39.26
666.504	39.25
666.692	39.2
666.879	39.25
667.067	39.08
667.254	39.3
667.441	39.42
667.629	38.9
667.816	38.8
668.003	38.8
668.19	39.19
668.378	39.11
668.565	39.36
668.752	39.11
668.939	39.63
669.127	39.94
669.314	39.74
669.501	39.94
669.688	40.39
669.875	40.78
670.062	40.93
670.249	40.6
670.436	40.35
670.623	39.97
670.81	40.14
670.997	40.06
671.184	39.58
671.371	39.31
671.558	38.84
671.745	38.75
671.932	38.96
672.119	38.94
672.306	39.32
672.493	39.73
672.68	39.59
672.867	39.46
673.054	38.85
673.24	39.79
673.427	40.13
673.614	40.26
673.801	40.34
673.988	40.07
674.174	40.55
674.361	40.57
674.548	40.78
674.734	41.1
674.921	41.46
675.108	41.82
675.294	41.2
675.481	40.92
675.668	40.84
675.854	40.79
676.041	40.72
676.227	40.11
676.414	39.68
676.601	39.96
676.787	39.7
676.974	39.49
677.16	39.2
677.347	39.02
677.533	38.78
677.719	38.93
677.906	38.72
678.092	38.69
678.279	38.6
678.465	39.06
678.651	38.68
678.838	38.68
679.024	38.49
679.21	39.03
679.397	39.29
679.583	39.83
679.769	39.77
679.955	39.74
680.142	40.04
680.328	40.48
680.514	40.4
680.7	40.68
680.886	40.89
681.073	40.78
681.259	40.37
681.445	40.42
681.631	40.31
681.817	40.5
682.003	40.59
682.189	39.74
682.375	39.45
682.561	39.63
682.747	39.58
682.933	39.71
683.119	40.1
683.305	40.05
683.491	40.26
683.677	40.27
683.863	40.24
684.049	40.33
684.235	41.12
684.42	41.4
684.606	41.22
684.792	41.19
684.978	41.16
685.164	41.06
685.349	41.14
685.535	40.93
685.721	40.53
685.907	40.29
686.092	40.3
686.278	40.07
686.464	40.16
686.649	39.95
686.835	39.68
687.021	38.74
687.206	39.03
687.392	39.28
687.577	38.97
687.763	39.25
687.948	39.73
688.134	39.73
688.319	40.1
688.505	39.26
688.69	39.65
688.876	39.11
689.061	39.9
689.247	39.69
689.432	39.93
689.618	39.96
689.803	40.14
689.988	39.91
690.174	40.06
690.359	39.51
690.544	40.22
690.73	40
690.915	40.44
691.1	40.46
691.285	39.92
691.471	40.16
691.656	39.98
691.841	40.39
692.026	39.8
692.211	39.71
692.396	39.83
692.582	39.94
692.767	39.85
692.952	40.42
693.137	39.99
693.322	40.35
693.507	40.13
693.692	40.26
693.877	40.09
694.062	40.79
694.247	41.26
694.432	41.81
694.617	41.36
694.802	41.59
694.987	40.58
695.172	40.77
695.357	40.23
695.541	40.59
695.726	40.67
695.911	40.59
696.096	40.56
696.281	40.21
696.466	39.97
696.65	40.3
696.835	40.12
697.02	40.59
697.204	40.73
697.389	41.36
697.574	40.76
697.759	41.06
697.943	40.27
698.128	40.37
698.312	40.65
698.497	40.57
698.682	40.29
698.866	40.46
699.051	40.47
699.235	40.26
699.42	40.11
699.604	39.9
699.789	39.61
699.973	39.97
700.158	40.03
700.342	39.66
700.527	40.04
700.711	40.46
700.895	40.25
701.08	40.4
701.264	41.03
701.448	40.8
701.633	41.7
701.817	41.7
702.001	41.57
702.186	40.79
702.37	41.14
702.554	40.52
702.738	40.84
702.923	41.71
703.107	41.19
703.291	40.79
703.475	41.63
703.659	41.21
703.843	41.58
704.027	41.82
704.212	42.38
704.396	41.99
704.58	41.9
704.764	41.31
704.948	39.95
705.132	40.6
705.316	40.7
705.5	40.25
705.684	40.45
705.868	40.55
706.052	40.84
706.235	41.29
706.419	41.44
706.603	41.7
706.787	41.76
706.971	41.9
707.155	41.87
707.339	41.33
707.522	41.82
707.706	40.79
707.89	40.25
708.074	40.65
708.257	39.99
708.441	40.34
708.625	39.16
708.808	38.91
708.992	39.37
709.176	39.46
709.359	40.01
709.543	39.61
709.727	40.05
709.91	40.63
710.094	40.15
710.277	39.97
710.461	39.46
710.644	40.22
710.828	40.41
711.011	40.4
711.195	40.31
711.378	39.74
711.562	39.27
711.745	39.6
711.928	39.81
712.112	39.4
712.295	39.63
712.478	39.8
712.662	40.06
712.845	39.46
713.028	40.28
713.212	40.03
713.395	40.28
713.578	40.86
713.761	40.72
713.945	40.5
714.128	41.24
714.311	41.34
714.494	41.74
714.677	41.55
714.86	42.33
715.043	41.68
715.227	41.74
715.41	41.92
715.593	41.83
715.776	42.45
715.959	41.68
716.142	41.13
716.325	40.82
716.508	39.79
716.691	40.06
716.874	39.68
717.057	39.39
717.239	39.49
717.422	39.83
717.605	39.87
717.788	39.22
717.971	40.01
718.154	39.94
718.337	40.45
718.519	41.37
718.702	40.89
718.885	41
719.068	40.93
719.25	41.12
719.433	40.56
719.616	39.83
719.798	39.68
719.981	38.88
720.164	38.37
720.346	37.98
720.529	37.34
720.712	36.92
720.894	37.46
721.077	38.45
721.259	37.91
721.442	37.87
721.624	38.43
721.807	38.57
721.989	39.92
722.172	41.46
722.354	41.2
722.537	41.84
722.719	42.72
722.901	42.34
723.084	41.54
723.266	41.74
723.448	41.62
723.631	42
723.813	41.92
723.995	40.92
724.178	40.78
724.36	42.2
724.542	41.85
724.724	41.35
724.907	41.67
725.089	40.29
725.271	40.06
725.453	40.49
725.635	39.64
725.817	39.88
725.999	40.39
726.181	40.03
726.364	40.7
726.546	40.87
726.728	41.64
726.91	41.29
727.092	43
727.274	42.98
727.456	42.37
727.638	42.49
727.819	42.41
728.001	42.37
728.183	42.23
728.365	40.91
728.547	40.14
728.729	39.3
728.911	38.91
729.093	38.76
729.274	38.93
729.456	40.02
729.638	40.35
729.82	40.34
730.001	40.07
730.183	40.48
730.365	40.53
730.546	40.94
730.728	41.56
730.91	41.67
731.091	40.95
731.273	41.49
731.455	40.51
731.636	41.18
731.818	41.18
731.999	41.76
732.181	41.41
732.362	41.34
732.544	41.94
732.725	42.01
732.907	42.01
733.088	41.99
733.27	40.95
733.451	40.83
733.633	40.32
733.814	39.51
733.995	38.64
734.177	38.26
734.358	37.78
734.539	37.59
734.721	37.09
734.902	37.65
735.083	37.68
735.264	37.34
735.446	38.26
735.627	38.38
735.808	39.6
735.989	39.68
736.17	39.61
736.351	40.35
736.533	39.27
736.714	40.24
736.895	40.23
737.076	40.09
737.257	41.25
737.438	40.08
737.619	39.47
737.8	39.49
737.981	38.9
738.162	38.83
738.343	38.34
738.524	39.12
738.705	39.13
738.886	39.17
739.067	39.35
739.247	38.26
739.428	39.04
739.609	39.9
739.79	39.27
739.971	40.78
740.151	40.81
740.332	41.66
740.513	42.43
740.694	41.96
740.874	41.63
741.055	42.26
741.236	43.03
741.417	42.89
741.597	43.24
741.778	43.98
741.958	44.68
742.139	45.39
742.32	44.41
742.5	43.72
742.681	43.05
742.861	43.14
743.042	42.88
743.222	42.33
743.403	42.36
743.583	42.91
743.764	42.11
743.944	42.02
744.124	42.84
744.305	43.31
744.485	43.33
744.666	43.55
744.846	43.96
745.026	43.91
745.207	44.71
745.387	43.74
745.567	40.8
745.747	42.64
745.928	40.47
746.108	40.43
746.288	41.51
746.468	41.44
746.648	41.32
746.829	42.54
747.009	43
747.189	43.64
747.369	45.78
747.549	46.73
747.729	45
747.909	46.58
748.089	45.67
748.269	44.67
748.449	44.85
748.629	45.14
748.809	42.68
748.989	42.3
749.169	41.07
749.349	39.13
749.529	39.43
749.709	39.03
749.889	38.18
750.068	37.22
750.248	37.05
750.428	35.87
750.608	35.53
750.788	36.17
750.967	35.84
751.147	36.99
751.327	37.5
751.507	37.8
751.686	38.74
751.866	38.49
752.046	39.52
752.225	40.09
752.405	41.05
752.585	41.53
752.764	41.18
752.944	40.73
753.123	39.79
753.303	39.69
753.482	39.01
753.662	39.37
753.841	40.48
754.021	39.85
754.2	39
754.38	38.76
754.559	38.27
754.739	38.72
754.918	38.89
755.097	38.47
755.277	37.94
755.456	38.69
755.635	37.6
755.815	36.3
755.994	36.74
756.173	36.45
756.352	36.67
756.532	37.11
756.711	36.78
756.89	37.15
757.069	38.58
757.248	39.68
757.427	38.55
757.607	38.86
757.786	39.26
757.965	39.2
758.144	39.54
758.323	39.24
758.502	38.75
758.681	39.04
758.86	39.11
759.039	38.74
759.218	39.45
759.397	40.85
759.576	41.45
759.755	40.98
759.934	41.35
760.113	41.26
760.291	42.31
760.47	42.25
760.649	41.6
760.828	40.12
761.007	40.26
761.186	39.64
761.364	38.73
761.543	38.36
761.722	38.7
761.901	38.03
762.079	38.66
762.258	38.1
762.437	38.11
762.615	39.08
762.794	40.74
762.972	40.63
763.151	40.54
763.33	40.48
763.508	40.64
763.687	40.34
763.865	40.98
764.044	40.89
764.222	41.19
764.401	41.84
764.579	41.96
764.758	41.42
764.936	41.56
765.114	41.51
765.293	42.29
765.471	41.87
765.65	42.15
765.828	41.82
766.006	41.42
766.184	40.81
766.363	41.59
766.541	41.64
766.719	41.9
766.898	41.03
767.076	40.96
767.254	40.36
767.432	41.24
767.61	42.22
767.788	41.72
767.967	41.13
768.145	41.8
768.323	40.36
768.501	39.58
768.679	40.18
768.857	40.74
769.035	42.12
769.213	41.16
769.391	40.13
769.569	39.06
769.747	39.86
769.925	40.26
770.103	39.61
770.281	40.44
770.459	40.48
770.636	40
770.814	39.66
770.992	37.6
771.17	39.44
771.348	39.32
771.525	38.99
771.703	39.13
771.881	42.48
772.059	43.05
772.236	42.95
772.414	43.27
772.592	43.07
772.769	45.02
772.947	45.15
773.125	43.3
773.302	42.49
773.48	43.02
773.657	41.39
773.835	39.24
774.013	40.47
774.19	40.31
774.368	41.19
774.545	40.66
774.723	39.37
774.9	38.92
775.077	40.69
775.255	41.22
775.432	41.61
775.61	41.89
775.787	41.73
775.964	39.65
776.142	39.32
776.319	39.06
776.496	39.42
776.674	38.9
776.851	41.11
777.028	39.33
777.205	41.09
777.382	41.62
777.56	43.14
777.737	41.45
777.914	44.27
778.091	42.83
778.268	43.12
778.445	43.13
778.622	45.03
778.8	43.57
778.977	45.68
779.154	47.27
779.331	47.44
779.508	47.81
779.685	48.31
779.862	45.16
780.038	46.65
780.215	46.95
780.392	48.8
780.569	47.41
780.746	46.3
780.923	45.86
781.1	42.46
781.277	41.9
781.453	39.91
781.63	40.53
781.807	42.28
781.984	42.3
782.16	40.81
782.337	41.08
782.514	41.56
782.691	44.27
782.867	42.91
783.044	43.03
783.221	43.43
783.397	44.44
783.574	43.74
783.75	42.54
783.927	40.98
784.103	40.26
784.28	37.46
784.456	36.1
784.633	33.44
784.809	33.25
784.986	34.34
785.162	33.24
785.339	34.9
785.515	36.18
785.692	36.64
785.868	38.08
786.044	40.94
786.221	41.75
786.397	43.99
786.573	43.75
786.749	45.29
786.926	45.71
787.102	43.87
787.278	43.57
787.454	43.83
787.631	43.68
787.807	45.81
787.983	42.39
788.159	41.98
788.335	41.76
788.511	44.86
788.687	41.21
788.863	41.96
789.039	43.48
789.216	42.41
789.392	40.97
789.568	40.55
789.744	37.88
789.919	39.9
790.095	42.28
790.271	39.95
790.447	40.69
790.623	44.63
790.799	43.38
790.975	43.48
791.151	43.35
791.327	44.22
791.502	45.3
791.678	46.87
791.854	46.87
792.03	44.42
792.205	44.29
792.381	42.87
792.557	38.85
792.733	37.79
792.908	36.71
793.084	36.43
793.259	34.5
793.435	33.94
793.611	34.3
793.786	34.34
793.962	37.79
794.137	39.02
794.313	38.54
794.488	43.37
794.664	41.77
794.839	41.64
795.015	43.72
795.19	43.5
795.366	43.86
795.541	44.26
795.716	43.42
795.892	39.84
796.067	40.34
796.242	41.9
796.418	41.49
796.593	41.46
796.768	42.61
796.944	40.27
797.119	42.49
797.294	43.7
797.469	40.78
797.644	41.6
797.82	43.58
797.995	43.63
798.17	42.88
798.345	39.79
798.52	41.88
798.695	42.4
798.87	42.98
799.045	41.96
799.22	37.89
799.395	39.58
799.57	41
799.745	38.24
799.92	38.17
800.095	36.02
800.27	37.4
800.445	38
800.62	37.4
800.795	38.19
800.97	38.31
801.145	39.85
801.319	37.69
801.494	33.07
801.669	32.93
801.844	33.51
802.018	35.29
802.193	34.61
802.368	34.47
802.543	31.03
802.717	29.85
802.892	29.94
803.067	31.39
803.241	32.06
803.416	35.86
803.59	41.46
803.765	40.66
803.94	38.64
804.114	41.08
804.289	40.71
804.463	42.97
804.638	44.2
804.812	43.87
804.986	43.14
805.161	41.48
805.335	38.66
805.51	34.43
805.684	36.04
805.858	36.21
806.033	35.79
806.207	35.58
806.381	37.57
806.556	36.72
806.73	37.67
806.904	37.87
807.078	39.15
807.253	39.51
807.427	41.66
807.601	39.6
807.775	41.81
807.949	40.65
808.123	39.68
808.298	39.15
808.472	39.24
808.646	39.04
808.82	37.35
808.994	37.35
809.168	39.08
809.342	37.01
809.516	35.78
809.69	35.75
809.864	37.21
810.038	37.81
810.212	37.02
810.385	35.85
810.559	38.97
810.733	38.83
810.907	38.97
811.081	41.15
811.255	42.26
811.428	42.73
811.602	40.44
811.776	38.74
811.95	43
812.123	46.2
812.297	47.88
812.471	43.26
812.644	46
812.818	45.15
812.992	41.25
813.165	40.84
813.339	43.44
813.512	44.89
813.686	47.74
813.86	42.96
814.033	40.96
814.207	39.5
814.38	40.81
814.554	40.09
814.727	45
814.9	44.99
815.074	42.46
815.247	40.19
815.421	39.91
815.594	36.58
815.767	37.8
815.941	36.24
816.114	34.32
816.287	37.84
816.46	35.57
816.634	31.46
816.807	30.99
816.98	30.11
817.153	29.77
817.327	30.2
817.5	32.26
817.673	33.49
817.846	32.12
818.019	36.89
818.192	35.38
818.365	31.13
818.538	32.99
818.711	35.47
818.884	40.26
819.057	41.08
819.23	38.63
819.403	38.75
819.576	35.68
819.749	34.28
819.922	32.19
820.095	31.98
820.268	38.45
820.441	38.85
820.614	38.87
820.786	38.47
820.959	38.46
821.132	40.82
821.305	40.52
821.477	41.01
821.65	41.91
821.823	42.37
821.996	41.52
822.168	40.86
822.341	40.67
822.514	41.11
822.686	40.71
822.859	40.4
823.031	40.12
823.204	40.17
823.376	40.55
823.549	40.47
823.722	39.81
823.894	40.54
824.067	40.94
824.239	41.24
824.411	41.01
824.584	41.39
824.756	41.56
824.929	41.54
825.101	41.81
825.273	40.79
825.446	40.34
825.618	41.6
825.79	41.57
825.963	42.14
826.135	42
826.307	42.68
826.479	41.67
826.652	42.47
826.824	42.41
826.996	41.27
827.168	42.01
827.34	43.05
827.512	42.21
827.684	40.73
827.856	38.92
828.029	37.58
828.201	36.89
828.373	37.47
828.545	37.27
828.717	38.12
828.889	38.52
829.061	37.48
829.232	37.19
829.404	37.69
829.576	39.29
829.748	39.77
829.92	41.06
830.092	41.22
830.264	40.99
830.436	40.71
830.607	42.03
830.779	43.07
830.951	45.04
831.123	45.83
831.294	46.22
831.466	44.36
831.638	46.08
831.809	45.57
831.981	45.9
832.153	47.54
832.324	46.67
832.496	42.42
832.667	43.29
832.839	41.95
833.011	42.99
833.182	43.87
833.354	44.16
833.525	40.93
833.697	40.15
833.868	38.06
834.039	37.6
834.211	38.57
834.382	40.48
834.554	39.07
834.725	40.55
834.896	38.52
835.068	36.76
835.239	35.8
835.41	37.19
835.581	37.6
835.753	39.08
835.924	37.97
836.095	36.91
836.266	34.16
836.438	33.56
836.609	32.45
836.78	33.38
836.951	33.55
837.122	35.66
837.293	35.61
837.464	35.45
837.635	33.88
837.806	35.74
837.977	36.22
838.148	38.95
838.319	42.92
838.49	43.1
838.661	42.92
838.832	43.57
839.003	45.11
839.174	45.04
839.345	47.75
839.516	49.24
839.687	44.77
839.857	42.9
840.028	40.85
840.199	36.4
840.37	36.41
840.54	34.2
840.711	32.87
840.882	30.74
841.053	31.83
841.223	27.91
841.394	27.79
841.564	34.98
841.735	41.74
841.906	41.13
842.076	38.88
842.247	43.93
842.417	47.14
842.588	45.71
842.758	46.85
842.929	51.91
843.099	52.41
843.27	48.81
843.44	43.38
843.611	34.46
843.781	36.77
843.951	43.83
844.122	36.86
844.292	41.79
844.462	49.18
844.633	49.94
844.803	37.76
844.973	33.71
845.144	43.5
845.314	42.55
845.484	55.02
845.654	58.95
845.824	55.74
845.995	56.74
846.165	51.15
846.335	51.4
846.505	49.71
846.675	54.66
846.845	63.03
847.015	60.22
847.185	67.89
847.355	62.39
847.525	58.28
847.695	55.09
847.865	53.6
848.035	45.09
848.205	43.39
848.375	40.11
848.545	35.26
848.715	37.06
848.884	29.97
849.054	21.52
849.224	27.55
849.394	30.78
849.564	36.26
849.733	41.36
849.903	39.72
850.073	38.41
850.243	37.08
850.412	44.02
850.582	40.36
850.752	51.04
850.921	58.41
851.091	46.91
851.26	50.77
851.43	34.06
851.599	19.26
851.769	27.86
851.939	32.61
852.108	35.61
852.278	25.84
852.447	21.9
852.616	19.92
852.786	22.33
852.955	29.9
853.125	21.38
853.294	29.69
853.463	33.88
853.633	34.82
853.802	32.55
853.971	35.01
854.141	31.65
854.31	35.56
854.479	55.7
854.648	47.07
854.818	48.01
854.987	51.07
855.156	51.28
855.325	52.61
855.494	55.49
855.663	59.1
855.832	55.56
856.001	61.47
856.171	52.84
856.34	28.48
856.509	35.6
856.678	35.93
856.847	35.09
857.016	41.87
857.185	43.92
857.353	45.16
857.522	47.86
857.691	55.81
857.86	53.48
858.029	60.2
858.198	79.38
858.367	68.19
858.535	65.5
858.704	68.94
858.873	66.52
859.042	60.88
859.21	63.07
859.379	60.22
859.548	52.64
859.717	55.55
859.885	59.63
860.054	37.89
860.222	53.52
860.391	47.05
860.56	37.12
860.728	42.03
860.897	43.09
861.065	40.83
861.234	22.02
861.402	10.34
861.571	16.12
861.739	8.14
861.908	12.66
862.076	16.48
862.244	38.91
862.413	43.67
862.581	38.96
862.749	52.2
862.918	54.49
863.086	59.65
863.254	61.39
863.423	55.48
863.591	63.6
863.759	63.9
863.927	60.93
864.096	53.69
864.264	54.56
864.432	59.1
864.6	48.96
864.768	30.63
864.936	44.18
865.104	49.24
865.272	52.64
865.44	69.17
865.608	88.86
865.776	89.22
865.944	76.69
866.112	79.52
866.28	76.26
866.448	74.92
866.616	82.61
866.784	75.54
866.952	82.44
867.12	77.14
867.288	78.64
867.455	62.41
867.623	61.74
867.791	126.9
867.959	121.5
868.127	96.15
868.294	94.88
868.462	97.8
868.63	109.07
868.797	86.57
868.965	101.76
869.133	67.09
869.3	54.36
869.468	58.13
869.636	42.99
869.803	34.16
869.971	32.79
870.138	33.75
870.306	23.62
870.473	16.58
870.641	24.92
870.808	8.71
870.975	10.8
871.143	15.14
871.31	15.47
871.478	6.35
871.645	8.36
871.812	-12.74
871.98	-0.47
872.147	2.56
872.314	24.85
872.482	31.94
872.649	44.85
872.816	64.17
872.983	75.07
873.15	68.44
873.318	84.28
873.485	83.59
873.652	86.07
873.819	84.91
873.986	77.5
874.153	61.73
874.32	51.6
874.487	55.63
874.654	22.28
874.821	-19.39
874.988	-2.44
875.155	-4.15
875.322	6.24
875.489	20.76
875.656	21.34
875.823	14.42
875.99	25.29
876.157	22.43
876.324	22.14
876.49	35.01
876.657	44.32
876.824	57.59
876.991	62.29
877.157	70.4
877.324	62.87
877.491	62.31
877.658	75.3
877.824	68.23
877.991	73.29
878.157	77.58
878.324	57.64
878.491	61.49
878.657	47.8
878.824	42.57
878.99	39.22
879.157	42.23
879.323	49.95
879.49	33.22
879.656	30.43
879.823	16.1
879.989	36.63
880.156	45.22
880.322	38.17
880.488	35.82
880.655	29.71
880.821	26.25
880.987	27.86
881.154	23.27
881.32	26.71
881.486	37.23
881.652	40.96
881.819	34.61
881.985	39.26
882.151	37.71
882.317	39.73
882.483	42.79
882.649	44.01
882.816	43.57
882.982	43.33
883.148	43.52
883.314	42.47
883.48	42.76
883.646	43.17
883.812	41.67
883.978	42.09
884.144	40.85
884.31	39.22
884.476	38.75
884.642	36.83
884.807	37.9
884.973	36.75
885.139	34.64
885.305	33.47
885.471	31.21
885.637	30.32
885.802	31.03
885.968	30.85
886.134	32.98
886.3	34.26
886.465	36.22
886.631	35.71
886.797	41.19
886.962	43.72
887.128	43.1
887.293	48.17
887.459	47.75
887.625	49.49
887.79	48.28
887.956	44.89
888.121	42.95
888.287	43.02
888.452	43.42
888.618	32.99
888.783	29.31
