Data from CB_033_Reflection_00001.txt Node
Date: Wed Nov 11 22:01:39 EST 2015
User: robert
Spectrometer: USB4E03001
Autoset integration time: false
Trigger mode: 4
Integration Time (sec): 1.000000E-1
Scans to average: 15
Electric dark correction enabled: true
Nonlinearity correction enabled: false
Boxcar width: 5
Stray light correction enabled: false
XAxis mode: Wavelengths
Stop averaging: false
Number of Pixels in Spectrum: 3648
>>>>>Begin Spectral Data<<<<<
177.566	167.24
177.785	590.13
178.005	-241.56
178.225	-723.21
178.445	114.92
178.665	58.21
178.885	442.78
179.105	-68.73
179.324	-13.04
179.544	29.68
179.764	95.92
179.984	69.13
180.204	48.29
180.423	73.98
180.643	63.32
180.863	51.09
181.083	51.77
181.302	45.23
181.522	41.93
181.742	49.32
181.961	56.41
182.181	40.82
182.401	55.76
182.621	60.75
182.84	46.49
183.06	43.79
183.279	45.83
183.499	49.92
183.719	40.14
183.938	43.32
184.158	30.61
184.377	40.38
184.597	41.24
184.816	30.54
185.036	34.37
185.256	44.02
185.475	39.38
185.695	8.37
185.914	-66.62
186.134	9.01
186.353	6.14
186.572	-17.14
186.792	-84.95
187.011	-76.91
187.231	-51.15
187.45	-94.83
187.67	-75.49
187.889	-47.34
188.108	-18.32
188.328	-13.81
188.547	-25.84
188.766	-42.31
188.986	-66.89
189.205	-41.65
189.424	-31.59
189.644	-75.8
189.863	-41.53
190.082	-36.4
190.302	-43.44
190.521	-34.6
190.74	-42.13
190.959	-34.91
191.178	-23.82
191.398	-13.83
191.617	-12.17
191.836	-22.57
192.055	0.98
192.274	-13.11
192.494	-18.1
192.713	-0.11
192.932	5.72
193.151	17.04
193.37	-3.07
193.589	19.41
193.808	9.94
194.027	1.45
194.246	34.96
194.465	32.32
194.685	30.63
194.904	5.49
195.123	-22.02
195.342	-39.44
195.561	-57.49
195.78	-66.29
195.999	-84.72
196.218	-77.97
196.436	-58.55
196.655	-97.8
196.874	-112.21
197.093	-89.21
197.312	-1.67
197.531	15.55
197.75	31.58
197.969	44.02
198.188	41.98
198.407	24.02
198.625	38.72
198.844	47.61
199.063	45.38
199.282	17.32
199.501	20.92
199.719	-17.17
199.938	7.09
200.157	-10.53
200.376	3.73
200.594	23.17
200.813	44.57
201.032	21.92
201.251	10.63
201.469	15.21
201.688	44.26
201.907	30.45
202.125	30.96
202.344	1.02
202.563	5.47
202.781	16.53
203	5.35
203.218	5.82
203.437	17.28
203.656	29.27
203.874	20.94
204.093	21.79
204.311	30.4
204.53	34.86
204.748	44.59
204.967	41.09
205.185	23.22
205.404	49.73
205.622	47.33
205.841	53.64
206.059	34.48
206.278	58.96
206.496	39.33
206.715	36.11
206.933	45.27
207.151	49.2
207.37	44.29
207.588	58.25
207.806	48.96
208.025	45.52
208.243	25.19
208.461	35.14
208.68	20.41
208.898	29.7
209.116	4.64
209.335	-16.28
209.553	-29.94
209.771	-23.39
209.989	-37.11
210.208	-65.29
210.426	-72.53
210.644	-42.56
210.862	-37.41
211.081	-27.48
211.299	-18.23
211.517	38.84
211.735	43.38
211.953	62.07
212.171	61.63
212.39	78.32
212.608	95.87
212.826	76.9
213.044	72.9
213.262	56.06
213.48	60.3
213.698	43.54
213.916	25.36
214.134	25.68
214.352	-22.93
214.57	-16.74
214.788	-27.46
215.006	-52.05
215.224	-37.44
215.442	-76.39
215.66	-92.16
215.878	-55.31
216.096	-28.78
216.314	-33.26
216.532	-30.06
216.75	4.24
216.968	25.69
217.185	27.95
217.403	25.51
217.621	32.48
217.839	35.41
218.057	29.63
218.275	36.93
218.492	41.61
218.71	38.72
218.928	40.05
219.146	27.85
219.363	19.4
219.581	14.69
219.799	0.74
220.017	-10.52
220.234	-35.49
220.452	-45.77
220.67	-8.2
220.887	-29.84
221.105	-51.17
221.323	-90.53
221.54	-44.76
221.758	-40.46
221.976	-35.26
222.193	-17.21
222.411	-21.86
222.629	-17.53
222.846	-9.53
223.064	-23.18
223.281	-10.99
223.499	3.11
223.716	12.14
223.934	3.67
224.151	1.09
224.369	-5.85
224.586	-7.85
224.804	8.96
225.021	3.96
225.239	-0.35
225.456	8.52
225.674	-0.74
225.891	1.52
226.108	8.04
226.326	5.31
226.543	2.05
226.76	8.81
226.978	-4.64
227.195	-9.29
227.413	-2.2
227.63	4.95
227.847	4.84
228.064	10.5
228.282	8.35
228.499	7.09
228.716	6.38
228.934	9.18
229.151	6.59
229.368	9.04
229.585	8.71
229.802	6.86
230.02	3.47
230.237	3.12
230.454	1.14
230.671	-0.1
230.888	-0.66
231.105	-0.97
231.323	0.18
231.54	3.11
231.757	2.71
231.974	-1.02
232.191	0.36
232.408	6.74
232.625	7.95
232.842	7.6
233.059	11.47
233.276	12.97
233.493	16.51
233.71	16.02
233.927	17.05
234.144	16.98
234.361	21.94
234.578	24.81
234.795	28.55
235.012	29.06
235.229	30.31
235.446	31.23
235.663	28.94
235.879	25.86
236.096	21.68
236.313	17.38
236.53	18.93
236.747	20.01
236.964	16.63
237.181	11.09
237.397	6.53
237.614	9.26
237.831	4.56
238.048	7.47
238.264	5.53
238.481	4.97
238.698	9.62
238.915	12.08
239.131	8.29
239.348	7.72
239.565	7.68
239.781	4.23
239.998	5.82
240.215	7.71
240.431	7.59
240.648	11.23
240.865	10.01
241.081	12.11
241.298	8.94
241.514	8.32
241.731	11.33
241.947	8.15
242.164	12.15
242.38	8.55
242.597	7.15
242.814	6.11
243.03	6.15
243.246	7.36
243.463	6.3
243.679	6.61
243.896	9.29
244.112	9.69
244.329	13.97
244.545	10.35
244.762	12.7
244.978	16.34
245.194	17.13
245.411	14.79
245.627	15.76
245.843	16.51
246.06	15.29
246.276	14.32
246.492	12.17
246.709	10.77
246.925	12.88
247.141	13.03
247.357	12.16
247.574	12.37
247.79	12.78
248.006	12.92
248.222	12.39
248.439	13.01
248.655	13
248.871	13.55
249.087	13.43
249.303	12.24
249.519	11.54
249.736	10.72
249.952	10.68
250.168	11.29
250.384	11.98
250.6	10.59
250.816	12.52
251.032	13.48
251.248	14.23
251.464	12.42
251.68	12.61
251.896	13.26
252.112	14.26
252.328	12.65
252.544	13.18
252.76	11.93
252.976	12.86
253.192	11.29
253.408	10.2
253.624	9.85
253.84	10.67
254.056	13.73
254.272	14.94
254.487	15.56
254.703	16.31
254.919	15.3
255.135	14.15
255.351	13.07
255.567	14.62
255.782	13.78
255.998	13.15
256.214	14.43
256.43	13.84
256.646	12.75
256.861	10.37
257.077	11.95
257.293	11.77
257.508	13.21
257.724	13.57
257.94	13.82
258.155	12.83
258.371	11.52
258.587	12.21
258.802	10.53
259.018	10.55
259.234	9.92
259.449	9.41
259.665	9.23
259.88	8.23
260.096	8.08
260.312	7.82
260.527	7.94
260.743	8.27
260.958	7.63
261.174	7.74
261.389	7.48
261.605	8.31
261.82	9.31
262.036	9.36
262.251	11.53
262.466	11.5
262.682	10.93
262.897	10.57
263.113	10.09
263.328	9.56
263.543	8.89
263.759	8.26
263.974	10.18
264.189	7.91
264.405	7.88
264.62	4.95
264.835	5.7
265.051	6.84
265.266	6.44
265.481	7.38
265.696	8.51
265.912	9.05
266.127	9.65
266.342	7.69
266.557	6.73
266.773	5.36
266.988	6.12
267.203	4.57
267.418	4.02
267.633	5.82
267.848	6.17
268.064	4.46
268.279	5.01
268.494	4.09
268.709	5.3
268.924	7.7
269.139	9.73
269.354	10.25
269.569	11.27
269.784	12.03
269.999	10.83
270.214	11.01
270.429	12.7
270.644	12.81
270.859	13.15
271.074	12.48
271.289	11.73
271.504	11.14
271.719	10.44
271.934	10.83
272.149	10.35
272.363	11.27
272.578	11.41
272.793	11.79
273.008	11.81
273.223	10.95
273.438	10.9
273.653	11.69
273.867	11.26
274.082	11.51
274.297	11.08
274.512	11.8
274.726	9.92
274.941	9.67
275.156	9.04
275.371	7.52
275.585	7.69
275.8	7.58
276.015	6.16
276.229	8.66
276.444	8.85
276.659	9.11
276.873	9.02
277.088	10.59
277.302	10.21
277.517	9.52
277.732	10.34
277.946	11.06
278.161	11.74
278.375	12.24
278.59	10.89
278.804	10.54
279.019	9.88
279.233	9.45
279.448	8.33
279.662	8.49
279.877	9.31
280.091	9.43
280.306	9.43
280.52	8.4
280.735	7.86
280.949	6.15
281.163	6.72
281.378	6.16
281.592	5.66
281.806	7.06
282.021	4.9
282.235	3.6
282.449	3.94
282.664	2.88
282.878	3.11
283.092	3.94
283.307	4.88
283.521	3.38
283.735	4
283.949	4.51
284.164	4.48
284.378	6.58
284.592	8.15
284.806	8.42
285.02	9
285.234	10.25
285.449	9.89
285.663	10.58
285.877	11.22
286.091	11.26
286.305	10.8
286.519	10.82
286.733	10.37
286.947	9.48
287.161	8.49
287.375	9.48
287.589	8.6
287.803	9.17
288.017	7.88
288.231	9.36
288.445	9.84
288.659	9.55
288.873	9.47
289.087	9.84
289.301	10.53
289.515	12.31
289.729	11.62
289.943	11.67
290.157	11.33
290.371	11.95
290.584	11.37
290.798	11.85
291.012	12.87
291.226	13.42
291.44	13.77
291.654	13.58
291.867	12.22
292.081	11.84
292.295	12.04
292.509	11.71
292.722	11.26
292.936	10.9
293.15	10.8
293.364	11.14
293.577	9.97
293.791	10.19
294.005	9.9
294.218	10.37
294.432	11.98
294.645	12.02
294.859	11.58
295.073	11.73
295.286	11.54
295.5	10.48
295.713	10.04
295.927	9.53
296.14	9.09
296.354	9.48
296.568	9.09
296.781	9.51
296.994	9.62
297.208	10.58
297.421	10.8
297.635	11.4
297.848	11.12
298.062	11.29
298.275	12.07
298.489	12.45
298.702	13.65
298.915	14.4
299.129	14.17
299.342	13.42
299.555	13.54
299.769	14.39
299.982	14.34
300.195	15.45
300.409	15.03
300.622	15.39
300.835	14.74
301.048	12.9
301.262	12.75
301.475	12.69
301.688	13.61
301.901	13.01
302.115	12.66
302.328	12.3
302.541	12.63
302.754	12.19
302.967	11.83
303.18	14.33
303.393	14.65
303.607	14.43
303.82	14.01
304.033	13.78
304.246	13.97
304.459	14.37
304.672	14.94
304.885	15.49
305.098	16.53
305.311	17.64
305.524	15.9
305.737	16.32
305.95	16.55
306.163	17.01
306.376	18.06
306.589	18.98
306.802	18.34
307.015	18.47
307.228	17.53
307.44	16.9
307.653	16.05
307.866	16.05
308.079	16.51
308.292	15.92
308.505	15.21
308.718	15.05
308.93	14.34
309.143	14.47
309.356	14.51
309.569	15.18
309.781	14.93
309.994	15.13
310.207	15.31
310.42	14.89
310.632	16.38
310.845	16.72
311.058	16.46
311.27	16.75
311.483	16.64
311.696	16.07
311.908	16.19
312.121	16.67
312.333	15.9
312.546	16.07
312.759	16.18
312.971	15.21
313.184	14.85
313.396	13.81
313.609	13.51
313.821	13.63
314.034	14.13
314.246	13.49
314.459	13.75
314.671	14.76
314.884	14.67
315.096	15.42
315.309	14.17
315.521	13.87
315.733	14.55
315.946	13.97
316.158	14.22
316.371	12.81
316.583	12.42
316.795	12.5
317.008	12.14
317.22	11.96
317.432	11.45
317.644	12.23
317.857	13.26
318.069	13.37
318.281	12.13
318.494	11.64
318.706	13.43
318.918	13.47
319.13	13.69
319.342	13.93
319.555	13.86
319.767	13.88
319.979	14.18
320.191	13.8
320.403	14.9
320.615	17.2
320.827	17.67
321.039	17.34
321.252	17.75
321.464	17.33
321.676	16.1
321.888	17.08
322.1	17.1
322.312	17.24
322.524	17.27
322.736	16.89
322.948	16.31
323.16	15.48
323.372	15.07
323.584	15.31
323.796	15.92
324.007	16.13
324.219	16.62
324.431	16.14
324.643	16.09
324.855	17.08
325.067	17.41
325.279	18.07
325.491	19.81
325.702	19.97
325.914	20.73
326.126	20
326.338	19.51
326.55	18.27
326.761	18.81
326.973	18.77
327.185	18.51
327.396	18.84
327.608	17.73
327.82	17.22
328.032	18.42
328.243	18.28
328.455	19.54
328.666	20.89
328.878	21.18
329.09	20.45
329.301	20.86
329.513	20.09
329.725	19.38
329.936	20.95
330.148	20.3
330.359	18.81
330.571	18.38
330.782	18.01
330.994	19.09
331.205	19.74
331.417	20.99
331.628	21.54
331.84	22.9
332.051	23.77
332.262	23.32
332.474	23.47
332.685	23.69
332.897	23.39
333.108	24.54
333.319	24.14
333.531	24.6
333.742	25.42
333.953	25.64
334.165	26
334.376	26.47
334.587	26.31
334.799	26.17
335.01	26.98
335.221	27.44
335.432	26.64
335.644	26.31
335.855	26.58
336.066	26.19
336.277	26.4
336.488	26.5
336.7	25.28
336.911	25.89
337.122	26.08
337.333	26.36
337.544	27.22
337.755	27.7
337.966	28.4
338.177	27.49
338.388	27.05
338.599	26.8
338.811	25.38
339.022	25.21
339.233	25.07
339.444	25.54
339.655	25.23
339.866	23.93
340.076	22.74
340.287	22.92
340.498	23.15
340.709	23.93
340.92	23.2
341.131	23.21
341.342	23.91
341.553	23.99
341.764	23.47
341.975	22.37
342.185	22.79
342.396	23.14
342.607	23
342.818	22.9
343.029	22
343.239	22.59
343.45	22.98
343.661	22.64
343.872	21.93
344.082	21.82
344.293	22.59
344.504	22.51
344.714	23.07
344.925	22.23
345.136	22.71
345.346	23.14
345.557	22.58
345.768	22.55
345.978	23.39
346.189	24.36
346.399	24.27
346.61	24.47
346.821	24.63
347.031	24.47
347.242	25.14
347.452	25.28
347.663	25.64
347.873	27.05
348.084	27.3
348.294	26.38
348.504	25.85
348.715	26.07
348.925	26.08
349.136	25.89
349.346	25.87
349.557	25.5
349.767	25.68
349.977	24.4
350.188	23.12
350.398	22.43
350.608	22.56
350.819	22.9
351.029	23.28
351.239	23.04
351.449	22.92
351.66	21.83
351.87	22.82
352.08	22.45
352.29	23.22
352.501	24
352.711	24.83
352.921	24.57
353.131	24.23
353.341	24.06
353.552	24.04
353.762	23.55
353.972	25.07
354.182	23.63
354.392	23.11
354.602	22.81
354.812	21.79
355.022	21.35
355.232	21.18
355.442	21.33
355.652	21.52
355.862	21.23
356.072	21.81
356.282	21.29
356.492	22.04
356.702	22.3
356.912	22.42
357.122	22.68
357.332	22.97
357.542	23.55
357.752	22.81
357.962	22.17
358.171	22.8
358.381	22.96
358.591	22.1
358.801	21.52
359.011	20.88
359.221	20.98
359.43	21.67
359.64	20.72
359.85	20.29
360.06	20.19
360.269	20.48
360.479	20.26
360.689	19.8
360.899	20.3
361.108	20.72
361.318	21.07
361.528	21.1
361.737	20.27
361.947	20.85
362.156	20.82
362.366	21.26
362.576	21.06
362.785	20.87
362.995	20.9
363.204	21.12
363.414	20.89
363.623	20.6
363.833	20.35
364.042	20.71
364.252	20.79
364.461	20.53
364.671	20.32
364.88	20.94
365.09	20.68
365.299	20.99
365.509	20.65
365.718	21.08
365.927	21.38
366.137	21.15
366.346	21.12
366.555	21.2
366.765	21.26
366.974	21.36
367.183	21.28
367.393	21.62
367.602	21.53
367.811	21.65
368.021	21.01
368.23	20.57
368.439	20.54
368.648	20.42
368.857	19.97
369.067	20.17
369.276	20.02
369.485	19.68
369.694	20.04
369.903	19.93
370.112	19.61
370.321	19.27
370.531	19.61
370.74	19.98
370.949	19.89
371.158	19.4
371.367	19.37
371.576	19.24
371.785	18.88
371.994	18.65
372.203	18.39
372.412	18.62
372.621	18.54
372.83	17.87
373.039	17.76
373.248	17.74
373.457	17.92
373.666	17.69
373.874	17.51
374.083	16.82
374.292	15.99
374.501	16.16
374.71	15.63
374.919	16.3
375.128	16.9
375.336	16.86
375.545	16.67
375.754	16.66
375.963	16.38
376.171	16.87
376.38	17.06
376.589	17.3
376.798	16.71
377.006	17.1
377.215	16.75
377.424	16.43
377.632	15.82
377.841	15.63
378.05	15.37
378.258	15.33
378.467	14.84
378.675	15.44
378.884	15.3
379.093	15.39
379.301	14.61
379.51	14.63
379.718	14.68
379.927	14.97
380.135	14.9
380.344	15.38
380.552	15.64
380.761	15.34
380.969	14.53
381.177	14.58
381.386	14.59
381.594	14.74
381.803	14.53
382.011	14.37
382.219	14.11
382.428	14.07
382.636	13.81
382.845	13.73
383.053	13.9
383.261	13.91
383.469	13.38
383.678	13.09
383.886	13.04
384.094	12.91
384.302	13.16
384.511	13.54
384.719	13.44
384.927	13.4
385.135	13.06
385.343	13.25
385.552	13.5
385.76	13.84
385.968	14.05
386.176	14.28
386.384	14.3
386.592	14.2
386.8	14.06
387.008	14.16
387.216	14.22
387.424	14.47
387.633	14.02
387.841	13.83
388.049	13.46
388.257	13.59
388.465	13.26
388.672	13.35
388.88	13.14
389.088	13.17
389.296	13.14
389.504	12.6
389.712	12.55
389.92	12.55
390.128	12.72
390.336	13.11
390.544	13.1
390.751	13.11
390.959	12.93
391.167	12.84
391.375	12.59
391.583	12.69
391.79	13.01
391.998	13.11
392.206	13.24
392.414	13.21
392.621	12.54
392.829	12.62
393.037	12.59
393.244	12.72
393.452	12.68
393.66	12.73
393.867	12.61
394.075	12.47
394.283	12.44
394.49	12.44
394.698	12.36
394.905	12.94
395.113	12.53
395.32	12.49
395.528	12.45
395.735	12.35
395.943	12.18
396.15	12.33
396.358	12.4
396.565	12.38
396.773	12.17
396.98	11.95
397.188	11.74
397.395	11.88
397.602	11.79
397.81	11.74
398.017	11.55
398.225	11.45
398.432	11.24
398.639	11.18
398.847	10.64
399.054	10.49
399.261	10.43
399.468	10.3
399.676	10.33
399.883	10.44
400.09	9.99
400.297	9.92
400.505	9.57
400.712	9.27
400.919	8.97
401.126	9.11
401.333	9.08
401.54	8.99
401.748	9.08
401.955	9.2
402.162	9.31
402.369	9.68
402.576	9.83
402.783	10.25
402.99	9.95
403.197	9.95
403.404	9.85
403.611	10.23
403.818	10.23
404.025	10.3
404.232	9.99
404.439	9.79
404.646	9.35
404.853	9.01
405.06	8.82
405.267	9
405.474	9.06
405.681	9.15
405.887	9.09
406.094	9.28
406.301	9.21
406.508	9.29
406.715	9.28
406.922	9.65
407.128	10.15
407.335	10
407.542	10.05
407.749	9.81
407.955	9.74
408.162	9.58
408.369	9.24
408.575	9.13
408.782	9.22
408.989	9.27
409.195	8.9
409.402	8.67
409.609	8.88
409.815	8.83
410.022	9.06
410.228	9.13
410.435	9.03
410.642	9.11
410.848	8.68
411.055	8.62
411.261	8.36
411.468	8.68
411.674	8.9
411.881	8.89
412.087	9.13
412.294	8.76
412.5	8.73
412.706	8.64
412.913	8.42
413.119	8.56
413.326	8.21
413.532	8.24
413.738	8.14
413.945	7.69
414.151	7.56
414.357	7.27
414.564	7.66
414.77	7.8
414.976	7.83
415.182	7.88
415.389	7.98
415.595	7.93
415.801	7.87
416.007	7.65
416.214	7.59
416.42	7.77
416.626	7.91
416.832	7.86
417.038	7.96
417.244	7.95
417.45	8.16
417.657	8.23
417.863	8.35
418.069	8.43
418.275	8.48
418.481	8.54
418.687	8.59
418.893	8.63
419.099	8.75
419.305	8.47
419.511	8.48
419.717	8.52
419.923	8.41
420.129	8.33
420.335	8.29
420.541	8.3
420.746	8.21
420.952	8.04
421.158	7.89
421.364	7.61
421.57	7.68
421.776	7.73
421.982	7.65
422.187	7.6
422.393	7.7
422.599	7.59
422.805	7.56
423.01	7.66
423.216	7.61
423.422	7.61
423.628	7.68
423.833	7.51
424.039	7.35
424.245	7.35
424.45	7.48
424.656	7.45
424.862	7.5
425.067	7.54
425.273	7.56
425.478	7.58
425.684	7.48
425.889	7.38
426.095	7.58
426.301	7.51
426.506	7.57
426.712	7.41
426.917	7.15
427.123	7.11
427.328	6.94
427.533	6.77
427.739	6.7
427.944	6.84
428.15	6.94
428.355	6.67
428.561	6.71
428.766	6.55
428.971	6.82
429.177	7.07
429.382	7.08
429.587	7.03
429.793	7.17
429.998	7.15
430.203	6.97
430.408	6.92
430.614	7.26
430.819	7.23
431.024	7.22
431.229	6.95
431.434	6.75
431.64	6.97
431.845	7.19
432.05	7.11
432.255	7.04
432.46	7.16
432.665	7.13
432.87	7.12
433.076	7.37
433.281	7.29
433.486	7.26
433.691	7.25
433.896	7.08
434.101	6.98
434.306	7.09
434.511	7.09
434.716	7.13
434.921	7.2
435.126	6.93
435.331	6.64
435.535	6.68
435.74	6.8
435.945	6.8
436.15	6.93
436.355	6.95
436.56	6.87
436.765	6.82
436.97	6.76
437.174	6.71
437.379	6.85
437.584	6.94
437.789	6.75
437.993	6.79
438.198	6.81
438.403	6.85
438.608	6.85
438.812	6.88
439.017	7.01
439.222	7.06
439.426	7.1
439.631	6.99
439.836	7.09
440.04	7.05
440.245	6.96
440.45	7.03
440.654	7.04
440.859	6.94
441.063	6.89
441.268	6.81
441.472	6.67
441.677	6.73
441.881	6.86
442.086	6.75
442.29	6.89
442.495	6.89
442.699	6.9
442.904	6.71
443.108	6.77
443.312	6.81
443.517	6.87
443.721	6.98
443.925	6.91
444.13	6.78
444.334	6.56
444.538	6.51
444.743	6.49
444.947	6.34
445.151	6.33
445.356	6.26
445.56	6.16
445.764	6.33
445.968	6.28
446.173	6.25
446.377	6.3
446.581	6.53
446.785	6.52
446.989	6.55
447.193	6.6
447.398	6.63
447.602	6.61
447.806	6.67
448.01	6.63
448.214	6.61
448.418	6.58
448.622	6.41
448.826	6.27
449.03	6.25
449.234	6.21
449.438	6.16
449.642	6.22
449.846	6.25
450.05	6.3
450.254	6.07
450.458	6.25
450.662	6.26
450.866	6.26
451.069	6.33
451.273	6.3
451.477	6.24
451.681	6.36
451.885	6.23
452.089	6.27
452.292	6.29
452.496	6.3
452.7	6.25
452.904	6.34
453.107	6.56
453.311	6.41
453.515	6.33
453.719	6.53
453.922	6.49
454.126	6.48
454.33	6.52
454.533	6.56
454.737	6.78
454.94	6.73
455.144	6.57
455.348	6.49
455.551	6.58
455.755	6.61
455.958	6.47
456.162	6.47
456.365	6.58
456.569	6.64
456.772	6.54
456.976	6.22
457.179	6.15
457.383	6.17
457.586	6.1
457.79	5.91
457.993	5.7
458.196	5.75
458.4	5.74
458.603	5.5
458.807	5.41
459.01	5.48
459.213	5.66
459.417	5.6
459.62	5.73
459.823	5.74
460.026	6
460.23	6.19
460.433	6.2
460.636	6.22
460.839	6.42
461.042	6.46
461.246	6.42
461.449	6.27
461.652	6.32
461.855	6.21
462.058	6.23
462.261	6.09
462.464	6.08
462.668	6.05
462.871	6.03
463.074	5.76
463.277	5.79
463.48	5.9
463.683	6.14
463.886	6.16
464.089	6.36
464.292	6.38
464.495	6.3
464.698	6.39
464.901	6.45
465.104	6.48
465.306	6.62
465.509	6.5
465.712	6.43
465.915	6.46
466.118	6.59
466.321	6.42
466.524	6.48
466.726	6.35
466.929	6.31
467.132	6.19
467.335	6.18
467.538	6.45
467.74	6.52
467.943	6.52
468.146	6.39
468.348	6.26
468.551	6.22
468.754	6.28
468.956	6.5
469.159	6.5
469.362	6.5
469.564	6.6
469.767	6.28
469.969	6.4
470.172	6.28
470.375	6.44
470.577	6.79
470.78	6.96
470.982	6.92
471.185	6.97
471.387	6.92
471.59	6.84
471.792	6.7
471.995	6.72
472.197	6.67
472.399	6.5
472.602	6.36
472.804	6.31
473.007	6.33
473.209	6.24
473.411	6.27
473.614	6.39
473.816	6.32
474.018	6.43
474.22	6.54
474.423	6.45
474.625	6.58
474.827	6.77
475.03	6.62
475.232	6.6
475.434	6.7
475.636	6.49
475.838	6.48
476.04	6.57
476.243	6.45
476.445	6.44
476.647	6.55
476.849	6.78
477.051	6.53
477.253	6.44
477.455	6.43
477.657	6.24
477.859	6.32
478.061	6.42
478.263	6.4
478.465	6.44
478.667	6.46
478.869	6.3
479.071	6.18
479.273	6.26
479.475	6.36
479.677	6.32
479.879	6.42
480.081	6.39
480.283	6.16
480.485	6.25
480.686	6.17
480.888	6.12
481.09	6.19
481.292	6.1
481.494	6.11
481.695	6.06
481.897	6.07
482.099	6.1
482.301	6.12
482.502	6.18
482.704	6.23
482.906	6.29
483.107	6.33
483.309	6.27
483.511	6.32
483.712	6.3
483.914	6.28
484.115	6.27
484.317	6.24
484.519	6.21
484.72	6.24
484.922	6.16
485.123	6.18
485.325	6.14
485.526	6.16
485.728	6.14
485.929	6.14
486.131	6.14
486.332	6.2
486.534	6.21
486.735	6.25
486.936	6.22
487.138	6.22
487.339	6.17
487.541	6.22
487.742	6.29
487.943	6.29
488.144	6.35
488.346	6.3
488.547	6.24
488.748	6.19
488.95	6.19
489.151	6.12
489.352	6.14
489.553	6.1
489.755	6.02
489.956	5.91
490.157	5.81
490.358	5.86
490.559	5.93
490.76	5.96
490.961	6.05
491.163	6.09
491.364	6.13
491.565	6.2
491.766	6.3
491.967	6.39
492.168	6.42
492.369	6.46
492.57	6.39
492.771	6.41
492.972	6.41
493.173	6.38
493.374	6.43
493.575	6.44
493.776	6.43
493.976	6.44
494.177	6.37
494.378	6.49
494.579	6.67
494.78	6.61
494.981	6.5
495.182	6.53
495.382	6.62
495.583	6.65
495.784	6.71
495.985	6.79
496.185	6.7
496.386	6.71
496.587	6.61
496.788	6.41
496.988	6.35
497.189	6.47
497.39	6.58
497.59	6.62
497.791	6.58
497.992	6.75
498.192	6.81
498.393	6.64
498.593	6.71
498.794	6.75
498.994	6.86
499.195	7.12
499.395	7.19
499.596	7.12
499.796	7.12
499.997	7.31
500.197	7.4
500.398	7.29
500.598	7.61
500.799	7.7
500.999	7.88
501.199	7.87
501.4	7.89
501.6	7.91
501.801	7.91
502.001	7.89
502.201	7.88
502.402	7.69
502.602	7.91
502.802	7.89
503.002	7.85
503.203	7.57
503.403	7.59
503.603	7.65
503.803	7.94
504.003	8.05
504.204	8.19
504.404	8.2
504.604	8.24
504.804	8.29
505.004	8.46
505.204	8.6
505.404	8.84
505.604	8.98
505.804	9.05
506.005	8.87
506.205	8.98
506.405	9.07
506.605	9.13
506.805	9.31
507.005	9.41
507.204	9.37
507.404	9.64
507.604	9.72
507.804	9.81
508.004	9.73
508.204	9.67
508.404	9.86
508.604	9.84
508.804	9.95
509.003	10.08
509.203	10.13
509.403	10.19
509.603	10.13
509.803	10.29
510.002	10.48
510.202	10.71
510.402	11.05
510.602	11.09
510.801	11.28
511.001	11.34
511.201	11.24
511.4	11.36
511.6	11.54
511.8	11.64
511.999	11.78
512.199	11.67
512.398	11.77
512.598	11.89
512.797	11.96
512.997	12.09
513.197	12.15
513.396	12.34
513.596	12.37
513.795	12.47
513.994	12.64
514.194	12.65
514.393	12.89
514.593	12.89
514.792	12.87
514.992	13.01
515.191	13.04
515.39	13.19
515.59	13.45
515.789	13.57
515.988	13.66
516.188	13.68
516.387	13.77
516.586	14.03
516.786	14.19
516.985	14.38
517.184	14.32
517.383	14.57
517.582	14.62
517.782	14.66
517.981	14.66
518.18	14.66
518.379	14.68
518.578	14.76
518.777	14.65
518.976	14.78
519.176	14.71
519.375	14.9
519.574	14.99
519.773	15.23
519.972	15.26
520.171	15.43
520.37	15.67
520.569	15.83
520.768	15.92
520.967	16.11
521.166	16.1
521.365	16.31
521.564	16.49
521.762	16.42
521.961	16.38
522.16	16.55
522.359	16.48
522.558	16.47
522.757	16.47
522.956	16.68
523.154	16.7
523.353	16.75
523.552	16.88
523.751	16.87
523.949	16.98
524.148	17
524.347	17.04
524.546	17.41
524.744	17.45
524.943	17.56
525.142	17.57
525.34	17.65
525.539	17.84
525.737	17.89
525.936	17.98
526.135	18.16
526.333	18.38
526.532	18.36
526.73	18.27
526.929	18.36
527.127	18.49
527.326	18.62
527.524	18.79
527.723	18.83
527.921	18.91
528.12	19
528.318	18.99
528.516	18.97
528.715	19.06
528.913	19.19
529.112	19.29
529.31	19.27
529.508	19.24
529.707	19.27
529.905	19.34
530.103	19.37
530.301	19.34
530.5	19.48
530.698	19.58
530.896	19.67
531.094	19.63
531.293	19.61
531.491	19.76
531.689	19.86
531.887	19.91
532.085	20
532.283	20.02
532.481	20.15
532.68	20.03
532.878	20.03
533.076	20.18
533.274	20.28
533.472	20.4
533.67	20.42
533.868	20.55
534.066	20.65
534.264	20.65
534.462	20.71
534.66	20.66
534.858	20.8
535.056	20.82
535.253	20.79
535.451	20.9
535.649	20.84
535.847	20.95
536.045	20.89
536.243	20.84
536.441	20.91
536.638	20.94
536.836	21.04
537.034	21.02
537.232	21.08
537.43	21.07
537.627	21
537.825	21.13
538.023	21.2
538.22	21.32
538.418	21.32
538.616	21.19
538.813	21.4
539.011	21.54
539.209	21.81
539.406	21.9
539.604	21.99
539.801	22.17
539.999	22.26
540.196	22.36
540.394	22.31
540.591	22.43
540.789	22.68
540.986	22.57
541.184	22.54
541.381	22.49
541.579	22.52
541.776	22.52
541.974	22.5
542.171	22.55
542.368	22.56
542.566	22.64
542.763	22.66
542.96	22.6
543.158	22.68
543.355	22.76
543.552	22.77
543.75	22.88
543.947	22.87
544.144	22.98
544.341	22.97
544.539	22.95
544.736	22.86
544.933	23.03
545.13	23.15
545.327	23.18
545.524	23.16
545.722	23.13
545.919	23.09
546.116	23.31
546.313	23.33
546.51	23.34
546.707	23.33
546.904	23.5
547.101	23.45
547.298	23.42
547.495	23.46
547.692	23.46
547.889	23.58
548.086	23.69
548.283	23.61
548.48	23.58
548.677	23.55
548.874	23.46
549.07	23.53
549.267	23.31
549.464	23.43
549.661	23.46
549.858	23.74
550.055	23.91
550.251	23.7
550.448	23.72
550.645	23.98
550.842	23.94
551.038	24.24
551.235	24.18
551.432	24.43
551.628	24.4
551.825	24.4
552.022	24.31
552.218	24.17
552.415	24.46
552.612	24.56
552.808	24.44
553.005	24.59
553.201	24.59
553.398	24.43
553.594	24.39
553.791	24.54
553.987	24.46
554.184	24.4
554.38	24.43
554.577	24.32
554.773	24.23
554.97	24.38
555.166	24.35
555.362	24.38
555.559	24.88
555.755	24.86
555.952	24.9
556.148	25.26
556.344	25.47
556.541	25.51
556.737	25.74
556.933	25.84
557.129	25.72
557.326	25.9
557.522	26.04
557.718	25.98
557.914	26.14
558.11	26.11
558.307	25.98
558.503	25.85
558.699	26.08
558.895	26
559.091	26.15
559.287	26.33
559.483	26.38
559.679	26.39
559.876	26.28
560.072	26.31
560.268	26.17
560.464	26.3
560.66	26.59
560.856	26.65
561.052	26.75
561.247	26.41
561.443	26.28
561.639	25.97
561.835	25.89
562.031	25.88
562.227	25.75
562.423	25.75
562.619	25.49
562.815	25.29
563.01	25.19
563.206	25.18
563.402	25.44
563.598	25.81
563.793	26.01
563.989	25.99
564.185	26.08
564.381	26.49
564.576	26.59
564.772	26.8
564.968	26.79
565.163	26.74
565.359	26.76
565.555	27
565.75	26.72
565.946	26.73
566.141	26.75
566.337	26.47
566.532	26.37
566.728	26.35
566.923	26.34
567.119	26.45
567.314	26.63
567.51	26.52
567.705	26.32
567.901	26.24
568.096	26.28
568.292	26.32
568.487	26.53
568.682	26.49
568.878	26.49
569.073	26.53
569.268	26.5
569.464	26.51
569.659	26.52
569.854	26.51
570.05	26.67
570.245	26.84
570.44	26.76
570.635	26.72
570.831	26.66
571.026	26.92
571.221	26.88
571.416	26.93
571.611	26.68
571.806	26.92
572.002	26.95
572.197	26.89
572.392	26.8
572.587	26.89
572.782	26.85
572.977	26.86
573.172	26.69
573.367	26.71
573.562	26.61
573.757	26.63
573.952	26.38
574.147	26.41
574.342	26.65
574.537	26.61
574.732	26.66
574.927	26.83
575.121	26.91
575.316	27.05
575.511	27.06
575.706	27.08
575.901	27.17
576.096	27.09
576.29	27.24
576.485	27.09
576.68	27.1
576.875	27.12
577.069	27.22
577.264	27.19
577.459	27.26
577.654	27.3
577.848	27.54
578.043	27.62
578.238	27.89
578.432	27.74
578.627	27.78
578.821	27.99
579.016	28.2
579.21	27.94
579.405	27.95
579.6	27.79
579.794	27.92
579.989	27.73
580.183	27.73
580.378	27.72
580.572	27.79
580.766	27.8
580.961	28.09
581.155	27.74
581.35	27.72
581.544	28.04
581.738	28.2
581.933	28.22
582.127	28.29
582.321	28.18
582.516	28.02
582.71	27.98
582.904	27.95
583.099	27.46
583.293	27.58
583.487	27.85
583.681	27.72
583.875	27.62
584.07	27.68
584.264	27.94
584.458	28.22
584.652	28.56
584.846	28.62
585.04	28.67
585.234	28.76
585.428	28.78
585.623	28.64
585.817	28.75
586.011	28.68
586.205	28.4
586.399	28.12
586.593	28.02
586.787	27.65
586.981	27.69
587.174	27.71
587.368	27.71
587.562	27.89
587.756	28.04
587.95	27.76
588.144	28.11
588.338	28.09
588.532	28.25
588.725	28.36
588.919	28.48
589.113	28.76
589.307	28.6
589.501	28.62
589.694	28.68
589.888	28.62
590.082	28.73
590.275	28.3
590.469	28.63
590.663	28.62
590.856	28.81
591.05	29
591.244	28.87
591.437	28.93
591.631	28.86
591.824	28.66
592.018	28.86
592.212	28.84
592.405	29.08
592.599	28.84
592.792	29.02
592.986	28.67
593.179	28.75
593.372	28.86
593.566	29.01
593.759	28.98
593.953	29.03
594.146	28.83
594.339	28.99
594.533	28.96
594.726	29.09
594.92	28.7
595.113	28.92
595.306	28.7
595.499	28.33
595.693	28.26
595.886	28.43
596.079	28.57
596.272	28.55
596.466	28.47
596.659	28.58
596.852	28.66
597.045	28.8
597.238	28.54
597.431	28.68
597.624	29.04
597.818	29.16
598.011	29.12
598.204	28.91
598.397	29.02
598.59	29.12
598.783	29
598.976	28.99
599.169	28.97
599.362	29.4
599.555	29.71
599.748	29.74
599.941	29.88
600.134	29.88
600.326	29.99
600.519	30
600.712	29.87
600.905	29.97
601.098	29.92
601.291	30
601.483	29.93
601.676	29.53
601.869	29.36
602.062	29.22
602.255	29.3
602.447	29.35
602.64	29.55
602.833	29.58
603.025	29.51
603.218	29.55
603.411	29.84
603.603	29.79
603.796	30.05
603.989	30.08
604.181	30.07
604.374	30.01
604.566	30.04
604.759	30.12
604.951	30.09
605.144	30.31
605.336	30.19
605.529	29.95
605.721	29.87
605.914	29.68
606.106	29.57
606.299	29.57
606.491	29.67
606.683	29.64
606.876	29.51
607.068	29.47
607.26	29.44
607.453	29.35
607.645	29.39
607.837	29.51
608.03	29.62
608.222	29.84
608.414	29.81
608.606	29.7
608.799	29.64
608.991	29.6
609.183	29.53
609.375	29.41
609.567	29.71
609.759	29.82
609.952	30.08
610.144	30.04
610.336	29.86
610.528	29.9
610.72	30.18
610.912	30.37
611.104	30.42
611.296	30.58
611.488	30.37
611.68	30.3
611.872	30.26
612.064	29.97
612.256	30.02
612.448	30.12
612.64	30.24
612.832	29.88
613.023	29.88
613.215	29.75
613.407	29.85
613.599	30.26
613.791	30.32
613.983	30.51
614.174	30.64
614.366	30.63
614.558	30.71
614.75	30.63
614.941	30.94
615.133	30.65
615.325	30.75
615.516	30.76
615.708	30.7
615.9	30.67
616.091	30.42
616.283	30.53
616.475	30.72
616.666	30.7
616.858	30.68
617.049	30.82
617.241	30.89
617.432	30.88
617.624	30.68
617.815	30.66
618.007	30.7
618.198	30.8
618.39	30.67
618.581	30.24
618.773	30.23
618.964	29.97
619.155	29.71
619.347	29.85
619.538	30.2
619.729	30.44
619.921	30.43
620.112	30.69
620.303	30.45
620.494	30.33
620.686	30.74
620.877	30.87
621.068	30.97
621.259	31.11
621.451	30.9
621.642	30.45
621.833	30.83
622.024	31.15
622.215	30.84
622.406	31.03
622.597	31.11
622.788	30.94
622.98	31.08
623.171	31.19
623.362	31.19
623.553	31.29
623.744	31.45
623.935	30.87
624.126	30.28
624.317	30.24
624.508	30.5
624.698	30.33
624.889	30.54
625.08	30.32
625.271	30.43
625.462	30.03
625.653	29.78
625.844	29.8
626.034	29.93
626.225	30.28
626.416	30.38
626.607	30.09
626.798	30.03
626.988	30.02
627.179	30.31
627.37	30.18
627.56	30.28
627.751	30.53
627.942	30.45
628.132	30.32
628.323	30.19
628.514	30.12
628.704	30.43
628.895	30.5
629.085	30.52
629.276	30.26
629.466	30.31
629.657	30.65
629.847	30.71
630.038	30.62
630.228	30.93
630.419	30.68
630.609	30.82
630.8	30.35
630.99	30.51
631.181	30.35
631.371	30
631.561	30.03
631.752	29.98
631.942	30.1
632.132	30.31
632.323	29.84
632.513	30.24
632.703	30.11
632.893	30.3
633.084	30.09
633.274	29.95
633.464	30.23
633.654	30.14
633.844	29.78
634.034	29.86
634.225	29.83
634.415	30.16
634.605	30.28
634.795	30.45
634.985	30.61
635.175	30.7
635.365	30.81
635.555	30.76
635.745	31.15
635.935	31.26
636.125	31.41
636.315	31.38
636.505	31.43
636.695	31.33
636.885	31
637.075	30.92
637.265	30.84
637.455	30.99
637.644	31.03
637.834	30.41
638.024	30.54
638.214	30.29
638.404	30.5
638.593	30.36
638.783	30.06
638.973	30.58
639.163	30.71
639.352	31.1
639.542	30.96
639.732	31.06
639.921	31.59
640.111	32.08
640.301	31.73
640.49	31.98
640.68	32.2
640.87	32.48
641.059	32.5
641.249	32.57
641.438	32.17
641.628	32.07
641.817	32.01
642.007	31.7
642.196	31.6
642.386	31.64
642.575	31.36
642.764	30.99
642.954	31.04
643.143	30.87
643.333	30.86
643.522	31.37
643.711	31.46
643.901	31.35
644.09	31.79
644.279	31.6
644.469	32.04
644.658	31.52
644.847	32
645.036	32.3
645.226	31.83
645.415	31.21
645.604	30.86
645.793	30.91
645.982	31.17
646.171	30.98
646.361	31.03
646.55	31.12
646.739	31.49
646.928	31.22
647.117	30.46
647.306	30.7
647.495	31.26
647.684	31.16
647.873	31.32
648.062	31.56
648.251	31.35
648.44	31.35
648.629	31.33
648.818	31.18
649.007	31.05
649.196	31.75
649.384	32.1
649.573	31.88
649.762	31.85
649.951	31.86
650.14	31.48
650.328	31.44
650.517	31.81
650.706	31.47
650.895	31.52
651.083	31.34
651.272	30.85
651.461	30.68
651.65	30.96
651.838	30.68
652.027	30.59
652.216	30.64
652.404	30.84
652.593	30.45
652.781	30.88
652.97	31.04
653.158	31.48
653.347	31.36
653.535	31.13
653.724	30.94
653.912	31.14
654.101	30.9
654.289	30.82
654.478	30.89
654.666	30.74
654.855	30.25
655.043	30.41
655.231	30.32
655.42	31.21
655.608	31.52
655.796	31.33
655.985	31.59
656.173	31.71
656.361	32.06
656.55	31.75
656.738	31.99
656.926	32.62
657.114	32.43
657.302	31.95
657.491	31.45
657.679	31.27
657.867	31.48
658.055	31.57
658.243	31.74
658.431	31
658.619	31.42
658.807	31.26
658.996	30.96
659.184	31.01
659.372	31.61
659.56	31.76
659.748	32.01
659.936	31.94
660.124	31.86
660.311	31.72
660.499	31.79
660.687	31.55
660.875	31.53
661.063	31.53
661.251	31.75
661.439	31.42
661.627	31.32
661.814	30.95
662.002	30.92
662.19	30.89
662.378	30.75
662.565	31.14
662.753	31.4
662.941	31.26
663.129	31.21
663.316	31.11
663.504	31.04
663.692	30.86
663.879	31.11
664.067	31.12
664.254	31.01
664.442	31.26
664.63	31.48
664.817	31.68
665.005	31.59
665.192	31.57
665.38	31.39
665.567	31.58
665.755	31.73
665.942	31.8
666.13	31.98
666.317	31.88
666.504	32.02
666.692	32.27
666.879	31.61
667.067	32.05
667.254	32.21
667.441	32.06
667.629	32.47
667.816	32.07
668.003	32.22
668.19	32.06
668.378	32.2
668.565	32.09
668.752	31.67
668.939	31.81
669.127	31.53
669.314	31.6
669.501	31.6
669.688	31.49
669.875	32.03
670.062	31.81
670.249	31.57
670.436	31.64
670.623	31.4
670.81	31.26
670.997	31.64
671.184	31.73
671.371	31.55
671.558	31.44
671.745	31.37
671.932	31.43
672.119	31.44
672.306	31.99
672.493	31.94
672.68	32.25
672.867	32.14
673.054	31.49
673.24	31.55
673.427	31.79
673.614	31.9
673.801	31.65
673.988	31.76
674.174	31.49
674.361	31.4
674.548	31.23
674.734	31.17
674.921	31.34
675.108	31.41
675.294	31.37
675.481	30.64
675.668	30.91
675.854	30.86
676.041	30.29
676.227	30.03
676.414	29.72
676.601	30.15
676.787	29.83
676.974	29.65
677.16	29.87
677.347	29.96
677.533	30.73
677.719	30.83
677.906	31.23
678.092	31.35
678.279	32.27
678.465	32.57
678.651	32.25
678.838	32.78
679.024	33.03
679.21	32.87
679.397	33.04
679.583	32.87
679.769	32.42
679.955	32.14
680.142	32.2
680.328	31.75
680.514	31.56
680.7	31.95
680.886	31.69
681.073	31.64
681.259	31.78
681.445	31.72
681.631	31.43
681.817	31.73
682.003	31.79
682.189	31.78
682.375	31.79
682.561	31.8
682.747	31.23
682.933	30.88
683.119	30.7
683.305	30.83
683.491	30.94
683.677	30.89
683.863	30.41
684.049	30.51
684.235	30.58
684.42	30.59
684.606	30.14
684.792	30.58
684.978	31.45
685.164	31.36
685.349	31.39
685.535	30.87
685.721	31.89
685.907	32.22
686.092	31.9
686.278	31.57
686.464	31.57
686.649	31.69
686.835	31.6
687.021	30.96
687.206	30.86
687.392	30.65
687.577	31.01
687.763	30.2
687.948	30.48
688.134	30.44
688.319	30.67
688.505	30.84
688.69	31.21
688.876	31.15
689.061	31.19
689.247	31.4
689.432	31.4
689.618	31.18
689.803	31.33
689.988	31.16
690.174	31.25
690.359	31.08
690.544	30.65
690.73	30.94
690.915	31.35
691.1	31.51
691.285	32.12
691.471	32.44
691.656	33.09
691.841	33.38
692.026	33.44
692.211	33.3
692.396	33.42
692.582	33.94
692.767	33.21
692.952	32.39
693.137	32.28
693.322	31.85
693.507	31.6
693.692	30.48
693.877	30.5
694.062	30.37
694.247	30.7
694.432	31.22
694.617	31.16
694.802	31.86
694.987	32.15
695.172	31.87
695.357	32.39
695.541	32.31
695.726	32.84
695.911	32.91
696.096	33.19
696.281	32.84
696.466	32.81
696.65	32.46
696.835	32.37
697.02	32.86
697.204	33.19
697.389	33
697.574	33.35
697.759	33.3
697.943	32.78
698.128	32.92
698.312	33.07
698.497	32.68
698.682	32.64
698.866	32.59
699.051	32.31
699.235	31.96
699.42	31.51
699.604	31.54
699.789	31.63
699.973	32.18
700.158	31.82
700.342	31.66
700.527	31.75
700.711	31.83
700.895	32.05
701.08	32.21
701.264	32.7
701.448	32.45
701.633	31.89
701.817	31.56
702.001	30.86
702.186	30.74
702.37	31.14
702.554	31.17
702.738	31.49
702.923	31.12
703.107	31.53
703.291	31.35
703.475	31.95
703.659	32.47
703.843	33.05
704.027	33.87
704.212	33.94
704.396	34.07
704.58	34.26
704.764	33.35
704.948	33.47
705.132	32.87
705.316	32.94
705.5	33.13
705.684	32.9
705.868	32.35
706.052	31.73
706.235	31.87
706.419	31.39
706.603	31.38
706.787	32.14
706.971	32.05
707.155	31.66
707.339	31.56
707.522	31.59
707.706	31.97
707.89	32.08
708.074	32.4
708.257	32.26
708.441	32.57
708.625	32.52
708.808	32.12
708.992	32.37
709.176	33.03
709.359	33.09
709.543	33.43
709.727	32.8
709.91	33.26
710.094	33.15
710.277	33.78
710.461	34.37
710.644	34.25
710.828	34.88
711.011	35.38
711.195	34.63
711.378	34.82
711.562	34.7
711.745	34.57
711.928	34.04
712.112	33.71
712.295	33.11
712.478	32.08
712.662	32.37
712.845	32.26
713.028	31.43
713.212	32
713.395	30.9
713.578	30.81
713.761	31.27
713.945	31.3
714.128	31.74
714.311	32.14
714.494	32.84
714.677	33.08
714.86	33.25
715.043	33.01
715.227	33.3
715.41	34
715.593	33.6
715.776	32.74
715.959	32.62
716.142	32.5
716.325	32.36
716.508	31.71
716.691	31.14
716.874	30.96
717.057	30.83
717.239	30.63
717.422	30.33
717.605	30.33
717.788	30.42
717.971	30.36
718.154	30.23
718.337	29.91
718.519	30.51
718.702	30.52
718.885	30
719.068	30.31
719.25	30.19
719.433	30.36
719.616	31.32
719.798	32.41
719.981	32.43
720.164	32.4
720.346	32.45
720.529	31.84
720.712	31.11
720.894	30.39
721.077	30.57
721.259	30.37
721.442	30.85
721.624	30.58
721.807	30.51
721.989	31.57
722.172	30.62
722.354	30.53
722.537	30.63
722.719	30.58
722.901	31.74
723.084	31.41
723.266	30.89
723.448	30.98
723.631	29.34
723.813	28.82
723.995	27.37
724.178	27.94
724.36	28.04
724.542	28.57
724.724	29.13
724.907	29.29
725.089	29.34
725.271	30.29
725.453	30.55
725.635	32.84
725.817	32.58
725.999	34.11
726.181	34.11
726.364	34.31
726.546	33.18
726.728	34.19
726.91	33.87
727.092	34.15
727.274	33.32
727.456	33.36
727.638	32.19
727.819	32.21
728.001	30.87
728.183	31.22
728.365	31.86
728.547	32.53
728.729	31.88
728.911	31.83
729.093	31.32
729.274	32.36
729.456	32.01
729.638	32.59
729.82	32.12
730.001	32.1
730.183	32.56
730.365	31.74
730.546	32.37
730.728	32.62
730.91	33.19
731.091	33.82
731.273	32.89
731.455	33
731.636	32.3
731.818	32.96
731.999	33.64
732.181	32.2
732.362	32.11
732.544	31.09
732.725	30.92
732.907	30.68
733.088	31.01
733.27	31.37
733.451	31.05
733.633	30.47
733.814	30.42
733.995	30.35
734.177	31.07
734.358	31.72
734.539	32.55
734.721	32.46
734.902	32.26
735.083	32.36
735.264	32.18
735.446	32.65
735.627	33.63
735.808	33.72
735.989	33.39
736.17	33.57
736.351	33.45
736.533	32.8
736.714	32.57
736.895	32.33
737.076	31.32
737.257	32.1
737.438	32.73
737.619	32.54
737.8	32.46
737.981	32.88
738.162	33.02
738.343	33.12
738.524	33.21
738.705	33.49
738.886	33.82
739.067	34.93
739.247	33.79
739.428	32.64
739.609	33.29
739.79	33.99
739.971	33.98
740.151	34.48
740.332	34.53
740.513	35.55
740.694	35.91
740.874	36.43
741.055	35.54
741.236	36.09
741.417	35.73
741.597	34.08
741.778	33.68
741.958	32.52
742.139	31.55
742.32	31.53
742.5	30.64
742.681	30.16
742.861	28.96
743.042	29.42
743.222	28.74
743.403	29.04
743.583	30.36
743.764	29.63
743.944	30.5
744.124	30.42
744.305	30.92
744.485	30.55
744.666	30.2
744.846	29.6
745.026	29.77
745.207	31.51
745.387	31.17
745.567	30.85
745.747	31.28
745.928	31.91
746.108	32.18
746.288	31.13
746.468	31.12
746.648	32.06
746.829	31.87
747.009	30.93
747.189	30.15
747.369	30.31
747.549	31.28
747.729	31.42
747.909	30.34
748.089	30.03
748.269	29.97
748.449	29.83
748.629	28.94
748.809	29.23
748.989	28.97
749.169	28.7
749.349	28.15
749.529	26.39
749.709	26.99
749.889	27.77
750.068	28.58
750.248	28.93
750.428	29
750.608	28.6
750.788	29.75
750.967	30.1
751.147	30.17
751.327	30.94
751.507	31.66
751.686	31.22
751.866	31.42
752.046	31.1
752.225	31.48
752.405	31.42
752.585	32.51
752.764	32.44
752.944	33.29
753.123	33.66
753.303	33.97
753.482	33.81
753.662	32.63
753.841	32.32
754.021	32.1
754.2	30.23
754.38	30.31
754.559	29.56
754.739	28.5
754.918	27.21
755.097	26.91
755.277	26.92
755.456	28.1
755.635	29.09
755.815	29.19
755.994	28.77
756.173	30.35
756.352	30.98
756.532	30.61
756.711	31.38
756.89	31.04
757.069	31.14
757.248	30.93
757.427	29.74
757.607	30.91
757.786	30.68
757.965	31.84
758.144	31.63
758.323	31.79
758.502	32.14
758.681	32.86
758.86	33.8
759.039	33.24
759.218	33.38
759.397	33.7
759.576	33.02
759.755	33.57
759.934	32.68
760.113	33.25
760.291	32.77
760.47	33.99
760.649	33.35
760.828	33.54
761.007	34.51
761.186	33.49
761.364	33.64
761.543	33.38
761.722	33.04
761.901	33.82
762.079	33
762.258	33.73
762.437	32.89
762.615	32.58
762.794	32.52
762.972	32.06
763.151	32.4
763.33	32.82
763.508	32.96
763.687	32.88
763.865	32.82
764.044	32.8
764.222	31.84
764.401	31.75
764.579	32.29
764.758	32.66
764.936	31.54
765.114	32.21
765.293	32.2
765.471	31.78
765.65	32.44
765.828	32.33
766.006	32.79
766.184	32.61
766.363	31.45
766.541	30.36
766.719	30.02
766.898	32.18
767.076	32.41
767.254	32.07
767.432	31.85
767.61	31.09
767.788	30.87
767.967	29.13
768.145	29.43
768.323	30.27
768.501	32.2
768.679	30.62
768.857	29.33
769.035	29.22
769.213	28.3
769.391	28.22
769.569	27.19
769.747	26.72
769.925	28.07
770.103	28.09
770.281	28.81
770.459	28.55
770.636	29.56
770.814	30.91
770.992	30.08
771.17	29.57
771.348	30.89
771.525	31.23
771.703	32.32
771.881	32.36
772.059	35.38
772.236	35.91
772.414	35.07
772.592	34.55
772.769	33.68
772.947	32.63
773.125	34.85
773.302	32.6
773.48	33.65
773.657	31.96
773.835	32.27
774.013	29.71
774.19	28
774.368	26.75
774.545	27.84
774.723	27.02
774.9	27.08
775.077	27.33
775.255	28.27
775.432	27.75
775.61	27.33
775.787	28.51
775.964	29.09
776.142	29.58
776.319	29.97
776.496	29.62
776.674	29.49
776.851	31.5
777.028	29.88
777.205	29.68
777.382	29.79
777.56	29.43
777.737	28.37
777.914	26.58
778.091	27.81
778.268	29.22
778.445	29.45
778.622	30.08
778.8	28.96
778.977	29.17
779.154	25.23
779.331	24.94
779.508	25.46
779.685	27.18
779.862	28.82
780.038	28.25
780.215	27.62
780.392	28.54
780.569	27.92
780.746	28.73
780.923	29.43
781.1	34.24
781.277	33.09
781.453	32.53
781.63	28.57
781.807	29.17
781.984	28.15
782.16	27.69
782.337	27.05
782.514	27.59
782.691	26
782.867	25.62
783.044	24.81
783.221	25.02
783.397	27.35
783.574	27.85
783.75	26.71
783.927	28.9
784.103	28.13
784.28	28.01
784.456	27.86
784.633	29.62
784.809	28.23
784.986	29.3
785.162	29.62
785.339	27.48
785.515	26.92
785.692	27.01
785.868	27.31
786.044	29.4
786.221	28.29
786.397	27.7
786.573	27.16
786.749	28.3
786.926	26.65
787.102	29.17
787.278	29.75
787.454	30.43
787.631	30.14
787.807	27.78
787.983	26.48
788.159	27.92
788.335	29.48
788.511	29.25
788.687	27.9
788.863	28.66
789.039	26.35
789.216	24.89
789.392	25.1
789.568	25.87
789.744	28.58
789.919	28.95
790.095	29.46
790.271	30.73
790.447	31.31
790.623	31.69
790.799	33.41
790.975	34.47
791.151	37.38
791.327	39.37
791.502	39.23
791.678	38.03
791.854	39.68
792.03	37.42
792.205	34.46
792.381	34.15
792.557	35.27
792.733	33.14
792.908	32.12
793.084	32.41
793.259	31.29
793.435	29.37
793.611	30.19
793.786	29.16
793.962	30.27
794.137	30.27
794.313	29.46
794.488	29.81
794.664	30.18
794.839	31.97
795.015	31.42
795.19	31.22
795.366	33.07
795.541	30.99
795.716	30.89
795.892	33.48
796.067	34.9
796.242	35.07
796.418	33.65
796.593	34.71
796.768	33.03
796.944	33.63
797.119	33.32
797.294	31.42
797.469	30.56
797.644	30.13
797.82	28.07
797.995	27.89
798.17	29.3
798.345	30.62
798.52	28.46
798.695	30
798.87	25.82
799.045	25.58
799.22	28.85
799.395	30.19
799.57	28.83
799.745	28.85
799.92	27.12
800.095	26.65
800.27	27.31
800.445	27.81
800.62	28.57
800.795	30.26
800.97	32.61
801.145	29.99
801.319	31.75
801.494	32.51
801.669	33.22
801.844	35.96
802.018	36.71
802.193	36.23
802.368	37.7
802.543	36.92
802.717	38.97
802.892	36.15
803.067	35.06
803.241	36.68
803.416	36.7
803.59	35.73
803.765	32.53
803.94	28.49
804.114	24.99
804.289	24.01
804.463	23.59
804.638	24.29
804.812	24.77
804.986	28.6
805.161	24.85
805.335	25.18
805.51	24.23
805.684	27.64
805.858	29.88
806.033	33.14
806.207	35.92
806.381	35.34
806.556	30.48
806.73	32.27
806.904	31.59
807.078	32.42
807.253	30.71
807.427	31.92
807.601	29.48
807.775	29.04
807.949	32.14
808.123	29.96
808.298	31.35
808.472	32.45
808.646	30.11
808.82	28.76
808.994	28.15
809.168	29.44
809.342	30.33
809.516	30.48
809.69	30.64
809.864	27.68
810.038	26.33
810.212	27.07
810.385	29.77
810.559	30.8
810.733	29.76
810.907	30.91
811.081	31.91
811.255	28.16
811.428	28.75
811.602	29.32
811.776	26.92
811.95	27.95
812.123	24.01
812.297	22.48
812.471	23.67
812.644	24.89
812.818	23.22
812.992	21.84
813.165	24.38
813.339	25.09
813.512	27.58
813.686	30.69
813.86	27.93
814.033	31.36
814.207	34.01
814.38	36.84
814.554	37.94
814.727	36.88
814.9	35.47
815.074	34.89
815.247	35.89
815.421	31.78
815.594	30.75
815.767	33.14
815.941	30.41
816.114	29.45
816.287	22.79
816.46	20.86
816.634	22.04
816.807	23.23
816.98	27.54
817.153	27.24
817.327	27.61
817.5	25.39
817.673	27.58
817.846	28.24
818.019	26.35
818.192	29.39
818.365	28.19
818.538	31.71
818.711	34.55
818.884	28.56
819.057	26.57
819.23	28.82
819.403	32.38
819.576	31.15
819.749	30.49
819.922	31.27
820.095	29.51
820.268	32.45
820.441	33.11
820.614	33.78
820.786	34.55
820.959	35.17
821.132	35.65
821.305	35.28
821.477	34.09
821.65	34.47
821.823	34.33
821.996	34.98
822.168	34.77
822.341	33.37
822.514	32.33
822.686	32.67
822.859	32.47
823.031	32.25
823.204	32.06
823.376	32.07
823.549	32.01
823.722	32.26
823.894	31.54
824.067	31.15
824.239	31.49
824.411	31.37
824.584	32.07
824.756	32.64
824.929	32.58
825.101	32.25
825.273	32.58
825.446	32.55
825.618	32.53
825.79	33.29
825.963	33.84
826.135	33.43
826.307	33.22
826.479	31.89
826.652	31.22
826.824	30.86
826.996	30.51
827.168	30.01
827.34	30.12
827.512	29.3
827.684	29.13
827.856	29.04
828.029	29.34
828.201	30.17
828.373	30.79
828.545	30.92
828.717	31.08
828.889	32.58
829.061	34.06
829.232	34.56
829.404	34.82
829.576	36.18
829.748	35.36
829.92	36.42
830.092	35.93
830.264	35.45
830.436	35.25
830.607	35.62
830.779	35.19
830.951	34.89
831.123	33.67
831.294	34.96
831.466	34.19
831.638	36.56
831.809	36.65
831.981	38.06
832.153	38.42
832.324	40.41
832.496	40.09
832.667	39.15
832.839	36.11
833.011	38.16
833.182	34.63
833.354	33.09
833.525	30.12
833.697	29.82
833.868	30.55
834.039	30.84
834.211	28.84
834.382	29.6
834.554	31.9
834.725	33.08
834.896	32.66
835.068	34.86
835.239	35.96
835.41	36.38
835.581	34.77
835.753	33.88
835.924	32.72
836.095	34.06
836.266	33.16
836.438	30.79
836.609	30.24
836.78	30.47
836.951	30.88
837.122	29.26
837.293	30.09
837.464	30.62
837.635	29.83
837.806	31.82
837.977	28.11
838.148	28.13
838.319	29.35
838.49	29.6
838.661	26.49
838.832	26.65
839.003	25.63
839.174	25.08
839.345	27.35
839.516	27.59
839.687	29.52
839.857	29.23
840.028	32.23
840.199	30.15
840.37	31.97
840.54	35.03
840.711	33.34
840.882	33.02
841.053	32.47
841.223	30.19
841.394	27.8
841.564	24.4
841.735	25
841.906	21.61
842.076	22.95
842.247	23.82
842.417	20.12
842.588	24.15
842.758	24.59
842.929	21.45
843.099	19.67
843.27	26.06
843.44	26.79
843.611	30.61
843.781	25.62
843.951	23.56
844.122	21.42
844.292	23.76
844.462	22.32
844.633	26.47
844.803	31.19
844.973	37.09
845.144	32.96
845.314	27.15
845.484	22.68
845.654	31.96
845.824	36.9
845.995	35.51
846.165	38.09
846.335	26.6
846.505	27
846.675	29.57
846.845	34.61
847.015	33.04
847.185	45.7
847.355	52.99
847.525	49.53
847.695	37.31
847.865	36.21
848.035	29.27
848.205	38.87
848.375	40.76
848.545	42.68
848.715	29.96
848.884	30.12
849.054	28.41
849.224	23.42
849.394	21.25
849.564	26.34
849.733	20.9
849.903	28.84
850.073	27.4
850.243	18.25
850.412	10.58
850.582	9.1
850.752	13.49
850.921	8
851.091	8.79
851.26	9.25
851.43	10.14
851.599	11.36
851.769	2.66
851.939	7.51
852.108	10.23
852.278	17.41
852.447	15.73
852.616	20.04
852.786	24.42
852.955	23.34
853.125	23.38
853.294	23.42
853.463	22.92
853.633	17.8
853.802	16.75
853.971	19.51
854.141	10.01
854.31	17.72
854.479	9.76
854.648	4.79
854.818	12.15
854.987	12.4
855.156	15.51
855.325	21.69
855.494	26.03
855.663	24.3
855.832	22.67
856.001	22.71
856.171	24.5
856.34	23.35
856.509	27.51
856.678	22.49
856.847	26.14
857.016	24.68
857.185	19.86
857.353	18.74
857.522	14.51
857.691	13.8
857.86	14.35
858.029	6.75
858.198	18.3
858.367	22.5
858.535	21.95
858.704	20.24
858.873	24.43
859.042	32.1
859.21	43.65
859.379	60.89
859.548	58.89
859.717	57.4
859.885	61.98
860.054	52.06
860.222	49.28
860.391	51.24
860.56	52.08
860.728	47.63
860.897	47.68
861.065	45.7
861.234	35.49
861.402	34.91
861.571	32
861.739	25.79
861.908	23.16
862.076	22.84
862.244	15.38
862.413	12.04
862.581	18.29
862.749	17.21
862.918	15.02
863.086	13.42
863.254	13.66
863.423	20.08
863.591	25.51
863.759	24.43
863.927	14.86
864.096	17.14
864.264	16
864.432	9.85
864.6	15.2
864.768	7.03
864.936	3.03
865.104	9.28
865.272	10.36
865.44	-2.66
865.608	-2.11
865.776	6.96
865.944	7.18
866.112	13.51
866.28	12.68
866.448	6.68
866.616	11.27
866.784	18.64
866.952	11.95
867.12	0.95
867.288	2.64
867.455	10.93
867.623	12.23
867.791	13.92
867.959	7.16
868.127	2.48
868.294	5.02
868.462	1.36
868.63	-16.05
868.797	12.35
868.965	20.37
869.133	29.88
869.3	23.08
869.468	17.13
869.636	12.67
869.803	22.74
869.971	32.78
870.138	25.39
870.306	31.36
870.473	36.83
870.641	27.36
870.808	25.87
870.975	28.15
871.143	28.06
871.31	33.34
871.478	41.5
871.645	34.65
871.812	30.99
871.98	40.85
872.147	29.52
872.314	29.07
872.482	19.24
872.649	6.8
872.816	-3.39
872.983	-4.4
873.15	-0.52
873.318	-14.81
873.485	-5.92
873.652	-8.15
873.819	-6.58
873.986	2
874.153	8.95
874.32	10.94
874.487	20.56
874.654	22.74
874.821	28.94
874.988	34.01
875.155	37.57
875.322	25.26
875.489	26.15
875.656	25.26
875.823	25.83
875.99	13.13
876.157	20.27
876.324	20.44
876.49	15.19
876.657	11.56
876.824	2.68
876.991	7.49
877.157	13.14
877.324	11.37
877.491	11.69
877.658	13.23
877.824	12.96
877.991	12.75
878.157	15.22
878.324	20.2
878.491	0.49
878.657	5.24
878.824	13.03
878.99	15.39
879.157	12.55
879.323	14.14
879.49	13.76
879.656	13.24
879.823	11.05
879.989	7.48
880.156	9.71
880.322	19.42
880.488	19.49
880.655	12.95
880.821	15.59
880.987	20.41
881.154	20.59
881.32	19.26
881.486	24.02
881.652	26.33
881.819	27.99
881.985	27.8
882.151	27.21
882.317	29.6
882.483	29.35
882.649	29.21
882.816	29.49
882.982	30.98
883.148	31
883.314	30.75
883.48	30.24
883.646	29.15
883.812	28.65
883.978	27.68
884.144	27.14
884.31	29.01
884.476	28.78
884.642	28.91
884.807	28.21
884.973	27.85
885.139	27.19
885.305	28.56
885.471	28.56
885.637	29.78
885.802	31.9
885.968	31.74
886.134	30.97
886.3	31.64
886.465	31.41
886.631	32.73
886.797	33.3
886.962	36.92
887.128	34.52
887.293	35.3
887.459	33.76
887.625	33.46
887.79	33.48
887.956	32.56
888.121	31.85
888.287	31.74
888.452	29.4
888.618	29.83
888.783	20.45
