Data from CB_039_Reflection_21-46-53-892.txt Node
Date: Wed Nov 11 21:46:53 EST 2015
User: robert
Spectrometer: USB4E03001
Autoset integration time: false
Trigger mode: 4
Integration Time (sec): 1.000000E-1
Scans to average: 15
Electric dark correction enabled: true
Nonlinearity correction enabled: false
Boxcar width: 5
Stray light correction enabled: false
XAxis mode: Wavelengths
Stop averaging: false
Number of Pixels in Spectrum: 3648
>>>>>Begin Spectral Data<<<<<
177.566	550.73
177.785	2015.79
178.005	-637.41
178.225	-1364.16
178.445	124.03
178.665	95.46
178.885	64.58
179.105	123.4
179.324	205.86
179.544	175.19
179.764	228.79
179.984	176.4
180.204	139.54
180.423	240.43
180.643	155.6
180.863	103.65
181.083	95.34
181.302	86.06
181.522	86.84
181.742	75.91
181.961	105.45
182.181	107.13
182.401	113.17
182.621	112.19
182.84	101.35
183.06	117.21
183.279	122.29
183.499	117.46
183.719	120.02
183.938	137.81
184.158	163.33
184.377	124.51
184.597	133.34
184.816	142.12
185.036	101.54
185.256	121.83
185.475	117.47
185.695	110.71
185.914	120.27
186.134	163.31
186.353	100.91
186.572	56.28
186.792	59.74
187.011	45.68
187.231	54.19
187.45	125.64
187.67	75.44
187.889	46.33
188.108	54.2
188.328	64.75
188.547	50.51
188.766	71.87
188.986	78.46
189.205	59.14
189.424	57.43
189.644	50.14
189.863	41.25
190.082	54.86
190.302	75.91
190.521	85.49
190.74	101.58
190.959	101.69
191.178	79.21
191.398	84.33
191.617	109.98
191.836	114.47
192.055	98.13
192.274	83.36
192.494	79.42
192.713	90.69
192.932	95.48
193.151	70.43
193.37	81.59
193.589	93.23
193.808	104.73
194.027	93.23
194.246	108.77
194.465	112.59
194.685	125.03
194.904	118.35
195.123	106.77
195.342	82.18
195.561	98.13
195.78	100
195.999	109.94
196.218	89.41
196.436	80.1
196.655	72.92
196.874	114.68
197.093	99.8
197.312	96.8
197.531	107.29
197.75	122.54
197.969	135.57
198.188	94.65
198.407	113.19
198.625	107.15
198.844	105.86
199.063	107.26
199.282	84.08
199.501	122.52
199.719	159.43
199.938	149.94
200.157	272.63
200.376	176.85
200.594	266.4
200.813	189.15
201.032	216.85
201.251	338.78
201.469	261.96
201.688	263.27
201.907	176.31
202.125	145.53
202.344	144.91
202.563	144.28
202.781	124.79
203	99.32
203.218	99.01
203.437	112.39
203.656	87.48
203.874	71.46
204.093	58.08
204.311	65.76
204.53	62.32
204.748	47.83
204.967	51.39
205.185	54.23
205.404	58.35
205.622	69.22
205.841	69.23
206.059	67.55
206.278	104.35
206.496	104.16
206.715	104.19
206.933	96.84
207.151	98.7
207.37	90.87
207.588	94.05
207.806	104.25
208.025	100.79
208.243	94.95
208.461	94.79
208.68	69.31
208.898	81.73
209.116	58.38
209.335	72.75
209.553	70.76
209.771	87.01
209.989	82.8
210.208	88.75
210.426	84.7
210.644	96.96
210.862	91.22
211.081	123.36
211.299	144.83
211.517	182.12
211.735	144.24
211.953	159.21
212.171	138.64
212.39	145.17
212.608	128.67
212.826	118.71
213.044	126.94
213.262	139.39
213.48	148.42
213.698	132.52
213.916	142.85
214.134	130.28
214.352	134.11
214.57	104.74
214.788	110.15
215.006	116.4
215.224	103.57
215.442	90.16
215.66	92.7
215.878	84.89
216.096	71.77
216.314	67.52
216.532	88.19
216.75	85.52
216.968	89.54
217.185	80.21
217.403	78.59
217.621	73.08
217.839	67.57
218.057	64.45
218.275	73.73
218.492	79.48
218.71	83.25
218.928	79.62
219.146	73.5
219.363	80.46
219.581	77.62
219.799	75.55
220.017	84.15
220.234	71.48
220.452	89.94
220.67	66.82
220.887	60.24
221.105	53.92
221.323	41.4
221.54	63.66
221.758	62.41
221.976	73.41
222.193	72.22
222.411	73.64
222.629	76.42
222.846	59.62
223.064	60.01
223.281	68.7
223.499	66.84
223.716	68.68
223.934	65.7
224.151	49.72
224.369	40.22
224.586	31.81
224.804	38.87
225.021	42.76
225.239	64.62
225.456	64.98
225.674	65.99
225.891	53.82
226.108	59.91
226.326	51.93
226.543	62.14
226.76	76.2
226.978	65.59
227.195	57.86
227.413	49.16
227.63	39.56
227.847	34.61
228.064	29.68
228.282	25.87
228.499	21.02
228.716	19.01
228.934	19.86
229.151	15.17
229.368	18.14
229.585	19.44
229.802	16.21
230.02	12.79
230.237	10.83
230.454	10.49
230.671	12.74
230.888	11.38
231.105	14.93
231.323	15.94
231.54	18.01
231.757	14.51
231.974	12.44
232.191	12.53
232.408	17.34
232.625	22.63
232.842	22.89
233.059	26.72
233.276	29.66
233.493	25.74
233.71	24.2
233.927	26.79
234.144	27.61
234.361	26.29
234.578	31.18
234.795	32.79
235.012	30.38
235.229	30.38
235.446	27.23
235.663	27.27
235.879	29.61
236.096	32.47
236.313	31.8
236.53	37.08
236.747	36.88
236.964	37.82
237.181	36.43
237.397	32.7
237.614	31.84
237.831	32.78
238.048	36.53
238.264	32.53
238.481	27.74
238.698	26.41
238.915	23.66
239.131	22.47
239.348	20.21
239.565	20.44
239.781	23.91
239.998	25.22
240.215	24.29
240.431	22.41
240.648	23.07
240.865	21.03
241.081	23.58
241.298	20.89
241.514	20.5
241.731	22.66
241.947	19.17
242.164	19.46
242.38	18.55
242.597	18.17
242.814	16.71
243.03	18.09
243.246	19.95
243.463	18.45
243.679	19.14
243.896	20.1
244.112	17.77
244.329	21.9
244.545	20.23
244.762	20.03
244.978	21.84
245.194	23.4
245.411	21.95
245.627	20.78
245.843	19.32
246.06	18.78
246.276	16.52
246.492	15.96
246.709	14.48
246.925	15.42
247.141	14.93
247.357	13.3
247.574	13.64
247.79	13.36
248.006	14.68
248.222	15.2
248.439	15.09
248.655	16.49
248.871	17.46
249.087	17.3
249.303	17.6
249.519	17.84
249.736	19.62
249.952	18.02
250.168	19.35
250.384	17.89
250.6	17.44
250.816	19.26
251.032	17.74
251.248	17.55
251.464	16.47
251.68	15.17
251.896	16.7
252.112	17.09
252.328	16.63
252.544	16.65
252.76	14.93
252.976	15.48
253.192	14.38
253.408	14.69
253.624	15.98
253.84	17.32
254.056	17.2
254.272	20
254.487	19.62
254.703	22.44
254.919	20.66
255.135	22.18
255.351	23.04
255.567	25.13
255.782	25.53
255.998	23.85
256.214	22.07
256.43	22.94
256.646	20.02
256.861	17.55
257.077	15.99
257.293	15.16
257.508	15.19
257.724	15.12
257.94	14.06
258.155	14.22
258.371	13.36
258.587	14.92
258.802	14.95
259.018	14.28
259.234	14.02
259.449	13.7
259.665	13.62
259.88	13.08
260.096	12.54
260.312	11.83
260.527	11.96
260.743	11.5
260.958	11.17
261.174	10.64
261.389	10.7
261.605	11.18
261.82	11.74
262.036	12.77
262.251	13.38
262.466	15.03
262.682	15.62
262.897	15.76
263.113	16.19
263.328	16.84
263.543	16.51
263.759	15.82
263.974	15.92
264.189	15.67
264.405	14.52
264.62	13.44
264.835	10.82
265.051	11.32
265.266	9.88
265.481	10.82
265.696	11.62
265.912	11.99
266.127	13.28
266.342	12.99
266.557	12.21
266.773	12.33
266.988	13.32
267.203	13.41
267.418	14.08
267.633	15.23
267.848	15.67
268.064	13.45
268.279	13.42
268.494	13.42
268.709	13.98
268.924	15.14
269.139	15.38
269.354	15.47
269.569	15.48
269.784	14.88
269.999	12.93
270.214	12.16
270.429	13.36
270.644	14.27
270.859	13.83
271.074	13.97
271.289	14.12
271.504	14.25
271.719	13.58
271.934	13.36
272.149	13.58
272.363	15.32
272.578	15.67
272.793	14.81
273.008	14.45
273.223	13.88
273.438	13.91
273.653	14.62
273.867	14.28
274.082	14.39
274.297	14.76
274.512	14.78
274.726	12.97
274.941	14.14
275.156	15.12
275.371	13.83
275.585	14.79
275.8	15.08
276.015	14.61
276.229	15.37
276.444	16.33
276.659	15.75
276.873	15.58
277.088	16.53
277.302	14.99
277.517	15.88
277.732	18.31
277.946	17.62
278.161	17.64
278.375	16.29
278.59	15.39
278.804	13.46
279.019	14.17
279.233	14.31
279.448	14.14
279.662	13.68
279.877	12.25
280.091	10.29
280.306	10.91
280.52	10.06
280.735	10.49
280.949	10.73
281.163	11.68
281.378	10.15
281.592	8.68
281.806	9.97
282.021	10.34
282.235	10.74
282.449	10.8
282.664	10.35
282.878	10.24
283.092	10.83
283.307	11.28
283.521	10.78
283.735	12.26
283.949	14.02
284.164	13.21
284.378	13.33
284.592	13.61
284.806	13.68
285.02	13.68
285.234	13.76
285.449	13.67
285.663	13.55
285.877	14.16
286.091	13.61
286.305	13.41
286.519	12.9
286.733	13.22
286.947	12.94
287.161	12.98
287.375	13.35
287.589	14.2
287.803	13.94
288.017	13.47
288.231	13.98
288.445	14.34
288.659	13.76
288.873	14.15
289.087	14.02
289.301	13.85
289.515	14.84
289.729	15.15
289.943	14.39
290.157	14.61
290.371	14.9
290.584	15.04
290.798	15.05
291.012	15.23
291.226	15.63
291.44	15.03
291.654	15.49
291.867	14.74
292.081	13.91
292.295	14.15
292.509	13.18
292.722	13.98
292.936	12.47
293.15	12.74
293.364	13.32
293.577	13.95
293.791	14.35
294.005	12.91
294.218	13.08
294.432	14.59
294.645	14.9
294.859	14.43
295.073	13.09
295.286	13.46
295.5	12.79
295.713	12.41
295.927	10.71
296.14	10.94
296.354	12.04
296.568	12.34
296.781	11.57
296.994	11.41
297.208	11.9
297.421	12.89
297.635	13.15
297.848	12.95
298.062	12.53
298.275	13.22
298.489	12.86
298.702	13.39
298.915	13.52
299.129	15.32
299.342	15
299.555	15.94
299.769	15.34
299.982	16.07
300.195	16.95
300.409	18.02
300.622	18.75
300.835	18.96
301.048	18.31
301.262	18.35
301.475	17.1
301.688	17.59
301.901	16.67
302.115	17.32
302.328	16.68
302.541	17.25
302.754	16.63
302.967	16.22
303.18	18.21
303.393	18.32
303.607	18.06
303.82	17.33
304.033	16.8
304.246	17.09
304.459	17.66
304.672	17.67
304.885	17.66
305.098	18.42
305.311	18.88
305.524	16.79
305.737	17.85
305.95	18.13
306.163	18.35
306.376	18.44
306.589	19.3
306.802	17.9
307.015	17.66
307.228	17.4
307.44	16.96
307.653	17
307.866	18.07
308.079	17.41
308.292	16.84
308.505	17.4
308.718	18
308.93	18.29
309.143	18.68
309.356	19.08
309.569	19.36
309.781	18.72
309.994	18.76
310.207	17.95
310.42	17.61
310.632	18.71
310.845	18.52
311.058	18.69
311.27	18.82
311.483	18.76
311.696	18.52
311.908	18.73
312.121	19.37
312.333	19.03
312.546	19.73
312.759	20.19
312.971	19.53
313.184	19.98
313.396	19.55
313.609	19.01
313.821	19.01
314.034	19.17
314.246	18.07
314.459	18.57
314.671	18.15
314.884	18.41
315.096	17.95
315.309	16.81
315.521	15.58
315.733	15.99
315.946	15.51
316.158	15.42
316.371	14.92
316.583	14.68
316.795	14.34
317.008	15.78
317.22	15.54
317.432	16.58
317.644	17.79
317.857	18.98
318.069	18.64
318.281	18.16
318.494	19.47
318.706	21.01
318.918	22.23
319.13	23.22
319.342	22.51
319.555	22.2
319.767	21.14
319.979	21.04
320.191	21.16
320.403	22.45
320.615	23.57
320.827	23.34
321.039	21.6
321.252	21.15
321.464	20.38
321.676	20.29
321.888	20.97
322.1	22.11
322.312	22.18
322.524	21.98
322.736	21.72
322.948	22.12
323.16	21.29
323.372	22.86
323.584	23.09
323.796	23.61
324.007	23.33
324.219	24.15
324.431	23.01
324.643	23.16
324.855	23.38
325.067	23.34
325.279	22.83
325.491	23.68
325.702	22.76
325.914	22.24
326.126	21.88
326.338	21.22
326.55	20.92
326.761	21.75
326.973	21.88
327.185	22.06
327.396	21.68
327.608	21.01
327.82	21.94
328.032	22.58
328.243	23.26
328.455	22.94
328.666	24.93
328.878	24.7
329.09	24.79
329.301	23.75
329.513	22.33
329.725	22.28
329.936	24.24
330.148	22.44
330.359	22.92
330.571	22.89
330.782	23.42
330.994	23.36
331.205	22.66
331.417	22.28
331.628	23.25
331.84	24.9
332.051	25.47
332.262	24.19
332.474	24.81
332.685	25.13
332.897	25.3
333.108	25.9
333.319	26.01
333.531	27.07
333.742	27.54
333.953	27.52
334.165	27.14
334.376	27.72
334.587	27.63
334.799	27.7
335.01	28.17
335.221	27.95
335.432	28.01
335.644	27.32
335.855	27.26
336.066	27.42
336.277	28.53
336.488	28.32
336.7	27.5
336.911	28.18
337.122	28.09
337.333	27.25
337.544	27.7
337.755	27.21
337.966	27.96
338.177	27.85
338.388	28.03
338.599	27.35
338.811	27.58
339.022	27.19
339.233	26.79
339.444	26.9
339.655	27.17
339.866	26.67
340.076	26.43
340.287	25.73
340.498	25.24
340.709	24.51
340.92	24.62
341.131	24.93
341.342	25.69
341.553	25.51
341.764	24.98
341.975	24.43
342.185	24.41
342.396	24.59
342.607	25.02
342.818	24.46
343.029	24.6
343.239	24.58
343.45	24.1
343.661	23.96
343.872	23.83
344.082	23.79
344.293	23.94
344.504	24.24
344.714	24.99
344.925	24.22
345.136	24.82
345.346	24.61
345.557	24.57
345.768	24.24
345.978	24.24
346.189	25.12
346.399	24.75
346.61	24.97
346.821	25.1
347.031	24.23
347.242	24.69
347.452	24.3
347.663	24.48
347.873	24.19
348.084	24.89
348.294	25
348.504	23.79
348.715	24.67
348.925	23.91
349.136	23.54
349.346	23.47
349.557	23.35
349.767	23.49
349.977	23.98
350.188	23.79
350.398	23.76
350.608	24.26
350.819	24.71
351.029	24.05
351.239	24.66
351.449	24.74
351.66	23.5
351.87	24.01
352.08	24.18
352.29	23.56
352.501	24.28
352.711	24.27
352.921	23.75
353.131	24.16
353.341	24.88
353.552	25.28
353.762	24.98
353.972	26.78
354.182	25.99
354.392	26.28
354.602	26.49
354.812	25.55
355.022	24.95
355.232	24.71
355.442	24.24
355.652	24.04
355.862	23.55
356.072	23.25
356.282	23.02
356.492	23.95
356.702	23.69
356.912	23.45
357.122	24.08
357.332	24.57
357.542	24.77
357.752	24.24
357.962	23.97
358.171	23.91
358.381	24.08
358.591	23.46
358.801	22.6
359.011	22.29
359.221	22.85
359.43	22.94
359.64	21.83
359.85	21.53
360.06	21.49
360.269	21.5
360.479	21.21
360.689	21.11
360.899	21.27
361.108	21.89
361.318	21.8
361.528	21.37
361.737	20.25
361.947	20.55
362.156	20.11
362.366	20.72
362.576	20.33
362.785	20.61
362.995	20.62
363.204	20.62
363.414	19.93
363.623	20.25
363.833	19.82
364.042	20.28
364.252	21.25
364.461	21.26
364.671	21.12
364.88	21.96
365.09	21.31
365.299	21.82
365.509	21.85
365.718	22.1
365.927	21.84
366.137	21.66
366.346	22.01
366.555	21.66
366.765	21.55
366.974	21.31
367.183	20.51
367.393	21.41
367.602	21.13
367.811	21.27
368.021	21.31
368.23	21.05
368.439	21.6
368.648	21.81
368.857	21.02
369.067	21.16
369.276	20.74
369.485	21.08
369.694	20.61
369.903	20.14
370.112	19.33
370.321	19.27
370.531	19.53
370.74	19.38
370.949	18.71
371.158	18.02
371.367	18.26
371.576	18.78
371.785	18.65
371.994	18.64
372.203	18.44
372.412	19.18
372.621	18.48
372.83	17.67
373.039	17.54
373.248	17.47
373.457	17.86
373.666	17.67
373.874	17.06
374.083	16.56
374.292	15.93
374.501	16.36
374.71	15.69
374.919	16.13
375.128	17.02
375.336	17.11
375.545	16.91
375.754	16.66
375.963	16.12
376.171	16.32
376.38	16.3
376.589	16.43
376.798	15.85
377.006	15.73
377.215	15.61
377.424	15.43
377.632	14.61
377.841	14.83
378.05	15.11
378.258	15.58
378.467	15.56
378.675	15.65
378.884	15.51
379.093	15.32
379.301	15.42
379.51	15.51
379.718	15.36
379.927	15.71
380.135	15.17
380.344	15.19
380.552	15.09
380.761	14.67
380.969	14.43
381.177	14.26
381.386	13.98
381.594	13.89
381.803	13.46
382.011	12.85
382.219	13.18
382.428	13.94
382.636	13.83
382.845	13.37
383.053	13.43
383.261	13.38
383.469	13.3
383.678	14.03
383.886	13.47
384.094	13.32
384.302	13.86
384.511	13.74
384.719	13.18
384.927	13.06
385.135	13.29
385.343	13.51
385.552	13.81
385.76	14.09
385.968	13.35
386.176	13.62
386.384	13.74
386.592	13.64
386.8	13.44
387.008	13.71
387.216	13.78
387.424	14.09
387.633	13.91
387.841	13.95
388.049	13.28
388.257	13.39
388.465	13.34
388.672	13.37
388.88	12.95
389.088	12.86
389.296	12.59
389.504	12.35
389.712	11.85
389.92	11.47
390.128	10.87
390.336	11.18
390.544	11.36
390.751	11.21
390.959	11.3
391.167	11.14
391.375	11.11
391.583	11.25
391.79	11.23
391.998	11.16
392.206	11.09
392.414	11.16
392.621	10.79
392.829	10.66
393.037	10.4
393.244	10.19
393.452	10.5
393.66	10.33
393.867	10.21
394.075	10.38
394.283	10.33
394.49	10.5
394.698	10.51
394.905	11.05
395.113	10.9
395.32	11.14
395.528	11.26
395.735	11.29
395.943	11.41
396.15	11.28
396.358	11.17
396.565	11.45
396.773	11.31
396.98	11.22
397.188	10.83
397.395	11.11
397.602	11.19
397.81	11.28
398.017	10.76
398.225	10.23
398.432	10.1
398.639	10.02
398.847	9.61
399.054	9.45
399.261	9.2
399.468	9.55
399.676	9.43
399.883	9.2
400.09	8.53
400.297	8.92
400.505	8.95
400.712	8.86
400.919	8.63
401.126	8.54
401.333	8.51
401.54	8.54
401.748	8.47
401.955	8.26
402.162	8.41
402.369	8.84
402.576	8.62
402.783	9.12
402.99	9.04
403.197	8.95
403.404	8.77
403.611	9.08
403.818	9.29
404.025	9.12
404.232	9.17
404.439	8.95
404.646	8.56
404.853	8.49
405.06	8.4
405.267	8.47
405.474	8.45
405.681	8.68
405.887	8.59
406.094	8.47
406.301	8.37
406.508	8.41
406.715	8.61
406.922	8.91
407.128	9.21
407.335	8.88
407.542	8.79
407.749	8.97
407.955	8.75
408.162	8.35
408.369	8.09
408.575	8.05
408.782	8.18
408.989	8.26
409.195	8.07
409.402	7.48
409.609	7.67
409.815	7.71
410.022	7.62
410.228	7.84
410.435	8.07
410.642	8.21
410.848	8.2
411.055	8.26
411.261	8.07
411.468	8.05
411.674	8.48
411.881	8.5
412.087	8.63
412.294	8.7
412.5	8.82
412.706	8.85
412.913	9.06
413.119	9.12
413.326	8.89
413.532	8.82
413.738	8.82
413.945	8.54
414.151	8.33
414.357	8.28
414.564	8.12
414.77	7.86
414.976	7.85
415.182	7.64
415.389	7.11
415.595	6.9
415.801	6.71
416.007	6.62
416.214	6.43
416.42	6.56
416.626	6.46
416.832	6.41
417.038	6.6
417.244	6.57
417.45	6.55
417.657	7.06
417.863	7.13
418.069	7.13
418.275	7.3
418.481	7.41
418.687	7.45
418.893	7.55
419.099	7.79
419.305	7.44
419.511	7.47
419.717	7.61
419.923	7.37
420.129	7.29
420.335	7.51
420.541	7.53
420.746	7.43
420.952	7.23
421.158	7.12
421.364	6.93
421.57	6.96
421.776	6.92
421.982	6.7
422.187	6.67
422.393	6.68
422.599	6.58
422.805	6.42
423.01	6.52
423.216	6.54
423.422	6.46
423.628	6.38
423.833	6.37
424.039	6.31
424.245	6.4
424.45	6.54
424.656	6.68
424.862	6.53
425.067	6.63
425.273	6.6
425.478	6.61
425.684	6.69
425.889	6.78
426.095	6.96
426.301	7.01
426.506	7.22
426.712	7.12
426.917	7.04
427.123	7.1
427.328	7
427.533	7.04
427.739	7.04
427.944	7.08
428.15	7.12
428.355	7.08
428.561	6.97
428.766	6.85
428.971	7.11
429.177	7.13
429.382	7.24
429.587	7.27
429.793	7.2
429.998	7.32
430.203	7.1
430.408	7.19
430.614	7.12
430.819	7.18
431.024	7.14
431.229	7.03
431.434	6.99
431.64	7.16
431.845	7.22
432.05	7.44
432.255	7.38
432.46	7.43
432.665	7.16
432.87	7.16
433.076	7.16
433.281	7.19
433.486	7.1
433.691	7.09
433.896	6.9
434.101	6.86
434.306	6.72
434.511	6.76
434.716	6.83
434.921	7.05
435.126	7.13
435.331	7.04
435.535	6.82
435.74	6.83
435.945	6.69
436.15	6.99
436.355	6.92
436.56	6.93
436.765	6.82
436.97	6.73
437.174	6.76
437.379	6.74
437.584	6.84
437.789	6.91
437.993	6.96
438.198	7.02
438.403	6.76
438.608	6.61
438.812	6.38
439.017	6.61
439.222	6.7
439.426	6.64
439.631	6.6
439.836	6.7
440.04	6.5
440.245	6.27
440.45	6.25
440.654	6.37
440.859	6.52
441.063	6.73
441.268	6.61
441.472	6.57
441.677	6.57
441.881	6.65
442.086	6.62
442.29	6.89
442.495	6.98
442.699	7.02
442.904	6.71
443.108	6.65
443.312	6.59
443.517	6.54
443.721	6.65
443.925	6.49
444.13	6.39
444.334	6.08
444.538	5.9
444.743	6
444.947	5.93
445.151	6.05
445.356	6.12
445.56	6.11
445.764	6.23
445.968	6.15
446.173	6.25
446.377	6.24
446.581	6.33
446.785	6.39
446.989	6.33
447.193	6.43
447.398	6.39
447.602	6.35
447.806	6.34
448.01	6.2
448.214	6.25
448.418	6.16
448.622	6.12
448.826	6.19
449.03	6.32
449.234	6.3
449.438	6.15
449.642	6.38
449.846	6.52
450.05	6.62
450.254	6.51
450.458	6.5
450.662	6.62
450.866	6.62
451.069	6.7
451.273	6.49
451.477	6.52
451.681	6.56
451.885	6.38
452.089	6.16
452.292	6.04
452.496	6.27
452.7	6.28
452.904	6.27
453.107	6.36
453.311	6.31
453.515	6.5
453.719	6.6
453.922	6.62
454.126	6.58
454.33	6.65
454.533	6.83
454.737	6.94
454.94	6.93
455.144	6.87
455.348	6.97
455.551	7
455.755	6.78
455.958	6.84
456.162	6.77
456.365	7.03
456.569	7.21
456.772	7.19
456.976	6.79
457.179	6.62
457.383	6.61
457.586	6.45
457.79	6.42
457.993	6.25
458.196	6.14
458.4	6.08
458.603	5.89
458.807	5.85
459.01	5.75
459.213	5.83
459.417	5.96
459.62	6.03
459.823	5.98
460.026	5.89
460.23	6.02
460.433	5.96
460.636	6
460.839	6.11
461.042	6.02
461.246	5.99
461.449	6.02
461.652	5.98
461.855	5.92
462.058	6.01
462.261	6
462.464	6.01
462.668	6.04
462.871	6.1
463.074	5.92
463.277	6.07
463.48	6.03
463.683	6.11
463.886	6.08
464.089	6.26
464.292	6.36
464.495	6.27
464.698	6.38
464.901	6.38
465.104	6.52
465.306	6.53
465.509	6.52
465.712	6.66
465.915	6.55
466.118	6.49
466.321	6.4
466.524	6.28
466.726	6.25
466.929	6.12
467.132	6.09
467.335	5.92
467.538	6.05
467.74	6.09
467.943	6.13
468.146	6.14
468.348	6.07
468.551	5.85
468.754	6.08
468.956	6.25
469.159	6.32
469.362	6.37
469.564	6.52
469.767	6.44
469.969	6.32
470.172	6.19
470.375	6.25
470.577	6.5
470.78	6.65
470.982	6.27
471.185	6.32
471.387	6.35
471.59	6.34
471.792	6.2
471.995	6.2
472.197	6.38
472.399	6.03
472.602	6.02
472.804	6.03
473.007	6.02
473.209	6.12
473.411	6.09
473.614	6
473.816	5.9
474.018	6.04
474.22	6.09
474.423	5.99
474.625	6.2
474.827	6.41
475.03	6.35
475.232	6.4
475.434	6.44
475.636	6.39
475.838	6.47
476.04	6.49
476.243	6.28
476.445	6.25
476.647	6.18
476.849	6.46
477.051	6.34
477.253	6.37
477.455	6.35
477.657	6.39
477.859	6.44
478.061	6.51
478.263	6.53
478.465	6.68
478.667	6.59
478.869	6.64
479.071	6.51
479.273	6.59
479.475	6.47
479.677	6.51
479.879	6.45
480.081	6.47
480.283	6.45
480.485	6.63
480.686	6.51
480.888	6.61
481.09	6.68
481.292	6.66
481.494	6.59
481.695	6.59
481.897	6.5
482.099	6.4
482.301	6.27
482.502	6.19
482.704	6.16
482.906	6.1
483.107	6.04
483.309	5.87
483.511	5.84
483.712	5.82
483.914	5.83
484.115	5.84
484.317	5.78
484.519	5.78
484.72	5.8
484.922	5.69
485.123	5.74
485.325	5.73
485.526	5.82
485.728	5.87
485.929	5.81
486.131	5.82
486.332	5.79
486.534	5.88
486.735	5.86
486.936	5.82
487.138	5.83
487.339	5.77
487.541	5.79
487.742	5.8
487.943	5.74
488.144	5.77
488.346	5.71
488.547	5.78
488.748	5.72
488.95	5.74
489.151	5.67
489.352	5.81
489.553	5.84
489.755	5.85
489.956	5.74
490.157	5.72
490.358	5.8
490.559	5.86
490.76	5.78
490.961	5.79
491.163	5.81
491.364	5.89
491.565	5.87
491.766	5.93
491.967	5.94
492.168	6.01
492.369	5.98
492.57	5.88
492.771	5.8
492.972	5.81
493.173	5.8
493.374	5.88
493.575	5.82
493.776	5.69
493.976	5.65
494.177	5.62
494.378	5.61
494.579	5.76
494.78	5.91
494.981	5.93
495.182	5.97
495.382	6.28
495.583	6.19
495.784	6.29
495.985	6.34
496.185	6.24
496.386	6.35
496.587	6.26
496.788	6.28
496.988	6.15
497.189	6.25
497.39	6.39
497.59	6.24
497.791	6.38
497.992	6.46
498.192	6.51
498.393	6.48
498.593	6.38
498.794	6.46
498.994	6.41
499.195	6.56
499.395	6.65
499.596	6.56
499.796	6.62
499.997	6.7
500.197	6.84
500.398	6.98
500.598	7.16
500.799	7.2
500.999	7.18
501.199	7.13
501.4	7.19
501.6	7.09
501.801	6.98
502.001	7.01
502.201	6.88
502.402	6.66
502.602	6.71
502.802	6.71
503.002	6.8
503.203	6.88
503.403	7
503.603	7.05
503.803	7.42
504.003	7.49
504.204	7.59
504.404	7.74
504.604	7.74
504.804	7.8
505.004	8
505.204	8.06
505.404	8.07
505.604	7.99
505.804	8.02
506.005	7.93
506.205	8.05
506.405	8.1
506.605	8.04
506.805	8.3
507.005	8.26
507.204	8.09
507.404	8.2
507.604	8.33
507.804	8.55
508.004	8.56
508.204	8.55
508.404	8.71
508.604	8.69
508.804	8.79
509.003	8.88
509.203	8.98
509.403	9.12
509.603	9.14
509.803	9.14
510.002	9.17
510.202	9.31
510.402	9.43
510.602	9.45
510.801	9.49
511.001	9.61
511.201	9.62
511.4	9.62
511.6	9.79
511.8	9.88
511.999	10.13
512.199	10.31
512.398	10.4
512.598	10.62
512.797	10.71
512.997	10.93
513.197	11.04
513.396	11.15
513.596	11.23
513.795	11.33
513.994	11.5
514.194	11.47
514.393	11.38
514.593	11.36
514.792	11.29
514.992	11.38
515.191	11.43
515.39	11.44
515.59	11.66
515.789	11.8
515.988	11.91
516.188	11.93
516.387	12.16
516.586	12.47
516.786	12.62
516.985	12.83
517.184	12.88
517.383	13.09
517.582	13.25
517.782	13.24
517.981	13.32
518.18	13.32
518.379	13.47
518.578	13.58
518.777	13.62
518.976	13.72
519.176	13.73
519.375	13.91
519.574	14.01
519.773	14.07
519.972	14.2
520.171	14.39
520.37	14.68
520.569	14.78
520.768	14.85
520.967	15.12
521.166	15.27
521.365	15.47
521.564	15.6
521.762	15.61
521.961	15.85
522.16	15.92
522.359	15.97
522.558	16.03
522.757	15.99
522.956	16.17
523.154	16.23
523.353	16.43
523.552	16.59
523.751	16.66
523.949	16.84
524.148	16.88
524.347	16.97
524.546	17.18
524.744	17.18
524.943	17.4
525.142	17.42
525.34	17.42
525.539	17.58
525.737	17.65
525.936	17.79
526.135	17.94
526.333	18.06
526.532	18.14
526.73	18.16
526.929	18.4
527.127	18.56
527.326	18.72
527.524	18.9
527.723	19.01
527.921	19.08
528.12	19.11
528.318	19.09
528.516	19.11
528.715	19.2
528.913	19.25
529.112	19.26
529.31	19.22
529.508	19.23
529.707	19.23
529.905	19.19
530.103	19.21
530.301	19.22
530.5	19.31
530.698	19.48
530.896	19.6
531.094	19.78
531.293	19.92
531.491	20.2
531.689	20.37
531.887	20.54
532.085	20.74
532.283	20.85
532.481	21.08
532.68	21.24
532.878	21.31
533.076	21.48
533.274	21.53
533.472	21.6
533.67	21.67
533.868	21.82
534.066	21.96
534.264	22.04
534.462	22.2
534.66	22.3
534.858	22.44
535.056	22.62
535.253	22.69
535.451	22.75
535.649	22.79
535.847	22.91
536.045	22.97
536.243	23
536.441	23.07
536.638	23.22
536.836	23.31
537.034	23.26
537.232	23.24
537.43	23.25
537.627	23.42
537.825	23.64
538.023	23.58
538.22	23.63
538.418	23.67
538.616	23.65
538.813	23.72
539.011	23.77
539.209	23.89
539.406	24.03
539.604	24.27
539.801	24.28
539.999	24.29
540.196	24.48
540.394	24.49
540.591	24.65
540.789	24.83
540.986	24.76
541.184	24.74
541.381	24.86
541.579	24.95
541.776	24.95
541.974	24.95
542.171	25
542.368	25.1
542.566	25.16
542.763	25.26
542.96	25.27
543.158	25.48
543.355	25.63
543.552	25.7
543.75	25.83
543.947	25.91
544.144	26.17
544.341	26.33
544.539	26.38
544.736	26.42
544.933	26.4
545.13	26.62
545.327	26.65
545.524	26.7
545.722	26.76
545.919	26.71
546.116	26.69
546.313	26.72
546.51	26.7
546.707	26.83
546.904	26.98
547.101	27.09
547.298	26.94
547.495	26.98
547.692	27.08
547.889	27
548.086	27.24
548.283	27.3
548.48	27.41
548.677	27.49
548.874	27.43
549.07	27.57
549.267	27.66
549.464	28.01
549.661	28.23
549.858	28.41
550.055	28.67
550.251	28.5
550.448	28.79
550.645	28.98
550.842	28.85
551.038	28.99
551.235	29.13
551.432	29.18
551.628	29.15
551.825	29.05
552.022	28.98
552.218	28.89
552.415	29.1
552.612	28.93
552.808	28.8
553.005	29.14
553.201	29.15
553.398	29.14
553.594	29.34
553.791	29.39
553.987	29.48
554.184	29.62
554.38	29.81
554.577	29.89
554.773	30.12
554.97	30.33
555.166	30.15
555.362	30.25
555.559	30.43
555.755	30.25
555.952	30.38
556.148	30.74
556.344	30.65
556.541	30.57
556.737	30.54
556.933	30.72
557.129	30.73
557.326	30.8
557.522	30.83
557.718	30.7
557.914	30.89
558.11	31.02
558.307	30.79
558.503	30.92
558.699	31.15
558.895	30.96
559.091	30.78
559.287	30.88
559.483	31.08
559.679	31.15
559.876	31.3
560.072	31.32
560.268	31.08
560.464	30.93
560.66	30.87
560.856	31.05
561.052	31.04
561.247	31.17
561.443	31.06
561.639	31.16
561.835	31.29
562.031	31.3
562.227	31.18
562.423	31.19
562.619	31.33
562.815	31.35
563.01	31.14
563.206	31.37
563.402	31.46
563.598	31.62
563.793	31.42
563.989	31.23
564.185	31.29
564.381	31.53
564.576	31.74
564.772	31.63
564.968	31.66
565.163	31.73
565.359	31.77
565.555	31.89
565.75	31.73
565.946	31.87
566.141	32.12
566.337	32.03
566.532	32.14
566.728	32.01
566.923	32.19
567.119	32.44
567.314	32.61
567.51	32.63
567.705	32.38
567.901	32.45
568.096	32.59
568.292	32.43
568.487	32.46
568.682	32.48
568.878	32.6
569.073	32.77
569.268	32.61
569.464	32.65
569.659	32.6
569.854	32.81
570.05	33.08
570.245	33.06
570.44	33.03
570.635	33.28
570.831	33.17
571.026	33.28
571.221	33.31
571.416	33.33
571.611	33.17
571.806	33.38
572.002	33.31
572.197	33.23
572.392	33.21
572.587	33.48
572.782	33.24
572.977	33.33
573.172	33.24
573.367	33.2
573.562	33.25
573.757	33.4
573.952	33.28
574.147	33.47
574.342	33.56
574.537	33.67
574.732	33.51
574.927	33.87
575.121	33.82
575.316	33.93
575.511	33.98
575.706	34.03
575.901	34.04
576.096	34.14
576.29	34.32
576.485	34.37
576.68	34.27
576.875	34.62
577.069	34.51
577.264	34.66
577.459	34.85
577.654	34.94
577.848	35.06
578.043	35.29
578.238	35.56
578.432	35.51
578.627	35.52
578.821	35.89
579.016	35.68
579.21	35.63
579.405	35.61
579.6	35.46
579.794	35.31
579.989	35.3
580.183	35.01
580.378	35.01
580.572	34.98
580.766	35.03
580.961	35.06
581.155	35.14
581.35	35.23
581.544	35.28
581.738	35.18
581.933	35.39
582.127	35.39
582.321	35.38
582.516	34.76
582.71	34.73
582.904	34.71
583.099	34.45
583.293	34.53
583.487	34.58
583.681	34.58
583.875	34.73
584.07	34.66
584.264	34.89
584.458	34.92
584.652	35.36
584.846	35.18
585.04	35.42
585.234	35.7
585.428	35.77
585.623	35.75
585.817	35.84
586.011	35.81
586.205	35.88
586.399	35.77
586.593	36
586.787	36.1
586.981	36.12
587.174	35.97
587.368	35.75
587.562	35.63
587.756	35.69
587.95	35.56
588.144	35.91
588.338	35.83
588.532	35.89
588.725	35.9
588.919	35.87
589.113	36.19
589.307	36.07
589.501	36.1
589.694	36.19
589.888	36.09
590.082	36.21
590.275	36.22
590.469	36.21
590.663	36.18
590.856	36.13
591.05	36.17
591.244	36.05
591.437	36
591.631	36.19
591.824	36.27
592.018	36.65
592.212	36.62
592.405	36.38
592.599	36.56
592.792	36.55
592.986	36.76
593.179	36.81
593.372	36.83
593.566	36.86
593.759	36.68
593.953	36.54
594.146	36.36
594.339	36.35
594.533	36.37
594.726	36.41
594.92	36.36
595.113	36.18
595.306	36.15
595.499	36.11
595.693	36.29
595.886	36.43
596.079	36.52
596.272	36.39
596.466	36.42
596.659	36.5
596.852	36.53
597.045	36.64
597.238	36.62
597.431	36.56
597.624	36.74
597.818	36.81
598.011	36.81
598.204	37.06
598.397	37.25
598.59	37.25
598.783	37.37
598.976	37.3
599.169	37.23
599.362	37.45
599.555	37.72
599.748	37.44
599.941	37.37
600.134	37.4
600.326	37.16
600.519	37.21
600.712	37.33
600.905	37.12
601.098	37.32
601.291	37.42
601.483	37.43
601.676	37.24
601.869	37.48
602.062	37.23
602.255	37.31
602.447	37.48
602.64	37.56
602.833	37.65
603.025	37.79
603.218	37.62
603.411	37.79
603.603	37.53
603.796	37.53
603.989	37.7
604.181	37.88
604.374	37.79
604.566	37.68
604.759	37.84
604.951	37.87
605.144	37.74
605.336	37.9
605.529	37.62
605.721	38
605.914	37.98
606.106	37.71
606.299	37.91
606.491	38.03
606.683	38.09
606.876	37.82
607.068	37.71
607.26	37.98
607.453	37.81
607.645	37.84
607.837	37.68
608.03	37.64
608.222	37.69
608.414	37.52
608.606	37.42
608.799	37.57
608.991	37.58
609.183	37.88
609.375	37.74
609.567	37.73
609.759	37.92
609.952	38.11
610.144	38.27
610.336	38.53
610.528	38.53
610.72	38.79
610.912	38.92
611.104	39.09
611.296	39.03
611.488	39.05
611.68	39.15
611.872	39.44
612.064	39.24
612.256	39.2
612.448	39.06
612.64	39.23
612.832	38.81
613.023	38.43
613.215	38.16
613.407	37.99
613.599	38.15
613.791	37.98
613.983	38.11
614.174	38.25
614.366	38.47
614.558	38.6
614.75	38.32
614.941	38.9
615.133	38.94
615.325	39.31
615.516	39.45
615.708	39.6
615.9	39.79
616.091	39.47
616.283	39.45
616.475	39.34
616.666	39.35
616.858	39.59
617.049	39.46
617.241	39.47
617.432	39.08
617.624	39.18
617.815	38.94
618.007	39.07
618.198	39.18
618.39	39.24
618.581	39.2
618.773	39.3
618.964	39.2
619.155	38.81
619.347	38.94
619.538	39.33
619.729	38.94
619.921	39.02
620.112	39.02
620.303	38.76
620.494	38.85
620.686	38.96
620.877	38.69
621.068	38.95
621.259	39.27
621.451	39.21
621.642	38.99
621.833	39.68
622.024	39.88
622.215	39.78
622.406	40.14
622.597	39.67
622.788	39.84
622.98	39.96
623.171	39.65
623.362	39.53
623.553	39.49
623.744	39.43
623.935	39.05
624.126	38.49
624.317	38.56
624.508	38.14
624.698	38.28
624.889	38.35
625.08	38.18
625.271	38.38
625.462	38.44
625.653	38.35
625.844	38.52
626.034	38.46
626.225	38.83
626.416	38.76
626.607	38.91
626.798	38.91
626.988	38.69
627.179	38.59
627.37	38.41
627.56	38.7
627.751	38.79
627.942	38.65
628.132	38.64
628.323	38.64
628.514	38.87
628.704	38.83
628.895	38.75
629.085	38.97
629.276	39.35
629.466	39.51
629.657	39.42
629.847	39.48
630.038	39.67
630.228	39.78
630.419	39.63
630.609	39.55
630.8	39.78
630.99	40.13
631.181	39.95
631.371	39.74
631.561	39.85
631.752	39.74
631.942	39.96
632.132	39.93
632.323	39.69
632.513	40.25
632.703	40.46
632.893	40.31
633.084	40.05
633.274	40.11
633.464	40.1
633.654	40.1
633.844	40.09
634.034	40.03
634.225	40.19
634.415	40.28
634.605	40.13
634.795	40.14
634.985	40.24
635.175	40.46
635.365	40.52
635.555	40.56
635.745	40.59
635.935	40.55
636.125	40.55
636.315	40.39
636.505	40.34
636.695	40.19
636.885	40.2
637.075	40.34
637.265	40.22
637.455	40.4
637.644	40.71
637.834	40.36
638.024	40.1
638.214	39.83
638.404	39.93
638.593	40.31
638.783	39.87
638.973	39.63
639.163	39.54
639.352	39.71
639.542	39.52
639.732	39.17
639.921	39.45
640.111	39.87
640.301	40.1
640.49	40.39
640.68	40.62
640.87	41.02
641.059	41.16
641.249	41.07
641.438	40.72
641.628	40.44
641.817	40.64
642.007	40.59
642.196	40.48
642.386	40.6
642.575	40.09
642.764	39.67
642.954	40.04
643.143	39.79
643.333	39.76
643.522	40.15
643.711	40.52
643.901	40.59
644.09	40.62
644.279	40.83
644.469	40.77
644.658	40.96
644.847	41.23
645.036	41.28
645.226	41.37
645.415	40.84
645.604	40.67
645.793	40.47
645.982	40.54
646.171	40.6
646.361	40.53
646.55	40.48
646.739	40.5
646.928	40.42
647.117	39.95
647.306	39.91
647.495	40.86
647.684	40.91
647.873	41.17
648.062	41.36
648.251	41.15
648.44	41.07
648.629	41.28
648.818	41.16
649.007	40.62
649.196	40.45
649.384	40.36
649.573	40.04
649.762	39.93
649.951	40.29
650.14	39.92
650.328	40.49
650.517	40.68
650.706	40.76
650.895	41.1
651.083	41.37
651.272	41.57
651.461	41.9
651.65	42.18
651.838	42.17
652.027	41.61
652.216	41.9
652.404	41.64
652.593	41.55
652.781	41.24
652.97	40.83
653.158	40.93
653.347	41.26
653.535	41.01
653.724	40.59
653.912	40.78
654.101	41.33
654.289	40.96
654.478	41.18
654.666	40.81
654.855	40.95
655.043	41.03
655.231	40.92
655.42	40.31
655.608	40.51
655.796	40.43
655.985	40.15
656.173	39.71
656.361	40.02
656.55	39.58
656.738	40.3
656.926	40.22
657.114	40.08
657.302	40.16
657.491	40.82
657.679	40.51
657.867	40.9
658.055	41.24
658.243	41.26
658.431	41.24
658.619	41.59
658.807	41.05
658.996	41
659.184	41.07
659.372	40.97
659.56	40.82
659.748	40.82
659.936	40.48
660.124	40.46
660.311	40.35
660.499	40.05
660.687	39.73
660.875	39.69
661.063	39.83
661.251	39.86
661.439	40.35
661.627	40.07
661.814	40.66
662.002	41.09
662.19	40.83
662.378	41.12
662.565	41.43
662.753	41.39
662.941	41.65
663.129	41.6
663.316	42.06
663.504	41.34
663.692	41.51
663.879	41.12
664.067	40.65
664.254	40.87
664.442	40.78
664.63	40.76
664.817	41.16
665.005	41.15
665.192	41.46
665.38	41.31
665.567	41.77
665.755	41.85
665.942	42.09
666.13	42.06
666.317	41.97
666.504	42.06
666.692	42.03
666.879	41.6
667.067	41.63
667.254	41.15
667.441	41.31
667.629	41.39
667.816	41.5
668.003	41.44
668.19	41.57
668.378	42.04
668.565	42.17
668.752	42
668.939	42.63
669.127	42.29
669.314	42.61
669.501	42.53
669.688	42.59
669.875	42.83
670.062	42.62
670.249	42.82
670.436	42.51
670.623	42.21
670.81	42.54
670.997	42.6
671.184	42.81
671.371	42.67
671.558	42.24
671.745	42.15
671.932	41.84
672.119	42.06
672.306	41.91
672.493	41.95
672.68	41.54
672.867	41.6
673.054	41.2
673.24	41.2
673.427	41.36
673.614	41.7
673.801	41.86
673.988	42.51
674.174	42.22
674.361	42.54
674.548	42.75
674.734	43.25
674.921	43.41
675.108	43.15
675.294	43.25
675.481	42.84
675.668	42.9
675.854	42.6
676.041	42.12
676.227	42.18
676.414	41.5
676.601	40.73
676.787	40.79
676.974	40.41
677.16	41
677.347	41.29
677.533	42.08
677.719	41.84
677.906	41.62
678.092	41.55
678.279	41.75
678.465	42.25
678.651	42.84
678.838	43.29
679.024	43.15
679.21	42.73
679.397	42.62
679.583	42.31
679.769	42.26
679.955	42.2
680.142	41.99
680.328	41.71
680.514	41.76
680.7	41.99
680.886	41.83
681.073	41.82
681.259	42.06
681.445	41.91
681.631	41.89
681.817	42.22
682.003	42.6
682.189	42.85
682.375	42.92
682.561	42.92
682.747	42.52
682.933	41.89
683.119	42.09
683.305	42.18
683.491	42.24
683.677	42.13
683.863	41.57
684.049	41.54
684.235	41.59
684.42	42.15
684.606	42.3
684.792	42.44
684.978	43.01
685.164	42.6
685.349	42.28
685.535	41.88
685.721	42.39
685.907	42.16
686.092	42.19
686.278	41.82
686.464	41.58
686.649	41.52
686.835	41.56
687.021	41.34
687.206	42.23
687.392	42.32
687.577	42.89
687.763	42.46
687.948	42.87
688.134	42.64
688.319	42.44
688.505	42.27
688.69	41.87
688.876	41.66
689.061	41.54
689.247	40.96
689.432	41.2
689.618	41.17
689.803	41.68
689.988	41.85
690.174	42.04
690.359	42.32
690.544	42.17
690.73	42.71
690.915	43.15
691.1	43.13
691.285	43.59
691.471	43.72
691.656	43.98
691.841	43.6
692.026	43.44
692.211	43.65
692.396	43.82
692.582	44.31
692.767	44.31
692.952	43.89
693.137	43.65
693.322	43.22
693.507	42.88
693.692	42.08
693.877	41.84
694.062	42.15
694.247	41.7
694.432	41.69
694.617	41.67
694.802	40.75
694.987	40.76
695.172	41.17
695.357	41.94
695.541	41.85
695.726	42.91
695.911	43.17
696.096	43.62
696.281	43.58
696.466	44.11
696.65	44.01
696.835	44.39
697.02	44.87
697.204	44.95
697.389	44.62
697.574	44.52
697.759	43.86
697.943	43.58
698.128	42.92
698.312	42.98
698.497	42.48
698.682	42.2
698.866	42.41
699.051	41.94
699.235	41.74
699.42	41.5
699.604	41.63
699.789	41.86
699.973	42.18
700.158	42.23
700.342	42.69
700.527	42.89
700.711	43.34
700.895	43.88
701.08	43.68
701.264	44.51
701.448	44.59
701.633	44.38
701.817	44.21
702.001	43.7
702.186	44.27
702.37	43.9
702.554	44.25
702.738	44.04
702.923	42.78
703.107	43.52
703.291	42.86
703.475	42.77
703.659	43.19
703.843	44.08
704.027	44.51
704.212	44.47
704.396	44.42
704.58	43.85
704.764	43.49
704.948	45.22
705.132	45.08
705.316	44.83
705.5	44.79
705.684	44.82
705.868	43.98
706.052	44.26
706.235	43.52
706.419	43.94
706.603	44.07
706.787	44.43
706.971	43.55
707.155	43.43
707.339	43.6
707.522	44.2
707.706	44.12
707.89	44.3
708.074	44.29
708.257	45.23
708.441	44.96
708.625	45.11
708.808	45.35
708.992	45.29
709.176	45.54
709.359	45.29
709.543	45.13
709.727	44.76
709.91	45
710.094	44.69
710.277	44.54
710.461	44.37
710.644	44.03
710.828	43.57
711.011	43.8
711.195	43.34
711.378	43.45
711.562	42.98
711.745	43.47
711.928	43.41
712.112	43.41
712.295	42.75
712.478	42.43
712.662	42.21
712.845	42.14
713.028	42.2
713.212	42.46
713.395	42.34
713.578	42.71
713.761	42.16
713.945	41.93
714.128	42.4
714.311	43.23
714.494	43.57
714.677	43.87
714.86	44.66
715.043	44.24
715.227	44.75
715.41	44.55
715.593	43.91
715.776	43.95
715.959	43.42
716.142	43.36
716.325	42.83
716.508	43.49
716.691	44.02
716.874	44.23
717.057	43.92
717.239	43.86
717.422	43.81
717.605	44.42
717.788	44.22
717.971	45.06
718.154	44.26
718.337	44.34
718.519	43.5
718.702	43.38
718.885	43.34
719.068	43.89
719.25	43.66
719.433	44.73
719.616	45.16
719.798	45.6
719.981	44.52
720.164	44.15
720.346	44.32
720.529	44.74
720.712	44.35
720.894	43.23
721.077	42.82
721.259	42.76
721.442	42.62
721.624	41.95
721.807	42.21
721.989	44.49
722.172	45.25
722.354	45.19
722.537	45.74
722.719	46.26
722.901	45.94
723.084	45.31
723.266	44.75
723.448	44.65
723.631	44.71
723.813	44.7
723.995	43.51
724.178	43.7
724.36	43.59
724.542	43.68
724.724	43
724.907	43.71
725.089	44.22
725.271	45.58
725.453	45.44
725.635	45.31
725.817	44.83
725.999	45.04
726.181	44.5
726.364	45
726.546	43.88
726.728	44.95
726.91	45.19
727.092	45.21
727.274	44.66
727.456	43.72
727.638	44.79
727.819	45.86
728.001	45.52
728.183	45.68
728.365	45.51
728.547	46.37
728.729	45.99
728.911	45.3
729.093	45.11
729.274	45.34
729.456	46.38
729.638	45.26
729.82	44.06
730.001	43.22
730.183	44.08
730.365	45.13
730.546	44.81
730.728	45.45
730.91	45.98
731.091	46.83
731.273	46.4
731.455	45.14
731.636	45.79
731.818	46.57
731.999	47.14
732.181	45.84
732.362	44.76
732.544	44.47
732.725	43.47
732.907	43.24
733.088	43.21
733.27	43.49
733.451	44.76
733.633	44.31
733.814	43.68
733.995	43.15
734.177	43.62
734.358	42.32
734.539	43.02
734.721	43.46
734.902	44.2
735.083	44.4
735.264	44.45
735.446	45.09
735.627	45.2
735.808	45.51
735.989	46.65
736.17	46.16
736.351	47.72
736.533	47.24
736.714	46.68
736.895	46.31
737.076	45.56
737.257	45.39
737.438	44.03
737.619	44.83
737.8	44.9
737.981	44
738.162	44.55
738.343	45.17
738.524	45.2
738.705	46.2
738.886	45.54
739.067	46.85
739.247	46.86
739.428	47.61
739.609	47.43
739.79	47.89
739.971	49.89
740.151	50.25
740.332	49.96
740.513	49.9
740.694	48.95
740.874	49.24
741.055	48.04
741.236	48.57
741.417	47.66
741.597	46.96
741.778	47.17
741.958	45.72
742.139	45.56
742.32	44.83
742.5	44.93
742.681	44.4
742.861	43.6
743.042	43.99
743.222	44
743.403	44.96
743.583	45.94
743.764	44.52
743.944	43.84
744.124	44.85
744.305	45.2
744.485	44.69
744.666	44.45
744.846	45.49
745.026	46.29
745.207	46.02
745.387	44.46
745.567	43.57
745.747	44.33
745.928	45.23
746.108	43.86
746.288	44.07
746.468	44.25
746.648	44.94
746.829	44.52
747.009	44.32
747.189	43.88
747.369	44.66
747.549	45.82
747.729	46.09
747.909	43.92
748.089	44.2
748.269	44.53
748.449	44.15
748.629	44.85
748.809	44.59
748.989	44.88
749.169	44.93
749.349	46.06
749.529	44.81
749.709	44.71
749.889	46.46
750.068	46.1
750.248	45.2
750.428	44.8
750.608	44.33
750.788	44.15
750.967	43.86
751.147	43.26
751.327	42.59
751.507	44
751.686	44.33
751.866	44.42
752.046	44.69
752.225	45.43
752.405	46.46
752.585	47.1
752.764	48.19
752.944	47.78
753.123	48.53
753.303	49.01
753.482	47.87
753.662	46.99
753.841	48.32
754.021	48.3
754.2	47.63
754.38	47.57
754.559	47.16
754.739	44.96
754.918	44.58
755.097	44.39
755.277	42.5
755.456	43.68
755.635	43.47
755.815	41.8
755.994	41.49
756.173	42.41
756.352	42.53
756.532	41.44
756.711	43.34
756.89	43.71
757.069	44.07
757.248	45.45
757.427	44.2
757.607	46.29
757.786	46.38
757.965	47.55
758.144	46.91
758.323	46.64
758.502	46.88
758.681	48.13
758.86	48.32
759.039	47.64
759.218	47.46
759.397	48.34
759.576	48.19
759.755	47
759.934	46.44
760.113	47.38
760.291	47.01
760.47	47.97
760.649	46.64
760.828	46.48
761.007	46.65
761.186	45.87
761.364	44.66
761.543	42.9
761.722	44.51
761.901	43.84
762.079	42.8
762.258	43.28
762.437	42.17
762.615	42.53
762.794	42.77
762.972	42.03
763.151	42.44
763.33	42.25
763.508	42.39
763.687	41.83
763.865	42.72
764.044	42.36
764.222	42.07
764.401	43.44
764.579	43.55
764.758	42.93
764.936	43.25
765.114	44.1
765.293	44.62
765.471	45.41
765.65	45.57
765.828	44.73
766.006	44.64
766.184	44.86
766.363	44.3
766.541	43.2
766.719	44.53
766.898	45.73
767.076	45.85
767.254	46.46
767.432	46.94
767.61	47.17
767.788	48.93
767.967	49.74
768.145	49.36
768.323	49.17
768.501	50.32
768.679	49.36
768.857	48.73
769.035	48.66
769.213	48.01
769.391	48.5
769.569	48.18
769.747	46.96
769.925	46.34
770.103	46.68
770.281	46.66
770.459	46.14
770.636	45.79
770.814	44.97
770.992	44.26
771.17	43.73
771.348	42.26
771.525	44.04
771.703	43.19
771.881	43.6
772.059	44.77
772.236	44.97
772.414	45.69
772.592	44.66
772.769	45.84
772.947	45.19
773.125	47.55
773.302	47.33
773.48	45.98
773.657	45.75
773.835	44.55
774.013	44.35
774.19	44.74
774.368	44.38
774.545	46.01
774.723	46.1
774.9	46.72
775.077	46.6
775.255	47.62
775.432	46.61
775.61	49.58
775.787	52.27
775.964	50.99
776.142	50.98
776.319	50.52
776.496	49.02
776.674	49.42
776.851	48.52
777.028	47.2
777.205	46.6
777.382	48.13
777.56	45
777.737	43.94
777.914	45.34
778.091	44.78
778.268	44.72
778.445	46.44
778.622	46.13
778.8	47.12
778.977	47.78
779.154	47.13
779.331	47.97
779.508	48.44
779.685	49.35
779.862	49.08
780.038	49.52
780.215	50.12
780.392	49.63
780.569	48.93
780.746	48.61
780.923	47.74
781.1	48.62
781.277	46.11
781.453	46.14
781.63	44.05
781.807	43.95
781.984	43.13
782.16	42.62
782.337	43.9
782.514	44.07
782.691	44.31
782.867	44.43
783.044	42.46
783.221	43.77
783.397	42.43
783.574	43.31
783.75	42.44
783.927	42.84
784.103	42.7
784.28	43.86
784.456	44.34
784.633	44.52
784.809	45.63
784.986	46.59
785.162	46.95
785.339	47.51
785.515	46.72
785.692	48.03
785.868	48.17
786.044	50.03
786.221	46.54
786.397	47.8
786.573	47.55
786.749	45.38
786.926	46.07
787.102	47.37
787.278	46.72
787.454	46.55
787.631	45.36
787.807	44.39
787.983	43.34
788.159	43.85
788.335	43.16
788.511	42.55
788.687	44.62
788.863	45.15
789.039	43.49
789.216	45.11
789.392	45.22
789.568	46.06
789.744	48.7
789.919	46.85
790.095	46.65
790.271	46.47
790.447	47.6
790.623	45.89
790.799	44.53
790.975	45.13
791.151	46.97
791.327	48.65
791.502	48.04
791.678	47.56
791.854	49.35
792.03	50.57
792.205	50.13
792.381	49.3
792.557	51.45
792.733	51.82
792.908	52.7
793.084	52.54
793.259	51.98
793.435	51.94
793.611	51.36
793.786	52.32
793.962	52.02
794.137	51.75
794.313	50.59
794.488	48.12
794.664	49.14
794.839	48.38
795.015	47.55
795.19	48.45
795.366	49.38
795.541	49.48
795.716	48.45
795.892	48.19
796.067	47.31
796.242	48.5
796.418	48.97
796.593	49.6
796.768	50.35
796.944	50.64
797.119	49.62
797.294	50.61
797.469	48.75
797.644	48.89
797.82	48.49
797.995	48.99
798.17	49.46
798.345	51.49
798.52	48.57
798.695	47.62
798.87	45.32
799.045	45.33
799.22	44.49
799.395	45.3
799.57	45.14
799.745	45.15
799.92	45.93
800.095	46.05
800.27	46.48
800.445	47.64
800.62	48.26
800.795	48.41
800.97	47.62
801.145	45.06
801.319	47.4
801.494	49.15
801.669	47.31
801.844	47.44
802.018	46.74
802.193	44.17
802.368	44.92
802.543	43.79
802.717	45.33
802.892	44.09
803.067	46
803.241	44.02
803.416	41.85
803.59	43.53
803.765	42.22
803.94	40.64
804.114	38.63
804.289	38.82
804.463	38.63
804.638	39.47
804.812	39.18
804.986	40.45
805.161	39.13
805.335	41.03
805.51	42.05
805.684	44.12
805.858	46.13
806.033	50.07
806.207	51.32
806.381	53.41
806.556	50.64
806.73	53.14
806.904	51.19
807.078	55.32
807.253	55.14
807.427	52.54
807.601	53.01
807.775	56.36
807.949	54.06
808.123	53.03
808.298	50.62
808.472	53.26
808.646	52.74
808.82	55.32
808.994	53.64
809.168	54.37
809.342	59.1
809.516	58.33
809.69	54.28
809.864	54.39
810.038	51.6
810.212	53.64
810.385	52.72
810.559	53.43
810.733	49.84
810.907	49.16
811.081	47.02
811.255	45.4
811.428	45.84
811.602	46.67
811.776	44.45
811.95	47.26
812.123	45.04
812.297	46.55
812.471	45.4
812.644	48.23
812.818	48.21
812.992	51.32
813.165	50.96
813.339	49.74
813.512	51.3
813.686	53.69
813.86	54.05
814.033	55.79
814.207	56.38
814.38	58.26
814.554	61.63
814.727	61.49
814.9	59.1
815.074	58.58
815.247	59.46
815.421	56.7
815.594	56.23
815.767	57.91
815.941	54.36
816.114	51.26
816.287	46.91
816.46	43.14
816.634	45.72
816.807	46.34
816.98	49.24
817.153	50.92
817.327	54.54
817.5	57.2
817.673	53.56
817.846	56.27
818.019	57.31
818.192	60.62
818.365	62.26
818.538	63.38
818.711	64.25
818.884	60.5
819.057	57.46
819.23	54.99
819.403	55.93
819.576	53.78
819.749	51.36
819.922	49.39
820.095	46.82
820.268	45.26
820.441	42.71
820.614	42.89
820.786	44.01
820.959	44.74
821.132	43.94
821.305	42.8
821.477	43.91
821.65	44.82
821.823	44.56
821.996	45.52
822.168	45.38
822.341	44.83
822.514	43.88
822.686	43.73
822.859	43.97
823.031	44.19
823.204	44.06
823.376	43.88
823.549	43.9
823.722	44.02
823.894	43.33
824.067	43.13
824.239	43.33
824.411	43.46
824.584	43.28
824.756	42.41
824.929	42.49
825.101	41.42
825.273	41.24
825.446	40.25
825.618	40.55
825.79	40.45
825.963	40.82
826.135	40.62
826.307	40.16
826.479	40.6
826.652	40.77
826.824	40.68
826.996	42
827.168	42.77
827.34	44.67
827.512	44.75
827.684	45.28
827.856	44.8
828.029	46.9
828.201	47.05
828.373	46.98
828.545	47.46
828.717	47.9
828.889	47.48
829.061	47.34
829.232	47.41
829.404	47.53
829.576	48.45
829.748	49.49
829.92	47.45
830.092	48.46
830.264	48.21
830.436	48.61
830.607	48.46
830.779	50.56
830.951	51.11
831.123	48.62
831.294	49.68
831.466	49.99
831.638	49.18
831.809	51.64
831.981	52.87
832.153	54.32
832.324	54.69
832.496	52.49
832.667	51.8
832.839	51.22
833.011	53.09
833.182	50.15
833.354	47.78
833.525	47.39
833.697	46.52
833.868	46.68
834.039	46.31
834.211	45.73
834.382	48.25
834.554	48.55
834.725	47.77
834.896	45.41
835.068	46.79
835.239	46.84
835.41	48.72
835.581	47.86
835.753	48
835.924	46.44
836.095	45.1
836.266	43.67
836.438	41.33
836.609	41.86
836.78	44.75
836.951	45.53
837.122	46.85
837.293	45.88
837.464	44.66
837.635	44.18
837.806	47.14
837.977	49.81
838.148	50.46
838.319	54.31
838.49	55.27
838.661	54.12
838.832	50.78
839.003	52.42
839.174	49.38
839.345	49.67
839.516	46.99
839.687	45.13
839.857	44.56
840.028	45.97
840.199	46.18
840.37	46.72
840.54	49.12
840.711	50.52
840.882	47.56
841.053	47.93
841.223	51.97
841.394	56.07
841.564	51.88
841.735	53.64
841.906	50.84
842.076	50.45
842.247	49.15
842.417	48.37
842.588	52.53
842.758	54.81
842.929	56.54
843.099	50.49
843.27	49.63
843.44	56.13
843.611	53.9
843.781	54.31
843.951	49.61
844.122	51.13
844.292	53.13
844.462	48.87
844.633	47.05
844.803	46.14
844.973	54.93
845.144	53.83
845.314	49.42
845.484	47.18
845.654	49.08
845.824	51.89
845.995	50.28
846.165	48.46
846.335	52.23
846.505	54.36
846.675	60.76
846.845	58.75
847.015	66.96
847.185	72.69
847.355	73.29
847.525	75.81
847.695	66.78
847.865	63.45
848.035	65.9
848.205	57.83
848.375	58.69
848.545	57.61
848.715	46.76
848.884	37.83
849.054	40.91
849.224	40.5
849.394	38.98
849.564	51.33
849.733	54.8
849.903	55.37
850.073	58.13
850.243	59.63
850.412	53.4
850.582	58.68
850.752	60.08
850.921	56.88
851.091	54.25
851.26	47.26
851.43	43.67
851.599	42.34
851.769	43.11
851.939	50.96
852.108	44.05
852.278	53.6
852.447	53.71
852.616	53.19
852.786	51.28
852.955	55.18
853.125	66.46
853.294	67.35
853.463	65.65
853.633	64.79
853.802	55.51
853.971	62.27
854.141	51.87
854.31	50.12
854.479	57.36
854.648	62.63
854.818	71.77
854.987	68.03
855.156	64.49
855.325	69.74
855.494	66.06
855.663	70.05
855.832	74.81
856.001	79.47
856.171	83.2
856.34	75.87
856.509	72.49
856.678	67.84
856.847	66.7
857.016	70.99
857.185	65.61
857.353	66.29
857.522	67.2
857.691	57.52
857.86	57.1
858.029	63.51
858.198	70.64
858.367	70.71
858.535	60.73
858.704	64.26
858.873	67.71
859.042	80.43
859.21	82.19
859.379	77.67
859.548	78.02
859.717	71.56
859.885	66.95
860.054	64.38
860.222	70.23
860.391	76.51
860.56	74.25
860.728	67.09
860.897	65.58
861.065	63.47
861.234	63.37
861.402	65.09
861.571	73.56
861.739	75.52
861.908	78.19
862.076	71.05
862.244	68.99
862.413	67.1
862.581	71.09
862.749	71.21
862.918	71.65
863.086	74.31
863.254	76.38
863.423	71.09
863.591	59.02
863.759	58.58
863.927	54.95
864.096	57.02
864.264	57.41
864.432	60.93
864.6	57.59
864.768	49.18
864.936	33.83
865.104	30.75
865.272	27.38
865.44	25.75
865.608	14.55
865.776	27.34
865.944	22.99
866.112	28.04
866.28	27.65
866.448	26.58
866.616	37.27
866.784	50
866.952	53.59
867.12	52.22
867.288	58.08
867.455	69.35
867.623	61.5
867.791	68.6
867.959	75.3
868.127	70.06
868.294	74.91
868.462	83.92
868.63	88.17
868.797	85.51
868.965	86.11
869.133	84.12
869.3	80.25
869.468	90.93
869.636	86.66
869.803	75.23
869.971	88.91
870.138	84.14
870.306	76.14
870.473	73.44
870.641	77.47
870.808	76.49
870.975	75.48
871.143	76.81
871.31	77.81
871.478	86.13
871.645	92.96
871.812	82.29
871.98	91.94
872.147	107.04
872.314	112.38
872.482	107.12
872.649	94.74
872.816	92.84
872.983	96.73
873.15	93.71
873.318	76.3
873.485	76.45
873.652	80.9
873.819	70.91
873.986	62.77
874.153	63.82
874.32	64.96
874.487	64.91
874.654	65.99
874.821	67.72
874.988	59.53
875.155	62.02
875.322	52.56
875.489	58.59
875.656	65.12
875.823	72.45
875.99	72.05
876.157	70.8
876.324	70.9
876.49	70.28
876.657	69.46
876.824	76.09
876.991	79.07
877.157	89.01
877.324	93.37
877.491	71.34
877.658	67.13
877.824	52.41
877.991	53.76
878.157	57.71
878.324	49.73
878.491	47.95
878.657	45.21
878.824	45.28
878.99	49.24
879.157	43.81
879.323	45.47
879.49	43.53
879.656	45.09
879.823	50.3
879.989	48.06
880.156	51.46
880.322	52.21
880.488	48.82
880.655	46.42
880.821	45.22
880.987	45.46
881.154	55.26
881.32	57.23
881.486	61.7
881.652	54.98
881.819	55.25
881.985	50.53
882.151	47.89
882.317	50.03
882.483	46.75
882.649	46.05
882.816	46.58
882.982	43.95
883.148	41.71
883.314	41.06
883.48	39.06
883.646	38.34
883.812	41.22
883.978	42.29
884.144	42
884.31	44.87
884.476	45.47
884.642	44.33
884.807	44.28
884.973	44.29
885.139	44.64
885.305	46.54
885.471	45.77
885.637	46.61
885.802	47.44
885.968	46.38
886.134	44.66
886.3	44.05
886.465	43.31
886.631	44.13
886.797	47.24
886.962	46.6
887.128	47.39
887.293	49.62
887.459	48.12
887.625	45.73
887.79	48.48
887.956	49.64
888.121	50.36
888.287	55.81
888.452	55.28
888.618	50.98
888.783	51.69
