Data from CB_021_Reflection_2.txt Node
Date: Wed Nov 11 20:09:40 EST 2015
User: robert
Spectrometer: USB4E03001
Autoset integration time: false
Trigger mode: 4
Integration Time (sec): 1.000000E-1
Scans to average: 15
Electric dark correction enabled: true
Nonlinearity correction enabled: false
Boxcar width: 5
Stray light correction enabled: false
XAxis mode: Wavelengths
Stop averaging: false
Number of Pixels in Spectrum: 3648
>>>>>Begin Spectral Data<<<<<
177.566	-60.74
177.785	-202.79
178.005	617.53
178.225	-254.47
178.445	-436.23
178.665	1519.12
178.885	-135.78
179.105	3082.61
179.324	384.13
179.544	427.9
179.764	-405.96
179.984	-551.84
180.204	27272.5
180.423	478.46
180.643	-2323.12
180.863	6594.89
181.083	851.58
181.302	2045.64
181.522	1880.86
181.742	-3734.57
181.961	-761.85
182.181	-5571.5
182.401	3984.68
182.621	-473.6
182.84	-395.4
183.06	-313.13
183.279	-504.92
183.499	-220.92
183.719	-146.51
183.938	-164.21
184.158	-139.55
184.377	-76.2
184.597	-121.34
184.816	-93.25
185.036	-113.37
185.256	-132.75
185.475	-116.4
185.695	-20.2
185.914	-35.87
186.134	-1040.57
186.353	1656.28
186.572	407.13
186.792	458.03
187.011	1272.72
187.231	1696.89
187.45	766.56
187.67	442.31
187.889	354.5
188.108	345.42
188.328	547.7
188.547	876.52
188.766	1290.06
188.986	5014.33
189.205	5973.87
189.424	1676.44
189.644	559.53
189.863	483.21
190.082	1544.02
190.302	225.1
190.521	342.03
190.74	131.85
190.959	142.63
191.178	107.76
191.398	147.21
191.617	211.07
191.836	389.4
192.055	324.44
192.274	478.95
192.494	770.26
192.713	1384.41
192.932	2162.87
193.151	-225.45
193.37	-118.44
193.589	-166.13
193.808	-215.85
194.027	-155.78
194.246	-423.24
194.465	-30.85
194.685	146.54
194.904	132.62
195.123	41.1
195.342	77.35
195.561	34.07
195.78	-1731.07
195.999	-131.57
196.218	-109.52
196.436	-610.68
196.655	939.66
196.874	788.75
197.093	2128.45
197.312	-692.04
197.531	1606.21
197.75	866.79
197.969	892.2
198.188	1354.15
198.407	682.52
198.625	703.08
198.844	1122.28
199.063	-4212.12
199.282	-1844.86
199.501	-1243.39
199.719	-1723.35
199.938	-1302.54
200.157	6588.04
200.376	-706.54
200.594	-2539.29
200.813	-929.61
201.032	982.54
201.251	585.16
201.469	628.46
201.688	432.84
201.907	1077.45
202.125	745.83
202.344	2587.27
202.563	832.89
202.781	771.42
203	445.82
203.218	171
203.437	441.77
203.656	848.02
203.874	682.69
204.093	1641.62
204.311	1172.7
204.53	369.57
204.748	518.03
204.967	834.24
205.185	15094.29
205.404	-539.89
205.622	-231.81
205.841	-160.38
206.059	-150.05
206.278	-96.3
206.496	-188.57
206.715	-387.4
206.933	-185.83
207.151	-343.66
207.37	-436.38
207.588	-670.45
207.806	-347.3
208.025	-467.58
208.243	542.87
208.461	334.72
208.68	295.42
208.898	-2406.91
209.116	-191.99
209.335	-1009.67
209.553	-93.57
209.771	-162.79
209.989	161.29
210.208	116.16
210.426	180.08
210.644	436.42
210.862	772.3
211.081	372.81
211.299	246.17
211.517	210.71
211.735	736.98
211.953	302.86
212.171	522.35
212.39	-3394.12
212.608	-224.41
212.826	-128.67
213.044	-30.37
213.262	-30.64
213.48	-58.12
213.698	-74.83
213.916	-140.81
214.134	-186.83
214.352	-185.72
214.57	-75.57
214.788	-385.41
215.006	-881.94
215.224	378.18
215.442	1063.18
215.66	719.84
215.878	516.61
216.096	317.68
216.314	422.46
216.532	761.49
216.75	1208.12
216.968	428.33
217.185	233.51
217.403	212.86
217.621	638.38
217.839	226.08
218.057	351.91
218.275	828.8
218.492	-1225.19
218.71	476.89
218.928	233.32
219.146	282.9
219.363	1423.53
219.581	-592.14
219.799	-133.4
220.017	-318.73
220.234	-214.11
220.452	-226.71
220.67	-492.01
220.887	3848.77
221.105	-664.14
221.323	-150.06
221.54	-162.98
221.758	-474.86
221.976	-193.04
222.193	-192.99
222.411	-106.09
222.629	-87.96
222.846	-205.58
223.064	-94.32
223.281	-43.01
223.499	-25.95
223.716	-72.76
223.934	-57.69
224.151	-38.48
224.369	-59.25
224.586	-58.41
224.804	-53.08
225.021	-84.09
225.239	-106.28
225.456	-135.21
225.674	-111.58
225.891	-143.04
226.108	-162.33
226.326	-166.37
226.543	-127.82
226.76	-82.46
226.978	-58.24
227.195	-48.07
227.413	-21.48
227.63	-2.94
227.847	-7.2
228.064	-5.03
228.282	1.11
228.499	4.39
228.716	6.47
228.934	7.22
229.151	6.94
229.368	9.02
229.585	9.8
229.802	5.43
230.02	1.08
230.237	1.37
230.454	4.95
230.671	1.63
230.888	5.63
231.105	9.74
231.323	8.59
231.54	7.17
231.757	-1.5
231.974	-5.49
232.191	-2.96
232.408	-1.32
232.625	8.8
232.842	-0.55
233.059	0.03
233.276	-3.58
233.493	-13.5
233.71	-22.55
233.927	-12.82
234.144	-19.4
234.361	-17.2
234.578	-16.99
234.795	-30.35
235.012	-38.5
235.229	-47.04
235.446	-45.12
235.663	-46.34
235.879	-34.4
236.096	-19.33
236.313	-29.38
236.53	-18.38
236.747	-15.98
236.964	-22.6
237.181	-7.19
237.397	-12.65
237.614	-9.91
237.831	-15.08
238.048	-23.28
238.264	-36.83
238.481	-44.04
238.698	-46.52
238.915	-41.88
239.131	-41.15
239.348	-32.02
239.565	-28.86
239.781	-26.78
239.998	-21.5
240.215	-9.83
240.431	-9.09
240.648	-5.45
240.865	-3.62
241.081	0.61
241.298	-2.12
241.514	-1.99
241.731	-0.85
241.947	-1.4
242.164	0.1
242.38	2.43
242.597	-0
242.814	1.6
243.03	3.91
243.246	2.02
243.463	1.57
243.679	2.18
243.896	1.86
244.112	1.88
244.329	5.7
244.545	5.97
244.762	4.02
244.978	5.38
245.194	7.62
245.411	4.73
245.627	6.01
245.843	5.82
246.06	6.8
246.276	7.33
246.492	6.03
246.709	4.87
246.925	5.39
247.141	5.94
247.357	5.45
247.574	5.13
247.79	6
248.006	5.52
248.222	6.59
248.439	5.7
248.655	5.22
248.871	5.82
249.087	4.89
249.303	5.77
249.519	5.29
249.736	5.21
249.952	4.73
250.168	5.06
250.384	6.11
250.6	2.69
250.816	4.38
251.032	6.36
251.248	9.12
251.464	9.72
251.68	7.58
251.896	4.29
252.112	3.07
252.328	3.76
252.544	2.47
252.76	4.12
252.976	7.76
253.192	6.73
253.408	3.51
253.624	-0.11
253.84	-1.38
254.056	-2.88
254.272	0.53
254.487	0.96
254.703	-3.97
254.919	-4.98
255.135	-11.21
255.351	-22.14
255.567	-19
255.782	-14.28
255.998	-14.88
256.214	-15.81
256.43	-18.2
256.646	-18.41
256.861	-14.49
257.077	-10.86
257.293	-9.98
257.508	-8.01
257.724	-3
257.94	-3.38
258.155	0.22
258.371	0.73
258.587	2.91
258.802	3.19
259.018	3.97
259.234	2.56
259.449	3.72
259.665	4.08
259.88	4.72
260.096	4.33
260.312	4.7
260.527	3.08
260.743	3.14
260.958	1.65
261.174	2.59
261.389	1.23
261.605	2.26
261.82	0.69
262.036	1.54
262.251	0.48
262.466	-0.3
262.682	-1.34
262.897	-1.1
263.113	0.63
263.328	3.91
263.543	2.39
263.759	5.68
263.974	4.24
264.189	5.92
264.405	3.54
264.62	2.03
264.835	2.8
265.051	1.19
265.266	1.85
265.481	0.99
265.696	-2.45
265.912	-1.17
266.127	-2.61
266.342	-2.33
266.557	-2.27
266.773	-1.51
266.988	0.03
267.203	-2.31
267.418	-1.75
267.633	-0.87
267.848	-1.09
268.064	0.1
268.279	0.52
268.494	0.63
268.709	1.34
268.924	0.78
269.139	0.9
269.354	0.56
269.569	0.71
269.784	2.19
269.999	3.96
270.214	4.44
270.429	4.24
270.644	5.11
270.859	5.14
271.074	3.1
271.289	1.51
271.504	0.92
271.719	1.48
271.934	2.92
272.149	2.67
272.363	1.37
272.578	0.02
272.793	-0.27
273.008	-1.5
273.223	-1.67
273.438	-1.05
273.653	0.58
273.867	0.8
274.082	-1.04
274.297	-0.4
274.512	-0.89
274.726	-0.44
274.941	-0.66
275.156	-0.09
275.371	-0.09
275.585	-0.96
275.8	-0.06
276.015	0.93
276.229	1.95
276.444	4.74
276.659	4.43
276.873	4.65
277.088	3.58
277.302	3.65
277.517	5.67
277.732	5.24
277.946	6.33
278.161	6.58
278.375	4.43
278.59	3.71
278.804	1.45
279.019	0.11
279.233	-0.34
279.448	0.66
279.662	1.65
279.877	0.3
280.091	1.84
280.306	2.35
280.52	1.59
280.735	0.73
280.949	0.74
281.163	1.75
281.378	2.65
281.592	4.04
281.806	2.95
282.021	4.47
282.235	2.47
282.449	1.44
282.664	1.89
282.878	2.4
283.092	3.38
283.307	2.88
283.521	2.53
283.735	1.84
283.949	-0.11
284.164	0.69
284.378	-0.55
284.592	1.45
284.806	1.58
285.02	0.8
285.234	0.67
285.449	0.43
285.663	0.64
285.877	1.13
286.091	1.49
286.305	1.6
286.519	2.02
286.733	2.51
286.947	2.27
287.161	2.19
287.375	2.66
287.589	3.08
287.803	3
288.017	3
288.231	2.7
288.445	3.68
288.659	4.32
288.873	4.9
289.087	4.31
289.301	3.76
289.515	5.04
289.729	4.45
289.943	2.83
290.157	4.74
290.371	4.77
290.584	4.61
290.798	3.26
291.012	2.79
291.226	0.68
291.44	0.8
291.654	1.2
291.867	-0.52
292.081	-0.77
292.295	-0.12
292.509	-1.42
292.722	-1.64
292.936	-1.38
293.15	-1.18
293.364	-1.39
293.577	0.74
293.791	-0.2
294.005	0.91
294.218	2.39
294.432	3.28
294.645	3.19
294.859	3.63
295.073	3.9
295.286	4.65
295.5	5.77
295.713	7.08
295.927	6.83
296.14	8.27
296.354	7.48
296.568	7.22
296.781	6.88
296.994	7.05
297.208	7.56
297.421	7.79
297.635	7.37
297.848	7.11
298.062	7.24
298.275	8.22
298.489	8.32
298.702	8.73
298.915	8.65
299.129	8.54
299.342	9.36
299.555	8.13
299.769	7.6
299.982	7.05
300.195	5.99
300.409	5.98
300.622	4.67
300.835	3.37
301.048	4.63
301.262	3.67
301.475	3.32
301.688	2.17
301.901	3.25
302.115	3.73
302.328	4.81
302.541	5.95
302.754	5.53
302.967	5.6
303.18	6.65
303.393	4.55
303.607	5.37
303.82	6.6
304.033	7.31
304.246	6.95
304.459	6.67
304.672	6.63
304.885	6.34
305.098	6
305.311	4.56
305.524	4.27
305.737	4.68
305.95	6.26
306.163	3.75
306.376	3.79
306.589	3.65
306.802	5.36
307.015	4.59
307.228	5.27
307.44	5.31
307.653	5.76
307.866	5.04
308.079	5.29
308.292	2.85
308.505	3.61
308.718	3.11
308.93	2.1
309.143	1.1
309.356	2.35
309.569	2.5
309.781	3.03
309.994	3.97
310.207	5.09
310.42	5.44
310.632	5.59
310.845	5.8
311.058	6.52
311.27	8.01
311.483	8.22
311.696	8.67
311.908	7.92
312.121	6.93
312.333	6.67
312.546	6.81
312.759	6.05
312.971	6.49
313.184	6.39
313.396	5.81
313.609	5.45
313.821	4.38
314.034	2.89
314.246	2.91
314.459	3.52
314.671	3.32
314.884	1.91
315.096	1.7
315.309	2.26
315.521	2.67
315.733	2.18
315.946	2.03
316.158	2.34
316.371	3.36
316.583	3.96
316.795	4.95
317.008	6.27
317.22	5.93
317.432	6.04
317.644	5.05
317.857	6.15
318.069	6.53
318.281	6.37
318.494	6.2
318.706	5.9
318.918	5.29
319.13	4.48
319.342	3.34
319.555	4.4
319.767	4.43
319.979	4.79
320.191	3.44
320.403	3.15
320.615	1.89
320.827	2.13
321.039	1.46
321.252	2.64
321.464	3.26
321.676	4.12
321.888	4.46
322.1	5.53
322.312	6.9
322.524	7.71
322.736	8.6
322.948	8.9
323.16	9.2
323.372	10.3
323.584	9.12
323.796	9.28
324.007	8.61
324.219	8.57
324.431	8.63
324.643	8.51
324.855	8.48
325.067	10.17
325.279	11.26
325.491	11.44
325.702	10.34
325.914	11.32
326.126	11.32
326.338	12.14
326.55	12.6
326.761	12.91
326.973	12.6
327.185	11.96
327.396	10.61
327.608	10.64
327.82	10
328.032	10.56
328.243	8.92
328.455	9.66
328.666	9.53
328.878	9.08
329.09	9.92
329.301	10.49
329.513	11.17
329.725	11.56
329.936	11.09
330.148	12.14
330.359	13.54
330.571	15.43
330.782	14.24
330.994	14.29
331.205	14.21
331.417	13.32
331.628	12.27
331.84	13.59
332.051	12.98
332.262	14.43
332.474	14.8
332.685	13.47
332.897	12.93
333.108	13.34
333.319	15.02
333.531	16.21
333.742	16.49
333.953	17.4
334.165	17.81
334.376	17.87
334.587	16.97
334.799	16.07
335.01	16.79
335.221	16.79
335.432	16.5
335.644	14.83
335.855	13.54
336.066	13.35
336.277	12.06
336.488	10.79
336.7	11.51
336.911	11.91
337.122	11.69
337.333	11.81
337.544	11.64
337.755	11.66
337.966	11.96
338.177	11.96
338.388	12.69
338.599	12.84
338.811	13.32
339.022	12.99
339.233	13.49
339.444	14.3
339.655	13.79
339.866	13.79
340.076	15.1
340.287	15.05
340.498	16.38
340.709	15.09
340.92	16.81
341.131	16.69
341.342	16.27
341.553	15.64
341.764	15.99
341.975	15.64
342.185	16.73
342.396	15.58
342.607	15.99
342.818	15.59
343.029	16.5
343.239	15.43
343.45	16.23
343.661	16.8
343.872	16.26
344.082	16.23
344.293	16.95
344.504	15.86
344.714	15.77
344.925	15.68
345.136	15.14
345.346	13.87
345.557	14.42
345.768	13.46
345.978	13.07
346.189	13.89
346.399	13.4
346.61	13.04
346.821	13.48
347.031	12.87
347.242	12.85
347.452	12.79
347.663	13.47
347.873	14.25
348.084	14.56
348.294	14.17
348.504	13.18
348.715	13.94
348.925	13.7
349.136	14.58
349.346	15.65
349.557	14.83
349.767	15.36
349.977	15.46
350.188	14.04
350.398	14.35
350.608	14.91
350.819	15.64
351.029	15.61
351.239	15.62
351.449	14.97
351.66	14.8
351.87	15.34
352.08	14.18
352.29	13.86
352.501	13.91
352.711	13.02
352.921	12.8
353.131	12.96
353.341	12.1
353.552	13.31
353.762	12.91
353.972	12.97
354.182	12.68
354.392	12.76
354.602	12.96
354.812	13.57
355.022	14.78
355.232	13.98
355.442	13.5
355.652	13.27
355.862	12.41
356.072	12.8
356.282	12.35
356.492	11.96
356.702	12.01
356.912	11.59
357.122	10.98
357.332	10.75
357.542	11.34
357.752	11.67
357.962	12.23
358.171	12.37
358.381	12.51
358.591	12.84
358.801	13.26
359.011	14.15
359.221	14.35
359.43	13.87
359.64	13.59
359.85	14.12
360.06	14.14
360.269	14.19
360.479	14.02
360.689	13.4
360.899	13.77
361.108	13.65
361.318	13.41
361.528	13.84
361.737	14.44
361.947	14.49
362.156	14.12
362.366	13.42
362.576	13.47
362.785	13.56
362.995	13.75
363.204	13.04
363.414	13.09
363.623	12.91
363.833	11.96
364.042	11.85
364.252	12.12
364.461	11.93
364.671	12.34
364.88	12.1
365.09	11.78
365.299	12.38
365.509	12.47
365.718	12.68
365.927	12.92
366.137	13.82
366.346	13.73
366.555	13.18
366.765	12.73
366.974	12.9
367.183	11.82
367.393	11.76
367.602	11.07
367.811	11.44
368.021	10.95
368.23	10.2
368.439	10.58
368.648	10.8
368.857	10.7
369.067	11.15
369.276	11.14
369.485	11.97
369.694	11.74
369.903	11.22
370.112	11.03
370.321	11.08
370.531	11.56
370.74	10.99
370.949	10.59
371.158	10.5
371.367	10.23
371.576	10.43
371.785	10.03
371.994	10.58
372.203	11.45
372.412	11.55
372.621	11.92
372.83	12.02
373.039	11.57
373.248	11.33
373.457	11.28
373.666	11.38
373.874	10.92
374.083	11.38
374.292	11.13
374.501	11.04
374.71	11.38
374.919	11.03
375.128	10.01
375.336	10.83
375.545	11.24
375.754	11.77
375.963	11.74
376.171	11.77
376.38	11.68
376.589	11.05
376.798	10.15
377.006	9.79
377.215	9.76
377.424	10.22
377.632	9.17
377.841	8.65
378.05	7.96
378.258	7.79
378.467	7.95
378.675	7.98
378.884	8.58
379.093	9.01
379.301	8.08
379.51	8.23
379.718	8.33
379.927	8.92
380.135	8.94
380.344	8.96
380.552	9.25
380.761	8.67
380.969	8.38
381.177	7.81
381.386	7.95
381.594	8.82
381.803	8.17
382.011	8.03
382.219	7.85
382.428	8.09
382.636	8.01
382.845	7.62
383.053	8.08
383.261	7.92
383.469	7.86
383.678	8.03
383.886	7.7
384.094	7.5
384.302	7.54
384.511	7.4
384.719	7.62
384.927	7.64
385.135	7.45
385.343	7.21
385.552	7.02
385.76	7.03
385.968	6.58
386.176	6.4
386.384	6.54
386.592	6.24
386.8	6.13
387.008	5.75
387.216	5.68
387.424	6.05
387.633	5.59
387.841	5.73
388.049	5.8
388.257	5.66
388.465	5.95
388.672	6.18
388.88	6.33
389.088	6.93
389.296	7.16
389.504	7.44
389.712	7.17
389.92	7.35
390.128	7.57
390.336	7.27
390.544	7.46
390.751	7.05
390.959	6.73
391.167	6.99
391.375	6.38
391.583	6.31
391.79	6.08
391.998	6.07
392.206	6.37
392.414	6.57
392.621	6.6
392.829	6.8
393.037	6.79
393.244	6.95
393.452	6.24
393.66	6.49
393.867	6.38
394.075	6.52
394.283	6.01
394.49	5.93
394.698	5.96
394.905	5.93
395.113	5.79
395.32	5.84
395.528	5.73
395.735	5.89
395.943	5.71
396.15	5.69
396.358	5.34
396.565	5.82
396.773	5.28
396.98	4.86
397.188	5.21
397.395	4.95
397.602	4.94
397.81	4.91
398.017	4.8
398.225	4.78
398.432	4.91
398.639	5.05
398.847	4.52
399.054	4.86
399.261	4.87
399.468	4.81
399.676	4.99
399.883	5.15
400.09	5.13
400.297	5.63
400.505	5.69
400.712	5.26
400.919	5.37
401.126	5.99
401.333	5.81
401.54	5.91
401.748	5.82
401.955	5.45
402.162	5.62
402.369	5.39
402.576	5.18
402.783	5.1
402.99	5.34
403.197	5.39
403.404	5.35
403.611	5.46
403.818	5.31
404.025	5.77
404.232	5.86
404.439	5.61
404.646	5.88
404.853	5.73
405.06	5.71
405.267	5.65
405.474	5.4
405.681	5.07
405.887	4.97
406.094	4.98
406.301	4.43
406.508	4.27
406.715	4.39
406.922	4.45
407.128	4.16
407.335	4.3
407.542	4
407.749	3.79
407.955	4.25
408.162	4.37
408.369	4.16
408.575	4.26
408.782	4.11
408.989	4.03
409.195	3.56
409.402	3.92
409.609	3.51
409.815	3.26
410.022	3.33
410.228	3.25
410.435	3.1
410.642	3.36
410.848	3.1
411.055	3.39
411.261	3.45
411.468	3.62
411.674	3.8
411.881	3.9
412.087	4.14
412.294	4.32
412.5	4.29
412.706	4.42
412.913	4.27
413.119	4.41
413.326	4.36
413.532	4.03
413.738	3.86
413.945	3.7
414.151	3.87
414.357	3.98
414.564	3.95
414.77	3.99
414.976	4.05
415.182	3.96
415.389	4.13
415.595	4.09
415.801	4.14
416.007	4.23
416.214	4.44
416.42	4.21
416.626	4.39
416.832	4.28
417.038	4.12
417.244	4.13
417.45	4.26
417.657	4.07
417.863	4.19
418.069	4.19
418.275	4.35
418.481	4.26
418.687	4.3
418.893	4.27
419.099	4.37
419.305	4.38
419.511	4.32
419.717	4.19
419.923	4.15
420.129	4.13
420.335	4.24
420.541	4.19
420.746	4.01
420.952	4.06
421.158	3.85
421.364	3.77
421.57	3.82
421.776	3.82
421.982	3.8
422.187	3.72
422.393	3.65
422.599	3.58
422.805	3.61
423.01	3.62
423.216	3.49
423.422	3.49
423.628	3.54
423.833	3.61
424.039	3.39
424.245	3.49
424.45	3.78
424.656	3.93
424.862	3.8
425.067	3.74
425.273	3.78
425.478	3.86
425.684	4.07
425.889	4.01
426.095	3.85
426.301	3.96
426.506	3.75
426.712	3.36
426.917	3.18
427.123	3.49
427.328	3.41
427.533	3.42
427.739	3.41
427.944	3.28
428.15	3.36
428.355	3.29
428.561	3.24
428.766	3.5
428.971	3.72
429.177	3.64
429.382	3.14
429.587	3.38
429.793	3.5
429.998	3.32
430.203	3.11
430.408	3.01
430.614	3.1
430.819	3.12
431.024	3.03
431.229	3.01
431.434	3.04
431.64	3.23
431.845	3.12
432.05	3.02
432.255	3.22
432.46	3.51
432.665	3.55
432.87	3.65
433.076	3.77
433.281	3.96
433.486	4.13
433.691	4.34
433.896	4.51
434.101	4.81
434.306	5.12
434.511	5.46
434.716	5.81
434.921	6.2
435.126	6.34
435.331	6.87
435.535	7.02
435.74	7.14
435.945	7.2
436.15	7.37
436.355	6.98
436.56	6.67
436.765	6.14
436.97	5.78
437.174	5.2
437.379	5.09
437.584	4.4
437.789	4.23
437.993	3.9
438.198	3.8
438.403	3.47
438.608	3.5
438.812	3.63
439.017	3.84
439.222	3.77
439.426	3.95
439.631	3.81
439.836	4
440.04	3.95
440.245	3.91
440.45	3.78
440.654	3.59
440.859	3.62
441.063	3.38
441.268	3.24
441.472	3.07
441.677	2.99
441.881	3
442.086	3.05
442.29	2.78
442.495	2.98
442.699	3.15
442.904	3.21
443.108	3.13
443.312	3.11
443.517	3.18
443.721	3.34
443.925	3.29
444.13	3.2
444.334	2.98
444.538	3.07
444.743	2.86
444.947	2.87
445.151	3
445.356	3.02
445.56	3.05
445.764	3.16
445.968	3.05
446.173	3.13
446.377	3.27
446.581	3.29
446.785	3.4
446.989	3.45
447.193	3.4
447.398	3.5
447.602	3.42
447.806	3.47
448.01	3.51
448.214	3.6
448.418	3.59
448.622	3.54
448.826	3.59
449.03	3.48
449.234	3.36
449.438	3.4
449.642	3.42
449.846	3.48
450.05	3.55
450.254	3.51
450.458	3.45
450.662	3.36
450.866	3.41
451.069	3.33
451.273	3.48
451.477	3.49
451.681	3.44
451.885	3.27
452.089	3.31
452.292	3.19
452.496	3.06
452.7	3.35
452.904	3.44
453.107	3.24
453.311	3.16
453.515	3.08
453.719	3.3
453.922	3.32
454.126	3.18
454.33	3.09
454.533	3.08
454.737	3.04
454.94	2.73
455.144	2.51
455.348	2.6
455.551	2.82
455.755	2.76
455.958	2.45
456.162	2.02
456.365	2.21
456.569	2.68
456.772	2.75
456.976	2.83
457.179	2.88
457.383	3.07
457.586	3.07
457.79	2.88
457.993	2.77
458.196	3.04
458.4	3.42
458.603	3.37
458.807	3.22
459.01	3.21
459.213	3.1
459.417	3.25
459.62	3.14
459.823	2.99
460.026	3.01
460.23	3.12
460.433	3.09
460.636	3
460.839	3.1
461.042	2.97
461.246	3.11
461.449	3.14
461.652	3.13
461.855	3.29
462.058	3.48
462.261	3.58
462.464	3.62
462.668	3.56
462.871	3.53
463.074	3.55
463.277	3.56
463.48	3.35
463.683	3.5
463.886	3.32
464.089	3.04
464.292	2.98
464.495	3.07
464.698	3
464.901	2.9
465.104	2.83
465.306	2.84
465.509	2.77
465.712	2.83
465.915	2.55
466.118	2.69
466.321	3
466.524	3.12
466.726	3.26
466.929	3.3
467.132	3.22
467.335	3.41
467.538	3.39
467.74	3.53
467.943	3.49
468.146	3.79
468.348	3.89
468.551	3.75
468.754	3.65
468.956	3.47
469.159	3.45
469.362	3.73
469.564	3.52
469.767	3.5
469.969	3.37
470.172	3.24
470.375	2.99
470.577	2.78
470.78	2.76
470.982	2.67
471.185	2.63
471.387	2.68
471.59	2.57
471.792	2.67
471.995	2.44
472.197	2.41
472.399	2.75
472.602	2.92
472.804	3.02
473.007	3.16
473.209	3.33
473.411	3.31
473.614	3.24
473.816	3.33
474.018	3.21
474.22	3.3
474.423	3.42
474.625	3.32
474.827	3.2
475.03	3.24
475.232	3.04
475.434	2.99
475.636	2.91
475.838	3.1
476.04	3.03
476.243	3.25
476.445	3.48
476.647	3.47
476.849	3.49
477.051	3.33
477.253	3.25
477.455	3.4
477.657	3.39
477.859	3.65
478.061	3.65
478.263	3.62
478.465	3.51
478.667	3.36
478.869	3.23
479.071	3.01
479.273	3.28
479.475	3.19
479.677	3.08
479.879	3.01
480.081	2.83
480.283	2.8
480.485	2.84
480.686	3.03
480.888	3.02
481.09	3.24
481.292	3.31
481.494	3.15
481.695	3.31
481.897	3.49
482.099	3.58
482.301	3.68
482.502	3.69
482.704	3.78
482.906	3.77
483.107	3.78
483.309	3.75
483.511	3.78
483.712	3.83
483.914	3.87
484.115	3.85
484.317	3.85
484.519	3.89
484.72	3.91
484.922	3.94
485.123	3.97
485.325	4.04
485.526	4.1
485.728	4.12
485.929	4.22
486.131	4.18
486.332	4.19
486.534	4.26
486.735	4.25
486.936	4.26
487.138	4.26
487.339	4.26
487.541	4.17
487.742	4.17
487.943	4.28
488.144	4.19
488.346	4.22
488.547	4.15
488.748	4.12
488.95	4.13
489.151	4.13
489.352	4.11
489.553	4.05
489.755	4.05
489.956	3.9
490.157	3.69
490.358	3.69
490.559	3.69
490.76	3.8
490.961	3.81
491.163	3.61
491.364	3.63
491.565	3.56
491.766	3.56
491.967	3.69
492.168	3.83
492.369	3.97
492.57	3.95
492.771	3.91
492.972	3.91
493.173	3.92
493.374	4.05
493.575	3.92
493.776	3.94
493.976	3.93
494.177	3.72
494.378	3.58
494.579	3.38
494.78	3.56
494.981	3.59
495.182	3.57
495.382	3.53
495.583	3.46
495.784	3.56
495.985	3.61
496.185	3.54
496.386	3.62
496.587	3.73
496.788	3.7
496.988	3.5
497.189	3.42
497.39	3.45
497.59	3.48
497.791	3.43
497.992	3.39
498.192	3.28
498.393	3.48
498.593	3.45
498.794	3.37
498.994	3.46
499.195	3.6
499.395	3.69
499.596	3.75
499.796	3.69
499.997	3.81
500.197	3.88
500.398	3.92
500.598	3.84
500.799	3.94
500.999	3.98
501.199	3.96
501.4	3.96
501.6	3.99
501.801	3.73
502.001	3.86
502.201	4.06
502.402	4.07
502.602	4.05
502.802	4.01
503.002	4.05
503.203	4.02
503.403	3.97
503.603	3.82
503.803	3.87
504.003	3.95
504.204	3.95
504.404	3.84
504.604	3.64
504.804	3.78
505.004	3.92
505.204	3.79
505.404	3.95
505.604	4.03
505.804	4.08
506.005	3.95
506.205	3.92
506.405	3.88
506.605	3.84
506.805	4.08
507.005	4.1
507.204	3.97
507.404	4
507.604	3.89
507.804	3.95
508.004	3.96
508.204	4.14
508.404	4.22
508.604	4.26
508.804	4.33
509.003	4.36
509.203	4.51
509.403	4.73
509.603	4.98
509.803	5.03
510.002	5.02
510.202	5.19
510.402	5.18
510.602	5.38
510.801	5.39
511.001	5.51
511.201	5.53
511.4	5.41
511.6	5.38
511.8	5.28
511.999	5.28
512.199	5.4
512.398	5.4
512.598	5.59
512.797	5.48
512.997	5.52
513.197	5.41
513.396	5.61
513.596	5.56
513.795	5.54
513.994	5.63
514.194	5.82
514.393	6.01
514.593	6.08
514.792	5.84
514.992	5.93
515.191	6.05
515.39	6.26
515.59	6.28
515.789	6.35
515.988	6.37
516.188	6.58
516.387	6.65
516.586	6.52
516.786	6.52
516.985	6.74
517.184	6.9
517.383	6.88
517.582	6.78
517.782	6.91
517.981	7.19
518.18	7.35
518.379	7.18
518.578	7.19
518.777	7.29
518.976	7.49
519.176	7.5
519.375	7.55
519.574	7.61
519.773	7.73
519.972	7.71
520.171	7.61
520.37	7.54
520.569	7.69
520.768	7.75
520.967	7.79
521.166	7.81
521.365	7.81
521.564	7.84
521.762	7.94
521.961	7.97
522.16	8.08
522.359	8.08
522.558	8.33
522.757	8.4
522.956	8.48
523.154	8.62
523.353	8.57
523.552	8.85
523.751	8.96
523.949	9.19
524.148	9.33
524.347	9.31
524.546	9.54
524.744	9.6
524.943	9.65
525.142	9.77
525.34	9.86
525.539	9.98
525.737	9.95
525.936	9.97
526.135	9.98
526.333	9.99
526.532	10
526.73	10.08
526.929	10.18
527.127	10.27
527.326	10.31
527.524	10.32
527.723	10.4
527.921	10.43
528.12	10.47
528.318	10.54
528.516	10.6
528.715	10.68
528.913	10.73
529.112	10.77
529.31	10.82
529.508	10.84
529.707	10.86
529.905	10.91
530.103	11.01
530.301	11.06
530.5	11.16
530.698	11.24
530.896	11.36
531.094	11.41
531.293	11.52
531.491	11.62
531.689	11.74
531.887	11.92
532.085	12
532.283	12.1
532.481	12.27
532.68	12.22
532.878	12.35
533.076	12.43
533.274	12.47
533.472	12.44
533.67	12.44
533.868	12.57
534.066	12.6
534.264	12.71
534.462	12.84
534.66	12.9
534.858	13.03
535.056	13.07
535.253	13.18
535.451	13.3
535.649	13.51
535.847	13.72
536.045	13.75
536.243	13.88
536.441	14.01
536.638	13.96
536.836	14.1
537.034	14.32
537.232	14.55
537.43	14.69
537.627	14.98
537.825	15.15
538.023	15.36
538.22	15.74
538.418	16.15
538.616	16.46
538.813	16.97
539.011	17.41
539.209	17.99
539.406	18.71
539.604	19.38
539.801	19.85
539.999	20.4
540.196	20.88
540.394	21.31
540.591	21.72
540.789	22.02
540.986	22.45
541.184	22.78
541.381	23
541.579	23.18
541.776	23.43
541.974	23.67
542.171	23.81
542.368	24.13
542.566	24.32
542.763	24.49
542.96	24.73
543.158	24.89
543.355	25.16
543.552	25.6
543.75	26.11
543.947	26.7
544.144	27.53
544.341	28.6
544.539	29.53
544.736	30.77
544.933	32.17
545.13	33.6
545.327	34.89
545.524	35.84
545.722	36.43
545.919	36.86
546.116	37.05
546.313	36.88
546.51	36.42
546.707	35.76
546.904	34.88
547.101	33.83
547.298	32.69
547.495	31.57
547.692	30.77
547.889	29.77
548.086	28.86
548.283	28.04
548.48	27.38
548.677	26.81
548.874	26.24
549.07	25.76
549.267	25.46
549.464	25.16
549.661	24.83
549.858	24.31
550.055	24.22
550.251	23.95
550.448	23.5
550.645	23.17
550.842	22.8
551.038	22.65
551.235	22.42
551.432	21.91
551.628	21.62
551.825	21.37
552.022	21.36
552.218	21.25
552.415	21.18
552.612	21.12
552.808	20.89
553.005	20.79
553.201	20.7
553.398	20.47
553.594	20.5
553.791	20.51
553.987	20.61
554.184	20.29
554.38	20.09
554.577	20.02
554.773	19.88
554.97	19.85
555.166	19.76
555.362	19.59
555.559	19.74
555.755	19.77
555.952	19.6
556.148	19.58
556.344	19.59
556.541	19.6
556.737	19.44
556.933	19.52
557.129	19.78
557.326	19.87
557.522	19.88
557.718	19.81
557.914	19.73
558.11	19.93
558.307	19.79
558.503	19.94
558.699	20.03
558.895	20.19
559.091	20.08
559.287	19.9
559.483	19.93
559.679	20.03
559.876	20.08
560.072	20.24
560.268	20.21
560.464	20.37
560.66	20.38
560.856	20.29
561.052	20.27
561.247	20.38
561.443	20.57
561.639	20.59
561.835	20.73
562.031	20.76
562.227	20.72
562.423	20.57
562.619	20.54
562.815	20.68
563.01	20.89
563.206	20.81
563.402	20.91
563.598	20.88
563.793	21.06
563.989	21.12
564.185	21.15
564.381	21.17
564.576	21.22
564.772	21.42
564.968	21.35
565.163	21.4
565.359	21.3
565.555	21.25
565.75	21.44
565.946	21.28
566.141	21.17
566.337	21.42
566.532	21.48
566.728	21.54
566.923	21.45
567.119	21.41
567.314	21.22
567.51	21.49
567.705	21.64
567.901	21.49
568.096	21.47
568.292	21.64
568.487	21.56
568.682	21.69
568.878	21.91
569.073	21.84
569.268	22
569.464	22.07
569.659	21.8
569.854	21.8
570.05	21.71
570.245	21.71
570.44	21.78
570.635	21.69
570.831	21.66
571.026	21.61
571.221	21.61
571.416	21.7
571.611	21.73
571.806	21.99
572.002	21.83
572.197	22.03
572.392	22.16
572.587	22.09
572.782	22.06
572.977	22.17
573.172	22.26
573.367	22.27
573.562	22.24
573.757	22.1
573.952	22.05
574.147	22.41
574.342	22.44
574.537	22.39
574.732	22.46
574.927	22.77
575.121	22.81
575.316	22.86
575.511	23.15
575.706	23.36
575.901	23.86
576.096	23.97
576.29	24.14
576.485	24.39
576.68	24.61
576.875	24.72
577.069	24.87
577.264	25.14
577.459	25.39
577.654	25.67
577.848	25.75
578.043	26.07
578.238	26.57
578.432	26.75
578.627	26.79
578.821	27.12
579.016	27.54
579.21	27.47
579.405	27.39
579.6	27.29
579.794	27.12
579.989	27.33
580.183	27.01
580.378	26.71
580.572	26.71
580.766	26.54
580.961	26.46
581.155	26.26
581.35	26.34
581.544	26.34
581.738	26.31
581.933	26.68
582.127	26.69
582.321	26.97
582.516	27.41
582.71	27.54
582.904	27.62
583.099	27.92
583.293	27.85
583.487	28
583.681	28.18
583.875	28.54
584.07	28.47
584.264	28.41
584.458	28.19
584.652	28.1
584.846	27.92
585.04	28.45
585.234	28.28
585.428	28.8
585.623	29.14
585.817	29.29
586.011	29.74
586.205	29.96
586.399	30.35
586.593	30.88
586.787	31.13
586.981	31.23
587.174	31.24
587.368	31.25
587.562	31.06
587.756	30.71
587.95	30.44
588.144	30.07
588.338	29.59
588.532	29.28
588.725	28.73
588.919	28.32
589.113	27.93
589.307	27.7
589.501	27.3
589.694	27
589.888	26.99
590.082	27.04
590.275	26.79
590.469	27.24
590.663	27.2
590.856	27.63
591.05	27.96
591.244	28.27
591.437	28.2
591.631	28.9
591.824	29.32
592.018	29.78
592.212	30.08
592.405	30.31
592.599	30.68
592.792	31.01
592.986	31.27
593.179	31.18
593.372	31.09
593.566	31.41
593.759	31.19
593.953	30.96
594.146	30.41
594.339	29.89
594.533	29.67
594.726	28.94
594.92	28.34
595.113	27.96
595.306	27.59
595.499	27.42
595.693	26.92
595.886	26.66
596.079	26.51
596.272	26.51
596.466	26.73
596.659	26.64
596.852	26.52
597.045	26.69
597.238	26.63
597.431	26.84
597.624	26.93
597.818	27.15
598.011	27.35
598.204	27.47
598.397	27.53
598.59	27.61
598.783	27.99
598.976	28.37
599.169	28.68
599.362	28.87
599.555	28.92
599.748	29.07
599.941	29.08
600.134	29.07
600.326	28.91
600.519	28.92
600.712	28.67
600.905	28.45
601.098	28.07
601.291	27.83
601.483	27.36
601.676	27.15
601.869	26.97
602.062	26.81
602.255	26.41
602.447	26.39
602.64	26.62
602.833	26.63
603.025	26.57
603.218	26.52
603.411	26.32
603.603	26.46
603.796	26.62
603.989	26.71
604.181	26.66
604.374	27.01
604.566	27.14
604.759	26.85
604.951	26.85
605.144	26.84
605.336	27.01
605.529	27.26
605.721	27.42
605.914	27.34
606.106	27.44
606.299	27.69
606.491	27.88
606.683	28.08
606.876	28.44
607.068	29.05
607.26	29.49
607.453	29.96
607.645	30.45
607.837	31.07
608.03	31.65
608.222	32.59
608.414	33.65
608.606	34.93
608.799	36.98
608.991	39.44
609.183	42.06
609.375	45.53
609.567	49.33
609.759	53.77
609.952	58.23
610.144	63.66
610.336	68.9
610.528	74.29
610.72	79.41
610.912	83.95
611.104	87.92
611.296	91.21
611.488	93.85
611.68	95.78
611.872	95.96
612.064	95.98
612.256	94.86
612.448	92.73
612.64	89.91
612.832	86.6
613.023	82.85
613.215	79.3
613.407	75.95
613.599	72.65
613.791	69
613.983	65.78
614.174	62.49
614.366	59.28
614.558	56.76
614.75	54.69
614.941	52.95
615.133	51.29
615.325	49.57
615.516	47.79
615.708	45.49
615.9	44.03
616.091	42.47
616.283	41.44
616.475	40.43
616.666	39.32
616.858	37.89
617.049	36.5
617.241	35.98
617.432	34.91
617.624	34.3
617.815	34.1
618.007	33.7
618.198	33.54
618.39	33.1
618.581	32.58
618.773	32.56
618.964	32.49
619.155	32.41
619.347	31.87
619.538	31.95
619.729	32.08
619.921	32.07
620.112	31.94
620.303	31.47
620.494	31.45
620.686	31.93
620.877	31.64
621.068	31.68
621.259	32.23
621.451	32.35
621.642	32.41
621.833	31.77
622.024	31.63
622.215	31.59
622.406	31.93
622.597	31.89
622.788	31.61
622.98	31.74
623.171	32.18
623.362	31.99
623.553	32.14
623.744	32.11
623.935	32.89
624.126	33.08
624.317	33.15
624.508	33.29
624.698	33.42
624.889	33.25
625.08	33.42
625.271	33.08
625.462	32.92
625.653	32.71
625.844	32.64
626.034	32.27
626.225	32.14
626.416	32.15
626.607	32.16
626.798	31.92
626.988	32.11
627.179	31.74
627.37	31.78
627.56	31.82
627.751	31.9
627.942	32.04
628.132	32.25
628.323	32.47
628.514	32.64
628.704	32.84
628.895	33.24
629.085	33.36
629.276	33.75
629.466	34.11
629.657	34.44
629.847	35.01
630.038	35.68
630.228	36.03
630.419	36.49
630.609	36.53
630.8	36.94
630.99	37.06
631.181	36.89
631.371	36.97
631.561	36.4
631.752	36.04
631.942	35.18
632.132	34.56
632.323	34.08
632.513	33.11
632.703	32.69
632.893	31.98
633.084	31.17
633.274	30.6
633.464	29.87
633.654	29.86
633.844	29.63
634.034	29.64
634.225	29.44
634.415	29.34
634.605	29.2
634.795	28.87
634.985	28.36
635.175	28.23
635.365	28.61
635.555	28.67
635.745	28.52
635.935	28.38
636.125	28.22
636.315	27.53
636.505	27.29
636.695	27.08
636.885	27.31
637.075	27.39
637.265	28
637.455	27.8
637.644	27.63
637.834	27.54
638.024	27.73
638.214	27.8
638.404	28.4
638.593	28.18
638.783	28.49
638.973	28.39
639.163	28.84
639.352	28.55
639.542	28.85
639.732	29.29
639.921	29.34
640.111	29.21
640.301	29.12
640.49	29.08
640.68	28.91
640.87	29.11
641.059	29.41
641.249	29.5
641.438	29.33
641.628	29.39
641.817	29.52
642.007	29.64
642.196	29.6
642.386	29.83
642.575	29.82
642.764	30.11
642.954	29.81
643.143	29.51
643.333	29.33
643.522	29.14
643.711	28.64
643.901	28.04
644.09	27.31
644.279	27.21
644.469	27.25
644.658	27.28
644.847	27.4
645.036	27.65
645.226	27.73
645.415	27.79
645.604	28.63
645.793	28.96
645.982	28.9
646.171	29.61
646.361	29.84
646.55	29.49
646.739	29.07
646.928	29.07
647.117	28.85
647.306	28.86
647.495	28.25
647.684	27.78
647.873	27.58
648.062	27.71
648.251	27.73
648.44	27.86
648.629	27.88
648.818	28.26
649.007	28.38
649.196	28.61
649.384	29.29
649.573	29.5
649.762	29.65
649.951	29.33
650.14	29.82
650.328	29.75
650.517	29.66
650.706	29.88
650.895	30.03
651.083	29.84
651.272	29.93
651.461	29.67
651.65	29.8
651.838	29.62
652.027	30.46
652.216	30.16
652.404	30.14
652.593	30.38
652.781	30.51
652.97	30.35
653.158	30.16
653.347	30.11
653.535	29.86
653.724	30.03
653.912	30.12
654.101	29.88
654.289	30.41
654.478	30.33
654.666	30.06
654.855	29.99
655.043	29.82
655.231	29.8
655.42	28.98
655.608	28.64
655.796	28.35
655.985	28.49
656.173	28.43
656.361	28.16
656.55	28.25
656.738	27.62
656.926	27.52
657.114	27.44
657.302	27.8
657.491	28.31
657.679	28.57
657.867	28.63
658.055	28.61
658.243	28.42
658.431	27.89
658.619	27.92
658.807	28.59
658.996	28.51
659.184	28.57
659.372	28.12
659.56	28.27
659.748	28.32
659.936	28.56
660.124	28.22
660.311	28.54
660.499	28.87
660.687	29.03
660.875	28.93
661.063	29.26
661.251	29.64
661.439	30.02
661.627	30.08
661.814	30.01
662.002	30.22
662.19	30.93
662.378	30.78
662.565	30.56
662.753	30.43
662.941	30.51
663.129	30.33
663.316	30.29
663.504	30.3
663.692	30.41
663.879	30.67
664.067	29.95
664.254	29.38
664.442	28.93
664.63	29.25
664.817	29.39
665.005	29.11
665.192	29.29
665.38	29.2
665.567	29.51
665.755	29.04
665.942	28.59
666.13	29.15
666.317	29.19
666.504	29.31
666.692	29.74
666.879	29.36
667.067	29.43
667.254	29.19
667.441	29.5
667.629	28.9
667.816	29.38
668.003	29.38
668.19	29.12
668.378	28.93
668.565	28.96
668.752	28.43
668.939	28.51
669.127	28.92
669.314	28.76
669.501	28.13
669.688	28.96
669.875	28.45
670.062	29.24
670.249	29.22
670.436	29.46
670.623	29.45
670.81	29.25
670.997	29.64
671.184	28.88
671.371	28.86
671.558	29.14
671.745	28.82
671.932	29.38
672.119	28.9
672.306	29.45
672.493	29.17
672.68	29.37
672.867	30.06
673.054	29.68
673.24	30.53
673.427	30.79
673.614	30.26
673.801	30.24
673.988	30.53
674.174	30.58
674.361	30.52
674.548	30.91
674.734	31.05
674.921	31.08
675.108	31.36
675.294	30.98
675.481	30.7
675.668	31.08
675.854	30.69
676.041	29.82
676.227	29.5
676.414	28.93
676.601	28.79
676.787	28.42
676.974	27.9
677.16	27.93
677.347	28.07
677.533	27.94
677.719	27.69
677.906	27.76
678.092	27.84
678.279	27.96
678.465	28.21
678.651	27.75
678.838	28.05
679.024	28
679.21	27.77
679.397	27.87
679.583	28.1
679.769	28.44
679.955	28.49
680.142	28.76
680.328	29.29
680.514	29.61
680.7	30.37
680.886	30.32
681.073	30.26
681.259	29.76
681.445	29.6
681.631	30.06
681.817	30.01
682.003	30.21
682.189	29.99
682.375	29.42
682.561	29.3
682.747	29.05
682.933	28.61
683.119	28.87
683.305	29.47
683.491	29.31
683.677	28.73
683.863	28.6
684.049	28.36
684.235	28.64
684.42	29.04
684.606	28.75
684.792	28.7
684.978	29.47
685.164	29.49
685.349	29.1
685.535	30.08
685.721	30.28
685.907	30.56
686.092	31.55
686.278	31.57
686.464	31.56
686.649	31.66
686.835	31.87
687.021	31.55
687.206	31.51
687.392	31.74
687.577	30.55
687.763	30.65
687.948	31.04
688.134	30.42
688.319	30.59
688.505	30.26
688.69	30.35
688.876	29.88
689.061	29.67
689.247	29.85
689.432	30.38
689.618	30.99
689.803	30.59
689.988	30.05
690.174	29.64
690.359	29.38
690.544	29.4
690.73	29.12
690.915	29.26
691.1	29.41
691.285	29.36
691.471	29.2
691.656	28.73
691.841	29.32
692.026	29.39
692.211	29.54
692.396	29.54
692.582	29.9
692.767	29.54
692.952	29.56
693.137	29.35
693.322	28.78
693.507	28.57
693.692	28.55
693.877	28.47
694.062	28.82
694.247	29.04
694.432	29.64
694.617	29.48
694.802	30.52
694.987	30.18
695.172	30.85
695.357	31.09
695.541	31.04
695.726	30.99
695.911	30.85
696.096	30.43
696.281	30.09
696.466	29.59
696.65	29.73
696.835	28.96
697.02	29.26
697.204	28.96
697.389	28.95
697.574	28.75
697.759	29.01
697.943	28.25
698.128	28.34
698.312	28.78
698.497	28.45
698.682	28.39
698.866	28.35
699.051	28.52
699.235	28.34
699.42	28.59
699.604	28.58
699.789	28.68
699.973	28.96
700.158	28.9
700.342	28.79
700.527	29.41
700.711	29.54
700.895	29.39
701.08	29.7
701.264	30.39
701.448	30.22
701.633	30.12
701.817	30.37
702.001	31.07
702.186	31.4
702.37	31.56
702.554	31.33
702.738	30.58
702.923	31.65
703.107	31.65
703.291	31.55
703.475	32.12
703.659	33.16
703.843	32.98
704.027	32.87
704.212	32.58
704.396	32.04
704.58	31.73
704.764	32.5
704.948	31.4
705.132	31.03
705.316	31.31
705.5	30.45
705.684	30.64
705.868	31.25
706.052	31.8
706.235	32.43
706.419	32.92
706.603	33.19
706.787	33.3
706.971	33.98
707.155	34
707.339	33.92
707.522	34.82
707.706	33.7
707.89	32.96
708.074	33.36
708.257	33.34
708.441	33.46
708.625	32.44
708.808	32.65
708.992	32.66
709.176	33.12
709.359	32.39
709.543	31.96
709.727	32.69
709.91	33.25
710.094	32.51
710.277	32
710.461	32.13
710.644	33.04
710.828	33.4
711.011	33.37
711.195	33.2
711.378	33.3
711.562	33.55
711.745	33.7
711.928	33.24
712.112	32.93
712.295	33.07
712.478	32.88
712.662	32.9
712.845	31.32
713.028	31.52
713.212	30.86
713.395	30.76
713.578	30.71
713.761	30.37
713.945	29.96
714.128	30.09
714.311	29.97
714.494	29.81
714.677	30
714.86	30.57
715.043	30.3
715.227	30.29
715.41	30.25
715.593	30.24
715.776	30.48
715.959	30.75
716.142	30.83
716.325	30.78
716.508	30.05
716.691	29.69
716.874	29.74
717.057	29.44
717.239	30.19
717.422	30.97
717.605	30.34
717.788	29.87
717.971	30.19
718.154	29.96
718.337	30.14
718.519	31.03
718.702	30.67
718.885	30.77
719.068	30.35
719.25	30.4
719.433	29.97
719.616	30.45
719.798	30.69
719.981	30.43
720.164	30.17
720.346	29.41
720.529	28.97
720.712	29.43
720.894	29.8
721.077	31.15
721.259	30.91
721.442	30.51
721.624	30.41
721.807	30.71
721.989	30.78
722.172	31.92
722.354	31.93
722.537	32.06
722.719	31.77
722.901	31.66
723.084	31.54
723.266	31.3
723.448	31.56
723.631	31.13
723.813	31.31
723.995	30.7
724.178	30.34
724.36	31.52
724.542	31.93
724.724	32.84
724.907	32.14
725.089	30.84
725.271	30.45
725.453	30.03
725.635	30.31
725.817	29.49
725.999	30.45
726.181	30.03
726.364	29.91
726.546	29.34
726.728	28.98
726.91	29.26
727.092	30.54
727.274	30.75
727.456	30.87
727.638	30.86
727.819	30.97
728.001	31.29
728.183	30.9
728.365	31.13
728.547	30.68
728.729	30.62
728.911	31.13
729.093	31.51
729.274	31.27
729.456	31.82
729.638	31.1
729.82	31.3
730.001	30.69
730.183	30.86
730.365	30.04
730.546	30.48
730.728	30.33
730.91	29.72
731.091	29.22
731.273	30.04
731.455	29.79
731.636	30.21
731.818	29.41
731.999	29.67
732.181	30.29
732.362	30.66
732.544	30.18
732.725	30.89
732.907	31.23
733.088	30.25
733.27	29.19
733.451	29.6
733.633	29.6
733.814	30.33
733.995	29.11
734.177	27.72
734.358	27.27
734.539	27.91
734.721	27.38
734.902	27.43
735.083	28.41
735.264	28.74
735.446	29.01
735.627	29.7
735.808	29.98
735.989	30.98
736.17	32.15
736.351	32.53
736.533	32.45
736.714	32.6
736.895	33
737.076	32.82
737.257	32.96
737.438	31.76
737.619	30.5
737.8	30.33
737.981	29.6
738.162	29.74
738.343	29.24
738.524	28.16
738.705	27.86
738.886	27.69
739.067	27.85
739.247	27.95
739.428	28.03
739.609	29.21
739.79	29.21
739.971	30.37
740.151	29.33
740.332	29.68
740.513	31.52
740.694	31.38
740.874	30.77
741.055	30.66
741.236	30.59
741.417	31.05
741.597	30.95
741.778	30.92
741.958	30.43
742.139	30.89
742.32	30.72
742.5	29.79
742.681	29.4
742.861	30
743.042	29.98
743.222	29.41
743.403	29.34
743.583	30.23
743.764	29.44
743.944	28.86
744.124	30.08
744.305	30.38
744.485	31.32
744.666	32.83
744.846	32
745.026	31.65
745.207	32.64
745.387	34.02
745.567	32.69
745.747	33.88
745.928	33.59
746.108	33.35
746.288	33.4
746.468	32.72
746.648	30.81
746.829	32.13
747.009	31.28
747.189	31.12
747.369	29.93
747.549	30.78
747.729	31.1
747.909	31.91
748.089	30.89
748.269	30.85
748.449	30.73
748.629	31.72
748.809	30.42
748.989	30.9
749.169	30.46
749.349	30.12
749.529	29.41
749.709	29.2
749.889	28.81
750.068	28.73
750.248	28.93
750.428	29.11
750.608	28.13
750.788	28.45
750.967	28.87
751.147	27.82
751.327	27.73
751.507	27.98
751.686	27.5
751.866	28.4
752.046	29.24
752.225	27.47
752.405	27.39
752.585	27.92
752.764	28.38
752.944	28.32
753.123	27.98
753.303	28.41
753.482	27.12
753.662	26.61
753.841	26.75
754.021	25.66
754.2	26.78
754.38	27.48
754.559	28.98
754.739	28.71
754.918	28.21
755.097	30.05
755.277	28.96
755.456	30.03
755.635	30.81
755.815	30.6
755.994	30.86
756.173	30.91
756.352	28.76
756.532	27.82
756.711	27.24
756.89	27.68
757.069	27.83
757.248	28.09
757.427	27.55
757.607	27.4
757.786	26.6
757.965	27.48
758.144	27.78
758.323	28.33
758.502	27.69
758.681	28.52
758.86	29.08
759.039	29.75
759.218	30.51
759.397	31.23
759.576	31.76
759.755	31.7
759.934	31.26
760.113	31.12
760.291	32.8
760.47	33.36
760.649	33.33
760.828	32.94
761.007	31.41
761.186	31.25
761.364	31.12
761.543	29.96
761.722	29.77
761.901	29.55
762.079	29.47
762.258	28.79
762.437	28.06
762.615	27.9
762.794	28.96
762.972	29.98
763.151	30.31
763.33	29.84
763.508	30.2
763.687	30.63
763.865	30.98
764.044	31.45
764.222	31.96
764.401	32.67
764.579	32.6
764.758	32.19
764.936	31.91
765.114	32.42
765.293	33.47
765.471	34.16
765.65	34.68
765.828	34.52
766.006	34.21
766.184	33.58
766.363	33.1
766.541	32.82
766.719	32.52
766.898	32.26
767.076	31.74
767.254	31.62
767.432	30.77
767.61	30.27
767.788	30.03
767.967	29.21
768.145	29.43
768.323	29.21
768.501	29.59
768.679	29.8
768.857	29.99
769.035	29.56
769.213	28.5
769.391	30.19
769.569	29.47
769.747	29.14
769.925	29.71
770.103	30.15
770.281	30.72
770.459	30.53
770.636	30.42
770.814	30.03
770.992	29.87
771.17	31.6
771.348	30.43
771.525	30.92
771.703	31.53
771.881	32.74
772.059	32.91
772.236	32.43
772.414	34.01
772.592	34.12
772.769	36.02
772.947	35.85
773.125	33.31
773.302	31.81
773.48	33.23
773.657	32.38
773.835	31.57
774.013	29.78
774.19	31.72
774.368	30.66
774.545	29.5
774.723	28.71
774.9	27.8
775.077	28.84
775.255	29.51
775.432	28.04
775.61	27.89
775.787	26.92
775.964	28.27
776.142	27.09
776.319	25.57
776.496	25.91
776.674	25.12
776.851	26.25
777.028	25.04
777.205	25.32
777.382	24.77
777.56	26.18
777.737	26.17
777.914	26.11
778.091	25.62
778.268	28.27
778.445	28.87
778.622	28.83
778.8	29.33
778.977	31.51
779.154	33.16
779.331	34.69
779.508	33.33
779.685	34.54
779.862	34.2
780.038	34.24
780.215	33.92
780.392	34.63
780.569	34.97
780.746	34.03
780.923	32.19
781.1	30.07
781.277	27.75
781.453	29.52
781.63	28.85
781.807	30.15
781.984	28.85
782.16	27.46
782.337	26.75
782.514	24.98
782.691	26.38
782.867	25.72
783.044	23.89
783.221	24.14
783.397	23.7
783.574	23.87
783.75	23.18
783.927	22.25
784.103	21.98
784.28	20.46
784.456	21.14
784.633	17.44
784.809	18.11
784.986	19.75
785.162	23.76
785.339	24
785.515	25.45
785.692	23.93
785.868	26.15
786.044	26.85
786.221	24.82
786.397	25.75
786.573	27.01
786.749	27.92
786.926	28.73
787.102	25.12
787.278	23.41
787.454	21.69
787.631	22.13
787.807	24.54
787.983	26.11
788.159	29.45
788.335	29.11
788.511	29.75
788.687	28.3
788.863	26.74
789.039	25.57
789.216	26.79
789.392	27.7
789.568	27.11
789.744	24.39
789.919	25.73
790.095	24.45
790.271	26.18
790.447	27.06
790.623	30.07
790.799	31.79
790.975	32.37
791.151	33.47
791.327	32.94
791.502	35.25
791.678	37.24
791.854	34.72
792.03	35.82
792.205	33.8
792.381	33.03
792.557	29.94
792.733	28.65
792.908	30.93
793.084	31.67
793.259	32.44
793.435	32.31
793.611	28.93
793.786	27.97
793.962	29.53
794.137	28.58
794.313	28.57
794.488	30.28
794.664	30.45
794.839	30.37
795.015	28.17
795.19	28.25
795.366	27.71
795.541	29.05
795.716	28.99
795.892	28.03
796.067	29.89
796.242	32.49
796.418	34.95
796.593	30.94
796.768	30.25
796.944	29.17
797.119	28.94
797.294	27.59
797.469	26.56
797.644	27.36
797.82	27.14
797.995	25.31
798.17	22.92
798.345	19.61
798.52	22.37
798.695	22.28
798.87	23.18
799.045	23.59
799.22	22.79
799.395	24.69
799.57	24.69
799.745	24.52
799.92	26.41
800.095	27.92
800.27	28.58
800.445	28.6
800.62	29.49
800.795	31.35
800.97	30.33
801.145	30.16
801.319	27.2
801.494	27.05
801.669	24.8
801.844	22.75
802.018	20.87
802.193	21.78
802.368	23.69
802.543	22.35
802.717	21.53
802.892	21.84
803.067	22.89
803.241	26.19
803.416	27.35
803.59	30.7
803.765	30.11
803.94	29.98
804.114	29.36
804.289	29.27
804.463	30.25
804.638	27.6
804.812	26.35
804.986	29.28
805.161	28.66
805.335	26.35
805.51	23.61
805.684	25.09
805.858	27.66
806.033	28.95
806.207	29.76
806.381	29.44
806.556	29.24
806.73	30.18
806.904	28.39
807.078	25.05
807.253	23.3
807.427	24.58
807.601	23.74
807.775	22.8
807.949	21.02
808.123	19.25
808.298	17.67
808.472	21.06
808.646	19.32
808.82	14.8
808.994	16.71
809.168	18.26
809.342	15.92
809.516	16.54
809.69	16.14
809.864	15.66
810.038	15.09
810.212	14.36
810.385	9.46
810.559	14.21
810.733	18.21
810.907	19.83
811.081	23.24
811.255	28.46
811.428	27.84
811.602	25.42
811.776	24.7
811.95	26.94
812.123	30.52
812.297	31.92
812.471	25.75
812.644	25.83
812.818	24.13
812.992	20.91
813.165	18.27
813.339	21.07
813.512	23.66
813.686	25.55
813.86	21.08
814.033	20.13
814.207	18.04
814.38	20.09
814.554	19.89
814.727	21.31
814.9	21.84
815.074	20.19
815.247	17.86
815.421	16.58
815.594	15.53
815.767	18.87
815.941	16.93
816.114	18.81
816.287	19.51
816.46	17.87
816.634	16.78
816.807	18.48
816.98	19.19
817.153	20.76
817.327	20.64
817.5	22.37
817.673	19.13
817.846	16.31
818.019	16.91
818.192	16.73
818.365	15.59
818.538	19.62
818.711	20.79
818.884	23.78
819.057	21.97
819.23	26.59
819.403	27.03
819.576	29.01
819.749	28.8
819.922	31.77
820.095	33.04
820.268	37.05
820.441	35.7
820.614	35.02
820.786	32.27
820.959	31.78
821.132	30.54
821.305	30.25
821.477	31.06
821.65	32.81
821.823	32.49
821.996	31.74
822.168	30.13
822.341	29.84
822.514	30.25
822.686	30.31
822.859	30.74
823.031	31.38
823.204	30.84
823.376	30.98
823.549	30.97
823.722	30.95
823.894	31.02
824.067	31.94
824.239	32.31
824.411	32.2
824.584	32.58
824.756	32.04
824.929	30.66
825.101	31.64
825.273	31.18
825.446	30.53
825.618	30.56
825.79	31.16
825.963	31.36
826.135	30.76
826.307	31.1
826.479	29.6
826.652	31.15
826.824	31.42
826.996	30.84
827.168	30.99
827.34	31.63
827.512	30.35
827.684	28.77
827.856	27.58
828.029	27.19
828.201	26.26
828.373	26.88
828.545	25.43
828.717	26.5
828.889	26.76
829.061	26.14
829.232	24.12
829.404	25.58
829.576	26.12
829.748	26.11
829.92	27.75
830.092	27.86
830.264	28.2
830.436	28.63
830.607	28.26
830.779	28.18
830.951	29.34
831.123	31.29
831.294	30.87
831.466	30.19
831.638	30.33
831.809	28.28
831.981	27.14
832.153	30.22
832.324	29.17
832.496	27.82
832.667	24.95
832.839	22.19
833.011	23.02
833.182	20.78
833.354	21.81
833.525	24.25
833.697	24.66
833.868	25.95
834.039	24.74
834.211	24.1
834.382	24.77
834.554	28.04
834.725	29.75
834.896	28.31
835.068	28.27
835.239	28.18
835.41	29.36
835.581	28.74
835.753	28.16
835.924	29.38
836.095	31.54
836.266	29.42
836.438	27.83
836.609	28.51
836.78	28.58
836.951	29.09
837.122	28.56
837.293	26.57
837.464	27.62
837.635	28.49
837.806	26.78
837.977	22.24
838.148	22.65
838.319	20.1
838.49	19.77
838.661	19.99
838.832	20.67
839.003	25.98
839.174	22.43
839.345	24.6
839.516	25.22
839.687	24.72
839.857	24.81
840.028	25.8
840.199	24.83
840.37	16.39
840.54	19.62
840.711	20.7
840.882	18.67
841.053	21.19
841.223	21.31
841.394	17.34
841.564	21.91
841.735	26.89
841.906	29.98
842.076	29.26
842.247	37.95
842.417	37.61
842.588	33.34
842.758	32.57
842.929	31.98
843.099	26.36
843.27	25.75
843.44	20.23
843.611	11.79
843.781	6.35
843.951	15.47
844.122	6.54
844.292	-0.87
844.462	6.27
844.633	6.34
844.803	-3.82
844.973	-3.52
845.144	-6.68
845.314	-17.2
845.484	-7.8
845.654	-14.37
845.824	-18.97
845.995	-10.94
846.165	-5.39
846.335	-8.41
846.505	-4.29
846.675	9.3
846.845	18.48
847.015	24.91
847.185	25.12
847.355	22.5
847.525	24.42
847.695	24.92
847.865	24.58
848.035	24.16
848.205	33.89
848.375	30.41
848.545	14.87
848.715	8.09
848.884	1.54
849.054	0.62
849.224	5.25
849.394	8.36
849.564	10.39
849.733	19.85
849.903	18.39
850.073	12.67
850.243	5.93
850.412	13.01
850.582	9.79
850.752	12.84
850.921	23.5
851.091	27.07
851.26	23.59
851.43	15.78
851.599	2.92
851.769	14.28
851.939	17.25
852.108	17.47
852.278	14.38
852.447	14.92
852.616	13.4
852.786	13.64
852.955	14.54
853.125	11.05
853.294	3.25
853.463	6.04
853.633	-6.55
853.802	-22.65
853.971	-31.73
854.141	-40.69
854.31	-50.33
854.479	-50.88
854.648	-65.32
854.818	-70.1
854.987	-50.3
855.156	-36.1
855.325	-41.45
855.494	-35.19
855.663	-36.48
855.832	-29.71
856.001	-29.55
856.171	-28.49
856.34	-27.04
856.509	-15.27
856.678	-30.66
856.847	-29.56
857.016	-29.14
857.185	-37.68
857.353	-30.62
857.522	-13.85
857.691	1.85
857.86	18.8
858.029	29.01
858.198	33.73
858.367	24.51
858.535	32.86
858.704	38.07
858.873	34.65
859.042	43.33
859.21	40.44
859.379	42.87
859.548	38.45
859.717	12.16
859.885	-7.78
860.054	-10.3
860.222	-3.46
860.391	-3.2
860.56	-29.6
860.728	-27.84
860.897	-32.33
861.065	-13.46
861.234	-14.99
861.402	-37.47
861.571	-19.68
861.739	-15.71
861.908	-9.79
862.076	-6.14
862.244	-4.03
862.413	5.66
862.581	13.64
862.749	20.08
862.918	16.45
863.086	6.36
863.254	3.92
863.423	-3.16
863.591	9.92
863.759	-2.46
863.927	-4.43
864.096	7.91
864.264	4.91
864.432	7.15
864.6	6.33
864.768	0.1
864.936	38.6
865.104	39.5
865.272	38.13
865.44	28.72
865.608	33.05
865.776	24.01
865.944	24.23
866.112	39.59
866.28	36.89
866.448	14.23
866.616	11.44
866.784	-11.64
866.952	-17.4
867.12	-4.76
867.288	3.23
867.455	0.07
867.623	-10
867.791	-71.79
867.959	-95.7
868.127	-44.52
868.294	-26.65
868.462	-28.38
868.63	-29.31
868.797	-2.84
868.965	-25.25
869.133	-30.38
869.3	-17
869.468	-7.72
869.636	-8.26
869.803	-8.09
869.971	-26.78
870.138	-29.16
870.306	-33.57
870.473	-28.35
870.641	-45.8
870.808	-24.94
870.975	-25.98
871.143	-37.7
871.31	-26.41
871.478	-26.29
871.645	-28.23
871.812	-45.78
871.98	-15.98
872.147	-18.35
872.314	-2.32
872.482	2.37
872.649	-0.5
872.816	1.54
872.983	12.61
873.15	-4.96
873.318	0.36
873.485	-5.5
873.652	10.32
873.819	-7.21
873.986	15.12
874.153	-3.02
874.32	-0.2
874.487	9.39
874.654	1.99
874.821	-35.81
874.988	-12.31
875.155	-22.69
875.322	-4.92
875.489	-9.85
875.656	-7.89
875.823	-14.16
875.99	-6.87
876.157	-9.26
876.324	-14.42
876.49	-4.52
876.657	3.26
876.824	10.67
876.991	21.21
877.157	2.29
877.324	4.14
877.491	8.11
877.658	2.77
877.824	-3.64
877.991	4.28
878.157	2.67
878.324	-0.56
878.491	8.07
878.657	5.27
878.824	2.01
878.99	18.16
879.157	8.44
879.323	4.57
879.49	2.45
879.656	13.46
879.823	6.65
879.989	11.89
880.156	11.21
880.322	7.41
880.488	1.63
880.655	0.09
880.821	0.22
880.987	12.77
881.154	15.07
881.32	15.43
881.486	19.82
881.652	18.92
881.819	16.02
881.985	16.81
882.151	19.59
882.317	22.56
882.483	22.52
882.649	23.77
882.816	24.66
882.982	26.24
883.148	27.42
883.314	24.79
883.48	28.51
883.646	27.75
883.812	29.77
883.978	29.15
884.144	29.21
884.31	30.09
884.476	29.21
884.642	28.2
884.807	27.7
884.973	26.56
885.139	27.4
885.305	24.71
885.471	26.76
885.637	24.47
885.802	24.23
885.968	25.25
886.134	24.85
886.3	25.09
886.465	27.53
886.631	28.24
886.797	30.72
886.962	31.69
887.128	30
887.293	29.59
887.459	31.86
887.625	36.06
887.79	36.11
887.956	36.86
888.121	38.42
888.287	35.32
888.452	35.24
888.618	34.35
888.783	34.1
