Data from CB_035_Reflection_21-32-08-975.txt Node
Date: Wed Nov 11 21:32:08 EST 2015
User: robert
Spectrometer: USB4E03001
Autoset integration time: false
Trigger mode: 4
Integration Time (sec): 1.000000E-1
Scans to average: 15
Electric dark correction enabled: true
Nonlinearity correction enabled: false
Boxcar width: 5
Stray light correction enabled: false
XAxis mode: Wavelengths
Stop averaging: false
Number of Pixels in Spectrum: 3648
>>>>>Begin Spectral Data<<<<<
177.566	-137.5
177.785	298.68
178.005	49.63
178.225	-73.72
178.445	65.75
178.665	25.31
178.885	461.58
179.105	-68.95
179.324	61.37
179.544	82.45
179.764	141.43
179.984	76.11
180.204	105.82
180.423	122.8
180.643	91.92
180.863	85.61
181.083	44.8
181.302	47.93
181.522	29.38
181.742	16.39
181.961	11.87
182.181	3.44
182.401	11.21
182.621	4.17
182.84	-6.71
183.06	0.51
183.279	-11.44
183.499	23.19
183.719	14.18
183.938	18.76
184.158	34.3
184.377	20.65
184.597	22.27
184.816	29.14
185.036	26.74
185.256	41.22
185.475	48.58
185.695	26.41
185.914	-21.1
186.134	55.62
186.353	91.11
186.572	42.1
186.792	35.77
187.011	23.61
187.231	7.4
187.45	-0.57
187.67	-3.25
187.889	-5.89
188.108	27.76
188.328	23.88
188.547	3.82
188.766	-12.3
188.986	-22.04
189.205	-17.96
189.424	-17.24
189.644	-26.92
189.863	-12.07
190.082	-8.88
190.302	-3.81
190.521	-12.04
190.74	-0.04
190.959	23.19
191.178	24.69
191.398	22.04
191.617	40.89
191.836	44.24
192.055	47.67
192.274	53.28
192.494	60.12
192.713	61.98
192.932	67.05
193.151	68.99
193.37	64.03
193.589	80.58
193.808	85.94
194.027	66.64
194.246	79.7
194.465	67.9
194.685	58.16
194.904	43.19
195.123	26.93
195.342	23.88
195.561	38.29
195.78	16.04
195.999	21.62
196.218	40.41
196.436	41.56
196.655	28.58
196.874	45.66
197.093	69.66
197.312	78.73
197.531	94.35
197.75	83.55
197.969	81.07
198.188	73.89
198.407	63.34
198.625	42.57
198.844	27.28
199.063	36.27
199.282	35.31
199.501	19.03
199.719	15.82
199.938	21.69
200.157	-15.6
200.376	35.73
200.594	71.55
200.813	67.48
201.032	91.91
201.251	167.89
201.469	134.71
201.688	108.9
201.907	94
202.125	79.74
202.344	82.54
202.563	103.53
202.781	74.77
203	53.72
203.218	54.86
203.437	64.81
203.656	48.36
203.874	39.07
204.093	38.18
204.311	42.17
204.53	32.94
204.748	21.32
204.967	12.9
205.185	11.52
205.404	32.97
205.622	26.78
205.841	31.39
206.059	27.7
206.278	45.68
206.496	49.06
206.715	41.73
206.933	51.98
207.151	50.67
207.37	50.97
207.588	49.13
207.806	45.83
208.025	60.37
208.243	51.17
208.461	60.51
208.68	50.71
208.898	49.08
209.116	33.39
209.335	41.2
209.553	60.24
209.771	51.12
209.989	54.83
210.208	37.13
210.426	21.86
210.644	17.5
210.862	16.7
211.081	41.18
211.299	58.67
211.517	90.24
211.735	50.59
211.953	38.31
212.171	63.58
212.39	58.21
212.608	70.08
212.826	62.77
213.044	87.65
213.262	57.99
213.48	29.22
213.698	19.91
213.916	28.62
214.134	23.41
214.352	-8.96
214.57	-21.13
214.788	-15.48
215.006	-33.82
215.224	-43.84
215.442	-100.36
215.66	-92.26
215.878	12.95
216.096	21.63
216.314	2.17
216.532	15.32
216.75	43.62
216.968	60.8
217.185	36.77
217.403	40.98
217.621	40.29
217.839	38.53
218.057	41.4
218.275	39.59
218.492	46.23
218.71	51.69
218.928	57.32
219.146	53.98
219.363	50.24
219.581	71.41
219.799	63.73
220.017	82.62
220.234	85.14
220.452	107.64
220.67	79.01
220.887	62.57
221.105	56.69
221.323	37.7
221.54	29.98
221.758	45.52
221.976	33.26
222.193	36.3
222.411	27.07
222.629	37.86
222.846	24.04
223.064	25.23
223.281	38.46
223.499	30.16
223.716	30.18
223.934	36.31
224.151	26.78
224.369	20.36
224.586	25.57
224.804	34.76
225.021	13.32
225.239	7.83
225.456	6.56
225.674	-3.21
225.891	14.3
226.108	22.82
226.326	11.17
226.543	12.74
226.76	25.95
226.978	9.03
227.195	8.27
227.413	8.45
227.63	14.17
227.847	15.89
228.064	15.42
228.282	8.73
228.499	3.7
228.716	6.99
228.934	8.78
229.151	7.4
229.368	10.78
229.585	11.82
229.802	14.25
230.02	12.3
230.237	10.5
230.454	10.5
230.671	14.42
230.888	16.88
231.105	17.28
231.323	16.67
231.54	17.81
231.757	15.45
231.974	11.28
232.191	6.66
232.408	6.46
232.625	6.39
232.842	8.11
233.059	6.53
233.276	10.44
233.493	14.52
233.71	15.67
233.927	14.97
234.144	13.05
234.361	15.32
234.578	18.21
234.795	21.63
235.012	22.41
235.229	19.44
235.446	21.9
235.663	19.98
235.879	13.4
236.096	10.64
236.313	12.17
236.53	13.8
236.747	13.99
236.964	14.75
237.181	15.61
237.397	11.5
237.614	11.39
237.831	6.24
238.048	4.08
238.264	6.08
238.481	12.02
238.698	12.8
238.915	16.91
239.131	16.19
239.348	14.28
239.565	11.42
239.781	14.55
239.998	13.78
240.215	14.79
240.431	17.23
240.648	19.67
240.865	13.62
241.081	13.93
241.298	10.8
241.514	12.23
241.731	12.9
241.947	11.78
242.164	12.85
242.38	11.41
242.597	11.42
242.814	10.57
243.03	9.59
243.246	11.43
243.463	11.35
243.679	13.97
243.896	13.83
244.112	13.92
244.329	17.43
244.545	16.05
244.762	19.19
244.978	19.24
245.194	20.66
245.411	18.24
245.627	16.17
245.843	16.22
246.06	13.75
246.276	12.29
246.492	10.42
246.709	9.9
246.925	11.51
247.141	11.91
247.357	10.95
247.574	10.82
247.79	11.7
248.006	11.94
248.222	11.9
248.439	12.37
248.655	13.05
248.871	13.89
249.087	13.38
249.303	12.59
249.519	11.14
249.736	11.1
249.952	9.99
250.168	10.74
250.384	11.25
250.6	10.66
250.816	10.25
251.032	8.97
251.248	10.79
251.464	9.87
251.68	11.59
251.896	12.53
252.112	13.76
252.328	13.15
252.544	11.84
252.76	12.41
252.976	11.4
253.192	10.95
253.408	10.21
253.624	10.14
253.84	10.43
254.056	8.01
254.272	11.23
254.487	11.28
254.703	10.85
254.919	12.56
255.135	11.03
255.351	11.32
255.567	13.69
255.782	16.16
255.998	15.3
256.214	13.86
256.43	13.64
256.646	8.16
256.861	7.65
257.077	10.22
257.293	6.54
257.508	7.26
257.724	7.47
257.94	7.28
258.155	7.09
258.371	7.23
258.587	8.63
258.802	8.79
259.018	9.11
259.234	8.4
259.449	8.38
259.665	9.36
259.88	9.57
260.096	9.8
260.312	9.13
260.527	8.86
260.743	8.74
260.958	8.56
261.174	8.75
261.389	9.55
261.605	10.38
261.82	10.63
262.036	10.67
262.251	11.99
262.466	12.33
262.682	12.89
262.897	14.64
263.113	15.12
263.328	14.99
263.543	14.3
263.759	12
263.974	11.49
264.189	11.47
264.405	10.81
264.62	7.05
264.835	7.03
265.051	7.55
265.266	7.81
265.481	8.1
265.696	9.51
265.912	9.69
266.127	10.8
266.342	11.16
266.557	10.45
266.773	9.53
266.988	10.13
267.203	8.7
267.418	7.92
267.633	7.47
267.848	7.09
268.064	5.12
268.279	5.55
268.494	5.35
268.709	5.88
268.924	7.53
269.139	8.42
269.354	9.52
269.569	10.19
269.784	11.19
269.999	10.8
270.214	11.64
270.429	12.91
270.644	12.56
270.859	11.94
271.074	11.57
271.289	10.89
271.504	11.8
271.719	11.19
271.934	10.45
272.149	9.96
272.363	10.39
272.578	10.87
272.793	11.33
273.008	11.32
273.223	12.05
273.438	11.81
273.653	12.84
273.867	12.81
274.082	12.93
274.297	13.49
274.512	14.41
274.726	12.24
274.941	11.24
275.156	11.32
275.371	11.13
275.585	10.93
275.8	11.62
276.015	10.33
276.229	10.24
276.444	9.32
276.659	10.09
276.873	10.41
277.088	12.5
277.302	11.78
277.517	11.64
277.732	12.98
277.946	13.39
278.161	13.23
278.375	12.22
278.59	12.66
278.804	12.99
279.019	11.85
279.233	10.99
279.448	10.05
279.662	10.59
279.877	9.85
280.091	8.68
280.306	9.57
280.52	8.37
280.735	10.61
280.949	8.33
281.163	9.06
281.378	8.66
281.592	7.62
281.806	8.51
282.021	7.73
282.235	7.88
282.449	8.86
282.664	7.01
282.878	7.42
283.092	6.57
283.307	8.33
283.521	9.17
283.735	10.96
283.949	12.15
284.164	11.81
284.378	12.14
284.592	12.52
284.806	12.06
285.02	11.97
285.234	12.76
285.449	12.4
285.663	11.54
285.877	10.57
286.091	10.42
286.305	10.15
286.519	10.25
286.733	10.47
286.947	10.06
287.161	9.18
287.375	9.71
287.589	9.24
287.803	8.81
288.017	8.83
288.231	10.11
288.445	9.64
288.659	9.47
288.873	10.75
289.087	11.33
289.301	11.4
289.515	12.95
289.729	12.66
289.943	12.8
290.157	13.52
290.371	13.97
290.584	13.98
290.798	13.54
291.012	14.3
291.226	14.32
291.44	13.13
291.654	13.16
291.867	11.77
292.081	12.25
292.295	12.48
292.509	12.46
292.722	11.64
292.936	10.92
293.15	12.03
293.364	12.1
293.577	10.67
293.791	11.9
294.005	11.4
294.218	12.63
294.432	12.93
294.645	12.21
294.859	10.22
295.073	9.89
295.286	8.96
295.5	8.63
295.713	7.97
295.927	7.94
296.14	8.97
296.354	10.28
296.568	9.23
296.781	9.44
296.994	9.46
297.208	10.79
297.421	11.32
297.635	11.67
297.848	11.36
298.062	12.09
298.275	12.74
298.489	11.72
298.702	11.2
298.915	12.27
299.129	12.74
299.342	13.07
299.555	13.13
299.769	13.53
299.982	13.85
300.195	14.49
300.409	13.7
300.622	13.44
300.835	13.53
301.048	12.03
301.262	11.6
301.475	10.5
301.688	11.47
301.901	12.26
302.115	12.57
302.328	12.58
302.541	13.21
302.754	12.69
302.967	13.34
303.18	14.2
303.393	15.25
303.607	14.68
303.82	15.18
304.033	13.59
304.246	13.02
304.459	13.28
304.672	12.48
304.885	12.34
305.098	11.89
305.311	11.5
305.524	11.04
305.737	11.98
305.95	12.45
306.163	12.74
306.376	14.39
306.589	15.34
306.802	14.71
307.015	15.74
307.228	15.01
307.44	16.03
307.653	16.66
307.866	15.97
308.079	15.26
308.292	14.7
308.505	14.47
308.718	13.61
308.93	13
309.143	13.28
309.356	13.1
309.569	13.38
309.781	13.5
309.994	13.33
310.207	14.03
310.42	14.28
310.632	15.59
310.845	15.79
311.058	16.15
311.27	16.26
311.483	15.89
311.696	16.24
311.908	16.95
312.121	16.46
312.333	15.11
312.546	15
312.759	14.96
312.971	14.58
313.184	14.35
313.396	14.11
313.609	14.51
313.821	15.21
314.034	14.89
314.246	13.79
314.459	14.38
314.671	15.57
314.884	15.54
315.096	15.8
315.309	14.72
315.521	13.81
315.733	13.27
315.946	11.51
316.158	11.11
316.371	10.55
316.583	10.59
316.795	11.04
317.008	11.67
317.22	12.29
317.432	12.07
317.644	12.81
317.857	15.05
318.069	15.64
318.281	15.67
318.494	15.5
318.706	16.73
318.918	17.2
319.13	17.66
319.342	17.57
319.555	16.94
319.767	16.94
319.979	16.96
320.191	15.11
320.403	16.41
320.615	16.74
320.827	16.72
321.039	15.87
321.252	15.94
321.464	15.17
321.676	13.68
321.888	14.44
322.1	13.93
322.312	14.01
322.524	14.57
322.736	13.11
322.948	14
323.16	13.86
323.372	14.23
323.584	14.05
323.796	14.31
324.007	15.85
324.219	16.26
324.431	17.44
324.643	17.93
324.855	18.59
325.067	19.04
325.279	19.39
325.491	20.9
325.702	21.46
325.914	21.57
326.126	21.42
326.338	20.22
326.55	20.11
326.761	20.26
326.973	20.13
327.185	20.58
327.396	21.4
327.608	21.4
327.82	21.39
328.032	21.71
328.243	21.82
328.455	22.83
328.666	25.09
328.878	24.71
329.09	23.44
329.301	23.29
329.513	23.12
329.725	21.82
329.936	22.66
330.148	22.61
330.359	22.71
330.571	24.26
330.782	25.44
330.994	24.14
331.205	25.79
331.417	27.23
331.628	28.75
331.84	29.52
332.051	31.31
332.262	30.78
332.474	31.52
332.685	31.86
332.897	31.56
333.108	31.66
333.319	32.7
333.531	33.39
333.742	33.92
333.953	33.88
334.165	33.2
334.376	33.17
334.587	34
334.799	33.87
335.01	34.26
335.221	33.75
335.432	33.77
335.644	33.66
335.855	32.97
336.066	32.52
336.277	32.5
336.488	33.31
336.7	32.72
336.911	32.9
337.122	32.66
337.333	32.61
337.544	33.04
337.755	32.99
337.966	32.57
338.177	33.13
338.388	32.92
338.599	32.66
338.811	31.9
339.022	32.4
339.233	31.87
339.444	31.49
339.655	31.66
339.866	31.98
340.076	30.71
340.287	31.69
340.498	31.4
340.709	32.1
340.92	31.92
341.131	32.37
341.342	32.15
341.553	32.18
341.764	31.32
341.975	30.92
342.185	31.19
342.396	32.21
342.607	31.8
342.818	31.23
343.029	30.98
343.239	31.5
343.45	31.25
343.661	31.65
343.872	31.44
344.082	32.07
344.293	31.74
344.504	31.59
344.714	32.35
344.925	33.15
345.136	33.5
345.346	34.67
345.557	34.48
345.768	34.3
345.978	34.74
346.189	35.16
346.399	35.89
346.61	36.39
346.821	36.16
347.031	35.38
347.242	34.98
347.452	35.28
347.663	35.05
347.873	34.61
348.084	35
348.294	34.28
348.504	33.58
348.715	33.05
348.925	32.7
349.136	31.97
349.346	31.18
349.557	31.06
349.767	30.21
349.977	29.73
350.188	29.74
350.398	29.65
350.608	29.64
350.819	29.85
351.029	29.61
351.239	29.93
351.449	31.51
351.66	31.32
351.87	31.55
352.08	32.17
352.29	31.97
352.501	32.72
352.711	32.33
352.921	32.4
353.131	32.81
353.341	33.53
353.552	33.78
353.762	32.35
353.972	33.41
354.182	32.52
354.392	32.49
354.602	32.33
354.812	31.53
355.022	31.73
355.232	32.12
355.442	31.85
355.652	31.71
355.862	30.89
356.072	31.5
356.282	31.69
356.492	32.25
356.702	32.35
356.912	32.15
357.122	32.18
357.332	32.63
357.542	31.94
357.752	31.6
357.962	31.09
358.171	31.34
358.381	30.96
358.591	29.77
358.801	29.11
359.011	28.22
359.221	28.71
359.43	29.35
359.64	28.62
359.85	28.94
360.06	28.91
360.269	29.25
360.479	29.5
360.689	29.38
360.899	29.51
361.108	30
361.318	30.15
361.528	30.14
361.737	29.93
361.947	30.1
362.156	29.53
362.366	29.21
362.576	29.21
362.785	29.11
362.995	29.43
363.204	30.1
363.414	29.83
363.623	29.76
363.833	29.28
364.042	29.27
364.252	29.88
364.461	30.06
364.671	30.72
364.88	30.53
365.09	30.22
365.299	29.91
365.509	29.49
365.718	29.53
365.927	29.87
366.137	29.79
366.346	29.78
366.555	29.19
366.765	29.58
366.974	29.67
367.183	29.5
367.393	29.93
367.602	30.1
367.811	30.56
368.021	30.28
368.23	29.44
368.439	29.38
368.648	28.98
368.857	28.77
369.067	28.06
369.276	27.54
369.485	28.32
369.694	28.05
369.903	28.23
370.112	27.19
370.321	27.61
370.531	28.22
370.74	28.46
370.949	28.63
371.158	28.11
371.367	28.19
371.576	28.5
371.785	27.54
371.994	27.65
372.203	26.96
372.412	27.63
372.621	27.45
372.83	26.67
373.039	26.6
373.248	26.05
373.457	26.69
373.666	27.04
373.874	26.39
374.083	26.13
374.292	25.77
374.501	26.3
374.71	25.19
374.919	24.72
375.128	25.78
375.336	25.56
375.545	25.73
375.754	25.55
375.963	25.16
376.171	25.26
376.38	25.22
376.589	24.57
376.798	23.87
377.006	23.82
377.215	23.99
377.424	23.63
377.632	23.3
377.841	23.27
378.05	22.66
378.258	22.46
378.467	22
378.675	21.99
378.884	22.79
379.093	22.57
379.301	22.85
379.51	22.61
379.718	22.52
379.927	22.65
380.135	22.47
380.344	22.47
380.552	22.51
380.761	22.7
380.969	22.63
381.177	22.26
381.386	22.75
381.594	22.64
381.803	22.33
382.011	21.73
382.219	21.83
382.428	21.99
382.636	22.22
382.845	22.41
383.053	22.22
383.261	22.23
383.469	21.88
383.678	21.13
383.886	20.75
384.094	20.43
384.302	20.79
384.511	20.58
384.719	19.97
384.927	20.23
385.135	19.98
385.343	20.35
385.552	20.32
385.76	20.52
385.968	20.56
386.176	20.86
386.384	21.14
386.592	20.86
386.8	20.71
387.008	21.03
387.216	20.62
387.424	20.78
387.633	20.39
387.841	20.04
388.049	19.23
388.257	19.32
388.465	19.24
388.672	19.02
388.88	18.82
389.088	18.78
389.296	18.26
389.504	17.46
389.712	17.04
389.92	16.92
390.128	16.73
390.336	17.15
390.544	17.26
390.751	17.13
390.959	17.35
391.167	17.47
391.375	16.98
391.583	17.19
391.79	17.43
391.998	17.33
392.206	17.39
392.414	17.72
392.621	17.22
392.829	17.13
393.037	16.99
393.244	16.92
393.452	16.69
393.66	16.79
393.867	16.96
394.075	17.27
394.283	17.19
394.49	17.06
394.698	16.82
394.905	17.02
395.113	16.59
395.32	16.64
395.528	16.55
395.735	16.61
395.943	16.68
396.15	16.3
396.358	16.22
396.565	16.49
396.773	16.29
396.98	16.28
397.188	16.43
397.395	16.83
397.602	16.85
397.81	16.61
398.017	16.39
398.225	16.33
398.432	16.47
398.639	16.43
398.847	16.26
399.054	16.35
399.261	16.46
399.468	16.48
399.676	16.32
399.883	16.04
400.09	15.71
400.297	15.6
400.505	15.32
400.712	14.99
400.919	14.52
401.126	14.21
401.333	13.73
401.54	13.09
401.748	12.94
401.955	12.98
402.162	13.05
402.369	13.43
402.576	13.51
402.783	13.78
402.99	13.74
403.197	13.72
403.404	13.81
403.611	14.33
403.818	14.45
404.025	14.41
404.232	14.26
404.439	14
404.646	13.53
404.853	13.31
405.06	13.26
405.267	13.16
405.474	13.21
405.681	12.91
405.887	12.81
406.094	12.7
406.301	12.44
406.508	12.41
406.715	12.81
406.922	13.32
407.128	13.77
407.335	13.56
407.542	13.52
407.749	13.55
407.955	13.58
408.162	13.36
408.369	13.39
408.575	13.38
408.782	13.38
408.989	13.13
409.195	12.78
409.402	12.09
409.609	12.41
409.815	12.28
410.022	12.27
410.228	12.48
410.435	12.32
410.642	12.17
410.848	11.94
411.055	11.93
411.261	11.83
411.468	11.79
411.674	12.14
411.881	11.83
412.087	12.07
412.294	12.01
412.5	12.1
412.706	12.39
412.913	12.33
413.119	12.59
413.326	12.22
413.532	12.29
413.738	12.5
413.945	12.19
414.151	12.5
414.357	12.33
414.564	12.36
414.77	12.22
414.976	12.08
415.182	12.34
415.389	12.2
415.595	12.16
415.801	12.14
416.007	12.15
416.214	12.05
416.42	11.98
416.626	12.09
416.832	12.04
417.038	12.13
417.244	12.09
417.45	12.13
417.657	12.35
417.863	12.45
418.069	12.21
418.275	12.13
418.481	12.29
418.687	12.25
418.893	12.18
419.099	12.38
419.305	12.15
419.511	12.14
419.717	12.19
419.923	11.95
420.129	11.89
420.335	11.97
420.541	12.06
420.746	11.88
420.952	11.7
421.158	11.69
421.364	11.39
421.57	11.38
421.776	11.26
421.982	11.04
422.187	11.04
422.393	10.98
422.599	10.87
422.805	10.77
423.01	10.88
423.216	10.89
423.422	10.87
423.628	10.9
423.833	10.8
424.039	10.9
424.245	11
424.45	11.08
424.656	11.16
424.862	11.18
425.067	11.22
425.273	11.29
425.478	11.35
425.684	11.25
425.889	11.23
426.095	11.3
426.301	11.19
426.506	11.19
426.712	11.02
426.917	11.04
427.123	10.93
427.328	10.61
427.533	10.35
427.739	10.28
427.944	10.3
428.15	10.4
428.355	10.46
428.561	10.47
428.766	10.42
428.971	10.53
429.177	10.43
429.382	10.51
429.587	10.6
429.793	10.83
429.998	10.74
430.203	10.61
430.408	10.71
430.614	10.81
430.819	10.72
431.024	10.79
431.229	10.87
431.434	10.89
431.64	11.12
431.845	11.21
432.05	11.02
432.255	11
432.46	11.1
432.665	10.71
432.87	10.67
433.076	10.87
433.281	10.75
433.486	10.53
433.691	10.49
433.896	10.4
434.101	10.28
434.306	10.4
434.511	10.36
434.716	10.46
434.921	10.68
435.126	10.48
435.331	10.34
435.535	10.22
435.74	10.25
435.945	10.14
436.15	10.29
436.355	10.34
436.56	10.18
436.765	10.16
436.97	10.06
437.174	10.01
437.379	10.23
437.584	10.27
437.789	10.31
437.993	10.4
438.198	10.57
438.403	10.47
438.608	10.45
438.812	10.53
439.017	10.66
439.222	10.57
439.426	10.55
439.631	10.37
439.836	10.43
440.04	10.33
440.245	10.23
440.45	10.21
440.654	10.24
440.859	10.17
441.063	10.11
441.268	10.02
441.472	10.09
441.677	10.09
441.881	10.24
442.086	10.16
442.29	10.27
442.495	10.4
442.699	10.51
442.904	10.39
443.108	10.48
443.312	10.52
443.517	10.51
443.721	10.51
443.925	10.41
444.13	10.29
444.334	10.28
444.538	10.31
444.743	10.15
444.947	9.77
445.151	9.84
445.356	10
445.56	9.99
445.764	10.13
445.968	10.16
446.173	10.12
446.377	10.06
446.581	10.06
446.785	10.04
446.989	10.03
447.193	10.34
447.398	10.18
447.602	9.92
447.806	9.76
448.01	9.71
448.214	9.68
448.418	9.71
448.622	9.82
448.826	9.67
449.03	9.65
449.234	9.73
449.438	9.55
449.642	9.56
449.846	9.72
450.05	10.04
450.254	9.88
450.458	9.85
450.662	9.97
450.866	9.82
451.069	9.82
451.273	9.67
451.477	9.54
451.681	9.54
451.885	9.61
452.089	9.46
452.292	9.21
452.496	9.29
452.7	9.25
452.904	9.18
453.107	9.36
453.311	9.46
453.515	9.41
453.719	9.47
453.922	9.48
454.126	9.52
454.33	9.64
454.533	9.73
454.737	9.7
454.94	9.77
455.144	9.54
455.348	9.42
455.551	9.45
455.755	9.58
455.958	9.66
456.162	9.71
456.365	9.9
456.569	9.87
456.772	10.01
456.976	9.82
457.179	9.88
457.383	9.96
457.586	9.88
457.79	9.7
457.993	9.53
458.196	9.45
458.4	9.23
458.603	8.9
458.807	8.87
459.01	8.86
459.213	9.05
459.417	8.93
459.62	9.01
459.823	9.01
460.026	9.07
460.23	9.12
460.433	9.08
460.636	9.22
460.839	9.32
461.042	9.36
461.246	9.33
461.449	9.31
461.652	9.33
461.855	9.25
462.058	9.27
462.261	9.21
462.464	9.21
462.668	9.3
462.871	9.29
463.074	9.14
463.277	9.16
463.48	9.14
463.683	9.24
463.886	9.16
464.089	9.29
464.292	9.34
464.495	9.34
464.698	9.61
464.901	9.51
465.104	9.5
465.306	9.57
465.509	9.4
465.712	9.27
465.915	9.13
466.118	9.25
466.321	9.31
466.524	9.38
466.726	9.48
466.929	9.37
467.132	9.43
467.335	9.33
467.538	9.51
467.74	9.82
467.943	9.9
468.146	9.96
468.348	9.87
468.551	9.7
468.754	9.8
468.956	9.75
469.159	9.66
469.362	9.79
469.564	9.98
469.767	9.84
469.969	9.75
470.172	9.77
470.375	9.65
470.577	9.8
470.78	9.96
470.982	9.81
471.185	9.97
471.387	10.08
471.59	9.99
471.792	9.87
471.995	9.92
472.197	9.92
472.399	9.7
472.602	9.93
472.804	9.99
473.007	10.03
473.209	10.08
473.411	10.04
473.614	9.94
473.816	9.74
474.018	9.93
474.22	10.08
474.423	9.98
474.625	10.03
474.827	10.12
475.03	9.89
475.232	9.78
475.434	9.68
475.636	9.67
475.838	9.69
476.04	9.65
476.243	9.46
476.445	9.17
476.647	9.23
476.849	9.49
477.051	9.31
477.253	9.34
477.455	9.32
477.657	9.2
477.859	9.21
478.061	9.44
478.263	9.57
478.465	9.59
478.667	9.7
478.869	9.63
479.071	9.56
479.273	9.67
479.475	9.73
479.677	9.82
479.879	10.03
480.081	9.99
480.283	9.7
480.485	9.93
480.686	9.92
480.888	9.96
481.09	10.06
481.292	10.11
481.494	9.96
481.695	9.98
481.897	9.91
482.099	9.81
482.301	9.71
482.502	9.78
482.704	9.66
482.906	9.63
483.107	9.64
483.309	9.58
483.511	9.5
483.712	9.53
483.914	9.54
484.115	9.54
484.317	9.52
484.519	9.59
484.72	9.61
484.922	9.58
485.123	9.6
485.325	9.55
485.526	9.56
485.728	9.61
485.929	9.61
486.131	9.59
486.332	9.63
486.534	9.7
486.735	9.57
486.936	9.54
487.138	9.57
487.339	9.55
487.541	9.58
487.742	9.6
487.943	9.56
488.144	9.48
488.346	9.46
488.547	9.43
488.748	9.41
488.95	9.46
489.151	9.33
489.352	9.34
489.553	9.35
489.755	9.35
489.956	9.27
490.157	9.23
490.358	9.32
490.559	9.26
490.76	9.26
490.961	9.23
491.163	9.25
491.364	9.42
491.565	9.52
491.766	9.59
491.967	9.64
492.168	9.63
492.369	9.66
492.57	9.58
492.771	9.63
492.972	9.64
493.173	9.65
493.374	9.67
493.575	9.7
493.776	9.49
493.976	9.47
494.177	9.31
494.378	9.45
494.579	9.52
494.78	9.56
494.981	9.5
495.182	9.51
495.382	9.75
495.583	9.86
495.784	9.81
495.985	9.98
496.185	9.81
496.386	9.87
496.587	9.9
496.788	9.84
496.988	9.88
497.189	10.06
497.39	10.12
497.59	9.97
497.791	9.95
497.992	9.97
498.192	10.1
498.393	10.12
498.593	10.31
498.794	10.24
498.994	10.25
499.195	10.29
499.395	10.3
499.596	10.28
499.796	10.28
499.997	10.38
500.197	10.52
500.398	10.49
500.598	10.6
500.799	10.5
500.999	10.56
501.199	10.79
501.4	10.87
501.6	10.85
501.801	10.85
502.001	10.91
502.201	10.89
502.402	10.76
502.602	10.75
502.802	10.8
503.002	11.04
503.203	11.06
503.403	11.11
503.603	11.4
503.803	11.72
504.003	11.89
504.204	12.13
504.404	12.43
504.604	12.51
504.804	12.61
505.004	12.86
505.204	13.01
505.404	12.94
505.604	12.94
505.804	12.99
506.005	13.01
506.205	13.2
506.405	13.27
506.605	13.07
506.805	13.26
507.005	13.44
507.204	13.32
507.404	13.25
507.604	13.56
507.804	13.76
508.004	13.76
508.204	13.78
508.404	13.88
508.604	13.91
508.804	14.06
509.003	14.1
509.203	14.1
509.403	14.27
509.603	14.5
509.803	14.54
510.002	14.58
510.202	14.59
510.402	14.8
510.602	14.98
510.801	15.06
511.001	15.21
511.201	15.43
511.4	15.55
511.6	15.72
511.8	15.68
511.999	16.01
512.199	16.13
512.398	16.28
512.598	16.43
512.797	16.41
512.997	16.62
513.197	16.64
513.396	16.72
513.596	16.97
513.795	17.16
513.994	17.46
514.194	17.41
514.393	17.54
514.593	17.71
514.792	17.74
514.992	17.95
515.191	18.04
515.39	18.33
515.59	18.63
515.789	18.68
515.988	18.8
516.188	18.78
516.387	18.95
516.586	19.19
516.786	19.37
516.985	19.74
517.184	19.79
517.383	19.99
517.582	20.15
517.782	20.22
517.981	20.4
518.18	20.45
518.379	20.71
518.578	20.94
518.777	20.96
518.976	21.08
519.176	20.92
519.375	21.08
519.574	21.17
519.773	21.33
519.972	21.48
520.171	21.5
520.37	21.7
520.569	21.72
520.768	21.77
520.967	22.09
521.166	22.23
521.365	22.53
521.564	22.69
521.762	22.73
521.961	22.81
522.16	22.84
522.359	23.05
522.558	23.11
522.757	23.32
522.956	23.54
523.154	23.5
523.353	23.76
523.552	23.97
523.751	24.19
523.949	24.49
524.148	24.57
524.347	24.77
524.546	24.97
524.744	25.02
524.943	25.11
525.142	25.19
525.34	25.38
525.539	25.35
525.737	25.48
525.936	25.55
526.135	25.72
526.333	25.92
526.532	25.94
526.73	26.03
526.929	26.21
527.127	26.4
527.326	26.52
527.524	26.7
527.723	26.78
527.921	26.78
528.12	26.88
528.318	26.91
528.516	26.92
528.715	27.11
528.913	27.15
529.112	27.25
529.31	27.25
529.508	27.27
529.707	27.28
529.905	27.38
530.103	27.39
530.301	27.46
530.5	27.54
530.698	27.66
530.896	27.71
531.094	27.9
531.293	28.06
531.491	28.2
531.689	28.38
531.887	28.48
532.085	28.76
532.283	29.05
532.481	29.12
532.68	29.22
532.878	29.26
533.076	29.3
533.274	29.29
533.472	29.33
533.67	29.44
533.868	29.49
534.066	29.56
534.264	29.49
534.462	29.58
534.66	29.61
534.858	29.75
535.056	29.95
535.253	30.04
535.451	30.15
535.649	30.23
535.847	30.31
536.045	30.47
536.243	30.6
536.441	30.65
536.638	30.68
536.836	30.83
537.034	30.91
537.232	30.95
537.43	30.99
537.627	31.14
537.825	31.28
538.023	31.29
538.22	31.31
538.418	31.35
538.616	31.38
538.813	31.58
539.011	31.66
539.209	31.68
539.406	31.76
539.604	32
539.801	32.11
539.999	32.2
540.196	32.43
540.394	32.41
540.591	32.57
540.789	32.75
540.986	32.69
541.184	32.7
541.381	32.71
541.579	32.75
541.776	32.65
541.974	32.62
542.171	32.59
542.368	32.61
542.566	32.77
542.763	32.8
542.96	32.77
543.158	32.81
543.355	32.88
543.552	33.04
543.75	33.14
543.947	33.24
544.144	33.3
544.341	33.44
544.539	33.5
544.736	33.37
544.933	33.37
545.13	33.54
545.327	33.71
545.524	33.69
545.722	33.59
545.919	33.52
546.116	33.49
546.313	33.69
546.51	33.72
546.707	33.82
546.904	34.01
547.101	34.01
547.298	34.1
547.495	34.11
547.692	34.21
547.889	34.34
548.086	34.53
548.283	34.69
548.48	34.7
548.677	34.71
548.874	34.71
549.07	34.81
549.267	34.92
549.464	34.87
549.661	34.86
549.858	35.02
550.055	35.08
550.251	35.03
550.448	35.09
550.645	35.16
550.842	35.14
551.038	35.21
551.235	35.29
551.432	35.43
551.628	35.7
551.825	35.7
552.022	35.67
552.218	35.69
552.415	35.9
552.612	36.07
552.808	36.04
553.005	36.32
553.201	36.36
553.398	36.45
553.594	36.44
553.791	36.47
553.987	36.67
554.184	36.72
554.38	36.89
554.577	36.78
554.773	36.79
554.97	36.87
555.166	36.87
555.362	36.93
555.559	36.83
555.755	36.82
555.952	36.75
556.148	36.87
556.344	36.86
556.541	36.79
556.737	36.99
556.933	36.99
557.129	37.06
557.326	36.92
557.522	36.84
557.718	36.88
557.914	37.08
558.11	37.09
558.307	36.93
558.503	36.93
558.699	37.17
558.895	36.97
559.091	37.14
559.287	37.16
559.483	37.21
559.679	37.21
559.876	37.48
560.072	37.34
560.268	37.27
560.464	37.36
560.66	37.36
560.856	37.09
561.052	37.26
561.247	37.29
561.443	37.36
561.639	37.61
561.835	37.82
562.031	37.69
562.227	37.83
562.423	37.96
562.619	37.89
562.815	37.96
563.01	37.96
563.206	37.99
563.402	38.09
563.598	37.95
563.793	37.72
563.989	37.67
564.185	37.47
564.381	37.42
564.576	37.37
564.772	37.55
564.968	37.59
565.163	37.76
565.359	37.73
565.555	37.51
565.75	37.65
565.946	37.77
566.141	37.94
566.337	38.06
566.532	38.06
566.728	37.95
566.923	37.97
567.119	38.09
567.314	38.2
567.51	38.23
567.705	38.31
567.901	38.33
568.096	38.41
568.292	38.37
568.487	38.5
568.682	38.69
568.878	39.12
569.073	39.03
569.268	39.02
569.464	38.95
569.659	38.94
569.854	39.21
570.05	39.42
570.245	39.5
570.44	39.54
570.635	39.47
570.831	39.44
571.026	39.37
571.221	39.5
571.416	39.53
571.611	39.69
571.806	39.81
572.002	39.65
572.197	39.42
572.392	39.48
572.587	39.49
572.782	39.49
572.977	39.61
573.172	39.47
573.367	39.45
573.562	39.4
573.757	39.31
573.952	39.19
574.147	39.41
574.342	39.65
574.537	39.56
574.732	39.47
574.927	39.74
575.121	39.51
575.316	39.74
575.511	39.74
575.706	39.72
575.901	39.76
576.096	39.81
576.29	39.61
576.485	39.49
576.68	39.33
576.875	39.5
577.069	39.24
577.264	39.54
577.459	39.65
577.654	39.79
577.848	39.87
578.043	39.66
578.238	39.89
578.432	39.86
578.627	39.83
578.821	40.17
579.016	40.3
579.21	40.29
579.405	40.2
579.6	39.81
579.794	39.71
579.989	39.77
580.183	39.79
580.378	39.86
580.572	40
580.766	40.07
580.961	40.25
581.155	40.12
581.35	40.35
581.544	40.25
581.738	40.51
581.933	40.72
582.127	40.91
582.321	41.14
582.516	40.77
582.71	40.87
582.904	40.87
583.099	40.45
583.293	40.5
583.487	40.51
583.681	40.46
583.875	40.42
584.07	40.26
584.264	40.37
584.458	40.49
584.652	40.69
584.846	40.42
585.04	40.41
585.234	40.28
585.428	40.03
585.623	39.92
585.817	40.09
586.011	40.02
586.205	40.05
586.399	39.84
586.593	39.83
586.787	39.8
586.981	39.6
587.174	39.53
587.368	40
587.562	40.22
587.756	40.25
587.95	40.2
588.144	40.59
588.338	40.4
588.532	40.42
588.725	40.31
588.919	40.47
589.113	40.98
589.307	41.05
589.501	41.01
589.694	41.04
589.888	41.07
590.082	41.03
590.275	40.83
590.469	40.9
590.663	40.88
590.856	41.11
591.05	40.94
591.244	40.88
591.437	40.9
591.631	40.73
591.824	40.8
592.018	40.9
592.212	40.93
592.405	40.94
592.599	40.94
592.792	40.95
592.986	40.75
593.179	40.93
593.372	40.97
593.566	41.03
593.759	41.26
593.953	41.05
594.146	40.83
594.339	40.75
594.533	40.7
594.726	40.78
594.92	40.47
595.113	40.51
595.306	40.43
595.499	40.35
595.693	40.3
595.886	40.07
596.079	40.17
596.272	40.3
596.466	40.3
596.659	40.48
596.852	40.63
597.045	41.06
597.238	41
597.431	40.95
597.624	41.11
597.818	41.32
598.011	41.42
598.204	41.54
598.397	41.47
598.59	41.69
598.783	41.55
598.976	41.54
599.169	41.3
599.362	41.47
599.555	41.81
599.748	41.54
599.941	41.41
600.134	41.51
600.326	41.29
600.519	41.74
600.712	41.89
600.905	41.82
601.098	41.72
601.291	42
601.483	42.08
601.676	41.98
601.869	42.27
602.062	42.39
602.255	42.25
602.447	42.23
602.64	42.23
602.833	42.13
603.025	42.3
603.218	42.35
603.411	42.3
603.603	42.21
603.796	42.27
603.989	42.31
604.181	42.25
604.374	42.04
604.566	42.16
604.759	42.18
604.951	42.22
605.144	42.28
605.336	42.15
605.529	42.02
605.721	42.12
605.914	41.84
606.106	41.82
606.299	41.73
606.491	41.96
606.683	41.89
606.876	41.69
607.068	41.38
607.26	41.25
607.453	41.27
607.645	41.2
607.837	41.1
608.03	41.33
608.222	41.25
608.414	41.17
608.606	41.29
608.799	41.33
608.991	41.29
609.183	41.33
609.375	41.14
609.567	41.21
609.759	41.28
609.952	41.27
610.144	41.27
610.336	40.99
610.528	40.85
610.72	40.9
610.912	40.88
611.104	40.71
611.296	40.57
611.488	40.41
611.68	40.47
611.872	40.3
612.064	40.23
612.256	40.23
612.448	40.38
612.64	40.83
612.832	40.5
613.023	40.29
613.215	40.14
613.407	40.37
613.599	40.54
613.791	40.48
613.983	40.96
614.174	40.99
614.366	40.98
614.558	40.99
614.75	40.79
614.941	41.29
615.133	41.53
615.325	41.74
615.516	41.65
615.708	41.74
615.9	41.67
616.091	41.54
616.283	41.47
616.475	41.52
616.666	41.64
616.858	41.56
617.049	41.52
617.241	41.52
617.432	41.53
617.624	41.79
617.815	41.92
618.007	42.11
618.198	42.29
618.39	42.5
618.581	42.45
618.773	42.77
618.964	42.87
619.155	42.62
619.347	42.8
619.538	42.91
619.729	42.68
619.921	42.84
620.112	42.55
620.303	42.44
620.494	42.49
620.686	42.53
620.877	42.31
621.068	42.42
621.259	42.34
621.451	42.43
621.642	42.28
621.833	42.77
622.024	42.61
622.215	42.78
622.406	42.89
622.597	42.66
622.788	42.44
622.98	42.44
623.171	42.16
623.362	42.39
623.553	42.24
623.744	42.48
623.935	42.24
624.126	41.97
624.317	41.84
624.508	41.77
624.698	41.75
624.889	42.07
625.08	41.81
625.271	41.85
625.462	41.66
625.653	41.6
625.844	41.86
626.034	41.91
626.225	42.22
626.416	42.08
626.607	41.92
626.798	41.9
626.988	41.95
627.179	42.14
627.37	42.31
627.56	42.36
627.751	42.37
627.942	42.22
628.132	42.23
628.323	42.18
628.514	42.39
628.704	42.4
628.895	42.42
629.085	42.37
629.276	42.49
629.466	42.43
629.657	42.6
629.847	42.69
630.038	42.28
630.228	42.33
630.419	42.28
630.609	42.34
630.8	42.58
630.99	42.26
631.181	41.89
631.371	41.49
631.561	41.61
631.752	41.77
631.942	41.77
632.132	42.2
632.323	41.98
632.513	42.11
632.703	41.95
632.893	41.72
633.084	42.13
633.274	42.4
633.464	42.58
633.654	42.46
633.844	42.22
634.034	42.52
634.225	42.52
634.415	42.57
634.605	42.65
634.795	43.15
634.985	43.31
635.175	43.63
635.365	43.75
635.555	43.62
635.745	43.78
635.935	43.73
636.125	43.5
636.315	43.29
636.505	43.35
636.695	43.57
636.885	43.38
637.075	43.52
637.265	43.36
637.455	43.25
637.644	43.71
637.834	43.33
638.024	43.19
638.214	43.41
638.404	43.56
638.593	43.55
638.783	43.31
638.973	43.19
639.163	43.04
639.352	42.82
639.542	42.98
639.732	42.65
639.921	42.8
640.111	43.28
640.301	42.53
640.49	43.05
640.68	43.5
640.87	43.75
641.059	43.86
641.249	43.43
641.438	43.45
641.628	43.29
641.817	43.18
642.007	43.01
642.196	42.88
642.386	43.19
642.575	43.12
642.764	42.64
642.954	42.42
643.143	42.42
643.333	43.11
643.522	43.24
643.711	43.23
643.901	43.37
644.09	43.5
644.279	43.24
644.469	43.13
644.658	42.53
644.847	42.73
645.036	42.62
645.226	42.6
645.415	42.13
645.604	41.74
645.793	41.48
645.982	41.52
646.171	41.83
646.361	41.72
646.55	42.12
646.739	42.52
646.928	42.7
647.117	42.95
647.306	42.87
647.495	43.15
647.684	43.31
647.873	43.66
648.062	43.85
648.251	43.76
648.44	44.56
648.629	44.42
648.818	44.06
649.007	43.69
649.196	43.54
649.384	43.76
649.573	43.53
649.762	43.8
649.951	43.7
650.14	43.61
650.328	44.06
650.517	43.75
650.706	43.83
650.895	44.22
651.083	43.9
651.272	43.86
651.461	43.5
651.65	43.73
651.838	43.61
652.027	43.73
652.216	43.65
652.404	43.32
652.593	43.44
652.781	43.23
652.97	42.9
653.158	43.15
653.347	43.28
653.535	43.34
653.724	43.26
653.912	43.36
654.101	43.25
654.289	43.25
654.478	43.47
654.666	43.1
654.855	43
655.043	43.04
655.231	43.15
655.42	43.16
655.608	43.15
655.796	43.21
655.985	42.81
656.173	42.91
656.361	43.03
656.55	42.6
656.738	42.72
656.926	42.9
657.114	42.99
657.302	43
657.491	43.07
657.679	43.14
657.867	43.36
658.055	43.9
658.243	43.94
658.431	43.45
658.619	43.69
658.807	43.44
658.996	43.37
659.184	42.93
659.372	42.94
659.56	42.59
659.748	42.67
659.936	42.07
660.124	42.02
660.311	41.9
660.499	41.81
660.687	41.66
660.875	41.93
661.063	41.94
661.251	42.16
661.439	42.31
661.627	42.64
661.814	42.81
662.002	43.44
662.19	43.38
662.378	43.26
662.565	44.01
662.753	43.93
662.941	43.61
663.129	43.91
663.316	44.29
663.504	43.81
663.692	43.73
663.879	43.06
664.067	42.43
664.254	42.07
664.442	42.44
664.63	42.03
664.817	42.28
665.005	42.3
665.192	41.84
665.38	41.78
665.567	42.22
665.755	42.02
665.942	42.69
666.13	43
666.317	43.13
666.504	42.87
666.692	43.07
666.879	42.8
667.067	42.94
667.254	42.91
667.441	42.91
667.629	43.16
667.816	43.21
668.003	43.21
668.19	42.94
668.378	43.53
668.565	43.41
668.752	43.06
668.939	43.3
669.127	43.21
669.314	43.45
669.501	43.12
669.688	42.95
669.875	43.18
670.062	42.88
670.249	43.01
670.436	42.4
670.623	42.84
670.81	43.07
670.997	43.3
671.184	43.01
671.371	43.18
671.558	43.67
671.745	43.56
671.932	43.44
672.119	43.52
672.306	43.99
672.493	44
672.68	43.31
672.867	43.67
673.054	43.19
673.24	43.07
673.427	42.89
673.614	42.73
673.801	43.07
673.988	43.74
674.174	43.44
674.361	43.06
674.548	43.2
674.734	43.49
674.921	43.48
675.108	43.18
675.294	43.49
675.481	43.07
675.668	43.2
675.854	42.68
676.041	42.34
676.227	42.5
676.414	42.72
676.601	42.76
676.787	42.88
676.974	42.95
677.16	43.26
677.347	43.63
677.533	44.11
677.719	43.9
677.906	43.82
678.092	43.54
678.279	43.71
678.465	43.49
678.651	43.76
678.838	43.74
679.024	43.46
679.21	43.34
679.397	43.02
679.583	43.17
679.769	43.46
679.955	43.51
680.142	43.56
680.328	43.56
680.514	43.86
680.7	43.92
680.886	44.1
681.073	44.11
681.259	44.67
681.445	44.94
681.631	44.98
681.817	44.73
682.003	45.11
682.189	44.89
682.375	45.07
682.561	44.81
682.747	44.37
682.933	44.03
683.119	44.11
683.305	43.81
683.491	44.03
683.677	43.75
683.863	43.22
684.049	42.81
684.235	42.87
684.42	42.82
684.606	42.95
684.792	43.4
684.978	43.56
685.164	43.72
685.349	43.85
685.535	43.22
685.721	43.42
685.907	43.79
686.092	44.08
686.278	44.02
686.464	44.01
686.649	44.08
686.835	43.75
687.021	43.47
687.206	43.15
687.392	42.44
687.577	42.51
687.763	42.33
687.948	42.74
688.134	42.19
688.319	41.91
688.505	41.78
688.69	41.53
688.876	41.69
689.061	41.59
689.247	41.47
689.432	42.08
689.618	42.2
689.803	42.56
689.988	42.47
690.174	42.99
690.359	43.18
690.544	43.48
690.73	43.36
690.915	43.38
691.1	43.7
691.285	44.58
691.471	44.94
691.656	44.86
691.841	44.48
692.026	44.35
692.211	44.53
692.396	44.74
692.582	44.06
692.767	44.27
692.952	44.1
693.137	44.36
693.322	43.31
693.507	42.76
693.692	42.78
693.877	43.03
694.062	43.13
694.247	42.19
694.432	42.15
694.617	42.83
694.802	43.2
694.987	42.82
695.172	42.66
695.357	43.27
695.541	43.54
695.726	43.5
695.911	43.3
696.096	43.23
696.281	43.74
696.466	43.78
696.65	43.34
696.835	43.05
697.02	43.81
697.204	43.75
697.389	43.33
697.574	43.36
697.759	43.15
697.943	43.14
698.128	42.87
698.312	42.76
698.497	42.98
698.682	42.87
698.866	43
699.051	42.71
699.235	42.71
699.42	42.61
699.604	42.86
699.789	42.9
699.973	42.96
700.158	43.18
700.342	43.5
700.527	43.38
700.711	43.66
700.895	43.85
701.08	43.46
701.264	43.47
701.448	43.32
701.633	42.68
701.817	43.01
702.001	43.11
702.186	43.33
702.37	42.9
702.554	42.67
702.738	42.63
702.923	41.97
703.107	42.65
703.291	42.28
703.475	42.38
703.659	42.73
703.843	43.02
704.027	42.95
704.212	42.9
704.396	42.98
704.58	43.39
704.764	43.09
704.948	43.5
705.132	43.49
705.316	44.24
705.5	44.51
705.684	44.24
705.868	44.94
706.052	45.04
706.235	44.56
706.419	45.07
706.603	44.72
706.787	44.47
706.971	44.74
707.155	44.46
707.339	44.07
707.522	44.16
707.706	44.53
707.89	43.69
708.074	44.02
708.257	45.08
708.441	44.45
708.625	44.47
708.808	44.25
708.992	44.42
709.176	44.74
709.359	44.74
709.543	45.7
709.727	44.86
709.91	45.05
710.094	44.47
710.277	44.58
710.461	44.84
710.644	44.73
710.828	45.55
711.011	45.24
711.195	45.06
711.378	45.05
711.562	44.34
711.745	45.25
711.928	44.33
712.112	44.61
712.295	43.69
712.478	43.93
712.662	44.2
712.845	43.44
713.028	43.29
713.212	43.25
713.395	42.67
713.578	42.76
713.761	42.5
713.945	43.6
714.128	44.28
714.311	43.83
714.494	44.09
714.677	44.07
714.86	44.87
715.043	44.77
715.227	45.1
715.41	45.12
715.593	45
715.776	44.18
715.959	43.45
716.142	42.92
716.325	42.9
716.508	42.42
716.691	42.32
716.874	41.93
717.057	41.87
717.239	41.56
717.422	42.26
717.605	41.83
717.788	41.92
717.971	41.99
718.154	42.01
718.337	42.35
718.519	42.14
718.702	41.8
718.885	41.59
719.068	41.52
719.25	41.39
719.433	41.42
719.616	41.56
719.798	42.08
719.981	41.89
720.164	41.63
720.346	41.84
720.529	42.35
720.712	41.99
720.894	42.38
721.077	42.85
721.259	42.56
721.442	42.32
721.624	42.89
721.807	42.98
721.989	44.23
722.172	44.23
722.354	44.22
722.537	44.04
722.719	44.42
722.901	44.04
723.084	43.21
723.266	43.07
723.448	42.53
723.631	42.15
723.813	42.6
723.995	42.15
724.178	42.45
724.36	42.67
724.542	42.48
724.724	42.81
724.907	43.3
725.089	43.58
725.271	44.09
725.453	43.83
725.635	44.35
725.817	44.09
725.999	44.07
726.181	43.47
726.364	42.75
726.546	42.47
726.728	43.11
726.91	42.68
727.092	42.61
727.274	42.32
727.456	42.94
727.638	43.31
727.819	42.64
728.001	41.99
728.183	42.03
728.365	42.61
728.547	43.04
728.729	43.16
728.911	43.56
729.093	44.25
729.274	45.39
729.456	45.67
729.638	44.8
729.82	45.36
730.001	44.96
730.183	45.45
730.365	46.26
730.546	46.41
730.728	46.32
730.91	46.91
731.091	46.98
731.273	46.17
731.455	45.95
731.636	46.3
731.818	45.8
731.999	46.3
732.181	46.23
732.362	46.01
732.544	45.57
732.725	45.59
732.907	45
733.088	44.66
733.27	45.2
733.451	45.1
733.633	44.37
733.814	45.08
733.995	44.48
734.177	44.05
734.358	42.71
734.539	43.01
734.721	42.48
734.902	41.89
735.083	41.24
735.264	40.3
735.446	40.39
735.627	39.93
735.808	39.49
735.989	40.22
736.17	39.79
736.351	40.9
736.533	41.86
736.714	41.36
736.895	42.55
737.076	43.19
737.257	44.4
737.438	45.15
737.619	45.54
737.8	45.33
737.981	45.32
738.162	46.36
738.343	45.37
738.524	44.77
738.705	45.47
738.886	44.52
739.067	45.86
739.247	45.69
739.428	44.49
739.609	44.86
739.79	45.06
739.971	44.36
740.151	44.73
740.332	46.23
740.513	45.66
740.694	44.78
740.874	44.72
741.055	42.88
741.236	41.59
741.417	41.54
741.597	41.25
741.778	41.92
741.958	42.47
742.139	41.19
742.32	40.21
742.5	40.31
742.681	39.76
742.861	39.76
743.042	39.99
743.222	40.27
743.403	40.97
743.583	41.49
743.764	40.88
743.944	41.31
744.124	41.57
744.305	41.68
744.485	40.97
744.666	41.62
744.846	41.46
745.026	40.38
745.207	41.01
745.387	40.12
745.567	40.05
745.747	40.49
745.928	40.31
746.108	40.62
746.288	40.69
746.468	41.06
746.648	40.37
746.829	40.99
747.009	42.31
747.189	42.86
747.369	43.38
747.549	42.96
747.729	41.86
747.909	40.47
748.089	40.22
748.269	40.68
748.449	40.57
748.629	42.46
748.809	41.43
748.989	41.24
749.169	39.99
749.349	40.25
749.529	41.1
749.709	42.21
749.889	43.71
750.068	43.83
750.248	43.96
750.428	44.03
750.608	43.59
750.788	44.23
750.967	43.23
751.147	43.01
751.327	43.32
751.507	43.37
751.686	43.23
751.866	44
752.046	43.25
752.225	42.64
752.405	42.46
752.585	42.8
752.764	43.02
752.944	44.54
753.123	45.91
753.303	46.14
753.482	45.67
753.662	45.36
753.841	45.18
754.021	44.7
754.2	43.24
754.38	43.16
754.559	42.94
754.739	42.65
754.918	41.8
755.097	41.25
755.277	40.08
755.456	40.41
755.635	39.68
755.815	38.21
755.994	40.3
756.173	41.46
756.352	42.73
756.532	41.53
756.711	42.21
756.89	42.5
757.069	41.84
757.248	42.41
757.427	41.41
757.607	43.14
757.786	44.15
757.965	43.25
758.144	43.73
758.323	42.52
758.502	43.52
758.681	43.85
758.86	43.52
759.039	43.6
759.218	44.18
759.397	44.68
759.576	44.23
759.755	44.73
759.934	44.33
760.113	45.66
760.291	45.69
760.47	46.13
760.649	45.21
760.828	46.04
761.007	45.99
761.186	44.78
761.364	44.58
761.543	43.11
761.722	42.26
761.901	42.3
762.079	41.15
762.258	42.09
762.437	41.82
762.615	42.08
762.794	42.22
762.972	42.6
763.151	43
763.33	42.63
763.508	43.05
763.687	43.31
763.865	43.79
764.044	43.66
764.222	43.61
764.401	43.54
764.579	44.53
764.758	43.48
764.936	42.79
765.114	43.08
765.293	43.46
765.471	44.01
765.65	43.45
765.828	42.37
766.006	42.16
766.184	41.47
766.363	41.27
766.541	39.34
766.719	40.02
766.898	40.98
767.076	40.93
767.254	41.2
767.432	41.11
767.61	41.63
767.788	42.89
767.967	42.51
768.145	42.75
768.323	42.18
768.501	42.55
768.679	42.2
768.857	42.68
769.035	42.23
769.213	41.94
769.391	41.86
769.569	41.17
769.747	41.52
769.925	41.99
770.103	42.14
770.281	42.49
770.459	42.7
770.636	43.82
770.814	42.59
770.992	43.8
771.17	44.08
771.348	43.38
771.525	43.6
771.703	42.34
771.881	41.77
772.059	41.9
772.236	42.24
772.414	43.77
772.592	42.24
772.769	43.23
772.947	40.74
773.125	41.12
773.302	41.23
773.48	41.66
773.657	42.98
773.835	42.91
774.013	44.18
774.19	43.74
774.368	42.92
774.545	43.41
774.723	41.59
774.9	42.18
775.077	43.59
775.255	43.8
775.432	42.51
775.61	41.43
775.787	42.52
775.964	40.84
776.142	41.04
776.319	41.56
776.496	41.13
776.674	43.26
776.851	44.71
777.028	42.46
777.205	42.06
777.382	44.48
777.56	44.87
777.737	45.24
777.914	45.54
778.091	45.58
778.268	44.2
778.445	45.15
778.622	42.95
778.8	44.07
778.977	44.24
779.154	39.73
779.331	38.57
779.508	40.05
779.685	40.75
779.862	41.3
780.038	40.99
780.215	41.63
780.392	42
780.569	42.36
780.746	41.94
780.923	43.13
781.1	49.2
781.277	47.7
781.453	44.25
781.63	42.53
781.807	41.22
781.984	39.81
782.16	40.5
782.337	39
782.514	40.16
782.691	38.2
782.867	37.65
783.044	35.07
783.221	36.8
783.397	37.89
783.574	37.1
783.75	37.48
783.927	39.22
784.103	38.4
784.28	38.38
784.456	37.14
784.633	37.69
784.809	38.07
784.986	39.34
785.162	38.79
785.339	38.79
785.515	40.03
785.692	39.63
785.868	40.68
786.044	40.32
786.221	40.22
786.397	41.2
786.573	40.88
786.749	38.93
786.926	38.69
787.102	42.66
787.278	42.6
787.454	42.11
787.631	42.2
787.807	40.11
787.983	41.67
788.159	42.02
788.335	43.26
788.511	44.7
788.687	45.4
788.863	44.88
789.039	41.03
789.216	41.92
789.392	42.32
789.568	42.49
789.744	43.42
789.919	40.66
790.095	40.68
790.271	41.03
790.447	39.43
790.623	38.83
790.799	39.99
790.975	40.41
791.151	39.77
791.327	39.67
791.502	39.97
791.678	38.67
791.854	40.36
792.03	40.98
792.205	40.25
792.381	42.52
792.557	44.4
792.733	43.7
792.908	43.38
793.084	43.56
793.259	43.71
793.435	42.58
793.611	44.45
793.786	45.84
793.962	43.75
794.137	41.77
794.313	38.83
794.488	35.33
794.664	36.38
794.839	37.11
795.015	37.07
795.19	35.51
795.366	35.8
795.541	35.14
795.716	34.51
795.892	35.84
796.067	36.28
796.242	36.48
796.418	36.29
796.593	36.73
796.768	37.78
796.944	38.4
797.119	38.51
797.294	39.36
797.469	38.2
797.644	36.64
797.82	37.9
797.995	38.2
798.17	39.99
798.345	41.95
798.52	41.05
798.695	41.82
798.87	39.77
799.045	41.11
799.22	40.29
799.395	42.26
799.57	42
799.745	42.49
799.92	42.48
800.095	42.38
800.27	42.06
800.445	40.76
800.62	38.63
800.795	39.84
800.97	39.46
801.145	40.17
801.319	40.63
801.494	41.01
801.669	39.5
801.844	41.62
802.018	40.01
802.193	40.24
802.368	42.02
802.543	42.48
802.717	42.98
802.892	42.62
803.067	43.92
803.241	43.53
803.416	43.99
803.59	41.67
803.765	38.78
803.94	39
804.114	37.31
804.289	37.63
804.463	37.03
804.638	39.9
804.812	40.39
804.986	38.62
805.161	37.8
805.335	39.33
805.51	41.86
805.684	43.93
805.858	44.09
806.033	47.2
806.207	49.74
806.381	51.83
806.556	46.96
806.73	46.38
806.904	47.25
807.078	48.18
807.253	46.86
807.427	45.1
807.601	43.98
807.775	43.7
807.949	42.9
808.123	40.19
808.298	39.29
808.472	41.27
808.646	41.98
808.82	41.5
808.994	39.32
809.168	41.12
809.342	43.53
809.516	44.71
809.69	44.55
809.864	41.82
810.038	40.36
810.212	41.45
810.385	42.33
810.559	40.97
810.733	41.94
810.907	44.18
811.081	43.99
811.255	42.82
811.428	41.04
811.602	41.42
811.776	42.56
811.95	45.19
812.123	43
812.297	42.72
812.471	44.95
812.644	46.53
812.818	45.66
812.992	42.45
813.165	42.8
813.339	47.69
813.512	48.68
813.686	50.47
813.86	48.12
814.033	49.51
814.207	51.17
814.38	53.56
814.554	54.82
814.727	52.56
814.9	53.45
815.074	52.36
815.247	49.2
815.421	45.88
815.594	45.74
815.767	48.45
815.941	43.79
816.114	40.28
816.287	34.91
816.46	26.36
816.634	31.75
816.807	31.65
816.98	32.15
817.153	34.31
817.327	37.53
817.5	36.18
817.673	35.01
817.846	36.97
818.019	37.87
818.192	41.72
818.365	43.19
818.538	42.04
818.711	46.68
818.884	47.92
819.057	44.19
819.23	44.39
819.403	45.69
819.576	43.38
819.749	45.09
819.922	43.07
820.095	42.75
820.268	45.36
820.441	45.59
820.614	44.3
820.786	45.81
820.959	45.6
821.132	44.78
821.305	43.91
821.477	43.79
821.65	42.98
821.823	44.06
821.996	43.3
822.168	42.68
822.341	42.44
822.514	41.91
822.686	41.43
822.859	41.89
823.031	42.38
823.204	42.69
823.376	43.23
823.549	43.93
823.722	43.92
823.894	43.91
824.067	44.38
824.239	43.69
824.411	43.96
824.584	43.41
824.756	43.41
824.929	43.05
825.101	43.38
825.273	43.01
825.446	42.89
825.618	43.38
825.79	43.99
825.963	43.6
826.135	44.61
826.307	44.26
826.479	44.5
826.652	44.43
826.824	44.35
826.996	43.37
827.168	43.23
827.34	43.1
827.512	42.55
827.684	40.89
827.856	41.14
828.029	41.19
828.201	40.58
828.373	41.18
828.545	41.36
828.717	41.06
828.889	41.78
829.061	42.45
829.232	42.52
829.404	42.01
829.576	43.95
829.748	43.45
829.92	42.42
830.092	42.8
830.264	43.21
830.436	43.87
830.607	43.81
830.779	45.25
830.951	46.08
831.123	45.05
831.294	44.95
831.466	45.43
831.638	46.31
831.809	47.75
831.981	49.82
832.153	48.2
832.324	46.9
832.496	46.03
832.667	44.32
832.839	41.15
833.011	42.23
833.182	43.56
833.354	39.88
833.525	39.68
833.697	40.74
833.868	40.14
834.039	39.99
834.211	39.27
834.382	41.8
834.554	42.75
834.725	43.04
834.896	43.24
835.068	42.1
835.239	44.35
835.41	44.71
835.581	44.24
835.753	45.27
835.924	46.03
836.095	46.07
836.266	45.81
836.438	43.21
836.609	43.62
836.78	42.42
836.951	42.76
837.122	43.48
837.293	43.55
837.464	44.21
837.635	43.99
837.806	44.73
837.977	45.4
838.148	43.37
838.319	45.03
838.49	45.36
838.661	45.77
838.832	47.62
839.003	43.88
839.174	42.19
839.345	39.4
839.516	35.98
839.687	34.41
839.857	35.38
840.028	38.86
840.199	38.86
840.37	39.17
840.54	39.7
840.711	37.92
840.882	38.96
841.053	40.61
841.223	44.22
841.394	46.92
841.564	48.8
841.735	48.61
841.906	45.36
842.076	47.65
842.247	48.47
842.417	47
842.588	47.37
842.758	48.97
842.929	43.13
843.099	40.04
843.27	41.63
843.44	40.85
843.611	41.88
843.781	38.09
843.951	32.77
844.122	33.04
844.292	31.33
844.462	30.42
844.633	33.55
844.803	37.9
844.973	38.03
845.144	34.35
845.314	23.42
845.484	19.87
845.654	27.26
845.824	35.99
845.995	31.78
846.165	34.66
846.335	33.63
846.505	30.81
846.675	34.12
846.845	36.26
847.015	37
847.185	52.09
847.355	53.68
847.525	62.09
847.695	53.9
847.865	51.95
848.035	49.99
848.205	45.66
848.375	53.07
848.545	52.63
848.715	45.88
848.884	43.76
849.054	41.25
849.224	39.92
849.394	29.98
849.564	38.62
849.733	38.17
849.903	38.73
850.073	38.94
850.243	29.79
850.412	25.85
850.582	31.6
850.752	28.41
850.921	26.31
851.091	16.05
851.26	12.42
851.43	7.86
851.599	9.81
851.769	11.66
851.939	19.94
852.108	21.2
852.278	26.2
852.447	25.3
852.616	29.34
852.786	37.2
852.955	44.73
853.125	49.37
853.294	46.18
853.463	50.11
853.633	50.67
853.802	43.47
853.971	48.7
854.141	42.35
854.31	44.93
854.479	41.98
854.648	39.46
854.818	46.67
854.987	53.07
855.156	55.22
855.325	57.5
855.494	53.54
855.663	53.29
855.832	54.96
856.001	54.03
856.171	54.32
856.34	53.54
856.509	46.9
856.678	42.75
856.847	41.73
857.016	43.46
857.185	36.14
857.353	30.72
857.522	33.38
857.691	28.28
857.86	32.82
858.029	24.74
858.198	30.53
858.367	33.95
858.535	32.7
858.704	38.49
858.873	40.34
859.042	35.24
859.21	43.12
859.379	52.57
859.548	51.78
859.717	50.23
859.885	54.73
860.054	56.15
860.222	54.34
860.391	60.76
860.56	60.59
860.728	62.49
860.897	62.17
861.065	65.43
861.234	64.02
861.402	63.26
861.571	64
861.739	66.11
861.908	69.87
862.076	72.77
862.244	71.25
862.413	62.11
862.581	55.22
862.749	58.02
862.918	56.16
863.086	49.61
863.254	51.38
863.423	48.54
863.591	43.25
863.759	40.9
863.927	40.67
864.096	38.32
864.264	41.53
864.432	42
864.6	40.61
864.768	31.35
864.936	25.18
865.104	20.95
865.272	22.79
865.44	20.91
865.608	24.79
865.776	27.98
865.944	27.39
866.112	23.7
866.28	24.68
866.448	28.05
866.616	34.17
866.784	40.91
866.952	39.26
867.12	36.92
867.288	34.89
867.455	29.57
867.623	31.63
867.791	31.63
867.959	39.6
868.127	31.32
868.294	32.87
868.462	26.81
868.63	30.29
868.797	44.07
868.965	39.76
869.133	41.54
869.3	40.9
869.468	32.74
869.636	33.41
869.803	31.59
869.971	42.13
870.138	42.42
870.306	44.35
870.473	36.71
870.641	28.23
870.808	22.77
870.975	26.25
871.143	28.38
871.31	25.51
871.478	30.2
871.645	23.76
871.812	7.04
871.98	3.31
872.147	1.4
872.314	1.13
872.482	-12.4
872.649	5.16
872.816	3.88
872.983	0.25
873.15	14.81
873.318	8.93
873.485	10.39
873.652	21.29
873.819	25.28
873.986	33.95
874.153	39.11
874.32	41.68
874.487	43.95
874.654	53.8
874.821	60.59
874.988	59.49
875.155	56.21
875.322	60.3
875.489	58.27
875.656	65.39
875.823	66.09
875.99	68.18
876.157	83.2
876.324	80.79
876.49	66.76
876.657	66.49
876.824	67.41
876.991	66.59
877.157	65.42
877.324	59.1
877.491	46.98
877.658	35.66
877.824	30.32
877.991	25.32
878.157	21.49
878.324	33.36
878.491	28.02
878.657	26.19
878.824	29.8
878.99	34.16
879.157	43.72
879.323	43.63
879.49	46.71
879.656	47.62
879.823	40.53
879.989	40.87
880.156	35.63
880.322	34.43
880.488	36.58
880.655	36.19
880.821	34.48
880.987	33.72
881.154	39.67
881.32	39.59
881.486	42.27
881.652	45.26
881.819	47.8
881.985	45.35
882.151	44.18
882.317	46.18
882.483	45.64
882.649	45.83
882.816	45.29
882.982	43.28
883.148	41.14
883.314	42.39
883.48	41.62
883.646	42.29
883.812	43.94
883.978	44.41
884.144	43.88
884.31	46.47
884.476	45.84
884.642	46.33
884.807	46.67
884.973	48.45
885.139	47.02
885.305	48.85
885.471	45.96
885.637	45.76
885.802	45.97
885.968	45.87
886.134	43.53
886.3	44.62
886.465	44.02
886.631	42.93
886.797	42.05
886.962	42.76
887.128	41.86
887.293	45.38
887.459	47.21
887.625	48.54
887.79	45.16
887.956	46.73
888.121	46.04
888.287	45.93
888.452	47.88
888.618	49.59
888.783	48.48
