Data from CB_034_Reflection_21-28-37-496.txt Node
Date: Wed Nov 11 21:28:37 EST 2015
User: robert
Spectrometer: USB4E03001
Autoset integration time: false
Trigger mode: 4
Integration Time (sec): 1.000000E-1
Scans to average: 15
Electric dark correction enabled: true
Nonlinearity correction enabled: false
Boxcar width: 5
Stray light correction enabled: false
XAxis mode: Wavelengths
Stop averaging: false
Number of Pixels in Spectrum: 3648
>>>>>Begin Spectral Data<<<<<
177.566	172.9
177.785	1028.29
178.005	-161.61
178.225	-231.4
178.445	20.81
178.665	17.37
178.885	-20.98
179.105	65.02
179.324	189.77
179.544	152.34
179.764	121.36
179.984	85.03
180.204	38.62
180.423	65.93
180.643	44.26
180.863	22.42
181.083	17.79
181.302	13.15
181.522	23.23
181.742	14.21
181.961	24.58
182.181	22.42
182.401	37.49
182.621	50.38
182.84	39.98
183.06	48.38
183.279	46.72
183.499	69.99
183.719	67.44
183.938	60.91
184.158	57.97
184.377	49.24
184.597	69.56
184.816	68.73
185.036	76.99
185.256	83.59
185.475	83.81
185.695	105.48
185.914	83.57
186.134	122.45
186.353	129.37
186.572	82.89
186.792	83.52
187.011	52.52
187.231	48.87
187.45	19.15
187.67	-5.02
187.889	-8.44
188.108	10.71
188.328	11.71
188.547	2.7
188.766	-2.26
188.986	13.7
189.205	-6.2
189.424	-17.21
189.644	-45.37
189.863	-14.06
190.082	13.21
190.302	19.83
190.521	41.01
190.74	35.67
190.959	38.51
191.178	46.57
191.398	49.56
191.617	67.29
191.836	80.92
192.055	64.34
192.274	60.13
192.494	43.04
192.713	36.88
192.932	39.36
193.151	45.83
193.37	44.54
193.589	39.85
193.808	32.65
194.027	14.32
194.246	39.4
194.465	59.98
194.685	55.11
194.904	55.65
195.123	61.34
195.342	26.78
195.561	20.67
195.78	8.88
195.999	9.93
196.218	-23.4
196.436	-9.9
196.655	-30.03
196.874	-41.34
197.093	-13.8
197.312	23.43
197.531	5.36
197.75	29.81
197.969	25.09
198.188	25.72
198.407	5.52
198.625	25.64
198.844	17.57
199.063	24.64
199.282	2.4
199.501	-5.42
199.719	-57.23
199.938	-11.35
200.157	-67.9
200.376	-6.39
200.594	13.89
200.813	49.28
201.032	71.35
201.251	117.68
201.469	76.76
201.688	90.62
201.907	48.9
202.125	58.06
202.344	57.35
202.563	66.78
202.781	78.49
203	77.66
203.218	44.24
203.437	43.6
203.656	43.99
203.874	43.5
204.093	40.41
204.311	46.38
204.53	33.24
204.748	27.77
204.967	36.07
205.185	13.25
205.404	17.86
205.622	52.69
205.841	51.3
206.059	37.8
206.278	35.49
206.496	49.86
206.715	55.44
206.933	72.78
207.151	66.69
207.37	63.56
207.588	57.49
207.806	60.23
208.025	63.92
208.243	64.12
208.461	67.07
208.68	70.12
208.898	57
209.116	36.97
209.335	24.85
209.553	17.01
209.771	21.6
209.989	42.81
210.208	12.78
210.426	3.35
210.644	-4.71
210.862	4.87
211.081	17.03
211.299	41.98
211.517	89.99
211.735	67.45
211.953	84.21
212.171	85.36
212.39	82.63
212.608	88.9
212.826	67.69
213.044	71.29
213.262	55.13
213.48	62.97
213.698	76.18
213.916	71.04
214.134	101.77
214.352	118.98
214.57	83.68
214.788	70.69
215.006	78.88
215.224	82.99
215.442	68.4
215.66	79.97
215.878	56.65
216.096	36.54
216.314	53.77
216.532	32.02
216.75	30.2
216.968	42.03
217.185	46.3
217.403	43.85
217.621	40.73
217.839	44.98
218.057	45.15
218.275	48.66
218.492	44.76
218.71	42.01
218.928	41.85
219.146	42.79
219.363	30.13
219.581	47.46
219.799	66.6
220.017	80.37
220.234	85.56
220.452	103.99
220.67	91.13
220.887	87.48
221.105	92.15
221.323	99.17
221.54	105.07
221.758	107.02
221.976	81.4
222.193	65.72
222.411	58.15
222.629	55.88
222.846	45.65
223.064	32.92
223.281	36.03
223.499	35.39
223.716	42.93
223.934	41.12
224.151	31.7
224.369	27.11
224.586	14.15
224.804	13.35
225.021	-9.39
225.239	1.55
225.456	5.03
225.674	7.63
225.891	17.67
226.108	8.16
226.326	-7.69
226.543	-13.92
226.76	-4.94
226.978	-18.88
227.195	-13.55
227.413	-1.67
227.63	5.27
227.847	9.31
228.064	6.03
228.282	2.36
228.499	7.41
228.716	9.84
228.934	14.51
229.151	10.06
229.368	13.64
229.585	15.75
229.802	15.62
230.02	13.56
230.237	10.98
230.454	13.3
230.671	12.45
230.888	10.6
231.105	13.28
231.323	11.89
231.54	15.48
231.757	16.86
231.974	12.71
232.191	10.71
232.408	12.39
232.625	17.31
232.842	16.85
233.059	18.36
233.276	22.7
233.493	20.8
233.71	22.37
233.927	19.71
234.144	19.18
234.361	18.32
234.578	20.38
234.795	20.49
235.012	13.56
235.229	13.61
235.446	13.91
235.663	5.69
235.879	4.76
236.096	-3.43
236.313	1.44
236.53	4.4
236.747	10.32
236.964	14.58
237.181	13.36
237.397	17.77
237.614	18.64
237.831	19.84
238.048	25.69
238.264	25.73
238.481	25.06
238.698	22.64
238.915	25.64
239.131	16.95
239.348	17.41
239.565	13.88
239.781	14.86
239.998	15.33
240.215	12.74
240.431	13.39
240.648	18.6
240.865	17.54
241.081	19.47
241.298	15.82
241.514	18.21
241.731	17.94
241.947	17.62
242.164	17.46
242.38	17.21
242.597	16.83
242.814	16.16
243.03	13.4
243.246	15.41
243.463	14.24
243.679	14.42
243.896	15.94
244.112	15.5
244.329	18.52
244.545	17.65
244.762	16.35
244.978	18.59
245.194	17.86
245.411	17.11
245.627	16.9
245.843	16.41
246.06	15.4
246.276	12.77
246.492	11.19
246.709	9.77
246.925	10.69
247.141	10.72
247.357	10.1
247.574	9.73
247.79	10.24
248.006	10.33
248.222	10.24
248.439	10.74
248.655	11.19
248.871	11.92
249.087	12.08
249.303	12.61
249.519	12.77
249.736	12.06
249.952	12.04
250.168	12.25
250.384	10.46
250.6	11.35
250.816	11.68
251.032	10.85
251.248	10.46
251.464	9.05
251.68	7.89
251.896	9.14
252.112	10.4
252.328	11.98
252.544	12.22
252.76	12.42
252.976	11.06
253.192	10.21
253.408	11.09
253.624	11.38
253.84	10.8
254.056	10.53
254.272	12.68
254.487	12.86
254.703	12.6
254.919	12.12
255.135	14.71
255.351	15.42
255.567	16.56
255.782	17.8
255.998	15.74
256.214	18.62
256.43	19.13
256.646	15.22
256.861	12.89
257.077	12.55
257.293	11.71
257.508	10.17
257.724	10.34
257.94	9.85
258.155	8.38
258.371	7.91
258.587	7.63
258.802	7.14
259.018	7.67
259.234	7.76
259.449	7.99
259.665	8.06
259.88	8.65
260.096	8.79
260.312	8.16
260.527	8.71
260.743	9.51
260.958	9.71
261.174	10.4
261.389	10.44
261.605	11.43
261.82	11.83
262.036	13.45
262.251	13.61
262.466	14.15
262.682	15.09
262.897	15.31
263.113	15.27
263.328	15.81
263.543	14.45
263.759	15.19
263.974	15.17
264.189	14.01
264.405	12.61
264.62	11.88
264.835	12.16
265.051	12.16
265.266	11.26
265.481	11.83
265.696	10.5
265.912	9.82
266.127	9.94
266.342	11.54
266.557	11.09
266.773	9.86
266.988	9.9
267.203	8.34
267.418	10
267.633	11.48
267.848	11.28
268.064	10.8
268.279	11.33
268.494	10.52
268.709	9.02
268.924	10.37
269.139	10.88
269.354	11.5
269.569	11.25
269.784	10.2
269.999	8.64
270.214	8.86
270.429	9.62
270.644	10.11
270.859	10.42
271.074	10.19
271.289	10.19
271.504	9.78
271.719	9.57
271.934	9.17
272.149	8.74
272.363	9.21
272.578	9.32
272.793	9.04
273.008	8.04
273.223	7.19
273.438	6.81
273.653	6.69
273.867	6.84
274.082	6.74
274.297	8.05
274.512	9.34
274.726	8.01
274.941	8.19
275.156	9.73
275.371	10.21
275.585	11.22
275.8	10.86
276.015	10.67
276.229	10.57
276.444	10.29
276.659	9.08
276.873	7.39
277.088	9.56
277.302	9.31
277.517	8.41
277.732	9.37
277.946	10.43
278.161	11.88
278.375	11.55
278.59	11.2
278.804	10.96
279.019	11.52
279.233	11.74
279.448	10.51
279.662	10.22
279.877	8.87
280.091	8.4
280.306	8.48
280.52	7.41
280.735	8.51
280.949	8.93
281.163	9.21
281.378	8.15
281.592	8.27
281.806	9.37
282.021	8.56
282.235	9.23
282.449	9.34
282.664	8.16
282.878	7.76
283.092	6.38
283.307	7.87
283.521	8.3
283.735	9.43
283.949	9.73
284.164	8.61
284.378	8.98
284.592	9.49
284.806	8.61
285.02	8.65
285.234	9.37
285.449	10.05
285.663	8.8
285.877	8.99
286.091	9.19
286.305	8.98
286.519	8.35
286.733	8.39
286.947	7.57
287.161	7.85
287.375	7.8
287.589	7.84
287.803	7.81
288.017	8.18
288.231	7.88
288.445	7.59
288.659	8.08
288.873	9.04
289.087	9.32
289.301	9.71
289.515	10.69
289.729	10.79
289.943	10.59
290.157	10.62
290.371	9.8
290.584	10.09
290.798	10.49
291.012	10.66
291.226	11.01
291.44	10.82
291.654	11.15
291.867	10.63
292.081	11.28
292.295	11.54
292.509	10.78
292.722	11.99
292.936	11.32
293.15	11.76
293.364	12.09
293.577	11.44
293.791	12.33
294.005	12.33
294.218	13
294.432	13.4
294.645	13.52
294.859	13.78
295.073	13.65
295.286	13.22
295.5	12.13
295.713	11.2
295.927	11.75
296.14	11.31
296.354	11.07
296.568	10.29
296.781	9.94
296.994	9.84
297.208	11.03
297.421	11.19
297.635	11.4
297.848	11.96
298.062	11.55
298.275	11.94
298.489	11.69
298.702	12.32
298.915	13.19
299.129	13.98
299.342	14.35
299.555	13.62
299.769	13.49
299.982	13.63
300.195	13.64
300.409	14.69
300.622	15.36
300.835	14.72
301.048	12.93
301.262	13
301.475	12.39
301.688	12.39
301.901	12.77
302.115	11.74
302.328	12.73
302.541	12.32
302.754	10.86
302.967	9.83
303.18	12.53
303.393	13.8
303.607	13.91
303.82	14.09
304.033	13.24
304.246	11.98
304.459	12.33
304.672	11.08
304.885	12.03
305.098	13.19
305.311	14.22
305.524	12.52
305.737	13.12
305.95	12.66
306.163	12.21
306.376	13.36
306.589	14.23
306.802	14.8
307.015	15.71
307.228	15.58
307.44	15.6
307.653	14.79
307.866	14.98
308.079	14.59
308.292	13.7
308.505	14.58
308.718	14.09
308.93	15.2
309.143	15.11
309.356	15.38
309.569	14.74
309.781	14.48
309.994	13.97
310.207	14.32
310.42	14.75
310.632	15.94
310.845	15.5
311.058	15.48
311.27	14.82
311.483	14.56
311.696	13.85
311.908	14.91
312.121	15.47
312.333	15.07
312.546	14.47
312.759	14.41
312.971	14.16
313.184	13.89
313.396	13.52
313.609	13.97
313.821	14.38
314.034	15.24
314.246	14.04
314.459	14.17
314.671	15
314.884	17.57
315.096	17.98
315.309	16.57
315.521	15.96
315.733	16.45
315.946	15.33
316.158	15.24
316.371	15.33
316.583	15.12
316.795	15.47
317.008	15.71
317.22	13.44
317.432	12.93
317.644	14.31
317.857	14.98
318.069	14.99
318.281	15.1
318.494	14.84
318.706	14.59
318.918	15.89
319.13	15.85
319.342	15.42
319.555	15.68
319.767	15.72
319.979	15.16
320.191	15.7
320.403	16.38
320.615	17.04
320.827	17.33
321.039	16.81
321.252	16.09
321.464	15.67
321.676	15.75
321.888	14.92
322.1	15.08
322.312	15.73
322.524	15.81
322.736	14.65
322.948	14.05
323.16	13.36
323.372	12.88
323.584	13.38
323.796	14.1
324.007	14.81
324.219	15.93
324.431	15.91
324.643	16.46
324.855	16.99
325.067	17.7
325.279	18.49
325.491	19.98
325.702	20.8
325.914	21.1
326.126	20.9
326.338	19.24
326.55	19.12
326.761	19.5
326.973	19.39
327.185	18.82
327.396	19.05
327.608	19.05
327.82	19.01
328.032	19.74
328.243	19.02
328.455	19.43
328.666	21.24
328.878	20.73
329.09	20.34
329.301	19.59
329.513	19.98
329.725	19.31
329.936	19.94
330.148	18.57
330.359	17.41
330.571	18.35
330.782	18.78
330.994	18.56
331.205	19.35
331.417	20.28
331.628	21.72
331.84	21.84
332.051	22.84
332.262	22.15
332.474	24.67
332.685	25.37
332.897	24.63
333.108	24.76
333.319	25.1
333.531	26.04
333.742	25.49
333.953	24.67
334.165	24.36
334.376	25.3
334.587	26.12
334.799	25.23
335.01	25.48
335.221	25.34
335.432	25.16
335.644	25.5
335.855	24.52
336.066	24.85
336.277	25.63
336.488	25.86
336.7	25.23
336.911	24.77
337.122	24.8
337.333	25.63
337.544	26.69
337.755	26.37
337.966	26.62
338.177	27.03
338.388	26.7
338.599	26.39
338.811	26.18
339.022	25.06
339.233	25.68
339.444	25.91
339.655	25.46
339.866	24.61
340.076	25.13
340.287	25.35
340.498	24.72
340.709	25.29
340.92	25.48
341.131	25.74
341.342	27.14
341.553	26.63
341.764	25.08
341.975	24.42
342.185	24.72
342.396	23.83
342.607	23.69
342.818	24.2
343.029	23.73
343.239	23.58
343.45	23.9
343.661	23.6
343.872	23.52
344.082	23.71
344.293	24.2
344.504	24.18
344.714	24.67
344.925	23.94
345.136	24.11
345.346	24.6
345.557	24.34
345.768	23.88
345.978	23.78
346.189	23.94
346.399	24.26
346.61	24.12
346.821	23.54
347.031	23.3
347.242	23.37
347.452	23.47
347.663	22.98
347.873	22.54
348.084	22.88
348.294	22.99
348.504	22.77
348.715	23.15
348.925	22.59
349.136	22.64
349.346	22.26
349.557	22.53
349.767	22.19
349.977	21.87
350.188	22.26
350.398	21.61
350.608	21.8
350.819	22.03
351.029	22.31
351.239	22.67
351.449	23.82
351.66	23.56
351.87	23.85
352.08	23.21
352.29	23.68
352.501	24.33
352.711	24.51
352.921	23.6
353.131	23.49
353.341	23.22
353.552	23.34
353.762	22.72
353.972	23.32
354.182	22.22
354.392	22.93
354.602	22.68
354.812	21.4
355.022	21.64
355.232	21.96
355.442	21.82
355.652	22.17
355.862	22.31
356.072	22.13
356.282	22.25
356.492	23.17
356.702	23.08
356.912	22.9
357.122	22.87
357.332	22.96
357.542	23.33
357.752	23.04
357.962	22.8
358.171	22.41
358.381	22.26
358.591	21.84
358.801	21.85
359.011	21.24
359.221	21.63
359.43	22.26
359.64	21.5
359.85	21.48
360.06	21.64
360.269	21.63
360.479	21.45
360.689	21.32
360.899	21.39
361.108	21.3
361.318	21.61
361.528	21.83
361.737	21.45
361.947	21.65
362.156	21.31
362.366	21.24
362.576	21.21
362.785	21.62
362.995	21.43
363.204	21.37
363.414	20.94
363.623	20.86
363.833	19.9
364.042	19.93
364.252	20.29
364.461	19.66
364.671	19.86
364.88	19.47
365.09	19.25
365.299	19.77
365.509	19.93
365.718	20.19
365.927	20.23
366.137	20.74
366.346	20.29
366.555	20.35
366.765	20.4
366.974	20.48
367.183	21.19
367.393	21.17
367.602	21.43
367.811	21.47
368.021	21.04
368.23	20.84
368.439	20.64
368.648	21.27
368.857	20.89
369.067	21.26
369.276	21.05
369.485	20.36
369.694	20.75
369.903	20
370.112	19.52
370.321	19.89
370.531	19.96
370.74	20.02
370.949	20.13
371.158	19.97
371.367	19.6
371.576	19.45
371.785	19
371.994	18.66
372.203	18.77
372.412	18.95
372.621	18.74
372.83	18.39
373.039	18.12
373.248	18.03
373.457	18
373.666	18.51
373.874	18.49
374.083	18.8
374.292	18.28
374.501	18.37
374.71	17.83
374.919	17.54
375.128	17.66
375.336	17.7
375.545	17.4
375.754	17.42
375.963	16.77
376.171	16.44
376.38	16.37
376.589	16.41
376.798	15.92
377.006	16.05
377.215	16.46
377.424	16.47
377.632	16.39
377.841	16.17
378.05	15.88
378.258	16.03
378.467	16.09
378.675	15.9
378.884	15.89
379.093	15.9
379.301	15.82
379.51	15.52
379.718	15.61
379.927	15.28
380.135	15.17
380.344	15.07
380.552	15.49
380.761	15.12
380.969	15.07
381.177	14.82
381.386	15.55
381.594	15.47
381.803	15.13
382.011	14.78
382.219	14.84
382.428	15.28
382.636	14.99
382.845	14.93
383.053	15.24
383.261	15.49
383.469	15.68
383.678	14.79
383.886	14.67
384.094	14.51
384.302	15.23
384.511	15.05
384.719	14.54
384.927	14.85
385.135	14.46
385.343	14.35
385.552	14.05
385.76	13.82
385.968	13.79
386.176	14
386.384	13.92
386.592	13.17
386.8	13.55
387.008	13.58
387.216	13.38
387.424	13.48
387.633	13.2
387.841	13.13
388.049	13.08
388.257	13.23
388.465	12.6
388.672	12.91
388.88	12.94
389.088	12.75
389.296	12.54
389.504	12.19
389.712	12.18
389.92	12.35
390.128	12.2
390.336	12
390.544	12.09
390.751	12.69
390.959	12.47
391.167	12.27
391.375	12.23
391.583	12.56
391.79	12.78
391.998	12.65
392.206	12.74
392.414	13.07
392.621	12.88
392.829	12.8
393.037	12.44
393.244	12.42
393.452	12.48
393.66	12.21
393.867	12.03
394.075	11.9
394.283	11.77
394.49	11.6
394.698	11.41
394.905	11.58
395.113	11.2
395.32	11.35
395.528	11.23
395.735	11.33
395.943	11.39
396.15	11.36
396.358	11.59
396.565	11.96
396.773	11.66
396.98	11.79
397.188	11.97
397.395	12.29
397.602	12.41
397.81	12.62
398.017	12.32
398.225	12.05
398.432	12.15
398.639	12.14
398.847	11.43
399.054	11.43
399.261	11.15
399.468	11.21
399.676	11.08
399.883	10.59
400.09	9.99
400.297	10.24
400.505	10.18
400.712	10.01
400.919	9.78
401.126	9.99
401.333	10.12
401.54	9.62
401.748	9.44
401.955	9.56
402.162	9.89
402.369	10.45
402.576	10.15
402.783	10.57
402.99	10.3
403.197	10.28
403.404	10.2
403.611	10.23
403.818	10.51
404.025	10.28
404.232	10.31
404.439	10.12
404.646	9.89
404.853	9.75
405.06	9.51
405.267	9.68
405.474	9.43
405.681	9.38
405.887	9.46
406.094	9.68
406.301	9.88
406.508	9.67
406.715	9.51
406.922	9.83
407.128	10.09
407.335	9.97
407.542	9.7
407.749	10.16
407.955	10.14
408.162	10.08
408.369	9.33
408.575	9.26
408.782	9.2
408.989	9.48
409.195	9.31
409.402	9.19
409.609	9.64
409.815	9.72
410.022	9.45
410.228	9.45
410.435	9.14
410.642	9.44
410.848	9.18
411.055	9.4
411.261	9.21
411.468	9.17
411.674	9.28
411.881	8.87
412.087	8.85
412.294	8.99
412.5	9.32
412.706	9.39
412.913	9.27
413.119	9.45
413.326	9.2
413.532	9.25
413.738	9.15
413.945	9.05
414.151	9.05
414.357	9.04
414.564	8.57
414.77	8.26
414.976	8.58
415.182	8.85
415.389	8.56
415.595	8.32
415.801	8.51
416.007	8.59
416.214	8.32
416.42	8.59
416.626	8.62
416.832	8.78
417.038	8.83
417.244	8.63
417.45	8.65
417.657	8.88
417.863	9.05
418.069	8.66
418.275	8.73
418.481	8.78
418.687	8.83
418.893	8.81
419.099	9.07
419.305	8.99
419.511	9.03
419.717	9.24
419.923	9.2
420.129	9.17
420.335	9.24
420.541	9.16
420.746	9.14
420.952	8.98
421.158	8.89
421.364	8.73
421.57	8.78
421.776	8.78
421.982	8.57
422.187	8.44
422.393	8.47
422.599	8.46
422.805	8.46
423.01	8.43
423.216	8.34
423.422	8.58
423.628	8.55
423.833	8.48
424.039	8.48
424.245	8.49
424.45	8.62
424.656	8.57
424.862	8.62
425.067	8.64
425.273	8.83
425.478	8.88
425.684	8.78
425.889	8.77
426.095	8.84
426.301	8.68
426.506	8.81
426.712	8.68
426.917	8.77
427.123	8.74
427.328	8.54
427.533	8.48
427.739	8.57
427.944	8.53
428.15	8.66
428.355	8.6
428.561	8.6
428.766	8.42
428.971	8.64
429.177	8.68
429.382	8.54
429.587	8.72
429.793	8.66
429.998	8.68
430.203	8.6
430.408	8.64
430.614	8.82
430.819	8.88
431.024	8.8
431.229	8.75
431.434	8.51
431.64	9.02
431.845	8.96
432.05	9.01
432.255	8.89
432.46	8.9
432.665	8.78
432.87	8.68
433.076	8.84
433.281	8.88
433.486	8.76
433.691	8.88
433.896	8.51
434.101	8.63
434.306	8.63
434.511	8.6
434.716	8.54
434.921	8.6
435.126	8.46
435.331	8.29
435.535	8.32
435.74	8.32
435.945	8.18
436.15	8.29
436.355	8.05
436.56	7.97
436.765	7.87
436.97	7.96
437.174	7.88
437.379	8.06
437.584	8.18
437.789	8.1
437.993	8.28
438.198	8.48
438.403	8.48
438.608	8.56
438.812	8.45
439.017	8.68
439.222	8.64
439.426	8.64
439.631	8.5
439.836	8.47
440.04	8.4
440.245	8.26
440.45	8.21
440.654	8.23
440.859	8.32
441.063	8.35
441.268	8.31
441.472	8.39
441.677	8.4
441.881	8.56
442.086	8.63
442.29	8.77
442.495	8.82
442.699	8.87
442.904	8.69
443.108	8.63
443.312	8.68
443.517	8.62
443.721	8.53
443.925	8.41
444.13	8.2
444.334	8.04
444.538	7.9
444.743	7.8
444.947	7.55
445.151	7.68
445.356	7.7
445.56	7.79
445.764	7.91
445.968	7.95
446.173	8
446.377	8.14
446.581	8.15
446.785	8.12
446.989	8.16
447.193	8.36
447.398	8.36
447.602	8.3
447.806	8.27
448.01	8.26
448.214	8.2
448.418	8.18
448.622	8.06
448.826	8.04
449.03	8.15
449.234	8.26
449.438	8.23
449.642	8.25
449.846	8.2
450.05	8.29
450.254	8.18
450.458	8.28
450.662	8.45
450.866	8.45
451.069	8.53
451.273	8.47
451.477	8.2
451.681	8.19
451.885	8.31
452.089	8.38
452.292	8.19
452.496	8.16
452.7	8.15
452.904	7.95
453.107	8.14
453.311	8.07
453.515	8.32
453.719	8.52
453.922	8.46
454.126	8.41
454.33	8.47
454.533	8.53
454.737	8.53
454.94	8.37
455.144	8.37
455.348	8.31
455.551	8.46
455.755	8.18
455.958	8.24
456.162	8.19
456.365	8.13
456.569	8.17
456.772	8.11
456.976	8.02
457.179	8.15
457.383	8.15
457.586	8.06
457.79	7.9
457.993	7.75
458.196	7.67
458.4	7.66
458.603	7.64
458.807	7.43
459.01	7.52
459.213	7.58
459.417	7.66
459.62	7.74
459.823	7.8
460.026	7.9
460.23	8.05
460.433	8.01
460.636	8.05
460.839	8.04
461.042	8.22
461.246	8.07
461.449	8.03
461.652	7.99
461.855	8
462.058	7.97
462.261	8.02
462.464	8
462.668	8.03
462.871	8.06
463.074	7.94
463.277	7.72
463.48	7.91
463.683	8.02
463.886	7.81
464.089	7.78
464.292	7.76
464.495	7.49
464.698	7.59
464.901	7.53
465.104	7.56
465.306	7.81
465.509	8.02
465.712	7.93
465.915	8
466.118	8.16
466.321	8.02
466.524	8.04
466.726	8.16
466.929	8.16
467.132	8.14
467.335	8.13
467.538	8.05
467.74	7.97
467.943	8
468.146	7.93
468.348	7.83
468.551	7.84
468.754	7.96
468.956	7.9
469.159	7.67
469.362	7.74
469.564	7.82
469.767	7.9
469.969	8.04
470.172	7.92
470.375	7.83
470.577	7.91
470.78	7.97
470.982	7.87
471.185	7.87
471.387	8.08
471.59	8.08
471.792	7.82
471.995	7.71
472.197	7.59
472.399	7.47
472.602	7.55
472.804	7.87
473.007	8.06
473.209	8.07
473.411	8.1
473.614	7.88
473.816	7.68
474.018	7.91
474.22	7.97
474.423	8
474.625	8.19
474.827	8.37
475.03	8.1
475.232	7.85
475.434	7.77
475.636	7.59
475.838	7.69
476.04	7.69
476.243	7.65
476.445	7.49
476.647	7.36
476.849	7.53
477.051	7.35
477.253	7.39
477.455	7.39
477.657	7.34
477.859	7.6
478.061	7.9
478.263	8.24
478.465	8.27
478.667	8.42
478.869	8.53
479.071	8.44
479.273	8.62
479.475	8.59
479.677	8.78
479.879	8.79
480.081	8.74
480.283	8.54
480.485	8.49
480.686	8.32
480.888	8.29
481.09	8.38
481.292	8.34
481.494	8.19
481.695	8.08
481.897	7.99
482.099	7.93
482.301	7.83
482.502	7.87
482.704	7.83
482.906	7.87
483.107	7.93
483.309	7.81
483.511	7.83
483.712	7.82
483.914	7.82
484.115	7.82
484.317	7.79
484.519	7.85
484.72	7.81
484.922	7.7
485.123	7.71
485.325	7.61
485.526	7.63
485.728	7.58
485.929	7.55
486.131	7.57
486.332	7.56
486.534	7.64
486.735	7.58
486.936	7.63
487.138	7.77
487.339	7.75
487.541	7.78
487.742	7.82
487.943	7.83
488.144	7.8
488.346	7.79
488.547	7.78
488.748	7.77
488.95	7.69
489.151	7.58
489.352	7.51
489.553	7.52
489.755	7.49
489.956	7.49
490.157	7.42
490.358	7.45
490.559	7.41
490.76	7.49
490.961	7.42
491.163	7.52
491.364	7.58
491.565	7.66
491.766	7.69
491.967	7.68
492.168	7.58
492.369	7.68
492.57	7.64
492.771	7.65
492.972	7.54
493.173	7.56
493.374	7.52
493.575	7.52
493.776	7.36
493.976	7.33
494.177	7.42
494.378	7.57
494.579	7.44
494.78	7.58
494.981	7.63
495.182	7.74
495.382	7.95
495.583	8.07
495.784	8.11
495.985	8.18
496.185	8.16
496.386	8.1
496.587	8.02
496.788	8.01
496.988	8
497.189	8.05
497.39	8.1
497.59	7.99
497.791	8.04
497.992	8.13
498.192	8.15
498.393	8.17
498.593	8.26
498.794	8.2
498.994	8.31
499.195	8.36
499.395	8.35
499.596	8.3
499.796	8.26
499.997	8.24
500.197	8.36
500.398	8.49
500.598	8.43
500.799	8.3
500.999	8.47
501.199	8.46
501.4	8.45
501.6	8.41
501.801	8.46
502.001	8.45
502.201	8.39
502.402	8.18
502.602	8.27
502.802	8.35
503.002	8.47
503.203	8.34
503.403	8.26
503.603	8.38
503.803	8.76
504.003	8.78
504.204	9.02
504.404	9.16
504.604	9.27
504.804	9.32
505.004	9.45
505.204	9.55
505.404	9.75
505.604	9.92
505.804	10.04
506.005	9.77
506.205	9.83
506.405	9.75
506.605	9.66
506.805	9.69
507.005	9.66
507.204	9.66
507.404	9.76
507.604	9.8
507.804	9.94
508.004	9.74
508.204	9.78
508.404	9.86
508.604	10.08
508.804	10.25
509.003	10.42
509.203	10.42
509.403	10.46
509.603	10.49
509.803	10.43
510.002	10.54
510.202	10.73
510.402	10.87
510.602	10.96
510.801	10.83
511.001	10.94
511.201	10.85
511.4	10.97
511.6	11.13
511.8	11.19
511.999	11.34
512.199	11.33
512.398	11.38
512.598	11.59
512.797	11.66
512.997	11.85
513.197	11.82
513.396	11.91
513.596	11.99
513.795	11.88
513.994	11.88
514.194	11.99
514.393	12.07
514.593	12.12
514.792	12.12
514.992	12.2
515.191	12.28
515.39	12.35
515.59	12.53
515.789	12.56
515.988	12.75
516.188	12.86
516.387	12.78
516.586	12.89
516.786	13.08
516.985	13.09
517.184	12.98
517.383	13.18
517.582	13.25
517.782	13.23
517.981	13.15
518.18	13.18
518.379	13.39
518.578	13.61
518.777	13.53
518.976	13.48
519.176	13.54
519.375	13.85
519.574	13.74
519.773	13.81
519.972	13.9
520.171	14.18
520.37	14.34
520.569	14.29
520.768	14.36
520.967	14.62
521.166	14.74
521.365	14.84
521.564	14.91
521.762	15.1
521.961	15.23
522.16	15.41
522.359	15.34
522.558	15.28
522.757	15.36
522.956	15.52
523.154	15.44
523.353	15.55
523.552	15.64
523.751	15.63
523.949	15.69
524.148	15.79
524.347	15.75
524.546	16.04
524.744	16.16
524.943	16.24
525.142	16.24
525.34	16.41
525.539	16.53
525.737	16.74
525.936	16.85
526.135	17.01
526.333	17.08
526.532	17.09
526.73	17.1
526.929	17.23
527.127	17.34
527.326	17.43
527.524	17.61
527.723	17.66
527.921	17.63
528.12	17.72
528.318	17.74
528.516	17.74
528.715	17.86
528.913	17.91
529.112	17.98
529.31	17.99
529.508	18.05
529.707	18.03
529.905	18.07
530.103	18.03
530.301	17.99
530.5	18.06
530.698	18.2
530.896	18.36
531.094	18.46
531.293	18.53
531.491	18.77
531.689	18.82
531.887	18.84
532.085	18.99
532.283	19.2
532.481	19.35
532.68	19.32
532.878	19.35
533.076	19.34
533.274	19.3
533.472	19.35
533.67	19.31
533.868	19.42
534.066	19.57
534.264	19.62
534.462	19.68
534.66	19.68
534.858	19.81
535.056	19.99
535.253	20.12
535.451	20.3
535.649	20.28
535.847	20.44
536.045	20.46
536.243	20.48
536.441	20.54
536.638	20.63
536.836	20.79
537.034	20.83
537.232	20.84
537.43	20.87
537.627	20.94
537.825	21.11
538.023	21.08
538.22	21.16
538.418	21.4
538.616	21.44
538.813	21.69
539.011	21.8
539.209	21.96
539.406	21.99
539.604	22
539.801	22.04
539.999	22.26
540.196	22.53
540.394	22.65
540.591	22.6
540.789	22.66
540.986	22.5
541.184	22.48
541.381	22.52
541.579	22.58
541.776	22.54
541.974	22.57
542.171	22.51
542.368	22.44
542.566	22.5
542.763	22.58
542.96	22.64
543.158	22.73
543.355	22.68
543.552	22.75
543.75	22.82
543.947	22.95
544.144	23.09
544.341	23.22
544.539	23.33
544.736	23.15
544.933	23.11
545.13	23.19
545.327	23.39
545.524	23.55
545.722	23.45
545.919	23.5
546.116	23.63
546.313	23.62
546.51	23.6
546.707	23.69
546.904	23.96
547.101	23.97
547.298	24.06
547.495	23.93
547.692	23.99
547.889	24.13
548.086	24.16
548.283	24.15
548.48	24.31
548.677	24.6
548.874	24.48
549.07	24.4
549.267	24.52
549.464	24.55
549.661	24.82
549.858	24.99
550.055	25.12
550.251	25.31
550.448	25.49
550.645	25.51
550.842	25.28
551.038	25.38
551.235	25.56
551.432	25.7
551.628	25.65
551.825	25.62
552.022	25.73
552.218	25.58
552.415	25.53
552.612	25.67
552.808	25.55
553.005	25.78
553.201	25.91
553.398	25.87
553.594	26.03
553.791	26.23
553.987	26.32
554.184	26.26
554.38	26.39
554.577	26.46
554.773	26.56
554.97	26.77
555.166	26.84
555.362	26.94
555.559	27.03
555.755	26.88
555.952	26.94
556.148	27.11
556.344	27.15
556.541	27.16
556.737	27.32
556.933	27.35
557.129	27.57
557.326	27.34
557.522	27.3
557.718	27.35
557.914	27.44
558.11	27.4
558.307	27.38
558.503	27.45
558.699	27.65
558.895	27.38
559.091	27.26
559.287	27.22
559.483	27.35
559.679	27.47
559.876	27.41
560.072	27.43
560.268	27.47
560.464	27.42
560.66	27.43
560.856	27.56
561.052	27.7
561.247	27.7
561.443	27.63
561.639	27.65
561.835	27.56
562.031	27.74
562.227	27.56
562.423	27.36
562.619	27.37
562.815	27.51
563.01	27.3
563.206	27.48
563.402	27.66
563.598	27.78
563.793	27.83
563.989	28.07
564.185	27.99
564.381	28.38
564.576	28.56
564.772	28.57
564.968	28.61
565.163	28.66
565.359	28.7
565.555	28.82
565.75	28.72
565.946	28.76
566.141	28.69
566.337	28.76
566.532	28.81
566.728	28.87
566.923	29.02
567.119	29.1
567.314	29.22
567.51	29.02
567.705	28.87
567.901	28.85
568.096	28.85
568.292	28.99
568.487	28.96
568.682	28.81
568.878	28.94
569.073	29.11
569.268	29.1
569.464	28.96
569.659	29.09
569.854	29.17
570.05	29.46
570.245	29.57
570.44	29.52
570.635	29.58
570.831	29.77
571.026	29.79
571.221	29.66
571.416	29.54
571.611	29.58
571.806	29.71
572.002	29.73
572.197	29.61
572.392	29.52
572.587	29.55
572.782	29.5
572.977	29.48
573.172	29.48
573.367	29.34
573.562	29.28
573.757	29.37
573.952	29.35
574.147	29.53
574.342	29.62
574.537	29.77
574.732	29.75
574.927	30.06
575.121	29.9
575.316	29.85
575.511	29.92
575.706	30.06
575.901	30
576.096	29.96
576.29	29.75
576.485	29.64
576.68	29.4
576.875	29.39
577.069	29.19
577.264	29.42
577.459	29.56
577.654	29.76
577.848	29.71
578.043	30.04
578.238	30.37
578.432	30.44
578.627	30.63
578.821	30.94
579.016	31.09
579.21	30.97
579.405	30.83
579.6	30.62
579.794	30.44
579.989	30.67
580.183	30.46
580.378	30.34
580.572	30.28
580.766	30.29
580.961	30.5
581.155	30.43
581.35	30.74
581.544	30.78
581.738	30.78
581.933	30.84
582.127	30.98
582.321	31.11
582.516	30.85
582.71	30.91
582.904	30.94
583.099	30.6
583.293	30.92
583.487	30.93
583.681	30.95
583.875	30.97
584.07	31.09
584.264	30.91
584.458	30.7
584.652	30.78
584.846	30.57
585.04	30.59
585.234	30.78
585.428	30.3
585.623	30.25
585.817	30.34
586.011	30.38
586.205	30.19
586.399	30.29
586.593	30.64
586.787	30.6
586.981	30.97
587.174	30.85
587.368	30.74
587.562	31.02
587.756	31.1
587.95	31.09
588.144	31.1
588.338	31.09
588.532	31.09
588.725	31.21
588.919	31.46
589.113	31.34
589.307	31.3
589.501	31.61
589.694	31.48
589.888	31.3
590.082	31.33
590.275	31.49
590.469	31.65
590.663	31.4
590.856	31.34
591.05	31.23
591.244	31.33
591.437	31.34
591.631	31.22
591.824	31.49
592.018	31.73
592.212	31.86
592.405	31.78
592.599	31.71
592.792	31.95
592.986	32.03
593.179	32.19
593.372	32.45
593.566	32.67
593.759	32.48
593.953	32.4
594.146	32.4
594.339	32.3
594.533	32.48
594.726	32.49
594.92	32.44
595.113	32.23
595.306	32.14
595.499	31.81
595.693	31.78
595.886	32.03
596.079	31.92
596.272	31.93
596.466	31.8
596.659	31.57
596.852	31.62
597.045	31.7
597.238	31.68
597.431	31.76
597.624	31.95
597.818	32.09
598.011	31.94
598.204	32.08
598.397	32.02
598.59	32.14
598.783	32.46
598.976	32.39
599.169	32.37
599.362	32.65
599.555	32.96
599.748	32.95
599.941	32.99
600.134	33.03
600.326	32.96
600.519	33.21
600.712	33.37
600.905	33.36
601.098	33.61
601.291	33.67
601.483	33.54
601.676	33.41
601.869	33.45
602.062	33.54
602.255	33.71
602.447	33.95
602.64	34.11
602.833	34.02
603.025	33.91
603.218	33.94
603.411	33.99
603.603	34.04
603.796	34.11
603.989	34.04
604.181	33.96
604.374	33.81
604.566	33.61
604.759	33.52
604.951	33.66
605.144	33.55
605.336	33.49
605.529	33.27
605.721	33.21
605.914	32.99
606.106	32.72
606.299	32.79
606.491	32.85
606.683	33.15
606.876	32.93
607.068	32.93
607.26	33.17
607.453	33.1
607.645	33.35
607.837	33.62
608.03	33.7
608.222	34.01
608.414	33.7
608.606	33.64
608.799	33.51
608.991	33.61
609.183	33.48
609.375	33.4
609.567	33.46
609.759	33.62
609.952	33.57
610.144	33.64
610.336	33.7
610.528	33.55
610.72	33.7
610.912	33.62
611.104	33.48
611.296	33.47
611.488	33.51
611.68	33.58
611.872	33.3
612.064	33.16
612.256	32.95
612.448	32.87
612.64	33.19
612.832	33.01
613.023	33.1
613.215	32.94
613.407	33.03
613.599	33.02
613.791	32.94
613.983	33.76
614.174	33.74
614.366	33.97
614.558	34.01
614.75	34.04
614.941	34.34
615.133	34.23
615.325	34.53
615.516	34.58
615.708	34.57
615.9	34.66
616.091	33.91
616.283	34.03
616.475	33.98
616.666	34.08
616.858	33.83
617.049	33.72
617.241	33.5
617.432	33.52
617.624	33.52
617.815	33.61
618.007	33.57
618.198	33.85
618.39	33.61
618.581	33.49
618.773	33.32
618.964	33.49
619.155	33.58
619.347	34
619.538	34.07
619.729	33.91
619.921	33.99
620.112	34.27
620.303	34.07
620.494	33.97
620.686	34.08
620.877	34.34
621.068	34.25
621.259	34.3
621.451	33.96
621.642	34.15
621.833	34.33
622.024	34.3
622.215	34.1
622.406	34.12
622.597	34.34
622.788	34.24
622.98	34.15
623.171	34.43
623.362	34.18
623.553	34.49
623.744	34.31
623.935	34.26
624.126	34.01
624.317	33.99
624.508	34.16
624.698	33.95
624.889	34.08
625.08	34.26
625.271	34.28
625.462	34.63
625.653	34.47
625.844	34.54
626.034	34.58
626.225	34.85
626.416	34.71
626.607	34.63
626.798	34.78
626.988	34.64
627.179	34.58
627.37	34.26
627.56	34.21
627.751	34.19
627.942	34.06
628.132	34
628.323	33.96
628.514	34.03
628.704	33.72
628.895	33.61
629.085	33.9
629.276	33.76
629.466	33.95
629.657	33.92
629.847	34.11
630.038	34
630.228	34.21
630.419	33.85
630.609	33.86
630.8	34.19
630.99	34.62
631.181	34.58
631.371	34.51
631.561	34.56
631.752	34.6
631.942	34.31
632.132	34.71
632.323	34.38
632.513	35.03
632.703	35.15
632.893	35.17
633.084	34.78
633.274	34.93
633.464	34.81
633.654	34.71
633.844	34.69
634.034	35.09
634.225	34.95
634.415	35.26
634.605	34.97
634.795	35.23
634.985	35.11
635.175	35.35
635.365	35.26
635.555	35.43
635.745	35.63
635.935	35.41
636.125	35.38
636.315	35.31
636.505	35.21
636.695	35.06
636.885	34.75
637.075	34.96
637.265	34.79
637.455	34.73
637.644	34.62
637.834	34.38
638.024	34.15
638.214	34.03
638.404	33.76
638.593	33.69
638.783	33.71
638.973	33.61
639.163	33.33
639.352	33.49
639.542	33.38
639.732	33.33
639.921	33.49
640.111	33.91
640.301	33.77
640.49	33.96
640.68	33.97
640.87	33.65
641.059	33.76
641.249	34.03
641.438	33.88
641.628	33.47
641.817	33.65
642.007	33.75
642.196	33.77
642.386	33.53
642.575	33.73
642.764	33.42
642.954	34.2
643.143	34.19
643.333	34.19
643.522	34.51
643.711	34.51
643.901	34.44
644.09	34.46
644.279	34.43
644.469	34.61
644.658	34.36
644.847	35
645.036	34.87
645.226	34.89
645.415	34.89
645.604	34.63
645.793	34.94
645.982	35.33
646.171	35.55
646.361	35.6
646.55	35.92
646.739	36.23
646.928	35.96
647.117	35.52
647.306	35.9
647.495	36.03
647.684	36.15
647.873	36.58
648.062	36.47
648.251	36.05
648.44	36.33
648.629	36.39
648.818	36.19
649.007	36.19
649.196	36.31
649.384	36
649.573	35.87
649.762	35.8
649.951	35.35
650.14	35.16
650.328	35.48
650.517	35.48
650.706	34.88
650.895	35.28
651.083	34.93
651.272	34.87
651.461	34.72
651.65	34.64
651.838	34.52
652.027	34.57
652.216	34.89
652.404	34.77
652.593	34.43
652.781	34.87
652.97	34.49
653.158	34.81
653.347	35.17
653.535	35.47
653.724	35.6
653.912	35.71
654.101	35.82
654.289	35.68
654.478	35.87
654.666	35.93
654.855	35.87
655.043	36.06
655.231	36
655.42	35.81
655.608	35.6
655.796	35.25
655.985	35.25
656.173	35.24
656.361	35.15
656.55	34.95
656.738	35.06
656.926	35.38
657.114	35.17
657.302	35.13
657.491	35.25
657.679	35.25
657.867	35.77
658.055	35.79
658.243	36.15
658.431	36.09
658.619	36.16
658.807	36.18
658.996	35.93
659.184	36.1
659.372	36.2
659.56	36.31
659.748	36.19
659.936	35.65
660.124	35.58
660.311	34.88
660.499	34.76
660.687	34.49
660.875	34.34
661.063	34.42
661.251	34.3
661.439	34.47
661.627	34.46
661.814	34.64
662.002	35.09
662.19	35.01
662.378	35.62
662.565	35.88
662.753	36.47
662.941	36.41
663.129	36.24
663.316	36.49
663.504	36.22
663.692	36.03
663.879	36.14
664.067	35.76
664.254	35.81
664.442	36.02
664.63	35.99
664.817	35.57
665.005	35.28
665.192	35.9
665.38	35.88
665.567	35.97
665.755	36.05
665.942	36.31
666.13	36.83
666.317	36.99
666.504	36.44
666.692	36.66
666.879	36.68
667.067	37.48
667.254	36.95
667.441	37.03
667.629	36.94
667.816	36.95
668.003	36.6
668.19	36.54
668.378	36.71
668.565	36.88
668.752	36.62
668.939	36.94
669.127	36.48
669.314	36.82
669.501	36.66
669.688	36.72
669.875	37.06
670.062	37.25
670.249	37.02
670.436	36.81
670.623	37.14
670.81	37.75
670.997	37.58
671.184	37.57
671.371	37.51
671.558	37.38
671.745	37.53
671.932	37.04
672.119	36.79
672.306	36.78
672.493	36.84
672.68	36.25
672.867	35.5
673.054	35.29
673.24	35.36
673.427	35.01
673.614	35.21
673.801	35.53
673.988	36.32
674.174	36.08
674.361	36.33
674.548	36.3
674.734	36.65
674.921	36.69
675.108	36.39
675.294	36.63
675.481	36.67
675.668	36.33
675.854	36.07
676.041	35.06
676.227	35.2
676.414	34.97
676.601	34.52
676.787	34.71
676.974	34.84
677.16	34.95
677.347	35.46
677.533	35.86
677.719	36.34
677.906	36.23
678.092	36.89
678.279	37.67
678.465	37.96
678.651	38.66
678.838	38.29
679.024	38.09
679.21	38.46
679.397	38.23
679.583	37.85
679.769	37.68
679.955	37.58
680.142	36.84
680.328	36.41
680.514	36.07
680.7	35.98
680.886	36.25
681.073	36.18
681.259	36.5
681.445	35.91
681.631	36.1
681.817	36.09
682.003	36.05
682.189	36.64
682.375	36.83
682.561	36.76
682.747	36.49
682.933	36.28
683.119	36.69
683.305	36.5
683.491	37.03
683.677	37.08
683.863	37.02
684.049	36.95
684.235	36.89
684.42	36.81
684.606	37.21
684.792	37.52
684.978	37.54
685.164	37.37
685.349	37.03
685.535	36.54
685.721	37.32
685.907	37.2
686.092	37.51
686.278	37.53
686.464	37.11
686.649	37.12
686.835	36.69
687.021	37.09
687.206	36.59
687.392	36.61
687.577	37.05
687.763	35.99
687.948	36.14
688.134	35.79
688.319	35.48
688.505	35.36
688.69	35.37
688.876	35.22
689.061	34.73
689.247	35.37
689.432	35.58
689.618	35.34
689.803	35.69
689.988	35.92
690.174	36.55
690.359	36.67
690.544	36.97
690.73	37.17
690.915	37.73
691.1	37.77
691.285	38.19
691.471	38.42
691.656	38.48
691.841	38.28
692.026	37.27
692.211	36.77
692.396	36.77
692.582	36.39
692.767	36.33
692.952	35.81
693.137	35.73
693.322	34.72
693.507	34.04
693.692	33.71
693.877	33.63
694.062	34.75
694.247	34.46
694.432	34.2
694.617	34.87
694.802	35.1
694.987	35.52
695.172	36.31
695.357	36.89
695.541	37.01
695.726	37.96
695.911	38.46
696.096	38.02
696.281	38.32
696.466	38.36
696.65	38
696.835	37.63
697.02	37.74
697.204	37.38
697.389	37.27
697.574	37.67
697.759	36.8
697.943	36.51
698.128	37.05
698.312	37.23
698.497	37.34
698.682	37.14
698.866	37.44
699.051	37.38
699.235	37.06
699.42	36.89
699.604	36.63
699.789	36.75
699.973	36.97
700.158	36.54
700.342	36.45
700.527	36.48
700.711	36.89
700.895	36.62
701.08	36.59
701.264	36.52
701.448	36.37
701.633	36.22
701.817	36.48
702.001	36.09
702.186	35.86
702.37	35.94
702.554	36.19
702.738	35.89
702.923	35.64
703.107	36.17
703.291	36.98
703.475	37.6
703.659	37.47
703.843	37.21
704.027	37.3
704.212	37.17
704.396	36.61
704.58	36.76
704.764	36.2
704.948	36.12
705.132	35.81
705.316	35.38
705.5	34.55
705.684	34.67
705.868	35.41
706.052	35.48
706.235	36.07
706.419	36.69
706.603	36.05
706.787	36.69
706.971	36.73
707.155	36.63
707.339	36.53
707.522	37.04
707.706	37.67
707.89	37.71
708.074	37.89
708.257	38.3
708.441	37.96
708.625	38.19
708.808	38.72
708.992	39.11
709.176	39.2
709.359	39.08
709.543	40.02
709.727	39.19
709.91	38.85
710.094	38.81
710.277	38.32
710.461	38.33
710.644	38.42
710.828	38.45
711.011	38.4
711.195	37.93
711.378	37.86
711.562	37.37
711.745	37.72
711.928	37.45
712.112	37.35
712.295	36.95
712.478	36.59
712.662	36.38
712.845	36.14
713.028	35.45
713.212	35.77
713.395	35.46
713.578	35.35
713.761	35.35
713.945	36.03
714.128	36.87
714.311	37.37
714.494	37.89
714.677	38.2
714.86	38.1
715.043	38.51
715.227	38.55
715.41	38.65
715.593	38.3
715.776	38.05
715.959	37.19
716.142	36.1
716.325	36.17
716.508	36.42
716.691	36.32
716.874	36.53
717.057	36.22
717.239	36.66
717.422	36.48
717.605	36.97
717.788	36.72
717.971	36.37
718.154	36.45
718.337	36.24
718.519	36.25
718.702	35.87
718.885	35.53
719.068	35.95
719.25	35.41
719.433	36.49
719.616	36.52
719.798	37.02
719.981	37.51
720.164	37.42
720.346	36.74
720.529	36.39
720.712	36.48
720.894	36.26
721.077	36.43
721.259	36.62
721.442	36.67
721.624	35.93
721.807	35.88
721.989	36.46
722.172	36.58
722.354	37.35
722.537	37.51
722.719	37.75
722.901	37.2
723.084	36.9
723.266	36.44
723.448	36.3
723.631	36
723.813	36.35
723.995	36.47
724.178	36.84
724.36	36.88
724.542	38.09
724.724	37.86
724.907	38.8
725.089	39.27
725.271	39.92
725.453	39.67
725.635	41.36
725.817	41.17
725.999	41.37
726.181	40.58
726.364	40.75
726.546	39.37
726.728	40.09
726.91	39.47
727.092	39.19
727.274	38.51
727.456	38.52
727.638	37.57
727.819	37.73
728.001	37.82
728.183	38.86
728.365	38.47
728.547	38.69
728.729	38.78
728.911	39.5
729.093	39.13
729.274	39.59
729.456	39.62
729.638	39.51
729.82	39.57
730.001	39.21
730.183	38.88
730.365	39.84
730.546	40.15
730.728	39.67
730.91	39.1
731.091	39.59
731.273	39.7
731.455	40.27
731.636	40.77
731.818	40.57
731.999	40.36
732.181	39.75
732.362	39.1
732.544	38.5
732.725	39.28
732.907	39.69
733.088	39.73
733.27	39.67
733.451	39.06
733.633	38.71
733.814	39.18
733.995	39.27
734.177	39.36
734.358	38.74
734.539	39.3
734.721	37.42
734.902	37.26
735.083	36.43
735.264	36.11
735.446	36.16
735.627	35.75
735.808	34.6
735.989	34.97
736.17	35.48
736.351	36.58
736.533	36.65
736.714	38.04
736.895	38.39
737.076	39.45
737.257	39.45
737.438	39.64
737.619	40.3
737.8	40.66
737.981	40.34
738.162	41.1
738.343	40.25
738.524	39.97
738.705	39.73
738.886	39.35
739.067	39.51
739.247	39.45
739.428	39.48
739.609	39.59
739.79	40.38
739.971	40.3
740.151	39.63
740.332	40.41
740.513	40.86
740.694	39.71
740.874	40.62
741.055	39.67
741.236	39.75
741.417	38.58
741.597	38.22
741.778	38.02
741.958	37.86
742.139	37.92
742.32	37.61
742.5	37.55
742.681	39.21
742.861	38.68
743.042	38.87
743.222	38.74
743.403	40.17
743.583	40.82
743.764	41.21
743.944	41.39
744.124	41.31
744.305	41.16
744.485	40.1
744.666	39.93
744.846	39.14
745.026	39.78
745.207	39.58
745.387	39.65
745.567	39.53
745.747	38.99
745.928	38.89
746.108	38.2
746.288	38.08
746.468	38.62
746.648	38.93
746.829	38.42
747.009	38.7
747.189	39.1
747.369	37.35
747.549	36.55
747.729	36.16
747.909	36.85
748.089	37.46
748.269	37.94
748.449	37.72
748.629	37.18
748.809	37.36
748.989	36
749.169	35.35
749.349	36.17
749.529	36.23
749.709	37.45
749.889	37.5
750.068	37.5
750.248	38.56
750.428	38.76
750.608	39.05
750.788	39.77
750.967	40.71
751.147	41.22
751.327	41.28
751.507	41.38
751.686	41.15
751.866	40.61
752.046	39.98
752.225	39.26
752.405	38.8
752.585	38.37
752.764	39.44
752.944	40.61
753.123	41.19
753.303	42.17
753.482	41.52
753.662	41.36
753.841	41.93
754.021	42.04
754.2	41.2
754.38	41.56
754.559	41.29
754.739	39.58
754.918	38.45
755.097	38.03
755.277	37.69
755.456	38.66
755.635	37.91
755.815	36.99
755.994	37.79
756.173	37.76
756.352	38.72
756.532	38.88
756.711	40.63
756.89	40.81
757.069	41.41
757.248	41.1
757.427	40.69
757.607	41.79
757.786	42.49
757.965	42.64
758.144	43.71
758.323	43.25
758.502	43.05
758.681	41.98
758.86	40.91
759.039	41
759.218	41.6
759.397	42.89
759.576	41.81
759.755	40.76
759.934	39.24
760.113	38.93
760.291	38.56
760.47	39.02
760.649	39.31
760.828	40.58
761.007	40.85
761.186	40.37
761.364	39.03
761.543	39.2
761.722	40.47
761.901	41.32
762.079	41.62
762.258	42.13
762.437	41.78
762.615	41.32
762.794	40.52
762.972	40
763.151	39.91
763.33	39.48
763.508	39.33
763.687	38.38
763.865	38.32
764.044	37.99
764.222	38.1
764.401	38.69
764.579	39.15
764.758	39.19
764.936	38.94
765.114	39.13
765.293	39.49
765.471	39.59
765.65	39.9
765.828	39.9
766.006	40.29
766.184	39.1
766.363	37.58
766.541	37.32
766.719	38.53
766.898	39.61
767.076	39.83
767.254	40.72
767.432	41.03
767.61	41.23
767.788	41.71
767.967	41.12
768.145	41.64
768.323	42.08
768.501	41.97
768.679	40.04
768.857	38.69
769.035	37.64
769.213	37.31
769.391	37.18
769.569	36.1
769.747	36.14
769.925	36.26
770.103	37.83
770.281	39.9
770.459	39.68
770.636	42.33
770.814	42.52
770.992	43.61
771.17	41.57
771.348	40.77
771.525	42.37
771.703	41.9
771.881	41.44
772.059	39.83
772.236	38.25
772.414	39.62
772.592	37.33
772.769	37.74
772.947	37.08
773.125	38.83
773.302	39.35
773.48	39.1
773.657	40.34
773.835	40.83
774.013	41.31
774.19	42.56
774.368	41.62
774.545	42.12
774.723	40.03
774.9	40.45
775.077	40.12
775.255	39.24
775.432	38.64
775.61	36.93
775.787	37.32
775.964	35.08
776.142	34.86
776.319	34.31
776.496	33.9
776.674	35.69
776.851	35.41
777.028	34.24
777.205	36.49
777.382	37.53
777.56	37.73
777.737	36.8
777.914	39.4
778.091	39.73
778.268	40.08
778.445	41.45
778.622	40.35
778.8	41.45
778.977	43.83
779.154	42.51
779.331	41.81
779.508	42.47
779.685	42.46
779.862	42.75
780.038	42.94
780.215	42.09
780.392	40.43
780.569	40.79
780.746	39.73
780.923	39.79
781.1	41.6
781.277	39.7
781.453	39.74
781.63	39.01
781.807	39.19
781.984	37.34
782.16	39.16
782.337	40.37
782.514	41.94
782.691	40.8
782.867	40.38
783.044	39.23
783.221	42.3
783.397	40.82
783.574	41.52
783.75	39.26
783.927	39.95
784.103	38.65
784.28	36.94
784.456	36
784.633	37.6
784.809	38.45
784.986	37.67
785.162	35.47
785.339	36.89
785.515	37.44
785.692	38.63
785.868	40.97
786.044	42.59
786.221	42.18
786.397	43.66
786.573	43.61
786.749	40.71
786.926	39.78
787.102	43.73
787.278	40.19
787.454	39.07
787.631	38.75
787.807	35.7
787.983	35.21
788.159	37.58
788.335	37.05
788.511	35.29
788.687	36.86
788.863	40.02
789.039	37.47
789.216	38.94
789.392	37.87
789.568	38.13
789.744	39.14
789.919	38.73
790.095	38.73
790.271	38.16
790.447	39.54
790.623	38.41
790.799	37.47
790.975	38.45
791.151	40.89
791.327	43.74
791.502	45.6
791.678	45.32
791.854	46.17
792.03	45.02
792.205	43.74
792.381	43.27
792.557	45.57
792.733	44.59
792.908	45.25
793.084	43.72
793.259	43.47
793.435	41.94
793.611	43.6
793.786	43.05
793.962	41.31
794.137	42.59
794.313	44.85
794.488	43.97
794.664	43.09
794.839	43.32
795.015	42.83
795.19	41.3
795.366	40.56
795.541	37.19
795.716	36.47
795.892	39.12
796.067	39.42
796.242	38.42
796.418	38.27
796.593	39.19
796.768	37.77
796.944	37.97
797.119	38.06
797.294	38.03
797.469	37.67
797.644	38.73
797.82	38.91
797.995	38.84
798.17	38.4
798.345	39.02
798.52	37.64
798.695	38.14
798.87	36.47
799.045	36.9
799.22	38.72
799.395	40.31
799.57	38.08
799.745	37.38
799.92	38.53
800.095	39.23
800.27	38.9
800.445	40.48
800.62	37.48
800.795	38.71
800.97	39.01
801.145	36.82
801.319	37.84
801.494	38.92
801.669	37.69
801.844	36.22
802.018	35.4
802.193	36
802.368	37.45
802.543	39.55
802.717	39.69
802.892	38.72
803.067	38.87
803.241	37.3
803.416	37.93
803.59	36.92
803.765	38.2
803.94	36.45
804.114	33.4
804.289	34.9
804.463	37.24
804.638	37.24
804.812	37.82
804.986	39.6
805.161	40.58
805.335	40.68
805.51	42.26
805.684	39.27
805.858	42.34
806.033	45.33
806.207	43.95
806.381	41.4
806.556	42.04
806.73	41.54
806.904	41.73
807.078	42.75
807.253	39.62
807.427	41.29
807.601	43.98
807.775	43.27
807.949	43.52
808.123	43.24
808.298	43.56
808.472	41.26
808.646	42.47
808.82	41.36
808.994	40.73
809.168	43.44
809.342	41.93
809.516	41.73
809.69	43.33
809.864	42.15
810.038	36.76
810.212	37.45
810.385	39.26
810.559	39.12
810.733	39.57
810.907	39.95
811.081	40.22
811.255	40.53
811.428	37.61
811.602	35.57
811.776	33.34
811.95	36.91
812.123	35.58
812.297	33.98
812.471	32.11
812.644	31.9
812.818	30.31
812.992	30.02
813.165	28.5
813.339	36.12
813.512	37.85
813.686	38.9
813.86	39.4
814.033	39.84
814.207	42.14
814.38	46.07
814.554	47.64
814.727	47.07
814.9	45.4
815.074	47.05
815.247	42.84
815.421	41.15
815.594	40.09
815.767	40.23
815.941	39.32
816.114	38.45
816.287	33.11
816.46	28.12
816.634	31.03
816.807	33.74
816.98	34.53
817.153	35.38
817.327	36
817.5	36.02
817.673	35.54
817.846	37.7
818.019	38.23
818.192	41.2
818.365	41.58
818.538	43.58
818.711	43.79
818.884	41.63
819.057	38.54
819.23	37.98
819.403	41.49
819.576	41.32
819.749	38.6
819.922	37.84
820.095	37.22
820.268	38.85
820.441	37.91
820.614	38.74
820.786	40.11
820.959	41.09
821.132	41.58
821.305	41.33
821.477	40.49
821.65	41.68
821.823	41.78
821.996	41.59
822.168	41.52
822.341	41.19
822.514	40.48
822.686	40.35
822.859	40.91
823.031	40.99
823.204	40.85
823.376	40.69
823.549	40.56
823.722	40.51
823.894	40.17
824.067	40.27
824.239	39.88
824.411	40.09
824.584	40.05
824.756	39.75
824.929	40.32
825.101	40.04
825.273	40.85
825.446	40.61
825.618	40.97
825.79	41.5
825.963	41.01
826.135	41
826.307	40.75
826.479	40.27
826.652	39.53
826.824	38.09
826.996	38.06
827.168	38.31
827.34	39.52
827.512	39.58
827.684	39.17
827.856	39.84
828.029	40.98
828.201	40.28
828.373	40.97
828.545	41.62
828.717	42.72
828.889	43.88
829.061	44.06
829.232	43.03
829.404	43.79
829.576	44.27
829.748	44.52
829.92	43.53
830.092	44.58
830.264	44.24
830.436	44.92
830.607	45.55
830.779	44.44
830.951	44.84
831.123	42.58
831.294	42.52
831.466	42.26
831.638	43.05
831.809	44.53
831.981	45.07
832.153	44.61
832.324	44.41
832.496	40.27
832.667	40.43
832.839	39.22
833.011	40.4
833.182	40.38
833.354	38.81
833.525	36.02
833.697	36.17
833.868	38.35
834.039	40.39
834.211	39.25
834.382	41.74
834.554	41.9
834.725	42.49
834.896	44.08
835.068	42.9
835.239	44.25
835.41	45.61
835.581	46.66
835.753	44.58
835.924	43.19
836.095	44.68
836.266	42.49
836.438	42.29
836.609	40.32
836.78	40.32
836.951	41.19
837.122	41.54
837.293	43.63
837.464	42.53
837.635	43.26
837.806	43.18
837.977	43.18
838.148	46.09
838.319	45.86
838.49	47.56
838.661	46.9
838.832	44.66
839.003	44.77
839.174	41.11
839.345	38.14
839.516	36.98
839.687	33.88
839.857	33.53
840.028	34.33
840.199	37.97
840.37	35.99
840.54	37.99
840.711	39.36
840.882	39.88
841.053	39.4
841.223	43.17
841.394	44.76
841.564	45.02
841.735	45.24
841.906	44.23
842.076	37.37
842.247	38.35
842.417	35.73
842.588	38.75
842.758	42.05
842.929	41.85
843.099	37.84
843.27	36.75
843.44	41.02
843.611	39.76
843.781	39.2
843.951	39.22
844.122	42.77
844.292	41.81
844.462	41.24
844.633	37.89
844.803	36.61
844.973	39.7
845.144	41.09
845.314	37.6
845.484	31.66
845.654	35.3
845.824	44.93
845.995	38.58
846.165	40.5
846.335	30.86
846.505	29.34
846.675	38.11
846.845	33.92
847.015	26.66
847.185	30.61
847.355	41.71
847.525	39.38
847.695	24.69
847.865	31.29
848.035	35.64
848.205	38.7
848.375	44.26
848.545	42.64
848.715	47.48
848.884	53.74
849.054	56.91
849.224	55.68
849.394	57.03
849.564	62.6
849.733	60.97
849.903	52.72
850.073	60.94
850.243	49.02
850.412	44.91
850.582	39.84
850.752	32.71
850.921	24.69
851.091	28.63
851.26	16.2
851.43	11.02
851.599	7.37
851.769	5.06
851.939	6.68
852.108	9.15
852.278	11.05
852.447	15.9
852.616	19.93
852.786	26.36
852.955	22.44
853.125	33.66
853.294	34.82
853.463	35.82
853.633	37.54
853.802	40.43
853.971	46.63
854.141	40.12
854.31	33.63
854.479	34.67
854.648	33.47
854.818	34.03
854.987	32.64
855.156	31.74
855.325	36.94
855.494	38.8
855.663	37.54
855.832	34.95
856.001	34.72
856.171	39.71
856.34	37.39
856.509	34.8
856.678	38.62
856.847	41.96
857.016	46.52
857.185	50.64
857.353	44.91
857.522	36.91
857.691	28.98
857.86	36.08
858.029	33.02
858.198	38.82
858.367	46.49
858.535	40.06
858.704	38.45
858.873	46.02
859.042	39.82
859.21	48.28
859.379	58.34
859.548	65.76
859.717	66.13
859.885	72.32
860.054	71.73
860.222	68.32
860.391	66.63
860.56	70.45
860.728	64.7
860.897	62.06
861.065	61.43
861.234	58.37
861.402	54.09
861.571	51.4
861.739	43.41
861.908	46.41
862.076	42.83
862.244	51.75
862.413	44.72
862.581	52.91
862.749	57.28
862.918	56.5
863.086	57.42
863.254	67.25
863.423	69.7
863.591	71.34
863.759	63.95
863.927	58.94
864.096	49.06
864.264	49.01
864.432	43.58
864.6	42.82
864.768	39.32
864.936	36.72
865.104	38.06
865.272	32.12
865.44	29.78
865.608	31.22
865.776	36.52
865.944	37.59
866.112	35.85
866.28	34.53
866.448	37.91
866.616	37.96
866.784	38.16
866.952	37.39
867.12	32.87
867.288	28.9
867.455	29.04
867.623	38.02
867.791	39.01
867.959	42.94
868.127	40.12
868.294	39.29
868.462	45.84
868.63	46.87
868.797	48.03
868.965	51.37
869.133	55.5
869.3	53.24
869.468	47.23
869.636	51.21
869.803	51.25
869.971	62.41
870.138	63.95
870.306	51.51
870.473	52.59
870.641	52.32
870.808	53.62
870.975	47.74
871.143	42.32
871.31	39.34
871.478	31.37
871.645	32.06
871.812	15.46
871.98	14.12
872.147	18.72
872.314	28.99
872.482	19.48
872.649	20.6
872.816	43.35
872.983	53.67
873.15	53.69
873.318	57.79
873.485	53.56
873.652	57.19
873.819	56.53
873.986	58.7
874.153	58.64
874.32	52.05
874.487	58.25
874.654	53.22
874.821	56.27
874.988	55.37
875.155	58.27
875.322	54.92
875.489	57.65
875.656	55.38
875.823	64.24
875.99	57.92
876.157	69.79
876.324	60.17
876.49	51.99
876.657	49.36
876.824	44.19
876.991	33.72
877.157	34.35
877.324	18.8
877.491	21.15
877.658	20.49
877.824	25.68
877.991	32.48
878.157	38.97
878.324	48.87
878.491	48.45
878.657	51.08
878.824	55.11
878.99	61.09
879.157	61.12
879.323	59.09
879.49	54.16
879.656	50.83
879.823	43.65
879.989	42.61
880.156	39.61
880.322	36.18
880.488	34.12
880.655	40.48
880.821	39.35
880.987	36.82
881.154	40.27
881.32	46.77
881.486	45.63
881.652	48.41
881.819	44.68
881.985	42.88
882.151	42.42
882.317	43.49
882.483	39.59
882.649	40.09
882.816	43.19
882.982	42.86
883.148	38.67
883.314	39.96
883.48	38.42
883.646	38.71
883.812	38.59
883.978	39.87
884.144	40.31
884.31	40.4
884.476	40.1
884.642	39.6
884.807	38.84
884.973	38.81
885.139	37.44
885.305	39.3
885.471	38.96
885.637	40.77
885.802	40.66
885.968	40.21
886.134	42.84
886.3	42.86
886.465	40.42
886.631	40.59
886.797	40.24
886.962	43.82
887.128	41.09
887.293	42.78
887.459	42.13
887.625	43.25
887.79	44.97
887.956	42.07
888.121	42.66
888.287	45.05
888.452	46.8
888.618	52.57
888.783	47.64
