Data from CB_013_Reflection_2.txt Node
Date: Wed Nov 11 18:56:04 EST 2015
User: robert
Spectrometer: USB4E03001
Autoset integration time: false
Trigger mode: 4
Integration Time (sec): 1.000000E-1
Scans to average: 15
Electric dark correction enabled: true
Nonlinearity correction enabled: false
Boxcar width: 5
Stray light correction enabled: false
XAxis mode: Wavelengths
Stop averaging: false
Number of Pixels in Spectrum: 3648
>>>>>Begin Spectral Data<<<<<
177.566	-11.13
177.785	189.41
178.005	137.95
178.225	849.01
178.445	-53.29
178.665	-349.62
178.885	17.4
179.105	232.65
179.324	170.63
179.544	-84.08
179.764	-51.48
179.984	-134.02
180.204	257.97
180.423	-116.24
180.643	-378.88
180.863	1359.76
181.083	5600.83
181.302	1037.31
181.522	-3111.08
181.742	-876.85
181.961	616.62
182.181	238.23
182.401	278.58
182.621	1255.17
182.84	247.22
183.06	272
183.279	322.83
183.499	686.85
183.719	668.75
183.938	358.35
184.158	687.59
184.377	-854.21
184.597	-230.65
184.816	-207.99
185.036	-661.18
185.256	-168.76
185.475	641.16
185.695	-8297.7
185.914	305.39
186.134	200.21
186.353	257.6
186.572	417.15
186.792	285.19
187.011	218.08
187.231	193.7
187.45	252.59
187.67	244.83
187.889	2539.56
188.108	634.02
188.328	1426.44
188.547	-1155.08
188.766	-2134.51
188.986	860.8
189.205	-55268.18
189.424	1449.78
189.644	9844.63
189.863	427.01
190.082	411.72
190.302	310.51
190.521	255.35
190.74	171.85
190.959	133.83
191.178	122.12
191.398	109.62
191.617	91.12
191.836	91
192.055	99.08
192.274	128.97
192.494	142.84
192.713	129.48
192.932	131.8
193.151	149.93
193.37	169.01
193.589	164.52
193.808	205.78
194.027	193.45
194.246	293.15
194.465	298.56
194.685	245.89
194.904	261.86
195.123	649.03
195.342	2752.47
195.561	335.33
195.78	306.89
195.999	336.53
196.218	1501.56
196.436	-708.16
196.655	-2174.06
196.874	810.56
197.093	670.18
197.312	627.15
197.531	-182.95
197.75	-308.88
197.969	-92.2
198.188	-44.93
198.407	-24.16
198.625	-213.53
198.844	-137.05
199.063	-166.39
199.282	-134.75
199.501	-75.53
199.719	-171.19
199.938	-3078.91
200.157	349.86
200.376	362.7
200.594	546.77
200.813	-25157.14
201.032	1582
201.251	408.99
201.469	387.96
201.688	369.48
201.907	372.47
202.125	263.19
202.344	173.35
202.563	210.86
202.781	217.25
203	177.75
203.218	125.56
203.437	125.19
203.656	114.91
203.874	99.3
204.093	104.3
204.311	47.37
204.53	47.76
204.748	21.86
204.967	6.14
205.185	37.04
205.404	68.02
205.622	55.58
205.841	71.81
206.059	91.03
206.278	133.6
206.496	107.43
206.715	302.22
206.933	385.77
207.151	270.71
207.37	323.98
207.588	322.38
207.806	506.99
208.025	800.61
208.243	723.6
208.461	306.81
208.68	302.2
208.898	359.53
209.116	388.75
209.335	335.15
209.553	-1164.42
209.771	439.21
209.989	-4240.87
210.208	-1977.98
210.426	-790.61
210.644	-346.86
210.862	-235.1
211.081	-232.42
211.299	-331.03
211.517	-586.85
211.735	-478.61
211.953	-702.37
212.171	-267.17
212.39	-1626.19
212.608	-4155.47
212.826	552.52
213.044	387.5
213.262	270.81
213.48	210.66
213.698	274.45
213.916	-864.61
214.134	-437.65
214.352	-1046.94
214.57	875.49
214.788	242.14
215.006	271.88
215.224	223.66
215.442	127.77
215.66	119.89
215.878	139.1
216.096	110.01
216.314	87.54
216.532	85.96
216.75	89.13
216.968	83.16
217.185	115.21
217.403	138.58
217.621	160.85
217.839	240.56
218.057	4810.05
218.275	-2169.4
218.492	-245.62
218.71	-207.45
218.928	-214.67
219.146	-110.22
219.363	-66.35
219.581	-119.11
219.799	-119.19
220.017	-72.5
220.234	-58.03
220.452	-52.92
220.67	-54.26
220.887	-146.93
221.105	-80.43
221.323	-141.98
221.54	-71.67
221.758	-39.8
221.976	-50.93
222.193	-47.34
222.411	-94.12
222.629	-103.77
222.846	-121.09
223.064	-74.62
223.281	-55.58
223.499	-66.71
223.716	-66.63
223.934	-273.35
224.151	-617.89
224.369	-308.44
224.586	114825
224.804	-293.69
225.021	-120.38
225.239	-74.88
225.456	-154.53
225.674	-177.87
225.891	-68
226.108	-37.53
226.326	-30.05
226.543	-54.96
226.76	-38.56
226.978	-23.42
227.195	-22.71
227.413	-17.78
227.63	-23.3
227.847	-15.35
228.064	-7.44
228.282	-1.9
228.499	3.16
228.716	5.26
228.934	9.43
229.151	8.83
229.368	7.19
229.585	8.48
229.802	9.98
230.02	10.66
230.237	11.2
230.454	12.48
230.671	9.44
230.888	1.62
231.105	-0.28
231.323	-0.63
231.54	-1.99
231.757	-4.72
231.974	-2.4
232.191	-3.11
232.408	-0.41
232.625	-8.4
232.842	-13.69
233.059	-12.08
233.276	0.28
233.493	0.13
233.71	-5.13
233.927	-2.25
234.144	-0.75
234.361	0.35
234.578	-0.11
234.795	-2.44
235.012	-0.21
235.229	0.19
235.446	-3.29
235.663	-12.12
235.879	-4
236.096	-4.72
236.313	-18.65
236.53	-21.4
236.747	-18.29
236.964	-19.2
237.181	-26.27
237.397	-18.09
237.614	-16.01
237.831	-19.73
238.048	-21.94
238.264	-32.53
238.481	-28.92
238.698	-21.02
238.915	-21.49
239.131	-27.82
239.348	-34.86
239.565	-27.8
239.781	-28.55
239.998	-24.12
240.215	-16.87
240.431	-12.82
240.648	-8.23
240.865	-5.43
241.081	-3.88
241.298	-1.32
241.514	-1.54
241.731	3.23
241.947	3.17
242.164	2.74
242.38	0.54
242.597	0.06
242.814	1.3
243.03	0.47
243.246	2.16
243.463	4.15
243.679	4.6
243.896	4.79
244.112	2.8
244.329	2.81
244.545	4.58
244.762	7.42
244.978	8.27
245.194	7.87
245.411	5.89
245.627	2.83
245.843	2.49
246.06	5.66
246.276	6.05
246.492	6.67
246.709	6.84
246.925	6.33
247.141	6.11
247.357	5.9
247.574	5.38
247.79	6.45
248.006	7.04
248.222	6.79
248.439	5.05
248.655	6.19
248.871	6.15
249.087	6.82
249.303	5.57
249.519	5.56
249.736	4.26
249.952	5.64
250.168	3.78
250.384	3.59
250.6	2.93
250.816	1.77
251.032	-1.21
251.248	-1.86
251.464	0.42
251.68	0.11
251.896	0.16
252.112	0.62
252.328	1.6
252.544	1.94
252.76	0.72
252.976	0.22
253.192	1.17
253.408	0.74
253.624	1.51
253.84	-2.53
254.056	-1.53
254.272	-3.73
254.487	-5.05
254.703	-8.91
254.919	-7.59
255.135	-10.05
255.351	-13.02
255.567	-11.96
255.782	-11.11
255.998	-12.76
256.214	-13.12
256.43	-9.47
256.646	-6.15
256.861	-5.44
257.077	-5.03
257.293	-9.09
257.508	-6.56
257.724	-4.63
257.94	-6.15
258.155	-5.15
258.371	-2.9
258.587	-0.93
258.802	-1.16
259.018	-1.09
259.234	0.01
259.449	1
259.665	2.25
259.88	3.23
260.096	4.08
260.312	4.59
260.527	4.75
260.743	4.11
260.958	4.17
261.174	3.95
261.389	3.54
261.605	3.67
261.82	3.26
262.036	3.1
262.251	2.33
262.466	2.07
262.682	-0.14
262.897	-0.94
263.113	-3.28
263.328	-3.61
263.543	-2.94
263.759	-3.84
263.974	-5.18
264.189	-6.05
264.405	-6.6
264.62	-6.38
264.835	-7.22
265.051	-3.79
265.266	-5.51
265.481	-1.99
265.696	-3.17
265.912	-5.58
266.127	-3.1
266.342	-0.71
266.557	-1.87
266.773	-1.98
266.988	-3.4
267.203	-4.43
267.418	-4.54
267.633	-2.94
267.848	-2.57
268.064	-1.61
268.279	-0.88
268.494	-1.75
268.709	-1.62
268.924	-0.38
269.139	-0.88
269.354	-0.51
269.569	1.95
269.784	1.97
269.999	1.62
270.214	2.29
270.429	1.63
270.644	2.91
270.859	2.1
271.074	1.78
271.289	1.54
271.504	2.77
271.719	2.95
271.934	2.12
272.149	1.74
272.363	1.4
272.578	0.31
272.793	1.51
273.008	0.94
273.223	1.08
273.438	0.87
273.653	1.64
273.867	1.38
274.082	1.08
274.297	0.97
274.512	1.4
274.726	2.06
274.941	1.79
275.156	1.55
275.371	0.97
275.585	0.25
275.8	-0.31
276.015	-1.38
276.229	-2.74
276.444	-2.56
276.659	-4.09
276.873	-6.16
277.088	-6.52
277.302	-6.66
277.517	-7.28
277.732	-7.26
277.946	-7.24
278.161	-7.89
278.375	-8.2
278.59	-7.6
278.804	-7.22
279.019	-4.72
279.233	-2.75
279.448	-1.91
279.662	-1.3
279.877	-1.71
280.091	-0.39
280.306	1.05
280.52	1.79
280.735	0.94
280.949	1.62
281.163	2.79
281.378	1.25
281.592	2.63
281.806	2.31
282.021	2.69
282.235	1.94
282.449	0.61
282.664	-0.43
282.878	-0.03
283.092	0.02
283.307	0.6
283.521	0.42
283.735	1.92
283.949	0.34
284.164	-0.1
284.378	0.42
284.592	2.02
284.806	2.55
285.02	3.61
285.234	4.15
285.449	5.31
285.663	4.42
285.877	4.17
286.091	4.21
286.305	4.55
286.519	5.28
286.733	5.15
286.947	4.33
287.161	4.78
287.375	5.12
287.589	3.95
287.803	4.13
288.017	4.57
288.231	4.01
288.445	4.51
288.659	4.76
288.873	4.85
289.087	3.6
289.301	4.43
289.515	4.61
289.729	5.01
289.943	6.24
290.157	5.56
290.371	5.62
290.584	6.15
290.798	6.17
291.012	6.12
291.226	6.28
291.44	7.06
291.654	7.48
291.867	8.11
292.081	6.71
292.295	6.94
292.509	7.1
292.722	7.69
292.936	6.8
293.15	6.22
293.364	7.17
293.577	6.97
293.791	7.11
294.005	6.53
294.218	6.9
294.432	7.34
294.645	7.72
294.859	7.52
295.073	6.35
295.286	6.92
295.5	6.24
295.713	5.81
295.927	6.33
296.14	6.84
296.354	6.71
296.568	6.07
296.781	5.91
296.994	3.78
297.208	3.73
297.421	5.83
297.635	6.06
297.848	6.7
298.062	7.05
298.275	6
298.489	5.57
298.702	6.05
298.915	6.24
299.129	6.77
299.342	9.05
299.555	10.26
299.769	9.24
299.982	9.38
300.195	9.22
300.409	8.7
300.622	11.27
300.835	11.06
301.048	10.81
301.262	10.1
301.475	10.47
301.688	9.53
301.901	8.61
302.115	7.78
302.328	7.6
302.541	6.44
302.754	6.9
302.967	3.74
303.18	3.75
303.393	4.3
303.607	5.32
303.82	5.24
304.033	5.14
304.246	5.31
304.459	4.96
304.672	5
304.885	5.65
305.098	5.1
305.311	6.8
305.524	6.49
305.737	5.17
305.95	4.3
306.163	4.21
306.376	4.4
306.589	4.07
306.802	4.28
307.015	3.89
307.228	3.94
307.44	5.92
307.653	5.91
307.866	7.06
308.079	7.36
308.292	8.48
308.505	8.67
308.718	8.6
308.93	9.07
309.143	10.42
309.356	10.06
309.569	10.06
309.781	8.86
309.994	7.75
310.207	8.45
310.42	9.67
310.632	9.08
310.845	9.24
311.058	9.92
311.27	9.83
311.483	10.49
311.696	10.95
311.908	10.47
312.121	10.19
312.333	10.25
312.546	10.55
312.759	9.05
312.971	8.8
313.184	7.7
313.396	8.19
313.609	9.53
313.821	8.12
314.034	9.29
314.246	10.13
314.459	9.44
314.671	10.48
314.884	8.88
315.096	10.43
315.309	9.79
315.521	9.9
315.733	8.21
315.946	7.16
316.158	7.1
316.371	5.46
316.583	4.97
316.795	7.04
317.008	6.18
317.22	7.39
317.432	6.82
317.644	6.02
317.857	6.91
318.069	7.43
318.281	6.9
318.494	6.59
318.706	6.99
318.918	7.85
319.13	6.21
319.342	6.86
319.555	6
319.767	5.36
319.979	7.72
320.191	6.21
320.403	5.5
320.615	6.18
320.827	5.61
321.039	6.38
321.252	5.89
321.464	5.4
321.676	4.89
321.888	4.49
322.1	5.64
322.312	5.5
322.524	7.34
322.736	8.23
322.948	7.84
323.16	9.51
323.372	8.71
323.584	8.74
323.796	8.32
324.007	9.21
324.219	9.19
324.431	9.27
324.643	8.34
324.855	8.16
325.067	8.02
325.279	7.98
325.491	6.96
325.702	7.46
325.914	7.74
326.126	8.1
326.338	7.56
326.55	9.4
326.761	9.59
326.973	10.26
327.185	9.89
327.396	9.15
327.608	8.82
327.82	9.84
328.032	10.09
328.243	10.07
328.455	12.01
328.666	12.95
328.878	11.03
329.09	10.36
329.301	9.25
329.513	11.08
329.725	12.48
329.936	11.71
330.148	10.88
330.359	10.56
330.571	11.3
330.782	10.01
330.994	8.87
331.205	10.31
331.417	10.4
331.628	10.32
331.84	9.16
332.051	9.21
332.262	10.23
332.474	11.43
332.685	12.94
332.897	11.74
333.108	12.3
333.319	13.87
333.531	13.22
333.742	13.01
333.953	15.21
334.165	14.71
334.376	14.24
334.587	15.41
334.799	13.87
335.01	12.67
335.221	13.58
335.432	14.34
335.644	13.19
335.855	13.79
336.066	13.94
336.277	12.7
336.488	13.38
336.7	13.91
336.911	14.26
337.122	15.12
337.333	14.73
337.544	14.26
337.755	14.15
337.966	13.56
338.177	13.42
338.388	13.63
338.599	14.15
338.811	14.47
339.022	14.87
339.233	14.41
339.444	14.27
339.655	15.78
339.866	15.95
340.076	16.1
340.287	17.01
340.498	17.67
340.709	17.29
340.92	17.58
341.131	16.61
341.342	16
341.553	15.28
341.764	15.33
341.975	13.93
342.185	13.93
342.396	13.59
342.607	12.98
342.818	11.85
343.029	12.62
343.239	12.7
343.45	12.72
343.661	12.79
343.872	13.84
344.082	13.29
344.293	14.2
344.504	14.86
344.714	15.27
344.925	15.8
345.136	15.97
345.346	16.67
345.557	15.98
345.768	16.42
345.978	16.77
346.189	16.06
346.399	17.34
346.61	17.01
346.821	16.55
347.031	15.34
347.242	15.81
347.452	15.72
347.663	15.06
347.873	16.06
348.084	15.88
348.294	14.82
348.504	14.33
348.715	14.14
348.925	14.58
349.136	14.81
349.346	16.33
349.557	16.63
349.767	16.81
349.977	16.18
350.188	15.88
350.398	15.82
350.608	16.95
350.819	18.24
351.029	17.36
351.239	17.07
351.449	16.41
351.66	15.54
351.87	14.92
352.08	15.06
352.29	15.83
352.501	15.73
352.711	16.1
352.921	15.26
353.131	15.73
353.341	16.52
353.552	16.44
353.762	17.9
353.972	18.09
354.182	18.34
354.392	17.82
354.602	16.89
354.812	16.08
355.022	15.71
355.232	15.54
355.442	13.93
355.652	13.69
355.862	13.64
356.072	12.36
356.282	11.86
356.492	11.69
356.702	12.41
356.912	12.73
357.122	13.5
357.332	13.63
357.542	13.92
357.752	14.43
357.962	14.34
358.171	14.51
358.381	14.92
358.591	15.92
358.801	15.92
359.011	15.66
359.221	15.68
359.43	15.18
359.64	15.01
359.85	15.34
360.06	15.18
360.269	15.7
360.479	15.83
360.689	15.61
360.899	15.45
361.108	15.57
361.318	15.31
361.528	15.62
361.737	15.67
361.947	15.75
362.156	15.35
362.366	15.76
362.576	14.91
362.785	14.74
362.995	15.07
363.204	14.78
363.414	14.35
363.623	14.69
363.833	14.79
364.042	15.02
364.252	14.97
364.461	15.29
364.671	15.1
364.88	15.07
365.09	14.53
365.299	14.29
365.509	13.72
365.718	13.7
365.927	13.18
366.137	12.66
366.346	12.7
366.555	12.19
366.765	12.14
366.974	11.7
367.183	11.91
367.393	12.29
367.602	12.29
367.811	12.4
368.021	12.54
368.23	12.74
368.439	12.13
368.648	12.48
368.857	13.82
369.067	13.23
369.276	13.42
369.485	13.69
369.694	14.04
369.903	13.64
370.112	13.96
370.321	13.28
370.531	12.55
370.74	12.73
370.949	11.85
371.158	10.98
371.367	11.1
371.576	10.91
371.785	11
371.994	11.07
372.203	11.01
372.412	11.14
372.621	11.96
372.83	12.91
373.039	13.33
373.248	14.01
373.457	13.71
373.666	13.77
373.874	13.63
374.083	13.83
374.292	13.24
374.501	13.09
374.71	12.46
374.919	12.87
375.128	12.4
375.336	11.7
375.545	10.9
375.754	11.1
375.963	11.26
376.171	11.61
376.38	11.17
376.589	11.63
376.798	11.95
377.006	11.93
377.215	11.64
377.424	11.89
377.632	12.25
377.841	12.72
378.05	12.53
378.258	12.29
378.467	12.24
378.675	12.08
378.884	11.51
379.093	11.06
379.301	11.45
379.51	10.84
379.718	10.52
379.927	10.46
380.135	10.02
380.344	10.37
380.552	10.78
380.761	10.49
380.969	10.43
381.177	10.82
381.386	10.84
381.594	10.63
381.803	10.53
382.011	10.78
382.219	10.69
382.428	10.39
382.636	10.29
382.845	9.89
383.053	10.1
383.261	10.01
383.469	9.91
383.678	10.13
383.886	10.29
384.094	10.22
384.302	10.2
384.511	10.02
384.719	10.49
384.927	10.55
385.135	10.43
385.343	10.21
385.552	10.35
385.76	10.19
385.968	10.42
386.176	10.3
386.384	10.4
386.592	10.18
386.8	10.3
387.008	10.14
387.216	9.84
387.424	10.2
387.633	10.29
387.841	10.35
388.049	10.1
388.257	9.68
388.465	9.51
388.672	9.49
388.88	9.49
389.088	9.38
389.296	9.41
389.504	9.55
389.712	9.36
389.92	9.22
390.128	8.93
390.336	8.52
390.544	8.43
390.751	8.31
390.959	7.86
391.167	7.95
391.375	7.89
391.583	7.63
391.79	7.36
391.998	7.29
392.206	7.06
392.414	7.18
392.621	7.85
392.829	7.93
393.037	7.93
393.244	8.27
393.452	7.92
393.66	7.86
393.867	7.92
394.075	8.18
394.283	7.89
394.49	8.43
394.698	8.58
394.905	8.25
395.113	7.91
395.32	7.91
395.528	7.64
395.735	7.52
395.943	7.35
396.15	7.31
396.358	7.14
396.565	7.17
396.773	6.89
396.98	6.64
397.188	6.85
397.395	7.09
397.602	7.06
397.81	7.38
398.017	7.58
398.225	7.62
398.432	7.76
398.639	8.19
398.847	8.21
399.054	7.8
399.261	7.86
399.468	7.6
399.676	7.63
399.883	7.43
400.09	7.51
400.297	7.45
400.505	7.56
400.712	7.62
400.919	7.21
401.126	7.11
401.333	7.59
401.54	7.38
401.748	7.24
401.955	7.12
402.162	7.24
402.369	7.02
402.576	6.92
402.783	7.03
402.99	6.9
403.197	6.79
403.404	6.62
403.611	6.16
403.818	6.18
404.025	6.18
404.232	6.35
404.439	6.32
404.646	6.13
404.853	6.24
405.06	6.15
405.267	6.14
405.474	5.98
405.681	6.34
405.887	6.45
406.094	6.69
406.301	6.72
406.508	6.63
406.715	6.61
406.922	6.89
407.128	6.92
407.335	6.94
407.542	7.08
407.749	7.09
407.955	6.85
408.162	7.01
408.369	6.9
408.575	6.96
408.782	7.09
408.989	7.1
409.195	7.29
409.402	7.33
409.609	7.2
409.815	7.17
410.022	7.19
410.228	7.28
410.435	7.22
410.642	7.08
410.848	6.89
411.055	6.79
411.261	6.67
411.468	6.45
411.674	6.3
411.881	6.19
412.087	5.72
412.294	5.91
412.5	5.97
412.706	6
412.913	5.7
413.119	5.91
413.326	5.97
413.532	6.23
413.738	6.31
413.945	6.3
414.151	6.49
414.357	6.81
414.564	6.67
414.77	6.66
414.976	6.64
415.182	6.78
415.389	6.89
415.595	7.03
415.801	6.76
416.007	6.76
416.214	6.49
416.42	6.18
416.626	6.21
416.832	6.43
417.038	6.48
417.244	6.48
417.45	6.7
417.657	6.4
417.863	6.01
418.069	6.01
418.275	6.03
418.481	6.34
418.687	6.46
418.893	6.4
419.099	6.31
419.305	6.31
419.511	6.34
419.717	6.21
419.923	6.4
420.129	6.75
420.335	6.92
420.541	6.84
420.746	6.9
420.952	7.02
421.158	7.06
421.364	6.96
421.57	6.96
421.776	6.79
421.982	6.84
422.187	6.69
422.393	6.52
422.599	6.46
422.805	6.5
423.01	6.43
423.216	6.37
423.422	6.21
423.628	6.35
423.833	6.3
424.039	6.49
424.245	6.51
424.45	6.67
424.656	6.64
424.862	6.69
425.067	6.76
425.273	6.76
425.478	6.88
425.684	7.09
425.889	7.09
426.095	7.04
426.301	7.12
426.506	7.12
426.712	7.13
426.917	7.29
427.123	7.14
427.328	6.85
427.533	6.84
427.739	6.53
427.944	6.49
428.15	6.31
428.355	6.48
428.561	6.2
428.766	6.08
428.971	6.1
429.177	6.02
429.382	5.97
429.587	6.26
429.793	6.19
429.998	6.43
430.203	6.36
430.408	6.29
430.614	6.31
430.819	6.4
431.024	6.35
431.229	6.24
431.434	6.28
431.64	6.23
431.845	6.13
432.05	6.24
432.255	6.1
432.46	6.04
432.665	6.07
432.87	5.94
433.076	6.2
433.281	6.13
433.486	6.05
433.691	5.74
433.896	5.79
434.101	5.89
434.306	5.89
434.511	5.88
434.716	5.83
434.921	5.98
435.126	6.07
435.331	5.54
435.535	5.74
435.74	5.82
435.945	5.96
436.15	5.91
436.355	5.72
436.56	5.51
436.765	5.54
436.97	5.5
437.174	5.41
437.379	5.2
437.584	5.35
437.789	5.36
437.993	5.38
438.198	5.59
438.403	5.85
438.608	5.94
438.812	6.05
439.017	6
439.222	6.29
439.426	6.36
439.631	6.47
439.836	6.58
440.04	6.44
440.245	6.38
440.45	6.25
440.654	6.23
440.859	6.3
441.063	6.14
441.268	6.3
441.472	6.3
441.677	6.13
441.881	6.09
442.086	6.09
442.29	6.31
442.495	6.4
442.699	6.22
442.904	6.09
443.108	6.02
443.312	6.13
443.517	5.95
443.721	5.81
443.925	5.99
444.13	6.02
444.334	6.24
444.538	6.1
444.743	6.1
444.947	6.34
445.151	6.41
445.356	6.45
445.56	6.39
445.764	6.37
445.968	6.33
446.173	6.33
446.377	6.22
446.581	5.98
446.785	6.11
446.989	6.19
447.193	6.05
447.398	6
447.602	5.92
447.806	6.06
448.01	6.07
448.214	6.1
448.418	5.97
448.622	6.24
448.826	6.35
449.03	6.31
449.234	6.16
449.438	6.31
449.642	6.21
449.846	6.17
450.05	6.13
450.254	6.16
450.458	6.15
450.662	6.18
450.866	5.86
451.069	5.82
451.273	5.77
451.477	5.82
451.681	5.88
451.885	5.97
452.089	5.93
452.292	5.99
452.496	6.07
452.7	6.11
452.904	6.15
453.107	6.13
453.311	6.15
453.515	5.95
453.719	5.88
453.922	5.77
454.126	5.83
454.33	5.96
454.533	5.78
454.737	5.86
454.94	5.77
455.144	5.74
455.348	5.83
455.551	5.72
455.755	5.79
455.958	5.66
456.162	5.6
456.365	5.26
456.569	5.11
456.772	5.13
456.976	4.78
457.179	4.68
457.383	4.84
457.586	4.86
457.79	4.84
457.993	4.74
458.196	4.81
458.4	4.79
458.603	5.04
458.807	5.34
459.01	5.27
459.213	5.56
459.417	5.51
459.62	5.47
459.823	5.46
460.026	5.54
460.23	5.76
460.433	5.76
460.636	5.78
460.839	5.78
461.042	5.61
461.246	5.71
461.449	5.6
461.652	5.7
461.855	5.58
462.058	5.54
462.261	5.46
462.464	5.27
462.668	5.21
462.871	5.31
463.074	5.27
463.277	5.32
463.48	5.28
463.683	5.32
463.886	5.4
464.089	5.54
464.292	5.66
464.495	5.52
464.698	5.67
464.901	5.9
465.104	5.85
465.306	5.92
465.509	5.92
465.712	5.95
465.915	5.78
466.118	6.02
466.321	5.95
466.524	6.06
466.726	6.29
466.929	6.04
467.132	5.86
467.335	6.04
467.538	6.04
467.74	5.97
467.943	6.01
468.146	6.07
468.348	5.78
468.551	5.82
468.754	5.85
468.956	5.87
469.159	6.11
469.362	6.23
469.564	6.05
469.767	6.12
469.969	6.29
470.172	6.46
470.375	6.38
470.577	6.34
470.78	6.38
470.982	6.29
471.185	6.13
471.387	6.13
471.59	6.09
471.792	6.08
471.995	5.98
472.197	5.71
472.399	5.43
472.602	5.51
472.804	5.67
473.007	5.64
473.209	5.65
473.411	5.66
473.614	5.48
473.816	5.23
474.018	5.38
474.22	5.41
474.423	5.63
474.625	5.62
474.827	5.63
475.03	5.47
475.232	5.49
475.434	5.32
475.636	5.56
475.838	5.59
476.04	5.95
476.243	5.79
476.445	5.81
476.647	5.73
476.849	5.87
477.051	5.87
477.253	5.87
477.455	5.85
477.657	5.97
477.859	5.85
478.061	5.84
478.263	5.94
478.465	5.93
478.667	5.94
478.869	5.89
479.071	5.86
479.273	5.88
479.475	5.86
479.677	5.8
479.879	5.71
480.081	5.8
480.283	5.82
480.485	5.81
480.686	5.82
480.888	5.66
481.09	5.69
481.292	5.7
481.494	5.7
481.695	5.65
481.897	5.71
482.099	5.7
482.301	5.69
482.502	5.77
482.704	5.66
482.906	5.76
483.107	5.82
483.309	5.85
483.511	5.98
483.712	6.01
483.914	6.01
484.115	6.05
484.317	6.06
484.519	6.07
484.72	6
484.922	6.07
485.123	6.03
485.325	6.09
485.526	6.11
485.728	6
485.929	6.01
486.131	6.08
486.332	6
486.534	6.04
486.735	6
486.936	6.1
487.138	6.05
487.339	6.08
487.541	5.98
487.742	5.97
487.943	5.96
488.144	5.95
488.346	5.96
488.547	5.99
488.748	5.97
488.95	5.99
489.151	5.93
489.352	5.93
489.553	5.91
489.755	6.01
489.956	6.05
490.157	6.06
490.358	6.08
490.559	6.04
490.76	6
490.961	6.03
491.163	6.07
491.364	6.18
491.565	6.15
491.766	6.21
491.967	6.17
492.168	6.21
492.369	6.19
492.57	6.17
492.771	6.23
492.972	6.17
493.173	6.22
493.374	6.09
493.575	5.96
493.776	5.92
493.976	5.83
494.177	5.75
494.378	5.61
494.579	5.48
494.78	5.47
494.981	5.45
495.182	5.71
495.382	5.5
495.583	5.76
495.784	5.8
495.985	5.85
496.185	5.85
496.386	5.81
496.587	5.89
496.788	5.94
496.988	5.96
497.189	5.98
497.39	5.82
497.59	5.85
497.791	5.73
497.992	5.88
498.192	5.86
498.393	5.77
498.593	5.84
498.794	5.84
498.994	5.88
499.195	5.86
499.395	5.93
499.596	6.04
499.796	6.12
499.997	6.12
500.197	5.97
500.398	6.17
500.598	6.39
500.799	6.38
500.999	6.36
501.199	6.53
501.4	6.55
501.6	6.56
501.801	6.48
502.001	6.44
502.201	6.51
502.402	6.51
502.602	6.37
502.802	6.38
503.002	6.59
503.203	6.52
503.403	6.52
503.603	6.38
503.803	6.28
504.003	6.31
504.204	6.52
504.404	6.62
504.604	6.66
504.804	6.72
505.004	6.55
505.204	6.45
505.404	6.48
505.604	6.37
505.804	6.54
506.005	6.48
506.205	6.54
506.405	6.46
506.605	6.63
506.805	6.7
507.005	6.65
507.204	6.81
507.404	6.82
507.604	7.01
507.804	7.13
508.004	7.45
508.204	7.62
508.404	7.63
508.604	7.63
508.804	7.55
509.003	7.56
509.203	7.76
509.403	7.76
509.603	7.8
509.803	7.79
510.002	7.85
510.202	7.69
510.402	7.75
510.602	7.83
510.801	7.91
511.001	7.92
511.201	7.85
511.4	7.94
511.6	8.1
511.8	8.21
511.999	8.12
512.199	8.08
512.398	8.11
512.598	8.11
512.797	8.25
512.997	8.22
513.197	8.27
513.396	8.47
513.596	8.37
513.795	8.27
513.994	8.28
514.194	8.47
514.393	8.71
514.593	8.74
514.792	8.79
514.992	8.95
515.191	8.98
515.39	9.02
515.59	9.22
515.789	9.35
515.988	9.42
516.188	9.64
516.387	9.7
516.586	9.59
516.786	9.56
516.985	9.79
517.184	9.61
517.383	9.72
517.582	9.87
517.782	9.78
517.981	9.92
518.18	10.07
518.379	10.09
518.578	10.16
518.777	10.3
518.976	10.44
519.176	10.33
519.375	10.43
519.574	10.57
519.773	10.59
519.972	10.55
520.171	10.46
520.37	10.51
520.569	10.5
520.768	10.48
520.967	10.42
521.166	10.41
521.365	10.49
521.564	10.53
521.762	10.44
521.961	10.43
522.16	10.52
522.359	10.66
522.558	10.66
522.757	10.75
522.956	10.77
523.154	10.91
523.353	11.1
523.552	11.21
523.751	11.28
523.949	11.43
524.148	11.54
524.347	11.8
524.546	11.89
524.744	12.01
524.943	12.11
525.142	12.24
525.34	12.34
525.539	12.39
525.737	12.55
525.936	12.7
526.135	12.78
526.333	12.87
526.532	12.92
526.73	12.93
526.929	13.04
527.127	13.07
527.326	13.14
527.524	13.23
527.723	13.26
527.921	13.3
528.12	13.37
528.318	13.36
528.516	13.45
528.715	13.48
528.913	13.53
529.112	13.52
529.31	13.58
529.508	13.63
529.707	13.62
529.905	13.63
530.103	13.59
530.301	13.54
530.5	13.65
530.698	13.64
530.896	13.62
531.094	13.71
531.293	13.78
531.491	13.77
531.689	13.87
531.887	13.98
532.085	14.14
532.283	14.19
532.481	14.38
532.68	14.41
532.878	14.38
533.076	14.56
533.274	14.61
533.472	14.67
533.67	14.78
533.868	14.83
534.066	14.91
534.264	14.97
534.462	15.15
534.66	15.14
534.858	15.21
535.056	15.35
535.253	15.33
535.451	15.41
535.649	15.53
535.847	15.54
536.045	15.61
536.243	15.7
536.441	15.76
536.638	15.76
536.836	15.81
537.034	15.91
537.232	15.99
537.43	16.09
537.627	16.07
537.825	15.97
538.023	16.03
538.22	16.09
538.418	15.98
538.616	15.99
538.813	16.11
539.011	16.06
539.209	16.04
539.406	16.13
539.604	16.19
539.801	16.26
539.999	16.4
540.196	16.56
540.394	16.61
540.591	16.77
540.789	16.73
540.986	16.75
541.184	16.91
541.381	17.07
541.579	17.12
541.776	17.19
541.974	17.35
542.171	17.45
542.368	17.44
542.566	17.45
542.763	17.57
542.96	17.71
543.158	17.76
543.355	17.85
543.552	17.91
543.75	18.02
543.947	18.02
544.144	18.03
544.341	18.11
544.539	18.3
544.736	18.5
544.933	18.41
545.13	18.56
545.327	18.65
545.524	18.75
545.722	18.74
545.919	18.81
546.116	18.91
546.313	18.88
546.51	18.98
546.707	18.9
546.904	18.95
547.101	19.16
547.298	19.09
547.495	19.2
547.692	19.14
547.889	19.23
548.086	19.17
548.283	19.43
548.48	19.57
548.677	19.47
548.874	19.67
549.07	19.7
549.267	19.69
549.464	19.87
549.661	19.7
549.858	19.87
550.055	19.91
550.251	19.97
550.448	19.86
550.645	20.11
550.842	20.3
551.038	20.23
551.235	20.21
551.432	20.31
551.628	20.37
551.825	20.69
552.022	20.86
552.218	21.11
552.415	21.43
552.612	21.47
552.808	21.35
553.005	21.49
553.201	21.61
553.398	21.77
553.594	21.72
553.791	21.86
553.987	21.98
554.184	22.04
554.38	21.91
554.577	21.81
554.773	21.91
554.97	22.11
555.166	22.03
555.362	22.24
555.559	22.5
555.755	22.56
555.952	22.69
556.148	22.67
556.344	22.53
556.541	22.78
556.737	22.81
556.933	22.55
557.129	22.51
557.326	22.8
557.522	22.72
557.718	22.37
557.914	22.67
558.11	22.53
558.307	22.68
558.503	22.79
558.699	22.84
558.895	22.97
559.091	23.2
559.287	23.22
559.483	22.97
559.679	23.29
559.876	23.78
560.072	23.62
560.268	23.6
560.464	23.5
560.66	23.56
560.856	23.44
561.052	23.63
561.247	23.97
561.443	24.05
561.639	24.42
561.835	24.23
562.031	24.04
562.227	24.25
562.423	24.67
562.619	24.94
562.815	25.16
563.01	25.47
563.206	25.22
563.402	25.16
563.598	25.32
563.793	25.11
563.989	25.2
564.185	25.32
564.381	25.26
564.576	25.17
564.772	25.19
564.968	25.17
565.163	25.3
565.359	25.4
565.555	25.46
565.75	25.49
565.946	25.59
566.141	25.69
566.337	25.9
566.532	26
566.728	26.01
566.923	26.03
567.119	26.03
567.314	25.96
567.51	26.14
567.705	26.26
567.901	26.3
568.096	26.58
568.292	26.54
568.487	26.53
568.682	26.69
568.878	26.79
569.073	27.08
569.268	27.29
569.464	27.48
569.659	27.54
569.854	27.47
570.05	27.45
570.245	27.25
570.44	27.43
570.635	27.52
570.831	27.56
571.026	27.8
571.221	27.7
571.416	27.59
571.611	27.7
571.806	27.7
572.002	27.88
572.197	27.92
572.392	28.13
572.587	28.2
572.782	28.11
572.977	28.15
573.172	27.99
573.367	27.97
573.562	28.09
573.757	28.09
573.952	28.17
574.147	28.08
574.342	28.25
574.537	28.12
574.732	28.1
574.927	28.16
575.121	28.04
575.316	28.18
575.511	28.17
575.706	28.29
575.901	28.2
576.096	28.13
576.29	28.23
576.485	28.22
576.68	28.35
576.875	28.17
577.069	28.35
577.264	28.25
577.459	28.04
577.654	28.3
577.848	28.16
578.043	28.31
578.238	28.43
578.432	28.34
578.627	28.54
578.821	28.55
579.016	28.99
579.21	28.89
579.405	29.11
579.6	29.23
579.794	29.2
579.989	29.32
580.183	29.27
580.378	29.32
580.572	29.43
580.766	29.42
580.961	29.58
581.155	29.4
581.35	29.26
581.544	29.12
581.738	29.27
581.933	28.9
582.127	28.78
582.321	28.71
582.516	28.76
582.71	28.94
582.904	28.77
583.099	29.02
583.293	29.12
583.487	29.47
583.681	29.66
583.875	29.78
584.07	29.87
584.264	30.02
584.458	30.25
584.652	30.2
584.846	29.94
585.04	29.99
585.234	29.46
585.428	29.53
585.623	29.53
585.817	29.67
586.011	29.4
586.205	29.53
586.399	29.61
586.593	29.33
586.787	29.44
586.981	29.73
587.174	30.12
587.368	30.59
587.562	30.46
587.756	30.45
587.95	30.66
588.144	30.87
588.338	31.03
588.532	31.18
588.725	31.43
588.919	31.56
589.113	31.55
589.307	31.2
589.501	31.2
589.694	31.16
589.888	31.13
590.082	30.96
590.275	31.06
590.469	31.17
590.663	31.09
590.856	30.88
591.05	30.73
591.244	30.65
591.437	30.78
591.631	30.82
591.824	31.04
592.018	31.14
592.212	31.3
592.405	31.17
592.599	31.11
592.792	31.24
592.986	31.44
593.179	31.55
593.372	31.69
593.566	31.63
593.759	31.63
593.953	31.42
594.146	31.69
594.339	31.83
594.533	31.87
594.726	31.89
594.92	31.83
595.113	31.76
595.306	31.69
595.499	31.75
595.693	31.8
595.886	31.72
596.079	32.05
596.272	32.11
596.466	31.99
596.659	32.15
596.852	32.16
597.045	32.31
597.238	32.42
597.431	32.49
597.624	32.45
597.818	32.72
598.011	32.85
598.204	32.86
598.397	32.68
598.59	32.78
598.783	32.5
598.976	32.48
599.169	32.21
599.362	32.14
599.555	31.97
599.748	31.98
599.941	31.7
600.134	31.69
600.326	31.67
600.519	31.83
600.712	31.87
600.905	32.01
601.098	31.95
601.291	31.93
601.483	32
601.676	32.34
601.869	32.57
602.062	32.84
602.255	32.9
602.447	32.89
602.64	32.76
602.833	32.56
603.025	32.74
603.218	32.98
603.411	33.19
603.603	33.35
603.796	33.43
603.989	33.43
604.181	33.28
604.374	33.26
604.566	33.24
604.759	33.32
604.951	33.37
605.144	33.31
605.336	33.22
605.529	33.25
605.721	33.15
605.914	33.03
606.106	33.05
606.299	32.96
606.491	32.99
606.683	33.04
606.876	33
607.068	33.08
607.26	33.18
607.453	33.23
607.645	33.11
607.837	33
608.03	33.3
608.222	33.06
608.414	33.17
608.606	33.07
608.799	33.13
608.991	33.04
609.183	33.2
609.375	33.25
609.567	33.45
609.759	33.5
609.952	33.66
610.144	33.41
610.336	33.32
610.528	33.31
610.72	33.43
610.912	33.32
611.104	33.35
611.296	33.11
611.488	32.79
611.68	32.61
611.872	32.55
612.064	32.36
612.256	32.79
612.448	33.07
612.64	33.32
612.832	33.1
613.023	33.07
613.215	32.78
613.407	32.56
613.599	32.79
613.791	32.9
613.983	33.04
614.174	33.05
614.366	32.64
614.558	32.84
614.75	32.7
614.941	32.99
615.133	33.27
615.325	33.57
615.516	34.06
615.708	34.38
615.9	34.32
616.091	33.96
616.283	34.27
616.475	34.39
616.666	34.28
616.858	33.86
617.049	33.89
617.241	33.76
617.432	34.03
617.624	33.84
617.815	33.66
618.007	33.78
618.198	33.96
618.39	33.79
618.581	33.6
618.773	33.46
618.964	33.84
619.155	33.61
619.347	33.58
619.538	33.53
619.729	33.85
619.921	34.03
620.112	33.64
620.303	33.79
620.494	33.97
620.686	34.25
620.877	34.18
621.068	34.24
621.259	34.38
621.451	34.56
621.642	34.34
621.833	34.33
622.024	34.09
622.215	34.31
622.406	34.39
622.597	34.48
622.788	34.37
622.98	34.54
623.171	34.21
623.362	33.99
623.553	33.96
623.744	34.11
623.935	33.77
624.126	34
624.317	34.03
624.508	34.01
624.698	33.78
624.889	33.86
625.08	33.93
625.271	34.29
625.462	34.43
625.653	34.42
625.844	34.44
626.034	34.63
626.225	34.54
626.416	34.64
626.607	34.88
626.798	34.8
626.988	34.83
627.179	34.9
627.37	35
627.56	35.04
627.751	34.87
627.942	35.11
628.132	35.2
628.323	35.04
628.514	35.24
628.704	35.21
628.895	35.54
629.085	35.49
629.276	35.35
629.466	35.25
629.657	35.18
629.847	35.22
630.038	34.92
630.228	34.85
630.419	35.12
630.609	34.82
630.8	34.74
630.99	34.62
631.181	34.59
631.371	34.83
631.561	34.63
631.752	34.75
631.942	34.92
632.132	35.42
632.323	35.39
632.513	35.63
632.703	35.76
632.893	35.64
633.084	35.85
633.274	36.03
633.464	35.97
633.654	35.94
633.844	35.94
634.034	36.08
634.225	35.67
634.415	35.85
634.605	35.79
634.795	36.06
634.985	36.18
635.175	35.74
635.365	35.6
635.555	35.36
635.745	35.8
635.935	35.53
636.125	35.55
636.315	35.74
636.505	35.69
636.695	35.61
636.885	35.26
637.075	35.04
637.265	35.07
637.455	35.15
637.644	35.09
637.834	34.73
638.024	35.33
638.214	35.07
638.404	35.09
638.593	34.74
638.783	34.81
638.973	34.83
639.163	34.82
639.352	35.16
639.542	34.9
639.732	34.89
639.921	35.59
640.111	35.31
640.301	35.24
640.49	35.04
640.68	35.46
640.87	35.29
641.059	35.5
641.249	35.66
641.438	35.56
641.628	35.77
641.817	36.17
642.007	35.51
642.196	35.71
642.386	35.98
642.575	36.07
642.764	36.12
642.954	36.03
643.143	36.19
643.333	36.24
643.522	36.16
643.711	35.95
643.901	35.59
644.09	35.8
644.279	35.96
644.469	35.82
644.658	35.83
644.847	35.6
645.036	35.48
645.226	35.39
645.415	35.24
645.604	35.3
645.793	35.34
645.982	35.31
646.171	35.05
646.361	34.65
646.55	34.54
646.739	34.59
646.928	34.75
647.117	35.2
647.306	34.85
647.495	35.14
647.684	35.07
647.873	35.25
648.062	35.12
648.251	35.35
648.44	35.3
648.629	35.59
648.818	35.59
649.007	35.44
649.196	35.07
649.384	35.18
649.573	35
649.762	35.35
649.951	34.77
650.14	34.66
650.328	34.72
650.517	34.74
650.706	34.74
650.895	34.74
651.083	34.65
651.272	34.95
651.461	35.02
651.65	34.83
651.838	34.61
652.027	35.37
652.216	35.85
652.404	35.78
652.593	36.13
652.781	36
652.97	36.01
653.158	36.04
653.347	35.51
653.535	35.72
653.724	35.69
653.912	35.36
654.101	35.25
654.289	35.34
654.478	35.31
654.666	34.66
654.855	34.74
655.043	34.5
655.231	34.91
655.42	35.1
655.608	34.47
655.796	34.38
655.985	34.79
656.173	34.86
656.361	34.76
656.55	34.84
656.738	35.29
656.926	35.35
657.114	35.37
657.302	35.33
657.491	35.6
657.679	36.01
657.867	36.62
658.055	36.8
658.243	36.72
658.431	36.37
658.619	36.13
658.807	36.07
658.996	35.73
659.184	35.93
659.372	35.83
659.56	35.83
659.748	35.94
659.936	35.8
660.124	35.7
660.311	35.68
660.499	36.4
660.687	36.71
660.875	36.67
661.063	36.9
661.251	36.89
661.439	36.64
661.627	36.81
661.814	36.61
662.002	36.6
662.19	36.56
662.378	36.49
662.565	36.05
662.753	36.2
662.941	36.05
663.129	36.58
663.316	36.64
663.504	37.17
663.692	36.49
663.879	36.37
664.067	36.14
664.254	36.27
664.442	36.49
664.63	35.86
664.817	35.54
665.005	35.84
665.192	35.31
665.38	35.53
665.567	35.57
665.755	35.73
665.942	36.21
666.13	36.2
666.317	36.03
666.504	35.94
666.692	36.38
666.879	36.69
667.067	36.74
667.254	36.94
667.441	36.54
667.629	36.44
667.816	36.7
668.003	36.13
668.19	36.09
668.378	36.18
668.565	36.4
668.752	36.59
668.939	36.7
669.127	36.46
669.314	36.36
669.501	36.31
669.688	35.69
669.875	35.5
670.062	35.33
670.249	35.57
670.436	35.77
670.623	35.19
670.81	34.92
670.997	34.71
671.184	34.82
671.371	34.69
671.558	34.88
671.745	35.59
671.932	36.04
672.119	36.68
672.306	36.96
672.493	36.28
672.68	36.44
672.867	36.69
673.054	36.52
673.24	36.18
673.427	36.17
673.614	35.8
673.801	36.03
673.988	35.61
674.174	35.76
674.361	35.29
674.548	36.11
674.734	36.29
674.921	36.28
675.108	36.36
675.294	36.83
675.481	37.31
675.668	37.92
675.854	37.22
676.041	37.13
676.227	36.68
676.414	36.88
676.601	36.81
676.787	36.46
676.974	36.44
677.16	36.54
677.347	36.61
677.533	36.17
677.719	36.36
677.906	36.66
678.092	36.78
678.279	36.82
678.465	36.97
678.651	37.02
678.838	37.49
679.024	37.64
679.21	37.74
679.397	37.67
679.583	37.71
679.769	37.27
679.955	37.08
680.142	37.13
680.328	37.38
680.514	36.76
680.7	36.7
680.886	36.33
681.073	36.66
681.259	36.79
681.445	36.78
681.631	36.8
681.817	36.57
682.003	36.9
682.189	37.33
682.375	37.63
682.561	38.63
682.747	38.49
682.933	38.7
683.119	37.81
683.305	37.17
683.491	37.29
683.677	37.39
683.863	38.21
684.049	38.18
684.235	37.46
684.42	37.26
684.606	36.66
684.792	36.79
684.978	36.69
685.164	36.92
685.349	37.46
685.535	37.05
685.721	37.12
685.907	36.6
686.092	36.55
686.278	37.22
686.464	37.01
686.649	37.22
686.835	36.54
687.021	36.4
687.206	36.21
687.392	35.87
687.577	36.27
687.763	36.44
687.948	36.61
688.134	36.4
688.319	36
688.505	36.05
688.69	35.92
688.876	37.02
689.061	37.47
689.247	38.33
689.432	38.13
689.618	38.4
689.803	37.44
689.988	36.93
690.174	36.8
690.359	36.77
690.544	36.56
690.73	36.66
690.915	35.92
691.1	35.23
691.285	34.44
691.471	34.99
691.656	34.99
691.841	36.13
692.026	36.12
692.211	36.25
692.396	36.04
692.582	36.28
692.767	36.13
692.952	36.36
693.137	37.03
693.322	37.88
693.507	37.81
693.692	37.4
693.877	36.82
694.062	37.2
694.247	37.39
694.432	37.64
694.617	38.05
694.802	38.02
694.987	37.43
695.172	37.64
695.357	37.2
695.541	37.2
695.726	37.09
695.911	37.24
696.096	38.07
696.281	37.85
696.466	38.01
696.65	37.7
696.835	37.94
697.02	37.95
697.204	38.01
697.389	37.99
697.574	37.82
697.759	37.77
697.943	37.56
698.128	37.04
698.312	37.46
698.497	37.46
698.682	36.81
698.866	36.61
699.051	37.03
699.235	36.89
699.42	36.83
699.604	36.83
699.789	36.82
699.973	37
700.158	37.02
700.342	36.69
700.527	36.62
700.711	37.38
700.895	37.73
701.08	37.08
701.264	36.98
701.448	36.89
701.633	37.07
701.817	37.71
702.001	37.55
702.186	37.33
702.37	37.32
702.554	37.31
702.738	37.18
702.923	36.92
703.107	37.51
703.291	37.25
703.475	37.53
703.659	37.48
703.843	37.36
704.027	37.47
704.212	38.07
704.396	37.4
704.58	37.04
704.764	36.54
704.948	36.82
705.132	36.75
705.316	37
705.5	36.7
705.684	36.56
705.868	36.63
706.052	36.75
706.235	36.7
706.419	38.16
706.603	38.46
706.787	38.43
706.971	37.19
707.155	37.44
707.339	37.01
707.522	37.03
707.706	37.09
707.89	36.78
708.074	36.65
708.257	36.02
708.441	35.17
708.625	34.55
708.808	35.43
708.992	36.36
709.176	36.38
709.359	36.66
709.543	36.52
709.727	36.47
709.91	35.62
710.094	35.78
710.277	35.87
710.461	36.29
710.644	37.1
710.828	35.71
711.011	35.97
711.195	36.37
711.378	36.75
711.562	36.77
711.745	36.75
711.928	36.77
712.112	37.03
712.295	37.12
712.478	37.26
712.662	37.52
712.845	38.26
713.028	37.69
713.212	36.81
713.395	36.29
713.578	36.11
713.761	35.65
713.945	36.53
714.128	35.93
714.311	36.08
714.494	36
714.677	35.22
714.86	34.76
715.043	34.88
715.227	35.21
715.41	35.08
715.593	35.26
715.776	35.33
715.959	35.01
716.142	35.49
716.325	35.96
716.508	35.96
716.691	36.5
716.874	36.53
717.057	36.75
717.239	36.69
717.422	37.33
717.605	37.2
717.788	37.47
717.971	37.62
718.154	37.34
718.337	36.55
718.519	36.41
718.702	35.98
718.885	36.73
719.068	35.9
719.25	35.87
719.433	36.15
719.616	36.93
719.798	36.4
719.981	36.6
720.164	36.53
720.346	36.73
720.529	35.77
720.712	36.04
720.894	36.06
721.077	37.07
721.259	37.31
721.442	37.14
721.624	36.15
721.807	37.2
721.989	35.81
722.172	35.98
722.354	35.62
722.537	36.18
722.719	36.06
722.901	36.04
723.084	34.93
723.266	34.75
723.448	35.04
723.631	35.51
723.813	35.03
723.995	36.24
724.178	36.42
724.36	36.4
724.542	36.21
724.724	36.36
724.907	35.96
725.089	36.47
725.271	35.54
725.453	34.8
725.635	35.39
725.817	35.19
725.999	35.26
726.181	34.71
726.364	35.21
726.546	34.36
726.728	33.1
726.91	33.47
727.092	34.01
727.274	34.81
727.456	35.14
727.638	34.87
727.819	35.81
728.001	35.12
728.183	35.47
728.365	35.09
728.547	35.84
728.729	37.04
728.911	37.15
729.093	36.53
729.274	36.31
729.456	36.11
729.638	36.29
729.82	35.39
730.001	35.44
730.183	35.81
730.365	36.28
730.546	37.39
730.728	36.95
730.91	36.13
731.091	36.49
731.273	36.49
731.455	35.19
731.636	34.58
731.818	35.08
731.999	34.77
732.181	34.48
732.362	33.86
732.544	32.84
732.725	33.71
732.907	34.13
733.088	34.41
733.27	34.4
733.451	35.28
733.633	35.02
733.814	34.97
733.995	36.28
734.177	36.41
734.358	37.25
734.539	36.73
734.721	36.59
734.902	37.11
735.083	37.36
735.264	37.63
735.446	38.07
735.627	38.43
735.808	38.96
735.989	37.99
736.17	36.75
736.351	37.01
736.533	37.95
736.714	38.14
736.895	37.71
737.076	36.89
737.257	36.91
737.438	36.12
737.619	36.46
737.8	36.32
737.981	37.72
738.162	38.4
738.343	37.99
738.524	36.8
738.705	35.87
738.886	36.13
739.067	36.03
739.247	36.38
739.428	37.2
739.609	37.02
739.79	36.42
739.971	35.88
740.151	36.31
740.332	34.98
740.513	36.43
740.694	36.11
740.874	34.74
741.055	34.37
741.236	33.59
741.417	33.17
741.597	33.38
741.778	33.46
741.958	33.71
742.139	33.35
742.32	34.93
742.5	35.41
742.681	35.46
742.861	36.19
743.042	37.96
743.222	38.01
743.403	38.69
743.583	39.37
743.764	38.8
743.944	38.7
744.124	39.07
744.305	38.36
744.485	37.97
744.666	37.56
744.846	37.98
745.026	37.11
745.207	37.54
745.387	36.09
745.567	35.05
745.747	34.58
745.928	34.18
746.108	34.17
746.288	33.81
746.468	33.16
746.648	34.74
746.829	34.47
747.009	34.3
747.189	34.86
747.369	35.07
747.549	34.91
747.729	36.04
747.909	35.35
748.089	36.1
748.269	37.56
748.449	37.85
748.629	37.61
748.809	38.28
748.989	37.15
749.169	37.62
749.349	36.81
749.529	36.96
749.709	36.68
749.889	37.12
750.068	35.99
750.248	34.95
750.428	34.59
750.608	33.41
750.788	32.97
750.967	34.03
751.147	32.95
751.327	33.63
751.507	33.77
751.686	32.93
751.866	32.32
752.046	31.98
752.225	32.77
752.405	33.19
752.585	34.65
752.764	33.56
752.944	33.67
753.123	32.5
753.303	32.89
753.482	32
753.662	32.83
753.841	34.15
754.021	35.29
754.2	36.01
754.38	35.46
754.559	35.38
754.739	36.42
754.918	35.13
755.097	36.69
755.277	35.98
755.456	36.58
755.635	36.7
755.815	35.22
755.994	34.35
756.173	33.74
756.352	34.56
756.532	34.68
756.711	34.59
756.89	35.19
757.069	34.63
757.248	35.13
757.427	35.64
757.607	34.67
757.786	34.62
757.965	35.46
758.144	33.53
758.323	32.95
758.502	32.1
758.681	32.26
758.86	32.59
759.039	32.07
759.218	32.76
759.397	33.22
759.576	34.53
759.755	34.88
759.934	34.87
760.113	35.9
760.291	36.7
760.47	37
760.649	36.12
760.828	35.83
761.007	36.77
761.186	35.97
761.364	36.24
761.543	36.68
761.722	37.1
761.901	36.71
762.079	37.35
762.258	37.34
762.437	37.83
762.615	38.67
762.794	39.34
762.972	38.85
763.151	39.17
763.33	39.11
763.508	37.74
763.687	38.06
763.865	37.4
764.044	37.1
764.222	36.02
764.401	35.92
764.579	35.21
764.758	35.33
764.936	35.58
765.114	35.53
765.293	35.38
765.471	36.53
765.65	35.97
765.828	36.45
766.006	36.67
766.184	36.65
766.363	36.68
766.541	37.32
766.719	36.92
766.898	36.31
767.076	37.15
767.254	35.83
767.432	34.08
767.61	34.32
767.788	34.43
767.967	32.82
768.145	32.41
768.323	31.92
768.501	31.7
768.679	31.77
768.857	31.33
769.035	29.71
769.213	29.86
769.391	31.15
769.569	30.74
769.747	30.41
769.925	32.85
770.103	34.05
770.281	33.7
770.459	34.27
770.636	34.27
770.814	35.67
770.992	35.97
771.17	36.88
771.348	35.89
771.525	36.77
771.703	38.3
771.881	37.39
772.059	37.37
772.236	38.19
772.414	37.92
772.592	37.7
772.769	36.8
772.947	37.85
773.125	37.21
773.302	38.05
773.48	37.61
773.657	36
773.835	35.92
774.013	36.23
774.19	34.07
774.368	34.06
774.545	34.68
774.723	35.44
774.9	34.53
775.077	33.19
775.255	32.73
775.432	28.87
775.61	30.22
775.787	30.72
775.964	29.72
776.142	30.25
776.319	29.1
776.496	28.28
776.674	28.17
776.851	27.82
777.028	28.6
777.205	29.61
777.382	31.99
777.56	30.98
777.737	29.11
777.914	30.23
778.091	31.51
778.268	30.71
778.445	29.69
778.622	28.96
778.8	29
778.977	29.58
779.154	47.13
779.331	48.76
779.508	47.66
779.685	48.69
779.862	49
780.038	48.22
780.215	48.89
780.392	50.56
780.569	50.56
780.746	51.62
780.923	51.86
781.1	31.49
781.277	32
781.453	33.73
781.63	33.19
781.807	32.28
781.984	32.6
782.16	33.38
782.337	32.76
782.514	33.66
782.691	34.2
782.867	32.73
783.044	34.11
783.221	32.84
783.397	30.04
783.574	30.65
783.75	30.53
783.927	28.99
784.103	29.59
784.28	30.38
784.456	31.39
784.633	31.93
784.809	32.34
784.986	32.33
785.162	31.18
785.339	32.4
785.515	30.89
785.692	31.07
785.868	31.44
786.044	30.11
786.221	26.85
786.397	25.61
786.573	25.35
786.749	27.42
786.926	26.23
787.102	27.01
787.278	27.24
787.454	28.64
787.631	30.38
787.807	31.07
787.983	32.12
788.159	35.74
788.335	34.04
788.511	33.21
788.687	33.35
788.863	34.08
789.039	33.93
789.216	33.72
789.392	33.66
789.568	30.07
789.744	30.22
789.919	29.79
790.095	27.92
790.271	30.65
790.447	29.78
790.623	28.72
790.799	29.27
790.975	30.84
791.151	30
791.327	29.39
791.502	32.01
791.678	33.16
791.854	31.82
792.03	34.2
792.205	30.37
792.381	30.66
792.557	30.56
792.733	30.11
792.908	28.75
793.084	31.08
793.259	30.5
793.435	30.09
793.611	27.58
793.786	28.12
793.962	25.02
794.137	27.27
794.313	26.2
794.488	25.04
794.664	24.35
794.839	22.68
795.015	20.59
795.19	22.78
795.366	21.92
795.541	22.86
795.716	23.08
795.892	22.79
796.067	22.45
796.242	25.43
796.418	25.76
796.593	24.25
796.768	25.14
796.944	25.9
797.119	23.97
797.294	25.46
797.469	26
797.644	28.33
797.82	29.63
797.995	30.49
798.17	28.78
798.345	29.68
798.52	31.82
798.695	33.05
798.87	33.57
799.045	35.33
799.22	34.83
799.395	34.71
799.57	31.99
799.745	30.07
799.92	29.95
800.095	28.77
800.27	28.25
800.445	28.95
800.62	27.62
800.795	26.78
800.97	26.01
801.145	25.01
801.319	24.08
801.494	25.59
801.669	25.9
801.844	25.77
802.018	24.86
802.193	22.49
802.368	22.86
802.543	23.81
802.717	24.09
802.892	23.25
803.067	23.63
803.241	23.13
803.416	22
803.59	21.37
803.765	20.82
803.94	22.76
804.114	25.35
804.289	22.29
804.463	21.14
804.638	20.59
804.812	23.2
804.986	22.58
805.161	23.85
805.335	22.95
805.51	26.49
805.684	26.08
805.858	26.08
806.033	25.48
806.207	27.56
806.381	25.95
806.556	27.92
806.73	24.91
806.904	24.73
807.078	25.46
807.253	27.67
807.427	23.99
807.601	23.36
807.775	22.39
807.949	24
808.123	24.83
808.298	23.84
808.472	23.04
808.646	25.2
808.82	24.92
808.994	24.31
809.168	23.54
809.342	26.86
809.516	27.92
809.69	24.7
809.864	23.58
810.038	18.87
810.212	25.27
810.385	21.18
810.559	18.58
810.733	19.82
810.907	16.35
811.081	17.51
811.255	15.57
811.428	17.8
811.602	23.36
811.776	22.39
811.95	23.17
812.123	20.38
812.297	25.86
812.471	24.95
812.644	25.4
812.818	28.82
812.992	28.24
813.165	32.73
813.339	31.18
813.512	31.04
813.686	32.84
813.86	35.4
814.033	34.64
814.207	35.8
814.38	40.04
814.554	37.6
814.727	37.08
814.9	35.32
815.074	31.03
815.247	30.57
815.421	29.96
815.594	28.88
815.767	26.14
815.941	25.85
816.114	22.66
816.287	19.97
816.46	21.17
816.634	23.17
816.807	24.8
816.98	28.59
817.153	30.76
817.327	27.61
817.5	29.45
817.673	32.49
817.846	34.82
818.019	36.18
818.192	37.83
818.365	38.02
818.538	36.55
818.711	35.47
818.884	33.88
819.057	29.68
819.23	30.51
819.403	29.54
819.576	26.66
819.749	24.47
819.922	21.64
820.095	19.48
820.268	18.02
820.441	17.54
820.614	20.1
820.786	20.7
820.959	23.84
821.132	26.57
821.305	26.85
821.477	28.83
821.65	30.24
821.823	31.78
821.996	33.48
822.168	34.59
822.341	36.08
822.514	36.84
822.686	36.77
822.859	36.04
823.031	36.24
823.204	36.45
823.376	36.57
823.549	36.75
823.722	36.63
823.894	36.23
824.067	35.94
824.239	35.45
824.411	34.08
824.584	33.61
824.756	34.35
824.929	33.75
825.101	33.32
825.273	33.06
825.446	32.79
825.618	33.26
825.79	33.22
825.963	33.39
826.135	33.51
826.307	35.12
826.479	36.04
826.652	35.84
826.824	36.29
826.996	36.19
827.168	36.72
827.34	36.19
827.512	35.72
827.684	36.46
827.856	36.73
828.029	36.6
828.201	35.61
828.373	34.48
828.545	34.01
828.717	33.76
828.889	34.48
829.061	34.45
829.232	34.49
829.404	33.72
829.576	32.06
829.748	30.9
829.92	29.31
830.092	28.12
830.264	29.04
830.436	29.85
830.607	30.37
830.779	30.71
830.951	29.66
831.123	28.77
831.294	31.14
831.466	32.22
831.638	32.5
831.809	34.28
831.981	34.79
832.153	34.7
832.324	34.21
832.496	35.06
832.667	34.41
832.839	34.78
833.011	37.02
833.182	35.03
833.354	35.46
833.525	34.14
833.697	35.41
833.868	34.11
834.039	32.87
834.211	33.33
834.382	31.83
834.554	31.15
834.725	30.26
834.896	29.52
835.068	28.88
835.239	27.47
835.41	29.28
835.581	29.16
835.753	29.21
835.924	28.58
836.095	29.18
836.266	29.49
836.438	32.63
836.609	34.63
836.78	36.28
836.951	34.88
837.122	36.81
837.293	35.36
837.464	32.92
837.635	34.35
837.806	35.28
837.977	31.35
838.148	32.64
838.319	25.92
838.49	24.39
838.661	19.8
838.832	22.63
839.003	20.7
839.174	19.14
839.345	19.31
839.516	18.57
839.687	14.54
839.857	17.26
840.028	10.82
840.199	20.51
840.37	18.04
840.54	21.81
840.711	21.58
840.882	23.07
841.053	25.11
841.223	24.15
841.394	24.29
841.564	30.77
841.735	28.71
841.906	27.85
842.076	23.34
842.247	27.44
842.417	26.42
842.588	23.53
842.758	23.69
842.929	24.98
843.099	31.8
843.27	32.36
843.44	25.88
843.611	29.9
843.781	31.65
843.951	27.29
844.122	20.22
844.292	22.21
844.462	19.99
844.633	11.05
844.803	4.96
844.973	1.28
845.144	1.75
845.314	0.93
845.484	-0.98
845.654	-9.67
845.824	-19.52
845.995	-26.27
846.165	-38.1
846.335	-18.18
846.505	-21.35
846.675	-12.81
846.845	-16.9
847.015	-22.84
847.185	-12.81
847.355	-15.04
847.525	-0.8
847.695	0.34
847.865	13.53
848.035	21.96
848.205	8.38
848.375	19.83
848.545	18.25
848.715	20.85
848.884	13.21
849.054	4.93
849.224	6.1
849.394	4.16
849.564	14.24
849.733	-0.54
849.903	3.41
850.073	-1.71
850.243	-4.28
850.412	-1.9
850.582	-23.21
850.752	-25.57
850.921	-3.96
851.091	1.83
851.26	24.79
851.43	-1.22
851.599	7.48
851.769	-26.23
851.939	-22.55
852.108	-33.63
852.278	-28.41
852.447	-21.84
852.616	-6.76
852.786	-24.87
852.955	-28.01
853.125	-37.52
853.294	-25.48
853.463	-27.49
853.633	-31.26
853.802	-22.38
853.971	-15.12
854.141	-19.84
854.31	-7.88
854.479	-11.27
854.648	-0.22
854.818	-6.26
854.987	-10.01
855.156	-4.2
855.325	-8.98
855.494	-1.34
855.663	3.26
855.832	-6.13
856.001	-4.54
856.171	-7.04
856.34	-7.69
856.509	-19.89
856.678	-17
856.847	-23.65
857.016	-11.28
857.185	13.02
857.353	14.72
857.522	-0.74
857.691	6.21
857.86	10.34
858.029	21.71
858.198	14.95
858.367	19.82
858.535	11.45
858.704	18.82
858.873	0.3
859.042	-35.65
859.21	-42.45
859.379	-40.92
859.548	-38.02
859.717	-57.13
859.885	-65.4
860.054	-50.19
860.222	-23.6
860.391	-7.43
860.56	-31.45
860.728	-11.34
860.897	-6.62
861.065	-17.65
861.234	-2.42
861.402	-6.8
861.571	4.66
861.739	-8.94
861.908	-25.57
862.076	-44.24
862.244	-24.86
862.413	-16.86
862.581	-18.99
862.749	-14.35
862.918	0.52
863.086	-29.08
863.254	-4.78
863.423	-18.95
863.591	15.43
863.759	14.03
863.927	-0.41
864.096	-22.11
864.264	-73.68
864.432	-70.08
864.6	-68.22
864.768	-42.59
864.936	-21.4
865.104	-22.63
865.272	-23.08
865.44	-52.12
865.608	-35.73
865.776	-47.92
865.944	-33.18
866.112	-7.24
866.28	0.05
866.448	-8.75
866.616	-11.94
866.784	-6.04
866.952	-10.65
867.12	-17.29
867.288	-8.11
867.455	-7.02
867.623	-2.62
867.791	9.55
867.959	3.14
868.127	-33.83
868.294	-4.08
868.462	-14.85
868.63	-12.3
868.797	-6.68
868.965	1.35
869.133	8.92
869.3	17.42
869.468	22.16
869.636	10.58
869.803	14.06
869.971	14.73
870.138	7.17
870.306	21.85
870.473	31.69
870.641	18.63
870.808	22.4
870.975	13.95
871.143	3.24
871.31	-14.28
871.478	-19.1
871.645	-33.15
871.812	-16.18
871.98	-15.04
872.147	-30.96
872.314	-43.81
872.482	-42.22
872.649	-60.77
872.816	-49.61
872.983	-42.35
873.15	-23.29
873.318	-17.11
873.485	-22.82
873.652	-30.98
873.819	-23.18
873.986	-27.27
874.153	-26.4
874.32	-13.98
874.487	-14.7
874.654	-6.79
874.821	-16.44
874.988	-7.49
875.155	-5.17
875.322	9.33
875.489	25.53
875.656	32.17
875.823	37.92
875.99	31.02
876.157	35.49
876.324	41.89
876.49	29.41
876.657	19.9
876.824	13.28
876.991	1.09
877.157	3.82
877.324	-3.58
877.491	-16.08
877.658	-29.3
877.824	-37.89
877.991	-49.52
878.157	-75.11
878.324	-64.4
878.491	-53.08
878.657	-37.64
878.824	-21.02
878.99	-27.22
879.157	-54.48
879.323	-19.21
879.49	-2.98
879.656	0.63
879.823	5.79
879.989	12.75
880.156	9.96
880.322	17.38
880.488	21.37
880.655	21.37
880.821	16.56
880.987	24.7
881.154	23.13
881.32	18.42
881.486	19.74
881.652	22.51
881.819	23.17
881.985	28.4
882.151	27.68
882.317	24.27
882.483	26.07
882.649	27.92
882.816	29.08
882.982	28.84
883.148	29.39
883.314	29.16
883.48	26.23
883.646	27.55
883.812	27.12
883.978	27.43
884.144	27.32
884.31	26.78
884.476	27.73
884.642	29.04
884.807	28.77
884.973	29.86
885.139	29.48
885.305	30.49
885.471	30.87
885.637	31.1
885.802	30.07
885.968	30.51
886.134	29.49
886.3	29.99
886.465	25.68
886.631	27.4
886.797	28.16
886.962	25.84
887.128	24.99
887.293	20.23
887.459	18.14
887.625	18.16
887.79	10.7
887.956	8.25
888.121	0.58
888.287	1.57
888.452	-6.35
888.618	-19.53
888.783	-16.8
