Data from CB_001_Reflection_2.txt Node
Date: Wed Nov 11 18:10:20 EST 2015
User: robert
Spectrometer: USB4E03001
Autoset integration time: false
Trigger mode: 4
Integration Time (sec): 1.000000E-1
Scans to average: 15
Electric dark correction enabled: true
Nonlinearity correction enabled: false
Boxcar width: 5
Stray light correction enabled: false
XAxis mode: Wavelengths
Stop averaging: false
Number of Pixels in Spectrum: 3648
>>>>>Begin Spectral Data<<<<<
177.566	118.41
177.785	332.46
178.005	238.88
178.225	1727.15
178.445	-87.86
178.665	-343.11
178.885	-58.85
179.105	60.2
179.324	8.92
179.544	58.99
179.764	116.26
179.984	93.06
180.204	-34.53
180.423	323.22
180.643	437.4
180.863	-726.43
181.083	-2489.26
181.302	-308.21
181.522	-24.55
181.742	-242.16
181.961	215.62
182.181	104.53
182.401	94.83
182.621	175.03
182.84	142.38
183.06	138.41
183.279	135.68
183.499	229.15
183.719	314.79
183.938	93.82
184.158	-89.32
184.377	257.58
184.597	86.54
184.816	79.72
185.036	79.32
185.256	122.29
185.475	-64.79
185.695	936.78
185.914	33.75
186.134	-3.93
186.353	-0.56
186.572	-29.81
186.792	15.32
187.011	-4.3
187.231	9.97
187.45	0.91
187.67	-5.49
187.889	-327.85
188.108	20.05
188.328	-10.41
188.547	140.96
188.766	27.78
188.986	62.14
189.205	2463.64
189.424	1.86
189.644	314.88
189.863	81.07
190.082	83.71
190.302	59.28
190.521	3.13
190.74	34.27
190.959	27.85
191.178	17.62
191.398	3.43
191.617	2.72
191.836	9.85
192.055	3.26
192.274	-18.79
192.494	-30.29
192.713	-4.1
192.932	14.81
193.151	5.81
193.37	13.13
193.589	16.45
193.808	48.89
194.027	59.91
194.246	29.63
194.465	45.4
194.685	31.57
194.904	88.9
195.123	35.75
195.342	-340.13
195.561	-52.19
195.78	-19.74
195.999	6.32
196.218	-676.39
196.436	271.66
196.655	530.84
196.874	-252.59
197.093	-231.3
197.312	-710.17
197.531	386.6
197.75	323.69
197.969	124.16
198.188	96.48
198.407	143.71
198.625	197.61
198.844	396.49
199.063	255.04
199.282	202.77
199.501	161.52
199.719	103.55
199.938	328.52
200.157	-23.43
200.376	-74.49
200.594	-290.78
200.813	9237.14
201.032	-706
201.251	-36.58
201.469	-116.43
201.688	-49.62
201.907	-6.44
202.125	-4.91
202.344	58.25
202.563	72.42
202.781	70.2
203	53.43
203.218	17.04
203.437	39.74
203.656	30.79
203.874	48.55
204.093	16.17
204.311	14.17
204.53	4.07
204.748	-49.44
204.967	-108.49
205.185	-50.32
205.404	3.09
205.622	6.26
205.841	1.65
206.059	-18.62
206.278	-4.62
206.496	-26.57
206.715	-25.87
206.933	-11.65
207.151	29.79
207.37	27.07
207.588	109.67
207.806	41.79
208.025	34.93
208.243	-20.7
208.461	26.31
208.68	-11.24
208.898	97.98
209.116	110.47
209.335	59.78
209.553	-56.3
209.771	145.63
209.989	1366.09
210.208	1349.48
210.426	196.93
210.644	123.82
210.862	48.09
211.081	10.01
211.299	30.47
211.517	5.58
211.735	-36.93
211.953	-44.66
212.171	97.33
212.39	-129.16
212.608	-1073.05
212.826	105.51
213.044	112.91
213.262	44.43
213.48	-18.06
213.698	-56.59
213.916	1061.64
214.134	369.83
214.352	481.61
214.57	-20.84
214.788	65.27
215.006	67.85
215.224	123.46
215.442	56.33
215.66	63.9
215.878	104.42
216.096	67.73
216.314	62.03
216.532	71.69
216.75	56.98
216.968	56.55
217.185	39.15
217.403	82.2
217.621	29.79
217.839	36.97
218.057	60.8
218.275	570.69
218.492	12.62
218.71	1.79
218.928	56.6
219.146	9.61
219.363	34.42
219.581	14.6
219.799	9.29
220.017	-1.19
220.234	-17.62
220.452	-27.68
220.67	-38.05
220.887	-59.12
221.105	-6.65
221.323	-38.17
221.54	30.79
221.758	30.01
221.976	25.38
222.193	35.43
222.411	23.89
222.629	43
222.846	63.25
223.064	99.62
223.281	95.6
223.499	105.31
223.716	124.31
223.934	275.23
224.151	305.45
224.369	302.31
224.586	-190025
224.804	1326.29
225.021	596.45
225.239	304.99
225.456	257.98
225.674	194.5
225.891	89.56
226.108	78.83
226.326	43.9
226.543	33.8
226.76	11.61
226.978	12.39
227.195	4.01
227.413	5.74
227.63	3.89
227.847	-4.22
228.064	-0.19
228.282	3.32
228.499	6.34
228.716	6.34
228.934	8.38
229.151	7.42
229.368	6.79
229.585	4.73
229.802	6.29
230.02	8.27
230.237	12.47
230.454	17.61
230.671	17.99
230.888	13.6
231.105	13.48
231.323	15
231.54	16.36
231.757	14.64
231.974	20.03
232.191	17.32
232.408	16.39
232.625	14.39
232.842	4.31
233.059	5.21
233.276	10.43
233.493	12.48
233.71	9.92
233.927	8.56
234.144	13.02
234.361	12.88
234.578	15.64
234.795	18.32
235.012	11.79
235.229	14.07
235.446	10.29
235.663	7.06
235.879	12.13
236.096	6.61
236.313	-2.37
236.53	-4.49
236.747	-1.86
236.964	-4.52
237.181	-11.18
237.397	1.08
237.614	-3.86
237.831	-1.26
238.048	-5.9
238.264	-10.94
238.481	-2.03
238.698	6.27
238.915	-1.17
239.131	-7.03
239.348	-10.4
239.565	-5.13
239.781	-10.45
239.998	-6.66
240.215	-8.45
240.431	-5.41
240.648	3.42
240.865	1.91
241.081	2.13
241.298	4.41
241.514	4.68
241.731	6.92
241.947	7.73
242.164	8.37
242.38	9.31
242.597	9.68
242.814	10.2
243.03	7.17
243.246	9.36
243.463	10.44
243.679	13.44
243.896	14.6
244.112	13.93
244.329	12.86
244.545	13.49
244.762	14.2
244.978	16.45
245.194	15.45
245.411	14.97
245.627	12.47
245.843	11.96
246.06	11.51
246.276	11.54
246.492	12.32
246.709	12.38
246.925	11.8
247.141	10.97
247.357	9.94
247.574	10.77
247.79	11.34
248.006	11.11
248.222	11.37
248.439	11.23
248.655	12.03
248.871	11.48
249.087	13.04
249.303	13.37
249.519	13.42
249.736	14.17
249.952	13.95
250.168	12.78
250.384	15.94
250.6	15.38
250.816	13.77
251.032	10.65
251.248	9.59
251.464	6.86
251.68	6.57
251.896	8.24
252.112	8.89
252.328	8.93
252.544	8.79
252.76	5.93
252.976	6.43
253.192	6.89
253.408	6.43
253.624	6.57
253.84	6.97
254.056	7.09
254.272	5.61
254.487	5.07
254.703	6.36
254.919	8.34
255.135	8.67
255.351	7.89
255.567	9.77
255.782	11.15
255.998	13.11
256.214	12.21
256.43	9.56
256.646	9.24
256.861	7.28
257.077	5.75
257.293	2.18
257.508	2.13
257.724	0.53
257.94	0.58
258.155	2.52
258.371	3.03
258.587	2.2
258.802	3.69
259.018	4.06
259.234	4.16
259.449	4.36
259.665	4.57
259.88	4.93
260.096	5.24
260.312	4.42
260.527	3.95
260.743	3.65
260.958	4.27
261.174	4.04
261.389	3.73
261.605	3.93
261.82	4.61
262.036	4.75
262.251	5.77
262.466	6.86
262.682	6.75
262.897	7.14
263.113	5.54
263.328	5.37
263.543	6.26
263.759	6.96
263.974	6.8
264.189	5.35
264.405	4.56
264.62	1.98
264.835	0.28
265.051	1.84
265.266	-0.53
265.481	2.41
265.696	1.32
265.912	1.43
266.127	0.89
266.342	1.49
266.557	0.23
266.773	1.18
266.988	0.88
267.203	0.09
267.418	-0.66
267.633	1.03
267.848	0.21
268.064	0.55
268.279	0.29
268.494	0.43
268.709	0.8
268.924	1.17
269.139	2.14
269.354	2.77
269.569	5.5
269.784	7.29
269.999	5.6
270.214	6.16
270.429	5.46
270.644	5.87
270.859	6.13
271.074	6.91
271.289	7.23
271.504	7.49
271.719	8.03
271.934	6.2
272.149	4.45
272.363	4.97
272.578	4.86
272.793	6.05
273.008	5.46
273.223	5.16
273.438	4.61
273.653	4.97
273.867	4.17
274.082	2.38
274.297	3.52
274.512	3.74
274.726	4.71
274.941	4.46
275.156	4.82
275.371	4.82
275.585	4.15
275.8	2.78
276.015	1.69
276.229	0.72
276.444	4.52
276.659	3.06
276.873	3.76
277.088	1.77
277.302	1.84
277.517	0.71
277.732	0.44
277.946	1.17
278.161	1.34
278.375	2.52
278.59	3.67
278.804	2
279.019	4.61
279.233	4.98
279.448	7.55
279.662	8.05
279.877	8.11
280.091	8.49
280.306	8.88
280.52	9.09
280.735	7.75
280.949	9.34
281.163	10.42
281.378	9.81
281.592	10.24
281.806	9.48
282.021	9.03
282.235	7.6
282.449	7.23
282.664	6.01
282.878	7.18
283.092	8.65
283.307	7.98
283.521	8.07
283.735	7.33
283.949	6.82
284.164	6.42
284.378	8.06
284.592	9.53
284.806	9.91
285.02	9.73
285.234	9.38
285.449	9.27
285.663	8.73
285.877	7.64
286.091	7.86
286.305	7.63
286.519	8.2
286.733	7.46
286.947	7.56
287.161	7.48
287.375	8.13
287.589	7.24
287.803	7.31
288.017	7.87
288.231	7.6
288.445	8.03
288.659	8.36
288.873	8.07
289.087	7.26
289.301	7.83
289.515	7.51
289.729	7.43
289.943	8.03
290.157	7.27
290.371	6.97
290.584	6.85
290.798	7.77
291.012	7.34
291.226	7.96
291.44	7.93
291.654	7.01
291.867	8.1
292.081	8.5
292.295	7.41
292.509	7.71
292.722	6.76
292.936	7.09
293.15	5.9
293.364	7.41
293.577	7.22
293.791	8.46
294.005	8.89
294.218	10.16
294.432	10.21
294.645	12.73
294.859	12.43
295.073	12.82
295.286	12.55
295.5	11.86
295.713	10.92
295.927	11.2
296.14	9.89
296.354	9.28
296.568	7.3
296.781	6.86
296.994	4.56
297.208	4.53
297.421	5.59
297.635	6.45
297.848	7.07
298.062	8.38
298.275	7.85
298.489	6.98
298.702	7.63
298.915	8.73
299.129	8.81
299.342	10.07
299.555	10.45
299.769	10.08
299.982	10.18
300.195	10.83
300.409	9.69
300.622	11.35
300.835	13.03
301.048	12.88
301.262	12.04
301.475	12.91
301.688	13.23
301.901	13.04
302.115	13.36
302.328	13.78
302.541	12.4
302.754	12.39
302.967	9.39
303.18	9.23
303.393	10.2
303.607	11.29
303.82	11.1
304.033	11.73
304.246	12.96
304.459	11.65
304.672	11.33
304.885	13.01
305.098	13
305.311	15.2
305.524	14.97
305.737	14.48
305.95	13.79
306.163	13.67
306.376	13.59
306.589	13.59
306.802	14.67
307.015	13.75
307.228	12.78
307.44	12.86
307.653	13.06
307.866	13.15
308.079	13.08
308.292	12.83
308.505	14.03
308.718	12.53
308.93	11.75
309.143	12.27
309.356	12.75
309.569	12.68
309.781	12.08
309.994	10.56
310.207	11.7
310.42	11.58
310.632	11.27
310.845	10.78
311.058	12.15
311.27	12.38
311.483	11.94
311.696	11.92
311.908	11.55
312.121	12.51
312.333	12.74
312.546	12.58
312.759	12.1
312.971	11.46
313.184	11.2
313.396	10.88
313.609	11.31
313.821	10.64
314.034	11.24
314.246	11.68
314.459	10.15
314.671	11.28
314.884	10.26
315.096	11.21
315.309	12.48
315.521	12.2
315.733	11.53
315.946	11.83
316.158	12.78
316.371	11.37
316.583	11.2
316.795	12.07
317.008	11.23
317.22	12.87
317.432	12.92
317.644	12.2
317.857	12.85
318.069	13.25
318.281	12.35
318.494	12.04
318.706	12.44
318.918	12.23
319.13	12.95
319.342	13.53
319.555	12.39
319.767	10.98
319.979	12.7
320.191	12.08
320.403	12.47
320.615	12.65
320.827	13.01
321.039	13.32
321.252	13.65
321.464	13.1
321.676	12.4
321.888	11.25
322.1	11.95
322.312	11.21
322.524	12.32
322.736	12.09
322.948	12.25
323.16	12.33
323.372	12.6
323.584	12.53
323.796	12.22
324.007	11.67
324.219	12.22
324.431	12.51
324.643	12.43
324.855	11.96
325.067	11.96
325.279	12.43
325.491	11.39
325.702	11.53
325.914	11.49
326.126	11.66
326.338	12.7
326.55	13.93
326.761	14.93
326.973	15.05
327.185	14.66
327.396	14.67
327.608	14.51
327.82	16.44
328.032	16.62
328.243	16.95
328.455	17.13
328.666	18.08
328.878	17.33
329.09	16.82
329.301	16.6
329.513	17.63
329.725	17.7
329.936	17.12
330.148	16.25
330.359	15.66
330.571	15.64
330.782	15.54
330.994	15.11
331.205	15.84
331.417	15.77
331.628	15.9
331.84	16.35
332.051	15.42
332.262	15.97
332.474	16.94
332.685	17.96
332.897	18.23
333.108	18.48
333.319	18.27
333.531	18.56
333.742	18.4
333.953	18.98
334.165	17.72
334.376	18.51
334.587	19.01
334.799	18.34
335.01	18.21
335.221	19
335.432	20.02
335.644	20.2
335.855	19.7
336.066	20.38
336.277	19.36
336.488	19.76
336.7	19.71
336.911	19.58
337.122	20.3
337.333	20.85
337.544	20.68
337.755	20.07
337.966	18.93
338.177	19.19
338.388	18.05
338.599	18.96
338.811	20.06
339.022	21.1
339.233	20.41
339.444	20.04
339.655	20.17
339.866	20.53
340.076	20.8
340.287	21.84
340.498	22.37
340.709	23.09
340.92	22.31
341.131	21.92
341.342	20.7
341.553	20.68
341.764	20.05
341.975	18.61
342.185	18.55
342.396	18.69
342.607	18.48
342.818	16.8
343.029	16.87
343.239	17.21
343.45	16.79
343.661	17.2
343.872	18.16
344.082	17.92
344.293	17.94
344.504	17.85
344.714	17.6
344.925	17.46
345.136	18.4
345.346	18.65
345.557	18.68
345.768	18.85
345.978	19.55
346.189	19.15
346.399	20.09
346.61	20.93
346.821	21.19
347.031	21.12
347.242	21.3
347.452	20.87
347.663	20.52
347.873	21.34
348.084	21.33
348.294	20.08
348.504	19.86
348.715	19.02
348.925	18.4
349.136	16.93
349.346	16.98
349.557	17.57
349.767	17.63
349.977	16.56
350.188	16.41
350.398	16.87
350.608	17.56
350.819	17.76
351.029	17.4
351.239	17.66
351.449	18.03
351.66	17.73
351.87	17.92
352.08	18.13
352.29	19.81
352.501	19.5
352.711	19.66
352.921	19
353.131	19.64
353.341	19.96
353.552	19.64
353.762	19.5
353.972	20.07
354.182	19.55
354.392	18.93
354.602	18.46
354.812	18.34
355.022	18.12
355.232	17.77
355.442	16.94
355.652	16.95
355.862	17.83
356.072	18.22
356.282	18.55
356.492	18.65
356.702	19.69
356.912	19.23
357.122	18.98
357.332	18.92
357.542	19.19
357.752	19.48
357.962	19.74
358.171	19.89
358.381	19.77
358.591	19.6
358.801	19.01
359.011	18.66
359.221	18.52
359.43	18.74
359.64	18.62
359.85	19.11
360.06	18.93
360.269	19.25
360.479	18.49
360.689	18.48
360.899	18.7
361.108	19.23
361.318	19.36
361.528	19.22
361.737	18.93
361.947	18.44
362.156	17.97
362.366	17.9
362.576	17.23
362.785	17.22
362.995	16.98
363.204	16.52
363.414	15.78
363.623	15.02
363.833	15.83
364.042	16.44
364.252	17.03
364.461	17.31
364.671	17.35
364.88	17.57
365.09	17.29
365.299	17.42
365.509	16.63
365.718	17.21
365.927	17.18
366.137	16.36
366.346	15.68
366.555	14.98
366.765	15.23
366.974	15.01
367.183	15.07
367.393	16.01
367.602	16.13
367.811	16.66
368.021	16.88
368.23	17.39
368.439	17.03
368.648	17.74
368.857	17.9
369.067	16.76
369.276	16.37
369.485	16.49
369.694	15.88
369.903	15.44
370.112	15.81
370.321	14.89
370.531	14.77
370.74	14.55
370.949	13.78
371.158	13.29
371.367	13.64
371.576	13.87
371.785	13.58
371.994	13.5
372.203	13.58
372.412	13.42
372.621	13.95
372.83	14.44
373.039	14.95
373.248	15.19
373.457	15.68
373.666	15.92
373.874	16.05
374.083	16.44
374.292	16.2
374.501	16.14
374.71	15.8
374.919	15.18
375.128	14.73
375.336	14.5
375.545	14.07
375.754	13.29
375.963	13.04
376.171	12.76
376.38	12.18
376.589	12.05
376.798	11.53
377.006	11.27
377.215	11.59
377.424	11.37
377.632	11.46
377.841	11.67
378.05	11.66
378.258	11.57
378.467	11.65
378.675	11.58
378.884	11.35
379.093	11.46
379.301	11.46
379.51	11.44
379.718	11.34
379.927	11.03
380.135	10.68
380.344	11.1
380.552	11.12
380.761	10.95
380.969	10.99
381.177	11.71
381.386	11.77
381.594	11.55
381.803	11.39
382.011	11.05
382.219	10.89
382.428	10.77
382.636	10.57
382.845	10.4
383.053	10.55
383.261	10.19
383.469	9.61
383.678	10.06
383.886	9.85
384.094	9.61
384.302	9.66
384.511	9.59
384.719	9.83
384.927	10.32
385.135	10.64
385.343	9.82
385.552	10.06
385.76	9.95
385.968	9.58
386.176	9.98
386.384	10.11
386.592	10.29
386.8	10.46
387.008	10.03
387.216	9.46
387.424	9.44
387.633	9.93
387.841	9.52
388.049	9.28
388.257	9.27
388.465	9.08
388.672	8.91
388.88	8.72
389.088	8.39
389.296	8.53
389.504	8.72
389.712	8.39
389.92	8.33
390.128	8.37
390.336	8.36
390.544	8.22
390.751	8.32
390.959	8.24
391.167	8.25
391.375	8.39
391.583	8.51
391.79	8.25
391.998	8.25
392.206	7.86
392.414	7.82
392.621	8.28
392.829	8.41
393.037	7.88
393.244	7.78
393.452	7.69
393.66	7.62
393.867	7.56
394.075	7.48
394.283	7.42
394.49	8.02
394.698	8.1
394.905	7.66
395.113	7.39
395.32	7.66
395.528	7.58
395.735	7.6
395.943	7.27
396.15	6.9
396.358	6.92
396.565	6.75
396.773	6.44
396.98	6.3
397.188	6.22
397.395	6.03
397.602	6.08
397.81	6.23
398.017	6.1
398.225	6.62
398.432	6.78
398.639	6.8
398.847	7.02
399.054	6.71
399.261	6.65
399.468	6.55
399.676	6.71
399.883	6.69
400.09	6.96
400.297	6.69
400.505	6.53
400.712	6.62
400.919	6.72
401.126	6.3
401.333	6.61
401.54	6.63
401.748	6.65
401.955	6.5
402.162	6.31
402.369	5.85
402.576	6.27
402.783	6.06
402.99	6.08
403.197	6.12
403.404	5.87
403.611	5.67
403.818	5.57
404.025	5.83
404.232	6.13
404.439	6.2
404.646	6.02
404.853	5.9
405.06	6.06
405.267	5.97
405.474	5.82
405.681	6.32
405.887	6.4
406.094	6.94
406.301	6.9
406.508	6.76
406.715	6.56
406.922	6.87
407.128	6.79
407.335	6.71
407.542	6.76
407.749	6.81
407.955	7.06
408.162	7.33
408.369	7.03
408.575	6.85
408.782	6.8
408.989	7
409.195	7.01
409.402	7.1
409.609	7.12
409.815	7.21
410.022	7.13
410.228	6.73
410.435	6.5
410.642	6.51
410.848	6.56
411.055	6.61
411.261	6.67
411.468	6.89
411.674	6.71
411.881	6.7
412.087	6.46
412.294	6.78
412.5	6.98
412.706	6.71
412.913	6.46
413.119	6.39
413.326	6.35
413.532	6.24
413.738	6.09
413.945	6.18
414.151	5.95
414.357	5.86
414.564	5.52
414.77	5.67
414.976	5.89
415.182	5.99
415.389	6.07
415.595	6.18
415.801	6.19
416.007	6.17
416.214	5.94
416.42	6.02
416.626	6.28
416.832	6.27
417.038	6.07
417.244	5.95
417.45	5.91
417.657	5.85
417.863	5.7
418.069	5.83
418.275	5.83
418.481	6.05
418.687	6.07
418.893	5.83
419.099	5.82
419.305	5.91
419.511	5.89
419.717	5.97
419.923	6.01
420.129	6.14
420.335	6.05
420.541	5.88
420.746	5.98
420.952	5.96
421.158	6.08
421.364	6
421.57	5.97
421.776	5.99
421.982	5.93
422.187	5.87
422.393	5.7
422.599	5.81
422.805	5.87
423.01	5.81
423.216	5.72
423.422	5.63
423.628	5.72
423.833	5.78
424.039	5.94
424.245	5.99
424.45	6.15
424.656	6.05
424.862	6.02
425.067	6.16
425.273	6.3
425.478	6.46
425.684	6.55
425.889	6.69
426.095	6.52
426.301	6.48
426.506	6.56
426.712	6.58
426.917	6.97
427.123	6.84
427.328	6.71
427.533	6.62
427.739	6.46
427.944	6.41
428.15	6.29
428.355	6.62
428.561	6.47
428.766	6.18
428.971	5.92
429.177	5.7
429.382	5.67
429.587	5.74
429.793	5.37
429.998	5.61
430.203	5.75
430.408	5.42
430.614	5.14
430.819	5.36
431.024	5.25
431.229	5.48
431.434	5.58
431.64	5.6
431.845	5.54
432.05	5.83
432.255	5.8
432.46	5.69
432.665	5.93
432.87	6.12
433.076	6.04
433.281	6.06
433.486	5.85
433.691	5.68
433.896	5.6
434.101	5.67
434.306	5.81
434.511	5.63
434.716	5.57
434.921	5.5
435.126	5.47
435.331	5.28
435.535	5.46
435.74	5.64
435.945	5.79
436.15	5.85
436.355	5.87
436.56	5.53
436.765	5.66
436.97	5.75
437.174	5.8
437.379	5.74
437.584	5.68
437.789	5.57
437.993	5.42
438.198	5.4
438.403	5.49
438.608	5.38
438.812	5.44
439.017	5.31
439.222	5.42
439.426	5.46
439.631	5.17
439.836	5.43
440.04	5.51
440.245	5.53
440.45	5.52
440.654	5.58
440.859	5.58
441.063	5.56
441.268	5.72
441.472	5.75
441.677	5.66
441.881	5.87
442.086	5.8
442.29	5.88
442.495	5.89
442.699	5.79
442.904	5.67
443.108	5.61
443.312	5.67
443.517	5.47
443.721	5.45
443.925	5.55
444.13	5.66
444.334	5.76
444.538	5.83
444.743	5.88
444.947	5.93
445.151	5.86
445.356	6
445.56	5.87
445.764	5.91
445.968	5.85
446.173	5.73
446.377	5.54
446.581	5.45
446.785	5.38
446.989	5.46
447.193	5.4
447.398	5.43
447.602	5.36
447.806	5.52
448.01	5.51
448.214	5.5
448.418	5.58
448.622	5.77
448.826	5.7
449.03	5.73
449.234	5.49
449.438	5.58
449.642	5.68
449.846	5.62
450.05	5.4
450.254	5.48
450.458	5.42
450.662	5.31
450.866	5.02
451.069	5.23
451.273	5.36
451.477	5.57
451.681	5.68
451.885	5.63
452.089	5.5
452.292	5.63
452.496	5.64
452.7	5.73
452.904	5.73
453.107	5.8
453.311	5.68
453.515	5.45
453.719	5.29
453.922	5.12
454.126	5.04
454.33	5.15
454.533	5.09
454.737	4.97
454.94	4.75
455.144	4.74
455.348	4.83
455.551	4.76
455.755	4.87
455.958	4.81
456.162	4.71
456.365	4.8
456.569	4.81
456.772	4.97
456.976	4.79
457.179	4.87
457.383	4.96
457.586	4.81
457.79	4.92
457.993	4.7
458.196	4.81
458.4	4.83
458.603	4.92
458.807	5.02
459.01	5.04
459.213	5.17
459.417	5.12
459.62	5.06
459.823	5.15
460.026	5.05
460.23	5.11
460.433	5.05
460.636	5.12
460.839	5.07
461.042	5.02
461.246	4.95
461.449	5.02
461.652	5.01
461.855	5.1
462.058	5.21
462.261	5.2
462.464	5.25
462.668	5.46
462.871	5.52
463.074	5.54
463.277	5.63
463.48	5.56
463.683	5.48
463.886	5.63
464.089	5.5
464.292	5.24
464.495	5.38
464.698	5.56
464.901	5.46
465.104	5.37
465.306	5.35
465.509	5.27
465.712	5.23
465.915	5.35
466.118	5.61
466.321	5.58
466.524	5.74
466.726	5.73
466.929	5.6
467.132	5.48
467.335	5.64
467.538	5.72
467.74	5.73
467.943	5.94
468.146	5.89
468.348	5.58
468.551	5.68
468.754	5.67
468.956	5.64
469.159	5.56
469.362	5.76
469.564	5.67
469.767	5.39
469.969	5.48
470.172	5.41
470.375	5.39
470.577	5.39
470.78	5.26
470.982	5.19
471.185	5.32
471.387	5.46
471.59	5.26
471.792	5.17
471.995	5.34
472.197	5.29
472.399	5.21
472.602	5.25
472.804	5.35
473.007	5.51
473.209	5.66
473.411	5.54
473.614	5.44
473.816	5.52
474.018	5.57
474.22	5.61
474.423	5.58
474.625	5.66
474.827	5.68
475.03	5.63
475.232	5.45
475.434	5.3
475.636	5.38
475.838	5.34
476.04	5.42
476.243	5.49
476.445	5.51
476.647	5.45
476.849	5.3
477.051	5.33
477.253	5.38
477.455	5.54
477.657	5.52
477.859	5.5
478.061	5.43
478.263	5.36
478.465	5.15
478.667	5.26
478.869	5.25
479.071	5.21
479.273	5.13
479.475	5.06
479.677	5.02
479.879	5.02
480.081	5.01
480.283	5.16
480.485	5.19
480.686	5.29
480.888	5.12
481.09	5.13
481.292	5.32
481.494	5.2
481.695	5.17
481.897	5.2
482.099	5.28
482.301	5.34
482.502	5.31
482.704	5.27
482.906	5.35
483.107	5.33
483.309	5.34
483.511	5.36
483.712	5.38
483.914	5.35
484.115	5.37
484.317	5.37
484.519	5.38
484.72	5.39
484.922	5.42
485.123	5.37
485.325	5.43
485.526	5.52
485.728	5.52
485.929	5.57
486.131	5.66
486.332	5.61
486.534	5.6
486.735	5.56
486.936	5.58
487.138	5.55
487.339	5.58
487.541	5.49
487.742	5.38
487.943	5.37
488.144	5.38
488.346	5.4
488.547	5.4
488.748	5.4
488.95	5.35
489.151	5.34
489.352	5.32
489.553	5.26
489.755	5.33
489.956	5.32
490.157	5.23
490.358	5.24
490.559	5.19
490.76	5.17
490.961	5.2
491.163	5.27
491.364	5.28
491.565	5.27
491.766	5.38
491.967	5.36
492.168	5.48
492.369	5.48
492.57	5.46
492.771	5.46
492.972	5.48
493.173	5.51
493.374	5.42
493.575	5.45
493.776	5.44
493.976	5.41
494.177	5.43
494.378	5.38
494.579	5.44
494.78	5.49
494.981	5.57
495.182	5.63
495.382	5.55
495.583	5.76
495.784	5.68
495.985	5.76
496.185	5.84
496.386	5.59
496.587	5.5
496.788	5.44
496.988	5.34
497.189	5.35
497.39	5.18
497.59	5.21
497.791	5.13
497.992	5.26
498.192	5.31
498.393	5.34
498.593	5.42
498.794	5.45
498.994	5.59
499.195	5.71
499.395	5.83
499.596	6.08
499.796	6.15
499.997	6.1
500.197	5.8
500.398	5.74
500.598	5.83
500.799	5.76
500.999	5.93
501.199	6.02
501.4	6.06
501.6	5.96
501.801	5.9
502.001	5.95
502.201	6.04
502.402	6.33
502.602	6.45
502.802	6.32
503.002	6.68
503.203	6.68
503.403	6.62
503.603	6.46
503.803	6.4
504.003	6.38
504.204	6.41
504.404	6.5
504.604	6.5
504.804	6.49
505.004	6.48
505.204	6.47
505.404	6.36
505.604	6.29
505.804	6.48
506.005	6.6
506.205	6.72
506.405	6.61
506.605	6.7
506.805	6.68
507.005	6.62
507.204	6.64
507.404	6.62
507.604	6.7
507.804	6.89
508.004	6.94
508.204	6.89
508.404	6.87
508.604	6.83
508.804	6.82
509.003	6.88
509.203	7.08
509.403	7
509.603	7.02
509.803	7.18
510.002	7.23
510.202	7.29
510.402	7.45
510.602	7.53
510.801	7.76
511.001	7.83
511.201	7.76
511.4	7.86
511.6	8.18
511.8	8.19
511.999	8.06
512.199	8.08
512.398	8.12
512.598	8.16
512.797	8.33
512.997	8.31
513.197	8.35
513.396	8.54
513.596	8.44
513.795	8.32
513.994	8.43
514.194	8.52
514.393	8.67
514.593	8.8
514.792	8.75
514.992	8.83
515.191	9.04
515.39	9.07
515.59	9.29
515.789	9.43
515.988	9.62
516.188	9.89
516.387	10.03
516.586	9.97
516.786	9.78
516.985	10
517.184	10.05
517.383	10.06
517.582	10.16
517.782	10.1
517.981	10.22
518.18	10.28
518.379	10.33
518.578	10.34
518.777	10.53
518.976	10.73
519.176	10.77
519.375	10.81
519.574	11.02
519.773	11.07
519.972	11.11
520.171	11.1
520.37	11.21
520.569	11.21
520.768	11.38
520.967	11.33
521.166	11.34
521.365	11.43
521.564	11.45
521.762	11.35
521.961	11.46
522.16	11.56
522.359	11.75
522.558	11.93
522.757	12.02
522.956	12.03
523.154	12.23
523.353	12.32
523.552	12.35
523.751	12.58
523.949	12.73
524.148	12.94
524.347	13.09
524.546	13.22
524.744	13.2
524.943	13.35
525.142	13.5
525.34	13.59
525.539	13.78
525.737	13.9
525.936	13.88
526.135	14
526.333	13.85
526.532	13.99
526.73	13.94
526.929	14
527.127	14
527.326	14.07
527.524	14.13
527.723	14.17
527.921	14.21
528.12	14.33
528.318	14.38
528.516	14.55
528.715	14.59
528.913	14.63
529.112	14.67
529.31	14.74
529.508	14.77
529.707	14.8
529.905	14.89
530.103	15
530.301	15.01
530.5	15.04
530.698	15.03
530.896	15.02
531.094	15.19
531.293	15.35
531.491	15.39
531.689	15.47
531.887	15.5
532.085	15.53
532.283	15.54
532.481	15.66
532.68	15.68
532.878	15.79
533.076	15.94
533.274	16.01
533.472	15.97
533.67	16.12
533.868	16.2
534.066	16.33
534.264	16.38
534.462	16.47
534.66	16.52
534.858	16.56
535.056	16.71
535.253	16.83
535.451	16.8
535.649	17
535.847	17.03
536.045	17.04
536.243	17.15
536.441	17.19
536.638	17.2
536.836	17.31
537.034	17.51
537.232	17.47
537.43	17.48
537.627	17.56
537.825	17.6
538.023	17.66
538.22	17.82
538.418	17.85
538.616	17.98
538.813	18.13
539.011	18.05
539.209	18.02
539.406	18.09
539.604	18.12
539.801	18.29
539.999	18.3
540.196	18.33
540.394	18.34
540.591	18.4
540.789	18.42
540.986	18.43
541.184	18.59
541.381	18.72
541.579	18.72
541.776	18.76
541.974	18.83
542.171	18.86
542.368	18.93
542.566	18.88
542.763	18.88
542.96	18.92
543.158	18.93
543.355	18.91
543.552	18.89
543.75	18.92
543.947	18.99
544.144	18.91
544.341	19.01
544.539	19.08
544.736	19.28
544.933	19.31
545.13	19.41
545.327	19.46
545.524	19.48
545.722	19.52
545.919	19.73
546.116	19.85
546.313	19.95
546.51	20.01
546.707	20.11
546.904	20.19
547.101	20.32
547.298	20.37
547.495	20.63
547.692	20.7
547.889	20.75
548.086	20.79
548.283	20.78
548.48	20.91
548.677	20.89
548.874	20.88
549.07	20.86
549.267	20.86
549.464	20.91
549.661	20.77
549.858	21.05
550.055	20.94
550.251	20.91
550.448	21.04
550.645	21.1
550.842	21.23
551.038	21.43
551.235	21.45
551.432	21.58
551.628	21.83
551.825	22.19
552.022	22.22
552.218	22.51
552.415	22.75
552.612	22.66
552.808	22.59
553.005	22.67
553.201	22.59
553.398	22.67
553.594	22.68
553.791	22.56
553.987	22.52
554.184	22.52
554.38	22.46
554.577	22.35
554.773	22.37
554.97	22.36
555.166	22.2
555.362	22.41
555.559	22.67
555.755	22.67
555.952	22.79
556.148	22.6
556.344	22.52
556.541	22.79
556.737	22.91
556.933	23.08
557.129	23.12
557.326	23.27
557.522	23.12
557.718	23.16
557.914	23.31
558.11	23.34
558.307	23.52
558.503	23.66
558.699	23.79
558.895	23.82
559.091	23.88
559.287	24.15
559.483	24.3
559.679	24.48
559.876	24.33
560.072	24.39
560.268	24.34
560.464	24.21
560.66	24.38
560.856	24.21
561.052	24.22
561.247	24.21
561.443	24.29
561.639	24.4
561.835	24.38
562.031	24.57
562.227	24.57
562.423	24.69
562.619	25.06
562.815	25.25
563.01	25.28
563.206	25.39
563.402	25.57
563.598	25.62
563.793	25.42
563.989	25.44
564.185	25.48
564.381	25.43
564.576	25.61
564.772	25.66
564.968	25.49
565.163	25.59
565.359	25.5
565.555	25.48
565.75	25.33
565.946	25.46
566.141	25.39
566.337	25.38
566.532	25.57
566.728	25.32
566.923	25.2
567.119	25.22
567.314	25.42
567.51	25.63
567.705	25.54
567.901	25.65
568.096	25.78
568.292	25.98
568.487	26.11
568.682	26.17
568.878	26.32
569.073	26.45
569.268	26.37
569.464	26.28
569.659	26.22
569.854	26.21
570.05	26.3
570.245	26.25
570.44	26.08
570.635	25.96
570.831	26
571.026	26.09
571.221	25.99
571.416	26.05
571.611	26.16
571.806	26.1
572.002	26.16
572.197	26.06
572.392	26.08
572.587	26.29
572.782	26.44
572.977	26.46
573.172	26.41
573.367	26.59
573.562	26.81
573.757	26.75
573.952	26.97
574.147	27.06
574.342	27.16
574.537	27.22
574.732	27.28
574.927	27.31
575.121	27.27
575.316	27.39
575.511	27.3
575.706	27.07
575.901	27.03
576.096	26.98
576.29	27.15
576.485	27.29
576.68	27.26
576.875	27.05
577.069	26.85
577.264	26.75
577.459	26.72
577.654	26.81
577.848	26.97
578.043	26.99
578.238	27.16
578.432	27.03
578.627	27.3
578.821	27.39
579.016	27.6
579.21	27.85
579.405	28.29
579.6	28.34
579.794	28.43
579.989	28.43
580.183	28.76
580.378	28.66
580.572	28.75
580.766	28.55
580.961	28.72
581.155	28.69
581.35	28.38
581.544	27.89
581.738	28.06
581.933	27.94
582.127	28.05
582.321	27.73
582.516	27.75
582.71	27.7
582.904	27.38
583.099	27.48
583.293	27.81
583.487	28.21
583.681	28.52
583.875	28.66
584.07	28.48
584.264	28.47
584.458	28.77
584.652	28.97
584.846	28.94
585.04	29.25
585.234	28.78
585.428	28.53
585.623	28.34
585.817	28.18
586.011	27.97
586.205	28.11
586.399	28.21
586.593	27.94
586.787	27.76
586.981	28.11
587.174	28.27
587.368	28.67
587.562	28.84
587.756	28.79
587.95	29.11
588.144	29.28
588.338	29.34
588.532	29.57
588.725	29.85
588.919	30.02
589.113	29.74
589.307	29.59
589.501	29.65
589.694	29.68
589.888	29.96
590.082	29.49
590.275	29.45
590.469	29.71
590.663	29.53
590.856	29.29
591.05	29.23
591.244	29.37
591.437	29.57
591.631	29.66
591.824	29.63
592.018	29.41
592.212	29.89
592.405	29.93
592.599	29.7
592.792	29.7
592.986	29.81
593.179	29.69
593.372	29.85
593.566	29.71
593.759	29.5
593.953	29.36
594.146	29.73
594.339	29.58
594.533	29.47
594.726	29.45
594.92	29.26
595.113	29.16
595.306	29.13
595.499	28.95
595.693	28.84
595.886	28.78
596.079	28.81
596.272	28.69
596.466	28.89
596.659	28.97
596.852	29.22
597.045	29.38
597.238	29.46
597.431	29.53
597.624	29.5
597.818	29.59
598.011	29.85
598.204	29.98
598.397	30.06
598.59	29.99
598.783	30.04
598.976	30.04
599.169	30.01
599.362	30.21
599.555	30.15
599.748	30.25
599.941	30.4
600.134	30.36
600.326	30.33
600.519	30.52
600.712	30.39
600.905	30.29
601.098	30.11
601.291	30.1
601.483	29.78
601.676	30.31
601.869	30.41
602.062	30.33
602.255	30.26
602.447	30.2
602.64	29.88
602.833	30.05
603.025	30.16
603.218	30.32
603.411	30.46
603.603	30.71
603.796	30.45
603.989	30.42
604.181	30.32
604.374	30.28
604.566	30.34
604.759	30.37
604.951	30.53
605.144	30.54
605.336	30.41
605.529	30.36
605.721	30.35
605.914	30.27
606.106	30.31
606.299	30.53
606.491	30.53
606.683	30.51
606.876	30.59
607.068	30.36
607.26	30.42
607.453	30.56
607.645	30.65
607.837	30.41
608.03	30.79
608.222	30.96
608.414	30.84
608.606	30.82
608.799	31.2
608.991	31.26
609.183	31.08
609.375	30.92
609.567	30.99
609.759	31
609.952	31.01
610.144	30.68
610.336	30.49
610.528	30.42
610.72	30.52
610.912	30.19
611.104	30.11
611.296	30.15
611.488	30.12
611.68	29.82
611.872	29.74
612.064	29.65
612.256	29.75
612.448	29.77
612.64	29.68
612.832	29.46
613.023	29.36
613.215	28.99
613.407	29.01
613.599	28.84
613.791	29.18
613.983	29.18
614.174	29.66
614.366	29.56
614.558	29.76
614.75	29.87
614.941	30.17
615.133	30.44
615.325	31.07
615.516	31.3
615.708	31.71
615.9	31.77
616.091	31.68
616.283	31.4
616.475	31.35
616.666	31.13
616.858	31.04
617.049	31.28
617.241	31.02
617.432	30.74
617.624	30.67
617.815	30.6
618.007	30.42
618.198	30.55
618.39	30.31
618.581	30.31
618.773	30.46
618.964	31.05
619.155	30.91
619.347	30.9
619.538	31.18
619.729	31.44
619.921	31.62
620.112	31.55
620.303	31.46
620.494	32.04
620.686	32.19
620.877	32.21
621.068	31.69
621.259	31.7
621.451	31.99
621.642	31.5
621.833	31.37
622.024	31.35
622.215	31.11
622.406	31.13
622.597	30.86
622.788	30.99
622.98	30.7
623.171	30.59
623.362	30.47
623.553	30.83
623.744	31.18
623.935	31.17
624.126	31.03
624.317	31.28
624.508	31.29
624.698	31.43
624.889	31.31
625.08	31.45
625.271	31.61
625.462	31.45
625.653	30.92
625.844	31.09
626.034	31.01
626.225	31.02
626.416	30.94
626.607	30.94
626.798	31
626.988	31.09
627.179	31.12
627.37	31.33
627.56	31.58
627.751	31.63
627.942	31.65
628.132	31.79
628.323	31.89
628.514	32.33
628.704	32.5
628.895	32.55
629.085	32.52
629.276	32.36
629.466	32.47
629.657	32.21
629.847	32.37
630.038	32.29
630.228	32.14
630.419	32.02
630.609	31.33
630.8	31.1
630.99	30.97
631.181	31.31
631.371	31.57
631.561	31.25
631.752	31.37
631.942	31.27
632.132	31.65
632.323	31.92
632.513	32.13
632.703	32.46
632.893	32.61
633.084	32.66
633.274	32.34
633.464	32.24
633.654	32.33
633.844	32.11
634.034	32.05
634.225	31.67
634.415	31.58
634.605	31.62
634.795	32.01
634.985	32.15
635.175	31.91
635.365	32.06
635.555	32.09
635.745	31.97
635.935	32.16
636.125	32.18
636.315	32.19
636.505	32.48
636.695	32.34
636.885	32.18
637.075	31.89
637.265	32.05
637.455	32.01
637.644	32.08
637.834	32.3
638.024	32.56
638.214	32.69
638.404	33.09
638.593	32.67
638.783	32.58
638.973	32.65
639.163	32.73
639.352	32.94
639.542	32.82
639.732	32.88
639.921	33.25
640.111	33.17
640.301	33.34
640.49	32.86
640.68	33.17
640.87	33.41
641.059	33.76
641.249	33.85
641.438	33.71
641.628	34.04
641.817	33.97
642.007	33.62
642.196	34.04
642.386	33.9
642.575	34.22
642.764	34.47
642.954	34.45
643.143	33.61
643.333	33.96
643.522	33.86
643.711	33.57
643.901	33.56
644.09	33.35
644.279	32.98
644.469	33.42
644.658	33.38
644.847	32.89
645.036	33.05
645.226	33.51
645.415	33.21
645.604	33.67
645.793	34.1
645.982	34.17
646.171	34.37
646.361	34.29
646.55	33.85
646.739	33.51
646.928	34.1
647.117	34.16
647.306	34.13
647.495	34.43
647.684	33.72
647.873	33.41
648.062	33.4
648.251	33.54
648.44	33.29
648.629	33.39
648.818	33.69
649.007	33.03
649.196	32.6
649.384	32.81
649.573	32.64
649.762	33.01
649.951	32.97
650.14	32.76
650.328	32.82
650.517	33.58
650.706	33.67
650.895	33.65
651.083	33.37
651.272	33.5
651.461	33.28
651.65	32.93
651.838	32.88
652.027	33.17
652.216	33.25
652.404	33.28
652.593	33.25
652.781	33.54
652.97	33.43
653.158	33.66
653.347	33.69
653.535	33.79
653.724	34.06
653.912	34.07
654.101	33.67
654.289	34.15
654.478	34.26
654.666	33.39
654.855	32.77
655.043	32.48
655.231	32.51
655.42	33.04
655.608	33.15
655.796	33.07
655.985	33.3
656.173	33.46
656.361	32.76
656.55	32.8
656.738	33.22
656.926	33.75
657.114	34.2
657.302	34.39
657.491	33.98
657.679	33.95
657.867	33.94
658.055	33.65
658.243	34.11
658.431	34.35
658.619	33.9
658.807	34
658.996	33.74
659.184	33.72
659.372	33.8
659.56	33.96
659.748	33.84
659.936	33.98
660.124	34.01
660.311	33.8
660.499	33.88
660.687	34.31
660.875	34.27
661.063	34.35
661.251	34.04
661.439	34.11
661.627	33.72
661.814	33.7
662.002	33.28
662.19	33.47
662.378	33.38
662.565	33.63
662.753	33.54
662.941	33.86
663.129	34.02
663.316	34.46
663.504	34.64
663.692	34.88
663.879	34.92
664.067	35.36
664.254	35.88
664.442	35.96
664.63	35.31
664.817	34.97
665.005	35.03
665.192	34.64
665.38	34.78
665.567	34.41
665.755	34.15
665.942	34.26
666.13	34.72
666.317	34.3
666.504	34.05
666.692	34.4
666.879	34.53
667.067	34.29
667.254	34.64
667.441	34.23
667.629	34.13
667.816	34.67
668.003	34.26
668.19	33.71
668.378	33.95
668.565	34.32
668.752	34.47
668.939	34.77
669.127	35.03
669.314	35.07
669.501	35.43
669.688	35.37
669.875	35
670.062	35.26
670.249	35.63
670.436	35.39
670.623	35.13
670.81	35.21
670.997	34.97
671.184	34.54
671.371	34.97
671.558	34.99
671.745	34.88
671.932	35.44
672.119	35.56
672.306	35.56
672.493	35.31
672.68	35.26
672.867	35.23
673.054	34.91
673.24	34.76
673.427	33.93
673.614	33.38
673.801	33.82
673.988	33.5
674.174	33.48
674.361	33.36
674.548	33.41
674.734	33.61
674.921	33.69
675.108	34
675.294	34.76
675.481	35.02
675.668	35.45
675.854	34.81
676.041	35.15
676.227	35.08
676.414	34.98
676.601	35.23
676.787	34.88
676.974	34.68
677.16	34.63
677.347	34.44
677.533	34.39
677.719	34.85
677.906	35.4
678.092	35.01
678.279	35.11
678.465	35.33
678.651	35
678.838	35.68
679.024	35.97
679.21	36.35
679.397	36.22
679.583	36.2
679.769	36.07
679.955	36.17
680.142	36.02
680.328	36.05
680.514	35.72
680.7	35.89
680.886	35.34
681.073	35.53
681.259	35.23
681.445	35.17
681.631	35.24
681.817	35.23
682.003	35.31
682.189	36.02
682.375	36.02
682.561	36.28
682.747	36.39
682.933	36.72
683.119	35.94
683.305	35.78
683.491	36.09
683.677	36.18
683.863	36.06
684.049	35.83
684.235	35.15
684.42	35.38
684.606	35.42
684.792	35.53
684.978	35.8
685.164	36.2
685.349	36.44
685.535	36.26
685.721	35.93
685.907	35.29
686.092	35.37
686.278	35.82
686.464	35.53
686.649	35.51
686.835	35.06
687.021	34.4
687.206	33.88
687.392	33.98
687.577	34.23
687.763	34.32
687.948	34.52
688.134	34.55
688.319	34.42
688.505	33.89
688.69	33.96
688.876	34.68
689.061	35.21
689.247	36.08
689.432	35.81
689.618	35.7
689.803	35.37
689.988	35.49
690.174	35.53
690.359	35.46
690.544	35.74
690.73	35.78
690.915	35.19
691.1	34.43
691.285	34.19
691.471	34.32
691.656	34.15
691.841	34.96
692.026	35.02
692.211	34.83
692.396	34.84
692.582	35.4
692.767	35.05
692.952	35.31
693.137	35.79
693.322	36.1
693.507	36.29
693.692	35.9
693.877	34.94
694.062	34.97
694.247	35.52
694.432	35.51
694.617	35.66
694.802	36.25
694.987	36.04
695.172	36.43
695.357	35.93
695.541	35.62
695.726	35.55
695.911	36.15
696.096	37
696.281	36.9
696.466	36.76
696.65	36.41
696.835	36.03
697.02	36.3
697.204	35.92
697.389	36.01
697.574	36.21
697.759	36.74
697.943	36.55
698.128	35.98
698.312	35.69
698.497	35.89
698.682	35.71
698.866	35.92
699.051	35.87
699.235	36.27
699.42	36.4
699.604	36.16
699.789	36.05
699.973	36.02
700.158	36.1
700.342	36.62
700.527	36.54
700.711	36.82
700.895	37.03
701.08	37.5
701.264	37.42
701.448	37.24
701.633	38.06
701.817	38.15
702.001	38.61
702.186	38.66
702.37	38.17
702.554	38.24
702.738	38.24
702.923	37.7
703.107	37.07
703.291	37.03
703.475	37.18
703.659	36.53
703.843	36.36
704.027	36.5
704.212	36.83
704.396	36.71
704.58	36.62
704.764	36.41
704.948	36.98
705.132	37.53
705.316	37.07
705.5	36.86
705.684	37.38
705.868	37.81
706.052	37.69
706.235	37.19
706.419	37.16
706.603	37.28
706.787	37.74
706.971	37.06
707.155	36.73
707.339	36.36
707.522	37.05
707.706	36.86
707.89	36.47
708.074	35.92
708.257	35.86
708.441	36
708.625	35.8
708.808	35.93
708.992	36.27
709.176	36.72
709.359	37.48
709.543	37.06
709.727	36.74
709.91	36.67
710.094	37.15
710.277	37.28
710.461	37.14
710.644	37.26
710.828	36.38
711.011	36.31
711.195	36.07
711.378	36.06
711.562	35.72
711.745	36.17
711.928	35.93
712.112	36.23
712.295	36.74
712.478	37.17
712.662	37.1
712.845	37.85
713.028	38.46
713.212	37.61
713.395	37.66
713.578	38.02
713.761	37.49
713.945	38.25
714.128	37.6
714.311	37.14
714.494	37.52
714.677	37.76
714.86	37.43
715.043	36.91
715.227	37.23
715.41	37.07
715.593	37.04
715.776	36.85
715.959	36.4
716.142	36.59
716.325	36.99
716.508	36.15
716.691	36.08
716.874	36.27
717.057	36.17
717.239	36.51
717.422	36.33
717.605	36.18
717.788	36.53
717.971	36.83
718.154	37.02
718.337	36.51
718.519	36.92
718.702	36.55
718.885	36.89
719.068	36.28
719.25	36.5
719.433	36.22
719.616	36.4
719.798	36.54
719.981	37.05
720.164	36.63
720.346	36.59
720.529	36.29
720.712	36.34
720.894	36.32
721.077	36.8
721.259	36.52
721.442	37
721.624	36.92
721.807	37.81
721.989	36.9
722.172	37.64
722.354	38.03
722.537	37.77
722.719	37.97
722.901	37.79
723.084	38.5
723.266	38.39
723.448	38.62
723.631	37.96
723.813	37.14
723.995	38.14
724.178	38.48
724.36	38.46
724.542	38.88
724.724	39.48
724.907	38.97
725.089	38.09
725.271	37.42
725.453	37.88
725.635	39.72
725.817	39.3
725.999	37.91
726.181	37.51
726.364	37.35
726.546	36.61
726.728	34.52
726.91	34.9
727.092	35.31
727.274	35.81
727.456	35.72
727.638	35.05
727.819	35.25
728.001	35.8
728.183	35.8
728.365	36.09
728.547	36.75
728.729	38.23
728.911	39.03
729.093	38.56
729.274	38.36
729.456	37.88
729.638	37.78
729.82	37.63
730.001	37.78
730.183	37.81
730.365	37.65
730.546	37.59
730.728	37.65
730.91	37.55
731.091	38.07
731.273	38.73
731.455	38.35
731.636	38.12
731.818	38.38
731.999	37.89
732.181	38.17
732.362	37.87
732.544	37.79
732.725	37.39
732.907	36.5
733.088	36.69
733.27	36.97
733.451	37.59
733.633	38.49
733.814	38.37
733.995	38.29
734.177	38.23
734.358	38.41
734.539	38.44
734.721	38.83
734.902	39.4
735.083	39.22
735.264	38.82
735.446	38.93
735.627	37.91
735.808	38.38
735.989	38.97
736.17	38.19
736.351	38.2
736.533	38.58
736.714	38.76
736.895	38.73
737.076	39.27
737.257	39.1
737.438	38.94
737.619	38.9
737.8	38.75
737.981	39.2
738.162	39.23
738.343	39.61
738.524	39.46
738.705	39.09
738.886	39.02
739.067	38.33
739.247	38.63
739.428	38.44
739.609	38.26
739.79	38
739.971	37.29
740.151	37.3
740.332	36.47
740.513	36.39
740.694	36.36
740.874	35.93
741.055	35.71
741.236	35.92
741.417	35.81
741.597	36.22
741.778	37.03
741.958	38.87
742.139	38.27
742.32	38.74
742.5	39.31
742.681	38.64
742.861	39.09
743.042	40.36
743.222	39.88
743.403	40.31
743.583	40.46
743.764	39.05
743.944	38.52
744.124	39.38
744.305	40.26
744.485	39.51
744.666	39.61
744.846	39.1
745.026	38.09
745.207	37.54
745.387	36.81
745.567	35.86
745.747	35.82
745.928	34.34
746.108	34.48
746.288	32.8
746.468	34.08
746.648	35.35
746.829	35.94
747.009	35.7
747.189	36.65
747.369	36.55
747.549	37.5
747.729	38.29
747.909	39.4
748.089	39.82
748.269	41
748.449	40.37
748.629	40.13
748.809	39.85
748.989	40.58
749.169	40.65
749.349	40.55
749.529	41.03
749.709	41.95
749.889	41.3
750.068	40.98
750.248	40.76
750.428	39.67
750.608	38.55
750.788	39.13
750.967	38.24
751.147	38.37
751.327	39.26
751.507	39.1
751.686	38.61
751.866	37.86
752.046	38.16
752.225	39.09
752.405	40.48
752.585	41.56
752.764	41.59
752.944	42.5
753.123	41.92
753.303	42.39
753.482	41.2
753.662	40.85
753.841	41.59
754.021	41.45
754.2	41.71
754.38	40.35
754.559	40.59
754.739	40.84
754.918	39.68
755.097	40.02
755.277	38.52
755.456	39.68
755.635	39.21
755.815	38.95
755.994	38.97
756.173	38.18
756.352	38.86
756.532	38.69
756.711	38.8
756.89	40.21
757.069	40.26
757.248	41.05
757.427	41.29
757.607	41.71
757.786	42.37
757.965	42.52
758.144	41.85
758.323	41.89
758.502	41.86
758.681	40.67
758.86	40.35
759.039	39.88
759.218	40.15
759.397	40.01
759.576	39.56
759.755	39.06
759.934	39.01
760.113	39.41
760.291	39.8
760.47	40.35
760.649	41.32
760.828	41.15
761.007	41.61
761.186	41.11
761.364	40.95
761.543	41.35
761.722	40.96
761.901	40.51
762.079	41.03
762.258	41.02
762.437	41.33
762.615	40.28
762.794	40.09
762.972	40.18
763.151	40.49
763.33	40.16
763.508	40.26
763.687	41.52
763.865	41.85
764.044	40.99
764.222	40.81
764.401	39.67
764.579	39.94
764.758	40.47
764.936	39.89
765.114	39.95
765.293	39.75
765.471	40.36
765.65	38.6
765.828	38.45
766.006	39.35
766.184	39.83
766.363	40.02
766.541	39.71
766.719	39.66
766.898	39.6
767.076	39.61
767.254	38.59
767.432	38.28
767.61	40.04
767.788	39.3
767.967	38.11
768.145	36.85
768.323	37.48
768.501	37.86
768.679	37.08
768.857	37.75
769.035	36.87
769.213	39.41
769.391	37.88
769.569	36.31
769.747	36.36
769.925	36.64
770.103	36.85
770.281	37.37
770.459	37.46
770.636	36.55
770.814	37.14
770.992	37.49
771.17	35.23
771.348	34.88
771.525	35.84
771.703	35.68
771.881	35.88
772.059	36.62
772.236	36.34
772.414	37.35
772.592	37.54
772.769	36.68
772.947	38.48
773.125	39.44
773.302	40.67
773.48	41.35
773.657	43.49
773.835	43.46
774.013	44.33
774.19	43.88
774.368	42.77
774.545	45.32
774.723	46.98
774.9	45.23
775.077	46.1
775.255	46.2
775.432	43.99
775.61	45.52
775.787	46.17
775.964	45.39
776.142	44.92
776.319	44.22
776.496	43.42
776.674	41.99
776.851	41.79
777.028	42.51
777.205	42.02
777.382	42.31
777.56	38.97
777.737	37.72
777.914	36.75
778.091	37.67
778.268	37.96
778.445	36.1
778.622	36.33
778.8	36.87
778.977	37.53
779.154	31.32
779.331	32.02
779.508	32.51
779.685	33.12
779.862	34.97
780.038	35.52
780.215	35.71
780.392	38.43
780.569	36.66
780.746	37.35
780.923	35.5
781.1	42.44
781.277	41.65
781.453	42.13
781.63	41.23
781.807	39.85
781.984	40.43
782.16	40.03
782.337	38.77
782.514	39.24
782.691	38.72
782.867	38.59
783.044	40.94
783.221	44.33
783.397	44.24
783.574	45.87
783.75	44.5
783.927	43.23
784.103	43.86
784.28	42.73
784.456	41.68
784.633	41.58
784.809	43.45
784.986	42.44
785.162	36.75
785.339	37.76
785.515	35.6
785.692	37.87
785.868	37.31
786.044	37.97
786.221	38.09
786.397	41.5
786.573	41.41
786.749	38.12
786.926	37.09
787.102	39.74
787.278	38.57
787.454	39.82
787.631	39.95
787.807	39.73
787.983	39.93
788.159	38.92
788.335	36.01
788.511	38.18
788.687	39.06
788.863	39.08
789.039	39.59
789.216	39.55
789.392	40.33
789.568	38.76
789.744	39.39
789.919	37.11
790.095	39.31
790.271	41.77
790.447	40.64
790.623	41.53
790.799	43.32
790.975	41.36
791.151	40.74
791.327	42.06
791.502	42.99
791.678	44.43
791.854	43.99
792.03	44.76
792.205	43.14
792.381	41.69
792.557	42.37
792.733	40.73
792.908	44.55
793.084	43.93
793.259	43.03
793.435	41.17
793.611	39.43
793.786	42.05
793.962	38.59
794.137	39.21
794.313	39.83
794.488	37.93
794.664	38.86
794.839	36.18
795.015	37.46
795.19	38.25
795.366	40.97
795.541	40.78
795.716	38.5
795.892	41.72
796.067	39.75
796.242	38.01
796.418	39.37
796.593	38.69
796.768	39.43
796.944	38.17
797.119	34.88
797.294	33.66
797.469	34.92
797.644	36.67
797.82	35.87
797.995	37.59
798.17	38.73
798.345	37.55
798.52	36.24
798.695	35.83
798.87	38.5
799.045	40.85
799.22	41.93
799.395	39.84
799.57	38.91
799.745	38.23
799.92	38.55
800.095	38.12
800.27	37.74
800.445	39.38
800.62	41.02
800.795	38.2
800.97	36.64
801.145	37.83
801.319	39.58
801.494	39.12
801.669	38.3
801.844	37.07
802.018	36.01
802.193	37.01
802.368	36.52
802.543	36.5
802.717	37.02
802.892	35.32
803.067	35.75
803.241	35.92
803.416	37.04
803.59	36.35
803.765	37.54
803.94	38.74
804.114	37.88
804.289	35.85
804.463	35.11
804.638	34.18
804.812	37.63
804.986	35.94
805.161	38.63
805.335	37.26
805.51	38.23
805.684	36.37
805.858	36.75
806.033	36.77
806.207	40.79
806.381	36.31
806.556	35.62
806.73	33.43
806.904	32.4
807.078	30.22
807.253	32.77
807.427	33.81
807.601	35.04
807.775	31.41
807.949	33.02
808.123	30.6
808.298	30.07
808.472	34.1
808.646	36.45
808.82	35.73
808.994	36.02
809.168	35.58
809.342	37.93
809.516	39.42
809.69	42.61
809.864	44.27
810.038	43.49
810.212	49.4
810.385	48.17
810.559	47.66
810.733	48.39
810.907	46.74
811.081	46.35
811.255	41.15
811.428	39.08
811.602	41.25
811.776	35.98
811.95	37.1
812.123	38.89
812.297	40.25
812.471	40.83
812.644	42.11
812.818	43.47
812.992	44.47
813.165	49.16
813.339	49.4
813.512	50.16
813.686	53.98
813.86	55.16
814.033	48.67
814.207	49.6
814.38	49.61
814.554	46.36
814.727	43.34
814.9	42.62
815.074	40.8
815.247	43.71
815.421	38.81
815.594	39.93
815.767	37.53
815.941	41.44
816.114	40.82
816.287	38.17
816.46	41.96
816.634	44.28
816.807	43.44
816.98	44.44
817.153	46.43
817.327	46.89
817.5	48.08
817.673	50.79
817.846	49.72
818.019	47.3
818.192	45.36
818.365	47.61
818.538	47.27
818.711	48.76
818.884	50.72
819.057	46.27
819.23	47.67
819.403	47.99
819.576	45.5
819.749	45.49
819.922	46.14
820.095	46.2
820.268	45.17
820.441	45.33
820.614	44.75
820.786	42.91
820.959	44.47
821.132	44.15
821.305	41.29
821.477	40.31
821.65	41.02
821.823	41.01
821.996	41.08
822.168	40.86
822.341	41.79
822.514	42.26
822.686	41.78
822.859	40.86
823.031	41.4
823.204	41.72
823.376	42.79
823.549	42.83
823.722	42.94
823.894	43.6
824.067	43.13
824.239	42.71
824.411	42.41
824.584	42.61
824.756	43.33
824.929	42.93
825.101	43.09
825.273	42.38
825.446	41.61
825.618	41.7
825.79	41.03
825.963	41.23
826.135	41.06
826.307	40.77
826.479	40.76
826.652	40.49
826.824	40.85
826.996	40.89
827.168	41.2
827.34	41.22
827.512	41.9
827.684	43.12
827.856	44.22
828.029	45.09
828.201	45.45
828.373	44.97
828.545	45.45
828.717	45.34
828.889	45.65
829.061	45.89
829.232	46.26
829.404	44.72
829.576	41.84
829.748	39.68
829.92	38.22
830.092	37.15
830.264	38.7
830.436	39.09
830.607	38.33
830.779	35.71
830.951	36.72
831.123	36.73
831.294	39.11
831.466	42.23
831.638	42.96
831.809	43.62
831.981	42.7
832.153	44.03
832.324	43.97
832.496	47.5
832.667	50.52
832.839	48.1
833.011	50.6
833.182	48.33
833.354	48.52
833.525	48.08
833.697	46.57
833.868	48.59
834.039	47.22
834.211	45.7
834.382	43.2
834.554	43.26
834.725	43.12
834.896	40.62
835.068	41.11
835.239	40.64
835.41	42.19
835.581	43.73
835.753	43.82
835.924	42.92
836.095	44.23
836.266	44.98
836.438	45.72
836.609	47.72
836.78	49.47
836.951	46.41
837.122	47.66
837.293	45.02
837.464	43.18
837.635	41.45
837.806	42.2
837.977	39.96
838.148	42.03
838.319	41.73
838.49	38.75
838.661	39.37
838.832	45.05
839.003	43.49
839.174	41.69
839.345	43.33
839.516	46
839.687	49.25
839.857	51.9
840.028	47.49
840.199	47.1
840.37	48.07
840.54	47.13
840.711	45.59
840.882	46.44
841.053	49.73
841.223	45.61
841.394	38.75
841.564	36.48
841.735	34.85
841.906	33.16
842.076	29.9
842.247	30.4
842.417	31.24
842.588	29.31
842.758	30.56
842.929	37.59
843.099	39.04
843.27	48.55
843.44	48.31
843.611	46.39
843.781	47.82
843.951	47.12
844.122	46.41
844.292	43.14
844.462	47.33
844.633	40.49
844.803	32.16
844.973	35.58
845.144	37.36
845.314	38.86
845.484	44.19
845.654	41.32
845.824	39.13
845.995	39.89
846.165	51.18
846.335	53.62
846.505	60.79
846.675	57.49
846.845	49.97
847.015	36.87
847.185	37.17
847.355	25.98
847.525	26.77
847.695	39.97
847.865	45.45
848.035	38.32
848.205	32.56
848.375	33.53
848.545	41.7
848.715	51
848.884	58.53
849.054	54.6
849.224	66.11
849.394	64.22
849.564	68.61
849.733	64.85
849.903	56.82
850.073	55.11
850.243	57.11
850.412	48.04
850.582	52.95
850.752	48.62
850.921	43.04
851.091	45.3
851.26	48.07
851.43	28.49
851.599	34.64
851.769	45.12
851.939	43.46
852.108	31.63
852.278	41.78
852.447	35.79
852.616	43.1
852.786	45.21
852.955	49.07
853.125	46.94
853.294	52.78
853.463	37.44
853.633	23.61
853.802	29.49
853.971	41.75
854.141	38.37
854.31	39.48
854.479	43.57
854.648	48.21
854.818	45.39
854.987	41.08
855.156	37.2
855.325	46.29
855.494	54.01
855.663	46.2
855.832	37.15
856.001	38.84
856.171	41.88
856.34	31.5
856.509	22.97
856.678	20.87
856.847	34.82
857.016	44.47
857.185	51.14
857.353	60.96
857.522	58.94
857.691	64.63
857.86	59.62
858.029	57.92
858.198	59.77
858.367	66.64
858.535	56.02
858.704	47.47
858.873	32.97
859.042	20.37
859.21	22.42
859.379	28.67
859.548	21.09
859.717	29.66
859.885	35.78
860.054	42.65
860.222	49.85
860.391	52.45
860.56	47.37
860.728	41.81
860.897	52.63
861.065	35.89
861.234	35.32
861.402	47.2
861.571	37.09
861.739	33.03
861.908	27.42
862.076	13.76
862.244	27.22
862.413	38.54
862.581	46.8
862.749	41.56
862.918	42.71
863.086	50.85
863.254	38.05
863.423	51.7
863.591	30.79
863.759	26.01
863.927	46.82
864.096	47.65
864.264	17.63
864.432	22.27
864.6	7.68
864.768	22.12
864.936	26.94
865.104	28.98
865.272	34.29
865.44	44.46
865.608	46.85
865.776	29.43
865.944	29.23
866.112	43.69
866.28	46.89
866.448	47.79
866.616	58.98
866.784	57.71
866.952	46.71
867.12	49.43
867.288	51.62
867.455	61.3
867.623	81.8
867.791	86.92
867.959	68.87
868.127	50.05
868.294	53.97
868.462	56.78
868.63	62.91
868.797	71.55
868.965	62.04
869.133	64.22
869.3	60.63
869.468	62.95
869.636	56.2
869.803	62.57
869.971	74.85
870.138	79.58
870.306	67.79
870.473	79.33
870.641	84.52
870.808	81.36
870.975	86.11
871.143	69.95
871.31	51.25
871.478	64.08
871.645	66.88
871.812	55.53
871.98	49.1
872.147	56.31
872.314	43.16
872.482	34.93
872.649	36.03
872.816	34.69
872.983	54.18
873.15	46.59
873.318	44.31
873.485	45.73
873.652	41.19
873.819	49.23
873.986	35.65
874.153	37.33
874.32	34.45
874.487	30.14
874.654	40.64
874.821	44.77
874.988	69.12
875.155	72.63
875.322	68.95
875.489	81.44
875.656	80.38
875.823	83.78
875.99	72.94
876.157	76.82
876.324	90.1
876.49	76.23
876.657	66.99
876.824	62
876.991	50.81
877.157	64.35
877.324	68.78
877.491	81.21
877.658	87.53
877.824	96.71
877.991	103.64
878.157	71.7
878.324	86.08
878.491	79.49
878.657	78.24
878.824	93.87
878.99	75.22
879.157	49.98
879.323	33.6
879.49	36.57
879.656	37.65
879.823	35.95
879.989	51.95
880.156	43.09
880.322	44.18
880.488	43.44
880.655	46.29
880.821	49.25
880.987	51.18
881.154	49.85
881.32	49.23
881.486	47.92
881.652	49.33
881.819	43.66
881.985	47.14
882.151	50.39
882.317	48.01
882.483	46.01
882.649	46.48
882.816	48.21
882.982	48.22
883.148	47.84
883.314	46.2
883.48	45.03
883.646	44.65
883.812	42.85
883.978	40.91
884.144	40.98
884.31	40.47
884.476	39.57
884.642	39.61
884.807	40.16
884.973	38.37
885.139	39.2
885.305	40.24
885.471	41.1
885.637	42.73
885.802	40.75
885.968	42.31
886.134	41.37
886.3	42.89
886.465	41.29
886.631	39.91
886.797	42.23
886.962	41.1
887.128	41.99
887.293	41.81
887.459	41.64
887.625	46.25
887.79	42.45
887.956	46.63
888.121	42.46
888.287	42.83
888.452	44.59
888.618	41.18
888.783	46.22
