Data from CB_071_Reflection_3.txt Node
Date: Sat Nov 14 11:07:17 EST 2015
User: robert
Spectrometer: USB4E03001
Autoset integration time: false
Trigger mode: 4
Integration Time (sec): 1.000000E-1
Scans to average: 15
Electric dark correction enabled: true
Nonlinearity correction enabled: false
Boxcar width: 5
Stray light correction enabled: false
XAxis mode: Wavelengths
Stop averaging: false
Number of Pixels in Spectrum: 3648
>>>>>Begin Spectral Data<<<<<
177.566	-109.43
177.785	-25.23
178.005	-389.92
178.225	-109.79
178.445	-121.58
178.665	-173.27
178.885	63.6
179.105	-81.26
179.324	-142.39
179.544	-218.17
179.764	-73.16
179.984	-88.49
180.204	-69.2
180.423	-339.05
180.643	-175.15
180.863	-218.54
181.083	-689.98
181.302	-4454.76
181.522	409.88
181.742	560.55
181.961	771.81
182.181	113.78
182.401	98.63
182.621	172.79
182.84	792.16
183.06	-3079.32
183.279	-482.36
183.499	-368.07
183.719	-545.13
183.938	-352.8
184.158	-278.21
184.377	-250.36
184.597	-159.8
184.816	-106.53
185.036	-176.77
185.256	-249.54
185.475	-523.4
185.695	-389.99
185.914	-387.17
186.134	-342.61
186.353	-334.53
186.572	-258.86
186.792	-655.68
187.011	2729.83
187.231	-1442.53
187.45	-248.95
187.67	-672.09
187.889	410.69
188.108	227.6
188.328	238.99
188.547	176.06
188.766	150.93
188.986	148.73
189.205	161.49
189.424	204.88
189.644	191.06
189.863	282.16
190.082	339.31
190.302	508.41
190.521	415.6
190.74	413.9
190.959	1667.35
191.178	1460.61
191.398	1149.15
191.617	3255.29
191.836	12683.87
192.055	2022.79
192.274	525.45
192.494	659.12
192.713	19703.57
192.932	-1766.42
193.151	332725
193.37	419.4
193.589	-11041.59
193.808	-804.38
194.027	-1290.22
194.246	2085.01
194.465	-1349.82
194.685	278.72
194.904	379.07
195.123	321.46
195.342	285.47
195.561	261.18
195.78	777.12
195.999	1616.98
196.218	661.2
196.436	367.33
196.655	233.79
196.874	199.52
197.093	437.81
197.312	278.04
197.531	437.3
197.75	614.44
197.969	1075.54
198.188	240.27
198.407	185.39
198.625	230.04
198.844	313.66
199.063	392.58
199.282	746.29
199.501	-3137.11
199.719	-2110.93
199.938	1011.77
200.157	654.39
200.376	-4502.4
200.594	-326.79
200.813	-878.22
201.032	-2330.65
201.251	-1130.15
201.469	-1486.4
201.688	-2749.42
201.907	4969.29
202.125	1430.83
202.344	5408.51
202.563	25694.2
202.781	1345.8
203	441.26
203.218	322.14
203.437	503.96
203.656	285.68
203.874	637.62
204.093	539.66
204.311	280.55
204.53	547.68
204.748	194.18
204.967	266.82
205.185	227.86
205.404	317.84
205.622	485.61
205.841	240.57
206.059	252.1
206.278	187.71
206.496	271.75
206.715	384.74
206.933	284.16
207.151	341.71
207.37	200.26
207.588	196.88
207.806	191
208.025	265.79
208.243	371.03
208.461	-25159.09
208.68	882.85
208.898	334.14
209.116	243.38
209.335	253.06
209.553	193.59
209.771	181.85
209.989	195.07
210.208	175.46
210.426	155.97
210.644	148.97
210.862	157.74
211.081	153.9
211.299	136.03
211.517	169.27
211.735	128.32
211.953	131.89
212.171	175.24
212.39	165.76
212.608	158.03
212.826	144.37
213.044	163.35
213.262	118.33
213.48	121.43
213.698	181.13
213.916	100.07
214.134	167.51
214.352	259.98
214.57	102.62
214.788	105.36
215.006	135.59
215.224	320.72
215.442	795.22
215.66	2084.74
215.878	500.97
216.096	193.01
216.314	693.54
216.532	2843.4
216.75	-899.45
216.968	-1269.97
217.185	-11973.45
217.403	2758.92
217.621	-144844.44
217.839	-792.98
218.057	-27077.08
218.275	-1046.45
218.492	-198.42
218.71	-3609.92
218.928	2038.67
219.146	1079.45
219.363	634.82
219.581	651.75
219.799	-2935.2
220.017	324.33
220.234	373.46
220.452	392.28
220.67	646.32
220.887	284.96
221.105	480.3
221.323	280.56
221.54	190.38
221.758	175.93
221.976	162.31
222.193	115.08
222.411	129.14
222.629	131.89
222.846	123.32
223.064	106.78
223.281	119.37
223.499	97.64
223.716	95.51
223.934	98.41
224.151	95.63
224.369	107.5
224.586	128.81
224.804	135.66
225.021	114.11
225.239	104.07
225.456	96.36
225.674	87.94
225.891	96.17
226.108	87.11
226.326	73.04
226.543	70.43
226.76	60.59
226.978	56.84
227.195	56.13
227.413	53.06
227.63	56.99
227.847	58.33
228.064	50.91
228.282	48.63
228.499	49.33
228.716	46.3
228.934	43.01
229.151	40.26
229.368	36.56
229.585	35.09
229.802	34.49
230.02	34.44
230.237	32.34
230.454	32.59
230.671	31.99
230.888	29.8
231.105	35.7
231.323	34.96
231.54	37.82
231.757	41.36
231.974	46.33
232.191	50.9
232.408	43.09
232.625	44.21
232.842	37.56
233.059	29.84
233.276	28.23
233.493	20.44
233.71	29.06
233.927	27.72
234.144	22.35
234.361	20.05
234.578	16.8
234.795	13.68
235.012	13.3
235.229	18.03
235.446	30.14
235.663	29.35
235.879	31
236.096	26.2
236.313	27.14
236.53	24.36
236.747	32.36
236.964	30.33
237.181	46.01
237.397	48.86
237.614	50.51
237.831	50.63
238.048	56.71
238.264	53.4
238.481	52.09
238.698	52.65
238.915	55.23
239.131	42.73
239.348	43.99
239.565	34.88
239.781	33.57
239.998	33.86
240.215	32.33
240.431	29.46
240.648	32.05
240.865	33.1
241.081	29.71
241.298	28.83
241.514	31.27
241.731	29.8
241.947	30.02
242.164	28.87
242.38	24.14
242.597	21.1
242.814	20.23
243.03	21.27
243.246	20.31
243.463	21.19
243.679	21.75
243.896	23.35
244.112	21.48
244.329	21.18
244.545	23.01
244.762	26.21
244.978	25.42
245.194	23.78
245.411	23.4
245.627	22.56
245.843	23.5
246.06	21.5
246.276	17.8
246.492	19.87
246.709	18.96
246.925	17.91
247.141	18.1
247.357	18.13
247.574	19.19
247.79	18.06
248.006	17.37
248.222	16.22
248.439	15.74
248.655	16.8
248.871	16.48
249.087	17.85
249.303	17.99
249.519	19.82
249.736	21.67
249.952	22.26
250.168	26.67
250.384	29.81
250.6	32.38
250.816	34.41
251.032	33.09
251.248	30.96
251.464	29.86
251.68	28.46
251.896	22.65
252.112	21.38
252.328	19.94
252.544	19.98
252.76	19.43
252.976	17.83
253.192	17.55
253.408	16.82
253.624	16.15
253.84	16.77
254.056	18.16
254.272	20.77
254.487	19.52
254.703	20.14
254.919	15.07
255.135	14.37
255.351	18.63
255.567	16.66
255.782	21.38
255.998	22.27
256.214	19.99
256.43	18.71
256.646	17.6
256.861	20.87
257.077	21.52
257.293	22.06
257.508	21.85
257.724	20.86
257.94	20.43
258.155	18.8
258.371	19.34
258.587	18.78
258.802	17.26
259.018	16.91
259.234	15.9
259.449	15.7
259.665	15.41
259.88	15.85
260.096	15.19
260.312	15.2
260.527	14.75
260.743	15.02
260.958	15.33
261.174	16.87
261.389	17.86
261.605	17.78
261.82	17.23
262.036	17.11
262.251	16.58
262.466	16.62
262.682	15.86
262.897	16.28
263.113	14.92
263.328	13.26
263.543	12.84
263.759	12.3
263.974	11.38
264.189	11.09
264.405	12.61
264.62	12.46
264.835	12.51
265.051	16.69
265.266	16.08
265.481	18.42
265.696	21.16
265.912	19.67
266.127	19.61
266.342	20.45
266.557	22.05
266.773	21.21
266.988	20.81
267.203	19.3
267.418	16.41
267.633	17.93
267.848	16.6
268.064	14.17
268.279	14.19
268.494	14.63
268.709	13.93
268.924	13.81
269.139	12.65
269.354	14.2
269.569	13.59
269.784	14
269.999	12.33
270.214	13.54
270.429	14.15
270.644	13.85
270.859	12.34
271.074	12.99
271.289	13.25
271.504	14.01
271.719	12.76
271.934	14.77
272.149	14.52
272.363	15.39
272.578	14.41
272.793	14.71
273.008	14.46
273.223	14.02
273.438	12.66
273.653	11.7
273.867	12.08
274.082	13.68
274.297	12.62
274.512	14.53
274.726	13.9
274.941	13.94
275.156	15.09
275.371	16.15
275.585	17.54
275.8	20.09
276.015	19.74
276.229	20.65
276.444	19.45
276.659	20.85
276.873	18.74
277.088	20.25
277.302	22.79
277.517	20.19
277.732	20.39
277.946	20.4
278.161	19.61
278.375	20.75
278.59	17.73
278.804	18.37
279.019	18.19
279.233	17.87
279.448	16.11
279.662	12.52
279.877	13.64
280.091	11.94
280.306	11.54
280.52	10.17
280.735	10.22
280.949	12.79
281.163	12.7
281.378	12.23
281.592	13.24
281.806	13.05
282.021	13.2
282.235	13.44
282.449	14.68
282.664	14.38
282.878	16.44
283.092	16.23
283.307	15.18
283.521	13.91
283.735	13.66
283.949	13.91
284.164	14.64
284.378	14.06
284.592	13.6
284.806	13.24
285.02	13.67
285.234	12.19
285.449	11.9
285.663	12.28
285.877	12.64
286.091	12.26
286.305	12.04
286.519	12.34
286.733	12.77
286.947	14.21
287.161	12.91
287.375	11.91
287.589	13.3
287.803	14.81
288.017	14.86
288.231	16.06
288.445	16.79
288.659	17.12
288.873	17.51
289.087	17.96
289.301	18.26
289.515	19.06
289.729	20.31
289.943	20.02
290.157	19.6
290.371	19.65
290.584	18.96
290.798	19.1
291.012	18.5
291.226	17.51
291.44	18.16
291.654	15.97
291.867	16.4
292.081	16.42
292.295	16.86
292.509	16.07
292.722	15.36
292.936	14.11
293.15	13.11
293.364	13.57
293.577	14.17
293.791	14.34
294.005	15.63
294.218	15.82
294.432	14.97
294.645	13.33
294.859	13.73
295.073	13.95
295.286	14.22
295.5	14.93
295.713	14.22
295.927	13.57
296.14	13.38
296.354	12.69
296.568	12.21
296.781	11.76
296.994	13.28
297.208	12.57
297.421	13.1
297.635	13.87
297.848	13.09
298.062	12.68
298.275	12.85
298.489	12.44
298.702	13.28
298.915	13.13
299.129	14.24
299.342	13.68
299.555	14.57
299.769	15.19
299.982	14.67
300.195	14.97
300.409	15.61
300.622	15.95
300.835	15.3
301.048	14.51
301.262	14.54
301.475	14.89
301.688	14.14
301.901	14.58
302.115	13.26
302.328	12.57
302.541	13.55
302.754	14.95
302.967	14.57
303.18	16.42
303.393	15.72
303.607	16.63
303.82	15.61
304.033	16.33
304.246	16.61
304.459	16.49
304.672	18.3
304.885	19.04
305.098	18.64
305.311	19.16
305.524	18.13
305.737	18.99
305.95	19.43
306.163	20.04
306.376	19.39
306.589	18.82
306.802	19.51
307.015	18.71
307.228	18.46
307.44	17.58
307.653	17.06
307.866	17.66
308.079	18.06
308.292	16.87
308.505	17.1
308.718	17.87
308.93	17.98
309.143	17.54
309.356	18.13
309.569	17.16
309.781	17.16
309.994	18.18
310.207	17.9
310.42	17.47
310.632	18
310.845	17.78
311.058	17.43
311.27	16.64
311.483	17.15
311.696	16.41
311.908	15.64
312.121	16.33
312.333	16.05
312.546	15.55
312.759	15.49
312.971	15.78
313.184	15.46
313.396	14.91
313.609	14.67
313.821	14.9
314.034	15.01
314.246	15.53
314.459	15.23
314.671	13.97
314.884	13.83
315.096	14.4
315.309	14.32
315.521	15.69
315.733	15.74
315.946	15.89
316.158	16.11
316.371	17.2
316.583	17.85
316.795	17.55
317.008	18.79
317.22	18.46
317.432	19.07
317.644	18.42
317.857	17.68
318.069	18.45
318.281	18.39
318.494	18.03
318.706	16.62
318.918	16.86
319.13	16.28
319.342	15.65
319.555	16.95
319.767	16.93
319.979	16.71
320.191	16.14
320.403	16.57
320.615	18.91
320.827	19.26
321.039	19.31
321.252	20.93
321.464	22.36
321.676	22.73
321.888	22.74
322.1	21.6
322.312	21.68
322.524	21.56
322.736	20.23
322.948	20.07
323.16	18.82
323.372	19.65
323.584	18.09
323.796	16.84
324.007	16.36
324.219	16.6
324.431	17.35
324.643	18.37
324.855	19.85
325.067	20.29
325.279	19.47
325.491	21.1
325.702	21.22
325.914	21.17
326.126	22.8
326.338	22.34
326.55	22.68
326.761	22.54
326.973	21.94
327.185	21.65
327.396	22.59
327.608	23
327.82	20.45
328.032	20.93
328.243	21.26
328.455	21.54
328.666	22.67
328.878	23.15
329.09	23.67
329.301	24.69
329.513	24.25
329.725	23.66
329.936	23.92
330.148	26.71
330.359	26.54
330.571	27.49
330.782	25.76
330.994	26.28
331.205	26.42
331.417	27.02
331.628	26.32
331.84	26.41
332.051	26.82
332.262	26.07
332.474	24.06
332.685	24.26
332.897	23.08
333.108	24.14
333.319	23.9
333.531	23.63
333.742	23.15
333.953	22.61
334.165	22.29
334.376	23.04
334.587	23.33
334.799	24.3
335.01	23
335.221	24.05
335.432	23.24
335.644	23.18
335.855	23.15
336.066	23.06
336.277	24.48
336.488	24.96
336.7	24.26
336.911	25.11
337.122	25.1
337.333	25.71
337.544	25.42
337.755	25.74
337.966	25.58
338.177	24.19
338.388	23.62
338.599	22.76
338.811	21.9
339.022	21.53
339.233	21.48
339.444	20.88
339.655	20.75
339.866	20.93
340.076	20.8
340.287	20.54
340.498	21.55
340.709	21.64
340.92	21.77
341.131	23.16
341.342	22.68
341.553	21.91
341.764	22.58
341.975	22.75
342.185	23.15
342.396	23.77
342.607	23.5
342.818	23.45
343.029	23.46
343.239	23.63
343.45	22.6
343.661	23.49
343.872	23.24
344.082	23.17
344.293	23.2
344.504	22.37
344.714	21.7
344.925	22.17
345.136	21.99
345.346	21.13
345.557	21.17
345.768	22.03
345.978	21.9
346.189	21.66
346.399	21.28
346.61	21.08
346.821	21.33
347.031	21.97
347.242	22.46
347.452	22.45
347.663	23.63
347.873	23.69
348.084	23.49
348.294	22.28
348.504	22.53
348.715	23.35
348.925	23.33
349.136	22.35
349.346	22.14
349.557	21.51
349.767	21.77
349.977	21.52
350.188	20.97
350.398	21.11
350.608	22.34
350.819	22.45
351.029	21.86
351.239	22.35
351.449	22.93
351.66	22.76
351.87	22.8
352.08	22.7
352.29	23.23
352.501	23.57
352.711	22.51
352.921	22.22
353.131	21.77
353.341	21.52
353.552	20.68
353.762	19.67
353.972	19.68
354.182	20.37
354.392	20.57
354.602	20.51
354.812	20.25
355.022	20.13
355.232	21.1
355.442	21.63
355.652	21.96
355.862	22.58
356.072	23.56
356.282	22.6
356.492	22.15
356.702	21.74
356.912	20.92
357.122	21.9
357.332	21.86
357.542	20.89
357.752	20.12
357.962	19.73
358.171	20.03
358.381	19.69
358.591	20.71
358.801	20.59
359.011	20.83
359.221	21.24
359.43	19.94
359.64	19.87
359.85	19.73
360.06	19.79
360.269	19.87
360.479	19.79
360.689	19.57
360.899	19.21
361.108	19.35
361.318	18.91
361.528	19.03
361.737	19.02
361.947	19.03
362.156	18.99
362.366	18.78
362.576	18.9
362.785	18.08
362.995	18.39
363.204	18.31
363.414	18.07
363.623	18.58
363.833	18.43
364.042	18.69
364.252	19.51
364.461	19.4
364.671	19.57
364.88	19.17
365.09	19.81
365.299	19.41
365.509	19.83
365.718	19.54
365.927	19.18
366.137	19
366.346	18.88
366.555	18.04
366.765	18.56
366.974	19.24
367.183	18.75
367.393	18.02
367.602	17.81
367.811	17.62
368.021	18.29
368.23	18.09
368.439	17.84
368.648	17.6
368.857	17.72
369.067	17.02
369.276	16.74
369.485	17.71
369.694	17.92
369.903	18.36
370.112	18.16
370.321	17.25
370.531	17.18
370.74	17.43
370.949	17.33
371.158	17.01
371.367	17.37
371.576	16.81
371.785	16.38
371.994	16.64
372.203	16.58
372.412	16.3
372.621	17.14
372.83	17.54
373.039	17.37
373.248	17.58
373.457	17.32
373.666	16.82
373.874	16.99
374.083	16.87
374.292	16.66
374.501	16.67
374.71	16.75
374.919	15.97
375.128	14.5
375.336	14.72
375.545	14.39
375.754	14.71
375.963	14.84
376.171	14.53
376.38	14.23
376.589	13.7
376.798	13.12
377.006	12.82
377.215	12.63
377.424	13.15
377.632	12.39
377.841	12.61
378.05	12.49
378.258	12.54
378.467	12.42
378.675	12.36
378.884	12.6
379.093	12.81
379.301	12.93
379.51	13.13
379.718	13.22
379.927	13.6
380.135	13.83
380.344	13.59
380.552	13.33
380.761	13.24
380.969	13.2
381.177	12.64
381.386	13.7
381.594	13.5
381.803	13.15
382.011	13.22
382.219	13.15
382.428	12.53
382.636	12.6
382.845	11.93
383.053	11.9
383.261	12.12
383.469	12.24
383.678	11.43
383.886	11.05
384.094	11.24
384.302	11.36
384.511	11.16
384.719	11.19
384.927	11.28
385.135	11.88
385.343	12.08
385.552	12.13
385.76	12.13
385.968	11.74
386.176	11.76
386.384	11.09
386.592	10.53
386.8	10.72
387.008	10.87
387.216	10.74
387.424	10.45
387.633	10.49
387.841	10.21
388.049	10.51
388.257	10.64
388.465	10.31
388.672	10.95
388.88	11.23
389.088	10.47
389.296	10.19
389.504	9.89
389.712	9.88
389.92	9.81
390.128	9.64
390.336	9.47
390.544	8.98
390.751	9.46
390.959	9.22
391.167	9.31
391.375	9.81
391.583	9.53
391.79	9.19
391.998	9.29
392.206	9.02
392.414	8.76
392.621	8.48
392.829	8.81
393.037	8.45
393.244	8.2
393.452	7.76
393.66	7.62
393.867	7.66
394.075	8.05
394.283	7.8
394.49	7.46
394.698	7.59
394.905	7.62
395.113	7.73
395.32	7.84
395.528	8.13
395.735	8.23
395.943	8.12
396.15	8.22
396.358	7.87
396.565	7.81
396.773	7.85
396.98	8.25
397.188	7.89
397.395	7.56
397.602	7.57
397.81	7.16
398.017	7.12
398.225	7.66
398.432	7.56
398.639	7.57
398.847	7.48
399.054	7.73
399.261	7.25
399.468	7.5
399.676	7.66
399.883	7.49
400.09	7.86
400.297	7.82
400.505	7.27
400.712	7.27
400.919	7.51
401.126	7.75
401.333	7.45
401.54	7.49
401.748	7.54
401.955	7.1
402.162	7.34
402.369	7.08
402.576	7
402.783	6.76
402.99	6.62
403.197	6.36
403.404	6.17
403.611	6.29
403.818	6.24
404.025	6.14
404.232	6.48
404.439	6.11
404.646	5.98
404.853	5.83
405.06	5.82
405.267	6.05
405.474	6.23
405.681	6.41
405.887	6.31
406.094	6.56
406.301	6.69
406.508	6.46
406.715	6.79
406.922	7.07
407.128	7.4
407.335	7.33
407.542	6.96
407.749	6.86
407.955	6.77
408.162	6.64
408.369	6.35
408.575	6.38
408.782	6.63
408.989	6.24
409.195	5.74
409.402	5.66
409.609	5.81
409.815	6.06
410.022	6.06
410.228	5.95
410.435	6.19
410.642	6.28
410.848	5.9
411.055	5.64
411.261	5.86
411.468	6.45
411.674	6.47
411.881	6.36
412.087	6.27
412.294	6.17
412.5	6.22
412.706	6.1
412.913	6.21
413.119	6.42
413.326	6.22
413.532	6.2
413.738	5.6
413.945	5.27
414.151	5.57
414.357	5.57
414.564	5.48
414.77	5.54
414.976	5.79
415.182	5.78
415.389	5.7
415.595	5.77
415.801	5.64
416.007	6.07
416.214	5.93
416.42	5.75
416.626	5.48
416.832	5.64
417.038	5.59
417.244	5.41
417.45	5.15
417.657	5.18
417.863	5.02
418.069	4.97
418.275	4.67
418.481	4.81
418.687	4.69
418.893	4.71
419.099	4.64
419.305	4.55
419.511	4.57
419.717	4.57
419.923	4.48
420.129	4.52
420.335	4.64
420.541	4.8
420.746	4.74
420.952	4.8
421.158	4.97
421.364	4.95
421.57	4.96
421.776	4.91
421.982	5.02
422.187	5.05
422.393	4.98
422.599	4.96
422.805	4.82
423.01	4.97
423.216	4.92
423.422	4.87
423.628	4.78
423.833	4.8
424.039	4.56
424.245	4.48
424.45	4.39
424.656	4.41
424.862	4.2
425.067	4.2
425.273	4.1
425.478	4
425.684	3.88
425.889	3.89
426.095	3.77
426.301	3.96
426.506	3.86
426.712	3.96
426.917	4.16
427.123	4.15
427.328	4.2
427.533	4.17
427.739	4.4
427.944	4.42
428.15	4.33
428.355	4.17
428.561	4.41
428.766	4.47
428.971	4.35
429.177	4.2
429.382	4.36
429.587	4.25
429.793	4.23
429.998	4.2
430.203	4.21
430.408	4.45
430.614	4.56
430.819	4.37
431.024	4.31
431.229	4.43
431.434	4.52
431.64	4.47
431.845	4.65
432.05	4.92
432.255	4.79
432.46	4.88
432.665	4.84
432.87	4.91
433.076	4.97
433.281	5
433.486	4.85
433.691	4.7
433.896	4.7
434.101	4.5
434.306	4.17
434.511	4.27
434.716	4.28
434.921	4.23
435.126	4.18
435.331	3.93
435.535	3.84
435.74	3.89
435.945	3.79
436.15	3.71
436.355	3.92
436.56	4.05
436.765	4.01
436.97	3.84
437.174	3.89
437.379	3.94
437.584	4.19
437.789	4.14
437.993	4.18
438.198	4.36
438.403	4.53
438.608	4.37
438.812	4.5
439.017	4.51
439.222	4.5
439.426	4.42
439.631	4.25
439.836	4.28
440.04	4.44
440.245	4.49
440.45	4.4
440.654	4.33
440.859	4.24
441.063	4.01
441.268	4.04
441.472	4.06
441.677	4.12
441.881	4.04
442.086	3.91
442.29	3.91
442.495	3.91
442.699	3.98
442.904	3.95
443.108	4.08
443.312	4.18
443.517	4
443.721	4.11
443.925	4.05
444.13	4.11
444.334	3.96
444.538	3.94
444.743	3.97
444.947	3.98
445.151	4.11
445.356	4.07
445.56	4.16
445.764	4.18
445.968	4.17
446.173	4.12
446.377	4.25
446.581	4.38
446.785	4.39
446.989	4.32
447.193	4.22
447.398	4.15
447.602	3.96
447.806	3.94
448.01	4.02
448.214	3.92
448.418	3.86
448.622	3.89
448.826	3.87
449.03	3.68
449.234	3.73
449.438	3.79
449.642	3.74
449.846	4.04
450.05	3.89
450.254	3.74
450.458	3.89
450.662	3.92
450.866	3.76
451.069	3.88
451.273	3.94
451.477	4.03
451.681	4.25
451.885	4.18
452.089	4.4
452.292	4.3
452.496	4.29
452.7	4.2
452.904	4.24
453.107	4.31
453.311	4.12
453.515	4.27
453.719	4.13
453.922	3.93
454.126	3.98
454.33	3.63
454.533	3.57
454.737	3.67
454.94	3.56
455.144	3.74
455.348	3.68
455.551	3.8
455.755	3.64
455.958	3.69
456.162	3.9
456.365	3.97
456.569	3.95
456.772	3.93
456.976	4.07
457.179	4.31
457.383	4.06
457.586	4.2
457.79	4.09
457.993	4.18
458.196	4.07
458.4	3.93
458.603	3.85
458.807	3.7
459.01	3.87
459.213	3.79
459.417	3.71
459.62	3.68
459.823	3.67
460.026	3.59
460.23	3.54
460.433	3.45
460.636	3.38
460.839	3.34
461.042	3.42
461.246	3.53
461.449	3.52
461.652	3.42
461.855	3.55
462.058	3.52
462.261	3.75
462.464	3.51
462.668	3.57
462.871	3.82
463.074	3.82
463.277	3.92
463.48	3.83
463.683	3.94
463.886	3.94
464.089	3.98
464.292	3.8
464.495	3.71
464.698	4.04
464.901	4.13
465.104	3.96
465.306	3.97
465.509	3.93
465.712	4.04
465.915	4.06
466.118	3.9
466.321	3.95
466.524	3.89
466.726	3.83
466.929	3.88
467.132	3.78
467.335	3.95
467.538	3.87
467.74	3.83
467.943	3.58
468.146	3.28
468.348	3.4
468.551	3.14
468.754	3.21
468.956	3.33
469.159	3.07
469.362	3.24
469.564	3.15
469.767	3.36
469.969	3.52
470.172	3.6
470.375	3.75
470.577	3.91
470.78	3.89
470.982	4.08
471.185	4.04
471.387	4.17
471.59	3.85
471.792	3.81
471.995	3.89
472.197	3.76
472.399	3.76
472.602	3.88
472.804	3.83
473.007	3.84
473.209	3.77
473.411	3.77
473.614	3.92
473.816	4.02
474.018	3.92
474.22	3.91
474.423	3.92
474.625	3.92
474.827	3.99
475.03	3.98
475.232	4.09
475.434	4.07
475.636	4.05
475.838	3.98
476.04	4.05
476.243	4.03
476.445	4.02
476.647	4.12
476.849	4.11
477.051	3.97
477.253	4.11
477.455	3.99
477.657	4.16
477.859	4.02
478.061	3.91
478.263	3.98
478.465	3.99
478.667	3.85
478.869	3.77
479.071	3.78
479.273	3.71
479.475	3.51
479.677	3.6
479.879	3.29
480.081	3.37
480.283	3.48
480.485	3.39
480.686	3.51
480.888	3.6
481.09	3.51
481.292	3.44
481.494	3.52
481.695	3.48
481.897	3.55
482.099	3.61
482.301	3.59
482.502	3.47
482.704	3.48
482.906	3.35
483.107	3.27
483.309	3.23
483.511	3.22
483.712	3.21
483.914	3.21
484.115	3.16
484.317	3.17
484.519	3.13
484.72	3.14
484.922	3.1
485.123	3.08
485.325	3.09
485.526	3.15
485.728	3.16
485.929	3.14
486.131	3.09
486.332	3.1
486.534	3.04
486.735	3.07
486.936	3.12
487.138	3.12
487.339	3.14
487.541	3.11
487.742	3.11
487.943	3.12
488.144	3.07
488.346	3.12
488.547	3.09
488.748	3.12
488.95	3.14
489.151	3.12
489.352	3.2
489.553	3.18
489.755	3.26
489.956	3.25
490.157	3.17
490.358	3.22
490.559	3.21
490.76	3.29
490.961	3.24
491.163	3.3
491.364	3.25
491.565	3.21
491.766	3.27
491.967	3.29
492.168	3.26
492.369	3.31
492.57	3.32
492.771	3.37
492.972	3.27
493.173	3.35
493.374	3.34
493.575	3.45
493.776	3.37
493.976	3.42
494.177	3.39
494.378	3.46
494.579	3.56
494.78	3.66
494.981	3.61
495.182	3.8
495.382	3.84
495.583	3.87
495.784	3.84
495.985	4.02
496.185	4.04
496.386	4.07
496.587	4.13
496.788	4.05
496.988	3.93
497.189	3.98
497.39	3.83
497.59	3.78
497.791	3.6
497.992	3.46
498.192	3.49
498.393	3.53
498.593	3.5
498.794	3.48
498.994	3.64
499.195	3.68
499.395	3.7
499.596	3.93
499.796	3.98
499.997	4.13
500.197	4.33
500.398	4.27
500.598	4.12
500.799	4.24
500.999	4.2
501.199	4.05
501.4	4.03
501.6	4.04
501.801	4.01
502.001	4.16
502.201	4.13
502.402	4.07
502.602	4.04
502.802	4.16
503.002	4.16
503.203	4.23
503.403	4.4
503.603	4.45
503.803	4.49
504.003	4.5
504.204	4.45
504.404	4.57
504.604	4.78
504.804	5.19
505.004	5.08
505.204	5.03
505.404	5.06
505.604	4.98
505.804	5.02
506.005	5.14
506.205	4.95
506.405	5.01
506.605	4.99
506.805	5.03
507.005	4.77
507.204	4.91
507.404	4.86
507.604	4.98
507.804	5.02
508.004	5.11
508.204	4.93
508.404	5.16
508.604	5.15
508.804	5.2
509.003	5.05
509.203	5.19
509.403	5.14
509.603	5.29
509.803	5.21
510.002	5.37
510.202	5.36
510.402	5.52
510.602	5.42
510.801	5.47
511.001	5.5
511.201	5.57
511.4	5.37
511.6	5.56
511.8	5.56
511.999	5.68
512.199	5.55
512.398	5.65
512.598	5.82
512.797	6.13
512.997	6.24
513.197	6.3
513.396	6.51
513.596	6.72
513.795	6.82
513.994	6.91
514.194	6.88
514.393	7
514.593	7.17
514.792	7.15
514.992	7.08
515.191	7.08
515.39	7.16
515.59	7.24
515.789	7.41
515.988	7.46
516.188	7.45
516.387	7.53
516.586	7.8
516.786	7.75
516.985	7.8
517.184	7.98
517.383	8.17
517.582	8.28
517.782	8.12
517.981	8.17
518.18	8.13
518.379	8.32
518.578	8.37
518.777	8.36
518.976	8.49
519.176	8.46
519.375	8.36
519.574	8.43
519.773	8.4
519.972	8.72
520.171	8.74
520.37	8.88
520.569	9.05
520.768	9.35
520.967	9.44
521.166	9.5
521.365	9.7
521.564	9.81
521.762	9.89
521.961	10.09
522.16	10.05
522.359	10.04
522.558	10.04
522.757	9.85
522.956	9.75
523.154	9.77
523.353	9.87
523.552	9.97
523.751	10.18
523.949	10.17
524.148	10.25
524.347	10.36
524.546	10.64
524.744	10.92
524.943	11.13
525.142	11.15
525.34	11.23
525.539	11.2
525.737	11.26
525.936	11.25
526.135	11.36
526.333	11.42
526.532	11.38
526.73	11.31
526.929	11.3
527.127	11.37
527.326	11.42
527.524	11.51
527.723	11.68
527.921	11.77
528.12	11.78
528.318	11.8
528.516	11.84
528.715	11.94
528.913	12.01
529.112	12.09
529.31	12.13
529.508	12.2
529.707	12.25
529.905	12.28
530.103	12.3
530.301	12.39
530.5	12.51
530.698	12.6
530.896	12.69
531.094	12.84
531.293	12.88
531.491	12.96
531.689	13.1
531.887	13.2
532.085	13.24
532.283	13.34
532.481	13.5
532.68	13.63
532.878	13.72
533.076	13.81
533.274	13.74
533.472	13.73
533.67	13.75
533.868	13.85
534.066	13.95
534.264	13.91
534.462	13.93
534.66	13.88
534.858	13.81
535.056	13.91
535.253	13.85
535.451	14.01
535.649	14.21
535.847	14.36
536.045	14.39
536.243	14.49
536.441	14.65
536.638	14.77
536.836	14.97
537.034	15.11
537.232	15.08
537.43	15.21
537.627	15.23
537.825	15.28
538.023	15.27
538.22	15.43
538.418	15.49
538.616	15.59
538.813	15.59
539.011	15.64
539.209	15.64
539.406	15.64
539.604	15.8
539.801	15.97
539.999	16.05
540.196	16.12
540.394	16.08
540.591	16.06
540.789	16.21
540.986	16.24
541.184	16.3
541.381	16.34
541.579	16.43
541.776	16.5
541.974	16.57
542.171	16.61
542.368	16.65
542.566	16.69
542.763	16.72
542.96	16.69
543.158	16.88
543.355	16.95
543.552	17.09
543.75	17.23
543.947	17.27
544.144	17.33
544.341	17.45
544.539	17.64
544.736	17.76
544.933	17.95
545.13	17.99
545.327	17.99
545.524	18.03
545.722	18.03
545.919	18.07
546.116	18.05
546.313	18.07
546.51	18.16
546.707	18.17
546.904	18.22
547.101	18.17
547.298	18.47
547.495	18.63
547.692	18.76
547.889	18.8
548.086	18.91
548.283	19.18
548.48	19.47
548.677	19.43
548.874	19.47
549.07	19.57
549.267	19.8
549.464	19.78
549.661	19.76
549.858	19.76
550.055	19.91
550.251	20.06
550.448	19.91
550.645	19.77
550.842	20.05
551.038	20.17
551.235	20.36
551.432	20.35
551.628	20.38
551.825	20.51
552.022	20.54
552.218	20.55
552.415	20.48
552.612	20.67
552.808	20.73
553.005	20.62
553.201	20.59
553.398	20.69
553.594	20.89
553.791	21.16
553.987	21.26
554.184	21.48
554.38	21.63
554.577	21.73
554.773	21.89
554.97	22.03
555.166	22.2
555.362	22.47
555.559	22.42
555.755	22.47
555.952	22.32
556.148	22.48
556.344	22.55
556.541	22.56
556.737	22.67
556.933	22.69
557.129	22.62
557.326	22.94
557.522	22.89
557.718	23.12
557.914	23.2
558.11	23.31
558.307	23.08
558.503	23.32
558.699	23.58
558.895	23.66
559.091	23.83
559.287	24.22
559.483	24.08
559.679	24.2
559.876	24.16
560.072	24.02
560.268	24.02
560.464	24.22
560.66	24.24
560.856	24.37
561.052	24.51
561.247	24.41
561.443	24.34
561.639	24.42
561.835	24.54
562.031	24.66
562.227	24.95
562.423	25.03
562.619	25.17
562.815	25.12
563.01	25.18
563.206	25.21
563.402	25.29
563.598	25.29
563.793	25.5
563.989	25.85
564.185	25.73
564.381	25.79
564.576	26
564.772	25.9
564.968	25.98
565.163	25.91
565.359	26.02
565.555	26.08
565.75	26.29
565.946	26.02
566.141	25.81
566.337	25.89
566.532	26.12
566.728	26.22
566.923	26.31
567.119	26.42
567.314	26.48
567.51	26.4
567.705	26.47
567.901	26.48
568.096	26.69
568.292	26.95
568.487	26.99
568.682	26.94
568.878	27.07
569.073	27.32
569.268	27.25
569.464	27.49
569.659	27.79
569.854	27.98
570.05	27.82
570.245	28.05
570.44	27.92
570.635	28.02
570.831	27.9
571.026	27.81
571.221	27.86
571.416	27.75
571.611	27.55
571.806	27.24
572.002	27.03
572.197	27.03
572.392	26.81
572.587	26.9
572.782	26.99
572.977	27.1
573.172	27.07
573.367	27.03
573.562	27.44
573.757	27.69
573.952	27.69
574.147	27.84
574.342	27.97
574.537	28.1
574.732	27.87
574.927	27.97
575.121	27.97
575.316	28.22
575.511	28.19
575.706	27.95
575.901	27.8
576.096	28.23
576.29	28.21
576.485	28.3
576.68	28.35
576.875	28.47
577.069	28.4
577.264	28.45
577.459	28.42
577.654	28.75
577.848	28.96
578.043	29.12
578.238	29.2
578.432	29.42
578.627	29.42
578.821	29.61
579.016	29.92
579.21	30.08
579.405	30.13
579.6	29.95
579.794	29.71
579.989	29.58
580.183	29.93
580.378	29.62
580.572	30.04
580.766	30.16
580.961	30.04
581.155	29.86
581.35	30.07
581.544	30.21
581.738	30.66
581.933	30.81
582.127	30.9
582.321	30.63
582.516	30.78
582.71	30.24
582.904	30.43
583.099	30.63
583.293	30.81
583.487	30.48
583.681	30.66
583.875	30.47
584.07	30.51
584.264	30.8
584.458	30.85
584.652	30.79
584.846	31.12
585.04	30.95
585.234	30.97
585.428	31.04
585.623	31.23
585.817	31.09
586.011	30.76
586.205	30.8
586.399	30.99
586.593	31.14
586.787	31.55
586.981	31.4
587.174	31.66
587.368	31.75
587.562	31.95
587.756	31.76
587.95	31.97
588.144	32.16
588.338	32.39
588.532	32.2
588.725	32.28
588.919	32.16
589.113	32.32
589.307	32.46
589.501	32.27
589.694	32.34
589.888	32.64
590.082	32.32
590.275	32.55
590.469	32.54
590.663	32.41
590.856	32.28
591.05	32.42
591.244	32.39
591.437	32.46
591.631	32.57
591.824	32.41
592.018	32.38
592.212	32.71
592.405	32.71
592.599	32.63
592.792	32.71
592.986	32.86
593.179	32.76
593.372	32.63
593.566	32.4
593.759	32.23
593.953	32.14
594.146	31.96
594.339	32.07
594.533	31.94
594.726	31.87
594.92	31.97
595.113	31.86
595.306	31.76
595.499	31.95
595.693	32.15
595.886	32.52
596.079	32.69
596.272	33.02
596.466	32.9
596.659	33.02
596.852	33.15
597.045	33.28
597.238	33.35
597.431	33.48
597.624	33.31
597.818	33.3
598.011	33.4
598.204	33.3
598.397	33.19
598.59	33.08
598.783	33.25
598.976	33.09
599.169	32.73
599.362	32.73
599.555	32.61
599.748	32.79
599.941	32.6
600.134	32.44
600.326	32.5
600.519	32.72
600.712	33.26
600.905	33.08
601.098	33.36
601.291	33.52
601.483	33.58
601.676	33.62
601.869	33.84
602.062	33.85
602.255	33.82
602.447	33.94
602.64	33.77
602.833	33.42
603.025	33.46
603.218	33.42
603.411	33.62
603.603	33.63
603.796	33.76
603.989	33.48
604.181	33.62
604.374	33.66
604.566	33.69
604.759	33.64
604.951	33.63
605.144	33.64
605.336	33.95
605.529	33.87
605.721	33.86
605.914	34.1
606.106	34.4
606.299	34.55
606.491	34.67
606.683	34.71
606.876	34.83
607.068	35.02
607.26	35.1
607.453	34.66
607.645	34.47
607.837	34.58
608.03	34.02
608.222	33.83
608.414	33.9
608.606	33.41
608.799	33.61
608.991	33.83
609.183	33.89
609.375	34.19
609.567	34.27
609.759	34.59
609.952	34.48
610.144	34.85
610.336	35
610.528	34.85
610.72	35.23
610.912	35.24
611.104	35.23
611.296	35.09
611.488	34.91
611.68	34.87
611.872	34.78
612.064	35.14
612.256	34.94
612.448	34.9
612.64	34.91
612.832	35.04
613.023	34.94
613.215	35.09
613.407	35.06
613.599	35.1
613.791	35.22
613.983	35.14
614.174	34.96
614.366	35.28
614.558	35.29
614.75	35.51
614.941	35.42
615.133	35.33
615.325	35.13
615.516	35.39
615.708	35.25
615.9	35.54
616.091	35.9
616.283	36.03
616.475	35.88
616.666	35.83
616.858	35.68
617.049	35.32
617.241	35.38
617.432	35.58
617.624	35.62
617.815	35.51
618.007	35.07
618.198	34.86
618.39	34.77
618.581	34.72
618.773	34.88
618.964	34.84
619.155	35.15
619.347	34.91
619.538	34.78
619.729	34.61
619.921	34.9
620.112	35.28
620.303	35.39
620.494	35.45
620.686	35.7
620.877	35.79
621.068	35.68
621.259	35.54
621.451	36.18
621.642	35.97
621.833	36.18
622.024	36.09
622.215	35.78
622.406	35.63
622.597	35.47
622.788	35.1
622.98	34.74
623.171	34.6
623.362	34.71
623.553	34.55
623.744	34.76
623.935	34.7
624.126	34.63
624.317	34.92
624.508	34.81
624.698	34.87
624.889	34.92
625.08	35.61
625.271	35.94
625.462	36.07
625.653	35.83
625.844	35.54
626.034	35.31
626.225	35.48
626.416	35.04
626.607	35.36
626.798	35.36
626.988	35.56
627.179	35.29
627.37	35.02
627.56	35.02
627.751	35.22
627.942	35.39
628.132	35.6
628.323	35.51
628.514	36.07
628.704	36.25
628.895	36.24
629.085	35.83
629.276	35.43
629.466	35.98
629.657	35.9
629.847	35.77
630.038	36.36
630.228	36.46
630.419	36.84
630.609	36.89
630.8	36.53
630.99	36.65
631.181	37.39
631.371	38.04
631.561	37.58
631.752	37.8
631.942	38.05
632.132	37.41
632.323	37.28
632.513	36.78
632.703	36.25
632.893	36.5
633.084	36.49
633.274	36.29
633.464	35.68
633.654	36.26
633.844	36.22
634.034	35.95
634.225	36.16
634.415	35.88
634.605	36.11
634.795	36.23
634.985	36.2
635.175	36.37
635.365	36.38
635.555	36.76
635.745	36.42
635.935	36.61
636.125	36.79
636.315	36.92
636.505	37.35
636.695	37.47
636.885	37.55
637.075	37.59
637.265	37.66
637.455	37.53
637.644	37.77
637.834	37.85
638.024	37.7
638.214	37.48
638.404	37.37
638.593	37.46
638.783	37.18
638.973	37.37
639.163	37.15
639.352	36.53
639.542	36.43
639.732	36.55
639.921	36.49
640.111	36.4
640.301	36.59
640.49	36.7
640.68	36.71
640.87	36.9
641.059	37.06
641.249	37.44
641.438	37.93
641.628	38.21
641.817	38.16
642.007	38.52
642.196	38.68
642.386	38.73
642.575	38.75
642.764	38.6
642.954	38.51
643.143	38.59
643.333	38.59
643.522	38.7
643.711	38.53
643.901	38.27
644.09	37.81
644.279	38.21
644.469	37.91
644.658	37.66
644.847	37.71
645.036	38.04
645.226	37.86
645.415	37.49
645.604	37.52
645.793	37.74
645.982	37.34
646.171	37.56
646.361	37.04
646.55	37.58
646.739	37.66
646.928	37.56
647.117	37.33
647.306	37.8
647.495	37.91
647.684	37.73
647.873	37.61
648.062	37.79
648.251	37.48
648.44	37.4
648.629	37.06
648.818	37.34
649.007	37.14
649.196	37.61
649.384	36.91
649.573	36.94
649.762	36.8
649.951	37.03
650.14	37.32
650.328	37.14
650.517	37.33
650.706	37.93
650.895	37.66
651.083	38.28
651.272	37.79
651.461	37.86
651.65	37.58
651.838	37.8
652.027	37.62
652.216	37.45
652.404	37.51
652.593	37.77
652.781	37.37
652.97	37.69
653.158	37.16
653.347	37.4
653.535	37.54
653.724	37.88
653.912	38.28
654.101	38.08
654.289	38.45
654.478	38.95
654.666	38.94
654.855	39.04
655.043	38.83
655.231	38.91
655.42	39.02
655.608	38.85
655.796	38.87
655.985	38.35
656.173	38.12
656.361	38.2
656.55	38.14
656.738	37.99
656.926	37.66
657.114	37.73
657.302	37.93
657.491	37.65
657.679	37.83
657.867	37.65
658.055	37.87
658.243	38.26
658.431	37.97
658.619	37.86
658.807	37.84
658.996	37.75
659.184	37.76
659.372	37.74
659.56	37.7
659.748	37.48
659.936	37.78
660.124	37.49
660.311	37.29
660.499	37.25
660.687	37.1
660.875	36.87
661.063	37.1
661.251	36.99
661.439	36.99
661.627	37.5
661.814	37.92
662.002	37.65
662.19	38.41
662.378	38.43
662.565	38.83
662.753	38.9
662.941	39.47
663.129	39.15
663.316	39.4
663.504	39.59
663.692	39.02
663.879	38.74
664.067	38.6
664.254	37.71
664.442	37.7
664.63	37.96
664.817	38.37
665.005	38.21
665.192	38.81
665.38	38.87
665.567	38.64
665.755	38.85
665.942	38.8
666.13	39.09
666.317	39.28
666.504	39.41
666.692	38.85
666.879	38.87
667.067	38.93
667.254	38.75
667.441	38.75
667.629	39.28
667.816	39.01
668.003	39.47
668.19	40.09
668.378	40.39
668.565	40.63
668.752	40.98
668.939	40.63
669.127	40.32
669.314	40.34
669.501	40.21
669.688	39.89
669.875	40.17
670.062	39.84
670.249	39.02
670.436	39.1
670.623	39.51
670.81	39.35
670.997	39.27
671.184	39.24
671.371	39.56
671.558	39.35
671.745	39.25
671.932	38.76
672.119	38.59
672.306	38.9
672.493	38.45
672.68	37.98
672.867	38.35
673.054	38.7
673.24	38.78
673.427	38.48
673.614	38.3
673.801	38.44
673.988	39.02
674.174	39.41
674.361	39.14
674.548	39.38
674.734	39.27
674.921	38.8
675.108	38.93
675.294	39.19
675.481	39.17
675.668	39.63
675.854	39.93
676.041	39.88
676.227	39.93
676.414	40.4
676.601	40.7
676.787	40.79
676.974	40.81
677.16	40.44
677.347	40.8
677.533	41.19
677.719	41.16
677.906	40.87
678.092	41.02
678.279	40.93
678.465	40.7
678.651	40.49
678.838	40.34
679.024	40.3
679.21	40.15
679.397	39.92
679.583	39.9
679.769	39.49
679.955	39.43
680.142	39.11
680.328	38.89
680.514	38.73
680.7	38.32
680.886	38.79
681.073	38.81
681.259	39.18
681.445	39.21
681.631	38.9
681.817	39.51
682.003	39.33
682.189	39.61
682.375	39.76
682.561	40.25
682.747	39.93
682.933	39.57
683.119	39.73
683.305	39.72
683.491	39.43
683.677	39.95
683.863	39.63
684.049	39.81
684.235	40.4
684.42	40.38
684.606	39.87
684.792	41.09
684.978	41.2
685.164	41.14
685.349	41.45
685.535	41.87
685.721	41.34
685.907	40.91
686.092	40.73
686.278	39.89
686.464	40.05
686.649	40.5
686.835	40.51
687.021	40.77
687.206	40.8
687.392	40.68
687.577	40.56
687.763	40.74
687.948	41.68
688.134	41.81
688.319	41.94
688.505	41.98
688.69	41.55
688.876	41.43
689.061	41.24
689.247	41.07
689.432	40.76
689.618	40.35
689.803	40.53
689.988	40.26
690.174	40.32
690.359	40.5
690.544	40.7
690.73	40.85
690.915	40.15
691.1	39.4
691.285	39.68
691.471	39.63
691.656	40.05
691.841	39.85
692.026	39.74
692.211	39.46
692.396	39.31
692.582	39.81
692.767	39.97
692.952	39.99
693.137	40.46
693.322	39.96
693.507	40.09
693.692	40.15
693.877	40.07
694.062	39.68
694.247	40.29
694.432	40.67
694.617	40.09
694.802	40.09
694.987	40.79
695.172	41.04
695.357	41.85
695.541	41.9
695.726	41.62
695.911	42.14
696.096	42.2
696.281	41.89
696.466	41.97
696.65	41.64
696.835	41.36
697.02	40.79
697.204	40.92
697.389	40.47
697.574	40.32
697.759	40.13
697.943	39.74
698.128	40.35
698.312	40.74
698.497	40.46
698.682	40.32
698.866	40.22
699.051	40.55
699.235	40.65
699.42	40.9
699.604	40.71
699.789	40.87
699.973	40.76
700.158	40.34
700.342	40.13
700.527	40.05
700.711	40.19
700.895	40.69
701.08	40.94
701.264	40.96
701.448	40.62
701.633	41.5
701.817	41.91
702.001	42.28
702.186	42.43
702.37	41.84
702.554	41.9
702.738	41.98
702.923	41.76
703.107	41.72
703.291	41.69
703.475	41.95
703.659	41.05
703.843	40.49
704.027	40.2
704.212	39.53
704.396	40.76
704.58	40.55
704.764	40.41
704.948	40.5
705.132	40.48
705.316	40.17
705.5	40.33
705.684	40.73
705.868	41.37
706.052	41.53
706.235	42.81
706.419	42.47
706.603	42.71
706.787	42.57
706.971	42.32
707.155	41.89
707.339	41.8
707.522	41.96
707.706	42.49
707.89	41.68
708.074	42.14
708.257	41.12
708.441	41.07
708.625	41.16
708.808	41.34
708.992	41.32
709.176	41.45
709.359	41.3
709.543	40.59
709.727	40.31
709.91	40.91
710.094	40.86
710.277	41.66
710.461	41.67
710.644	42.14
710.828	42.93
711.011	42.59
711.195	42.94
711.378	43.46
711.562	43.18
711.745	42.74
711.928	42.81
712.112	42.29
712.295	41.65
712.478	41.24
712.662	41.38
712.845	40.77
713.028	41.08
713.212	40.81
713.395	40.27
713.578	41.19
713.761	41.55
713.945	41.28
714.128	41.7
714.311	41.7
714.494	41.68
714.677	41.04
714.86	40.78
715.043	41.15
715.227	40.88
715.41	41.68
715.593	41.56
715.776	41.98
715.959	41.62
716.142	41.51
716.325	41.62
716.508	41.78
716.691	41.65
716.874	41.74
717.057	41.34
717.239	41.91
717.422	41.52
717.605	41.47
717.788	40.48
717.971	42.13
718.154	42.43
718.337	42.79
718.519	42.34
718.702	42.45
718.885	42.51
719.068	42.71
719.25	42.32
719.433	42.9
719.616	43.06
719.798	44.42
719.981	43.17
720.164	42.17
720.346	41.99
720.529	42.96
720.712	42.85
720.894	42.96
721.077	42.91
721.259	43.31
721.442	43.08
721.624	42.96
721.807	42.25
721.989	41.63
722.172	41.82
722.354	42.44
722.537	42.28
722.719	42.67
722.901	43.02
723.084	42.63
723.266	42.08
723.448	42.07
723.631	41.21
723.813	41.08
723.995	41.36
724.178	42.12
724.36	42.06
724.542	41.7
724.724	41.76
724.907	41.64
725.089	42.82
725.271	43.43
725.453	42.79
725.635	43.61
725.817	44.25
725.999	44.82
726.181	45.16
726.364	44.91
726.546	44.59
726.728	44.45
726.91	44.85
727.092	44.64
727.274	44.99
727.456	45.67
727.638	45.12
727.819	44.94
728.001	44.83
728.183	44.03
728.365	43.89
728.547	44.7
728.729	45.27
728.911	45.66
729.093	45.78
729.274	44.68
729.456	44.02
729.638	44.75
729.82	44.02
730.001	42.84
730.183	42.98
730.365	42.85
730.546	42.49
730.728	41.92
730.91	40.55
731.091	40.26
731.273	40.87
731.455	40.72
731.636	41.32
731.818	41.95
731.999	43.01
732.181	43.32
732.362	43.09
732.544	43.26
732.725	42.89
732.907	43.93
733.088	44.3
733.27	44.98
733.451	44.62
733.633	44.51
733.814	44.63
733.995	44.15
734.177	44.26
734.358	43.61
734.539	43.15
734.721	43.5
734.902	43.48
735.083	43.05
735.264	42.27
735.446	43.6
735.627	42.49
735.808	42.9
735.989	43.5
736.17	43.06
736.351	45.82
736.533	45.88
736.714	45.99
736.895	45.53
737.076	45.2
737.257	45.95
737.438	44.4
737.619	45.46
737.8	44.01
737.981	44.69
738.162	45.1
738.343	43.4
738.524	44.52
738.705	44.94
738.886	44.77
739.067	45.48
739.247	44.67
739.428	45.64
739.609	45.41
739.79	45.72
739.971	45.23
740.151	46.24
740.332	46.56
740.513	46.54
740.694	46.61
740.874	46.31
741.055	45.52
741.236	45.92
741.417	45.28
741.597	45.14
741.778	46.02
741.958	45.65
742.139	44.02
742.32	43.53
742.5	42.65
742.681	42.71
742.861	43.22
743.042	43.84
743.222	44.17
743.403	44.98
743.583	45.67
743.764	44.91
743.944	45.94
744.124	47.35
744.305	48.26
744.485	49.03
744.666	49.1
744.846	49.98
745.026	50.26
745.207	50.24
745.387	50.3
745.567	49.08
745.747	49.56
745.928	47.94
746.108	46.7
746.288	45.1
746.468	45.27
746.648	45.73
746.829	44.75
747.009	45.21
747.189	44.75
747.369	44.87
747.549	45.51
747.729	45.09
747.909	45.66
748.089	46.32
748.269	46.81
748.449	45.16
748.629	43.76
748.809	43.23
748.989	43.09
749.169	43.49
749.349	43.65
749.529	41.5
749.709	42.66
749.889	42.79
750.068	41.91
750.248	42.64
750.428	42.86
750.608	43.53
750.788	44.49
750.967	43.38
751.147	42.45
751.327	43.27
751.507	44.6
751.686	43.78
751.866	44.19
752.046	43.92
752.225	43.22
752.405	43.32
752.585	43.04
752.764	42.56
752.944	41.93
753.123	42.65
753.303	40.19
753.482	40.48
753.662	40.64
753.841	39.95
754.021	40.44
754.2	41.56
754.38	41.84
754.559	42.33
754.739	42.69
754.918	44.68
755.097	43.63
755.277	44.45
755.456	44.6
755.635	45.38
755.815	45.49
755.994	46.56
756.173	44.66
756.352	45.78
756.532	45.47
756.711	45.73
756.89	45.3
757.069	46.35
757.248	46.04
757.427	45.88
757.607	45.39
757.786	46.25
757.965	45.14
758.144	45.94
758.323	45.21
758.502	44.78
758.681	43.82
758.86	43.87
759.039	42.55
759.218	42.96
759.397	43.05
759.576	42.63
759.755	41.75
759.934	41.89
760.113	42.55
760.291	43.39
760.47	44.36
760.649	44.59
760.828	44.4
761.007	44.65
761.186	44.87
761.364	44.45
761.543	44.72
761.722	45.48
761.901	45.05
762.079	45.19
762.258	44.28
762.437	44.01
762.615	44.06
762.794	44.19
762.972	45.69
763.151	44.23
763.33	43.86
763.508	43.03
763.687	42.17
763.865	42.87
764.044	42.35
764.222	41.7
764.401	41.29
764.579	41.37
764.758	41.12
764.936	40.77
765.114	42.16
765.293	42.94
765.471	43.14
765.65	43.62
765.828	43.78
766.006	43.76
766.184	43.71
766.363	43.59
766.541	42.92
766.719	41.91
766.898	41.62
767.076	41.15
767.254	41.28
767.432	41.59
767.61	42.37
767.788	42.5
767.967	42.73
768.145	44.01
768.323	44.93
768.501	44.46
768.679	45.52
768.857	45.04
769.035	46.01
769.213	46.94
769.391	46.8
769.569	45.75
769.747	46.07
769.925	45.46
770.103	46
770.281	44.63
770.459	47.72
770.636	47.68
770.814	47.4
770.992	47.82
771.17	46.65
771.348	46.23
771.525	47.06
771.703	45.68
771.881	46.54
772.059	46.81
772.236	47.2
772.414	45.82
772.592	46.2
772.769	45.79
772.947	44.75
773.125	45.03
773.302	48.14
773.48	48.89
773.657	48.81
773.835	48.36
774.013	48.37
774.19	48.33
774.368	48.65
774.545	47.86
774.723	49.73
774.9	49.9
775.077	48.23
775.255	46.27
775.432	45.66
775.61	45.88
775.787	46.35
775.964	44.26
776.142	45.24
776.319	44.54
776.496	45.61
776.674	45.37
776.851	45.7
777.028	48.21
777.205	47.17
777.382	46.97
777.56	48.51
777.737	51.12
777.914	52.82
778.091	51.76
778.268	51.37
778.445	51.22
778.622	51.21
778.8	50.02
778.977	48.89
779.154	53.27
779.331	53.3
779.508	53.51
779.685	51.11
779.862	51.81
780.038	51.9
780.215	54.15
780.392	53.94
780.569	54.14
780.746	55.17
780.923	55.07
781.1	51.48
781.277	48.24
781.453	45.21
781.63	44.46
781.807	44.52
781.984	44.85
782.16	44.86
782.337	45.39
782.514	44.15
782.691	44.03
782.867	45.27
783.044	48.88
783.221	54.58
783.397	55.86
783.574	56.26
783.75	55.22
783.927	56.47
784.103	56.2
784.28	55.12
784.456	54.8
784.633	56.69
784.809	55.86
784.986	51.23
785.162	50.02
785.339	50.33
785.515	48.93
785.692	50.48
785.868	49.95
786.044	50.53
786.221	51.87
786.397	52.57
786.573	50.49
786.749	50.47
786.926	51.85
787.102	53.01
787.278	52.39
787.454	54.34
787.631	53.51
787.807	52.63
787.983	53.12
788.159	53
788.335	53.37
788.511	53.85
788.687	53.29
788.863	54.77
789.039	53.12
789.216	53.51
789.392	52.86
789.568	51.93
789.744	53.89
789.919	53.41
790.095	52.81
790.271	50.6
790.447	50.2
790.623	50.7
790.799	48.08
790.975	48.6
791.151	50.03
791.327	50
791.502	48.87
791.678	47.29
791.854	47.37
792.03	46.88
792.205	49.1
792.381	48.99
792.557	46.54
792.733	46.14
792.908	45.1
793.084	45.51
793.259	44.91
793.435	44.06
793.611	46.81
793.786	43.71
793.962	44.18
794.137	42.79
794.313	43.56
794.488	45.21
794.664	49.12
794.839	49.87
795.015	48.06
795.19	47.99
795.366	49.74
795.541	47.4
795.716	46.19
795.892	46.05
796.067	48.91
796.242	49.89
796.418	50.01
796.593	46.91
796.768	44.97
796.944	45.85
797.119	45.68
797.294	46.2
797.469	47.11
797.644	50.22
797.82	52.37
797.995	50.42
798.17	49.19
798.345	48.84
798.52	47.76
798.695	49.41
798.87	47.42
799.045	47.69
799.22	47.24
799.395	48.53
799.57	48.14
799.745	48.24
799.92	49.24
800.095	49.47
800.27	49.21
800.445	49.26
800.62	47.17
800.795	46.26
800.97	50.01
801.145	49.59
801.319	47.59
801.494	47.36
801.669	47.39
801.844	45.5
802.018	42.99
802.193	45.93
802.368	48.21
802.543	47.73
802.717	51.44
802.892	47.41
803.067	49.44
803.241	50.38
803.416	49.01
803.59	50.21
803.765	51.09
803.94	53.27
804.114	49.98
804.289	51.62
804.463	52.89
804.638	50.72
804.812	50.76
804.986	49.72
805.161	50.73
805.335	52.89
805.51	51.6
805.684	50.22
805.858	50.88
806.033	53.07
806.207	52.53
806.381	56.03
806.556	58.09
806.73	59.69
806.904	61.3
807.078	61.13
807.253	61.47
807.427	56.98
807.601	57.17
807.775	56.92
807.949	57.21
808.123	56.28
808.298	56.1
808.472	55.16
808.646	54.31
808.82	52.54
808.994	49.3
809.168	47.54
809.342	51.9
809.516	53.81
809.69	52.66
809.864	50.59
810.038	52.56
810.212	50.38
810.385	47.09
810.559	50.26
810.733	49.88
810.907	51.56
811.081	52.34
811.255	49.84
811.428	44.47
811.602	42.67
811.776	44.31
811.95	43.72
812.123	42.73
812.297	43.82
812.471	39.05
812.644	40.89
812.818	41.74
812.992	42.26
813.165	42.16
813.339	45.81
813.512	50.41
813.686	49.29
813.86	48.52
814.033	50.61
814.207	56.17
814.38	59.46
814.554	60.09
814.727	59.03
814.9	60.26
815.074	60.66
815.247	58.27
815.421	54.38
815.594	55.19
815.767	53.93
815.941	50.62
816.114	48.73
816.287	46.8
816.46	47.22
816.634	47.28
816.807	48.79
816.98	50.05
817.153	52.37
817.327	55.99
817.5	54.23
817.673	56.12
817.846	58.13
818.019	57.78
818.192	61.46
818.365	57.66
818.538	59.22
818.711	55.11
818.884	52
819.057	51.25
819.23	49.42
819.403	51.18
819.576	50.42
819.749	51.67
819.922	50.81
820.095	48.28
820.268	48.48
820.441	48.4
820.614	50.51
820.786	51.7
820.959	52.24
821.132	50.42
821.305	47.79
821.477	47.38
821.65	46.03
821.823	46.81
821.996	46.37
822.168	47
822.341	45.84
822.514	45.23
822.686	44.73
822.859	44.19
823.031	43.64
823.204	44.36
823.376	44.36
823.549	43.96
823.722	43.15
823.894	43.62
824.067	43.05
824.239	42.94
824.411	42.77
824.584	43.26
824.756	43.25
824.929	43.47
825.101	43.06
825.273	42.6
825.446	42.88
825.618	43.15
825.79	42.63
825.963	42.67
826.135	43.33
826.307	44.47
826.479	43.65
826.652	44.39
826.824	45.39
826.996	45.56
827.168	46.06
827.34	46.51
827.512	45.79
827.684	45.63
827.856	45.69
828.029	44.53
828.201	43.14
828.373	43.42
828.545	42.94
828.717	43.07
828.889	42.97
829.061	42.74
829.232	44.42
829.404	47.14
829.576	47.4
829.748	47.33
829.92	49.98
830.092	51.9
830.264	51.46
830.436	52.89
830.607	53.29
830.779	53.06
830.951	52.89
831.123	50.01
831.294	48.13
831.466	48.7
831.638	50.44
831.809	48.38
831.981	49.38
832.153	50.39
832.324	48.79
832.496	49.59
832.667	55.29
832.839	56.93
833.011	54.82
833.182	55.98
833.354	53.54
833.525	52.56
833.697	52.7
833.868	48.88
834.039	51.22
834.211	51.3
834.382	50.69
834.554	48.98
834.725	48.72
834.896	47.98
835.068	46.96
835.239	48.41
835.41	48.91
835.581	48.44
835.753	50.04
835.924	48.64
836.095	48.99
836.266	47.65
836.438	45.8
836.609	45.89
836.78	47.36
836.951	48
837.122	45.18
837.293	44.79
837.464	46.27
837.635	47.83
837.806	48.69
837.977	49.68
838.148	53.95
838.319	56.87
838.49	56.79
838.661	58.15
838.832	61.29
839.003	63.72
839.174	60.64
839.345	63.54
839.516	62.33
839.687	62.54
839.857	54.97
840.028	53.25
840.199	51.56
840.37	53.42
840.54	56.73
840.711	55.57
840.882	60.88
841.053	65.53
841.223	62.27
841.394	63.88
841.564	66.93
841.735	74.76
841.906	76.85
842.076	75.42
842.247	74.35
842.417	72.33
842.588	72.14
842.758	72.71
842.929	76.75
843.099	77.25
843.27	70.92
843.44	71.83
843.611	75.23
843.781	77.09
843.951	82.01
844.122	85.57
844.292	79.03
844.462	80.53
844.633	78.8
844.803	70.02
844.973	68.51
845.144	70.5
845.314	64.54
845.484	65.05
845.654	62.91
845.824	59.65
845.995	55.73
846.165	64.43
846.335	61.07
846.505	58.89
846.675	64.99
846.845	65.85
847.015	80
847.185	77.07
847.355	58.98
847.525	48.57
847.695	53.38
847.865	54.19
848.035	54.33
848.205	49.23
848.375	55.52
848.545	62.01
848.715	65.62
848.884	54.53
849.054	65.52
849.224	72.73
849.394	77.59
849.564	73.21
849.733	81.35
849.903	70.1
850.073	74.79
850.243	69.49
850.412	68.03
850.582	66.47
850.752	63.14
850.921	52.52
851.091	57.39
851.26	67.27
851.43	65.1
851.599	50.27
851.769	69.69
851.939	74.15
852.108	65.99
852.278	66.85
852.447	69.56
852.616	74.7
852.786	74.8
852.955	73.45
853.125	63.56
853.294	67.47
853.463	68.08
853.633	67.19
853.802	70.29
853.971	88.71
854.141	93.74
854.31	97.98
854.479	111.07
854.648	122.63
854.818	104.83
854.987	100.69
855.156	103.02
855.325	107.1
855.494	110.49
855.663	93.8
855.832	96.7
856.001	79.53
856.171	77.63
856.34	78.58
856.509	93.34
856.678	112.15
856.847	117.35
857.016	119.76
857.185	108.82
857.353	106.33
857.522	116.34
857.691	92.04
857.86	97.85
858.029	87.37
858.198	73.52
858.367	61.51
858.535	51.83
858.704	56.15
858.873	51.56
859.042	59.89
859.21	58.46
859.379	53.64
859.548	67.55
859.717	67.61
859.885	85.03
860.054	89.79
860.222	81.01
860.391	73.67
860.56	73.29
860.728	75.77
860.897	78.95
861.065	78.46
861.234	72.9
861.402	66.95
861.571	62.3
861.739	59.23
861.908	57.57
862.076	67.57
862.244	77.62
862.413	74.63
862.581	78.97
862.749	70.94
862.918	60.22
863.086	67.41
863.254	71.54
863.423	80.54
863.591	63.79
863.759	66.6
863.927	53.95
864.096	50.35
864.264	44.36
864.432	39.36
864.6	47.8
864.768	54.81
864.936	58.39
865.104	58.66
865.272	66.87
865.44	82.79
865.608	92.46
865.776	95.39
865.944	96.68
866.112	104.26
866.28	114.17
866.448	108.89
866.616	126.17
866.784	113.93
866.952	120.14
867.12	121.01
867.288	118.03
867.455	119.61
867.623	126.89
867.791	129.19
867.959	141.33
868.127	140.86
868.294	117.7
868.462	86.02
868.63	92.27
868.797	93.68
868.965	95.83
869.133	83.76
869.3	75.69
869.468	84.59
869.636	68.25
869.803	65.81
869.971	59.71
870.138	62.59
870.306	67
870.473	68.13
870.641	54.48
870.808	49.72
870.975	53.36
871.143	49.72
871.31	45.73
871.478	38.6
871.645	26.71
871.812	38.76
871.98	43.2
872.147	39.71
872.314	27.73
872.482	32.22
872.649	34.78
872.816	36.02
872.983	41.44
873.15	48.16
873.318	64.29
873.485	78.31
873.652	68.86
873.819	68.7
873.986	84.61
874.153	106.84
874.32	122.97
874.487	135.89
874.654	142.29
874.821	164.02
874.988	150.95
875.155	145.95
875.322	113.4
875.489	124.3
875.656	109.6
875.823	102.19
875.99	75.97
876.157	70.91
876.324	70.61
876.49	67.41
876.657	68.94
876.824	73.46
876.991	73.54
877.157	75.97
877.324	77.37
877.491	72.34
877.658	65.6
877.824	71.86
877.991	68.82
878.157	66.11
878.324	67.3
878.491	60.95
878.657	55.82
878.824	61.3
878.99	64.04
879.157	66.21
879.323	67.52
879.49	71.08
879.656	69.91
879.823	79.99
879.989	81.81
880.156	88.38
880.322	89.99
880.488	93.07
880.655	89.19
880.821	87.81
880.987	89.3
881.154	94.48
881.32	89.91
881.486	83.48
881.652	78.1
881.819	72.38
881.985	66.7
882.151	64.57
882.317	57.91
882.483	57.44
882.649	56.74
882.816	53.77
882.982	52.76
883.148	50.67
883.314	48.85
883.48	45.66
883.646	45.02
883.812	45.97
883.978	46.11
884.144	47.81
884.31	47.5
884.476	45.22
884.642	45.07
884.807	44.12
884.973	44.27
885.139	45.41
885.305	47.47
885.471	49.38
885.637	49.44
885.802	46.59
885.968	47.01
886.134	49.11
886.3	52.33
886.465	54.01
886.631	53.65
886.797	58.24
886.962	59.08
887.128	60.8
887.293	64.77
887.459	61.66
887.625	69.78
887.79	74
887.956	67.97
888.121	67.21
888.287	66.05
888.452	72.56
888.618	68.2
888.783	72.9
