Data from CB_017_Reflection_1.txt Node
Date: Wed Nov 11 19:10:31 EST 2015
User: robert
Spectrometer: USB4E03001
Autoset integration time: false
Trigger mode: 4
Integration Time (sec): 1.000000E-1
Scans to average: 15
Electric dark correction enabled: true
Nonlinearity correction enabled: false
Boxcar width: 5
Stray light correction enabled: false
XAxis mode: Wavelengths
Stop averaging: false
Number of Pixels in Spectrum: 3648
>>>>>Begin Spectral Data<<<<<
177.566	1.37
177.785	-171.8
178.005	-7.76
178.225	-106.62
178.445	115.03
178.665	135.84
178.885	-4.2
179.105	298.98
179.324	172.57
179.544	-41.64
179.764	76.46
179.984	113.39
180.204	-13.37
180.423	93.66
180.643	257.21
180.863	140.24
181.083	690.91
181.302	320.46
181.522	-561.68
181.742	-212.59
181.961	370.72
182.181	210.35
182.401	253.6
182.621	1546.58
182.84	260.6
183.06	297.05
183.279	282.61
183.499	714.39
183.719	527.17
183.938	402.61
184.158	816.61
184.377	-992.09
184.597	-290.97
184.816	-240.1
185.036	-614.64
185.256	-156.19
185.475	742.88
185.695	-11540.23
185.914	483.8
186.134	346.21
186.353	320.24
186.572	517.01
186.792	323.57
187.011	264.66
187.231	249.59
187.45	314.02
187.67	372.8
187.889	2839.87
188.108	803.8
188.328	1222.73
188.547	-878.96
188.766	-1701.18
188.986	694.6
189.205	-36654.55
189.424	1033.04
189.644	6771.9
189.863	335.19
190.082	238.15
190.302	223.88
190.521	124.41
190.74	87.57
190.959	74.11
191.178	82.7
191.398	67.62
191.617	70.23
191.836	53.55
192.055	43.32
192.274	20.98
192.494	35.8
192.713	31.34
192.932	50.01
193.151	45.37
193.37	59.75
193.589	55.89
193.808	92.06
194.027	97.88
194.246	110.11
194.465	147.23
194.685	145.14
194.904	154.39
195.123	403.49
195.342	2099.55
195.561	280.35
195.78	209.96
195.999	170.96
196.218	253.47
196.436	12.24
196.655	-12.39
196.874	285.71
197.093	179.22
197.312	233.73
197.531	-25.08
197.75	57.88
197.969	65.22
198.188	70.97
198.407	56.29
198.625	57.33
198.844	82.72
199.063	-5.49
199.282	119.82
199.501	52.38
199.719	27.08
199.938	-331.64
200.157	-7.87
200.376	29.17
200.594	127.99
200.813	-9445.71
201.032	783.09
201.251	190.46
201.469	217.97
201.688	216.72
201.907	185.43
202.125	169.66
202.344	124.25
202.563	171.07
202.781	180.43
203	138.78
203.218	112.7
203.437	119.77
203.656	140.31
203.874	112.2
204.093	124.41
204.311	88.14
204.53	75.71
204.748	40.26
204.967	78.29
205.185	68.6
205.404	118.69
205.622	139.52
205.841	145.65
206.059	205.3
206.278	244.41
206.496	189.67
206.715	347.62
206.933	377.9
207.151	295.32
207.37	254.51
207.588	245.32
207.806	212.16
208.025	204.84
208.243	141.91
208.461	43.49
208.68	5.16
208.898	80.76
209.116	70.2
209.335	97.08
209.553	-143.99
209.771	180.93
209.989	-1872.61
210.208	-1078.76
210.426	-397.19
210.644	-159.82
210.862	-136.56
211.081	-161.71
211.299	-161.02
211.517	-336.4
211.735	-314.51
211.953	-623.29
212.171	-242.25
212.39	-1180.72
212.608	-3419.14
212.826	493.74
213.044	267.48
213.262	179.1
213.48	204.61
213.698	298.1
213.916	-1300.91
214.134	-433.64
214.352	-709.35
214.57	649.74
214.788	266.48
215.006	288.59
215.224	263.33
215.442	198.12
215.66	221.61
215.878	241.5
216.096	226.1
216.314	170.54
216.532	197.29
216.75	179.72
216.968	170.41
217.185	218.43
217.403	240.4
217.621	270.14
217.839	320.61
218.057	4979.9
218.275	-1415.73
218.492	-153.67
218.71	-104.97
218.928	-97.77
219.146	-73.36
219.363	-34.94
219.581	-111.78
219.799	-146.21
220.017	-94.63
220.234	-83.57
220.452	-104.87
220.67	-112.83
220.887	-233.34
221.105	-116.71
221.323	-143.97
221.54	-38.26
221.758	-13.64
221.976	-19.21
222.193	-6.95
222.411	-26.73
222.629	-45.06
222.846	-49.39
223.064	-19.8
223.281	-24.25
223.499	-46.78
223.716	-38.39
223.934	-342.81
224.151	-735.97
224.369	-359.5
224.586	156425
224.804	-637.11
225.021	-193.57
225.239	-98.04
225.456	-129.75
225.674	-123.8
225.891	-26.46
226.108	-22.17
226.326	-4.22
226.543	-1.39
226.76	-2.71
226.978	-0.63
227.195	-5.86
227.413	-4.68
227.63	-11.34
227.847	-4.58
228.064	3.7
228.282	3.34
228.499	7.24
228.716	5.42
228.934	5.78
229.151	6.17
229.368	8.96
229.585	7.06
229.802	6.57
230.02	7.08
230.237	4.19
230.454	3.67
230.671	5.95
230.888	-1.61
231.105	-0.95
231.323	3.78
231.54	3.1
231.757	-4.2
231.974	-3.56
232.191	-2.4
232.408	0.79
232.625	-6.53
232.842	-7.88
233.059	-8.83
233.276	-0.78
233.493	-1.9
233.71	-13.89
233.927	-14.72
234.144	-8.27
234.361	-1.09
234.578	-4.56
234.795	-9.95
235.012	-5.5
235.229	-11.04
235.446	-15.49
235.663	-22.23
235.879	-18.52
236.096	-16.61
236.313	-23.12
236.53	-24.61
236.747	-21.03
236.964	-18
237.181	-12.8
237.397	-4.13
237.614	1.42
237.831	-4.59
238.048	-0.41
238.264	-3.73
238.481	-0.61
238.698	2.46
238.915	-2.65
239.131	-12.75
239.348	-16.72
239.565	-18.26
239.781	-20.79
239.998	-19.05
240.215	-13.99
240.431	-13.07
240.648	-8.18
240.865	-5.82
241.081	-4.94
241.298	-2.49
241.514	-0.12
241.731	2.6
241.947	5.43
242.164	5.84
242.38	6.31
242.597	7.28
242.814	8.07
243.03	8.02
243.246	9.13
243.463	10.04
243.679	9.12
243.896	9.72
244.112	9.1
244.329	7.21
244.545	6.36
244.762	6.5
244.978	5.81
245.194	4.02
245.411	2.99
245.627	-0.06
245.843	-0.97
246.06	2.38
246.276	3.19
246.492	3.96
246.709	5.7
246.925	4.8
247.141	4.76
247.357	5.23
247.574	6.01
247.79	6.58
248.006	6.78
248.222	7.88
248.439	7.08
248.655	7.19
248.871	6.2
249.087	5.91
249.303	7.49
249.519	6.53
249.736	4.9
249.952	3.59
250.168	0.28
250.384	1.67
250.6	1.06
250.816	0.54
251.032	-1.12
251.248	0.09
251.464	-0.53
251.68	-1.07
251.896	1.63
252.112	2.43
252.328	5.22
252.544	8.23
252.76	7.76
252.976	6.6
253.192	7
253.408	8.04
253.624	7.72
253.84	5.83
254.056	4.36
254.272	2.45
254.487	1.41
254.703	0.18
254.919	-0.74
255.135	-4.87
255.351	-2.14
255.567	-0.69
255.782	-4.01
255.998	-2.31
256.214	-1.49
256.43	1.33
256.646	0.47
256.861	-0.1
257.077	-3.69
257.293	-7.51
257.508	-4.05
257.724	-5.59
257.94	-8.45
258.155	-5.17
258.371	-3
258.587	-2.28
258.802	-0.83
259.018	1.51
259.234	2.38
259.449	4.8
259.665	4.73
259.88	4.22
260.096	4.29
260.312	5.67
260.527	5.48
260.743	5.31
260.958	5.61
261.174	4.61
261.389	3.41
261.605	3.01
261.82	2.22
262.036	3.14
262.251	3.88
262.466	3.97
262.682	1.95
262.897	1.48
263.113	-0.17
263.328	0.31
263.543	1.81
263.759	2.58
263.974	2.97
264.189	1.44
264.405	1.12
264.62	0.46
264.835	-0.92
265.051	0.25
265.266	0.12
265.481	1.11
265.696	-1.2
265.912	-1.82
266.127	-0.74
266.342	-0.04
266.557	-2.64
266.773	-2.45
266.988	-2.08
267.203	-2.35
267.418	-2.3
267.633	-2.1
267.848	-2.17
268.064	-0.95
268.279	-1.3
268.494	-1.95
268.709	-1.69
268.924	0.41
269.139	0.49
269.354	0.14
269.569	2.34
269.784	2.93
269.999	1.8
270.214	1
270.429	0.43
270.644	1.21
270.859	0.7
271.074	0.75
271.289	1.41
271.504	2.45
271.719	2.2
271.934	2.05
272.149	1.46
272.363	2.78
272.578	2.87
272.793	3.38
273.008	2.73
273.223	3.52
273.438	3.48
273.653	3.07
273.867	2.32
274.082	1.18
274.297	0.81
274.512	0.25
274.726	0.5
274.941	1.01
275.156	0.48
275.371	0.85
275.585	-0.52
275.8	-1.25
276.015	-1.37
276.229	-2.9
276.444	-1.12
276.659	-1.26
276.873	-1.79
277.088	-2.59
277.302	-3.18
277.517	-3.15
277.732	-4.84
277.946	-4.89
278.161	-5.71
278.375	-6.5
278.59	-3.39
278.804	-2.62
279.019	-3.01
279.233	0.43
279.448	0.61
279.662	1.08
279.877	1.14
280.091	4.54
280.306	5.45
280.52	7.28
280.735	7.39
280.949	6.84
281.163	7.87
281.378	7.72
281.592	7.25
281.806	7.61
282.021	8.09
282.235	7.76
282.449	5.81
282.664	5.32
282.878	5.32
283.092	6.73
283.307	7.1
283.521	6.46
283.735	6.97
283.949	6.55
284.164	6.54
284.378	6.9
284.592	6.99
284.806	7.07
285.02	7.45
285.234	7.26
285.449	6.42
285.663	5.98
285.877	5.75
286.091	5.21
286.305	3.86
286.519	2.94
286.733	2.2
286.947	3.06
287.161	2.68
287.375	2.11
287.589	1.16
287.803	1.45
288.017	0.56
288.231	0.15
288.445	1.07
288.659	1.96
288.873	2.32
289.087	2.26
289.301	1.55
289.515	2.78
289.729	2.85
289.943	3.55
290.157	2.07
290.371	1.29
290.584	1.99
290.798	1.74
291.012	1.67
291.226	2.13
291.44	1.53
291.654	1.45
291.867	0.78
292.081	0.28
292.295	-0.12
292.509	0.78
292.722	2.36
292.936	1.87
293.15	1.58
293.364	2.05
293.577	1.92
293.791	3.33
294.005	3.96
294.218	4.43
294.432	4.86
294.645	5.76
294.859	6.03
295.073	5.71
295.286	5.65
295.5	6.85
295.713	7.46
295.927	7.68
296.14	8.26
296.354	7.67
296.568	6.14
296.781	6.34
296.994	5.2
297.208	4.57
297.421	5.35
297.635	5.31
297.848	4.79
298.062	4.94
298.275	4.78
298.489	3.27
298.702	3.76
298.915	5.43
299.129	5.29
299.342	5.89
299.555	6.16
299.769	6.59
299.982	7.02
300.195	7.31
300.409	6.77
300.622	7.04
300.835	8.18
301.048	8.41
301.262	7.51
301.475	8.35
301.688	8.3
301.901	9.46
302.115	8.36
302.328	8.03
302.541	7.1
302.754	6.97
302.967	5.52
303.18	5.55
303.393	5.6
303.607	5.94
303.82	4.53
304.033	4.97
304.246	5.21
304.459	4.81
304.672	4.95
304.885	4.95
305.098	4.5
305.311	6.65
305.524	6.53
305.737	5.36
305.95	6.34
306.163	7.66
306.376	8.82
306.589	8
306.802	7.5
307.015	8.31
307.228	7.18
307.44	9.37
307.653	8.96
307.866	8.96
308.079	9.85
308.292	9.74
308.505	10.81
308.718	9.15
308.93	9.63
309.143	10.74
309.356	9.92
309.569	11.15
309.781	9.79
309.994	8.57
310.207	9.12
310.42	9.34
310.632	8.41
310.845	8.04
311.058	8.91
311.27	8.7
311.483	8.78
311.696	8.72
311.908	8.84
312.121	8.84
312.333	8.64
312.546	9.08
312.759	7.61
312.971	7.42
313.184	7.22
313.396	8.06
313.609	9.79
313.821	9.66
314.034	11.3
314.246	11.28
314.459	11.31
314.671	12.43
314.884	11.88
315.096	14.01
315.309	14.67
315.521	13.25
315.733	11.72
315.946	10.5
316.158	10.5
316.371	8.71
316.583	7.65
316.795	9.03
317.008	9.28
317.22	8.26
317.432	7.28
317.644	6.98
317.857	6.56
318.069	7.03
318.281	6.85
318.494	7.06
318.706	7.8
318.918	8.24
319.13	6.71
319.342	6.69
319.555	6.79
319.767	5.83
319.979	7.71
320.191	9.43
320.403	8.84
320.615	9.25
320.827	8.71
321.039	8.24
321.252	9.25
321.464	9.72
321.676	7.82
321.888	8.67
322.1	9.78
322.312	9
322.524	9.5
322.736	10.62
322.948	10.08
323.16	10.93
323.372	10.96
323.584	10.34
323.796	10.27
324.007	12.29
324.219	11.49
324.431	12.17
324.643	11.34
324.855	10.6
325.067	10.26
325.279	9.91
325.491	8.89
325.702	9.6
325.914	10.93
326.126	10.87
326.338	9.66
326.55	11.45
326.761	12.16
326.973	12.12
327.185	12.27
327.396	11.25
327.608	11
327.82	12.81
328.032	12.85
328.243	13.25
328.455	13.25
328.666	14.59
328.878	13.85
329.09	12.95
329.301	13.51
329.513	14.52
329.725	16.26
329.936	17.32
330.148	16.74
330.359	16.11
330.571	16.05
330.782	16.99
330.994	16.39
331.205	16.26
331.417	17.09
331.628	17.32
331.84	16.84
332.051	15.83
332.262	15.78
332.474	15.62
332.685	16.86
332.897	16.11
333.108	16.4
333.319	19.03
333.531	19.45
333.742	19.08
333.953	19.56
334.165	18.83
334.376	18.88
334.587	18.53
334.799	18.06
335.01	17.24
335.221	17.14
335.432	17.2
335.644	15.79
335.855	15.99
336.066	15.98
336.277	15.54
336.488	16.28
336.7	17.33
336.911	18.34
337.122	18.65
337.333	19.07
337.544	19.44
337.755	19.88
337.966	19.06
338.177	18.78
338.388	18.1
338.599	18.94
338.811	18.89
339.022	18.58
339.233	17.63
339.444	18.23
339.655	18.85
339.866	19.07
340.076	18.09
340.287	19.7
340.498	20.64
340.709	21.82
340.92	21.14
341.131	20.84
341.342	21.05
341.553	21.53
341.764	20.13
341.975	19.02
342.185	19.07
342.396	19.48
342.607	18.73
342.818	16.94
343.029	15.74
343.239	16.05
343.45	16.1
343.661	15.79
343.872	15.84
344.082	17.09
344.293	17.49
344.504	17.16
344.714	18.06
344.925	18.43
345.136	18.75
345.346	20.33
345.557	20.45
345.768	21.19
345.978	21.73
346.189	22.2
346.399	22.35
346.61	22.08
346.821	22.12
347.031	20.97
347.242	20.62
347.452	20.67
347.663	20.03
347.873	19.99
348.084	19.54
348.294	19.26
348.504	18.11
348.715	18.63
348.925	18.98
349.136	18.02
349.346	18.74
349.557	19.25
349.767	19.31
349.977	18.3
350.188	18.05
350.398	18.86
350.608	18.82
350.819	19.78
351.029	19.18
351.239	19.19
351.449	19.24
351.66	19.09
351.87	18.31
352.08	18.86
352.29	20
352.501	20.17
352.711	19.44
352.921	18.75
353.131	18.17
353.341	18.17
353.552	18.42
353.762	19.59
353.972	19.64
354.182	20.05
354.392	19.39
354.602	18.9
354.812	18.22
355.022	17.9
355.232	17.82
355.442	17.64
355.652	17.29
355.862	17.87
356.072	17.14
356.282	17.12
356.492	17.22
356.702	17.92
356.912	17.82
357.122	17.33
357.332	17.29
357.542	17.62
357.752	18.2
357.962	18.21
358.171	17.46
358.381	17.66
358.591	18.52
358.801	18.28
359.011	18.28
359.221	18.32
359.43	19.22
359.64	19.89
359.85	20.48
360.06	20.1
360.269	20.55
360.479	20.27
360.689	20.23
360.899	19.77
361.108	19.6
361.318	19.31
361.528	19.24
361.737	19.22
361.947	19.03
362.156	18.21
362.366	18.47
362.576	18.17
362.785	18.5
362.995	18.54
363.204	17.9
363.414	17.95
363.623	18.21
363.833	17.89
364.042	17.77
364.252	17.42
364.461	18.16
364.671	18.13
364.88	17.79
365.09	17.35
365.299	17.47
365.509	17.41
365.718	17.22
365.927	16.79
366.137	16.93
366.346	16.87
366.555	16.7
366.765	16.03
366.974	15.74
367.183	15.82
367.393	16.01
367.602	15.52
367.811	15.63
368.021	15.85
368.23	16.34
368.439	15.82
368.648	16.04
368.857	16.79
369.067	16.83
369.276	17.07
369.485	16.78
369.694	17.07
369.903	17.22
370.112	16.94
370.321	16.37
370.531	15.33
370.74	15.27
370.949	14.96
371.158	14.15
371.367	14.62
371.576	14.44
371.785	14.91
371.994	14.33
372.203	14.94
372.412	15.36
372.621	16.56
372.83	17.25
373.039	18.15
373.248	18.64
373.457	18.99
373.666	18.3
373.874	17.86
374.083	18.24
374.292	18.45
374.501	17.8
374.71	17.49
374.919	16.48
375.128	16.26
375.336	15.41
375.545	14.84
375.754	14.42
375.963	14.92
376.171	14.7
376.38	13.96
376.589	13.81
376.798	13.54
377.006	13.08
377.215	13.15
377.424	13.09
377.632	13.78
377.841	13.46
378.05	13.03
378.258	12.54
378.467	12.64
378.675	12.23
378.884	12.21
379.093	12.46
379.301	13.15
379.51	13.31
379.718	13.21
379.927	13.13
380.135	13.29
380.344	14.04
380.552	14.01
380.761	14.1
380.969	14.47
381.177	14.39
381.386	13.76
381.594	13.26
381.803	12.59
382.011	12.57
382.219	12.05
382.428	11.58
382.636	11.66
382.845	11.76
383.053	11.85
383.261	12.09
383.469	12.25
383.678	12.81
383.886	13.08
384.094	13.39
384.302	13.32
384.511	13.46
384.719	13.87
384.927	13.66
385.135	13.67
385.343	13.55
385.552	13.42
385.76	12.94
385.968	12.76
386.176	12.34
386.384	12.07
386.592	11.79
386.8	11.62
387.008	11.45
387.216	11.41
387.424	11.7
387.633	12
387.841	11.58
388.049	11.61
388.257	11.71
388.465	11.86
388.672	11.85
388.88	11.98
389.088	11.84
389.296	11.58
389.504	11.78
389.712	11.15
389.92	10.62
390.128	10.81
390.336	10.74
390.544	10.61
390.751	10.65
390.959	10.6
391.167	10.75
391.375	10.74
391.583	10.98
391.79	10.39
391.998	10.86
392.206	10.69
392.414	10.56
392.621	10.73
392.829	10.69
393.037	10.45
393.244	10.42
393.452	9.98
393.66	9.85
393.867	9.82
394.075	9.89
394.283	9.29
394.49	9.52
394.698	9.5
394.905	9.43
395.113	9.27
395.32	8.99
395.528	8.78
395.735	8.75
395.943	8.59
396.15	8.38
396.358	8.24
396.565	8.54
396.773	8.25
396.98	7.82
397.188	7.84
397.395	8.24
397.602	8.34
397.81	8.35
398.017	8.61
398.225	8.73
398.432	8.96
398.639	9.31
398.847	9.43
399.054	9.29
399.261	9.7
399.468	9.57
399.676	9.2
399.883	9.28
400.09	9.64
400.297	9.37
400.505	9.28
400.712	9.2
400.919	9.02
401.126	8.66
401.333	8.99
401.54	8.93
401.748	8.77
401.955	8.68
402.162	8.37
402.369	8.19
402.576	8.58
402.783	8.67
402.99	8.76
403.197	8.93
403.404	8.55
403.611	8.3
403.818	8.21
404.025	8.13
404.232	8.19
404.439	8.28
404.646	7.9
404.853	7.71
405.06	7.76
405.267	7.93
405.474	7.78
405.681	8.1
405.887	8.14
406.094	8.42
406.301	8.56
406.508	8.54
406.715	8.78
406.922	9.12
407.128	9.06
407.335	9.04
407.542	8.57
407.749	8.43
407.955	8.55
408.162	8.77
408.369	8.65
408.575	8.75
408.782	8.87
408.989	8.75
409.195	8.79
409.402	8.87
409.609	8.63
409.815	8.77
410.022	8.79
410.228	8.86
410.435	8.71
410.642	8.5
410.848	8.26
411.055	8.12
411.261	8.08
411.468	8.19
411.674	7.95
411.881	7.83
412.087	7.71
412.294	7.79
412.5	7.53
412.706	7.67
412.913	7.27
413.119	7.53
413.326	7.5
413.532	7.36
413.738	7.32
413.945	7.35
414.151	7.69
414.357	7.72
414.564	7.64
414.77	7.69
414.976	7.53
415.182	7.85
415.389	7.84
415.595	7.97
415.801	8.06
416.007	8.06
416.214	8.08
416.42	8.08
416.626	8.16
416.832	8.16
417.038	8.05
417.244	8.08
417.45	8.23
417.657	8.05
417.863	8.03
418.069	8.09
418.275	8.16
418.481	8.26
418.687	8.15
418.893	8.08
419.099	8.1
419.305	8.26
419.511	8.25
419.717	8.3
419.923	8.4
420.129	8.52
420.335	8.46
420.541	8.4
420.746	8.51
420.952	8.6
421.158	8.72
421.364	8.66
421.57	8.54
421.776	8.5
421.982	8.38
422.187	8.2
422.393	7.99
422.599	8.04
422.805	7.93
423.01	7.82
423.216	7.67
423.422	7.47
423.628	7.39
423.833	7.44
424.039	7.45
424.245	7.49
424.45	7.69
424.656	7.66
424.862	7.68
425.067	7.86
425.273	7.82
425.478	8.03
425.684	8.17
425.889	8.33
426.095	8.27
426.301	8.41
426.506	8.54
426.712	8.47
426.917	8.84
427.123	8.83
427.328	8.46
427.533	8.53
427.739	8.44
427.944	8.26
428.15	8.11
428.355	8.35
428.561	8.23
428.766	7.97
428.971	7.84
429.177	7.32
429.382	7.15
429.587	7.23
429.793	7.06
429.998	6.97
430.203	7.09
430.408	7.22
430.614	6.94
430.819	7.03
431.024	6.79
431.229	6.92
431.434	7.27
431.64	7.22
431.845	7.42
432.05	7.74
432.255	7.57
432.46	7.61
432.665	7.57
432.87	7.57
433.076	7.59
433.281	7.75
433.486	7.74
433.691	7.46
433.896	7.45
434.101	7.48
434.306	7.35
434.511	7.38
434.716	7.31
434.921	7.23
435.126	7.38
435.331	7.23
435.535	7.32
435.74	7.37
435.945	7.7
436.15	7.81
436.355	7.83
436.56	7.86
436.765	7.83
436.97	7.81
437.174	7.89
437.379	7.83
437.584	7.78
437.789	7.67
437.993	7.76
438.198	7.64
438.403	7.74
438.608	7.83
438.812	7.76
439.017	7.92
439.222	8.06
439.426	8.18
439.631	8.03
439.836	8.31
440.04	8.43
440.245	8.34
440.45	8.3
440.654	8.35
440.859	8.14
441.063	8.03
441.268	8
441.472	8.05
441.677	7.81
441.881	7.92
442.086	7.75
442.29	7.67
442.495	7.83
442.699	7.87
442.904	7.75
443.108	7.89
443.312	8.02
443.517	7.86
443.721	7.79
443.925	8.02
444.13	8.01
444.334	8.08
444.538	8.05
444.743	8
444.947	7.89
445.151	8.01
445.356	8.04
445.56	8.05
445.764	8.15
445.968	8.1
446.173	8.09
446.377	7.99
446.581	7.88
446.785	7.97
446.989	7.86
447.193	7.84
447.398	7.77
447.602	7.7
447.806	7.62
448.01	7.57
448.214	7.49
448.418	7.5
448.622	7.6
448.826	7.71
449.03	7.7
449.234	7.59
449.438	7.58
449.642	7.54
449.846	7.4
450.05	7.46
450.254	7.56
450.458	7.6
450.662	7.58
450.866	7.45
451.069	7.28
451.273	7.11
451.477	7.32
451.681	7.48
451.885	7.44
452.089	7.37
452.292	7.3
452.496	7.38
452.7	7.31
452.904	7.16
453.107	7
453.311	6.94
453.515	6.84
453.719	6.81
453.922	6.61
454.126	6.74
454.33	6.87
454.533	6.88
454.737	6.8
454.94	6.74
455.144	6.7
455.348	6.96
455.551	7.01
455.755	7.12
455.958	7.05
456.162	7.23
456.365	6.96
456.569	6.97
456.772	7.01
456.976	6.76
457.179	6.7
457.383	6.8
457.586	6.65
457.79	6.69
457.993	6.58
458.196	6.62
458.4	6.57
458.603	6.82
458.807	6.87
459.01	6.85
459.213	7.09
459.417	7.11
459.62	7.23
459.823	7.23
460.026	7.22
460.23	7.4
460.433	7.32
460.636	7.27
460.839	7.21
461.042	7.13
461.246	7.06
461.449	6.94
461.652	6.89
461.855	6.57
462.058	6.66
462.261	6.55
462.464	6.54
462.668	6.69
462.871	6.68
463.074	6.54
463.277	6.67
463.48	6.88
463.683	7
463.886	7.19
464.089	7.49
464.292	7.23
464.495	7.37
464.698	7.45
464.901	7.45
465.104	7.38
465.306	7.56
465.509	7.34
465.712	7.17
465.915	7.15
466.118	7.34
466.321	7.33
466.524	7.53
466.726	7.55
466.929	7.21
467.132	6.95
467.335	7.03
467.538	7.01
467.74	7.27
467.943	7.42
468.146	7.43
468.348	7.14
468.551	7.12
468.754	7.29
468.956	7.25
469.159	7.37
469.362	7.5
469.564	7.46
469.767	7.4
469.969	7.41
470.172	7.31
470.375	7.19
470.577	7.25
470.78	7.27
470.982	7.11
471.185	7.01
471.387	7.06
471.59	7.22
471.792	7.13
471.995	7.2
472.197	7.07
472.399	7.24
472.602	7.26
472.804	7.48
473.007	7.58
473.209	7.6
473.411	7.7
473.614	7.67
473.816	7.51
474.018	7.63
474.22	7.53
474.423	7.5
474.625	7.35
474.827	7.44
475.03	7.17
475.232	7.04
475.434	6.99
475.636	7.17
475.838	7.04
476.04	7.24
476.243	7.27
476.445	7.31
476.647	7.31
476.849	7.38
477.051	7.26
477.253	7.42
477.455	7.47
477.657	7.48
477.859	7.27
478.061	7.34
478.263	7.3
478.465	7.32
478.667	7.39
478.869	7.48
479.071	7.35
479.273	7.32
479.475	7.25
479.677	7.29
479.879	7.26
480.081	7.32
480.283	7.38
480.485	7.29
480.686	7.23
480.888	7.13
481.09	7
481.292	7.09
481.494	7.18
481.695	7.08
481.897	7.09
482.099	7.17
482.301	7.21
482.502	7.26
482.704	7.26
482.906	7.32
483.107	7.36
483.309	7.41
483.511	7.43
483.712	7.39
483.914	7.41
484.115	7.34
484.317	7.36
484.519	7.4
484.72	7.32
484.922	7.35
485.123	7.31
485.325	7.32
485.526	7.33
485.728	7.3
485.929	7.41
486.131	7.46
486.332	7.49
486.534	7.47
486.735	7.42
486.936	7.48
487.138	7.48
487.339	7.5
487.541	7.45
487.742	7.43
487.943	7.42
488.144	7.38
488.346	7.44
488.547	7.46
488.748	7.47
488.95	7.47
489.151	7.52
489.352	7.48
489.553	7.5
489.755	7.55
489.956	7.52
490.157	7.54
490.358	7.49
490.559	7.47
490.76	7.48
490.961	7.41
491.163	7.35
491.364	7.38
491.565	7.38
491.766	7.43
491.967	7.43
492.168	7.48
492.369	7.44
492.57	7.49
492.771	7.46
492.972	7.37
493.173	7.48
493.374	7.61
493.575	7.52
493.776	7.47
493.976	7.35
494.177	7.32
494.378	7.31
494.579	7.3
494.78	7.3
494.981	7.29
495.182	7.44
495.382	7.37
495.583	7.36
495.784	7.39
495.985	7.55
496.185	7.65
496.386	7.53
496.587	7.48
496.788	7.46
496.988	7.42
497.189	7.41
497.39	7.4
497.59	7.34
497.791	7.2
497.992	7.24
498.192	7.09
498.393	7.13
498.593	7.19
498.794	7.23
498.994	7.3
499.195	7.25
499.395	7.3
499.596	7.3
499.796	7.38
499.997	7.49
500.197	7.36
500.398	7.41
500.598	7.47
500.799	7.58
500.999	7.65
501.199	7.95
501.4	7.95
501.6	7.98
501.801	7.97
502.001	7.84
502.201	7.92
502.402	8.07
502.602	8.14
502.802	8.05
503.002	8.22
503.203	8.23
503.403	7.98
503.603	8.03
503.803	7.97
504.003	7.93
504.204	8.22
504.404	8.32
504.604	8.29
504.804	8.37
505.004	8.31
505.204	8.2
505.404	8.15
505.604	8.14
505.804	8.31
506.005	8.39
506.205	8.52
506.405	8.42
506.605	8.43
506.805	8.39
507.005	8.4
507.204	8.58
507.404	8.55
507.604	8.61
507.804	8.76
508.004	8.74
508.204	8.95
508.404	8.99
508.604	8.96
508.804	8.96
509.003	9.09
509.203	9.23
509.403	9.2
509.603	9.36
509.803	9.45
510.002	9.53
510.202	9.67
510.402	9.6
510.602	9.56
510.801	9.69
511.001	9.7
511.201	9.78
511.4	9.73
511.6	9.91
511.8	9.88
511.999	9.74
512.199	9.7
512.398	9.71
512.598	9.83
512.797	10.04
512.997	10
513.197	10.15
513.396	10.2
513.596	10.33
513.795	10.2
513.994	10.24
514.194	10.55
514.393	10.61
514.593	10.64
514.792	10.56
514.992	10.66
515.191	10.79
515.39	10.72
515.59	10.91
515.789	10.87
515.988	11.03
516.188	11.17
516.387	11.21
516.586	11.31
516.786	11.26
516.985	11.38
517.184	11.25
517.383	11.23
517.582	11.38
517.782	11.38
517.981	11.49
518.18	11.56
518.379	11.56
518.578	11.47
518.777	11.51
518.976	11.63
519.176	11.67
519.375	11.74
519.574	11.87
519.773	11.88
519.972	11.81
520.171	11.86
520.37	11.83
520.569	11.91
520.768	12
520.967	12.04
521.166	12.07
521.365	12.07
521.564	11.97
521.762	11.98
521.961	11.94
522.16	12.07
522.359	12.1
522.558	12.33
522.757	12.57
522.956	12.66
523.154	12.8
523.353	12.81
523.552	12.88
523.751	13.25
523.949	13.41
524.148	13.66
524.347	13.83
524.546	13.93
524.744	13.96
524.943	13.94
525.142	13.96
525.34	13.99
525.539	14.08
525.737	14.17
525.936	14.18
526.135	14.1
526.333	14.02
526.532	14.02
526.73	14.07
526.929	14.11
527.127	14.14
527.326	14.31
527.524	14.28
527.723	14.36
527.921	14.34
528.12	14.39
528.318	14.4
528.516	14.5
528.715	14.53
528.913	14.62
529.112	14.6
529.31	14.62
529.508	14.58
529.707	14.66
529.905	14.65
530.103	14.7
530.301	14.62
530.5	14.73
530.698	14.81
530.896	14.87
531.094	14.83
531.293	15
531.491	14.93
531.689	15.06
531.887	15.12
532.085	15.27
532.283	15.33
532.481	15.48
532.68	15.58
532.878	15.54
533.076	15.59
533.274	15.67
533.472	15.62
533.67	15.65
533.868	15.7
534.066	15.82
534.264	15.8
534.462	15.83
534.66	15.92
534.858	15.92
535.056	15.91
535.253	15.93
535.451	15.92
535.649	16.09
535.847	16.3
536.045	16.29
536.243	16.27
536.441	16.52
536.638	16.55
536.836	16.62
537.034	16.76
537.232	16.86
537.43	16.94
537.627	17.07
537.825	17.05
538.023	17.12
538.22	17.29
538.418	17.29
538.616	17.16
538.813	17.31
539.011	17.28
539.209	17.14
539.406	17.2
539.604	17.27
539.801	17.21
539.999	17.34
540.196	17.41
540.394	17.44
540.591	17.61
540.789	17.64
540.986	17.67
541.184	17.79
541.381	17.95
541.579	18.01
541.776	18.08
541.974	18.18
542.171	18.21
542.368	18.26
542.566	18.24
542.763	18.18
542.96	18.24
543.158	18.34
543.355	18.37
543.552	18.4
543.75	18.41
543.947	18.43
544.144	18.53
544.341	18.65
544.539	18.65
544.736	18.84
544.933	18.88
545.13	19.07
545.327	19.09
545.524	19.06
545.722	19.08
545.919	19.23
546.116	19.37
546.313	19.23
546.51	19.2
546.707	19.29
546.904	19.31
547.101	19.55
547.298	19.56
547.495	19.72
547.692	19.88
547.889	19.92
548.086	19.97
548.283	19.97
548.48	20.22
548.677	20.17
548.874	20.06
549.07	20
549.267	20.01
549.464	19.92
549.661	19.89
549.858	19.97
550.055	20.09
550.251	19.99
550.448	20.14
550.645	20.18
550.842	20.41
551.038	20.73
551.235	20.82
551.432	20.66
551.628	20.89
551.825	20.87
552.022	21.02
552.218	21.21
552.415	21.5
552.612	21.35
552.808	21.32
553.005	21.33
553.201	21.45
553.398	21.72
553.594	22
553.791	21.98
553.987	22.21
554.184	22.2
554.38	22.06
554.577	22.05
554.773	22.19
554.97	22.33
555.166	22.33
555.362	22.3
555.559	22.28
555.755	22.32
555.952	22.43
556.148	22.36
556.344	22.42
556.541	22.78
556.737	22.72
556.933	22.59
557.129	22.69
557.326	22.78
557.522	22.78
557.718	22.8
557.914	23.01
558.11	22.99
558.307	23.16
558.503	23.18
558.699	23.15
558.895	23.38
559.091	23.54
559.287	23.62
559.483	23.62
559.679	23.7
559.876	23.84
560.072	23.61
560.268	23.6
560.464	23.56
560.66	23.72
560.856	23.58
561.052	23.66
561.247	24.12
561.443	24.15
561.639	24.53
561.835	24.51
562.031	24.39
562.227	24.63
562.423	24.86
562.619	25.06
562.815	25.01
563.01	25.09
563.206	25.06
563.402	25.03
563.598	25
563.793	24.77
563.989	24.74
564.185	24.82
564.381	24.82
564.576	24.92
564.772	24.97
564.968	24.94
565.163	25.14
565.359	25.23
565.555	25.02
565.75	25
565.946	25.14
566.141	25.43
566.337	25.63
566.532	25.68
566.728	25.67
566.923	25.73
567.119	25.79
567.314	25.77
567.51	25.9
567.705	26.05
567.901	26.1
568.096	26.3
568.292	26.2
568.487	26.24
568.682	26.5
568.878	26.67
569.073	26.7
569.268	26.67
569.464	26.73
569.659	26.54
569.854	26.54
570.05	26.69
570.245	26.56
570.44	26.77
570.635	26.7
570.831	26.6
571.026	26.69
571.221	26.54
571.416	26.85
571.611	27.15
571.806	27.22
572.002	27.27
572.197	27.32
572.392	27.64
572.587	27.63
572.782	27.63
572.977	27.67
573.172	27.51
573.367	27.83
573.562	27.76
573.757	27.54
573.952	27.67
574.147	27.72
574.342	27.84
574.537	27.57
574.732	27.62
574.927	27.65
575.121	27.45
575.316	27.61
575.511	27.47
575.706	27.52
575.901	27.49
576.096	27.39
576.29	27.54
576.485	27.69
576.68	27.79
576.875	27.59
577.069	27.56
577.264	27.78
577.459	27.55
577.654	27.81
577.848	27.67
578.043	27.73
578.238	27.96
578.432	27.78
578.627	27.75
578.821	27.84
579.016	28.26
579.21	28.4
579.405	28.46
579.6	28.61
579.794	28.4
579.989	28.28
580.183	28.17
580.378	28.2
580.572	28.36
580.766	28.58
580.961	28.47
581.155	28.47
581.35	28.44
581.544	28.23
581.738	28.54
581.933	28.46
582.127	28.88
582.321	29.39
582.516	29.39
582.71	29.37
582.904	29.16
583.099	29.33
583.293	29.15
583.487	29.33
583.681	29.56
583.875	29.13
584.07	29.26
584.264	29.33
584.458	29.28
584.652	29.56
584.846	29.57
585.04	29.4
585.234	29.07
585.428	29.22
585.623	29.23
585.817	29.45
586.011	29.68
586.205	29.75
586.399	29.68
586.593	29.36
586.787	29.2
586.981	29.52
587.174	29.67
587.368	29.98
587.562	29.91
587.756	30.07
587.95	30.08
588.144	30.34
588.338	30.28
588.532	30.58
588.725	30.92
588.919	30.81
589.113	30.68
589.307	30.83
589.501	30.9
589.694	30.89
589.888	30.78
590.082	30.64
590.275	30.74
590.469	30.77
590.663	30.65
590.856	30.42
591.05	30.59
591.244	30.53
591.437	30.38
591.631	30.62
591.824	30.72
592.018	30.96
592.212	31.08
592.405	30.99
592.599	30.92
592.792	30.81
592.986	30.91
593.179	30.94
593.372	31.2
593.566	31.39
593.759	31.27
593.953	31.35
594.146	31.4
594.339	31.42
594.533	31.45
594.726	31.77
594.92	31.91
595.113	31.85
595.306	31.69
595.499	31.75
595.693	31.72
595.886	31.74
596.079	31.73
596.272	31.66
596.466	31.81
596.659	31.79
596.852	31.54
597.045	31.48
597.238	31.73
597.431	31.82
597.624	31.9
597.818	32.14
598.011	32.03
598.204	32.04
598.397	32.03
598.59	31.75
598.783	31.9
598.976	32.09
599.169	32.18
599.362	32.03
599.555	31.92
599.748	31.63
599.941	31.32
600.134	31.61
600.326	31.82
600.519	31.98
600.712	32.23
600.905	32.1
601.098	32.17
601.291	31.98
601.483	32.26
601.676	32.49
601.869	32.66
602.062	32.88
602.255	32.67
602.447	32.6
602.64	32.5
602.833	32.58
603.025	32.66
603.218	32.76
603.411	33.1
603.603	33.14
603.796	33.24
603.989	33.18
604.181	33
604.374	33.1
604.566	33.13
604.759	33.16
604.951	33.19
605.144	33.27
605.336	33.03
605.529	33.02
605.721	32.88
605.914	32.79
606.106	32.84
606.299	33
606.491	33.07
606.683	33.13
606.876	33.06
607.068	33
607.26	32.97
607.453	33.2
607.645	33
607.837	33.06
608.03	33.3
608.222	33.43
608.414	33.32
608.606	33.4
608.799	33.52
608.991	33.73
609.183	33.89
609.375	33.99
609.567	34.1
609.759	34.49
609.952	34.62
610.144	34.59
610.336	34.45
610.528	34.51
610.72	34.34
610.912	34.27
611.104	34.28
611.296	34.17
611.488	34.09
611.68	33.91
611.872	33.7
612.064	33.56
612.256	33.43
612.448	33.63
612.64	33.89
612.832	34.2
613.023	34.28
613.215	34.13
613.407	34.06
613.599	33.82
613.791	34.01
613.983	33.93
614.174	33.83
614.366	33.92
614.558	33.89
614.75	33.56
614.941	33.38
615.133	33.26
615.325	33.3
615.516	33.59
615.708	33.82
615.9	33.8
616.091	33.7
616.283	33.9
616.475	33.65
616.666	33.58
616.858	33.34
617.049	33.86
617.241	33.71
617.432	33.76
617.624	33.57
617.815	33.41
618.007	33.18
618.198	33.41
618.39	33.35
618.581	33.37
618.773	33.43
618.964	33.77
619.155	33.43
619.347	33.6
619.538	33.55
619.729	33.63
619.921	33.76
620.112	34.06
620.303	33.89
620.494	33.9
620.686	34.12
620.877	33.95
621.068	33.91
621.259	33.92
621.451	34.12
621.642	34.33
621.833	34.48
622.024	34.56
622.215	34.84
622.406	35.04
622.597	35.03
622.788	34.96
622.98	34.91
623.171	35.1
623.362	35.09
623.553	34.85
623.744	34.61
623.935	34.5
624.126	34.65
624.317	34.35
624.508	34.14
624.698	34.15
624.889	34.26
625.08	34.48
625.271	34.55
625.462	34.48
625.653	34.61
625.844	34.61
626.034	34.65
626.225	34.38
626.416	34.42
626.607	34.63
626.798	34.86
626.988	34.71
627.179	34.7
627.37	34.59
627.56	34.55
627.751	34.53
627.942	34.63
628.132	34.78
628.323	34.82
628.514	35.06
628.704	34.77
628.895	34.67
629.085	35.03
629.276	34.83
629.466	34.94
629.657	34.71
629.847	34.76
630.038	34.78
630.228	34.54
630.419	34.52
630.609	34.17
630.8	34.27
630.99	34.21
631.181	34.4
631.371	34.78
631.561	34.33
631.752	34.52
631.942	34.23
632.132	34.22
632.323	34.58
632.513	34.67
632.703	34.6
632.893	34.62
633.084	34.62
633.274	34.4
633.464	34.21
633.654	34.37
633.844	34.65
634.034	34.61
634.225	34.8
634.415	34.29
634.605	34.67
634.795	34.92
634.985	35.15
635.175	34.98
635.365	34.55
635.555	34.14
635.745	34.31
635.935	34.09
636.125	34.31
636.315	34.01
636.505	34.24
636.695	33.89
636.885	33.83
637.075	33.53
637.265	33.89
637.455	34.21
637.644	34.61
637.834	34.36
638.024	34.39
638.214	34.1
638.404	34.44
638.593	34.61
638.783	34.84
638.973	34.69
639.163	34.8
639.352	34.6
639.542	34.92
639.732	34.9
639.921	35.4
640.111	35.75
640.301	35.93
640.49	36.08
640.68	35.98
640.87	35.87
641.059	36.17
641.249	36.35
641.438	36.61
641.628	36.51
641.817	36.63
642.007	36.25
642.196	36
642.386	36.07
642.575	35.48
642.764	35.49
642.954	35.33
643.143	34.91
643.333	35.26
643.522	34.86
643.711	34.73
643.901	34.59
644.09	34.75
644.279	34.78
644.469	35.03
644.658	35.42
644.847	35.29
645.036	35.63
645.226	35.98
645.415	35.68
645.604	35.82
645.793	35.97
645.982	36.08
646.171	35.69
646.361	35.59
646.55	35.74
646.739	35.51
646.928	35.91
647.117	35.98
647.306	35.74
647.495	35.76
647.684	35.53
647.873	35.45
648.062	35.34
648.251	35.85
648.44	35.53
648.629	34.98
648.818	35.07
649.007	34.6
649.196	34.18
649.384	34.54
649.573	34.56
649.762	34.8
649.951	34.71
650.14	34.43
650.328	34.49
650.517	34.7
650.706	34.96
650.895	35.12
651.083	34.7
651.272	34.91
651.461	34.68
651.65	34.82
651.838	34.75
652.027	34.84
652.216	35.14
652.404	34.91
652.593	35.21
652.781	35.28
652.97	34.97
653.158	35.58
653.347	35.49
653.535	35.29
653.724	34.69
653.912	34.5
654.101	34.38
654.289	34.57
654.478	34.56
654.666	34.18
654.855	34.39
655.043	34.52
655.231	34.62
655.42	34.74
655.608	34.66
655.796	34.57
655.985	35.17
656.173	35.28
656.361	35.09
656.55	35.3
656.738	35.35
656.926	35.56
657.114	35.73
657.302	35.82
657.491	35.9
657.679	35.95
657.867	36.46
658.055	36.26
658.243	36.24
658.431	36.1
658.619	35.74
658.807	35.83
658.996	35.08
659.184	34.88
659.372	34.64
659.56	34.54
659.748	34.97
659.936	34.89
660.124	34.82
660.311	34.97
660.499	35.09
660.687	35.46
660.875	35.59
661.063	35.93
661.251	36.02
661.439	36.07
661.627	36.1
661.814	35.93
662.002	35.79
662.19	36.02
662.378	36.09
662.565	36.19
662.753	35.88
662.941	35.82
663.129	36.32
663.316	35.8
663.504	36.3
663.692	35.97
663.879	36.18
664.067	36.46
664.254	36.43
664.442	35.87
664.63	35.49
664.817	35.26
665.005	35.17
665.192	34.51
665.38	34.91
665.567	34.79
665.755	34.86
665.942	34.73
666.13	34.59
666.317	34.28
666.504	34.68
666.692	35.49
666.879	35.72
667.067	35.9
667.254	36.38
667.441	36.46
667.629	36.32
667.816	36.29
668.003	35.81
668.19	35.62
668.378	36.26
668.565	36.49
668.752	36.12
668.939	36.35
669.127	36.45
669.314	36.35
669.501	36.42
669.688	36.05
669.875	36.06
670.062	36.43
670.249	36.35
670.436	35.94
670.623	35.49
670.81	35.51
670.997	35.8
671.184	35.56
671.371	35.34
671.558	35.39
671.745	35.78
671.932	35.82
672.119	35.66
672.306	36.13
672.493	35.78
672.68	35.61
672.867	35.28
673.054	34.7
673.24	34.3
673.427	34.39
673.614	33.4
673.801	33.26
673.988	32.88
674.174	33.03
674.361	33.04
674.548	33.34
674.734	33.27
674.921	33.45
675.108	33.53
675.294	33.85
675.481	33.8
675.668	35
675.854	34.38
676.041	34.83
676.227	34.63
676.414	34.61
676.601	34.68
676.787	35.14
676.974	35.38
677.16	35.44
677.347	35.44
677.533	35.22
677.719	35.83
677.906	36.41
678.092	36.73
678.279	37.12
678.465	37
678.651	37.4
678.838	36.91
679.024	37.25
679.21	37.59
679.397	37.64
679.583	37.68
679.769	37.31
679.955	37.36
680.142	37.03
680.328	36.73
680.514	36.26
680.7	36.13
680.886	36.45
681.073	36.18
681.259	35.75
681.445	35.73
681.631	35.95
681.817	35.46
682.003	35.4
682.189	35.44
682.375	35.73
682.561	36.25
682.747	35.89
682.933	35.61
683.119	35.29
683.305	35.14
683.491	35.16
683.677	35.24
683.863	35.92
684.049	36.04
684.235	36.06
684.42	36.13
684.606	36.05
684.792	35.77
684.978	36.04
685.164	36.44
685.349	37.07
685.535	37.26
685.721	37.04
685.907	36.59
686.092	36.42
686.278	36.31
686.464	36.21
686.649	36.18
686.835	36
687.021	36.2
687.206	35.56
687.392	35.65
687.577	35.77
687.763	35.63
687.948	35.47
688.134	35.45
688.319	35.75
688.505	35.46
688.69	35.9
688.876	36.78
689.061	36.91
689.247	37.83
689.432	37.29
689.618	36.95
689.803	36.91
689.988	37.09
690.174	37.48
690.359	37.47
690.544	37.83
690.73	37.59
690.915	36.8
691.1	36.21
691.285	35.84
691.471	35.89
691.656	36.36
691.841	36.95
692.026	37.14
692.211	36.9
692.396	36.55
692.582	36.64
692.767	36.74
692.952	37.35
693.137	37.71
693.322	37.59
693.507	37.68
693.692	37.03
693.877	36.71
694.062	36.41
694.247	36.46
694.432	37.49
694.617	37.17
694.802	37.07
694.987	36.72
695.172	37.14
695.357	37.12
695.541	36.58
695.726	36.49
695.911	36.24
696.096	36.92
696.281	37.19
696.466	36.2
696.65	36.16
696.835	36.39
697.02	36.19
697.204	35.86
697.389	36.25
697.574	36.78
697.759	37.2
697.943	37.3
698.128	37
698.312	36.72
698.497	37.12
698.682	36.96
698.866	36.78
699.051	36.62
699.235	36.96
699.42	36.98
699.604	36.79
699.789	36.5
699.973	36.23
700.158	36.36
700.342	36.43
700.527	36.22
700.711	36.53
700.895	36.5
701.08	36.9
701.264	36.69
701.448	36.39
701.633	36.84
701.817	37.33
702.001	38.11
702.186	38.01
702.37	37.61
702.554	37.79
702.738	37.8
702.923	37.76
703.107	37.77
703.291	37.51
703.475	37.72
703.659	37.56
703.843	37.95
704.027	37.85
704.212	37.75
704.396	38.3
704.58	37.54
704.764	37.33
704.948	37.57
705.132	37.75
705.316	37.45
705.5	36.64
705.684	36.35
705.868	35.97
706.052	35.82
706.235	35.63
706.419	36.1
706.603	36.79
706.787	37.22
706.971	36.99
707.155	36.74
707.339	37.19
707.522	38.2
707.706	37.85
707.89	37.38
708.074	36.98
708.257	36.82
708.441	36.35
708.625	35.98
708.808	35.94
708.992	36.61
709.176	37
709.359	37.12
709.543	36.32
709.727	36.22
709.91	36.17
710.094	36.93
710.277	37.55
710.461	37.94
710.644	37.83
710.828	36.82
711.011	36.65
711.195	36.94
711.378	37.01
711.562	37.16
711.745	37.49
711.928	37.61
712.112	37.94
712.295	38.13
712.478	37.37
712.662	37.94
712.845	38.85
713.028	38.45
713.212	37.42
713.395	36.95
713.578	37.25
713.761	37.33
713.945	37.4
714.128	36.82
714.311	36.09
714.494	36.88
714.677	36.55
714.86	36.02
715.043	35.77
715.227	36.32
715.41	36.58
715.593	36.27
715.776	36.42
715.959	36.21
716.142	35.84
716.325	35.59
716.508	35.63
716.691	35.93
716.874	36.13
717.057	36.12
717.239	36.03
717.422	36.16
717.605	35.85
717.788	35.84
717.971	36.05
718.154	36.42
718.337	36.44
718.519	35.87
718.702	35.37
718.885	35.04
719.068	34.72
719.25	34.3
719.433	33.92
719.616	34.31
719.798	33.51
719.981	33.88
720.164	33.77
720.346	33.63
720.529	32.64
720.712	33.09
720.894	33.93
721.077	34.44
721.259	34.52
721.442	34.26
721.624	33.77
721.807	35.2
721.989	34.19
722.172	34.37
722.354	34.5
722.537	35.33
722.719	35.35
722.901	35.31
723.084	35.41
723.266	35.61
723.448	36.04
723.631	36.8
723.813	35.82
723.995	36.56
724.178	35.87
724.36	35.84
724.542	35.67
724.724	34.88
724.907	34.46
725.089	33.77
725.271	34.26
725.453	34.29
725.635	34.78
725.817	34.58
725.999	33.81
726.181	34.24
726.364	34.73
726.546	35.03
726.728	35.27
726.91	35.35
727.092	36.54
727.274	36.14
727.456	36.4
727.638	35.49
727.819	36.69
728.001	37.35
728.183	37.4
728.365	36.58
728.547	36.66
728.729	37.24
728.911	37.26
729.093	36.81
729.274	36.86
729.456	37.14
729.638	37.65
729.82	37.07
730.001	36.24
730.183	35.94
730.365	36.74
730.546	37
730.728	36.41
730.91	36.83
731.091	36.57
731.273	36.74
731.455	35.78
731.636	35.37
731.818	35.46
731.999	35.46
732.181	36.89
732.362	36.5
732.544	36.56
732.725	37.53
732.907	36.99
733.088	37.34
733.27	36.8
733.451	37.1
733.633	36.27
733.814	36.87
733.995	37.73
734.177	36.38
734.358	37.04
734.539	35.9
734.721	35.67
734.902	35.69
735.083	35.52
735.264	36.31
735.446	36.46
735.627	37.41
735.808	36.76
735.989	36.92
736.17	36.48
736.351	35.99
736.533	36.95
736.714	36.63
736.895	37.18
737.076	37.18
737.257	36.76
737.438	36.29
737.619	35.35
737.8	35.31
737.981	35.2
738.162	35.47
738.343	35.39
738.524	34.78
738.705	33.73
738.886	33.68
739.067	32.77
739.247	32.99
739.428	32.79
739.609	33.45
739.79	33.17
739.971	33.39
740.151	33.55
740.332	33.5
740.513	34.64
740.694	35.36
740.874	34.92
741.055	35.22
741.236	35.1
741.417	35.8
741.597	37.2
741.778	37.36
741.958	37.19
742.139	36.46
742.32	36.68
742.5	36.05
742.681	35.17
742.861	34.98
743.042	36.38
743.222	35.92
743.403	35.71
743.583	35.19
743.764	35.47
743.944	35.08
744.124	35.85
744.305	35.94
744.485	35.78
744.666	35.5
744.846	35.25
745.026	34.89
745.207	36.98
745.387	37.42
745.567	36.74
745.747	34.86
745.928	35.26
746.108	34.65
746.288	34.31
746.468	34.34
746.648	35.08
746.829	35.37
747.009	34.35
747.189	32.38
747.369	32.5
747.549	32.52
747.729	33.95
747.909	33.5
748.089	34.47
748.269	35.45
748.449	34.78
748.629	35.49
748.809	36.66
748.989	35.86
749.169	36.94
749.349	35.02
749.529	35.01
749.709	35.15
749.889	35.2
750.068	34.57
750.248	33.85
750.428	35.25
750.608	34.82
750.788	33.96
750.967	35.41
751.147	34.32
751.327	35.32
751.507	36.35
751.686	36.12
751.866	36.49
752.046	37.05
752.225	38.9
752.405	37.59
752.585	38.52
752.764	38.56
752.944	37.67
753.123	37.88
753.303	37.89
753.482	36.95
753.662	37.36
753.841	36.88
754.021	36.42
754.2	35.58
754.38	34.92
754.559	33.53
754.739	32.76
754.918	32.84
755.097	32.94
755.277	32.77
755.456	33.77
755.635	33.03
755.815	34.11
755.994	34.47
756.173	33.56
756.352	34.69
756.532	36.23
756.711	36.7
756.89	37.22
757.069	38.01
757.248	38.87
757.427	38.33
757.607	38.91
757.786	38.42
757.965	38.78
758.144	38.54
758.323	37.89
758.502	36.37
758.681	36.35
758.86	36.41
759.039	35.85
759.218	36.53
759.397	37.06
759.576	37.17
759.755	37.4
759.934	37.62
760.113	37
760.291	37.67
760.47	39.05
760.649	39.34
760.828	39.42
761.007	39.64
761.186	38.16
761.364	37.67
761.543	37.98
761.722	37.16
761.901	36.7
762.079	37.58
762.258	37.3
762.437	37.3
762.615	37.08
762.794	36.93
762.972	37.52
763.151	37.68
763.33	37.98
763.508	37.12
763.687	37.98
763.865	37.8
764.044	37.45
764.222	37.49
764.401	36.91
764.579	37.14
764.758	37.52
764.936	36.28
765.114	36.59
765.293	36.19
765.471	36.67
765.65	35.7
765.828	35.61
766.006	35.54
766.184	35.53
766.363	36.48
766.541	36.63
766.719	35.81
766.898	36.27
767.076	37.12
767.254	37.27
767.432	36.76
767.61	36.95
767.788	36.44
767.967	35.81
768.145	35.48
768.323	35.07
768.501	35.44
768.679	35.78
768.857	35.7
769.035	34.37
769.213	33.1
769.391	33.85
769.569	35.16
769.747	34.43
769.925	35.39
770.103	34.52
770.281	33.86
770.459	32.42
770.636	32.12
770.814	32.33
770.992	29.85
771.17	31.6
771.348	31.11
771.525	30.06
771.703	31.46
771.881	31.85
772.059	33.66
772.236	33.87
772.414	33.15
772.592	31.82
772.769	29.34
772.947	32.13
773.125	30.27
773.302	30.66
773.48	30.01
773.657	30.04
773.835	30.86
774.013	30.97
774.19	30.37
774.368	31.16
774.545	31.6
774.723	35.63
774.9	34.4
775.077	35.4
775.255	33.98
775.432	32.9
775.61	35.67
775.787	34.65
775.964	33.74
776.142	34.08
776.319	35.39
776.496	37.74
776.674	38.64
776.851	38.77
777.028	39.77
777.205	39.7
777.382	40.81
777.56	39.7
777.737	38.76
777.914	39.46
778.091	38.95
778.268	37.92
778.445	36.94
778.622	33.83
778.8	34.62
778.977	34.33
779.154	54.32
779.331	52.71
779.508	50.29
779.685	51.06
779.862	51.36
780.038	52.52
780.215	51.26
780.392	51.48
780.569	51.42
780.746	51.72
780.923	50.13
781.1	28.56
781.277	31.78
781.453	33.53
781.63	32.56
781.807	30.7
781.984	29.68
782.16	32.81
782.337	33.29
782.514	34.44
782.691	35.49
782.867	36.63
783.044	39.41
783.221	40.02
783.397	38.1
783.574	38.57
783.75	39.25
783.927	39.59
784.103	38.35
784.28	38.2
784.456	39.18
784.633	39.01
784.809	39.37
784.986	35.61
785.162	33.84
785.339	35.64
785.515	34.37
785.692	36.27
785.868	36.59
786.044	35.97
786.221	34.69
786.397	33.78
786.573	31.56
786.749	32.33
786.926	35.09
787.102	34.38
787.278	34.16
787.454	37.24
787.631	36.53
787.807	38.07
787.983	39.49
788.159	39.09
788.335	38.37
788.511	41.63
788.687	41.36
788.863	41.81
789.039	42.94
789.216	42.71
789.392	41.57
789.568	40.16
789.744	38.93
789.919	37.08
790.095	39.94
790.271	40.5
790.447	39.72
790.623	39.36
790.799	39.35
790.975	38.63
791.151	38.59
791.327	40.18
791.502	43.69
791.678	44.79
791.854	41.38
792.03	37.44
792.205	37.34
792.381	38.26
792.557	37.27
792.733	37.53
792.908	40.7
793.084	39.85
793.259	35.72
793.435	31.97
793.611	29.19
793.786	32.3
793.962	34.17
794.137	34.68
794.313	32.03
794.488	31.37
794.664	28.86
794.839	27.48
795.015	27.07
795.19	29.63
795.366	31.12
795.541	33.32
795.716	34.35
795.892	35.52
796.067	35.27
796.242	35.19
796.418	34.84
796.593	35.02
796.768	33.83
796.944	34.73
797.119	33.76
797.294	33.68
797.469	33.86
797.644	34.39
797.82	34.56
797.995	33.76
798.17	33.89
798.345	35.57
798.52	36.46
798.695	35.95
798.87	36.21
799.045	39.39
799.22	38.63
799.395	37.99
799.57	36.39
799.745	32.23
799.92	32.79
800.095	32.87
800.27	32.81
800.445	31.92
800.62	30.99
800.795	30.06
800.97	28.56
801.145	24.53
801.319	23.97
801.494	22.52
801.669	25.35
801.844	27.33
802.018	24.89
802.193	25.49
802.368	26.32
802.543	27.88
802.717	26.64
802.892	25.12
803.067	31.46
803.241	33.64
803.416	35.52
803.59	33.72
803.765	29.97
803.94	31.16
804.114	29.95
804.289	27.57
804.463	26.86
804.638	28.91
804.812	30.12
804.986	25.83
805.161	25.23
805.335	24.17
805.51	27.22
805.684	26.91
805.858	27.32
806.033	26.17
806.207	28.16
806.381	25.14
806.556	22.31
806.73	19.96
806.904	21.2
807.078	20.82
807.253	22.44
807.427	19.27
807.601	21.63
807.775	21.24
807.949	22.61
808.123	22.45
808.298	25.36
808.472	29.34
808.646	31.58
808.82	29.53
808.994	28.31
809.168	28.73
809.342	31.29
809.516	27.96
809.69	28.09
809.864	29.41
810.038	27.07
810.212	33.03
810.385	31.41
810.559	31.89
810.733	35.37
810.907	30.81
811.081	29.62
811.255	25.8
811.428	27.08
811.602	30.58
811.776	30.66
811.95	30.01
812.123	25.34
812.297	22.72
812.471	21.76
812.644	22.16
812.818	25.74
812.992	26.4
813.165	33.93
813.339	37.83
813.512	36.19
813.686	37.5
813.86	40.31
814.033	38.64
814.207	43.21
814.38	44.21
814.554	40.64
814.727	38.1
814.9	39.74
815.074	35.83
815.247	33.67
815.421	34.66
815.594	30.95
815.767	31.48
815.941	31.01
816.114	27.32
816.287	25.09
816.46	24.92
816.634	25.34
816.807	25.25
816.98	25.58
817.153	27.62
817.327	26.38
817.5	27.38
817.673	28.96
817.846	31.51
818.019	33.96
818.192	32.55
818.365	37.28
818.538	41.56
818.711	40.91
818.884	41.47
819.057	37.98
819.23	38.07
819.403	38.91
819.576	38.11
819.749	35.77
819.922	35.07
820.095	34.37
820.268	28.99
820.441	29.4
820.614	31.71
820.786	32.65
820.959	35.55
821.132	35.68
821.305	33.76
821.477	34.25
821.65	34.96
821.823	35.17
821.996	36.41
822.168	37.19
822.341	37.87
822.514	37.59
822.686	37.02
822.859	36.49
823.031	36.61
823.204	37.5
823.376	37.43
823.549	37.99
823.722	37.87
823.894	37.82
824.067	38.08
824.239	37.31
824.411	37.09
824.584	37.29
824.756	38.06
824.929	38.23
825.101	38.1
825.273	38.49
825.446	38.02
825.618	38.38
825.79	38.78
825.963	38.86
826.135	39.46
826.307	39.78
826.479	40.17
826.652	39.22
826.824	38.67
826.996	38.53
827.168	37.61
827.34	37.1
827.512	37.74
827.684	37.53
827.856	38.34
828.029	38.47
828.201	38.27
828.373	35.91
828.545	35.94
828.717	36.16
828.889	36.55
829.061	37.14
829.232	37.35
829.404	35.37
829.576	34.17
829.748	33.45
829.92	32.37
830.092	32.29
830.264	34.45
830.436	34.7
830.607	33.66
830.779	32.76
830.951	32.8
831.123	32.49
831.294	36.07
831.466	35.96
831.638	35.61
831.809	36.15
831.981	34.37
832.153	36.52
832.324	36.17
832.496	39.03
832.667	39.31
832.839	38.15
833.011	41.38
833.182	36.66
833.354	41.55
833.525	42.09
833.697	41.96
833.868	41.21
834.039	40.98
834.211	41.99
834.382	40.7
834.554	39.91
834.725	40.29
834.896	37.47
835.068	39.58
835.239	36.37
835.41	36.87
835.581	36.5
835.753	36.24
835.924	37.05
836.095	35.09
836.266	34.87
836.438	36.65
836.609	37.26
836.78	38.86
836.951	35.31
837.122	36.02
837.293	32.77
837.464	33.52
837.635	34.47
837.806	32.33
837.977	30.42
838.148	30.38
838.319	28.89
838.49	29.65
838.661	28.23
838.832	32.03
839.003	33.03
839.174	30.17
839.345	31.76
839.516	31.14
839.687	27.87
839.857	32.2
840.028	31.39
840.199	33.04
840.37	34.06
840.54	35.29
840.711	38.49
840.882	36.66
841.053	42.12
841.223	36.8
841.394	37.2
841.564	40.4
841.735	39.51
841.906	36.1
842.076	34.33
842.247	30.88
842.417	30.53
842.588	27.62
842.758	32.33
842.929	34.06
843.099	32.84
843.27	31.15
843.44	26.63
843.611	30
843.781	29.73
843.951	31.03
844.122	30.23
844.292	32.88
844.462	33.34
844.633	33.82
844.803	28.46
844.973	33.11
845.144	38.64
845.314	40.56
845.484	35.36
845.654	43.83
845.824	32.68
845.995	36.18
846.165	36.77
846.335	35.67
846.505	24.44
846.675	31.19
846.845	27.87
847.015	22.86
847.185	28.62
847.355	26.09
847.525	18.12
847.695	24.07
847.865	27.28
848.035	25.54
848.205	26.16
848.375	28.32
848.545	25.95
848.715	26.64
848.884	21.64
849.054	18.57
849.224	25.89
849.394	21.45
849.564	31.98
849.733	19.2
849.903	18.33
850.073	-5.22
850.243	-10.83
850.412	-13.53
850.582	-26.21
850.752	-51.62
850.921	-32.32
851.091	-35.41
851.26	-31.46
851.43	-84.09
851.599	-61.68
851.769	-78.33
851.939	-63.56
852.108	-70.45
852.278	-48.7
852.447	-55.8
852.616	-18.49
852.786	-22.86
852.955	-15.79
853.125	-23.15
853.294	4.31
853.463	2.63
853.633	0.32
853.802	7.07
853.971	20.17
854.141	9.86
854.31	26.13
854.479	28.35
854.648	20.61
854.818	14.43
854.987	11.4
855.156	7.2
855.325	12.85
855.494	16.83
855.663	26
855.832	17.03
856.001	28.69
856.171	25.53
856.34	18.56
856.509	10.83
856.678	11.04
856.847	27.94
857.016	32.41
857.185	49.52
857.353	50.92
857.522	41.67
857.691	43.15
857.86	44.94
858.029	53.21
858.198	44.06
858.367	53.11
858.535	50.54
858.704	44.91
858.873	30.08
859.042	-12.87
859.21	-9.79
859.379	-8.3
859.548	3.63
859.717	-18.81
859.885	-8.57
860.054	13.01
860.222	37.52
860.391	54.92
860.56	48.51
860.728	57.78
860.897	73.14
861.065	76.5
861.234	74.3
861.402	71.98
861.571	60.75
861.739	44.94
861.908	42.55
862.076	17.94
862.244	19.94
862.413	16.22
862.581	13.15
862.749	-1.16
862.918	-11.3
863.086	-41.49
863.254	-49.62
863.423	-26.9
863.591	-1.31
863.759	-39.61
863.927	-21.98
864.096	-29.78
864.264	-72.53
864.432	-63.92
864.6	-57.49
864.768	-41.19
864.936	-11.84
865.104	-2.96
865.272	-3.13
865.44	-29.32
865.608	-7.1
865.776	-16.43
865.944	-27.25
866.112	-3.94
866.28	3.46
866.448	15.96
866.616	16.29
866.784	0.78
866.952	-4.1
867.12	-29.63
867.288	-11.69
867.455	-10.67
867.623	-12.63
867.791	14.49
867.959	15.84
868.127	43.93
868.294	11.18
868.462	20.8
868.63	27.53
868.797	31.84
868.965	38.02
869.133	30.06
869.3	31.41
869.468	36.33
869.636	26.84
869.803	28.01
869.971	22.9
870.138	27.72
870.306	27.3
870.473	37.24
870.641	35.28
870.808	47.2
870.975	59.85
871.143	47.99
871.31	44.03
871.478	48.24
871.645	45.39
871.812	39.96
871.98	26.71
872.147	22.72
872.314	18.92
872.482	-1.69
872.649	-9.05
872.816	-4.92
872.983	0.41
873.15	10.71
873.318	4.58
873.485	4.47
873.652	1.41
873.819	13.57
873.986	7.13
874.153	4.25
874.32	10.68
874.487	-9.07
874.654	-7.21
874.821	-3.56
874.988	-10.32
875.155	3.15
875.322	4.94
875.489	5.24
875.656	-2.71
875.823	5.03
875.99	14.18
876.157	22.74
876.324	38.94
876.49	29.95
876.657	15.99
876.824	12.98
876.991	5.16
877.157	7.99
877.324	20.71
877.491	23
877.658	28.32
877.824	31.6
877.991	25.82
878.157	-7.74
878.324	10.79
878.491	23.75
878.657	13.49
878.824	12.92
878.99	-1.76
879.157	-34.51
879.323	-1.06
879.49	0.41
879.656	1.09
879.823	-2.57
879.989	11.46
880.156	10.75
880.322	12.18
880.488	18.97
880.655	20.69
880.821	23.26
880.987	27.59
881.154	22.12
881.32	32.61
881.486	32.15
881.652	37.56
881.819	38.36
881.985	35.31
882.151	40.42
882.317	42.05
882.483	43.17
882.649	40.78
882.816	41.1
882.982	41.55
883.148	37.75
883.314	35.88
883.48	35.24
883.646	34.49
883.812	33.9
883.978	32.52
884.144	31.35
884.31	30.1
884.476	30.9
884.642	31.18
884.807	29.41
884.973	27.53
885.139	28.99
885.305	29.98
885.471	31.01
885.637	33.25
885.802	30.68
885.968	29.49
886.134	29.77
886.3	31.54
886.465	29.15
886.631	32.39
886.797	36.41
886.962	34.07
887.128	31.08
887.293	27.18
887.459	26.57
887.625	30
887.79	27.05
887.956	26.52
888.121	21.82
888.287	23.94
888.452	15.22
888.618	3.44
888.783	5.69
