Data from CB_017_Reflection_2.txt Node
Date: Wed Nov 11 19:10:36 EST 2015
User: robert
Spectrometer: USB4E03001
Autoset integration time: false
Trigger mode: 4
Integration Time (sec): 1.000000E-1
Scans to average: 15
Electric dark correction enabled: true
Nonlinearity correction enabled: false
Boxcar width: 5
Stray light correction enabled: false
XAxis mode: Wavelengths
Stop averaging: false
Number of Pixels in Spectrum: 3648
>>>>>Begin Spectral Data<<<<<
177.566	-44.06
177.785	-253.92
178.005	-132.81
178.225	-1756.29
178.445	211.91
178.665	-374.69
178.885	-83.87
179.105	401.28
179.324	246.46
179.544	-186.94
179.764	-130.94
179.984	-156.18
180.204	384.71
180.423	-266.34
180.643	-505.49
180.863	1609.52
181.083	4813.22
181.302	967.18
181.522	-2650.6
181.742	-867.02
181.961	532.41
182.181	249.03
182.401	332.18
182.621	2045.1
182.84	304.48
183.06	374.05
183.279	412.9
183.499	999.93
183.719	960.52
183.938	602.65
184.158	1339.27
184.377	-2103.2
184.597	-443.74
184.816	-362.07
185.036	-985.6
185.256	-408.61
185.475	1320.34
185.695	-17945.98
185.914	611.9
186.134	373.33
186.353	440.15
186.572	615.76
186.792	408.15
187.011	385.58
187.231	331.35
187.45	397.93
187.67	408.98
187.889	2727.53
188.108	643.58
188.328	1007.66
188.547	-562.8
188.766	-846.97
188.986	330.54
189.205	-20090.91
189.424	422.43
189.644	1955.37
189.863	108.33
190.082	108.04
190.302	112.62
190.521	80.09
190.74	81.22
190.959	83.3
191.178	82.8
191.398	86.72
191.617	70.56
191.836	87.03
192.055	89.54
192.274	107.73
192.494	111.21
192.713	108.71
192.932	109.56
193.151	124.56
193.37	146.33
193.589	139.4
193.808	171.72
194.027	183.32
194.246	202.69
194.465	213.86
194.685	190.4
194.904	209.67
195.123	499.12
195.342	2448.43
195.561	297.34
195.78	257.94
195.999	275.75
196.218	1266.15
196.436	-392.51
196.655	-1805.76
196.874	929.92
197.093	787.44
197.312	811.72
197.531	-257.45
197.75	-446.65
197.969	-133.27
198.188	-132.4
198.407	-159.68
198.625	-502.93
198.844	-570.87
199.063	-512.01
199.282	-412.12
199.501	-255.13
199.719	-369.74
199.938	-5799.22
200.157	596.57
200.376	779.1
200.594	1189.15
200.813	-38628.57
201.032	2479.45
201.251	550.81
201.469	527.62
201.688	527.6
201.907	487.41
202.125	376.62
202.344	209.46
202.563	243.94
202.781	263.2
203	180.69
203.218	143
203.437	134.06
203.656	101.05
203.874	90.56
204.093	54.05
204.311	39.5
204.53	27.1
204.748	7.33
204.967	-30.59
205.185	13.06
205.404	56.07
205.622	53.4
205.841	63.27
206.059	99.15
206.278	136.16
206.496	130.67
206.715	249.68
206.933	332.99
207.151	276.92
207.37	326.64
207.588	320.24
207.806	516.31
208.025	738.21
208.243	906.9
208.461	397.6
208.68	399.93
208.898	487.33
209.116	546.5
209.335	443.06
209.553	-1475.37
209.771	579.83
209.989	-5313.04
210.208	-2994.04
210.426	-1112.98
210.644	-367.46
210.862	-195.53
211.081	-241.21
211.299	-286.87
211.517	-528.52
211.735	-492.83
211.953	-725.22
212.171	-251.9
212.39	-1646.95
212.608	-4423.05
212.826	706.03
213.044	471.31
213.262	418.33
213.48	290.27
213.698	406.71
213.916	-1721.46
214.134	-726.23
214.352	-1740.32
214.57	1416.85
214.788	431.07
215.006	510.48
215.224	334.19
215.442	184.54
215.66	195.57
215.878	238.01
216.096	229.34
216.314	171.29
216.532	170.73
216.75	144.01
216.968	128.64
217.185	177.32
217.403	178.04
217.621	205.71
217.839	331.54
218.057	4514.07
218.275	-1633.41
218.492	-157.81
218.71	-86.2
218.928	-99.76
219.146	-93.27
219.363	-68.34
219.581	-114.95
219.799	-108.36
220.017	-83.98
220.234	-68.35
220.452	-105.36
220.67	-76.7
220.887	-148.93
221.105	-136.36
221.323	-170.53
221.54	-51.4
221.758	-46.54
221.976	-59.52
222.193	-74.13
222.411	-163.5
222.629	-191.78
222.846	-175.76
223.064	-189.19
223.281	-202.31
223.499	-245.96
223.716	-250.72
223.934	-1049.79
224.151	-1632.97
224.369	-872.41
224.586	387075
224.804	-1150.9
225.021	-537.03
225.239	-437.19
225.456	-355.72
225.674	-330.52
225.891	-108.04
226.108	-121.98
226.326	-75.47
226.543	-76.01
226.76	-60.68
226.978	-36.87
227.195	-33.4
227.413	-25.26
227.63	-22.95
227.847	-26.58
228.064	-16.83
228.282	-13.64
228.499	-6.73
228.716	-6.12
228.934	-3.85
229.151	-4.01
229.368	-1.49
229.585	-6.62
229.802	-5.78
230.02	-4.17
230.237	-1.94
230.454	0.21
230.671	1.49
230.888	-0.05
231.105	-1.93
231.323	-1.25
231.54	-0.93
231.757	-8.51
231.974	-0.82
232.191	-8.33
232.408	-12.39
232.625	-16.89
232.842	-24.47
233.059	-27.04
233.276	-23.07
233.493	-22.57
233.71	-29.64
233.927	-25.29
234.144	-19.25
234.361	-18.26
234.578	-16.16
234.795	-17.75
235.012	-17.72
235.229	-20.6
235.446	-27.56
235.663	-38.66
235.879	-33.57
236.096	-29.17
236.313	-39.55
236.53	-43.29
236.747	-33.42
236.964	-21.36
237.181	-19.18
237.397	-8.96
237.614	-9.37
237.831	-7.03
238.048	-0.76
238.264	-1.9
238.481	-8.36
238.698	-13.02
238.915	-22.92
239.131	-37.08
239.348	-47.14
239.565	-47.36
239.781	-49.12
239.998	-40.95
240.215	-37.44
240.431	-33.35
240.648	-28.73
240.865	-21.55
241.081	-17.84
241.298	-12.23
241.514	-8.58
241.731	-6.29
241.947	-4.74
242.164	-3.79
242.38	-5.14
242.597	-4.07
242.814	-4.12
243.03	-3.79
243.246	-2.32
243.463	-0.12
243.679	-0.6
243.896	0.54
244.112	0.17
244.329	-0.53
244.545	-0.99
244.762	2.31
244.978	3.97
245.194	3.34
245.411	2.37
245.627	1
245.843	-0.14
246.06	3.21
246.276	2.63
246.492	3.28
246.709	4.5
246.925	4.04
247.141	3.67
247.357	3.82
247.574	4.58
247.79	4.64
248.006	4.45
248.222	5
248.439	3.81
248.655	3.75
248.871	3.87
249.087	3.95
249.303	4.54
249.519	4.89
249.736	2.86
249.952	1.53
250.168	-2.04
250.384	-3.51
250.6	-7.07
250.816	-7.68
251.032	-8.09
251.248	-9.61
251.464	-10.73
251.68	-11.79
251.896	-9.84
252.112	-9.8
252.328	-7.05
252.544	-4.9
252.76	-3.99
252.976	-2.79
253.192	-1.81
253.408	-2.07
253.624	-0.23
253.84	-1.05
254.056	0.35
254.272	-5.48
254.487	-5.18
254.703	-5.16
254.919	-5.64
255.135	-5.55
255.351	-8.9
255.567	-8.09
255.782	-6.71
255.998	-7.93
256.214	-7.09
256.43	-5.89
256.646	-2.26
256.861	-3.86
257.077	-6.93
257.293	-8.14
257.508	-7.6
257.724	-6.35
257.94	-9.72
258.155	-9.16
258.371	-7.25
258.587	-6.51
258.802	-6.57
259.018	-6.21
259.234	-3.79
259.449	-2.76
259.665	-1.36
259.88	-0.81
260.096	0.38
260.312	1.59
260.527	2.62
260.743	2.3
260.958	1.93
261.174	2
261.389	2.15
261.605	1.47
261.82	2.25
262.036	1.7
262.251	2.65
262.466	1.91
262.682	-0.26
262.897	-3.3
263.113	-5.04
263.328	-3.33
263.543	-4.07
263.759	-4.79
263.974	-4.7
264.189	-6.46
264.405	-6.96
264.62	-10.42
264.835	-10.68
265.051	-8.16
265.266	-9.7
265.481	-8.18
265.696	-10.12
265.912	-8.68
266.127	-7.52
266.342	-5.25
266.557	-6.15
266.773	-4.97
266.988	-5.27
267.203	-5.98
267.418	-4.86
267.633	-3.07
267.848	-3.94
268.064	-3.32
268.279	-3.47
268.494	-3.47
268.709	-4.64
268.924	-3.84
269.139	-3.33
269.354	-3
269.569	-0.21
269.784	-1.7
269.999	-1.8
270.214	-2.1
270.429	-2.18
270.644	-1.65
270.859	-2.09
271.074	-1.02
271.289	-0.25
271.504	-0.31
271.719	-1.02
271.934	-1.68
272.149	-0.58
272.363	-1.32
272.578	-0.19
272.793	1.87
273.008	1.46
273.223	2.37
273.438	1.92
273.653	1.39
273.867	1.08
274.082	0.56
274.297	0.08
274.512	-2.03
274.726	-0.39
274.941	-0.75
275.156	-2.71
275.371	-2.97
275.585	-4.62
275.8	-4.79
276.015	-6.11
276.229	-6.95
276.444	-5.37
276.659	-6.89
276.873	-5.6
277.088	-6.61
277.302	-7.03
277.517	-7.53
277.732	-7.77
277.946	-6.8
278.161	-7.78
278.375	-6.41
278.59	-6.29
278.804	-7.26
279.019	-4.94
279.233	-3.53
279.448	-3.19
279.662	-3.12
279.877	-2.35
280.091	-1.93
280.306	-1.54
280.52	-0.95
280.735	-1.76
280.949	-0.85
281.163	-0.27
281.378	-0.73
281.592	1.15
281.806	0.64
282.021	0.2
282.235	-0.91
282.449	-0.48
282.664	-0.91
282.878	-0.66
283.092	-0.08
283.307	-0.51
283.521	0.38
283.735	1.22
283.949	-1.08
284.164	-0.41
284.378	1.7
284.592	3.12
284.806	2.39
285.02	2.63
285.234	2.69
285.449	3.22
285.663	4.39
285.877	4.21
286.091	3.27
286.305	3.25
286.519	2.93
286.733	2.77
286.947	2.69
287.161	3.18
287.375	3.78
287.589	3.28
287.803	3.32
288.017	2.92
288.231	3.11
288.445	4.55
288.659	3.77
288.873	4.25
289.087	3.2
289.301	3.68
289.515	3.75
289.729	2.53
289.943	3.04
290.157	1.94
290.371	1.41
290.584	1.53
290.798	0.97
291.012	1.84
291.226	1.26
291.44	0.96
291.654	0.46
291.867	0.72
292.081	1.15
292.295	0.33
292.509	1.09
292.722	1.22
292.936	1.06
293.15	0.24
293.364	0.55
293.577	1.39
293.791	2.47
294.005	1.58
294.218	2.23
294.432	2.89
294.645	4.92
294.859	4.46
295.073	4.58
295.286	4.48
295.5	5.39
295.713	4.65
295.927	5.16
296.14	4.81
296.354	4.85
296.568	4.25
296.781	3.32
296.994	2.12
297.208	1.29
297.421	2.07
297.635	2.62
297.848	2.58
298.062	3.62
298.275	2.7
298.489	2.06
298.702	1.52
298.915	2.55
299.129	3.12
299.342	3.21
299.555	3.93
299.769	2.59
299.982	1.86
300.195	2.49
300.409	1.5
300.622	1.45
300.835	1.59
301.048	3.38
301.262	2.23
301.475	1.99
301.688	1.74
301.901	2.45
302.115	3.76
302.328	3.48
302.541	1.68
302.754	2.3
302.967	2.33
303.18	3.26
303.393	3.61
303.607	3.41
303.82	4.66
304.033	4.51
304.246	5.5
304.459	3.83
304.672	4.18
304.885	5.5
305.098	5.54
305.311	5.71
305.524	4.74
305.737	3.17
305.95	3.22
306.163	3.57
306.376	4.72
306.589	3.98
306.802	4.75
307.015	4.25
307.228	2.28
307.44	1.65
307.653	2.53
307.866	2.46
308.079	3.53
308.292	3.95
308.505	2.98
308.718	2.83
308.93	2.37
309.143	2.93
309.356	3.81
309.569	5.19
309.781	5.89
309.994	4.82
310.207	6.14
310.42	6.69
310.632	6.76
310.845	7.12
311.058	7.64
311.27	7.51
311.483	7.35
311.696	6.4
311.908	6.65
312.121	6.5
312.333	7.24
312.546	6.94
312.759	5
312.971	3.51
313.184	2.75
313.396	2.54
313.609	3.65
313.821	3.64
314.034	5.65
314.246	5.18
314.459	5.48
314.671	6.57
314.884	7.24
315.096	8.63
315.309	9.67
315.521	10.12
315.733	9
315.946	7.78
316.158	8.32
316.371	5.03
316.583	4.16
316.795	4.57
317.008	3.59
317.22	3.52
317.432	4.62
317.644	3.84
317.857	2.73
318.069	3.23
318.281	4.42
318.494	3.4
318.706	5.79
318.918	6.35
319.13	5.19
319.342	3.86
319.555	1.8
319.767	-1.1
319.979	0.92
320.191	1.94
320.403	1.78
320.615	0.68
320.827	-0.07
321.039	-0.02
321.252	-0.34
321.464	-0.42
321.676	0.53
321.888	1.56
322.1	3.13
322.312	2.5
322.524	3.37
322.736	4.08
322.948	4.4
323.16	6.17
323.372	5.43
323.584	6.62
323.796	7.94
324.007	7.51
324.219	8.06
324.431	8.88
324.643	9.03
324.855	9.01
325.067	9.31
325.279	9.3
325.491	8.44
325.702	9.83
325.914	9.89
326.126	8.9
326.338	9.33
326.55	10.51
326.761	10.88
326.973	10.85
327.185	10.54
327.396	9.94
327.608	10.24
327.82	11.91
328.032	10.33
328.243	10.22
328.455	11.75
328.666	12.47
328.878	11.53
329.09	9.89
329.301	9.21
329.513	10.37
329.725	10.3
329.936	11
330.148	10.08
330.359	10.85
330.571	11.4
330.782	9.71
330.994	9
331.205	9.43
331.417	10.86
331.628	10.65
331.84	9.75
332.051	10.92
332.262	9.67
332.474	10.46
332.685	11.86
332.897	12.79
333.108	14.19
333.319	15.85
333.531	15.1
333.742	13.93
333.953	15.38
334.165	15.19
334.376	15.1
334.587	16.2
334.799	15.66
335.01	14.98
335.221	15.1
335.432	14.58
335.644	14
335.855	14.14
336.066	15.08
336.277	13.85
336.488	14.77
336.7	14.62
336.911	14.7
337.122	14.97
337.333	15
337.544	14.69
337.755	15.63
337.966	15.6
338.177	15.69
338.388	15.49
338.599	16.92
338.811	16.71
339.022	16.99
339.233	16.2
339.444	16.19
339.655	17.84
339.866	17.16
340.076	16.51
340.287	17.14
340.498	17.68
340.709	18.75
340.92	18.83
341.131	18.75
341.342	18.86
341.553	18.8
341.764	18.28
341.975	16.5
342.185	16.14
342.396	16.44
342.607	15.77
342.818	15.09
343.029	14.32
343.239	13.96
343.45	14.12
343.661	13.48
343.872	14.35
344.082	14.35
344.293	14.8
344.504	15.7
344.714	16.02
344.925	16.6
345.136	16.9
345.346	17.47
345.557	17.34
345.768	17.07
345.978	17.67
346.189	17.28
346.399	18.38
346.61	18.72
346.821	18.39
347.031	17.19
347.242	16.61
347.452	17.03
347.663	16.45
347.873	16.56
348.084	16.67
348.294	16.85
348.504	16.11
348.715	15.41
348.925	14.57
349.136	13.96
349.346	15.11
349.557	15.87
349.767	15.16
349.977	15.26
350.188	15.26
350.398	15.51
350.608	15.19
350.819	16.19
351.029	16.15
351.239	17.09
351.449	16.91
351.66	16.54
351.87	15.97
352.08	16.71
352.29	16.85
352.501	16.52
352.711	16.86
352.921	16.49
353.131	15.84
353.341	15.55
353.552	14.83
353.762	15.63
353.972	16.29
354.182	16.95
354.392	16.4
354.602	16.67
354.812	16.65
355.022	16.26
355.232	16.29
355.442	16.63
355.652	16.7
355.862	17.33
356.072	16.61
356.282	15.5
356.492	14.76
356.702	14.64
356.912	13.8
357.122	13.58
357.332	13.21
357.542	13.25
357.752	13.59
357.962	13.89
358.171	13.33
358.381	13.2
358.591	13.98
358.801	13.47
359.011	13.45
359.221	13.88
359.43	14.22
359.64	14.78
359.85	15.59
360.06	15.54
360.269	16.41
360.479	16.72
360.689	17.54
360.899	17.14
361.108	17.5
361.318	17.88
361.528	17.68
361.737	17.73
361.947	17.87
362.156	17.47
362.366	17.59
362.576	16.06
362.785	15.83
362.995	15.45
363.204	15.36
363.414	15.47
363.623	15.42
363.833	15.87
364.042	15.7
364.252	15.68
364.461	15.32
364.671	14.94
364.88	15.95
365.09	15.77
365.299	15.45
365.509	15.16
365.718	15.01
365.927	14.28
366.137	13.69
366.346	13.68
366.555	12.6
366.765	12.89
366.974	12.58
367.183	11.88
367.393	11.96
367.602	12.03
367.811	12.1
368.021	12.19
368.23	12.62
368.439	12.65
368.648	13.02
368.857	13.6
369.067	13.47
369.276	14.05
369.485	14.58
369.694	14.68
369.903	14.86
370.112	14.84
370.321	14.75
370.531	14.75
370.74	14.81
370.949	14.02
371.158	13.63
371.367	13.24
371.576	13.34
371.785	12.98
371.994	12.8
372.203	12.69
372.412	13.25
372.621	13.44
372.83	13.44
373.039	13.46
373.248	13.78
373.457	13.91
373.666	14.38
373.874	14.18
374.083	14.59
374.292	14.09
374.501	13.99
374.71	13.35
374.919	13.23
375.128	13.32
375.336	12.77
375.545	12.6
375.754	11.95
375.963	11.63
376.171	11.26
376.38	11.16
376.589	11.75
376.798	11.57
377.006	10.8
377.215	10.63
377.424	10.53
377.632	11.03
377.841	11.24
378.05	10.96
378.258	10.3
378.467	10.43
378.675	9.9
378.884	9.8
379.093	10.12
379.301	10.98
379.51	10.79
379.718	10.27
379.927	9.79
380.135	9.37
380.344	10.17
380.552	10.8
380.761	10.83
380.969	10.93
381.177	11.05
381.386	10.81
381.594	10.99
381.803	11.1
382.011	11.71
382.219	11.79
382.428	11.84
382.636	12.17
382.845	11.8
383.053	11.99
383.261	11.94
383.469	12.15
383.678	12.25
383.886	12.07
384.094	11.88
384.302	11.38
384.511	10.93
384.719	11.03
384.927	10.71
385.135	10.86
385.343	10.05
385.552	10.47
385.76	9.82
385.968	9.96
386.176	9.69
386.384	9.89
386.592	9.86
386.8	9.72
387.008	9.47
387.216	9.37
387.424	9.56
387.633	9.91
387.841	9.39
388.049	9.16
388.257	9.22
388.465	9.16
388.672	8.43
388.88	8.52
389.088	8.94
389.296	9.02
389.504	9.02
389.712	9.11
389.92	9.09
390.128	9
390.336	9
390.544	8.36
390.751	8.67
390.959	8.6
391.167	8.51
391.375	8.56
391.583	8.48
391.79	8.12
391.998	8.03
392.206	7.9
392.414	8.18
392.621	8.69
392.829	8.89
393.037	8.37
393.244	8.79
393.452	8.64
393.66	8.5
393.867	8.55
394.075	8.98
394.283	8.78
394.49	8.8
394.698	8.7
394.905	8.34
395.113	8.28
395.32	8.5
395.528	8.3
395.735	8.33
395.943	8
396.15	7.77
396.358	7.27
396.565	7.14
396.773	7.21
396.98	6.93
397.188	6.77
397.395	6.9
397.602	6.9
397.81	7.02
398.017	7.38
398.225	7.7
398.432	7.81
398.639	8.24
398.847	8.43
399.054	7.92
399.261	8.02
399.468	8.05
399.676	8.1
399.883	7.72
400.09	7.76
400.297	7.4
400.505	7.15
400.712	7.28
400.919	7.19
401.126	6.7
401.333	7.2
401.54	7.07
401.748	6.97
401.955	6.61
402.162	6.78
402.369	6.83
402.576	6.85
402.783	7.29
402.99	7.21
403.197	7.32
403.404	7.3
403.611	6.98
403.818	7.05
404.025	7.44
404.232	7.72
404.439	7.8
404.646	7.5
404.853	7.58
405.06	7.35
405.267	7.29
405.474	7.11
405.681	7.51
405.887	7.73
406.094	8.04
406.301	7.94
406.508	7.81
406.715	7.91
406.922	8.36
407.128	8.48
407.335	8.37
407.542	8.43
407.749	8.35
407.955	8.29
408.162	8.49
408.369	8.33
408.575	8.28
408.782	8.33
408.989	8.25
409.195	8.07
409.402	7.88
409.609	8.14
409.815	8.29
410.022	8.15
410.228	8.01
410.435	7.7
410.642	7.49
410.848	7.6
411.055	7.53
411.261	7.52
411.468	7.49
411.674	7.23
411.881	6.9
412.087	6.64
412.294	6.89
412.5	6.72
412.706	7.13
412.913	6.93
413.119	6.72
413.326	6.52
413.532	6.35
413.738	6.31
413.945	6.37
414.151	6.55
414.357	6.69
414.564	6.56
414.77	6.86
414.976	6.42
415.182	6.71
415.389	6.88
415.595	7.13
415.801	7.23
416.007	7.51
416.214	7.67
416.42	7.6
416.626	7.58
416.832	7.57
417.038	7.41
417.244	7.46
417.45	7.41
417.657	7.18
417.863	7.11
418.069	7.24
418.275	7.14
418.481	7.02
418.687	7.01
418.893	6.9
419.099	7.04
419.305	7.23
419.511	7.13
419.717	7.24
419.923	7.41
420.129	7.53
420.335	7.47
420.541	7.49
420.746	7.73
420.952	7.87
421.158	8.16
421.364	8.06
421.57	7.99
421.776	8.05
421.982	7.87
422.187	7.81
422.393	7.7
422.599	7.77
422.805	7.69
423.01	7.64
423.216	7.49
423.422	7.2
423.628	7.35
423.833	7.35
424.039	7.35
424.245	7.45
424.45	7.58
424.656	7.61
424.862	7.53
425.067	7.55
425.273	7.51
425.478	7.54
425.684	7.69
425.889	7.56
426.095	7.58
426.301	7.83
426.506	7.93
426.712	7.86
426.917	7.85
427.123	7.94
427.328	7.84
427.533	7.83
427.739	7.83
427.944	7.8
428.15	7.8
428.355	8.01
428.561	7.59
428.766	7.27
428.971	7.32
429.177	7.38
429.382	7.07
429.587	7.24
429.793	6.97
429.998	6.94
430.203	6.95
430.408	6.75
430.614	6.45
430.819	6.75
431.024	6.78
431.229	6.77
431.434	6.63
431.64	6.59
431.845	6.56
432.05	6.93
432.255	6.98
432.46	6.8
432.665	6.96
432.87	7.08
433.076	6.96
433.281	7.02
433.486	6.88
433.691	6.64
433.896	6.66
434.101	6.69
434.306	6.67
434.511	6.66
434.716	6.72
434.921	6.65
435.126	6.63
435.331	6.46
435.535	6.65
435.74	6.7
435.945	6.97
436.15	7.18
436.355	7.16
436.56	7.05
436.765	7
436.97	7
437.174	7.01
437.379	7.05
437.584	7.07
437.789	6.95
437.993	6.83
438.198	6.81
438.403	6.94
438.608	6.94
438.812	6.99
439.017	7.15
439.222	7.25
439.426	7.35
439.631	7.14
439.836	7.3
440.04	7.34
440.245	7.47
440.45	7.59
440.654	7.55
440.859	7.44
441.063	7.26
441.268	7.19
441.472	7.2
441.677	7.03
441.881	7.04
442.086	7.02
442.29	6.94
442.495	6.98
442.699	6.68
442.904	6.61
443.108	6.65
443.312	6.9
443.517	6.69
443.721	6.67
443.925	6.97
444.13	7.14
444.334	7.28
444.538	7.33
444.743	7.3
444.947	7.51
445.151	7.5
445.356	7.62
445.56	7.41
445.764	7.58
445.968	7.54
446.173	7.39
446.377	7.32
446.581	7.17
446.785	7.21
446.989	7.23
447.193	7.08
447.398	7.07
447.602	6.99
447.806	7.09
448.01	7.01
448.214	7.07
448.418	7.01
448.622	7.04
448.826	7.03
449.03	7
449.234	6.98
449.438	7.08
449.642	7.16
449.846	6.91
450.05	6.82
450.254	6.81
450.458	6.65
450.662	6.73
450.866	6.65
451.069	6.6
451.273	6.64
451.477	6.58
451.681	6.53
451.885	6.31
452.089	6.38
452.292	6.48
452.496	6.59
452.7	6.61
452.904	6.61
453.107	6.58
453.311	6.71
453.515	6.58
453.719	6.6
453.922	6.48
454.126	6.56
454.33	6.66
454.533	6.43
454.737	6.53
454.94	6.37
455.144	6.35
455.348	6.33
455.551	6.13
455.755	6.16
455.958	6.06
456.162	6.18
456.365	6.08
456.569	5.94
456.772	6.13
456.976	5.9
457.179	6.1
457.383	6.17
457.586	6.23
457.79	6.26
457.993	6.19
458.196	6.08
458.4	6.18
458.603	6.33
458.807	6.65
459.01	6.53
459.213	6.6
459.417	6.52
459.62	6.53
459.823	6.53
460.026	6.53
460.23	6.61
460.433	6.68
460.636	6.56
460.839	6.6
461.042	6.43
461.246	6.54
461.449	6.56
461.652	6.56
461.855	6.53
462.058	6.55
462.261	6.61
462.464	6.67
462.668	6.78
462.871	7.06
463.074	6.98
463.277	7.07
463.48	7.05
463.683	6.92
463.886	7.13
464.089	7.18
464.292	7.09
464.495	6.95
464.698	7.13
464.901	7.17
465.104	7
465.306	7.04
465.509	6.87
465.712	6.87
465.915	6.95
466.118	7.08
466.321	6.97
466.524	7.09
466.726	7.29
466.929	7.08
467.132	6.92
467.335	6.91
467.538	6.83
467.74	7.04
467.943	7.14
468.146	7.13
468.348	7.04
468.551	7.18
468.754	7.4
468.956	7.32
469.159	7.34
469.362	7.47
469.564	7.64
469.767	7.71
469.969	7.67
470.172	7.57
470.375	7.56
470.577	7.19
470.78	7.06
470.982	6.96
471.185	7.11
471.387	7.17
471.59	7.13
471.792	6.9
471.995	6.9
472.197	7
472.399	6.97
472.602	6.83
472.804	6.97
473.007	7.02
473.209	6.91
473.411	6.59
473.614	6.47
473.816	6.24
474.018	6.36
474.22	6.27
474.423	6.05
474.625	5.99
474.827	6.05
475.03	6.09
475.232	6.02
475.434	5.87
475.636	6.24
475.838	6.25
476.04	6.6
476.243	6.49
476.445	6.57
476.647	6.61
476.849	6.72
477.051	6.81
477.253	6.78
477.455	6.84
477.657	6.81
477.859	6.74
478.061	6.84
478.263	6.88
478.465	6.97
478.667	6.96
478.869	7.12
479.071	7.05
479.273	7.04
479.475	7.05
479.677	7.1
479.879	7.14
480.081	7.03
480.283	6.81
480.485	6.7
480.686	6.64
480.888	6.6
481.09	6.46
481.292	6.56
481.494	6.57
481.695	6.61
481.897	6.78
482.099	6.82
482.301	6.96
482.502	7.06
482.704	7.01
482.906	7.03
483.107	7.09
483.309	7.12
483.511	7.18
483.712	7.18
483.914	7.15
484.115	7.07
484.317	7.14
484.519	7.1
484.72	7.06
484.922	7.07
485.123	7.08
485.325	7.05
485.526	7.05
485.728	6.97
485.929	7.03
486.131	7.1
486.332	7.07
486.534	7.02
486.735	6.98
486.936	7.06
487.138	7.06
487.339	7.11
487.541	7.08
487.742	7.1
487.943	7.15
488.144	7.1
488.346	7.12
488.547	7.15
488.748	7.15
488.95	7.17
489.151	7.17
489.352	7.19
489.553	7.12
489.755	7.16
489.956	7.14
490.157	7.01
490.358	6.95
490.559	6.91
490.76	6.87
490.961	6.88
491.163	6.87
491.364	6.97
491.565	6.97
491.766	7.01
491.967	7.06
492.168	7.13
492.369	7.18
492.57	7.2
492.771	7.12
492.972	7.15
493.173	7.14
493.374	7.14
493.575	6.99
493.776	6.96
493.976	6.86
494.177	6.73
494.378	6.62
494.579	6.51
494.78	6.48
494.981	6.6
495.182	6.7
495.382	6.59
495.583	6.61
495.784	6.66
495.985	6.62
496.185	6.75
496.386	6.62
496.587	6.59
496.788	6.54
496.988	6.62
497.189	6.61
497.39	6.5
497.59	6.55
497.791	6.55
497.992	6.62
498.192	6.68
498.393	6.81
498.593	7.05
498.794	7.16
498.994	7.41
499.195	7.27
499.395	7.4
499.596	7.49
499.796	7.61
499.997	7.68
500.197	7.36
500.398	7.35
500.598	7.2
500.799	7.15
500.999	7.04
501.199	7.18
501.4	7.28
501.6	7.28
501.801	7.29
502.001	7.29
502.201	7.28
502.402	7.49
502.602	7.62
502.802	7.72
503.002	7.82
503.203	7.89
503.403	7.79
503.603	7.79
503.803	7.69
504.003	7.6
504.204	7.53
504.404	7.66
504.604	7.78
504.804	7.74
505.004	7.55
505.204	7.42
505.404	7.39
505.604	7.3
505.804	7.5
506.005	7.55
506.205	7.62
506.405	7.66
506.605	7.76
506.805	7.74
507.005	7.62
507.204	7.85
507.404	7.98
507.604	8.04
507.804	8.17
508.004	8.16
508.204	8.19
508.404	8.24
508.604	8.13
508.804	8.09
509.003	8.16
509.203	8.52
509.403	8.46
509.603	8.61
509.803	8.6
510.002	8.63
510.202	8.64
510.402	8.78
510.602	8.78
510.801	9
511.001	9.14
511.201	9.09
511.4	9.09
511.6	9.26
511.8	9.1
511.999	9.08
512.199	8.97
512.398	9.02
512.598	8.97
512.797	9.14
512.997	9.07
513.197	8.87
513.396	8.94
513.596	8.88
513.795	8.8
513.994	8.95
514.194	9.13
514.393	9.25
514.593	9.36
514.792	9.33
514.992	9.41
515.191	9.43
515.39	9.58
515.59	9.84
515.789	9.83
515.988	9.86
516.188	9.89
516.387	10.08
516.586	10.25
516.786	10.16
516.985	10.28
517.184	10.27
517.383	10.33
517.582	10.46
517.782	10.42
517.981	10.46
518.18	10.48
518.379	10.52
518.578	10.47
518.777	10.43
518.976	10.58
519.176	10.57
519.375	10.63
519.574	10.77
519.773	10.83
519.972	10.78
520.171	10.87
520.37	10.9
520.569	10.95
520.768	11.05
520.967	11.19
521.166	11.09
521.365	11.16
521.564	11.15
521.762	11.11
521.961	10.97
522.16	11.04
522.359	11.06
522.558	11.31
522.757	11.49
522.956	11.3
523.154	11.23
523.353	11.51
523.552	11.71
523.751	11.89
523.949	12.05
524.148	12.18
524.347	12.32
524.546	12.42
524.744	12.41
524.943	12.39
525.142	12.55
525.34	12.63
525.539	12.67
525.737	12.61
525.936	12.56
526.135	12.54
526.333	12.62
526.532	12.63
526.73	12.65
526.929	12.64
527.127	12.64
527.326	12.71
527.524	12.74
527.723	12.74
527.921	12.82
528.12	12.92
528.318	12.98
528.516	13.02
528.715	13.06
528.913	13.11
529.112	13.11
529.31	13.16
529.508	13.18
529.707	13.24
529.905	13.29
530.103	13.25
530.301	13.23
530.5	13.28
530.698	13.29
530.896	13.2
531.094	13.24
531.293	13.41
531.491	13.38
531.689	13.36
531.887	13.38
532.085	13.3
532.283	13.46
532.481	13.55
532.68	13.57
532.878	13.68
533.076	13.92
533.274	13.98
533.472	13.92
533.67	14
533.868	14.1
534.066	14.13
534.264	14.22
534.462	14.17
534.66	14.16
534.858	14.19
535.056	14.2
535.253	14.19
535.451	14.13
535.649	14.38
535.847	14.45
536.045	14.46
536.243	14.55
536.441	14.71
536.638	14.83
536.836	14.87
537.034	14.96
537.232	14.97
537.43	15.03
537.627	15.06
537.825	14.93
538.023	15.05
538.22	15.17
538.418	15.11
538.616	15.03
538.813	15.05
539.011	15
539.209	14.98
539.406	14.98
539.604	15.02
539.801	15.07
539.999	15.24
540.196	15.3
540.394	15.38
540.591	15.61
540.789	15.69
540.986	15.75
541.184	15.93
541.381	16.03
541.579	16.16
541.776	16.29
541.974	16.44
542.171	16.47
542.368	16.51
542.566	16.52
542.763	16.53
542.96	16.55
543.158	16.57
543.355	16.57
543.552	16.6
543.75	16.59
543.947	16.51
544.144	16.46
544.341	16.52
544.539	16.52
544.736	16.66
544.933	16.63
545.13	16.77
545.327	16.76
545.524	16.95
545.722	16.96
545.919	17.05
546.116	17.27
546.313	17.44
546.51	17.43
546.707	17.47
546.904	17.49
547.101	17.66
547.298	17.6
547.495	17.82
547.692	17.76
547.889	17.88
548.086	17.92
548.283	17.93
548.48	17.94
548.677	17.99
548.874	18.11
549.07	18.15
549.267	18.18
549.464	18.49
549.661	18.49
549.858	18.63
550.055	18.69
550.251	18.58
550.448	18.45
550.645	18.47
550.842	18.48
551.038	18.57
551.235	18.49
551.432	18.51
551.628	18.57
551.825	18.69
552.022	18.83
552.218	18.88
552.415	19.19
552.612	19.19
552.808	19.13
553.005	19.18
553.201	19.27
553.398	19.53
553.594	19.58
553.791	19.53
553.987	19.54
554.184	19.65
554.38	19.68
554.577	19.73
554.773	19.85
554.97	20.12
555.166	20.12
555.362	20.3
555.559	20.45
555.755	20.56
555.952	20.71
556.148	20.82
556.344	20.67
556.541	20.89
556.737	20.92
556.933	20.88
557.129	20.68
557.326	20.92
557.522	20.74
557.718	20.55
557.914	20.62
558.11	20.42
558.307	20.41
558.503	20.57
558.699	20.55
558.895	20.68
559.091	20.81
559.287	21.13
559.483	21.11
559.679	21.27
559.876	21.43
560.072	21.37
560.268	21.49
560.464	21.6
560.66	21.89
560.856	21.81
561.052	21.94
561.247	22.12
561.443	22.15
561.639	22.4
561.835	22.43
562.031	22.51
562.227	22.53
562.423	22.69
562.619	22.66
562.815	22.58
563.01	22.85
563.206	22.68
563.402	22.69
563.598	22.79
563.793	22.75
563.989	22.81
564.185	22.99
564.381	23.13
564.576	23.31
564.772	23.58
564.968	23.39
565.163	23.46
565.359	23.56
565.555	23.63
565.75	23.72
565.946	23.77
566.141	23.77
566.337	23.62
566.532	23.86
566.728	23.87
566.923	23.77
567.119	23.93
567.314	23.9
567.51	24
567.705	23.99
567.901	23.87
568.096	24.06
568.292	24.16
568.487	24.31
568.682	24.22
568.878	24.28
569.073	24.35
569.268	24.3
569.464	24.41
569.659	24.43
569.854	24.53
570.05	24.62
570.245	24.56
570.44	24.58
570.635	24.6
570.831	24.58
571.026	24.69
571.221	24.8
571.416	24.97
571.611	24.9
571.806	24.9
572.002	24.86
572.197	24.78
572.392	24.86
572.587	24.93
572.782	24.9
572.977	24.98
573.172	25.01
573.367	25.09
573.562	25.03
573.757	25.09
573.952	25.25
574.147	25.4
574.342	25.65
574.537	25.59
574.732	25.58
574.927	25.58
575.121	25.54
575.316	25.56
575.511	25.47
575.706	25.53
575.901	25.5
576.096	25.33
576.29	25.33
576.485	25.35
576.68	25.3
576.875	25.16
577.069	25.36
577.264	25.44
577.459	25.27
577.654	25.45
577.848	25.54
578.043	25.55
578.238	25.7
578.432	25.73
578.627	25.77
578.821	25.89
579.016	26.2
579.21	26.13
579.405	26.2
579.6	26.18
579.794	26.23
579.989	25.9
580.183	25.96
580.378	26.1
580.572	26.15
580.766	26.23
580.961	26.4
581.155	26.17
581.35	25.8
581.544	25.79
581.738	26.02
581.933	25.77
582.127	26.05
582.321	26.34
582.516	26.32
582.71	25.94
582.904	25.93
583.099	25.93
583.293	26.17
583.487	26.78
583.681	26.67
583.875	26.48
584.07	26.54
584.264	26.62
584.458	26.7
584.652	26.84
584.846	27.35
585.04	27.64
585.234	27.34
585.428	27.42
585.623	27.24
585.817	27.33
586.011	27.54
586.205	27.51
586.399	27.59
586.593	27.65
586.787	27.5
586.981	27.52
587.174	27.43
587.368	27.76
587.562	27.7
587.756	27.8
587.95	27.9
588.144	27.88
588.338	28.13
588.532	28.44
588.725	28.33
588.919	28.36
589.113	28.25
589.307	28.22
589.501	28.14
589.694	28.04
589.888	28.15
590.082	28.26
590.275	28.55
590.469	28.71
590.663	28.7
590.856	28.37
591.05	28.56
591.244	28.54
591.437	28.55
591.631	28.72
591.824	28.95
592.018	28.8
592.212	29
592.405	28.78
592.599	28.51
592.792	28.37
592.986	28.83
593.179	28.81
593.372	29.11
593.566	28.96
593.759	29.16
593.953	29.23
594.146	29.59
594.339	29.45
594.533	29.43
594.726	29.46
594.92	29.53
595.113	29.28
595.306	29.12
595.499	29.26
595.693	29.41
595.886	29.24
596.079	29.22
596.272	29.14
596.466	29.31
596.659	29.5
596.852	29.57
597.045	29.59
597.238	29.86
597.431	30.03
597.624	29.99
597.818	30.11
598.011	30.22
598.204	30.22
598.397	30.19
598.59	29.92
598.783	30.02
598.976	30.08
599.169	30.13
599.362	30.13
599.555	29.85
599.748	29.85
599.941	29.81
600.134	29.55
600.326	29.8
600.519	29.62
600.712	29.91
600.905	29.87
601.098	30.04
601.291	29.62
601.483	29.6
601.676	30.26
601.869	30.26
602.062	30.3
602.255	30.54
602.447	30.38
602.64	30.7
602.833	30.66
603.025	30.52
603.218	30.58
603.411	30.91
603.603	30.76
603.796	30.65
603.989	30.56
604.181	30.54
604.374	30.5
604.566	30.43
604.759	30.55
604.951	30.55
605.144	30.64
605.336	30.48
605.529	30.56
605.721	30.74
605.914	30.7
606.106	30.81
606.299	31.09
606.491	31.12
606.683	31.23
606.876	31
607.068	30.92
607.26	30.92
607.453	31.14
607.645	31.12
607.837	31.08
608.03	31.09
608.222	31.06
608.414	30.85
608.606	30.88
608.799	31.15
608.991	31.24
609.183	31.41
609.375	31.61
609.567	31.64
609.759	31.81
609.952	31.84
610.144	31.89
610.336	31.96
610.528	32.15
610.72	32.39
610.912	32.2
611.104	32.25
611.296	32.55
611.488	32.22
611.68	32.1
611.872	32.19
612.064	32.19
612.256	32.39
612.448	32.32
612.64	32.1
612.832	31.86
613.023	32.07
613.215	31.82
613.407	31.44
613.599	31.39
613.791	31.37
613.983	31.24
614.174	31.33
614.366	30.96
614.558	31.32
614.75	31.54
614.941	31.6
615.133	31.53
615.325	31.86
615.516	32.07
615.708	32.37
615.9	32.58
616.091	32.27
616.283	32.09
616.475	32.17
616.666	31.85
616.858	31.67
617.049	32.01
617.241	31.75
617.432	31.52
617.624	31.37
617.815	31.53
618.007	31.35
618.198	31.48
618.39	31.46
618.581	31.42
618.773	31.04
618.964	31.17
619.155	31.04
619.347	31.24
619.538	31.4
619.729	31.47
619.921	31.56
620.112	31.49
620.303	31.53
620.494	31.75
620.686	31.78
620.877	32.17
621.068	31.99
621.259	31.77
621.451	31.59
621.642	31.5
621.833	31.41
622.024	31.48
622.215	31.52
622.406	31.51
622.597	31.65
622.788	31.64
622.98	31.56
623.171	31.54
623.362	31.67
623.553	31.92
623.744	31.84
623.935	32.13
624.126	32.01
624.317	32.01
624.508	31.97
624.698	31.84
624.889	31.96
625.08	32.16
625.271	32.17
625.462	31.91
625.653	31.75
625.844	31.97
626.034	31.68
626.225	31.64
626.416	31.43
626.607	31.65
626.798	31.58
626.988	31.62
627.179	31.48
627.37	31.64
627.56	32.07
627.751	32.19
627.942	32.27
628.132	32.43
628.323	32.25
628.514	32.78
628.704	32.66
628.895	32.81
629.085	32.94
629.276	32.98
629.466	32.92
629.657	32.54
629.847	32.66
630.038	32.8
630.228	32.65
630.419	32.72
630.609	32.28
630.8	32.37
630.99	32.59
631.181	32.83
631.371	33.14
631.561	32.77
631.752	32.78
631.942	32.67
632.132	32.66
632.323	33.17
632.513	33.14
632.703	33.3
632.893	33.05
633.084	32.85
633.274	32.31
633.464	32.11
633.654	32.23
633.844	32.57
634.034	32.52
634.225	32.33
634.415	32.02
634.605	32.26
634.795	32.48
634.985	32.73
635.175	32.73
635.365	32.87
635.555	32.61
635.745	32.78
635.935	32.47
636.125	32.59
636.315	32.42
636.505	32.56
636.695	32.49
636.885	32.43
637.075	32.26
637.265	32.04
637.455	32
637.644	32.18
637.834	32.14
638.024	32.29
638.214	32.22
638.404	32.49
638.593	32.05
638.783	31.99
638.973	32.1
639.163	32.07
639.352	32.29
639.542	32.13
639.732	31.92
639.921	32.21
640.111	32.17
640.301	32.34
640.49	32.21
640.68	32.62
640.87	32.66
641.059	32.8
641.249	33.03
641.438	32.99
641.628	33.28
641.817	33.73
642.007	33.4
642.196	33.39
642.386	33.08
642.575	33.01
642.764	32.69
642.954	32.95
643.143	32.5
643.333	32.37
643.522	32.07
643.711	31.95
643.901	31.81
644.09	32.3
644.279	32.61
644.469	32.98
644.658	33.09
644.847	33.32
645.036	33.2
645.226	33.49
645.415	33.48
645.604	33.71
645.793	33.71
645.982	33.78
646.171	33.25
646.361	33.04
646.55	33.07
646.739	32.94
646.928	33.26
647.117	32.92
647.306	32.73
647.495	32.82
647.684	32.7
647.873	32.95
648.062	33
648.251	33.19
648.44	32.89
648.629	32.8
648.818	32.82
649.007	31.99
649.196	31.85
649.384	32.04
649.573	31.91
649.762	32.06
649.951	31.34
650.14	31.07
650.328	31.49
650.517	31.37
650.706	31.24
650.895	31.26
651.083	31.55
651.272	32.04
651.461	31.66
651.65	31.77
651.838	32.02
652.027	32.65
652.216	32.97
652.404	32.46
652.593	32.76
652.781	32.62
652.97	32.68
653.158	32.54
653.347	32.38
653.535	32.56
653.724	32.43
653.912	31.89
654.101	31.59
654.289	31.41
654.478	31.56
654.666	31.28
654.855	31.35
655.043	31.11
655.231	31.63
655.42	31.65
655.608	31.28
655.796	31.49
655.985	31.88
656.173	31.9
656.361	32.1
656.55	32.15
656.738	32.64
656.926	32.63
657.114	32.86
657.302	32.56
657.491	32.54
657.679	32.89
657.867	33.16
658.055	33.16
658.243	33.43
658.431	33.1
658.619	33.12
658.807	32.82
658.996	32.66
659.184	32.59
659.372	32.64
659.56	32.83
659.748	32.77
659.936	32.6
660.124	32.67
660.311	32.67
660.499	33.2
660.687	33.09
660.875	33.4
661.063	33.82
661.251	33.99
661.439	33.91
661.627	33.67
661.814	34.12
662.002	34.17
662.19	34.52
662.378	34.4
662.565	34
662.753	33.98
662.941	33.73
663.129	33.78
663.316	33.68
663.504	34.1
663.692	34.11
663.879	34.05
664.067	34.03
664.254	34.1
664.442	34.48
664.63	34.44
664.817	34.55
665.005	34.58
665.192	34.18
665.38	34.35
665.567	33.93
665.755	33.8
665.942	33.84
666.13	33.42
666.317	32.96
666.504	32.77
666.692	32.92
666.879	32.9
667.067	32.86
667.254	33.26
667.441	32.78
667.629	32.73
667.816	33.42
668.003	32.86
668.19	33.15
668.378	33.45
668.565	33.35
668.752	33.27
668.939	33.55
669.127	33.87
669.314	33.6
669.501	34.14
669.688	34.35
669.875	33.74
670.062	33.95
670.249	34.27
670.436	33.88
670.623	33.77
670.81	33.6
670.997	33.59
671.184	33.62
671.371	33.88
671.558	33.56
671.745	33.36
671.932	33.12
672.119	33.16
672.306	33.19
672.493	32.92
672.68	32.84
672.867	32.9
673.054	32.42
673.24	32.34
673.427	32.22
673.614	32.04
673.801	32.35
673.988	32.72
674.174	32.48
674.361	32.15
674.548	32.55
674.734	32.78
674.921	32.84
675.108	33.07
675.294	33.29
675.481	33.07
675.668	33.32
675.854	33.09
676.041	33.06
676.227	33.85
676.414	33.8
676.601	33.44
676.787	33.01
676.974	33.04
677.16	33.13
677.347	32.7
677.533	33.09
677.719	33.6
677.906	33.86
678.092	33.57
678.279	33.1
678.465	33.45
678.651	33.73
678.838	34.31
679.024	34.11
679.21	33.95
679.397	34.11
679.583	33.68
679.769	33.47
679.955	33.34
680.142	33.6
680.328	33.47
680.514	33.01
680.7	33.22
680.886	32.9
681.073	33.18
681.259	33.19
681.445	33.33
681.631	33.63
681.817	33.57
682.003	33.67
682.189	33.89
682.375	34.12
682.561	34.13
682.747	33.74
682.933	33.88
683.119	33.27
683.305	33.41
683.491	33.26
683.677	33.68
683.863	33.86
684.049	33.83
684.235	33.4
684.42	33.67
684.606	33.97
684.792	34.27
684.978	34.43
685.164	35.05
685.349	35.11
685.535	34.9
685.721	34.58
685.907	34.36
686.092	34.34
686.278	34.67
686.464	34.3
686.649	34.28
686.835	33.83
687.021	33.75
687.206	33.06
687.392	33.42
687.577	34.02
687.763	33.45
687.948	33.36
688.134	33.42
688.319	33.27
688.505	33.2
688.69	33.27
688.876	33.92
689.061	33.44
689.247	34.18
689.432	33.55
689.618	33.43
689.803	33.64
689.988	33.54
690.174	33.46
690.359	33.45
690.544	33.33
690.73	33.53
690.915	33.15
691.1	33.14
691.285	32.93
691.471	33.27
691.656	33.31
691.841	33.9
692.026	33.98
692.211	34.06
692.396	33.89
692.582	34.05
692.767	33.27
692.952	33.47
693.137	33.88
693.322	34.1
693.507	34.18
693.692	33.76
693.877	33.46
694.062	33.15
694.247	33.46
694.432	33.53
694.617	34.18
694.802	34.92
694.987	34.47
695.172	34.79
695.357	34.57
695.541	33.94
695.726	33.68
695.911	33.33
696.096	33.91
696.281	33.88
696.466	34.34
696.65	34.21
696.835	33.95
697.02	34.07
697.204	33.55
697.389	33.62
697.574	33.88
697.759	34.13
697.943	34.27
698.128	34.49
698.312	34.64
698.497	34.29
698.682	33.91
698.866	33.89
699.051	33.88
699.235	34.11
699.42	34.33
699.604	34.23
699.789	34.3
699.973	33.93
700.158	33.51
700.342	33.39
700.527	33.57
700.711	33.83
700.895	34.08
701.08	34.32
701.264	34.43
701.448	33.93
701.633	34.2
701.817	33.95
702.001	34.42
702.186	34.53
702.37	34.11
702.554	33.99
702.738	34.1
702.923	33.81
703.107	33.43
703.291	33.26
703.475	33.95
703.659	33.22
703.843	33.4
704.027	33.43
704.212	33.58
704.396	33.85
704.58	33.11
704.764	32.3
704.948	32.63
705.132	32.97
705.316	32.86
705.5	32.71
705.684	33.06
705.868	33.05
706.052	33.1
706.235	32.72
706.419	32.56
706.603	33.41
706.787	34.32
706.971	33.75
707.155	33.35
707.339	34.08
707.522	34.3
707.706	34.44
707.89	34.56
708.074	34.51
708.257	34.42
708.441	34.88
708.625	34.68
708.808	34.57
708.992	34.91
709.176	35.19
709.359	35
709.543	34.85
709.727	34.66
709.91	34.16
710.094	34.55
710.277	34.76
710.461	34.7
710.644	34.87
710.828	33.96
711.011	34.04
711.195	33.94
711.378	33.74
711.562	33.52
711.745	33.08
711.928	33.43
712.112	33.22
712.295	33.53
712.478	33.24
712.662	32.86
712.845	33.42
713.028	33.33
713.212	32.92
713.395	33.38
713.578	33.35
713.761	33.57
713.945	33.19
714.128	33.23
714.311	33.1
714.494	33.25
714.677	33.8
714.86	33.63
715.043	33.85
715.227	34.34
715.41	34.02
715.593	33.95
715.776	34.22
715.959	34.61
716.142	34.35
716.325	34.73
716.508	34.38
716.691	34.91
716.874	34.72
717.057	34.07
717.239	34.24
717.422	34.25
717.605	33.94
717.788	34.23
717.971	34.21
718.154	34.58
718.337	34.02
718.519	34.42
718.702	33.42
718.885	33.64
719.068	33.83
719.25	32.79
719.433	32.58
719.616	33.36
719.798	33.2
719.981	33.43
720.164	33.18
720.346	32.81
720.529	31.46
720.712	31.83
720.894	31.87
721.077	31.68
721.259	32.81
721.442	33.08
721.624	32.31
721.807	32.95
721.989	32.57
722.172	32.56
722.354	32.74
722.537	33.96
722.719	33.58
722.901	34.38
723.084	34.73
723.266	34.56
723.448	34.1
723.631	34.06
723.813	32.99
723.995	33.68
724.178	33.34
724.36	33.55
724.542	33.18
724.724	33.35
724.907	32.05
725.089	31.52
725.271	31.21
725.453	31.15
725.635	31.64
725.817	32.77
725.999	31.88
726.181	32.24
726.364	32.2
726.546	32.03
726.728	31.26
726.91	31.41
727.092	31.52
727.274	31.94
727.456	32.91
727.638	32.92
727.819	32.37
728.001	32.65
728.183	32.85
728.365	32.48
728.547	32.81
728.729	34.28
728.911	35.17
729.093	35
729.274	34.74
729.456	34.29
729.638	33.88
729.82	33.74
730.001	33.49
730.183	33.52
730.365	34.29
730.546	34.49
730.728	34.34
730.91	34.41
731.091	34.6
731.273	34.62
731.455	33.28
731.636	33.39
731.818	33.43
731.999	32.85
732.181	33.64
732.362	33.61
732.544	33.49
732.725	33.43
732.907	32.45
733.088	32.4
733.27	32.7
733.451	33.35
733.633	32.45
733.814	33.51
733.995	34.29
734.177	32.61
734.358	32.24
734.539	31.5
734.721	31.5
734.902	31.94
735.083	32
735.264	31.88
735.446	32.11
735.627	33.37
735.808	32.39
735.989	32.04
736.17	32.34
736.351	32.7
736.533	33.39
736.714	33.55
736.895	33.02
737.076	33.02
737.257	32.19
737.438	32.46
737.619	31.52
737.8	31.26
737.981	32.27
738.162	33.08
738.343	32.78
738.524	31.83
738.705	30.88
738.886	30.61
739.067	30.53
739.247	31.16
739.428	30.31
739.609	31.05
739.79	30.5
739.971	30.05
740.151	29.16
740.332	28.69
740.513	30.1
740.694	29.01
740.874	28.9
741.055	28.64
741.236	29.03
741.417	29.65
741.597	29.34
741.778	30.44
741.958	29.55
742.139	29.84
742.32	29.75
742.5	29.68
742.681	30.52
742.861	30.87
743.042	31.73
743.222	31.02
743.403	31.75
743.583	32.21
743.764	32.03
743.944	33.43
744.124	33.55
744.305	33.98
744.485	33.68
744.666	33.4
744.846	33.82
745.026	33.7
745.207	34.44
745.387	34.13
745.567	33.4
745.747	32.13
745.928	31.03
746.108	31.86
746.288	31.45
746.468	31.22
746.648	31.7
746.829	32.02
747.009	31.7
747.189	31.49
747.369	30.47
747.549	30.55
747.729	31.54
747.909	31.32
748.089	31.02
748.269	31.34
748.449	31.84
748.629	32.48
748.809	32.6
748.989	31.82
749.169	32.98
749.349	32.93
749.529	32.97
749.709	33.13
749.889	32.88
750.068	31.12
750.248	31.16
750.428	30.35
750.608	29.71
750.788	29.97
750.967	31.05
751.147	30.2
751.327	30.23
751.507	31.09
751.686	30.88
751.866	31.28
752.046	33.36
752.225	34.63
752.405	35.34
752.585	34.89
752.764	32.87
752.944	33.57
753.123	32.94
753.303	32.97
753.482	32.14
753.662	32.88
753.841	33.26
754.021	31.89
754.2	31.26
754.38	30.27
754.559	31.54
754.739	32.93
754.918	31.68
755.097	31.09
755.277	31.4
755.456	31.97
755.635	31.53
755.815	31.08
755.994	31.64
756.173	31.12
756.352	32.12
756.532	31.67
756.711	31.64
756.89	31.73
757.069	33.52
757.248	33.08
757.427	32.55
757.607	32.05
757.786	33.07
757.965	32.84
758.144	32.56
758.323	33.08
758.502	32.27
758.681	32.29
758.86	33.49
759.039	32.17
759.218	32.9
759.397	34.31
759.576	34.59
759.755	33.38
759.934	33.82
760.113	34.46
760.291	34.37
760.47	35.33
760.649	35.69
760.828	34.76
761.007	35.94
761.186	35.18
761.364	34.34
761.543	34.25
761.722	34.78
761.901	34.43
762.079	35.41
762.258	35
762.437	35.81
762.615	35.18
762.794	36.04
762.972	35.17
763.151	35.82
763.33	35.3
763.508	35.22
763.687	35.79
763.865	35.84
764.044	34.72
764.222	34.15
764.401	33.22
764.579	33.1
764.758	33.21
764.936	32.65
765.114	31.78
765.293	32.37
765.471	32.92
765.65	32.6
765.828	33.09
766.006	33.55
766.184	33.48
766.363	33.45
766.541	34.03
766.719	33.39
766.898	33.53
767.076	34.56
767.254	33.81
767.432	33.36
767.61	33.12
767.788	32.53
767.967	30.81
768.145	31.39
768.323	31.45
768.501	31.11
768.679	30
768.857	30.24
769.035	29.64
769.213	30.32
769.391	30.37
769.569	30.73
769.747	30.45
769.925	32.86
770.103	32.31
770.281	32.8
770.459	32.33
770.636	32.59
770.814	33.76
770.992	33.3
771.17	33.06
771.348	33.37
771.525	32.44
771.703	34.93
771.881	32.22
772.059	31.5
772.236	30.59
772.414	31.2
772.592	30.32
772.769	28.56
772.947	28.77
773.125	28.2
773.302	25.88
773.48	25.08
773.657	22.35
773.835	23.9
774.013	25.97
774.19	24.17
774.368	24.08
774.545	24.66
774.723	27.19
774.9	27.24
775.077	28.66
775.255	29.05
775.432	29.1
775.61	29.6
775.787	31.24
775.964	30.4
776.142	32.05
776.319	30.34
776.496	31.55
776.674	30.47
776.851	30.1
777.028	29.02
777.205	29.69
777.382	31.06
777.56	31.3
777.737	28.31
777.914	28.06
778.091	27.4
778.268	26.98
778.445	27.02
778.622	27.09
778.8	26.84
778.977	27.35
779.154	45.38
779.331	44.64
779.508	45.51
779.685	46.58
779.862	47.04
780.038	47.42
780.215	48.02
780.392	48.47
780.569	46.72
780.746	49.04
780.923	46.69
781.1	25.34
781.277	26.77
781.453	26.16
781.63	24.28
781.807	24.58
781.984	27.3
782.16	29.65
782.337	28.47
782.514	30.59
782.691	30.88
782.867	32.16
783.044	33.91
783.221	34.64
783.397	33.22
783.574	34.4
783.75	33.34
783.927	30.65
784.103	30.27
784.28	27.54
784.456	26.8
784.633	24.85
784.809	25.85
784.986	26.61
785.162	24.2
785.339	24.21
785.515	23.46
785.692	25.18
785.868	25.92
786.044	24.81
786.221	23.49
786.397	22.24
786.573	20.53
786.749	20.51
786.926	20.79
787.102	20.79
787.278	21.71
787.454	23.67
787.631	23.14
787.807	24.89
787.983	25.66
788.159	30.45
788.335	31.84
788.511	33.64
788.687	32.95
788.863	31.39
789.039	31.79
789.216	30.42
789.392	29.33
789.568	26.25
789.744	23.83
789.919	24.74
790.095	24.09
790.271	23.4
790.447	24.35
790.623	24.9
790.799	26.15
790.975	27.56
791.151	27.86
791.327	28.69
791.502	31.78
791.678	34.15
791.854	32.55
792.03	34.58
792.205	34.94
792.381	33.77
792.557	34.8
792.733	36.18
792.908	35.6
793.084	34.9
793.259	33.89
793.435	33.52
793.611	32.09
793.786	32.34
793.962	28.3
794.137	28.32
794.313	27.21
794.488	25.35
794.664	22.53
794.839	19.88
795.015	19.6
795.19	21.86
795.366	20.54
795.541	18.3
795.716	17.54
795.892	19.2
796.067	19.03
796.242	20.66
796.418	21.16
796.593	20.73
796.768	20.51
796.944	22.78
797.119	22.9
797.294	22.76
797.469	26.16
797.644	26.48
797.82	24.77
797.995	25.07
798.17	24.8
798.345	23.07
798.52	24.74
798.695	26.63
798.87	27.24
799.045	26.76
799.22	28.16
799.395	27.2
799.57	26.52
799.745	28.83
799.92	30.49
800.095	29.82
800.27	31.26
800.445	30.96
800.62	30.07
800.795	27.55
800.97	26.86
801.145	25.05
801.319	24.65
801.494	22.97
801.669	20.31
801.844	20.09
802.018	21.21
802.193	22.23
802.368	23.62
802.543	24.78
802.717	24.08
802.892	23.21
803.067	24.17
803.241	26.4
803.416	30.33
803.59	29.59
803.765	26.55
803.94	24.15
804.114	23.16
804.289	21.83
804.463	21.26
804.638	21.29
804.812	21.2
804.986	18.4
805.161	17.29
805.335	13.11
805.51	16.14
805.684	12.17
805.858	11.59
806.033	11.1
806.207	11.7
806.381	10.42
806.556	10.44
806.73	10.76
806.904	12.37
807.078	9.07
807.253	11.53
807.427	7.84
807.601	13.78
807.775	16.27
807.949	18.36
808.123	14
808.298	11.37
808.472	14.61
808.646	15.99
808.82	16.43
808.994	19.45
809.168	20.01
809.342	23.11
809.516	21.98
809.69	19.64
809.864	20.88
810.038	23.55
810.212	27.93
810.385	27.73
810.559	26.97
810.733	27.59
810.907	25.78
811.081	24.51
811.255	22.13
811.428	21.98
811.602	25.5
811.776	23.24
811.95	22.2
812.123	25.25
812.297	24.43
812.471	26.08
812.644	26.81
812.818	25.89
812.992	25.33
813.165	27.79
813.339	31.04
813.512	29.62
813.686	29.92
813.86	31.46
814.033	25.74
814.207	28.18
814.38	26.57
814.554	25.54
814.727	23.49
814.9	22.17
815.074	20.62
815.247	19.61
815.421	21.19
815.594	20.19
815.767	19.91
815.941	20.26
816.114	18.89
816.287	16.6
816.46	15.96
816.634	17.97
816.807	19.74
816.98	21.74
817.153	22.8
817.327	17.68
817.5	19.26
817.673	22.4
817.846	24.15
818.019	25.53
818.192	27.12
818.365	29.46
818.538	31.63
818.711	30.78
818.884	30
819.057	26.71
819.23	29.26
819.403	29.4
819.576	26.47
819.749	29.19
819.922	26.27
820.095	26.32
820.268	23.69
820.441	24.7
820.614	25.49
820.786	27.17
820.959	27.21
821.132	28.54
821.305	29.28
821.477	29.48
821.65	28.83
821.823	29.75
821.996	30.87
822.168	32.23
822.341	34.16
822.514	35.07
822.686	34.7
822.859	35.32
823.031	36.01
823.204	35.57
823.376	36.03
823.549	36.28
823.722	36.12
823.894	36.16
824.067	35.62
824.239	33.76
824.411	33.61
824.584	33.88
824.756	34.31
824.929	33.71
825.101	33.92
825.273	34.29
825.446	33.55
825.618	34.78
825.79	34.62
825.963	34.85
826.135	35.74
826.307	35.71
826.479	35.79
826.652	35.58
826.824	35.11
826.996	35.08
827.168	34.83
827.34	35.18
827.512	34.41
827.684	34.4
827.856	35.68
828.029	36.09
828.201	35.94
828.373	33.58
828.545	32.73
828.717	32.98
828.889	34.03
829.061	34.2
829.232	33.28
829.404	33.24
829.576	31.28
829.748	29.31
829.92	26.47
830.092	25.39
830.264	27.93
830.436	28.76
830.607	29.59
830.779	27.26
830.951	26.91
831.123	26.74
831.294	26.73
831.466	27.41
831.638	27.58
831.809	29.18
831.981	29.73
832.153	32.33
832.324	32.36
832.496	31.84
832.667	30.06
832.839	28.54
833.011	31.78
833.182	29.22
833.354	32.29
833.525	33.41
833.697	33.17
833.868	32.6
834.039	29.99
834.211	30.68
834.382	28.68
834.554	29.64
834.725	30.01
834.896	29.07
835.068	29.96
835.239	28.64
835.41	28.29
835.581	29.52
835.753	28.95
835.924	29.18
836.095	28.3
836.266	29.27
836.438	29.78
836.609	30.35
836.78	30.25
836.951	29.38
837.122	28.7
837.293	26.74
837.464	25.94
837.635	27.43
837.806	29.1
837.977	27.99
838.148	28.44
838.319	27.72
838.49	26.01
838.661	25.38
838.832	26.36
839.003	26.05
839.174	22.49
839.345	20.56
839.516	20.52
839.687	12.9
839.857	10.5
840.028	6.38
840.199	8.04
840.37	6.6
840.54	7.25
840.711	6.29
840.882	7.55
841.053	8.59
841.223	5.74
841.394	1.76
841.564	8.92
841.735	10
841.906	7.51
842.076	5.96
842.247	6.46
842.417	2.89
842.588	-1.24
842.758	-4.07
842.929	-1.43
843.099	3.95
843.27	5.58
843.44	-5
843.611	-2.63
843.781	-0.71
843.951	-2.03
844.122	-3.05
844.292	0.45
844.462	3.17
844.633	5.2
844.803	5.95
844.973	3.75
845.144	9.54
845.314	16.91
845.484	11.57
845.654	11.35
845.824	1.42
845.995	2.76
846.165	2.48
846.335	4.92
846.505	-5.26
846.675	-4.66
846.845	-2.35
847.015	-10.25
847.185	-3.16
847.355	-2.58
847.525	-4.96
847.695	-6.64
847.865	-6.7
848.035	-7.69
848.205	-6.79
848.375	1.67
848.545	-1.58
848.715	-0.44
848.884	-5.73
849.054	-26.61
849.224	-29.83
849.394	-22.07
849.564	-14.55
849.733	-29.71
849.903	-20.07
850.073	-34.27
850.243	-37.55
850.412	-46.32
850.582	-60.02
850.752	-76.62
850.921	-50.7
851.091	-40.4
851.26	-36.79
851.43	-46.76
851.599	-17.24
851.769	-34.63
851.939	-29.97
852.108	-37.6
852.278	-9.14
852.447	-12.84
852.616	-1.44
852.786	-4.16
852.955	-2.94
853.125	-16.54
853.294	-9.16
853.463	-8.02
853.633	-8.77
853.802	1.96
853.971	13.65
854.141	2.8
854.31	14.06
854.479	6.6
854.648	10.75
854.818	11.98
854.987	13.63
855.156	9.91
855.325	11.46
855.494	12.73
855.663	4.5
855.832	1.09
856.001	-2.26
856.171	-5.28
856.34	-9.65
856.509	-21.84
856.678	-31.73
856.847	-19.99
857.016	2.81
857.185	6.49
857.353	14.88
857.522	5.97
857.691	11.96
857.86	19.66
858.029	18.47
858.198	24.11
858.367	31.44
858.535	28.13
858.704	6.54
858.873	-22.4
859.042	-56.95
859.21	-94.7
859.379	-83.29
859.548	-107.85
859.717	-105.31
859.885	-86.08
860.054	-75.38
860.222	-63.85
860.391	-64.72
860.56	-79.05
860.728	-51.82
860.897	-34.26
861.065	-37.68
861.234	-22.84
861.402	-14.89
861.571	-12.17
861.739	-35.66
861.908	-37.53
862.076	-47.73
862.244	-27.03
862.413	-9.51
862.581	-20.48
862.749	-11.03
862.918	-14
863.086	-36.86
863.254	-33.1
863.423	-66.6
863.591	-27.19
863.759	-60.33
863.927	-51.2
864.096	-59.89
864.264	-133.54
864.432	-91.58
864.6	-133.5
864.768	-75.32
864.936	-66.66
865.104	-70.83
865.272	-60.83
865.44	-77.23
865.608	-37.94
865.776	-64.19
865.944	-62.8
866.112	-28.24
866.28	-8.42
866.448	0.77
866.616	6.96
866.784	10.6
866.952	-4.78
867.12	-11.54
867.288	-25.06
867.455	-54.87
867.623	-60.41
867.791	-40.9
867.959	-64.4
868.127	-136.45
868.294	-112.29
868.462	-106.38
868.63	-74.83
868.797	-63.08
868.965	-58.11
869.133	-33.95
869.3	-22.52
869.468	-1.64
869.636	-9.38
869.803	3.36
869.971	12.87
870.138	9.52
870.306	4.26
870.473	10.84
870.641	11.35
870.808	18.9
870.975	0.08
871.143	-8.49
871.31	-31.2
871.478	-42.14
871.645	-57.44
871.812	-57.8
871.98	-47.35
872.147	-47.87
872.314	-50.75
872.482	-42.52
872.649	-57.42
872.816	-19.51
872.983	-9.71
873.15	-2.54
873.318	-14.46
873.485	-9.86
873.652	-17.27
873.819	-3.31
873.986	-14.9
874.153	-16.39
874.32	-18.5
874.487	-22.01
874.654	-30.78
874.821	-48.34
874.988	-33.63
875.155	-10.21
875.322	-11.18
875.489	-15.1
875.656	-23.22
875.823	-23.69
875.99	-11.13
876.157	-7.53
876.324	0.88
876.49	-7.98
876.657	-8.53
876.824	-21.99
876.991	-29.63
877.157	-29.64
877.324	-22.28
877.491	-24.39
877.658	-6.96
877.824	-18.98
877.991	-24.89
878.157	-55.9
878.324	-34.99
878.491	-13.77
878.657	7.7
878.824	23.2
878.99	16.98
879.157	2.72
879.323	0.26
879.49	1.59
879.656	2.55
879.823	10.72
879.989	27.51
880.156	17.64
880.322	12.86
880.488	10.37
880.655	15.96
880.821	23.42
880.987	23.56
881.154	18
881.32	23.22
881.486	26.23
881.652	27.83
881.819	26.41
881.985	28.61
882.151	31.58
882.317	32.27
882.483	28.59
882.649	25.87
882.816	27.43
882.982	29.52
883.148	27.1
883.314	25.49
883.48	23.82
883.646	24.28
883.812	22.6
883.978	20.6
884.144	20.15
884.31	21.05
884.476	21.82
884.642	22.49
884.807	22.83
884.973	23.05
885.139	23.62
885.305	24.25
885.471	24.98
885.637	27.97
885.802	26.37
885.968	26.98
886.134	26.77
886.3	28.51
886.465	26.59
886.631	27.31
886.797	27.47
886.962	28.32
887.128	27.21
887.293	23.57
887.459	22.18
887.625	26.3
887.79	24.69
887.956	21.46
888.121	14.85
888.287	16.1
888.452	14.43
888.618	8.42
888.783	1.94
