Data from CB_018_Reflection_2.txt Node
Date: Wed Nov 11 19:59:11 EST 2015
User: robert
Spectrometer: USB4E03001
Autoset integration time: false
Trigger mode: 4
Integration Time (sec): 1.000000E-1
Scans to average: 15
Electric dark correction enabled: true
Nonlinearity correction enabled: false
Boxcar width: 5
Stray light correction enabled: false
XAxis mode: Wavelengths
Stop averaging: false
Number of Pixels in Spectrum: 3648
>>>>>Begin Spectral Data<<<<<
177.566	-51.93
177.785	-49.41
178.005	61.81
178.225	176.96
178.445	115.36
178.665	-27.94
178.885	426.18
179.105	1213.04
179.324	159
179.544	177.81
179.764	-183.79
179.984	-235.42
180.204	8380
180.423	104.98
180.643	-48.57
180.863	165.11
181.083	83.41
181.302	57.91
181.522	229.95
181.742	-514.63
181.961	-102.87
182.181	-413.53
182.401	-121.37
182.621	178.37
182.84	130.64
183.06	166.81
183.279	100.17
183.499	49.43
183.719	60.08
183.938	29.74
184.158	28.82
184.377	77.9
184.597	68.21
184.816	30.02
185.036	-69.2
185.256	-37.29
185.475	-58.64
185.695	-30.59
185.914	-33.41
186.134	-864.86
186.353	2279.23
186.572	230.61
186.792	256.27
187.011	602.38
187.231	568.67
187.45	163.53
187.67	127.62
187.889	157.74
188.108	162.14
188.328	188.73
188.547	318.78
188.766	423.41
188.986	1754.33
189.205	2704.5
189.424	818.69
189.644	359.98
189.863	296.33
190.082	1258.47
190.302	210.17
190.521	216.89
190.74	183.18
190.959	211.97
191.178	134.74
191.398	223.1
191.617	207.9
191.836	380.29
192.055	107.02
192.274	235.27
192.494	251.16
192.713	579.14
192.932	916.58
193.151	-14.29
193.37	88.93
193.589	72.35
193.808	135.27
194.027	174.13
194.246	616.6
194.465	130.43
194.685	212.86
194.904	139.23
195.123	276.71
195.342	122.7
195.561	436.29
195.78	2172.82
195.999	237.57
196.218	225.2
196.436	429.81
196.655	-173.51
196.874	97.35
197.093	-68.41
197.312	60.86
197.531	54.9
197.75	41.26
197.969	176.08
198.188	311.04
198.407	111.76
198.625	206.42
198.844	302.21
199.063	-583.2
199.282	-257.97
199.501	-103.95
199.719	158.51
199.938	30.8
200.157	540.19
200.376	123.5
200.594	274.06
200.813	8.25
201.032	-15.37
201.251	34.92
201.469	126.68
201.688	37.01
201.907	175.92
202.125	172.09
202.344	419.8
202.563	111.5
202.781	223.34
203	133.57
203.218	101.78
203.437	213.3
203.656	280.82
203.874	211.62
204.093	531.7
204.311	166.73
204.53	54.35
204.748	32.47
204.967	119.81
205.185	1236.19
205.404	56.77
205.622	53.57
205.841	82.49
206.059	59.47
206.278	63.3
206.496	54.49
206.715	40.75
206.933	3.15
207.151	-57.15
207.37	-52.8
207.588	-91.94
207.806	-27.4
208.025	51.63
208.243	73.63
208.461	16.25
208.68	33.82
208.898	-89.36
209.116	88.79
209.335	404.83
209.553	120.02
209.771	345.23
209.989	-312.39
210.208	-5.23
210.426	57.07
210.644	193.23
210.862	353.8
211.081	209.45
211.299	107.53
211.517	71.78
211.735	279.54
211.953	80.08
212.171	222.92
212.39	-1251.47
212.608	-145.2
212.826	-59.03
213.044	38.71
213.262	25.96
213.48	90.95
213.698	46.34
213.916	-37.68
214.134	19.13
214.352	25.41
214.57	102.76
214.788	106.15
215.006	74.06
215.224	41.58
215.442	172.92
215.66	-22.69
215.878	180.91
216.096	55.61
216.314	46.84
216.532	146.45
216.75	159.08
216.968	132.5
217.185	96.56
217.403	26.37
217.621	52.88
217.839	70.66
218.057	158.39
218.275	149.22
218.492	-413.78
218.71	210.98
218.928	142.72
219.146	216.96
219.363	1127.61
219.581	-598.2
219.799	-185.53
220.017	-267.11
220.234	-171.01
220.452	-190.26
220.67	-416.77
220.887	2715.03
221.105	-340.99
221.323	-21
221.54	-5.71
221.758	-156.34
221.976	-4.75
222.193	15.43
222.411	9.55
222.629	0.03
222.846	-23.04
223.064	2.58
223.281	43.35
223.499	17.71
223.716	-27.77
223.934	-49.98
224.151	1.65
224.369	-3.56
224.586	5.26
224.804	-10.55
225.021	-12.53
225.239	-36.88
225.456	-36.57
225.674	-45.74
225.891	-42.98
226.108	-48.98
226.326	-18.56
226.543	-15.78
226.76	1.46
226.978	0.49
227.195	16.69
227.413	27.39
227.63	28.84
227.847	21.32
228.064	16.91
228.282	17.16
228.499	14.35
228.716	13.19
228.934	13.19
229.151	10.52
229.368	9.16
229.585	5.35
229.802	-0.99
230.02	-4.25
230.237	-1.46
230.454	-0.91
230.671	-6.31
230.888	1.44
231.105	3.02
231.323	1.34
231.54	4.13
231.757	6.61
231.974	8.35
232.191	7.86
232.408	4.19
232.625	8.88
232.842	14.69
233.059	15.81
233.276	13.96
233.493	6.38
233.71	2.61
233.927	4.23
234.144	-5.75
234.361	-1.29
234.578	-0.73
234.795	-1.97
235.012	-0.99
235.229	-7.05
235.446	-3.94
235.663	-14.31
235.879	-4.9
236.096	7.26
236.313	-1.57
236.53	-4.13
236.747	-1.65
236.964	1.35
237.181	4.5
237.397	1.95
237.614	2.65
237.831	1.27
238.048	-0.4
238.264	-5.91
238.481	-14.42
238.698	-19.96
238.915	-3
239.131	-5.84
239.348	-4.96
239.565	1.81
239.781	-0.95
239.998	-1
240.215	7.65
240.431	11.15
240.648	11.98
240.865	10.86
241.081	10.2
241.298	7.47
241.514	9.69
241.731	10.7
241.947	9.46
242.164	8.69
242.38	9.31
242.597	5.27
242.814	5.75
243.03	7.13
243.246	7.49
243.463	9.12
243.679	8.16
243.896	6.86
244.112	7.78
244.329	9.2
244.545	8.3
244.762	6.6
244.978	9.62
245.194	10.33
245.411	7.66
245.627	6.19
245.843	7.56
246.06	7.08
246.276	7.77
246.492	4.75
246.709	4.42
246.925	5.99
247.141	7.11
247.357	6.4
247.574	6.11
247.79	6.05
248.006	5.77
248.222	5.73
248.439	6.02
248.655	5.06
248.871	6.31
249.087	5.8
249.303	5.66
249.519	6.49
249.736	5.53
249.952	3.92
250.168	5.25
250.384	9.31
250.6	7.51
250.816	7.61
251.032	9.36
251.248	11.21
251.464	11.43
251.68	11.41
251.896	7.16
252.112	8.78
252.328	9.66
252.544	7.37
252.76	5.8
252.976	9.65
253.192	10.53
253.408	8.07
253.624	7.39
253.84	8.12
254.056	5.59
254.272	7.68
254.487	8.75
254.703	8.83
254.919	11.39
255.135	8.58
255.351	0.51
255.567	2.15
255.782	5.95
255.998	5.33
256.214	1.04
256.43	-1.82
256.646	-2.67
256.861	-4.01
257.077	-3.01
257.293	-5.9
257.508	-4.06
257.724	-1.62
257.94	-3.15
258.155	-1.19
258.371	-1.2
258.587	1.7
258.802	3.25
259.018	3.34
259.234	2.17
259.449	3.04
259.665	3.88
259.88	4.57
260.096	4.38
260.312	5.05
260.527	3.55
260.743	3.96
260.958	2.83
261.174	4.08
261.389	3.25
261.605	5.01
261.82	3.87
262.036	4.62
262.251	2.57
262.466	4.22
262.682	3.62
262.897	4.43
263.113	6.1
263.328	7.18
263.543	5.32
263.759	7.57
263.974	5.63
264.189	5.79
264.405	6.38
264.62	7.95
264.835	6.78
265.051	5.97
265.266	8.62
265.481	6.02
265.696	6.37
265.912	6.9
266.127	5.6
266.342	5.71
266.557	5.78
266.773	3.75
266.988	3.38
267.203	1.01
267.418	1.57
267.633	0.92
267.848	2.27
268.064	1.45
268.279	1.58
268.494	2.33
268.709	2.83
268.924	3.03
269.139	4.04
269.354	4.24
269.569	4.31
269.784	3.27
269.999	4.17
270.214	3.38
270.429	3.42
270.644	3.35
270.859	2.71
271.074	3.13
271.289	4.62
271.504	5.6
271.719	4.8
271.934	4.86
272.149	5.84
272.363	4.92
272.578	4.58
272.793	4.98
273.008	4.39
273.223	4
273.438	1.46
273.653	0.34
273.867	-2.18
274.082	-1.45
274.297	-0.19
274.512	-0.38
274.726	-0.16
274.941	-0.83
275.156	-1.12
275.371	-0.63
275.585	0.04
275.8	1.15
276.015	0.77
276.229	4.44
276.444	6.31
276.659	5.46
276.873	4.35
277.088	2.86
277.302	2.54
277.517	3.96
277.732	3.43
277.946	5.54
278.161	6.71
278.375	6.37
278.59	4.77
278.804	1
279.019	1.95
279.233	1.98
279.448	3.63
279.662	5.76
279.877	5.66
280.091	5.68
280.306	4.61
280.52	5.31
280.735	4.71
280.949	3.62
281.163	6.16
281.378	6.28
281.592	7.1
281.806	5.98
282.021	6.69
282.235	4.99
282.449	4.35
282.664	4.52
282.878	3.92
283.092	3.88
283.307	2.89
283.521	2
283.735	1.36
283.949	0.9
284.164	0.49
284.378	-0.02
284.592	0.98
284.806	0.65
285.02	0.5
285.234	0.96
285.449	0.78
285.663	2.25
285.877	2.85
286.091	3.35
286.305	3.58
286.519	4.8
286.733	4.7
286.947	5.2
287.161	5.97
287.375	5.93
287.589	5.36
287.803	5.22
288.017	5.45
288.231	4.57
288.445	5.13
288.659	4.93
288.873	4.31
289.087	3.17
289.301	2
289.515	2.3
289.729	2.16
289.943	2.05
290.157	3.27
290.371	3.48
290.584	4.75
290.798	4.51
291.012	3.64
291.226	3.47
291.44	3.75
291.654	3.9
291.867	2.96
292.081	2.92
292.295	3.77
292.509	3.24
292.722	2.21
292.936	2.59
293.15	1.59
293.364	2.74
293.577	3.43
293.791	4.06
294.005	5.19
294.218	6.68
294.432	7.42
294.645	8.32
294.859	8.59
295.073	9.6
295.286	9.1
295.5	9.67
295.713	9.62
295.927	9.89
296.14	8.91
296.354	8.72
296.568	8.47
296.781	7.97
296.994	7.62
297.208	7.96
297.421	8.27
297.635	8.71
297.848	8.72
298.062	9.15
298.275	10.03
298.489	10.55
298.702	10.87
298.915	11.04
299.129	11.45
299.342	11.29
299.555	12.07
299.769	10.99
299.982	9.83
300.195	9.32
300.409	9.48
300.622	8.28
300.835	8.32
301.048	8.24
301.262	6.84
301.475	7.01
301.688	7.41
301.901	6.07
302.115	6.04
302.328	7.42
302.541	10.07
302.754	9.19
302.967	9.62
303.18	10.26
303.393	10.51
303.607	11.93
303.82	12.45
304.033	12.22
304.246	12.34
304.459	12.66
304.672	11.57
304.885	9.43
305.098	10.1
305.311	9.87
305.524	9.26
305.737	9.37
305.95	9.83
306.163	8.64
306.376	8.26
306.589	8.52
306.802	8.94
307.015	9.31
307.228	10.4
307.44	10.36
307.653	9.44
307.866	9.22
308.079	8.5
308.292	6.5
308.505	6.07
308.718	5.9
308.93	5.37
309.143	6.05
309.356	7.08
309.569	7.21
309.781	6.78
309.994	7.73
310.207	8.83
310.42	9
310.632	9.91
310.845	10.85
311.058	12.01
311.27	13.62
311.483	13.24
311.696	12.28
311.908	12.33
312.121	12.28
312.333	11.87
312.546	11.13
312.759	11
312.971	11.72
313.184	12.26
313.396	10.74
313.609	10.33
313.821	10.08
314.034	11.28
314.246	9.79
314.459	10.38
314.671	10.41
314.884	10.86
315.096	11.17
315.309	11.72
315.521	10.73
315.733	10.89
315.946	9.51
316.158	9.5
316.371	7.69
316.583	9.05
316.795	8.96
317.008	9.25
317.22	8.71
317.432	9.65
317.644	8.32
317.857	8.82
318.069	9.22
318.281	9.66
318.494	9.88
318.706	11.81
318.918	10.58
319.13	10.62
319.342	11.23
319.555	11.17
319.767	9.93
319.979	9.26
320.191	8.44
320.403	8.72
320.615	9.16
320.827	8.64
321.039	7.62
321.252	8.63
321.464	7.38
321.676	7.16
321.888	8.69
322.1	8.8
322.312	10.41
322.524	11.08
322.736	11.84
322.948	11.4
323.16	11.83
323.372	12.79
323.584	12.14
323.796	13.35
324.007	12.76
324.219	13.06
324.431	12.5
324.643	11.66
324.855	11.78
325.067	10.79
325.279	10.96
325.491	11.17
325.702	10.2
325.914	11.39
326.126	11.39
326.338	12.08
326.55	10.47
326.761	11.76
326.973	12.57
327.185	12.79
327.396	13.24
327.608	12.18
327.82	11.33
328.032	10.9
328.243	8.7
328.455	9.57
328.666	9.6
328.878	11.12
329.09	9.78
329.301	9.41
329.513	8.84
329.725	9.38
329.936	10.47
330.148	11.95
330.359	12.29
330.571	13.21
330.782	13.26
330.994	12.35
331.205	11.6
331.417	12.38
331.628	11.74
331.84	11.59
332.051	11.06
332.262	11.05
332.474	10.97
332.685	10.99
332.897	11.28
333.108	10.1
333.319	11.79
333.531	13.12
333.742	13.8
333.953	14.12
334.165	14.18
334.376	14.26
334.587	14.15
334.799	13.32
335.01	13.98
335.221	14.29
335.432	14.9
335.644	14.12
335.855	13.43
336.066	13.32
336.277	12.85
336.488	12.74
336.7	13.2
336.911	13.88
337.122	12.81
337.333	12.25
337.544	11.69
337.755	10.91
337.966	11.25
338.177	9.77
338.388	10.44
338.599	10.49
338.811	10.26
339.022	9.86
339.233	8.72
339.444	10.04
339.655	10.57
339.866	10.77
340.076	11.95
340.287	11.74
340.498	13.63
340.709	12.1
340.92	12.82
341.131	13.12
341.342	12.72
341.553	12.96
341.764	14
341.975	13.72
342.185	14.76
342.396	14.39
342.607	14.8
342.818	13.98
343.029	15.66
343.239	15.13
343.45	15.48
343.661	15.97
343.872	16.01
344.082	15.41
344.293	15.94
344.504	15.55
344.714	14.91
344.925	15.16
345.136	15.05
345.346	13.51
345.557	13.21
345.768	12.68
345.978	12.3
346.189	12.94
346.399	12.96
346.61	12.69
346.821	12.69
347.031	12.91
347.242	12.12
347.452	12.73
347.663	13.37
347.873	14.28
348.084	14.85
348.294	15.14
348.504	14.55
348.715	14.07
348.925	14.14
349.136	14
349.346	14.23
349.557	14.53
349.767	14.44
349.977	14.55
350.188	13.77
350.398	13.81
350.608	13.84
350.819	13.97
351.029	14.75
351.239	14.15
351.449	14
351.66	13.32
351.87	13.48
352.08	13.3
352.29	13.46
352.501	13.99
352.711	13.45
352.921	13.54
353.131	14.01
353.341	13.45
353.552	13.98
353.762	14.01
353.972	14.89
354.182	14.3
354.392	13.32
354.602	12.88
354.812	12.8
355.022	12.93
355.232	12.62
355.442	12.52
355.652	12.43
355.862	12.29
356.072	12.83
356.282	12.88
356.492	12.89
356.702	13.74
356.912	13.51
357.122	13.35
357.332	13.55
357.542	13.26
357.752	13.64
357.962	14.4
358.171	14.17
358.381	13.51
358.591	12.49
358.801	12.33
359.011	12.3
359.221	12.24
359.43	11.41
359.64	11.16
359.85	11.99
360.06	11.24
360.269	11.07
360.479	10.94
360.689	10.96
360.899	11.71
361.108	12.09
361.318	12.06
361.528	12.32
361.737	12.98
361.947	13.27
362.156	13.21
362.366	13.02
362.576	12.7
362.785	12.77
362.995	13.5
363.204	13.61
363.414	13.33
363.623	13.11
363.833	12.9
364.042	13.16
364.252	12.97
364.461	12.15
364.671	12.15
364.88	11.97
365.09	12.4
365.299	11.91
365.509	11.7
365.718	11.73
365.927	11.62
366.137	11.45
366.346	11.27
366.555	10.7
366.765	10.8
366.974	11.65
367.183	11.44
367.393	11.74
367.602	11.07
367.811	10.59
368.021	10.77
368.23	11.24
368.439	11.67
368.648	11.54
368.857	11.97
369.067	12.34
369.276	11.82
369.485	12.14
369.694	11.44
369.903	11.19
370.112	11.1
370.321	11.07
370.531	11.21
370.74	11.57
370.949	12.03
371.158	11.62
371.367	10.98
371.576	10.77
371.785	10.38
371.994	10.61
372.203	11.34
372.412	12.09
372.621	12.17
372.83	11.71
373.039	10.94
373.248	10.66
373.457	11.48
373.666	11.82
373.874	11.99
374.083	12.84
374.292	12.62
374.501	12.71
374.71	12.45
374.919	12.4
375.128	11.51
375.336	12.18
375.545	12.63
375.754	11.98
375.963	12.24
376.171	12.38
376.38	11.74
376.589	11.81
376.798	11.52
377.006	11.81
377.215	12.12
377.424	12.84
377.632	11.98
377.841	11.25
378.05	11.57
378.258	11.53
378.467	11.02
378.675	10.79
378.884	10.74
379.093	10.42
379.301	9.75
379.51	9.65
379.718	9.67
379.927	10.41
380.135	10.79
380.344	10.85
380.552	10.58
380.761	11.02
380.969	11.05
381.177	10.89
381.386	11.38
381.594	11.5
381.803	10.71
382.011	11.22
382.219	11.02
382.428	10.55
382.636	10.06
382.845	9.95
383.053	9.68
383.261	9.91
383.469	10.16
383.678	10.1
383.886	10.35
384.094	10.77
384.302	10.34
384.511	10.22
384.719	10.53
384.927	10.48
385.135	10.77
385.343	10.86
385.552	11.06
385.76	10.84
385.968	10.74
386.176	10.53
386.384	10.24
386.592	10.05
386.8	10.28
387.008	10.37
387.216	10.43
387.424	10.41
387.633	10.15
387.841	9.93
388.049	9.98
388.257	10.47
388.465	10.72
388.672	10.88
388.88	11.02
389.088	11.23
389.296	11.56
389.504	11.79
389.712	12.1
389.92	12.43
390.128	12.49
390.336	12.52
390.544	11.95
390.751	11.48
390.959	11.53
391.167	11.52
391.375	11.43
391.583	11.1
391.79	11.23
391.998	11.08
392.206	11.37
392.414	11.6
392.621	11.43
392.829	11.76
393.037	12.35
393.244	12.62
393.452	12.26
393.66	12.39
393.867	12.34
394.075	12.38
394.283	12.12
394.49	12.03
394.698	11.93
394.905	12.23
395.113	12.45
395.32	12.18
395.528	11.75
395.735	11.84
395.943	11.45
396.15	11.49
396.358	11.17
396.565	11.56
396.773	11.03
396.98	10.96
397.188	10.73
397.395	10.64
397.602	10.8
397.81	11.1
398.017	11.58
398.225	11.82
398.432	12.11
398.639	12.34
398.847	12.22
399.054	12.65
399.261	12.64
399.468	12.89
399.676	12.44
399.883	12.56
400.09	12.55
400.297	12.51
400.505	12.6
400.712	12.72
400.919	13.04
401.126	13.1
401.333	13.17
401.54	13.21
401.748	13.12
401.955	13.23
402.162	13.13
402.369	12.83
402.576	12.79
402.783	12.53
402.99	12.25
403.197	12.46
403.404	12.5
403.611	12.33
403.818	12.49
404.025	12.86
404.232	12.85
404.439	12.67
404.646	12.76
404.853	12.75
405.06	12.79
405.267	12.86
405.474	12.49
405.681	12.38
405.887	12.31
406.094	12.24
406.301	11.93
406.508	11.72
406.715	12
406.922	12.2
407.128	11.72
407.335	11.85
407.542	11.61
407.749	11.69
407.955	11.72
408.162	11.85
408.369	11.91
408.575	12.17
408.782	12.33
408.989	12.02
409.195	11.94
409.402	12.17
409.609	11.68
409.815	11.76
410.022	11.6
410.228	11.76
410.435	11.76
410.642	11.68
410.848	11.5
411.055	11.64
411.261	11.75
411.468	11.63
411.674	12.07
411.881	12.43
412.087	12.45
412.294	12.54
412.5	12.17
412.706	12.12
412.913	12.07
413.119	12.01
413.326	11.74
413.532	11.47
413.738	11.68
413.945	11.63
414.151	11.46
414.357	11.3
414.564	11.49
414.77	12.01
414.976	12.11
415.182	12.25
415.389	12.53
415.595	12.85
415.801	13.17
416.007	13.04
416.214	13.19
416.42	13.35
416.626	13.5
416.832	13.48
417.038	13.17
417.244	13.3
417.45	13.3
417.657	13.25
417.863	13.3
418.069	13.37
418.275	13.45
418.481	13.25
418.687	13.24
418.893	13.28
419.099	13.33
419.305	13.45
419.511	13.23
419.717	13.2
419.923	13.07
420.129	13.02
420.335	13.08
420.541	13.16
420.746	13.26
420.952	13.22
421.158	13.17
421.364	13.16
421.57	13.28
421.776	13.46
421.982	13.5
422.187	13.45
422.393	13.57
422.599	13.41
422.805	13.47
423.01	13.34
423.216	13.41
423.422	13.37
423.628	13.33
423.833	13.23
424.039	13.08
424.245	13.14
424.45	13.18
424.656	13.2
424.862	13.2
425.067	13.04
425.273	13.16
425.478	13.02
425.684	13.16
425.889	13.07
426.095	12.98
426.301	12.99
426.506	12.78
426.712	12.68
426.917	12.46
427.123	12.52
427.328	12.54
427.533	12.43
427.739	12.39
427.944	12.19
428.15	12.35
428.355	12.12
428.561	11.95
428.766	11.88
428.971	12.03
429.177	11.88
429.382	11.51
429.587	11.34
429.793	11.09
429.998	11.18
430.203	11.19
430.408	10.8
430.614	11.13
430.819	10.95
431.024	11.11
431.229	11.04
431.434	11.22
431.64	11.51
431.845	11.64
432.05	11.79
432.255	11.77
432.46	11.84
432.665	12.01
432.87	11.97
433.076	12.28
433.281	12.3
433.486	12.42
433.691	12.51
433.896	12.58
434.101	12.57
434.306	12.67
434.511	12.68
434.716	12.65
434.921	12.6
435.126	12.64
435.331	12.49
435.535	12.48
435.74	12.32
435.945	12.25
436.15	12.11
436.355	12.23
436.56	12.33
436.765	12.28
436.97	12.27
437.174	12.3
437.379	12.45
437.584	12.71
437.789	12.74
437.993	12.91
438.198	12.86
438.403	12.97
438.608	12.87
438.812	12.84
439.017	13.04
439.222	13.09
439.426	13.09
439.631	12.98
439.836	12.98
440.04	13.13
440.245	13.14
440.45	13.27
440.654	13.04
440.859	13
441.063	12.89
441.268	12.76
441.472	12.87
441.677	12.79
441.881	12.76
442.086	12.8
442.29	12.4
442.495	12.47
442.699	12.32
442.904	12.29
443.108	12.4
443.312	12.37
443.517	12.36
443.721	12.26
443.925	12.23
444.13	12.14
444.334	11.95
444.538	12.19
444.743	12.06
444.947	12.19
445.151	12.37
445.356	12.3
445.56	12.28
445.764	12.46
445.968	12.38
446.173	12.51
446.377	12.71
446.581	12.79
446.785	12.88
446.989	12.92
447.193	12.79
447.398	12.81
447.602	12.85
447.806	12.99
448.01	12.98
448.214	13.12
448.418	13.07
448.622	13.06
448.826	12.9
449.03	12.71
449.234	12.6
449.438	12.68
449.642	12.79
449.846	12.68
450.05	12.59
450.254	12.5
450.458	12.36
450.662	12.33
450.866	12.05
451.069	12.03
451.273	11.91
451.477	11.86
451.681	11.92
451.885	11.86
452.089	11.93
452.292	11.85
452.496	11.72
452.7	11.84
452.904	11.86
453.107	11.84
453.311	11.99
453.515	12.19
453.719	12.43
453.922	12.51
454.126	12.34
454.33	12.25
454.533	12.17
454.737	12.16
454.94	11.95
455.144	11.87
455.348	11.91
455.551	11.77
455.755	11.71
455.958	11.5
456.162	11.04
456.365	10.93
456.569	11.2
456.772	11.4
456.976	11.64
457.179	11.84
457.383	11.8
457.586	12.04
457.79	12.03
457.993	11.86
458.196	11.99
458.4	12.28
458.603	12.45
458.807	12.42
459.01	12.41
459.213	12.3
459.417	12.38
459.62	12.59
459.823	12.43
460.026	12.56
460.23	12.74
460.433	12.73
460.636	12.64
460.839	12.74
461.042	12.67
461.246	12.63
461.449	12.58
461.652	12.49
461.855	12.34
462.058	12.55
462.261	12.51
462.464	12.41
462.668	12.29
462.871	12.47
463.074	12.44
463.277	12.49
463.48	12.45
463.683	12.7
463.886	12.57
464.089	12.51
464.292	12.18
464.495	12.18
464.698	12.14
464.901	12.13
465.104	12.05
465.306	11.99
465.509	11.79
465.712	11.98
465.915	11.81
466.118	11.97
466.321	12.01
466.524	12.26
466.726	12.36
466.929	12.43
467.132	12.41
467.335	12.29
467.538	12.33
467.74	12.35
467.943	12.21
468.146	12.3
468.348	12.22
468.551	12.39
468.754	12.19
468.956	12.12
469.159	12.05
469.362	12.17
469.564	12.46
469.767	12.4
469.969	12.69
470.172	12.73
470.375	12.6
470.577	12.6
470.78	12.58
470.982	12.79
471.185	12.75
471.387	12.76
471.59	12.69
471.792	12.5
471.995	12.47
472.197	12.29
472.399	12.37
472.602	12.61
472.804	12.75
473.007	12.8
473.209	12.73
473.411	12.58
473.614	12.66
473.816	12.87
474.018	12.79
474.22	12.93
474.423	13.08
474.625	13.07
474.827	12.93
475.03	12.84
475.232	12.67
475.434	12.68
475.636	12.76
475.838	12.91
476.04	12.77
476.243	12.9
476.445	12.89
476.647	12.79
476.849	12.71
477.051	12.58
477.253	12.61
477.455	12.64
477.657	12.62
477.859	12.79
478.061	12.71
478.263	12.58
478.465	12.47
478.667	12.45
478.869	12.46
479.071	12.5
479.273	12.46
479.475	12.43
479.677	12.43
479.879	12.41
480.081	12.44
480.283	12.49
480.485	12.73
480.686	12.83
480.888	12.85
481.09	12.89
481.292	12.9
481.494	13.1
481.695	13.31
481.897	13.5
482.099	13.66
482.301	13.75
482.502	13.8
482.704	13.93
482.906	14.04
483.107	14.1
483.309	14.21
483.511	14.23
483.712	14.28
483.914	14.35
484.115	14.35
484.317	14.33
484.519	14.34
484.72	14.36
484.922	14.33
485.123	14.29
485.325	14.29
485.526	14.23
485.728	14.28
485.929	14.27
486.131	14.17
486.332	14.13
486.534	14.2
486.735	14.17
486.936	14.16
487.138	14.17
487.339	14.23
487.541	14.22
487.742	14.19
487.943	14.21
488.144	14.18
488.346	14.18
488.547	14.16
488.748	14.06
488.95	14.07
489.151	14.02
489.352	13.98
489.553	13.88
489.755	13.82
489.956	13.75
490.157	13.7
490.358	13.69
490.559	13.64
490.76	13.72
490.961	13.79
491.163	13.65
491.364	13.67
491.565	13.65
491.766	13.72
491.967	13.81
492.168	13.93
492.369	13.91
492.57	13.85
492.771	13.84
492.972	13.82
493.173	13.81
493.374	13.91
493.575	13.81
493.776	13.78
493.976	13.7
494.177	13.39
494.378	13.24
494.579	13.05
494.78	13.16
494.981	13.14
495.182	13.04
495.382	12.88
495.583	12.79
495.784	12.76
495.985	12.78
496.185	12.66
496.386	12.74
496.587	12.79
496.788	12.86
496.988	12.81
497.189	12.79
497.39	12.81
497.59	13
497.791	12.82
497.992	12.87
498.192	12.76
498.393	12.94
498.593	13.01
498.794	13
498.994	12.93
499.195	13
499.395	12.92
499.596	13.04
499.796	12.85
499.997	12.93
500.197	13.02
500.398	13.12
500.598	13.04
500.799	13.03
500.999	12.97
501.199	13.04
501.4	12.89
501.6	13.03
501.801	12.81
502.001	12.89
502.201	12.98
502.402	13.14
502.602	13.29
502.802	13.49
503.002	13.76
503.203	13.87
503.403	13.99
503.603	14.01
503.803	13.95
504.003	14.15
504.204	14.3
504.404	14.48
504.604	14.34
504.804	14.46
505.004	14.29
505.204	14.11
505.404	14.18
505.604	14.11
505.804	14.29
506.005	14.3
506.205	14.17
506.405	14.07
506.605	14
506.805	14.03
507.005	13.9
507.204	13.81
507.404	13.9
507.604	13.9
507.804	14.01
508.004	13.98
508.204	14.07
508.404	14.29
508.604	14.29
508.804	14.39
509.003	14.45
509.203	14.56
509.403	14.75
509.603	14.86
509.803	14.87
510.002	14.87
510.202	14.94
510.402	14.98
510.602	14.96
510.801	15.05
511.001	14.99
511.201	15
511.4	14.94
511.6	15.03
511.8	15.07
511.999	15.14
512.199	15.27
512.398	15.32
512.598	15.45
512.797	15.46
512.997	15.43
513.197	15.57
513.396	15.77
513.596	15.68
513.795	15.61
513.994	15.56
514.194	15.48
514.393	15.64
514.593	15.7
514.792	15.49
514.992	15.54
515.191	15.77
515.39	15.88
515.59	15.83
515.789	16.05
515.988	16.12
516.188	16.31
516.387	16.55
516.586	16.55
516.786	16.49
516.985	16.6
517.184	16.74
517.383	16.83
517.582	16.75
517.782	16.88
517.981	16.99
518.18	17.12
518.379	17.06
518.578	16.99
518.777	16.97
518.976	17.18
519.176	17.31
519.375	17.26
519.574	17.18
519.773	17.24
519.972	17.2
520.171	17.16
520.37	17.28
520.569	17.35
520.768	17.51
520.967	17.58
521.166	17.57
521.365	17.6
521.564	17.68
521.762	17.83
521.961	17.98
522.16	18.06
522.359	18.04
522.558	18.03
522.757	18.1
522.956	18.1
523.154	18.27
523.353	18.29
523.552	18.33
523.751	18.45
523.949	18.53
524.148	18.65
524.347	18.75
524.546	19.01
524.744	19.1
524.943	19.19
525.142	19.42
525.34	19.36
525.539	19.54
525.737	19.48
525.936	19.56
526.135	19.73
526.333	19.69
526.532	19.78
526.73	19.82
526.929	19.96
527.127	20.06
527.326	20.06
527.524	20.16
527.723	20.22
527.921	20.37
528.12	20.43
528.318	20.44
528.516	20.52
528.715	20.55
528.913	20.56
529.112	20.58
529.31	20.6
529.508	20.61
529.707	20.59
529.905	20.59
530.103	20.6
530.301	20.61
530.5	20.62
530.698	20.6
530.896	20.68
531.094	20.68
531.293	20.64
531.491	20.72
531.689	20.87
531.887	21.05
532.085	21.13
532.283	21.24
532.481	21.31
532.68	21.37
532.878	21.5
533.076	21.52
533.274	21.67
533.472	21.76
533.67	21.76
533.868	21.7
534.066	21.67
534.264	21.76
534.462	21.81
534.66	21.85
534.858	21.85
535.056	21.85
535.253	21.95
535.451	21.93
535.649	22.02
535.847	22.16
536.045	22.23
536.243	22.29
536.441	22.15
536.638	22.14
536.836	22.1
537.034	22.22
537.232	22.21
537.43	22.13
537.627	22.14
537.825	22.05
538.023	21.85
538.22	21.86
538.418	21.92
538.616	22.01
538.813	21.84
539.011	21.93
539.209	21.79
539.406	21.98
539.604	22.09
539.801	22.25
539.999	22.39
540.196	22.61
540.394	22.75
540.591	22.88
540.789	22.78
540.986	22.99
541.184	23.12
541.381	23.23
541.579	23.21
541.776	23.22
541.974	23.26
542.171	23.24
542.368	23.28
542.566	23.31
542.763	23.32
542.96	23.48
543.158	23.53
543.355	23.54
543.552	23.52
543.75	23.57
543.947	23.62
544.144	23.63
544.341	23.71
544.539	23.76
544.736	23.82
544.933	23.85
545.13	24.01
545.327	23.94
545.524	23.8
545.722	23.84
545.919	23.95
546.116	24.09
546.313	24.15
546.51	24.2
546.707	24.19
546.904	24.13
547.101	24.13
547.298	24.07
547.495	24.01
547.692	24.04
547.889	23.95
548.086	23.86
548.283	23.86
548.48	23.77
548.677	23.7
548.874	23.49
549.07	23.36
549.267	23.42
549.464	23.45
549.661	23.71
549.858	23.8
550.055	23.89
550.251	23.95
550.448	23.9
550.645	23.93
550.842	24
551.038	24.17
551.235	24.41
551.432	24.12
551.628	24.08
551.825	23.97
552.022	24.05
552.218	24.14
552.415	24.27
552.612	24.17
552.808	24.07
553.005	24.05
553.201	23.95
553.398	23.73
553.594	23.81
553.791	23.76
553.987	23.88
554.184	23.88
554.38	23.9
554.577	23.91
554.773	23.87
554.97	24.08
555.166	24.1
555.362	24.33
555.559	24.63
555.755	24.51
555.952	24.5
556.148	24.32
556.344	24.35
556.541	24.46
556.737	24.47
556.933	24.47
557.129	24.46
557.326	24.16
557.522	23.85
557.718	23.7
557.914	23.96
558.11	24.07
558.307	24.14
558.503	24.2
558.699	24.21
558.895	24.13
559.091	24.02
559.287	23.9
559.483	24.27
559.679	24.47
559.876	24.48
560.072	24.5
560.268	24.46
560.464	24.48
560.66	24.34
560.856	24.31
561.052	24.3
561.247	24.42
561.443	24.57
561.639	24.66
561.835	24.77
562.031	24.7
562.227	24.7
562.423	24.62
562.619	24.66
562.815	24.69
563.01	24.65
563.206	24.76
563.402	24.98
563.598	24.99
563.793	25
563.989	25.03
564.185	25.32
564.381	25.34
564.576	25.57
564.772	25.62
564.968	25.69
565.163	25.61
565.359	25.44
565.555	25.37
565.75	25.62
565.946	25.55
566.141	25.63
566.337	25.71
566.532	25.8
566.728	25.73
566.923	25.92
567.119	25.87
567.314	26.06
567.51	26.28
567.705	26.22
567.901	25.93
568.096	25.98
568.292	26.01
568.487	26.05
568.682	25.93
568.878	26.01
569.073	25.92
569.268	26.03
569.464	25.82
569.659	25.62
569.854	25.85
570.05	26.14
570.245	26.37
570.44	26.13
570.635	25.84
570.831	25.86
571.026	25.87
571.221	25.88
571.416	25.93
571.611	26.11
571.806	26.14
572.002	26.13
572.197	26.15
572.392	25.83
572.587	26.03
572.782	26.18
572.977	26.18
573.172	26.13
573.367	26.02
573.562	26.09
573.757	25.92
573.952	25.96
574.147	25.86
574.342	25.85
574.537	26.06
574.732	26.08
574.927	26
575.121	26.09
575.316	26.25
575.511	26.48
575.706	26.4
575.901	26.42
576.096	26.29
576.29	26.25
576.485	25.96
576.68	25.91
576.875	25.83
577.069	26.04
577.264	26.1
577.459	26.15
577.654	26.12
577.848	25.97
578.043	26.24
578.238	26.49
578.432	26.62
578.627	26.76
578.821	26.85
579.016	27
579.21	26.74
579.405	26.55
579.6	26.32
579.794	26.1
579.989	26.28
580.183	26.06
580.378	25.96
580.572	25.84
580.766	26.08
580.961	25.96
581.155	25.64
581.35	25.55
581.544	25.62
581.738	25.66
581.933	25.95
582.127	25.89
582.321	26.12
582.516	26.63
582.71	26.89
582.904	26.6
583.099	26.78
583.293	27.01
583.487	27.2
583.681	27.17
583.875	27.52
584.07	27.24
584.264	27.2
584.458	27
584.652	26.6
584.846	26.49
585.04	26.6
585.234	26.74
585.428	26.81
585.623	26.84
585.817	27.3
586.011	27.09
586.205	27.26
586.399	27.39
586.593	27.63
586.787	27.63
586.981	27.45
587.174	27.56
587.368	27.19
587.562	27.12
587.756	27.26
587.95	26.99
588.144	26.73
588.338	26.48
588.532	26.32
588.725	26.23
588.919	26.49
589.113	26.59
589.307	26.42
589.501	26.18
589.694	26.06
589.888	26.17
590.082	26.08
590.275	26.18
590.469	26.62
590.663	26.84
590.856	27.01
591.05	27.04
591.244	27.07
591.437	27.08
591.631	27.54
591.824	27.63
592.018	27.44
592.212	27.5
592.405	27.34
592.599	27.63
592.792	27.66
592.986	27.6
593.179	27.55
593.372	27.55
593.566	27.88
593.759	27.73
593.953	27.85
594.146	27.69
594.339	27.68
594.533	28.1
594.726	27.61
594.92	27.53
595.113	27.49
595.306	27.4
595.499	27.22
595.693	27
595.886	27.09
596.079	27.28
596.272	27.46
596.466	27.48
596.659	27.29
596.852	27.27
597.045	27.24
597.238	27.21
597.431	27.35
597.624	27.51
597.818	27.64
598.011	27.54
598.204	27.5
598.397	27.47
598.59	27.65
598.783	27.75
598.976	27.94
599.169	28.25
599.362	28.28
599.555	28.17
599.748	28.31
599.941	28.25
600.134	28.44
600.326	28.09
600.519	28.14
600.712	27.79
600.905	27.74
601.098	27.78
601.291	27.58
601.483	27.5
601.676	27.49
601.869	27.46
602.062	27.41
602.255	27.46
602.447	27.51
602.64	27.63
602.833	27.85
603.025	27.86
603.218	27.64
603.411	27.52
603.603	27.74
603.796	27.64
603.989	27.72
604.181	27.53
604.374	27.51
604.566	27.54
604.759	27.42
604.951	27.36
605.144	27.35
605.336	27.25
605.529	27.26
605.721	27.26
605.914	27.45
606.106	27.37
606.299	27.87
606.491	27.76
606.683	27.86
606.876	27.89
607.068	28.16
607.26	28.33
607.453	28.69
607.645	28.87
607.837	28.75
608.03	28.49
608.222	28.57
608.414	28.25
608.606	28.47
608.799	28.54
608.991	28.61
609.183	28.51
609.375	28.33
609.567	28.24
609.759	28.3
609.952	28.3
610.144	28.72
610.336	28.81
610.528	29.16
610.72	29.16
610.912	29.27
611.104	29.52
611.296	29.53
611.488	29.85
611.68	30.16
611.872	30.07
612.064	30.28
612.256	29.99
612.448	30.21
612.64	30.03
612.832	30.01
613.023	29.93
613.215	29.44
613.407	29.41
613.599	29.11
613.791	28.82
613.983	28.85
614.174	28.77
614.366	28.49
614.558	28.11
614.75	27.92
614.941	28.04
615.133	28.08
615.325	28.18
615.516	28.33
615.708	28.7
615.9	28.62
616.091	28.61
616.283	28.52
616.475	28.82
616.666	28.91
616.858	28.97
617.049	28.56
617.241	28.57
617.432	28.63
617.624	28.34
617.815	27.99
618.007	28.26
618.198	28.36
618.39	28.4
618.581	28.36
618.773	28.51
618.964	28.37
619.155	28.73
619.347	28.61
619.538	28.6
619.729	28.86
619.921	29.02
620.112	28.83
620.303	28.54
620.494	28.45
620.686	28.55
620.877	28.5
621.068	28.8
621.259	28.64
621.451	28.91
621.642	29.02
621.833	28.54
622.024	28.27
622.215	28.21
622.406	28.28
622.597	28.49
622.788	28.4
622.98	28.26
623.171	28.2
623.362	28.31
623.553	28.13
623.744	27.98
623.935	28.55
624.126	28.63
624.317	28.55
624.508	28.63
624.698	28.33
624.889	28.25
625.08	28.36
625.271	28.48
625.462	28.46
625.653	28.5
625.844	28.32
626.034	27.96
626.225	28.32
626.416	28.35
626.607	28.54
626.798	28.52
626.988	28.55
627.179	28.55
627.37	28.55
627.56	28.69
627.751	28.74
627.942	28.92
628.132	28.94
628.323	28.76
628.514	29.1
628.704	29.27
628.895	29.42
629.085	29.35
629.276	29.39
629.466	29.17
629.657	28.97
629.847	28.81
630.038	28.72
630.228	28.81
630.419	28.6
630.609	28.47
630.8	28
630.99	27.92
631.181	28.11
631.371	28.14
631.561	28.1
631.752	28.49
631.942	28.39
632.132	28.62
632.323	28.67
632.513	29.1
632.703	29.02
632.893	29.15
633.084	29.46
633.274	29.21
633.464	28.87
633.654	28.98
633.844	28.92
634.034	29
634.225	29.16
634.415	29.37
634.605	29.04
634.795	28.94
634.985	28.86
635.175	28.7
635.365	28.79
635.555	28.91
635.745	28.65
635.935	27.97
636.125	27.94
636.315	27.43
636.505	27.19
636.695	27.15
636.885	27.14
637.075	27
637.265	27.22
637.455	26.99
637.644	26.89
637.834	27.1
638.024	27.78
638.214	27.9
638.404	28.25
638.593	28.59
638.783	28.56
638.973	28.65
639.163	29.25
639.352	29.04
639.542	29.79
639.732	30.07
639.921	30.35
640.111	29.91
640.301	30.19
640.49	30.01
640.68	29.35
640.87	29.75
641.059	29.85
641.249	29.48
641.438	29
641.628	28.59
641.817	28.77
642.007	28.62
642.196	28.65
642.386	28.3
642.575	28.71
642.764	29.4
642.954	29.06
643.143	28.94
643.333	29.27
643.522	29.67
643.711	29.28
643.901	28.76
644.09	28.63
644.279	28.8
644.469	28.88
644.658	28.71
644.847	28.28
645.036	28.61
645.226	28.48
645.415	28.47
645.604	28.83
645.793	28.96
645.982	29.39
646.171	29.79
646.361	29.83
646.55	29.68
646.739	29.37
646.928	29.53
647.117	29.44
647.306	29.53
647.495	29.21
647.684	28.98
647.873	29.19
648.062	28.92
648.251	28.72
648.44	28.56
648.629	28.57
648.818	28.75
649.007	28.7
649.196	28.88
649.384	29.34
649.573	29.24
649.762	29.02
649.951	28.9
650.14	28.9
650.328	28.73
650.517	28.81
650.706	28.7
650.895	28.98
651.083	28.9
651.272	28.7
651.461	28.63
651.65	28.63
651.838	28.68
652.027	29.03
652.216	29.16
652.404	29.25
652.593	29.66
652.781	29.97
652.97	29.98
653.158	29.93
653.347	29.82
653.535	29.52
653.724	29.76
653.912	29.74
654.101	29.83
654.289	29.79
654.478	29.63
654.666	29.26
654.855	29.14
655.043	29.04
655.231	28.74
655.42	28.74
655.608	28.86
655.796	28.5
655.985	28.84
656.173	28.48
656.361	28.51
656.55	28.78
656.738	28.41
656.926	28.51
657.114	28.14
657.302	28.61
657.491	28.57
657.679	28.36
657.867	28.55
658.055	28.44
658.243	28.47
658.431	28.44
658.619	28.03
658.807	28.35
658.996	28.36
659.184	28.48
659.372	28.56
659.56	29.1
659.748	29.14
659.936	29.4
660.124	29.36
660.311	29.35
660.499	29.39
660.687	29.61
660.875	29.65
661.063	29.82
661.251	29.52
661.439	29.32
661.627	28.56
661.814	28.46
662.002	28.37
662.19	28.45
662.378	28.37
662.565	28.5
662.753	28.61
662.941	28.43
663.129	28.17
663.316	29.08
663.504	29.18
663.692	29.48
663.879	29.41
664.067	29.34
664.254	29.48
664.442	29.46
664.63	29.37
664.817	29.2
665.005	29.4
665.192	29.47
665.38	29.16
665.567	29.29
665.755	28.95
665.942	28.66
666.13	28.54
666.317	28.69
666.504	28.81
666.692	28.79
666.879	28.81
667.067	28.96
667.254	28.9
667.441	28.99
667.629	28.78
667.816	29.2
668.003	29.69
668.19	29.82
668.378	29.49
668.565	29.88
668.752	29.78
668.939	29.54
669.127	29.65
669.314	29.43
669.501	29.3
669.688	29.86
669.875	29.14
670.062	29.12
670.249	29.2
670.436	28.65
670.623	28.42
670.81	28.6
670.997	28.65
671.184	28.16
671.371	28.49
671.558	28.05
671.745	27.51
671.932	28.65
672.119	29.09
672.306	29.11
672.493	29.72
672.68	29.23
672.867	28.75
673.054	28.78
673.24	29.39
673.427	29.53
673.614	29.3
673.801	30.22
673.988	29.71
674.174	29.63
674.361	29.21
674.548	29.05
674.734	29.56
674.921	30.47
675.108	30.5
675.294	30.01
675.481	29.64
675.668	30.33
675.854	29.84
676.041	29.36
676.227	28.98
676.414	28.88
676.601	28.91
676.787	28.42
676.974	27.68
677.16	28.17
677.347	27.97
677.533	27.91
677.719	27.8
677.906	27.19
678.092	27.54
678.279	27.22
678.465	27.7
678.651	27.97
678.838	28.32
679.024	28.24
679.21	28
679.397	28.19
679.583	28.44
679.769	28.51
679.955	28.7
680.142	28.84
680.328	29.42
680.514	29.29
680.7	29.07
680.886	29.17
681.073	29.22
681.259	28.93
681.445	28.73
681.631	28.74
681.817	28.7
682.003	28.45
682.189	27.92
682.375	27.45
682.561	27.43
682.747	27.43
682.933	27.05
683.119	27.54
683.305	27.89
683.491	28.22
683.677	28.07
683.863	27.71
684.049	27.72
684.235	28.48
684.42	28.76
684.606	28.98
684.792	29.09
684.978	29.66
685.164	29.83
685.349	30.08
685.535	30.15
685.721	30.12
685.907	30.5
686.092	31.15
686.278	30.92
686.464	30.59
686.649	30.14
686.835	30.25
687.021	29.69
687.206	28.97
687.392	28.9
687.577	28.42
687.763	28.85
687.948	28.67
688.134	28.55
688.319	28.8
688.505	29.16
688.69	29.43
688.876	28.82
689.061	28.98
689.247	29.18
689.432	28.83
689.618	29.58
689.803	29.67
689.988	30.02
690.174	29.8
690.359	29.42
690.544	28.96
690.73	28.82
690.915	29.03
691.1	29.12
691.285	29.12
691.471	29.71
691.656	29.21
691.841	29.04
692.026	28.52
692.211	28.51
692.396	28.82
692.582	28.97
692.767	28.67
692.952	29.14
693.137	28.28
693.322	28.3
693.507	28.07
693.692	28.06
693.877	27.59
694.062	28.21
694.247	28.64
694.432	28.2
694.617	28.18
694.802	29.05
694.987	28.4
695.172	29.53
695.357	29.16
695.541	29.02
695.726	29
695.911	29.4
696.096	29.03
696.281	29.03
696.466	29.52
696.65	29.49
696.835	29.63
697.02	29.65
697.204	29.5
697.389	30.36
697.574	30.04
697.759	30.35
697.943	29.87
698.128	29.9
698.312	29.82
698.497	29.61
698.682	29.71
698.866	29.12
699.051	29.21
699.235	29.29
699.42	28.54
699.604	28.68
699.789	28.56
699.973	28.65
700.158	28.87
700.342	28.74
700.527	28.75
700.711	29.18
700.895	29.56
701.08	29.89
701.264	30.36
701.448	30.93
701.633	31.27
701.817	31.79
702.001	32.1
702.186	31.83
702.37	31.57
702.554	31.74
702.738	31.21
702.923	31.59
703.107	31.24
703.291	30.69
703.475	30.8
703.659	30.34
703.843	29.77
704.027	29.07
704.212	28.08
704.396	28.37
704.58	28.2
704.764	28.52
704.948	27.77
705.132	28.31
705.316	28.74
705.5	28.44
705.684	28.82
705.868	29.08
706.052	29.5
706.235	30.35
706.419	30.46
706.603	30.45
706.787	30.86
706.971	31.03
707.155	30.24
707.339	29.54
707.522	29.2
707.706	28.52
707.89	27.91
708.074	28.12
708.257	27.61
708.441	27.6
708.625	26.62
708.808	26.63
708.992	26.63
709.176	27.07
709.359	26.85
709.543	27.08
709.727	27.45
709.91	28.05
710.094	28.37
710.277	28.69
710.461	28.82
710.644	29.75
710.828	29.18
711.011	29.07
711.195	29.8
711.378	29.54
711.562	29.94
711.745	29.79
711.928	29.61
712.112	29.03
712.295	29.55
712.478	29.93
712.662	29.72
712.845	29.08
713.028	29.06
713.212	28.41
713.395	28.75
713.578	28.95
713.761	29.25
713.945	28.9
714.128	29.46
714.311	29.13
714.494	28.49
714.677	28.71
714.86	28.92
715.043	29.57
715.227	29.05
715.41	29.05
715.593	29.17
715.776	29.28
715.959	29.29
716.142	29.6
716.325	29.84
716.508	30.18
716.691	29.91
716.874	30.68
717.057	30.47
717.239	31.41
717.422	31.61
717.605	30.48
717.788	30.15
717.971	30.77
718.154	29.93
718.337	30.04
718.519	30.1
718.702	30.07
718.885	29.2
719.068	27.95
719.25	27.49
719.433	26.96
719.616	27.03
719.798	26.96
719.981	26.47
720.164	26.19
720.346	25.89
720.529	25.02
720.712	25.22
720.894	26.12
721.077	27.23
721.259	27.25
721.442	27.46
721.624	27.79
721.807	27.3
721.989	27.47
722.172	28.26
722.354	27.74
722.537	28.69
722.719	29.19
722.901	29.74
723.084	30.03
723.266	29.52
723.448	29.94
723.631	31.33
723.813	32.14
723.995	32.18
724.178	32.07
724.36	33.31
724.542	31.69
724.724	31.53
724.907	30.23
725.089	28.75
725.271	28.85
725.453	28.37
725.635	27.15
725.817	26.37
725.999	26.9
726.181	26.33
726.364	26.42
726.546	27.07
726.728	26.83
726.91	26.95
727.092	29.71
727.274	29.39
727.456	30.41
727.638	30.34
727.819	31.48
728.001	31.64
728.183	32.2
728.365	31.46
728.547	31.97
728.729	32.25
728.911	32.51
729.093	31.04
729.274	31
729.456	30.46
729.638	30.54
729.82	30.56
730.001	30.04
730.183	30.22
730.365	29.93
730.546	30.16
730.728	29.5
730.91	29.42
731.091	29.26
731.273	30.82
731.455	30.96
731.636	30.14
731.818	29.56
731.999	28.64
732.181	28.01
732.362	28.72
732.544	27.64
732.725	27.92
732.907	28.08
733.088	27.61
733.27	26.12
733.451	26.34
733.633	26.82
733.814	27.18
733.995	27.95
734.177	27.32
734.358	26.7
734.539	27.8
734.721	27.64
734.902	27.51
735.083	28.06
735.264	28.56
735.446	28.53
735.627	28.66
735.808	29.22
735.989	28.96
736.17	29.61
736.351	30
736.533	29.55
736.714	30.59
736.895	31.21
737.076	30.94
737.257	31.23
737.438	30.62
737.619	30.75
737.8	30.1
737.981	30.44
738.162	30.77
738.343	30.53
738.524	29.6
738.705	29.04
738.886	28.05
739.067	27.99
739.247	27.78
739.428	28.23
739.609	28.88
739.79	28.64
739.971	28.84
740.151	28.07
740.332	28.02
740.513	29.13
740.694	28.54
740.874	29.68
741.055	30.04
741.236	30.01
741.417	29.25
741.597	29.3
741.778	28.69
741.958	28.3
742.139	29.11
742.32	29.22
742.5	28.9
742.681	29.31
742.861	28.62
743.042	28.32
743.222	28.22
743.403	29.41
743.583	29.38
743.764	30.21
743.944	29.96
744.124	30.3
744.305	30.12
744.485	29.54
744.666	30.62
744.846	29.96
745.026	30.56
745.207	30.91
745.387	29.83
745.567	28.43
745.747	28.97
745.928	28.7
746.108	27.86
746.288	29.48
746.468	30.42
746.648	29.95
746.829	31.25
747.009	30.81
747.189	30.54
747.369	31.36
747.549	32.37
747.729	31.35
747.909	31.75
748.089	32.79
748.269	32.06
748.449	31.34
748.629	30.99
748.809	30.07
748.989	30.14
749.169	29.92
749.349	29.54
749.529	29.25
749.709	29.72
749.889	29.82
750.068	29.44
750.248	29.04
750.428	29.09
750.608	29.43
750.788	30.04
750.967	28.98
751.147	29.44
751.327	29.25
751.507	29.76
751.686	28.68
751.866	28.62
752.046	28.68
752.225	28.24
752.405	28.76
752.585	28.4
752.764	27.87
752.944	29.3
753.123	28.49
753.303	29.42
753.482	28.27
753.662	29.13
753.841	29.9
754.021	29.03
754.2	29.57
754.38	29.44
754.559	29.12
754.739	29.06
754.918	28.04
755.097	28.33
755.277	26.98
755.456	27.85
755.635	27.33
755.815	26.01
755.994	26.11
756.173	24.94
756.352	25.4
756.532	26.05
756.711	26.75
756.89	26.75
757.069	27.91
757.248	28.53
757.427	28.11
757.607	28.92
757.786	30.94
757.965	31.84
758.144	32.92
758.323	32.78
758.502	32.14
758.681	31.55
758.86	31.85
759.039	30.85
759.218	30.55
759.397	31.31
759.576	31.21
759.755	29.29
759.934	29.67
760.113	28.66
760.291	29.27
760.47	29.58
760.649	29.53
760.828	29.3
761.007	29.46
761.186	30.14
761.364	28.61
761.543	27.92
761.722	28.62
761.901	27.32
762.079	28.1
762.258	27.89
762.437	27.83
762.615	27.54
762.794	28.66
762.972	28.53
763.151	28.05
763.33	29.15
763.508	29.29
763.687	28.88
763.865	29.83
764.044	29.92
764.222	28.92
764.401	28.96
764.579	29.36
764.758	28.89
764.936	29.28
765.114	29.15
765.293	28.91
765.471	28.64
765.65	29.6
765.828	28.83
766.006	29.08
766.184	29.51
766.363	30
766.541	29.13
766.719	29.2
766.898	28.52
767.076	28.92
767.254	28.85
767.432	30.14
767.61	29.6
767.788	29.86
767.967	27.62
768.145	28.11
768.323	26.48
768.501	27.33
768.679	27.1
768.857	27.92
769.035	28.03
769.213	27.85
769.391	26.94
769.569	27.21
769.747	27.43
769.925	29.57
770.103	29.46
770.281	30.74
770.459	31.23
770.636	32.11
770.814	32.67
770.992	33.49
771.17	34.31
771.348	34.99
771.525	34.35
771.703	34.59
771.881	35.63
772.059	36.06
772.236	35.8
772.414	35.05
772.592	33.98
772.769	33.46
772.947	32.39
773.125	31.17
773.302	29.4
773.48	29.6
773.657	28.93
773.835	27.21
774.013	25.31
774.19	25.93
774.368	26.28
774.545	27.33
774.723	26.06
774.9	25.76
775.077	25.93
775.255	26.83
775.432	27.11
775.61	26.42
775.787	29.29
775.964	30.48
776.142	30.89
776.319	31.17
776.496	29.51
776.674	28.91
776.851	28.23
777.028	27.67
777.205	28.43
777.382	27.04
777.56	28.91
777.737	26.39
777.914	27.26
778.091	25.89
778.268	26.29
778.445	25.88
778.622	27.55
778.8	27.53
778.977	28.52
779.154	35.01
779.331	35.98
779.508	34.27
779.685	33.35
779.862	32.36
780.038	34.62
780.215	34.12
780.392	34.87
780.569	33.21
780.746	33.19
780.923	33.61
781.1	26.36
781.277	26.77
781.453	27.01
781.63	27.71
781.807	28.28
781.984	25.56
782.16	24.97
782.337	24.48
782.514	26.92
782.691	26.69
782.867	24.89
783.044	24.81
783.221	24.37
783.397	25.66
783.574	26.43
783.75	26.13
783.927	26.72
784.103	27.26
784.28	26.29
784.456	24.51
784.633	23.85
784.809	25.01
784.986	25.97
785.162	24.7
785.339	24.92
785.515	26.27
785.692	28.38
785.868	29.06
786.044	29.55
786.221	31.75
786.397	33.31
786.573	33.71
786.749	35.74
786.926	37.71
787.102	38.56
787.278	38.46
787.454	37.59
787.631	36.45
787.807	37.75
787.983	37.72
788.159	34.96
788.335	33.12
788.511	34.07
788.687	30.03
788.863	29.69
789.039	30.02
789.216	28.62
789.392	26.8
789.568	25.03
789.744	21.97
789.919	23.51
790.095	26.18
790.271	27.89
790.447	27.19
790.623	31.96
790.799	31.2
790.975	31.29
791.151	33.5
791.327	35.58
791.502	38.52
791.678	41.44
791.854	40.73
792.03	39.93
792.205	38.35
792.381	41.76
792.557	37.99
792.733	37.99
792.908	39.56
793.084	38.27
793.259	39.49
793.435	36.09
793.611	33.87
793.786	33.52
793.962	35.29
794.137	34.86
794.313	31.26
794.488	32.35
794.664	30.69
794.839	28.36
795.015	27.81
795.19	26.05
795.366	29.31
795.541	29.95
795.716	28.28
795.892	27.52
796.067	29.93
796.242	30.73
796.418	31.6
796.593	28.2
796.768	26.33
796.944	26.06
797.119	25.8
797.294	24.85
797.469	24.54
797.644	27.66
797.82	26.95
797.995	26.13
798.17	25.42
798.345	22.07
798.52	25.91
798.695	26.48
798.87	26.22
799.045	26.56
799.22	26.48
799.395	25.09
799.57	21.85
799.745	21.07
799.92	20.33
800.095	21.58
800.27	23.61
800.445	23.41
800.62	27.92
800.795	27.48
800.97	26.98
801.145	25.39
801.319	24.45
801.494	23.6
801.669	24.49
801.844	25.63
802.018	24
802.193	22.98
802.368	23.6
802.543	22.39
802.717	24.4
802.892	24.74
803.067	26.12
803.241	28.94
803.416	30.53
803.59	32.93
803.765	31.51
803.94	32.25
804.114	34.59
804.289	34.53
804.463	33.39
804.638	33.61
804.812	32.86
804.986	32.62
805.161	31.96
805.335	30.77
805.51	26.79
805.684	28.55
805.858	27.88
806.033	27.25
806.207	25.66
806.381	26.24
806.556	22.69
806.73	22.54
806.904	20.99
807.078	18.24
807.253	18.4
807.427	20.07
807.601	18.56
807.775	22.59
807.949	23.13
808.123	21.37
808.298	22.01
808.472	27.03
808.646	28.83
808.82	28.39
808.994	32.56
809.168	33.68
809.342	33.28
809.516	34.76
809.69	31.47
809.864	31.59
810.038	31.99
810.212	28.19
810.385	24.99
810.559	25.85
810.733	28.21
810.907	26.89
811.081	29.05
811.255	31.97
811.428	32.53
811.602	32.18
811.776	32.67
811.95	37.75
812.123	42.5
812.297	42.67
812.471	38.97
812.644	36.88
812.818	37.62
812.992	34.9
813.165	29.77
813.339	28.15
813.512	30.34
813.686	33.15
813.86	31.3
814.033	30.42
814.207	33.24
814.38	32.9
814.554	33.28
814.727	34.89
814.9	34.8
815.074	36.9
815.247	35.39
815.421	33.8
815.594	32.33
815.767	30.76
815.941	27.16
816.114	25.37
816.287	30.22
816.46	34.18
816.634	30.94
816.807	32.32
816.98	30.91
817.153	33.88
817.327	33.44
817.5	32.83
817.673	31.1
817.846	30.39
818.019	31.49
818.192	28.38
818.365	24.38
818.538	28.08
818.711	28.81
818.884	32.17
819.057	27.24
819.23	28.75
819.403	30.28
819.576	30.23
819.749	30.54
819.922	30.85
820.095	31.08
820.268	34.4
820.441	31.18
820.614	28.67
820.786	27.81
820.959	30.66
821.132	30.74
821.305	28.18
821.477	29.16
821.65	29.59
821.823	28.69
821.996	29.53
822.168	28.1
822.341	28.64
822.514	29.01
822.686	29.05
822.859	28.83
823.031	29.33
823.204	29.01
823.376	29.31
823.549	29.4
823.722	29.38
823.894	28.68
824.067	28.9
824.239	28.82
824.411	29.26
824.584	29.51
824.756	29.56
824.929	28.42
825.101	29.98
825.273	29.29
825.446	29.52
825.618	29.57
825.79	29.65
825.963	29.88
826.135	30.01
826.307	29.23
826.479	28.31
826.652	28.72
826.824	29.31
826.996	28.13
827.168	27.68
827.34	26.73
827.512	26.73
827.684	26.35
827.856	25.82
828.029	25.07
828.201	24.82
828.373	24.64
828.545	23.57
828.717	23.88
828.889	24.78
829.061	25.74
829.232	26.92
829.404	26.48
829.576	26.06
829.748	26.81
829.92	27.55
830.092	28.96
830.264	29.69
830.436	31.04
830.607	31.75
830.779	29.69
830.951	28.94
831.123	28.23
831.294	31.45
831.466	31.9
831.638	31.88
831.809	31.11
831.981	30.33
832.153	31.8
832.324	31.02
832.496	28.81
832.667	27.02
832.839	25.48
833.011	25.77
833.182	18.93
833.354	20.96
833.525	22.03
833.697	21.34
833.868	21.64
834.039	22.81
834.211	21.59
834.382	23.34
834.554	26.54
834.725	27.62
834.896	26.77
835.068	28.49
835.239	26.75
835.41	28.01
835.581	28.71
835.753	28.67
835.924	27.01
836.095	28.08
836.266	25.72
836.438	25.83
836.609	25.28
836.78	23.62
836.951	24.49
837.122	25.97
837.293	23.22
837.464	24.36
837.635	25.08
837.806	23.65
837.977	21.57
838.148	24.83
838.319	21.07
838.49	22.12
838.661	25.76
838.832	27.4
839.003	31.1
839.174	34.76
839.345	37.34
839.516	37.63
839.687	39.06
839.857	38.66
840.028	33.23
840.199	34.6
840.37	32.17
840.54	31.29
840.711	28.66
840.882	25.06
841.053	22.96
841.223	19
841.394	20.49
841.564	22.77
841.735	28.44
841.906	35.22
842.076	33.29
842.247	37.76
842.417	39.45
842.588	40.92
842.758	43.11
842.929	43.69
843.099	46.92
843.27	42.94
843.44	41.62
843.611	39.91
843.781	32.92
843.951	37.46
844.122	37.82
844.292	36.55
844.462	35.81
844.633	36.24
844.803	28.07
844.973	20.73
845.144	20.77
845.314	18.57
845.484	16.89
845.654	19.26
845.824	23.85
845.995	20.69
846.165	22.7
846.335	19.12
846.505	20.86
846.675	34.31
846.845	41.24
847.015	42.06
847.185	46.82
847.355	51.13
847.525	48.56
847.695	45.22
847.865	40.93
848.035	37.46
848.205	43.74
848.375	46.62
848.545	31.57
848.715	30.24
848.884	30.71
849.054	32.09
849.224	28.11
849.394	32.97
849.564	36.52
849.733	46.21
849.903	52.86
850.073	46.02
850.243	40.48
850.412	43.42
850.582	47.75
850.752	50.07
850.921	45.95
851.091	42.83
851.26	40.45
851.43	37.17
851.599	31.21
851.769	27.12
851.939	31.58
852.108	26.67
852.278	32.58
852.447	30.65
852.616	32.89
852.786	35.95
852.955	45.13
853.125	34.43
853.294	26.19
853.463	21.69
853.633	19.9
853.802	10.97
853.971	20.55
854.141	5.52
854.31	-2.73
854.479	-14.7
854.648	-25.42
854.818	-31.83
854.987	-11.46
855.156	12.97
855.325	21.74
855.494	28.02
855.663	38.73
855.832	31.59
856.001	32.56
856.171	28.77
856.34	18.91
856.509	31.45
856.678	22.13
856.847	28.39
857.016	7.18
857.185	2.45
857.353	2.43
857.522	10.86
857.691	26.22
857.86	18.62
858.029	15.6
858.198	40.6
858.367	30.74
858.535	38.6
858.704	35.95
858.873	53.49
859.042	59.31
859.21	68.5
859.379	67.77
859.548	55.01
859.717	79.52
859.885	99.61
860.054	62.83
860.222	66.59
860.391	60.74
860.56	55.68
860.728	56.11
860.897	49.18
861.065	41.99
861.234	30.82
861.402	15.47
861.571	15.87
861.739	19.07
861.908	10.84
862.076	7.71
862.244	6.39
862.413	20.18
862.581	6.44
862.749	13.25
862.918	21.12
863.086	27.33
863.254	18.08
863.423	14.45
863.591	19.93
863.759	22.89
863.927	31.33
864.096	33.22
864.264	22.41
864.432	31.46
864.6	33.92
864.768	10.91
864.936	8.4
865.104	45.1
865.272	50.1
865.44	34.91
865.608	57.27
865.776	46.49
865.944	55.92
866.112	67.54
866.28	44.5
866.448	34.68
866.616	55.21
866.784	56.72
866.952	39.92
867.12	37.19
867.288	45.07
867.455	41.73
867.623	35.29
867.791	5.55
867.959	-24.61
868.127	31.83
868.294	32.25
868.462	-1.56
868.63	8.44
868.797	24.82
868.965	20.66
869.133	7.51
869.3	3.6
869.468	11.21
869.636	19.64
869.803	16.04
869.971	12.87
870.138	22.45
870.306	30.01
870.473	25.86
870.641	22.2
870.808	25.79
870.975	45.3
871.143	43.57
871.31	37.56
871.478	27.66
871.645	58.31
871.812	37.73
871.98	34.99
872.147	28.86
872.314	35.06
872.482	27.76
872.649	26.78
872.816	21.41
872.983	31.76
873.15	28.49
873.318	42.08
873.485	11.78
873.652	26.09
873.819	16.31
873.986	32.2
874.153	28.11
874.32	28.64
874.487	33.05
874.654	24.51
874.821	-0.78
874.988	24.88
875.155	9.65
875.322	35.29
875.489	32.6
875.656	31.22
875.823	27.17
875.99	27.76
876.157	33.54
876.324	25.7
876.49	24.94
876.657	24.14
876.824	27.21
876.991	26.92
877.157	19.37
877.324	15.11
877.491	12.79
877.658	-2.46
877.824	-8.93
877.991	0.45
878.157	-10.16
878.324	-9.6
878.491	1.04
878.657	0.4
878.824	3.47
878.99	10
879.157	3.61
879.323	5.24
879.49	17.69
879.656	26.58
879.823	10.67
879.989	25.41
880.156	28.2
880.322	26.02
880.488	21.93
880.655	22.08
880.821	16.5
880.987	25.03
881.154	29.33
881.32	26.84
881.486	26.97
881.652	28.18
881.819	28.01
881.985	29.38
882.151	26.92
882.317	29.37
882.483	29.99
882.649	30.1
882.816	28.12
882.982	27.3
883.148	28.05
883.314	26.96
883.48	29.11
883.646	27.66
883.812	29.14
883.978	30.03
884.144	28.9
884.31	26.84
884.476	26.54
884.642	25.56
884.807	24.44
884.973	24
885.139	24.1
885.305	22.31
885.471	22.27
885.637	21.09
885.802	21.43
885.968	21.67
886.134	22.6
886.3	23.97
886.465	29.66
886.631	32.9
886.797	35.63
886.962	37.82
887.128	38.39
887.293	40.39
887.459	40.03
887.625	41.82
887.79	41.5
887.956	43.32
888.121	44.11
888.287	38.26
888.452	36.99
888.618	35
888.783	33.13
