Data from CB_032_Reflection_21-21-58-534.txt Node
Date: Wed Nov 11 21:21:58 EST 2015
User: robert
Spectrometer: USB4E03001
Autoset integration time: false
Trigger mode: 4
Integration Time (sec): 1.000000E-1
Scans to average: 15
Electric dark correction enabled: true
Nonlinearity correction enabled: false
Boxcar width: 5
Stray light correction enabled: false
XAxis mode: Wavelengths
Stop averaging: false
Number of Pixels in Spectrum: 3648
>>>>>Begin Spectral Data<<<<<
177.566	-203.74
177.785	-2422.37
178.005	209.29
178.225	408.87
178.445	8.47
178.665	57.35
178.885	548.77
179.105	-60.63
179.324	-46.89
179.544	-4.78
179.764	19.56
179.984	-14.76
180.204	-5.09
180.423	58.45
180.643	56.3
180.863	45.62
181.083	55.59
181.302	49.92
181.522	34.5
181.742	37.7
181.961	44.22
182.181	40.73
182.401	54.36
182.621	34.54
182.84	12.28
183.06	9.74
183.279	6.3
183.499	8.3
183.719	18.92
183.938	34.79
184.158	38.08
184.377	26.6
184.597	22.32
184.816	4.07
185.036	30.19
185.256	41.63
185.475	33.69
185.695	30.57
185.914	20.03
186.134	66.8
186.353	37.08
186.572	17.85
186.792	10.28
187.011	11.31
187.231	14.74
187.45	21.42
187.67	9.8
187.889	22.55
188.108	45.08
188.328	43.92
188.547	9.59
188.766	1.02
188.986	-8.12
189.205	-14.49
189.424	2.57
189.644	-14.28
189.863	-19.36
190.082	-8.73
190.302	-1.21
190.521	-25.24
190.74	-33.95
190.959	-0.23
191.178	18.83
191.398	19.35
191.617	26.47
191.836	11
192.055	15.36
192.274	3.79
192.494	-9.84
192.713	-24.55
192.932	-10.54
193.151	-11.2
193.37	-34.48
193.589	-39.45
193.808	-62.31
194.027	-59.11
194.246	-29.84
194.465	-7.93
194.685	20.98
194.904	19.81
195.123	28.37
195.342	18.75
195.561	34.48
195.78	47.74
195.999	49.38
196.218	32.38
196.436	29.29
196.655	8.98
196.874	-5.65
197.093	-29.33
197.312	13.33
197.531	0.56
197.75	9.52
197.969	4.55
198.188	-14.53
198.407	-34.95
198.625	-4.08
198.844	10.37
199.063	16.63
199.282	18.43
199.501	29.54
199.719	4.81
199.938	15.29
200.157	-41.23
200.376	0.01
200.594	46.14
200.813	63.86
201.032	52.26
201.251	57.54
201.469	69.81
201.688	69.89
201.907	42.08
202.125	34.06
202.344	28.08
202.563	44.39
202.781	31.32
203	24.21
203.218	5.06
203.437	24.16
203.656	17.98
203.874	0.5
204.093	-2.28
204.311	9.79
204.53	2.29
204.748	18.68
204.967	32.71
205.185	38.41
205.404	42.68
205.622	55.5
205.841	41.56
206.059	42.74
206.278	47.64
206.496	41.47
206.715	35.09
206.933	38.08
207.151	35.01
207.37	26.04
207.588	21.06
207.806	36.54
208.025	40.42
208.243	27.28
208.461	31.67
208.68	36.19
208.898	38.43
209.116	18.03
209.335	40.29
209.553	27.44
209.771	31.53
209.989	11.86
210.208	-14.66
210.426	-40.67
210.644	-2.48
210.862	-20.32
211.081	6.61
211.299	-27.42
211.517	35.7
211.735	-5.27
211.953	3.12
212.171	1
212.39	37.01
212.608	34.8
212.826	31.65
213.044	22.14
213.262	19.75
213.48	-7.27
213.698	13.23
213.916	-16.69
214.134	-4.27
214.352	-6.05
214.57	5.41
214.788	-21.24
215.006	-74.13
215.224	-18.61
215.442	-65.83
215.66	-92.44
215.878	-23.86
216.096	-16.3
216.314	-20.65
216.532	-19.94
216.75	-14.89
216.968	-2.73
217.185	7.64
217.403	23.89
217.621	20.19
217.839	23.45
218.057	29.21
218.275	28.44
218.492	45.41
218.71	48.54
218.928	48.03
219.146	47.02
219.363	45.46
219.581	41.18
219.799	28.15
220.017	39.18
220.234	20.52
220.452	3.27
220.67	27.43
220.887	9.24
221.105	-28.7
221.323	-61.14
221.54	-35.06
221.758	-29.4
221.976	-2.57
222.193	4.95
222.411	-7.08
222.629	3.03
222.846	3.02
223.064	-11.89
223.281	-4.88
223.499	8.53
223.716	19.01
223.934	20.09
224.151	14.11
224.369	1.13
224.586	-6.74
224.804	-3.35
225.021	-4.13
225.239	-2.75
225.456	-0.23
225.674	-7.63
225.891	-0.82
226.108	5.1
226.326	-4.81
226.543	0.28
226.76	11.78
226.978	10.13
227.195	5.27
227.413	6.43
227.63	10.23
227.847	10.32
228.064	9.57
228.282	6.26
228.499	3.75
228.716	6.14
228.934	6.81
229.151	4.2
229.368	6.38
229.585	9.86
229.802	10.48
230.02	7.16
230.237	5.17
230.454	4.34
230.671	6
230.888	6.09
231.105	3.96
231.323	6.66
231.54	7.42
231.757	4.64
231.974	0.57
232.191	-1.73
232.408	2.62
232.625	4.91
232.842	7.93
233.059	6.62
233.276	6.5
233.493	9.41
233.71	6.25
233.927	8.5
234.144	11.17
234.361	9.82
234.578	12.39
234.795	13.34
235.012	17.6
235.229	16.33
235.446	22.36
235.663	20.63
235.879	20.23
236.096	22.37
236.313	20.84
236.53	19.21
236.747	24.26
236.964	24.04
237.181	21.74
237.397	20.3
237.614	21.93
237.831	13.42
238.048	18.51
238.264	12.36
238.481	12.77
238.698	14.84
238.915	18.69
239.131	17.19
239.348	13.81
239.565	13.47
239.781	12.68
239.998	10.64
240.215	13.28
240.431	12.13
240.648	17.74
240.865	15.82
241.081	16.36
241.298	15.48
241.514	12.89
241.731	15.83
241.947	16.26
242.164	14.83
242.38	13.97
242.597	12.96
242.814	12.42
243.03	11.05
243.246	11.65
243.463	11.19
243.679	11.75
243.896	14.9
244.112	14.39
244.329	16.27
244.545	16.05
244.762	16.23
244.978	16.42
245.194	15.63
245.411	14.46
245.627	14.65
245.843	14.02
246.06	13.12
246.276	10.87
246.492	9.38
246.709	7.57
246.925	8.97
247.141	10.31
247.357	10.19
247.574	10.77
247.79	11.13
248.006	10.82
248.222	10.86
248.439	10.23
248.655	11.48
248.871	11.72
249.087	11.42
249.303	10.33
249.519	9.2
249.736	9.25
249.952	8.47
250.168	8.1
250.384	6.92
250.6	6.29
250.816	8
251.032	5.13
251.248	7.17
251.464	7.38
251.68	8.84
251.896	9.74
252.112	9.17
252.328	9.86
252.544	10.93
252.76	10.65
252.976	10.43
253.192	9.11
253.408	8.22
253.624	7.24
253.84	8.03
254.056	7.17
254.272	7.92
254.487	9.59
254.703	8.23
254.919	7.78
255.135	9.03
255.351	8.84
255.567	10.61
255.782	12.15
255.998	9.43
256.214	9.45
256.43	11.53
256.646	8.36
256.861	6.3
257.077	8.04
257.293	5.87
257.508	5.51
257.724	5.9
257.94	5.95
258.155	6.42
258.371	6.49
258.587	7.89
258.802	7.47
259.018	7.99
259.234	7.88
259.449	7.2
259.665	7.62
259.88	7.7
260.096	7.73
260.312	6.87
260.527	7.22
260.743	8.36
260.958	7.51
261.174	7.3
261.389	7.91
261.605	8.22
261.82	8.43
262.036	8.72
262.251	9.67
262.466	10.1
262.682	10.02
262.897	9.21
263.113	6.49
263.328	5.81
263.543	4.65
263.759	2.02
263.974	3.06
264.189	3.92
264.405	2.66
264.62	-0.54
264.835	-1.26
265.051	-0.17
265.266	-0.11
265.481	1.22
265.696	3.01
265.912	4.01
266.127	6.15
266.342	5.91
266.557	5.33
266.773	6.33
266.988	7.89
267.203	6.54
267.418	8.21
267.633	10.1
267.848	10.52
268.064	9.07
268.279	10.03
268.494	8.9
268.709	10.5
268.924	10.28
269.139	8.52
269.354	7.75
269.569	9.69
269.784	8.61
269.999	7.05
270.214	6.91
270.429	8.16
270.644	7.95
270.859	9.08
271.074	6.4
271.289	7.5
271.504	9.55
271.719	9.88
271.934	8.93
272.149	10.17
272.363	11.02
272.578	11.67
272.793	12.1
273.008	11.56
273.223	10.8
273.438	11.51
273.653	11.88
273.867	11.48
274.082	12.24
274.297	12.91
274.512	12.03
274.726	10.27
274.941	10.42
275.156	11.53
275.371	11.34
275.585	12.07
275.8	13.06
276.015	12.26
276.229	12.27
276.444	11.63
276.659	12.16
276.873	12.03
277.088	13.39
277.302	12.2
277.517	10.08
277.732	11.37
277.946	10.76
278.161	10.95
278.375	11.93
278.59	11.54
278.804	11.37
279.019	10.42
279.233	10.48
279.448	9.26
279.662	9.9
279.877	11.19
280.091	9.9
280.306	10.51
280.52	8.96
280.735	7.4
280.949	7.31
281.163	7.06
281.378	6.68
281.592	6.32
281.806	6.94
282.021	5.54
282.235	5.56
282.449	5.74
282.664	3.99
282.878	4.4
283.092	4.27
283.307	5.83
283.521	6.16
283.735	7.88
283.949	8.64
284.164	9.2
284.378	10.59
284.592	9.98
284.806	10.41
285.02	10.75
285.234	11.45
285.449	11.69
285.663	10.77
285.877	11.13
286.091	10.74
286.305	10.07
286.519	9.75
286.733	10.05
286.947	9.84
287.161	9.48
287.375	10.79
287.589	10.9
287.803	10.35
288.017	10.29
288.231	9.98
288.445	9.72
288.659	9.67
288.873	9.58
289.087	8.44
289.301	8.81
289.515	8.95
289.729	8.55
289.943	7.26
290.157	8.04
290.371	7.64
290.584	8.83
290.798	8.53
291.012	9.09
291.226	10.19
291.44	11.23
291.654	10.62
291.867	10.11
292.081	8.8
292.295	11.21
292.509	11.6
292.722	11.17
292.936	9.88
293.15	10.16
293.364	9.92
293.577	9.04
293.791	8.87
294.005	9.1
294.218	10.15
294.432	12.5
294.645	10.2
294.859	9.41
295.073	10.04
295.286	9.88
295.5	10.11
295.713	9.73
295.927	8.72
296.14	8.81
296.354	9.67
296.568	9.55
296.781	8.68
296.994	9.87
297.208	10.39
297.421	10.07
297.635	10.39
297.848	10.05
298.062	10.45
298.275	11.41
298.489	11.54
298.702	12.56
298.915	13.04
299.129	14.32
299.342	13.56
299.555	14.58
299.769	15.62
299.982	15.65
300.195	16.24
300.409	16.74
300.622	17.58
300.835	17.37
301.048	15.34
301.262	15.04
301.475	13.99
301.688	14.04
301.901	13.72
302.115	13.11
302.328	13.98
302.541	12.8
302.754	12.09
302.967	11.42
303.18	11.7
303.393	12.32
303.607	12.44
303.82	12.38
304.033	12.06
304.246	11.03
304.459	11.88
304.672	11.57
304.885	13.19
305.098	13.55
305.311	13.36
305.524	12.78
305.737	13.04
305.95	13.4
306.163	15.04
306.376	16.9
306.589	17.21
306.802	17.21
307.015	17.56
307.228	17
307.44	16.57
307.653	17.68
307.866	18.08
308.079	18.5
308.292	17.26
308.505	15.84
308.718	15.83
308.93	16.37
309.143	15.94
309.356	15.39
309.569	15.81
309.781	15.71
309.994	15
310.207	15.63
310.42	15.15
310.632	16.81
310.845	16.76
311.058	15.76
311.27	15.78
311.483	16.88
311.696	16.91
311.908	16.58
312.121	17.06
312.333	16.53
312.546	16.23
312.759	16.16
312.971	15.48
313.184	15.83
313.396	16.26
313.609	16.46
313.821	15.55
314.034	15.47
314.246	15.53
314.459	15.84
314.671	16.6
314.884	17.32
315.096	17.72
315.309	16.68
315.521	15.99
315.733	15.85
315.946	15.77
316.158	15.41
316.371	15.88
316.583	16.28
316.795	16.82
317.008	17.58
317.22	16.79
317.432	17.29
317.644	17.77
317.857	19.23
318.069	19.91
318.281	17.92
318.494	18.17
318.706	18.5
318.918	19.41
319.13	19.49
319.342	18.87
319.555	18.52
319.767	17.67
319.979	17.88
320.191	16.79
320.403	17.71
320.615	18.85
320.827	17.93
321.039	16.39
321.252	15.15
321.464	14.9
321.676	14.04
321.888	14.43
322.1	14.2
322.312	14.26
322.524	15.46
322.736	14.69
322.948	14.74
323.16	15.23
323.372	16.24
323.584	17.31
323.796	17.44
324.007	18.27
324.219	19.59
324.431	19.83
324.643	19.9
324.855	20.38
325.067	20.29
325.279	21.54
325.491	23.49
325.702	23.7
325.914	23.09
326.126	22.89
326.338	22.49
326.55	21.59
326.761	23.04
326.973	23.44
327.185	23.01
327.396	22.78
327.608	22.26
327.82	21.56
328.032	22.11
328.243	22.69
328.455	23.42
328.666	24.07
328.878	23.74
329.09	22.89
329.301	23
329.513	22.82
329.725	23.13
329.936	24.9
330.148	25.08
330.359	24.1
330.571	25
330.782	24.89
330.994	25.19
331.205	26.65
331.417	27.75
331.628	27.74
331.84	28.25
332.051	29.32
332.262	27.91
332.474	27.51
332.685	27.85
332.897	27.39
333.108	27.92
333.319	28.36
333.531	29.42
333.742	29.47
333.953	29.37
334.165	29.33
334.376	30.73
334.587	31.08
334.799	31.52
335.01	33.39
335.221	33.73
335.432	34.15
335.644	35
335.855	34.41
336.066	33.95
336.277	34.62
336.488	34.76
336.7	33.34
336.911	33.64
337.122	34
337.333	32.92
337.544	32.63
337.755	32.16
337.966	31.28
338.177	30.7
338.388	30.22
338.599	30.58
338.811	29.69
339.022	29.88
339.233	29.58
339.444	29.54
339.655	29.19
339.866	30.09
340.076	29.92
340.287	30.63
340.498	31.04
340.709	32.04
340.92	31.56
341.131	32.54
341.342	33.56
341.553	33.69
341.764	33.44
341.975	34.51
342.185	34.65
342.396	35.04
342.607	34.6
342.818	34.25
343.029	33.7
343.239	34.21
343.45	33.8
343.661	33.42
343.872	32.75
344.082	32.51
344.293	31.54
344.504	30.59
344.714	30.4
344.925	30.02
345.136	30.02
345.346	30.31
345.557	29.31
345.768	28.96
345.978	28.23
346.189	28.87
346.399	28.67
346.61	28.88
346.821	28.91
347.031	28.9
347.242	29.26
347.452	29.62
347.663	29.95
347.873	30.1
348.084	31.17
348.294	31.62
348.504	31.3
348.715	31.57
348.925	31.77
349.136	32.04
349.346	32.07
349.557	31.6
349.767	31.24
349.977	30.88
350.188	31.05
350.398	30.42
350.608	30.57
350.819	31.4
351.029	30.85
351.239	30.44
351.449	30.76
351.66	29.95
351.87	31.03
352.08	31.26
352.29	31.08
352.501	31.68
352.711	31.98
352.921	31.47
353.131	31.34
353.341	31.82
353.552	32.61
353.762	31.94
353.972	32.48
354.182	31.4
354.392	30.94
354.602	30.3
354.812	29.17
355.022	28.95
355.232	28.84
355.442	28.1
355.652	28.47
355.862	28.11
356.072	27.93
356.282	27.82
356.492	28.79
356.702	29.36
356.912	29.73
357.122	30.38
357.332	30.7
357.542	31.04
357.752	31.41
357.962	30.89
358.171	30.8
358.381	31.05
358.591	30.69
358.801	30.08
359.011	29.72
359.221	30.1
359.43	30.33
359.64	29.61
359.85	29.06
360.06	28.64
360.269	29.19
360.479	28.68
360.689	28.38
360.899	28.95
361.108	28.92
361.318	29.12
361.528	29.21
361.737	28.88
361.947	29.56
362.156	29.78
362.366	29.82
362.576	29.2
362.785	29.6
362.995	29.89
363.204	30.15
363.414	30.25
363.623	30
363.833	29.21
364.042	28.87
364.252	28.8
364.461	28.41
364.671	28.58
364.88	28.82
365.09	28.54
365.299	27.9
365.509	27.49
365.718	27.3
365.927	27.47
366.137	27.53
366.346	27.54
366.555	27.03
366.765	27.19
366.974	27.07
367.183	26.93
367.393	27.1
367.602	27.63
367.811	27.14
368.021	26.84
368.23	26.63
368.439	27.07
368.648	27.12
368.857	26.75
369.067	25.93
369.276	25.47
369.485	25.44
369.694	25.52
369.903	25.11
370.112	25.11
370.321	25
370.531	24.6
370.74	24.47
370.949	24.16
371.158	23.91
371.367	24.52
371.576	24.76
371.785	24.72
371.994	24.48
372.203	24.24
372.412	24.52
372.621	24.55
372.83	24.57
373.039	24.55
373.248	24.61
373.457	24.74
373.666	24.45
373.874	24.1
374.083	23.64
374.292	22.65
374.501	23.26
374.71	22.51
374.919	22.47
375.128	22.93
375.336	22.62
375.545	22.27
375.754	22.63
375.963	22.59
376.171	23.04
376.38	22.82
376.589	23.35
376.798	22.78
377.006	22.54
377.215	22.49
377.424	21.99
377.632	21.88
377.841	21.94
378.05	21.21
378.258	20.9
378.467	20.23
378.675	20.74
378.884	20.43
379.093	20.07
379.301	20.12
379.51	19.89
379.718	19.58
379.927	19.12
380.135	19.21
380.344	19.38
380.552	19.5
380.761	19.4
380.969	18.63
381.177	19.02
381.386	19.26
381.594	19.2
381.803	19.03
382.011	18.95
382.219	19.14
382.428	19.33
382.636	18.91
382.845	19.01
383.053	18.85
383.261	19.14
383.469	18.72
383.678	18.42
383.886	18.12
384.094	18
384.302	18.34
384.511	18.33
384.719	17.67
384.927	17.94
385.135	18
385.343	18.32
385.552	18.55
385.76	18.77
385.968	18.62
386.176	19.02
386.384	19.05
386.592	18.64
386.8	18.8
387.008	18.85
387.216	18.85
387.424	18.7
387.633	18.17
387.841	17.71
388.049	16.99
388.257	17.43
388.465	17.32
388.672	17.22
388.88	17.03
389.088	16.6
389.296	16.63
389.504	16.16
389.712	15.91
389.92	15.92
390.128	15.71
390.336	16.09
390.544	15.99
390.751	15.93
390.959	15.82
391.167	15.97
391.375	15.99
391.583	16.1
391.79	16.38
391.998	16.43
392.206	16.39
392.414	16.29
392.621	15.71
392.829	15.42
393.037	15.41
393.244	15.41
393.452	15.41
393.66	15.28
393.867	15.15
394.075	15.2
394.283	15.19
394.49	15.48
394.698	15.69
394.905	16.26
395.113	16.23
395.32	15.81
395.528	15.71
395.735	15.59
395.943	15.52
396.15	15.25
396.358	14.9
396.565	14.75
396.773	14.47
396.98	14.45
397.188	13.97
397.395	13.9
397.602	14.18
397.81	14.6
398.017	14.34
398.225	13.93
398.432	14.16
398.639	14.19
398.847	13.98
399.054	13.74
399.261	13.41
399.468	13.78
399.676	13.55
399.883	13.45
400.09	12.71
400.297	12.87
400.505	13.07
400.712	13.15
400.919	12.89
401.126	12.88
401.333	12.94
401.54	12.87
401.748	12.54
401.955	12.88
402.162	12.75
402.369	13.06
402.576	12.78
402.783	12.96
402.99	12.39
403.197	12.3
403.404	12.27
403.611	12.42
403.818	12.17
404.025	12.11
404.232	11.92
404.439	11.84
404.646	11.4
404.853	11.28
405.06	11.09
405.267	11.11
405.474	11.38
405.681	11.13
405.887	11.16
406.094	11.34
406.301	11.23
406.508	11.41
406.715	11.41
406.922	12.1
407.128	12.37
407.335	12.44
407.542	12.3
407.749	12.23
407.955	12.21
408.162	12.15
408.369	11.81
408.575	12.01
408.782	11.89
408.989	12.05
409.195	11.64
409.402	11.35
409.609	11.37
409.815	11.58
410.022	11.64
410.228	11.81
410.435	11.58
410.642	11.9
410.848	11.6
411.055	11.62
411.261	11.25
411.468	11.19
411.674	11.35
411.881	11.32
412.087	11.46
412.294	11.34
412.5	11.64
412.706	11.49
412.913	11.26
413.119	11.46
413.326	11.19
413.532	11.12
413.738	11.22
413.945	11.04
414.151	11
414.357	10.84
414.564	10.49
414.77	10.2
414.976	10.44
415.182	10.65
415.389	10.37
415.595	10.35
415.801	10.23
416.007	9.98
416.214	9.82
416.42	9.74
416.626	9.65
416.832	9.79
417.038	9.93
417.244	9.85
417.45	9.84
417.657	10.04
417.863	10.18
418.069	10.37
418.275	10.49
418.481	10.53
418.687	10.73
418.893	10.74
419.099	10.89
419.305	10.58
419.511	10.61
419.717	10.84
419.923	10.64
420.129	10.56
420.335	10.42
420.541	10.46
420.746	10.42
420.952	10.02
421.158	9.84
421.364	9.72
421.57	9.68
421.776	9.57
421.982	9.24
422.187	9.28
422.393	9.24
422.599	9.3
422.805	9.12
423.01	9.13
423.216	9.13
423.422	9.33
423.628	9.32
423.833	9.38
424.039	9.32
424.245	9.38
424.45	9.46
424.656	9.47
424.862	9.35
425.067	9.47
425.273	9.62
425.478	9.76
425.684	9.59
425.889	9.46
426.095	9.6
426.301	9.69
426.506	9.76
426.712	9.68
426.917	9.66
427.123	9.66
427.328	9.52
427.533	9.24
427.739	9.18
427.944	9.39
428.15	9.48
428.355	9.35
428.561	9.37
428.766	9.25
428.971	9.24
429.177	9.15
429.382	9.19
429.587	9.22
429.793	9.35
429.998	9.29
430.203	9.13
430.408	9.23
430.614	9.31
430.819	9.19
431.024	9.21
431.229	9.23
431.434	9.24
431.64	9.39
431.845	9.41
432.05	9.54
432.255	9.68
432.46	9.64
432.665	9.46
432.87	9.56
433.076	9.62
433.281	9.68
433.486	9.64
433.691	9.67
433.896	9.5
434.101	9.41
434.306	9.34
434.511	9.3
434.716	9.28
434.921	9.42
435.126	9.26
435.331	9.12
435.535	8.93
435.74	8.86
435.945	8.57
436.15	8.83
436.355	8.94
436.56	8.9
436.765	8.7
436.97	8.91
437.174	8.81
437.379	8.69
437.584	8.73
437.789	8.71
437.993	8.74
438.198	8.83
438.403	8.73
438.608	8.69
438.812	8.67
439.017	8.91
439.222	8.81
439.426	8.79
439.631	8.82
439.836	8.8
440.04	8.69
440.245	8.75
440.45	8.76
440.654	8.71
440.859	8.64
441.063	8.68
441.268	8.6
441.472	8.53
441.677	8.53
441.881	8.63
442.086	8.81
442.29	8.99
442.495	8.94
442.699	8.97
442.904	8.82
443.108	8.89
443.312	8.78
443.517	8.73
443.721	8.91
443.925	8.78
444.13	8.69
444.334	8.5
444.538	8.46
444.743	8.34
444.947	8.24
445.151	8.45
445.356	8.34
445.56	8.37
445.764	8.47
445.968	8.35
446.173	8.53
446.377	8.54
446.581	8.57
446.785	8.55
446.989	8.6
447.193	8.87
447.398	8.76
447.602	8.67
447.806	8.71
448.01	8.74
448.214	8.74
448.418	8.55
448.622	8.57
448.826	8.56
449.03	8.64
449.234	8.61
449.438	8.39
449.642	8.46
449.846	8.55
450.05	8.79
450.254	8.51
450.458	8.56
450.662	8.67
450.866	8.37
451.069	8.32
451.273	8.05
451.477	8.01
451.681	7.98
451.885	7.97
452.089	7.88
452.292	7.59
452.496	7.68
452.7	7.64
452.904	7.7
453.107	8.07
453.311	7.97
453.515	7.98
453.719	8.05
453.922	8.05
454.126	7.93
454.33	8.18
454.533	8.25
454.737	8.34
454.94	8.33
455.144	8.15
455.348	8.12
455.551	8.21
455.755	8.27
455.958	8.38
456.162	8.38
456.365	8.57
456.569	8.36
456.772	8.23
456.976	8.15
457.179	8.17
457.383	8.32
457.586	8.21
457.79	8.14
457.993	8.23
458.196	8.09
458.4	8.03
458.603	7.89
458.807	7.97
459.01	8.12
459.213	8.08
459.417	8.18
459.62	8.22
459.823	8.17
460.026	8.23
460.23	8.19
460.433	8.17
460.636	8.28
460.839	8.36
461.042	8.4
461.246	8.3
461.449	8.37
461.652	8.25
461.855	8.27
462.058	8.29
462.261	8.4
462.464	8.53
462.668	8.58
462.871	8.56
463.074	8.41
463.277	8.37
463.48	8.32
463.683	8.37
463.886	8.25
464.089	8.32
464.292	8.41
464.495	8.06
464.698	8.03
464.901	7.97
465.104	8.15
465.306	8.3
465.509	8.4
465.712	8.47
465.915	8.42
466.118	8.8
466.321	8.8
466.524	8.77
466.726	8.92
466.929	8.93
467.132	8.94
467.335	8.88
467.538	8.94
467.74	9
467.943	9.08
468.146	9.03
468.348	8.79
468.551	8.53
468.754	8.72
468.956	8.68
469.159	8.59
469.362	8.55
469.564	8.66
469.767	8.43
469.969	8.42
470.172	8.35
470.375	8.43
470.577	8.56
470.78	8.89
470.982	8.63
471.185	8.75
471.387	8.62
471.59	8.57
471.792	8.23
471.995	8.3
472.197	8.37
472.399	8.2
472.602	8.13
472.804	8.2
473.007	8.1
473.209	8.25
473.411	8.19
473.614	8.35
473.816	8.38
474.018	8.43
474.22	8.58
474.423	8.46
474.625	8.57
474.827	8.67
475.03	8.52
475.232	8.32
475.434	8.12
475.636	7.88
475.838	7.83
476.04	7.78
476.243	7.89
476.445	7.7
476.647	7.65
476.849	7.88
477.051	7.78
477.253	7.85
477.455	7.97
477.657	7.95
477.859	8.08
478.061	8.37
478.263	8.53
478.465	8.54
478.667	8.48
478.869	8.53
479.071	8.38
479.273	8.47
479.475	8.43
479.677	8.43
479.879	8.56
480.081	8.8
480.283	8.51
480.485	8.72
480.686	8.7
480.888	8.91
481.09	8.93
481.292	8.97
481.494	8.88
481.695	8.89
481.897	8.83
482.099	8.72
482.301	8.56
482.502	8.62
482.704	8.47
482.906	8.45
483.107	8.38
483.309	8.33
483.511	8.25
483.712	8.29
483.914	8.25
484.115	8.22
484.317	8.18
484.519	8.18
484.72	8.17
484.922	8.12
485.123	8.13
485.325	8.1
485.526	8.06
485.728	8.08
485.929	8.05
486.131	8.09
486.332	8.17
486.534	8.19
486.735	8.12
486.936	8.09
487.138	8.12
487.339	8.07
487.541	8.09
487.742	8.17
487.943	8.19
488.144	8.17
488.346	8.08
488.547	8.01
488.748	7.99
488.95	8.02
489.151	7.96
489.352	7.98
489.553	8.03
489.755	8.06
489.956	7.97
490.157	7.86
490.358	7.96
490.559	8.03
490.76	8.03
490.961	8.14
491.163	8.22
491.364	8.35
491.565	8.39
491.766	8.42
491.967	8.5
492.168	8.45
492.369	8.53
492.57	8.35
492.771	8.38
492.972	8.43
493.173	8.45
493.374	8.42
493.575	8.47
493.776	8.42
493.976	8.42
494.177	8.29
494.378	8.46
494.579	8.59
494.78	8.77
494.981	8.66
495.182	8.55
495.382	8.62
495.583	8.73
495.784	8.64
495.985	8.74
496.185	8.74
496.386	8.82
496.587	8.88
496.788	8.71
496.988	8.68
497.189	8.75
497.39	8.92
497.59	8.96
497.791	9.02
497.992	9.12
498.192	9.08
498.393	8.92
498.593	9.09
498.794	8.96
498.994	9.04
499.195	9.24
499.395	9.35
499.596	9.43
499.796	9.25
499.997	9.33
500.197	9.43
500.398	9.56
500.598	9.69
500.799	9.44
500.999	9.74
501.199	9.79
501.4	9.8
501.6	9.85
501.801	9.83
502.001	9.94
502.201	9.87
502.402	9.77
502.602	9.82
502.802	10
503.002	10.2
503.203	10.07
503.403	10.11
503.603	10.31
503.803	10.65
504.003	10.66
504.204	10.95
504.404	11.23
504.604	11.3
504.804	11.4
505.004	11.45
505.204	11.52
505.404	11.54
505.604	11.7
505.804	11.73
506.005	11.51
506.205	11.56
506.405	11.61
506.605	11.47
506.805	11.76
507.005	11.9
507.204	12.09
507.404	12.43
507.604	12.66
507.804	12.85
508.004	12.91
508.204	12.99
508.404	13.25
508.604	13.3
508.804	13.48
509.003	13.54
509.203	13.68
509.403	13.71
509.603	13.63
509.803	13.67
510.002	13.66
510.202	13.82
510.402	13.98
510.602	14.18
510.801	14.19
511.001	14.24
511.201	14.26
511.4	14.32
511.6	14.62
511.8	14.73
511.999	14.93
512.199	15.01
512.398	15.26
512.598	15.33
512.797	15.49
512.997	15.66
513.197	15.78
513.396	15.95
513.596	16.11
513.795	16.07
513.994	16.22
514.194	16.29
514.393	16.38
514.593	16.39
514.792	16.6
514.992	16.56
515.191	16.73
515.39	16.92
515.59	17.06
515.789	17.13
515.988	17.39
516.188	17.45
516.387	17.73
516.586	18.05
516.786	18.14
516.985	18.42
517.184	18.47
517.383	18.55
517.582	18.7
517.782	18.76
517.981	18.79
518.18	18.9
518.379	19.1
518.578	19.26
518.777	19.21
518.976	19.37
519.176	19.4
519.375	19.68
519.574	19.89
519.773	19.98
519.972	20.23
520.171	20.45
520.37	20.58
520.569	20.69
520.768	20.64
520.967	21.13
521.166	21.28
521.365	21.41
521.564	21.54
521.762	21.6
521.961	21.83
522.16	21.82
522.359	21.92
522.558	22.03
522.757	22.2
522.956	22.45
523.154	22.38
523.353	22.5
523.552	22.68
523.751	22.75
523.949	23.04
524.148	23.1
524.347	23.36
524.546	23.59
524.744	23.66
524.943	23.71
525.142	23.82
525.34	23.93
525.539	24.02
525.737	24.1
525.936	24.13
526.135	24.14
526.333	24.23
526.532	24.28
526.73	24.29
526.929	24.42
527.127	24.59
527.326	24.68
527.524	24.84
527.723	24.99
527.921	25.09
528.12	25.17
528.318	25.28
528.516	25.32
528.715	25.34
528.913	25.35
529.112	25.44
529.31	25.39
529.508	25.45
529.707	25.46
529.905	25.46
530.103	25.42
530.301	25.43
530.5	25.39
530.698	25.53
530.896	25.7
531.094	25.9
531.293	25.98
531.491	26.23
531.689	26.43
531.887	26.55
532.085	26.79
532.283	27.01
532.481	27.17
532.68	27.39
532.878	27.39
533.076	27.38
533.274	27.42
533.472	27.49
533.67	27.6
533.868	27.59
534.066	27.7
534.264	27.7
534.462	27.77
534.66	27.89
534.858	27.93
535.056	28.17
535.253	28.32
535.451	28.41
535.649	28.45
535.847	28.54
536.045	28.68
536.243	28.74
536.441	28.82
536.638	28.95
536.836	28.96
537.034	28.98
537.232	28.86
537.43	28.85
537.627	28.98
537.825	29.06
538.023	29.02
538.22	29.09
538.418	29.18
538.616	29.14
538.813	29.28
539.011	29.43
539.209	29.56
539.406	29.74
539.604	30.01
539.801	30
539.999	30.19
540.196	30.41
540.394	30.35
540.591	30.34
540.789	30.44
540.986	30.28
541.184	30.33
541.381	30.47
541.579	30.47
541.776	30.38
541.974	30.38
542.171	30.27
542.368	30.26
542.566	30.39
542.763	30.43
542.96	30.44
543.158	30.62
543.355	30.72
543.552	30.67
543.75	30.88
543.947	30.9
544.144	31.05
544.341	31.22
544.539	31.22
544.736	31.25
544.933	31.38
545.13	31.54
545.327	31.69
545.524	31.62
545.722	31.66
545.919	31.55
546.116	31.69
546.313	31.76
546.51	31.78
546.707	31.96
546.904	32.08
547.101	32.08
547.298	32.07
547.495	31.89
547.692	31.76
547.889	31.73
548.086	31.87
548.283	31.95
548.48	31.96
548.677	32.04
548.874	31.89
549.07	31.89
549.267	31.97
549.464	32.03
549.661	32.26
549.858	32.56
550.055	32.72
550.251	32.5
550.448	32.51
550.645	32.59
550.842	32.47
551.038	32.65
551.235	32.65
551.432	32.7
551.628	32.66
551.825	32.47
552.022	32.42
552.218	32.5
552.415	32.75
552.612	32.91
552.808	32.82
553.005	33.05
553.201	32.99
553.398	32.95
553.594	33.01
553.791	32.98
553.987	33.11
554.184	33.12
554.38	33.06
554.577	32.99
554.773	32.91
554.97	33.09
555.166	32.88
555.362	32.87
555.559	33.04
555.755	32.73
555.952	33.03
556.148	33.21
556.344	33.34
556.541	33.38
556.737	33.51
556.933	33.66
557.129	33.6
557.326	33.6
557.522	33.71
557.718	33.48
557.914	33.74
558.11	33.72
558.307	33.82
558.503	33.7
558.699	33.91
558.895	33.88
559.091	33.83
559.287	34.06
559.483	34.01
559.679	34.18
559.876	34.34
560.072	34.34
560.268	34.1
560.464	33.97
560.66	34.07
560.856	33.98
561.052	33.77
561.247	33.72
561.443	33.52
561.639	33.78
561.835	33.61
562.031	33.52
562.227	33.57
562.423	33.6
562.619	33.64
562.815	33.68
563.01	33.47
563.206	33.77
563.402	33.91
563.598	33.96
563.793	33.79
563.989	33.93
564.185	34.15
564.381	34.05
564.576	34.15
564.772	34.11
564.968	34.16
565.163	34.34
565.359	34.33
565.555	34.56
565.75	34.6
565.946	34.76
566.141	34.82
566.337	34.6
566.532	34.82
566.728	34.81
566.923	34.9
567.119	34.9
567.314	34.89
567.51	34.9
567.705	34.68
567.901	34.5
568.096	34.55
568.292	34.37
568.487	34.5
568.682	34.53
568.878	34.56
569.073	34.49
569.268	34.6
569.464	34.84
569.659	34.69
569.854	34.58
570.05	34.89
570.245	34.98
570.44	35.15
570.635	35.13
570.831	35.21
571.026	35.28
571.221	35.39
571.416	35.27
571.611	35.08
571.806	35.26
572.002	35.34
572.197	35.2
572.392	35.15
572.587	35.18
572.782	35.2
572.977	35.06
573.172	34.98
573.367	35
573.562	35.05
573.757	35.23
573.952	35.07
574.147	35.17
574.342	35.43
574.537	35.61
574.732	35.55
574.927	35.68
575.121	35.68
575.316	35.75
575.511	35.76
575.706	35.72
575.901	35.66
576.096	35.65
576.29	35.56
576.485	35.51
576.68	35.32
576.875	35.26
577.069	35.29
577.264	35.24
577.459	35.43
577.654	35.52
577.848	35.71
578.043	35.76
578.238	36.08
578.432	36.19
578.627	36.05
578.821	36.23
579.016	36.57
579.21	36.46
579.405	36.5
579.6	36.36
579.794	36.06
579.989	36
580.183	35.77
580.378	35.74
580.572	35.73
580.766	35.96
580.961	36.23
581.155	35.86
581.35	36.01
581.544	36.15
581.738	36.17
581.933	36.4
582.127	36.62
582.321	36.54
582.516	36.3
582.71	36.48
582.904	36.18
583.099	35.44
583.293	35.76
583.487	35.77
583.681	35.74
583.875	35.73
584.07	35.72
584.264	35.78
584.458	36.09
584.652	36.36
584.846	35.93
585.04	36.15
585.234	36.26
585.428	35.98
585.623	36.08
585.817	36.4
586.011	36.37
586.205	36.32
586.399	36.25
586.593	36.44
586.787	36.36
586.981	36.52
587.174	36.41
587.368	36.71
587.562	36.74
587.756	36.52
587.95	36.07
588.144	36.37
588.338	36.43
588.532	36.38
588.725	36.33
588.919	36.2
589.113	36.53
589.307	36.47
589.501	36.58
589.694	36.64
589.888	36.84
590.082	36.97
590.275	36.76
590.469	36.78
590.663	36.51
590.856	36.32
591.05	36.56
591.244	36.56
591.437	36.78
591.631	36.89
591.824	36.87
592.018	36.77
592.212	36.75
592.405	36.68
592.599	36.91
592.792	36.95
592.986	36.96
593.179	37.01
593.372	37.02
593.566	36.78
593.759	36.55
593.953	36.66
594.146	36.68
594.339	36.84
594.533	36.85
594.726	36.71
594.92	36.72
595.113	36.91
595.306	36.97
595.499	36.83
595.693	37.02
595.886	37.03
596.079	36.92
596.272	36.92
596.466	36.77
596.659	36.86
596.852	36.89
597.045	37.04
597.238	36.92
597.431	36.64
597.624	36.64
597.818	36.85
598.011	36.82
598.204	36.99
598.397	36.93
598.59	36.9
598.783	36.89
598.976	36.72
599.169	36.8
599.362	36.97
599.555	37.28
599.748	37.28
599.941	37.2
600.134	37.42
600.326	37.23
600.519	37.6
600.712	37.77
600.905	37.89
601.098	38.04
601.291	37.95
601.483	37.94
601.676	37.86
601.869	37.96
602.062	37.8
602.255	37.73
602.447	37.86
602.64	37.62
602.833	37.56
603.025	37.53
603.218	37.52
603.411	37.81
603.603	37.62
603.796	37.95
603.989	37.99
604.181	37.94
604.374	37.86
604.566	37.82
604.759	38.08
604.951	38.2
605.144	38.09
605.336	37.98
605.529	37.7
605.721	37.88
605.914	37.72
606.106	37.58
606.299	37.69
606.491	37.68
606.683	37.58
606.876	37.41
607.068	37.27
607.26	37.32
607.453	37.31
607.645	37.43
607.837	37.41
608.03	37.21
608.222	37.04
608.414	36.85
608.606	37.02
608.799	37.12
608.991	37.01
609.183	37.2
609.375	37.41
609.567	37.75
609.759	37.95
609.952	38.2
610.144	38.6
610.336	38.87
610.528	39.18
610.72	39.33
610.912	39.65
611.104	39.92
611.296	40.06
611.488	40.06
611.68	40.24
611.872	40.12
612.064	40.01
612.256	39.82
612.448	39.99
612.64	40.18
612.832	39.87
613.023	39.8
613.215	39.55
613.407	39.33
613.599	39.17
613.791	38.85
613.983	39.34
614.174	39.01
614.366	39.09
614.558	38.9
614.75	38.4
614.941	38.68
615.133	38.43
615.325	38.44
615.516	38.49
615.708	38.47
615.9	38.3
616.091	37.68
616.283	37.93
616.475	37.77
616.666	37.99
616.858	38
617.049	37.79
617.241	37.73
617.432	37.82
617.624	37.93
617.815	37.89
618.007	38.04
618.198	38.18
618.39	38.26
618.581	38.28
618.773	38.1
618.964	38.19
619.155	38.07
619.347	38.08
619.538	38.15
619.729	38.02
619.921	38.3
620.112	38.38
620.303	38.29
620.494	38.14
620.686	37.96
620.877	37.92
621.068	38
621.259	38.45
621.451	38.44
621.642	38.51
621.833	38.9
622.024	38.7
622.215	38.68
622.406	38.68
622.597	38.61
622.788	38.73
622.98	38.64
623.171	38.78
623.362	38.39
623.553	38.48
623.744	38.27
623.935	37.86
624.126	37.92
624.317	37.89
624.508	37.98
624.698	37.87
624.889	38.07
625.08	38.04
625.271	37.76
625.462	37.94
625.653	38.18
625.844	38.16
626.034	38.08
626.225	38.12
626.416	38.19
626.607	38.34
626.798	38.46
626.988	38.39
627.179	38.7
627.37	38.48
627.56	38.46
627.751	38.21
627.942	38.25
628.132	38.44
628.323	38.56
628.514	38.4
628.704	38.07
628.895	37.94
629.085	37.9
629.276	37.76
629.466	37.79
629.657	37.79
629.847	38.09
630.038	38.11
630.228	38.08
630.419	38.01
630.609	38.3
630.8	38.81
630.99	39.01
631.181	38.87
631.371	38.61
631.561	38.88
631.752	39.03
631.942	38.81
632.132	38.88
632.323	38.76
632.513	38.94
632.703	38.86
632.893	38.53
633.084	38.14
633.274	38.23
633.464	38.01
633.654	37.96
633.844	37.52
634.034	37.31
634.225	37.29
634.415	37.44
634.605	37.32
634.795	37.51
634.985	37.44
635.175	37.84
635.365	37.84
635.555	38.42
635.745	38.42
635.935	38.87
636.125	38.91
636.315	38.74
636.505	38.57
636.695	38.36
636.885	38.06
637.075	38.09
637.265	37.89
637.455	37.95
637.644	37.92
637.834	37.97
638.024	37.57
638.214	37.81
638.404	37.96
638.593	38.06
638.783	38.03
638.973	37.77
639.163	37.54
639.352	37.59
639.542	37.55
639.732	37.33
639.921	37.49
640.111	38.02
640.301	37.75
640.49	37.91
640.68	38.01
640.87	38.22
641.059	38.53
641.249	38.81
641.438	38.62
641.628	38.53
641.817	38.71
642.007	38.6
642.196	38.56
642.386	38.49
642.575	38.59
642.764	38.31
642.954	38.45
643.143	38.51
643.333	38.92
643.522	39.51
643.711	39.38
643.901	39.31
644.09	39.29
644.279	38.95
644.469	39.12
644.658	38.61
644.847	38.8
645.036	38.51
645.226	38.67
645.415	38.09
645.604	38.05
645.793	37.91
645.982	37.72
646.171	37.97
646.361	38.06
646.55	38.35
646.739	38.72
646.928	38.73
647.117	38.78
647.306	38.53
647.495	38.75
647.684	38.4
647.873	38.3
648.062	38.53
648.251	38.34
648.44	38.64
648.629	38.44
648.818	37.81
649.007	37.78
649.196	37.68
649.384	37.79
649.573	37.98
649.762	37.99
649.951	38.42
650.14	38.4
650.328	38.48
650.517	38.49
650.706	38.22
650.895	38.75
651.083	38.53
651.272	38.67
651.461	38.52
651.65	38.56
651.838	38.8
652.027	38.59
652.216	38.73
652.404	38.74
652.593	38.43
652.781	38.75
652.97	38.7
653.158	38.66
653.347	38.78
653.535	38.73
653.724	38.59
653.912	38.5
654.101	39.06
654.289	38.65
654.478	38.7
654.666	38.87
654.855	38.82
655.043	39.04
655.231	39.29
655.42	39.12
655.608	39.61
655.796	39.34
655.985	39.14
656.173	38.69
656.361	38.65
656.55	38.87
656.738	39.23
656.926	39.47
657.114	39.26
657.302	39.14
657.491	39.45
657.679	39.02
657.867	39.31
658.055	39.59
658.243	39.64
658.431	39.73
658.619	39.66
658.807	39.1
658.996	39.05
659.184	39.14
659.372	39.24
659.56	38.98
659.748	39.14
659.936	38.98
660.124	38.79
660.311	38.72
660.499	38.57
660.687	38.27
660.875	38.78
661.063	38.59
661.251	38.31
661.439	38.4
661.627	38.7
661.814	38.55
662.002	38.93
662.19	39.13
662.378	39.32
662.565	39.86
662.753	39.97
662.941	39.42
663.129	39.29
663.316	39.71
663.504	39.28
663.692	39.11
663.879	38.8
664.067	38.34
664.254	38.04
664.442	37.85
664.63	37.3
664.817	37.62
665.005	37.82
665.192	38.35
665.38	38.18
665.567	38.62
665.755	38.62
665.942	38.93
666.13	38.96
666.317	39.23
666.504	39.5
666.692	39.8
666.879	39.42
667.067	39.59
667.254	39.9
667.441	40.21
667.629	40.25
667.816	40.32
668.003	40.55
668.19	40.54
668.378	40.82
668.565	41.01
668.752	40.65
668.939	40.72
669.127	40.31
669.314	40.06
669.501	39.76
669.688	39.88
669.875	40.03
670.062	40.09
670.249	40.26
670.436	39.59
670.623	39.07
670.81	39.39
670.997	39.81
671.184	39.92
671.371	39.74
671.558	39.22
671.745	39.28
671.932	38.86
672.119	38.32
672.306	37.85
672.493	37.66
672.68	37.76
672.867	37.47
673.054	36.8
673.24	36.43
673.427	36.68
673.614	37.11
673.801	37.25
673.988	37.84
674.174	37.77
674.361	37.86
674.548	38.28
674.734	38.57
674.921	39.03
675.108	39.02
675.294	39.41
675.481	38.72
675.668	38.85
675.854	38.29
676.041	37.39
676.227	37.81
676.414	38.04
676.601	38.22
676.787	37.53
676.974	37.62
677.16	38.2
677.347	38.22
677.533	39.34
677.719	39.87
677.906	39.93
678.092	40.42
678.279	40.65
678.465	40.61
678.651	40.88
678.838	41.3
679.024	40.99
679.21	40.35
679.397	40.39
679.583	39.67
679.769	38.95
679.955	38.95
680.142	38.36
680.328	37.9
680.514	37.82
680.7	38.12
680.886	38.05
681.073	38.01
681.259	38.31
681.445	38.27
681.631	38.29
681.817	38.35
682.003	38.55
682.189	38.95
682.375	39.01
682.561	39.24
682.747	38.42
682.933	38.37
683.119	38.27
683.305	38.55
683.491	38.98
683.677	39.18
683.863	39.45
684.049	39.43
684.235	39.98
684.42	40
684.606	39.73
684.792	39.72
684.978	40.02
685.164	40.3
685.349	40.29
685.535	39.58
685.721	39.8
685.907	39.32
686.092	38.97
686.278	38.69
686.464	38.75
686.649	38.87
686.835	39.36
687.021	39.28
687.206	39.29
687.392	38.79
687.577	38.89
687.763	38.7
687.948	39.01
688.134	38.84
688.319	38.61
688.505	38.48
688.69	38.62
688.876	38.15
689.061	37.89
689.247	37.63
689.432	38
689.618	38.1
689.803	38.73
689.988	39.27
690.174	39.37
690.359	39.14
690.544	39.23
690.73	39.29
690.915	39.62
691.1	39.44
691.285	39.9
691.471	39.99
691.656	40.35
691.841	39.69
692.026	39.23
692.211	39.84
692.396	40.02
692.582	40.62
692.767	40.4
692.952	40.27
693.137	40.27
693.322	39.62
693.507	39.45
693.692	38.51
693.877	38.36
694.062	38.71
694.247	38.33
694.432	38.39
694.617	37.87
694.802	37.74
694.987	37.77
695.172	38.04
695.357	38.66
695.541	38.55
695.726	39.53
695.911	39.75
696.096	39.25
696.281	38.77
696.466	39.06
696.65	39.1
696.835	39.45
697.02	39.96
697.204	39.77
697.389	39.75
697.574	39.84
697.759	39.17
697.943	39.06
698.128	39.23
698.312	39.52
698.497	39.23
698.682	39.13
698.866	39.08
699.051	38.72
699.235	38.89
699.42	38.81
699.604	38.48
699.789	38.52
699.973	38.82
700.158	38.95
700.342	38.7
700.527	38.91
700.711	38.87
700.895	39.14
701.08	38.94
701.264	39.62
701.448	39.4
701.633	39.64
701.817	40.3
702.001	39.68
702.186	39.72
702.37	40.13
702.554	40.15
702.738	40.35
702.923	39.94
703.107	40.15
703.291	39.61
703.475	39.8
703.659	40.14
703.843	39.81
704.027	39.99
704.212	40.1
704.396	40.02
704.58	39.88
704.764	39.43
704.948	39.56
705.132	39.95
705.316	39.27
705.5	38.97
705.684	38.35
705.868	38.84
706.052	38.94
706.235	37.9
706.419	38.11
706.603	38.36
706.787	38.75
706.971	39.22
707.155	38.65
707.339	38.97
707.522	39.34
707.706	40.2
707.89	39.42
708.074	39.76
708.257	41.18
708.441	41.23
708.625	41.02
708.808	41.61
708.992	41.21
709.176	41.17
709.359	41.16
709.543	41.66
709.727	41.17
709.91	41.24
710.094	40.58
710.277	40.06
710.461	40.1
710.644	40.24
710.828	39.89
711.011	40.17
711.195	40.34
711.378	40.66
711.562	40.24
711.745	40.35
711.928	40.44
712.112	39.87
712.295	39.57
712.478	38.96
712.662	38.42
712.845	38.42
713.028	38.1
713.212	38.34
713.395	37.53
713.578	37.38
713.761	37.07
713.945	37
714.128	37.85
714.311	37.79
714.494	38.1
714.677	37.95
714.86	38.47
715.043	38.67
715.227	39.15
715.41	39.28
715.593	39.24
715.776	39.08
715.959	39.34
716.142	39.76
716.325	39.49
716.508	39.86
716.691	40.41
716.874	40.14
717.057	39.66
717.239	39.49
717.422	39.18
717.605	38.85
717.788	38.06
717.971	37.03
718.154	36.85
718.337	37.14
718.519	36.89
718.702	36.81
718.885	37.06
719.068	37.14
719.25	36.94
719.433	37.67
719.616	37.94
719.798	38.69
719.981	39.6
720.164	38.79
720.346	38.78
720.529	38.7
720.712	38.28
720.894	37.44
721.077	37.35
721.259	36.75
721.442	36.47
721.624	36.59
721.807	37.52
721.989	37.95
722.172	37.59
722.354	37.43
722.537	37.91
722.719	38.9
722.901	38.29
723.084	37.81
723.266	37.1
723.448	37.45
723.631	37.39
723.813	37.69
723.995	37.61
724.178	37.88
724.36	38.02
724.542	37.71
724.724	36.73
724.907	37.47
725.089	37.66
725.271	38.94
725.453	38.3
725.635	39.06
725.817	37.77
725.999	37.5
726.181	37.59
726.364	37.38
726.546	37.08
726.728	37.91
726.91	37.72
727.092	37.65
727.274	36.85
727.456	37.11
727.638	36.06
727.819	36.91
728.001	36.75
728.183	37.52
728.365	38.2
728.547	38.3
728.729	38.87
728.911	38.79
729.093	39.26
729.274	39.64
729.456	39.73
729.638	40.77
729.82	40.64
730.001	40.72
730.183	40.56
730.365	40.4
730.546	40.83
730.728	39.99
730.91	40.33
731.091	40.92
731.273	41.52
731.455	41.05
731.636	40.24
731.818	40.65
731.999	40.44
732.181	40.22
732.362	40
732.544	39.52
732.725	40.6
732.907	40.21
733.088	40.44
733.27	40.14
733.451	41.25
733.633	41.89
733.814	41.99
733.995	42.5
734.177	41.97
734.358	42.16
734.539	42.78
734.721	40.93
734.902	41.27
735.083	39.89
735.264	39.04
735.446	38.61
735.627	37.52
735.808	37.22
735.989	36.74
736.17	36.99
736.351	37.66
736.533	37.48
736.714	37.71
736.895	38.02
737.076	38.5
737.257	39.2
737.438	39.34
737.619	40.46
737.8	40.37
737.981	39.69
738.162	40.23
738.343	39.49
738.524	38.81
738.705	40.21
738.886	39.54
739.067	41.1
739.247	41.26
739.428	40.72
739.609	40.49
739.79	41.4
739.971	42.59
740.151	43.44
740.332	43.59
740.513	43.89
740.694	41.8
740.874	41.83
741.055	39.59
741.236	38.76
741.417	38.16
741.597	38.51
741.778	37.66
741.958	37.17
742.139	35.98
742.32	36.31
742.5	36.34
742.681	37.84
742.861	37.25
743.042	39.23
743.222	39.69
743.403	40.62
743.583	40.59
743.764	40.1
743.944	40.58
744.124	40.73
744.305	39.71
744.485	40.02
744.666	39.71
744.846	41.1
745.026	39.92
745.207	40.94
745.387	40.58
745.567	39.63
745.747	39.99
745.928	39.06
746.108	39.04
746.288	38.97
746.468	37.87
746.648	38.69
746.829	37.42
747.009	37.93
747.189	37.03
747.369	37.68
747.549	38.51
747.729	37.84
747.909	37.09
748.089	36.69
748.269	37.43
748.449	37.39
748.629	37.09
748.809	36.65
748.989	36.41
749.169	35.87
749.349	36.21
749.529	35.38
749.709	36.14
749.889	37.52
750.068	38.72
750.248	39
750.428	39.11
750.608	38.1
750.788	39.25
750.967	37.77
751.147	38.33
751.327	37.43
751.507	37.18
751.686	37.6
751.866	37.38
752.046	36.69
752.225	35.93
752.405	37.13
752.585	38.2
752.764	39.3
752.944	41.4
753.123	42.36
753.303	43.4
753.482	43.8
753.662	42.85
753.841	43.06
754.021	41.58
754.2	41.63
754.38	41.13
754.559	39.55
754.739	37.98
754.918	37.12
755.097	35.77
755.277	34.5
755.456	35.83
755.635	35.53
755.815	35.34
755.994	36.64
756.173	36.22
756.352	36.44
756.532	36.46
756.711	37.62
756.89	37.32
757.069	38.34
757.248	39.32
757.427	38.18
757.607	39.12
757.786	39.7
757.965	40.63
758.144	41.23
758.323	41.03
758.502	43.04
758.681	41.93
758.86	41.67
759.039	41.12
759.218	40.37
759.397	40.29
759.576	40.37
759.755	40.17
759.934	38.53
760.113	39.06
760.291	39.26
760.47	38.99
760.649	39.23
760.828	39.93
761.007	39.75
761.186	39.38
761.364	40.35
761.543	39.23
761.722	39.05
761.901	39.61
762.079	39.31
762.258	39.24
762.437	38.51
762.615	38.35
762.794	37.96
762.972	38.31
763.151	38.72
763.33	37.84
763.508	38.94
763.687	38.74
763.865	38.44
764.044	38.53
764.222	38.77
764.401	38.69
764.579	38.87
764.758	39.39
764.936	38.41
765.114	39.19
765.293	39.82
765.471	38.84
765.65	39.18
765.828	39.23
766.006	38.27
766.184	37.4
766.363	37.47
766.541	36.64
766.719	36.93
766.898	37.94
767.076	36.77
767.254	36.7
767.432	37.46
767.61	37.24
767.788	38.75
767.967	39.42
768.145	38.83
768.323	37.62
768.501	39.19
768.679	37.86
768.857	37.98
769.035	38.48
769.213	37.44
769.391	37.89
769.569	36.33
769.747	35.57
769.925	35.59
770.103	37.21
770.281	40.01
770.459	39.08
770.636	40
770.814	40.16
770.992	39.71
771.17	39.41
771.348	38.13
771.525	39.23
771.703	37.67
771.881	36.32
772.059	36.69
772.236	35.24
772.414	36.14
772.592	35.22
772.769	34.78
772.947	33.51
773.125	35.1
773.302	34.67
773.48	34.68
773.657	36.19
773.835	38.13
774.013	38.27
774.19	38.26
774.368	37.14
774.545	36.83
774.723	36.91
774.9	39.16
775.077	39.03
775.255	39.64
775.432	39.71
775.61	40.77
775.787	40.99
775.964	39.7
776.142	39.31
776.319	40.14
776.496	39.16
776.674	40.32
776.851	39.58
777.028	38.94
777.205	40.84
777.382	40.04
777.56	38.08
777.737	37.83
777.914	37.45
778.091	38.51
778.268	38.78
778.445	40.73
778.622	39.57
778.8	37.72
778.977	37.58
779.154	36.9
779.331	38.14
779.508	40.31
779.685	39.89
779.862	41.35
780.038	40.29
780.215	39
780.392	39.22
780.569	38.62
780.746	40.77
780.923	41.97
781.1	41.49
781.277	41.18
781.453	37.33
781.63	35.91
781.807	35.06
781.984	36.28
782.16	36.21
782.337	35.74
782.514	36.61
782.691	35.32
782.867	34.43
783.044	34.21
783.221	34.48
783.397	35.93
783.574	38.25
783.75	39.75
783.927	40.55
784.103	39.91
784.28	38.22
784.456	38.35
784.633	40.34
784.809	40.55
784.986	39.26
785.162	37.73
785.339	36.12
785.515	33.03
785.692	31.65
785.868	31.27
786.044	33.14
786.221	35.67
786.397	37.33
786.573	37.15
786.749	35.7
786.926	36.97
787.102	39.62
787.278	41.34
787.454	43.42
787.631	44.14
787.807	43.24
787.983	42.73
788.159	43.08
788.335	40.5
788.511	40.35
788.687	40.93
788.863	40.5
789.039	39.01
789.216	37.86
789.392	37.17
789.568	36.97
789.744	37.55
789.919	36.57
790.095	36.03
790.271	37.47
790.447	35.91
790.623	34.95
790.799	33.49
790.975	34.8
791.151	36.97
791.327	38.61
791.502	37.63
791.678	36.88
791.854	38.47
792.03	38.36
792.205	36.39
792.381	36.44
792.557	39
792.733	40.22
792.908	38.71
793.084	38.03
793.259	37.46
793.435	37.53
793.611	39.11
793.786	37.49
793.962	37.08
794.137	37.79
794.313	36.95
794.488	33.9
794.664	36.1
794.839	38.14
795.015	36.9
795.19	36.25
795.366	35.55
795.541	34.5
795.716	34.85
795.892	35.28
796.067	35.59
796.242	35.73
796.418	35.4
796.593	35.72
796.768	33.88
796.944	34.78
797.119	33.63
797.294	35.47
797.469	34.26
797.644	34
797.82	33.39
797.995	33.02
798.17	36.07
798.345	38.23
798.52	35.39
798.695	37.42
798.87	36.35
799.045	36.67
799.22	36.51
799.395	38.45
799.57	36.59
799.745	36.86
799.92	38.14
800.095	35.74
800.27	36.68
800.445	36.07
800.62	34.61
800.795	36.36
800.97	38.11
801.145	35.41
801.319	34.71
801.494	36.26
801.669	34
801.844	32.9
802.018	32.64
802.193	31.16
802.368	33.14
802.543	32.66
802.717	32.69
802.892	31.92
803.067	34.99
803.241	36.46
803.416	37.68
803.59	39.18
803.765	37.28
803.94	37.92
804.114	35.48
804.289	36.11
804.463	35.87
804.638	35.54
804.812	32.71
804.986	32.98
805.161	30.21
805.335	31.55
805.51	30.34
805.684	32.15
805.858	31.45
806.033	35.99
806.207	36.35
806.381	36.77
806.556	36.59
806.73	38.29
806.904	37.67
807.078	39.6
807.253	36.33
807.427	37.29
807.601	38.2
807.775	37.82
807.949	35.72
808.123	33.97
808.298	33.62
808.472	34.62
808.646	34.44
808.82	35.52
808.994	33.83
809.168	35.23
809.342	37.17
809.516	35.92
809.69	35.51
809.864	36.82
810.038	35.84
810.212	37.08
810.385	35.86
810.559	36.99
810.733	35.65
810.907	36.76
811.081	36.83
811.255	33.96
811.428	35.46
811.602	36.52
811.776	34.81
811.95	37.52
812.123	40.52
812.297	37.83
812.471	35.84
812.644	35.75
812.818	35.38
812.992	41.64
813.165	44.62
813.339	44.03
813.512	44.92
813.686	45.52
813.86	46.09
814.033	42.86
814.207	45.29
814.38	46.96
814.554	49.67
814.727	49.26
814.9	45.01
815.074	44.59
815.247	43.08
815.421	41.56
815.594	43.1
815.767	42.41
815.941	42.01
816.114	41.85
816.287	42.71
816.46	38.7
816.634	39.45
816.807	38.34
816.98	40.37
817.153	43.55
817.327	44.48
817.5	40.68
817.673	37.79
817.846	38.17
818.019	37.93
818.192	38.73
818.365	37.55
818.538	39.72
818.711	41.63
818.884	37.88
819.057	34.58
819.23	34.16
819.403	37.42
819.576	39.64
819.749	38.43
819.922	38.65
820.095	36.51
820.268	37.95
820.441	37.45
820.614	36.41
820.786	38.74
820.959	38.06
821.132	40.26
821.305	39.16
821.477	38.63
821.65	38.57
821.823	37.83
821.996	38.34
822.168	38.1
822.341	37.22
822.514	37.99
822.686	37.64
822.859	38.13
823.031	37.84
823.204	38.79
823.376	38.68
823.549	38.88
823.722	39.33
823.894	38.81
824.067	39
824.239	39.35
824.411	38.89
824.584	39.51
824.756	39.73
824.929	40.21
825.101	38.78
825.273	38.52
825.446	38.78
825.618	38.95
825.79	39.12
825.963	39.38
826.135	39.61
826.307	39.73
826.479	38.68
826.652	38.35
826.824	36.94
826.996	37.32
827.168	39.14
827.34	39.71
827.512	39.18
827.684	40.06
827.856	39.88
828.029	40.11
828.201	39.45
828.373	39.7
828.545	40.05
828.717	40.7
828.889	41.45
829.061	40.19
829.232	39.5
829.404	39.87
829.576	39.35
829.748	39.12
829.92	38.02
830.092	38.78
830.264	39.39
830.436	39.22
830.607	38.51
830.779	37.45
830.951	38.77
831.123	38.28
831.294	39.76
831.466	40.06
831.638	40.95
831.809	42.34
831.981	42.24
832.153	40.17
832.324	40.58
832.496	40.14
832.667	41.22
832.839	38.26
833.011	38.34
833.182	37.59
833.354	35.4
833.525	34.6
833.697	36.1
833.868	36.26
834.039	36.94
834.211	34.27
834.382	35.59
834.554	35.94
834.725	37.19
834.896	37.24
835.068	36.09
835.239	38.33
835.41	38.92
835.581	38.94
835.753	38.32
835.924	38.17
836.095	40.3
836.266	38.88
836.438	37.63
836.609	37.08
836.78	36.42
836.951	37.91
837.122	37.39
837.293	37.38
837.464	35.78
837.635	34.87
837.806	37.3
837.977	37.22
838.148	37.23
838.319	41.41
838.49	41.96
838.661	42.98
838.832	41.3
839.003	41.13
839.174	42.65
839.345	41.2
839.516	42.18
839.687	36.99
839.857	38.09
840.028	40.79
840.199	35.59
840.37	35.55
840.54	36.66
840.711	37.07
840.882	34.76
841.053	28.62
841.223	27.01
841.394	30.79
841.564	31.33
841.735	24.11
841.906	22.81
842.076	22.93
842.247	23.89
842.417	20.66
842.588	22.93
842.758	20.91
842.929	27.62
843.099	25.14
843.27	26.33
843.44	26.03
843.611	35.61
843.781	33.94
843.951	30.54
844.122	32.56
844.292	33.19
844.462	34.02
844.633	44.23
844.803	38.22
844.973	36.75
845.144	37.7
845.314	36.92
845.484	27.78
845.654	33.99
845.824	40.92
845.995	43.48
846.165	40.06
846.335	39.1
846.505	31.22
846.675	34.87
846.845	49.29
847.015	49.74
847.185	58.81
847.355	66.56
847.525	66.69
847.695	63.06
847.865	55.47
848.035	58.55
848.205	50.37
848.375	53.9
848.545	53.36
848.715	38.5
848.884	33.02
849.054	27.44
849.224	24.11
849.394	21.84
849.564	23.38
849.733	20.75
849.903	24.13
850.073	28.06
850.243	25.6
850.412	24.5
850.582	31.12
850.752	27.77
850.921	28.69
851.091	28.17
851.26	23.48
851.43	23.33
851.599	20.27
851.769	18.03
851.939	17.76
852.108	18.72
852.278	22.04
852.447	21.64
852.616	25.72
852.786	27.22
852.955	31.11
853.125	36.36
853.294	41.33
853.463	43.55
853.633	37.04
853.802	36.19
853.971	42.89
854.141	34.24
854.31	36.36
854.479	38.03
854.648	32.79
854.818	33.16
854.987	28.71
855.156	23.97
855.325	25.87
855.494	31.73
855.663	31.08
855.832	27.7
856.001	33.06
856.171	34.74
856.34	31.51
856.509	32.01
856.678	29.16
856.847	30.82
857.016	32.94
857.185	34.56
857.353	38.16
857.522	44.77
857.691	39.65
857.86	35.28
858.029	28.42
858.198	25.3
858.367	29.15
858.535	25.9
858.704	32.98
858.873	36.58
859.042	27.87
859.21	29.22
859.379	27.32
859.548	31.52
859.717	37.33
859.885	39.62
860.054	49.53
860.222	48.52
860.391	51.36
860.56	52.42
860.728	48.5
860.897	54
861.065	57.58
861.234	57.54
861.402	57.27
861.571	54.38
861.739	56.68
861.908	60.96
862.076	60.07
862.244	54.75
862.413	47.85
862.581	54.79
862.749	50.64
862.918	47.37
863.086	43.25
863.254	40.2
863.423	42.68
863.591	37.13
863.759	24.27
863.927	24.44
864.096	27.88
864.264	24.13
864.432	10.86
864.6	16.77
864.768	3.45
864.936	-4.2
865.104	-2.12
865.272	-6.76
865.44	-17.5
865.608	-10.09
865.776	-5.68
865.944	-6.61
866.112	-4.5
866.28	3.75
866.448	-0.08
866.616	3.75
866.784	10.92
866.952	10.77
867.12	6.27
867.288	14.52
867.455	25.4
867.623	25.6
867.791	26.49
867.959	35.57
868.127	30.34
868.294	31.71
868.462	39.98
868.63	44.45
868.797	53.68
868.965	58.44
869.133	50.4
869.3	40.35
869.468	39.23
869.636	38.37
869.803	36.45
869.971	41.57
870.138	44.45
870.306	42.49
870.473	37.55
870.641	28.52
870.808	20.52
870.975	19.02
871.143	13.89
871.31	14.54
871.478	11.67
871.645	7.1
871.812	0.71
871.98	0.54
872.147	3.08
872.314	10.51
872.482	6.07
872.649	17.67
872.816	35.37
872.983	35.68
873.15	40.44
873.318	37.52
873.485	39.08
873.652	49.25
873.819	44.4
873.986	41.15
874.153	43.6
874.32	43.28
874.487	45.19
874.654	37.94
874.821	45.06
874.988	36.07
875.155	38.7
875.322	36.88
875.489	30.17
875.656	28.44
875.823	27.4
875.99	23.19
876.157	28.24
876.324	32.85
876.49	39.98
876.657	37.66
876.824	50.35
876.991	40.48
877.157	45.01
877.324	36.53
877.491	33.04
877.658	34.95
877.824	27.43
877.991	24.12
878.157	19.94
878.324	13.88
878.491	8.54
878.657	10.64
878.824	27.71
878.99	24.66
879.157	32.02
879.323	36.56
879.49	35.91
879.656	33.15
879.823	38.85
879.989	35.4
880.156	35.76
880.322	35.36
880.488	29.62
880.655	26.33
880.821	29.23
880.987	26.65
881.154	27.23
881.32	26.83
881.486	34.7
881.652	29.28
881.819	31.87
881.985	29.66
882.151	32.54
882.317	36.49
882.483	34.69
882.649	38.55
882.816	40.8
882.982	39.31
883.148	37.26
883.314	38.22
883.48	39.6
883.646	39.53
883.812	40.07
883.978	37.85
884.144	36.48
884.31	38.76
884.476	36.84
884.642	35.88
884.807	36.63
884.973	37.76
885.139	34.74
885.305	33.34
885.471	31.81
885.637	32.45
885.802	34.79
885.968	35.4
886.134	35.05
886.3	33.99
886.465	32.57
886.631	33.08
886.797	34.13
886.962	36.52
887.128	38.31
887.293	39.25
887.459	39.6
887.625	38.73
887.79	38.71
887.956	32.34
888.121	31.95
888.287	35.68
888.452	31.82
888.618	28.61
888.783	25.78
