Data from CB_042_Reflection_00005.txt Node
Date: Wed Nov 11 22:08:25 EST 2015
User: robert
Spectrometer: USB4E03001
Autoset integration time: false
Trigger mode: 4
Integration Time (sec): 1.000000E-1
Scans to average: 15
Electric dark correction enabled: true
Nonlinearity correction enabled: false
Boxcar width: 5
Stray light correction enabled: false
XAxis mode: Wavelengths
Stop averaging: false
Number of Pixels in Spectrum: 3648
>>>>>Begin Spectral Data<<<<<
177.566	123.27
177.785	565.13
178.005	145.84
178.225	317.75
178.445	13.34
178.665	3.59
178.885	41.42
179.105	1.69
179.324	78.9
179.544	38.53
179.764	82.99
179.984	102.17
180.204	104.11
180.423	95.62
180.643	82.93
180.863	64.21
181.083	53.42
181.302	51.11
181.522	41.42
181.742	46.31
181.961	65.66
182.181	65.24
182.401	66.15
182.621	58.3
182.84	59.43
183.06	64.28
183.279	58.89
183.499	79.1
183.719	94.61
183.938	127.28
184.158	129.18
184.377	115.6
184.597	117.87
184.816	121.14
185.036	93.45
185.256	109.18
185.475	114.88
185.695	148.38
185.914	176.89
186.134	181
186.353	173.8
186.572	111.11
186.792	101.92
187.011	75.18
187.231	84.39
187.45	132.74
187.67	76.7
187.889	62.31
188.108	58.32
188.328	52.71
188.547	39.83
188.766	36.83
188.986	49.46
189.205	58.03
189.424	78.6
189.644	62.49
189.863	58.79
190.082	67.35
190.302	52.12
190.521	77.06
190.74	53.5
190.959	66.72
191.178	49.73
191.398	41.04
191.617	39.68
191.836	14.11
192.055	31.71
192.274	26.56
192.494	21.41
192.713	37.94
192.932	30.46
193.151	45.98
193.37	28.14
193.589	38.98
193.808	67.42
194.027	72.54
194.246	92.87
194.465	82.14
194.685	87.65
194.904	85.65
195.123	88.45
195.342	92.82
195.561	84.29
195.78	89.48
195.999	112.14
196.218	97.87
196.436	89.41
196.655	86.47
196.874	96.76
197.093	136.54
197.312	109.16
197.531	96.08
197.75	87.38
197.969	90.23
198.188	68.97
198.407	55.74
198.625	58.57
198.844	41.05
199.063	59.16
199.282	57.4
199.501	27.72
199.719	1.9
199.938	0.36
200.157	-50.53
200.376	4.25
200.594	49.14
200.813	65.85
201.032	64.49
201.251	131.07
201.469	65.74
201.688	57.61
201.907	57.51
202.125	47.1
202.344	65.35
202.563	94.59
202.781	94.73
203	82.94
203.218	72.72
203.437	67.17
203.656	63.78
203.874	67.9
204.093	69.1
204.311	74.71
204.53	111.87
204.748	86.29
204.967	64.56
205.185	63.36
205.404	77.3
205.622	98.55
205.841	98.93
206.059	78.64
206.278	103.19
206.496	87.78
206.715	75.06
206.933	75.48
207.151	84.41
207.37	82.66
207.588	76.52
207.806	58.23
208.025	49.01
208.243	38.51
208.461	50.73
208.68	36.93
208.898	46.65
209.116	47.91
209.335	38.08
209.553	3.23
209.771	5.88
209.989	15.51
210.208	14.7
210.426	28.78
210.644	36.79
210.862	31.28
211.081	53.91
211.299	65.8
211.517	76
211.735	80.28
211.953	105.51
212.171	94.97
212.39	91.54
212.608	97.04
212.826	86.63
213.044	91.29
213.262	82.08
213.48	62.13
213.698	52.78
213.916	40.54
214.134	17.96
214.352	12.18
214.57	16.78
214.788	0.25
215.006	-25.12
215.224	-19.55
215.442	-64.37
215.66	-28.8
215.878	29.36
216.096	47.31
216.314	67.59
216.532	89.57
216.75	81.44
216.968	100.97
217.185	79.64
217.403	72.05
217.621	67.25
217.839	71.16
218.057	61.36
218.275	59.11
218.492	61.19
218.71	47.79
218.928	44.49
219.146	46.92
219.363	33.19
219.581	56.09
219.799	56.53
220.017	69.39
220.234	36.19
220.452	21.44
220.67	41.8
220.887	24.23
221.105	31.29
221.323	15.79
221.54	21.65
221.758	26.79
221.976	18.73
222.193	27.94
222.411	12.94
222.629	25.07
222.846	33.27
223.064	16.22
223.281	25.45
223.499	32.43
223.716	38.57
223.934	39.22
224.151	37.49
224.369	34.81
224.586	26.27
224.804	37.27
225.021	36.09
225.239	34.8
225.456	47.36
225.674	39.21
225.891	28.4
226.108	25.87
226.326	13.02
226.543	15.3
226.76	21.85
226.978	21.69
227.195	27.61
227.413	18.11
227.63	22.25
227.847	18.23
228.064	18.92
228.282	21.09
228.499	17.98
228.716	17.66
228.934	18.35
229.151	13.05
229.368	14.33
229.585	13.09
229.802	14.12
230.02	10.21
230.237	8.48
230.454	7.65
230.671	5.54
230.888	6.75
231.105	9.14
231.323	10.36
231.54	17.49
231.757	16.35
231.974	15.98
232.191	16.82
232.408	18.92
232.625	23.64
232.842	25.36
233.059	30.11
233.276	29.05
233.493	30.82
233.71	27.74
233.927	22.19
234.144	24.95
234.361	24.34
234.578	24.9
234.795	26.26
235.012	26.33
235.229	24.06
235.446	24.22
235.663	25.45
235.879	21.29
236.096	17.25
236.313	18.8
236.53	20.02
236.747	23.28
236.964	24.05
237.181	26.34
237.397	22.21
237.614	25.61
237.831	22.44
238.048	20.43
238.264	19.76
238.481	19.39
238.698	21.02
238.915	17.09
239.131	10.77
239.348	11.35
239.565	10.79
239.781	14.87
239.998	13.95
240.215	18.51
240.431	19.83
240.648	22.14
240.865	22.87
241.081	24.15
241.298	23.09
241.514	24.16
241.731	24
241.947	20.96
242.164	19.54
242.38	17.92
242.597	14.24
242.814	14.76
243.03	14.38
243.246	15.05
243.463	13.52
243.679	13.99
243.896	16.37
244.112	16.54
244.329	21.33
244.545	21.37
244.762	21.96
244.978	24.31
245.194	22.27
245.411	20.64
245.627	19.09
245.843	18.17
246.06	16.43
246.276	13.26
246.492	11.04
246.709	8.47
246.925	10.04
247.141	10.75
247.357	9.95
247.574	10.19
247.79	10.84
248.006	11.39
248.222	12.04
248.439	12.72
248.655	13.6
248.871	14.11
249.087	14.51
249.303	13.98
249.519	13.11
249.736	13.64
249.952	13.37
250.168	12.85
250.384	11.75
250.6	11.54
250.816	11.59
251.032	10.85
251.248	13.16
251.464	12.38
251.68	12.03
251.896	14.31
252.112	13.95
252.328	13.29
252.544	14.69
252.76	14.76
252.976	12.96
253.192	12.31
253.408	12.29
253.624	12.55
253.84	14.25
254.056	13.76
254.272	15.8
254.487	15.72
254.703	18.51
254.919	18.2
255.135	16.43
255.351	17.79
255.567	20.43
255.782	20.2
255.998	16.54
256.214	15.92
256.43	18.09
256.646	13.94
256.861	13.3
257.077	11.12
257.293	8.19
257.508	10.61
257.724	9.25
257.94	7.79
258.155	7.45
258.371	7.68
258.587	9.12
258.802	9.44
259.018	10.03
259.234	9.84
259.449	10.52
259.665	11.02
259.88	10.87
260.096	10.99
260.312	11.23
260.527	11.52
260.743	11.72
260.958	11.37
261.174	11.1
261.389	11.6
261.605	12.03
261.82	12.64
262.036	13.3
262.251	13.84
262.466	14.53
262.682	14.03
262.897	15.25
263.113	14.79
263.328	14.34
263.543	13.25
263.759	10.24
263.974	11.74
264.189	10.47
264.405	9.46
264.62	7.63
264.835	8.45
265.051	10.01
265.266	9.25
265.481	10.54
265.696	11.36
265.912	11.08
266.127	13.16
266.342	12.47
266.557	13.76
266.773	14.78
266.988	15.62
267.203	13.5
267.418	13.45
267.633	13.43
267.848	13.52
268.064	11.53
268.279	12.06
268.494	10.82
268.709	11.28
268.924	11.16
269.139	9.36
269.354	10.35
269.569	10.82
269.784	10.12
269.999	8.76
270.214	8.83
270.429	10.15
270.644	10.51
270.859	11.64
271.074	10.54
271.289	10.16
271.504	11.64
271.719	10.69
271.934	10.72
272.149	10.41
272.363	11.65
272.578	11.91
272.793	11.71
273.008	11.33
273.223	11.07
273.438	11.57
273.653	12.81
273.867	12.02
274.082	12.15
274.297	12.94
274.512	13.25
274.726	11.46
274.941	11.16
275.156	12
275.371	11.9
275.585	12.24
275.8	13.02
276.015	11.16
276.229	11.72
276.444	10.7
276.659	10.64
276.873	11.21
277.088	13.2
277.302	13.28
277.517	13.24
277.732	14.11
277.946	13.89
278.161	13.38
278.375	13.07
278.59	13.67
278.804	14.49
279.019	14.36
279.233	13.76
279.448	13.4
279.662	13.13
279.877	12.48
280.091	12.65
280.306	12.41
280.52	12.03
280.735	13.22
280.949	11.66
281.163	11.11
281.378	9.96
281.592	10.02
281.806	10.08
282.021	9.62
282.235	9.73
282.449	8.98
282.664	8.26
282.878	7.66
283.092	7.26
283.307	8.16
283.521	9.06
283.735	11.21
283.949	12.13
284.164	11.13
284.378	11.11
284.592	11
284.806	11.48
285.02	12.3
285.234	13.08
285.449	12.48
285.663	12
285.877	10.91
286.091	10.34
286.305	8.75
286.519	9.09
286.733	9.27
286.947	9.49
287.161	8.86
287.375	9.01
287.589	8.79
287.803	8.59
288.017	8.43
288.231	10.35
288.445	10.3
288.659	10.51
288.873	11.43
289.087	11.41
289.301	10.71
289.515	12.2
289.729	12.75
289.943	12.64
290.157	13.06
290.371	12.68
290.584	12.54
290.798	12.75
291.012	13.5
291.226	13.37
291.44	13.79
291.654	14.15
291.867	13.45
292.081	11.97
292.295	12.25
292.509	12.68
292.722	13.08
292.936	12.11
293.15	12.5
293.364	13.73
293.577	13.7
293.791	13.23
294.005	12.63
294.218	13.12
294.432	14.1
294.645	13.79
294.859	12.04
295.073	12.34
295.286	12.88
295.5	12.4
295.713	11.51
295.927	10.32
296.14	10.53
296.354	11.33
296.568	10.39
296.781	9.82
296.994	9.6
297.208	11.47
297.421	11.42
297.635	10.89
297.848	9.78
298.062	9.79
298.275	11.23
298.489	11.47
298.702	12.25
298.915	12.46
299.129	13.83
299.342	13.82
299.555	13.5
299.769	14.14
299.982	14.89
300.195	15.9
300.409	15.79
300.622	16.22
300.835	15.59
301.048	13.74
301.262	13.33
301.475	12.08
301.688	12.55
301.901	11.92
302.115	10.96
302.328	10.58
302.541	10.65
302.754	9.19
302.967	7.73
303.18	9.37
303.393	10.1
303.607	10.86
303.82	11.23
304.033	11.06
304.246	10.36
304.459	10.55
304.672	9.66
304.885	10.86
305.098	12.72
305.311	13.12
305.524	11.42
305.737	10.9
305.95	10.28
306.163	10.89
306.376	11.41
306.589	11.89
306.802	12.63
307.015	13.38
307.228	12.15
307.44	11.34
307.653	11.38
307.866	11.4
308.079	12.99
308.292	12.84
308.505	12.33
308.718	11.76
308.93	12.42
309.143	11.59
309.356	11.72
309.569	12.13
309.781	12.24
309.994	12.04
310.207	12.55
310.42	11.29
310.632	12.44
310.845	12.25
311.058	12.13
311.27	11.23
311.483	10.98
311.696	10.66
311.908	10.89
312.121	10.41
312.333	9.64
312.546	9.34
312.759	9.94
312.971	8.92
313.184	8.18
313.396	7.68
313.609	8.58
313.821	9.37
314.034	9.71
314.246	9.44
314.459	11.11
314.671	11.91
314.884	13.52
315.096	13.45
315.309	13.33
315.521	13.91
315.733	15.08
315.946	14.59
316.158	13.84
316.371	14.3
316.583	13.33
316.795	12.46
317.008	12.66
317.22	11.66
317.432	11.23
317.644	10.66
317.857	12.39
318.069	11.84
318.281	11.26
318.494	12
318.706	12.45
318.918	13.38
319.13	14.12
319.342	14.53
319.555	14.34
319.767	14.16
319.979	15.07
320.191	12.59
320.403	13.51
320.615	13.59
320.827	12.72
321.039	11.01
321.252	10.49
321.464	9.63
321.676	9.49
321.888	10.2
322.1	10.76
322.312	10.67
322.524	11.62
322.736	10.42
322.948	11.1
323.16	12.13
323.372	12.79
323.584	13.16
323.796	13.63
324.007	13
324.219	13.31
324.431	13.13
324.643	13.38
324.855	13.68
325.067	13.76
325.279	14.44
325.491	14.46
325.702	13.67
325.914	13.96
326.126	12.98
326.338	11.96
326.55	11.14
326.761	11.72
326.973	11.08
327.185	10.51
327.396	11.15
327.608	9.87
327.82	10.16
328.032	11.15
328.243	10.14
328.455	10.52
328.666	12.03
328.878	12.42
329.09	11
329.301	9.74
329.513	10.32
329.725	9.89
329.936	11.12
330.148	10.09
330.359	10.06
330.571	10.55
330.782	10.75
330.994	10.48
331.205	9.77
331.417	10.71
331.628	12.1
331.84	11.65
332.051	11.57
332.262	10.72
332.474	11.34
332.685	12.19
332.897	11.56
333.108	12.59
333.319	12.82
333.531	13.55
333.742	13.67
333.953	14.18
334.165	14.14
334.376	14.52
334.587	15.4
334.799	15.92
335.01	15.21
335.221	15.72
335.432	15.03
335.644	15.05
335.855	14.36
336.066	14.54
336.277	14.7
336.488	15.15
336.7	15.15
336.911	14.36
337.122	13.56
337.333	13.26
337.544	13.35
337.755	13.11
337.966	12.68
338.177	12.53
338.388	11.49
338.599	11.37
338.811	10.85
339.022	10.06
339.233	10.33
339.444	10.56
339.655	9.99
339.866	10.73
340.076	10.85
340.287	11.66
340.498	12.13
340.709	13.42
340.92	13.89
341.131	13.99
341.342	14.84
341.553	14.15
341.764	14.07
341.975	14.55
342.185	13.51
342.396	13.9
342.607	13.76
342.818	12.8
343.029	12.53
343.239	12.17
343.45	11.35
343.661	11.51
343.872	12.2
344.082	11.6
344.293	11.89
344.504	12.36
344.714	12.65
344.925	12.23
345.136	13.43
345.346	13.57
345.557	13.24
345.768	13.56
345.978	13.36
346.189	13.92
346.399	14.18
346.61	14.21
346.821	13.69
347.031	12.89
347.242	13.26
347.452	12.85
347.663	13.66
347.873	13.93
348.084	14.98
348.294	14.25
348.504	13.02
348.715	13.8
348.925	14.01
349.136	13.77
349.346	13.39
349.557	13.13
349.767	12.93
349.977	11.14
350.188	10.89
350.398	9.88
350.608	9.79
350.819	10.37
351.029	9.62
351.239	8.83
351.449	9.92
351.66	9.62
351.87	9.77
352.08	9.9
352.29	10.7
352.501	11.24
352.711	11.55
352.921	11.77
353.131	11.53
353.341	11.87
353.552	12.07
353.762	11.18
353.972	12.2
354.182	11.26
354.392	11.38
354.602	11.69
354.812	10.36
355.022	10.16
355.232	10.52
355.442	11.2
355.652	10.68
355.862	10.4
356.072	10.56
356.282	10.23
356.492	11.34
356.702	11.44
356.912	10.61
357.122	11.31
357.332	11.84
357.542	11.97
357.752	11.14
357.962	11.22
358.171	11.42
358.381	11.33
358.591	11.13
358.801	10.31
359.011	9.31
359.221	10.16
359.43	10.58
359.64	9.79
359.85	9.38
360.06	9.16
360.269	9.57
360.479	9.56
360.689	9.84
360.899	10.13
361.108	10.83
361.318	11.14
361.528	10.62
361.737	9.8
361.947	10.18
362.156	10.33
362.366	11.26
362.576	11.01
362.785	11.24
362.995	10.97
363.204	10.73
363.414	10.63
363.623	11.18
363.833	10.99
364.042	11.16
364.252	11.49
364.461	10.97
364.671	10.29
364.88	10.55
365.09	10.03
365.299	10.2
365.509	10.57
365.718	10.7
365.927	10.47
366.137	10.61
366.346	11.45
366.555	11.36
366.765	11.62
366.974	11.48
367.183	11.14
367.393	12.14
367.602	12.44
367.811	11.82
368.021	11.11
368.23	11.18
368.439	11.4
368.648	11.13
368.857	10.35
369.067	10.14
369.276	10.21
369.485	10.72
369.694	10.7
369.903	10.38
370.112	10.55
370.321	10.93
370.531	10.36
370.74	10.55
370.949	10.19
371.158	10.29
371.367	10.59
371.576	10.52
371.785	10.06
371.994	9.64
372.203	9.34
372.412	10.06
372.621	9.9
372.83	9.77
373.039	9.42
373.248	9.44
373.457	9.53
373.666	9.49
373.874	9.52
374.083	9.18
374.292	8.71
374.501	9.34
374.71	8.42
374.919	8.63
375.128	9.19
375.336	9.57
375.545	9.6
375.754	9.9
375.963	9.97
376.171	9.8
376.38	10.2
376.589	10.45
376.798	9.79
377.006	9.96
377.215	9.76
377.424	9.72
377.632	9.23
377.841	9.02
378.05	8.58
378.258	8.35
378.467	8.37
378.675	8.63
378.884	8.28
379.093	8.47
379.301	8.74
379.51	8.56
379.718	8.36
379.927	8.03
380.135	7.84
380.344	7.72
380.552	7.77
380.761	7.45
380.969	6.69
381.177	6.5
381.386	6.33
381.594	5.85
381.803	5.53
382.011	5.4
382.219	5.74
382.428	6.16
382.636	6.43
382.845	6.67
383.053	6.91
383.261	7.22
383.469	7.12
383.678	7.21
383.886	6.98
384.094	7.27
384.302	7.74
384.511	7.47
384.719	7.02
384.927	7.13
385.135	7.08
385.343	7.15
385.552	7.1
385.76	7.68
385.968	7.51
386.176	7.72
386.384	7.42
386.592	7.27
386.8	7.53
387.008	8.06
387.216	8.3
387.424	8.11
387.633	7.82
387.841	8.06
388.049	7.68
388.257	7.76
388.465	7.8
388.672	7.99
388.88	8.07
389.088	8.17
389.296	7.58
389.504	6.96
389.712	6.95
389.92	7.14
390.128	6.59
390.336	6.47
390.544	6.5
390.751	6.54
390.959	6.42
391.167	6.14
391.375	6
391.583	6.28
391.79	6.27
391.998	6.18
392.206	6.02
392.414	6.3
392.621	6.05
392.829	6.29
393.037	6.16
393.244	6.24
393.452	6.07
393.66	5.89
393.867	5.98
394.075	6.32
394.283	6.39
394.49	6.36
394.698	6.38
394.905	6.8
395.113	6.38
395.32	6.23
395.528	6.12
395.735	5.96
395.943	5.94
396.15	5.55
396.358	5.66
396.565	5.71
396.773	5.84
396.98	5.69
397.188	5.66
397.395	5.99
397.602	6.29
397.81	6.45
398.017	6.28
398.225	6.14
398.432	6.36
398.639	6.11
398.847	5.74
399.054	5.65
399.261	5.4
399.468	5.51
399.676	5.27
399.883	5.16
400.09	4.75
400.297	5.1
400.505	4.78
400.712	4.74
400.919	4.6
401.126	4.72
401.333	4.45
401.54	4.28
401.748	4.04
401.955	4.1
402.162	4.35
402.369	4.8
402.576	4.83
402.783	5.39
402.99	5.12
403.197	4.86
403.404	4.87
403.611	5.33
403.818	5.43
404.025	5.45
404.232	5.59
404.439	5.15
404.646	4.68
404.853	4.44
405.06	4.45
405.267	4.49
405.474	4.72
405.681	4.62
405.887	4.45
406.094	4.65
406.301	4.57
406.508	4.57
406.715	4.58
406.922	5.09
407.128	5.42
407.335	5.03
407.542	4.98
407.749	4.86
407.955	4.76
408.162	4.65
408.369	4.46
408.575	4.57
408.782	4.27
408.989	4.96
409.195	4.68
409.402	4.37
409.609	4.82
409.815	5.1
410.022	5.17
410.228	5.56
410.435	5.8
410.642	5.67
410.848	5.44
411.055	5.78
411.261	5.02
411.468	4.91
411.674	5.13
411.881	4.88
412.087	4.54
412.294	4.5
412.5	4.39
412.706	3.98
412.913	3.97
413.119	4.22
413.326	3.81
413.532	3.97
413.738	3.98
413.945	3.7
414.151	3.71
414.357	3.82
414.564	3.86
414.77	3.99
414.976	4.1
415.182	4.43
415.389	4.19
415.595	3.89
415.801	3.97
416.007	3.98
416.214	3.69
416.42	3.65
416.626	3.74
416.832	3.47
417.038	3.28
417.244	3.4
417.45	3.26
417.657	3.53
417.863	3.92
418.069	3.79
418.275	3.86
418.481	4.31
418.687	4.47
418.893	4.34
419.099	4.71
419.305	4.58
419.511	4.62
419.717	4.68
419.923	4.46
420.129	4.38
420.335	4.44
420.541	4.47
420.746	4.26
420.952	4.03
421.158	4.11
421.364	3.8
421.57	3.72
421.776	3.64
421.982	3.57
422.187	3.57
422.393	3.53
422.599	3.47
422.805	3.53
423.01	3.62
423.216	3.72
423.422	3.69
423.628	3.77
423.833	3.87
424.039	3.91
424.245	3.99
424.45	4.1
424.656	4.11
424.862	4.14
425.067	4.25
425.273	4.45
425.478	4.47
425.684	4.59
425.889	4.64
426.095	4.75
426.301	4.62
426.506	4.68
426.712	4.62
426.917	4.61
427.123	4.56
427.328	4.19
427.533	3.7
427.739	3.64
427.944	3.5
428.15	3.38
428.355	3.53
428.561	3.74
428.766	3.55
428.971	3.72
429.177	3.74
429.382	3.88
429.587	4.16
429.793	4.41
429.998	4.47
430.203	4.27
430.408	4.27
430.614	4.19
430.819	4.1
431.024	4.15
431.229	4.04
431.434	3.95
431.64	4.13
431.845	3.96
432.05	3.91
432.255	3.98
432.46	4.09
432.665	3.94
432.87	3.99
433.076	4.06
433.281	4.06
433.486	3.88
433.691	3.94
433.896	3.74
434.101	3.64
434.306	3.63
434.511	3.42
434.716	3.61
434.921	3.89
435.126	3.75
435.331	3.52
435.535	3.47
435.74	3.6
435.945	3.58
436.15	3.65
436.355	3.77
436.56	3.91
436.765	3.95
436.97	3.81
437.174	3.73
437.379	3.78
437.584	3.89
437.789	3.93
437.993	4.01
438.198	3.98
438.403	3.83
438.608	3.7
438.812	3.53
439.017	3.62
439.222	3.64
439.426	3.66
439.631	3.49
439.836	3.66
440.04	3.48
440.245	3.39
440.45	3.38
440.654	3.62
440.859	3.61
441.063	3.62
441.268	3.55
441.472	3.52
441.677	3.54
441.881	3.61
442.086	3.51
442.29	3.78
442.495	3.74
442.699	3.84
442.904	3.51
443.108	3.68
443.312	3.77
443.517	3.88
443.721	3.97
443.925	3.9
444.13	3.89
444.334	3.85
444.538	3.82
444.743	3.85
444.947	3.71
445.151	3.8
445.356	3.86
445.56	3.72
445.764	3.77
445.968	3.76
446.173	3.8
446.377	3.77
446.581	3.67
446.785	3.64
446.989	3.56
447.193	3.62
447.398	3.54
447.602	3.33
447.806	3.41
448.01	3.41
448.214	3.39
448.418	3.29
448.622	3.31
448.826	3.37
449.03	3.24
449.234	3.35
449.438	3.43
449.642	3.52
449.846	3.71
450.05	3.81
450.254	3.62
450.458	3.75
450.662	3.69
450.866	3.56
451.069	3.45
451.273	3.39
451.477	3.17
451.681	3
451.885	2.84
452.089	2.63
452.292	2.52
452.496	2.48
452.7	2.48
452.904	2.59
453.107	2.85
453.311	2.86
453.515	2.98
453.719	3.28
453.922	3.29
454.126	3.52
454.33	3.8
454.533	3.9
454.737	3.97
454.94	3.85
455.144	3.76
455.348	3.81
455.551	4.08
455.755	4.02
455.958	4.07
456.162	4.18
456.365	4.25
456.569	4.07
456.772	3.99
456.976	3.91
457.179	3.98
457.383	4.05
457.586	3.85
457.79	3.71
457.993	3.58
458.196	3.44
458.4	3.3
458.603	3.14
458.807	3.26
459.01	3.32
459.213	3.45
459.417	3.4
459.62	3.47
459.823	3.51
460.026	3.54
460.23	3.68
460.433	3.61
460.636	3.71
460.839	3.78
461.042	3.72
461.246	3.58
461.449	3.56
461.652	3.45
461.855	3.39
462.058	3.4
462.261	3.35
462.464	3.23
462.668	3.36
462.871	3.21
463.074	3.07
463.277	3.15
463.48	3.34
463.683	3.51
463.886	3.53
464.089	3.57
464.292	3.49
464.495	3.49
464.698	3.68
464.901	3.62
465.104	3.9
465.306	3.85
465.509	3.8
465.712	3.69
465.915	3.46
466.118	3.53
466.321	3.54
466.524	3.53
466.726	3.41
466.929	3.35
467.132	3.4
467.335	3.43
467.538	3.61
467.74	3.69
467.943	3.64
468.146	3.6
468.348	3.62
468.551	3.49
468.754	3.67
468.956	3.7
469.159	3.63
469.362	3.64
469.564	3.52
469.767	3.34
469.969	3.32
470.172	3.18
470.375	3.3
470.577	3.35
470.78	3.3
470.982	3.17
471.185	3.31
471.387	3.31
471.59	3.4
471.792	3.29
471.995	3.41
472.197	3.58
472.399	3.7
472.602	3.64
472.804	3.64
473.007	3.82
473.209	3.78
473.411	3.68
473.614	3.72
473.816	3.43
474.018	3.43
474.22	3.5
474.423	3.17
474.625	3.11
474.827	3.24
475.03	3.2
475.232	3.21
475.434	3.25
475.636	3.26
475.838	3.27
476.04	3.23
476.243	3.18
476.445	3.19
476.647	3.31
476.849	3.57
477.051	3.49
477.253	3.54
477.455	3.48
477.657	3.36
477.859	3.38
478.061	3.58
478.263	3.69
478.465	3.78
478.667	3.67
478.869	3.72
479.071	3.75
479.273	3.76
479.475	3.74
479.677	3.81
479.879	3.91
480.081	4.05
480.283	3.76
480.485	3.85
480.686	3.74
480.888	3.82
481.09	3.84
481.292	3.71
481.494	3.64
481.695	3.59
481.897	3.52
482.099	3.45
482.301	3.32
482.502	3.37
482.704	3.38
482.906	3.37
483.107	3.33
483.309	3.3
483.511	3.25
483.712	3.23
483.914	3.19
484.115	3.15
484.317	3.09
484.519	3.08
484.72	3.14
484.922	3.04
485.123	3.06
485.325	3.05
485.526	3.03
485.728	3.06
485.929	3.05
486.131	3.08
486.332	3.17
486.534	3.23
486.735	3.18
486.936	3.17
487.138	3.29
487.339	3.28
487.541	3.3
487.742	3.29
487.943	3.28
488.144	3.31
488.346	3.27
488.547	3.27
488.748	3.24
488.95	3.27
489.151	3.15
489.352	3.07
489.553	3.07
489.755	3.04
489.956	3.02
490.157	2.96
490.358	3.01
490.559	3.02
490.76	3
490.961	3.09
491.163	3.18
491.364	3.22
491.565	3.3
491.766	3.37
491.967	3.39
492.168	3.35
492.369	3.4
492.57	3.26
492.771	3.34
492.972	3.35
493.173	3.23
493.374	3.18
493.575	3.16
493.776	3.03
493.976	2.85
494.177	2.76
494.378	2.94
494.579	2.97
494.78	3.16
494.981	2.95
495.182	2.83
495.382	3.16
495.583	3.18
495.784	3.32
495.985	3.4
496.185	3.48
496.386	3.54
496.587	3.36
496.788	3.31
496.988	3.15
497.189	3.25
497.39	3.48
497.59	3.36
497.791	3.45
497.992	3.45
498.192	3.47
498.393	3.38
498.593	3.45
498.794	3.52
498.994	3.55
499.195	3.76
499.395	3.97
499.596	3.84
499.796	3.8
499.997	3.86
500.197	3.96
500.398	3.99
500.598	4.09
500.799	4
500.999	4.12
501.199	4.22
501.4	4.17
501.6	3.95
501.801	3.94
502.001	3.97
502.201	3.84
502.402	3.61
502.602	3.61
502.802	3.65
503.002	3.82
503.203	3.67
503.403	3.57
503.603	3.63
503.803	3.89
504.003	3.88
504.204	4.11
504.404	4.3
504.604	4.28
504.804	4.38
505.004	4.47
505.204	4.4
505.404	4.58
505.604	4.61
505.804	4.69
506.005	4.6
506.205	4.73
506.405	4.51
506.605	4.37
506.805	4.67
507.005	4.81
507.204	4.85
507.404	5.07
507.604	4.9
507.804	5.1
508.004	4.94
508.204	4.88
508.404	4.9
508.604	5.02
508.804	5.07
509.003	5.13
509.203	4.95
509.403	4.9
509.603	4.85
509.803	5
510.002	4.89
510.202	5.03
510.402	5.25
510.602	5.34
510.801	5.33
511.001	5.47
511.201	5.29
511.4	5.39
511.6	5.61
511.8	5.62
511.999	5.74
512.199	5.78
512.398	5.78
512.598	5.73
512.797	5.81
512.997	6.1
513.197	6.04
513.396	6.15
513.596	6.19
513.795	6.09
513.994	6.15
514.194	5.97
514.393	6.08
514.593	6.07
514.792	6.15
514.992	6.22
515.191	6.02
515.39	6.13
515.59	6.41
515.789	6.37
515.988	6.54
516.188	6.43
516.387	6.59
516.586	6.59
516.786	6.73
516.985	6.93
517.184	6.78
517.383	6.9
517.582	6.94
517.782	6.8
517.981	6.95
518.18	6.95
518.379	7.2
518.578	7.38
518.777	7.4
518.976	7.46
519.176	7.27
519.375	7.5
519.574	7.6
519.773	7.7
519.972	7.84
520.171	7.85
520.37	7.96
520.569	7.87
520.768	7.78
520.967	8.05
521.166	8.22
521.365	8.48
521.564	8.5
521.762	8.53
521.961	8.57
522.16	8.55
522.359	8.65
522.558	8.61
522.757	8.71
522.956	8.82
523.154	8.77
523.353	8.71
523.552	8.82
523.751	8.86
523.949	8.89
524.148	8.84
524.347	8.96
524.546	9.08
524.744	9.23
524.943	9.28
525.142	9.41
525.34	9.42
525.539	9.46
525.737	9.53
525.936	9.64
526.135	9.8
526.333	9.89
526.532	9.84
526.73	9.85
526.929	9.88
527.127	10.02
527.326	10.06
527.524	10.2
527.723	10.28
527.921	10.3
528.12	10.33
528.318	10.32
528.516	10.35
528.715	10.4
528.913	10.49
529.112	10.57
529.31	10.49
529.508	10.52
529.707	10.48
529.905	10.5
530.103	10.53
530.301	10.5
530.5	10.54
530.698	10.61
530.896	10.8
531.094	10.81
531.293	10.86
531.491	11.11
531.689	11.24
531.887	11.29
532.085	11.51
532.283	11.49
532.481	11.55
532.68	11.65
532.878	11.73
533.076	11.69
533.274	11.78
533.472	11.81
533.67	11.89
533.868	11.96
534.066	12.16
534.264	12.04
534.462	12.14
534.66	12.25
534.858	12.41
535.056	12.53
535.253	12.64
535.451	12.69
535.649	12.74
535.847	12.73
536.045	12.81
536.243	12.77
536.441	12.88
536.638	12.97
536.836	13.05
537.034	12.84
537.232	12.86
537.43	12.9
537.627	13
537.825	13.16
538.023	13.17
538.22	13.11
538.418	13.19
538.616	13.24
538.813	13.46
539.011	13.63
539.209	14.04
539.406	14.17
539.604	14.23
539.801	14.27
539.999	14.24
540.196	14.4
540.394	14.51
540.591	14.55
540.789	14.67
540.986	14.57
541.184	14.56
541.381	14.55
541.579	14.58
541.776	14.58
541.974	14.62
542.171	14.69
542.368	14.72
542.566	14.78
542.763	14.87
542.96	14.9
543.158	14.96
543.355	15.02
543.552	14.96
543.75	15.01
543.947	14.99
544.144	15.22
544.341	15.23
544.539	15.25
544.736	15.2
544.933	15.25
545.13	15.4
545.327	15.53
545.524	15.43
545.722	15.64
545.919	15.74
546.116	15.96
546.313	15.89
546.51	15.96
546.707	16.1
546.904	16.14
547.101	16.14
547.298	16.09
547.495	16.08
547.692	16.2
547.889	16.06
548.086	16.24
548.283	16.26
548.48	16.33
548.677	16.4
548.874	16.36
549.07	16.49
549.267	16.59
549.464	16.7
549.661	16.93
549.858	17.01
550.055	17.23
550.251	17.06
550.448	17.16
550.645	17.3
550.842	17.23
551.038	17.44
551.235	17.65
551.432	17.91
551.628	18.05
551.825	18.03
552.022	18.25
552.218	18.2
552.415	18.49
552.612	18.56
552.808	18.52
553.005	18.79
553.201	18.76
553.398	18.79
553.594	18.75
553.791	18.81
553.987	18.82
554.184	18.83
554.38	19.03
554.577	19
554.773	19.17
554.97	19.27
555.166	19.08
555.362	19.09
555.559	19.19
555.755	19.02
555.952	18.97
556.148	19.11
556.344	19.22
556.541	19.17
556.737	19.11
556.933	19.19
557.129	19.23
557.326	19.39
557.522	19.56
557.718	19.5
557.914	19.79
558.11	20.08
558.307	20.15
558.503	20.22
558.699	20.43
558.895	20.54
559.091	20.67
559.287	20.76
559.483	20.92
559.679	20.89
559.876	21.12
560.072	21.25
560.268	21.01
560.464	21.15
560.66	21.07
560.856	21.21
561.052	21.13
561.247	20.95
561.443	21.03
561.639	20.99
561.835	21.17
562.031	21.07
562.227	20.87
562.423	21
562.619	20.79
562.815	20.95
563.01	20.96
563.206	21.27
563.402	21.53
563.598	21.56
563.793	21.64
563.989	21.47
564.185	21.5
564.381	21.69
564.576	21.79
564.772	21.8
564.968	21.82
565.163	21.73
565.359	21.79
565.555	21.72
565.75	21.51
565.946	21.68
566.141	21.93
566.337	21.95
566.532	22.07
566.728	22.06
566.923	22.3
567.119	22.48
567.314	22.73
567.51	22.58
567.705	22.69
567.901	22.95
568.096	23.02
568.292	23.03
568.487	23.05
568.682	23.06
568.878	23.2
569.073	23.42
569.268	23.37
569.464	23.21
569.659	23.32
569.854	23.1
570.05	23.29
570.245	23.28
570.44	23.24
570.635	23.43
570.831	23.61
571.026	23.79
571.221	23.62
571.416	23.62
571.611	23.74
571.806	23.88
572.002	24.13
572.197	24.09
572.392	24.11
572.587	24.3
572.782	24.3
572.977	24.24
573.172	24.19
573.367	24.1
573.562	24.05
573.757	24.07
573.952	23.91
574.147	23.99
574.342	23.93
574.537	23.97
574.732	23.82
574.927	23.9
575.121	23.82
575.316	23.81
575.511	23.96
575.706	24.24
575.901	24.3
576.096	24.5
576.29	24.45
576.485	24.6
576.68	24.52
576.875	24.72
577.069	24.83
577.264	24.96
577.459	25.04
577.654	25.26
577.848	25.23
578.043	25.22
578.238	25.22
578.432	25.17
578.627	25.27
578.821	25.62
579.016	25.82
579.21	25.46
579.405	25.53
579.6	25.4
579.794	25.24
579.989	25.04
580.183	25.09
580.378	25.15
580.572	25.07
580.766	25.25
580.961	25.5
581.155	25.13
581.35	25.22
581.544	25.21
581.738	25.46
581.933	25.71
582.127	26
582.321	26.08
582.516	26.02
582.71	26.28
582.904	25.88
583.099	25.39
583.293	25.6
583.487	25.69
583.681	25.73
583.875	25.62
584.07	25.42
584.264	25.54
584.458	25.39
584.652	25.5
584.846	25.37
585.04	25.65
585.234	25.69
585.428	25.81
585.623	26.07
585.817	26.18
586.011	25.97
586.205	26
586.399	26.05
586.593	26.33
586.787	26.27
586.981	26.4
587.174	26.37
587.368	26.48
587.562	26.57
587.756	26.64
587.95	26.42
588.144	26.54
588.338	26.71
588.532	26.6
588.725	26.52
588.919	26.7
589.113	26.98
589.307	27.09
589.501	27.39
589.694	27.2
589.888	27.23
590.082	27.26
590.275	27.61
590.469	27.52
590.663	27.27
590.856	27.39
591.05	27.34
591.244	27.04
591.437	26.84
591.631	26.65
591.824	26.51
592.018	26.35
592.212	26.39
592.405	26.18
592.599	26.26
592.792	26.39
592.986	26.38
593.179	26.56
593.372	26.92
593.566	27.05
593.759	26.96
593.953	27.17
594.146	27.13
594.339	27.24
594.533	27.36
594.726	27.23
594.92	27.19
595.113	27.03
595.306	27
595.499	26.85
595.693	26.86
595.886	26.96
596.079	27.05
596.272	27.32
596.466	27.26
596.659	27.28
596.852	27.37
597.045	27.59
597.238	27.67
597.431	27.39
597.624	27.42
597.818	27.69
598.011	27.63
598.204	27.59
598.397	27.46
598.59	27.45
598.783	27.43
598.976	27.49
599.169	27.47
599.362	27.57
599.555	27.96
599.748	27.96
599.941	27.68
600.134	27.91
600.326	27.78
600.519	28.06
600.712	28.15
600.905	28.03
601.098	28.03
601.291	28.05
601.483	28.12
601.676	27.98
601.869	28.3
602.062	28.44
602.255	28.32
602.447	28.61
602.64	28.73
602.833	28.86
603.025	29.07
603.218	29.02
603.411	29.07
603.603	28.87
603.796	28.98
603.989	28.84
604.181	28.67
604.374	28.69
604.566	28.63
604.759	28.6
604.951	28.7
605.144	28.52
605.336	28.62
605.529	28.53
605.721	28.65
605.914	28.63
606.106	28.61
606.299	28.84
606.491	28.89
606.683	29.01
606.876	28.82
607.068	28.64
607.26	28.77
607.453	28.74
607.645	28.67
607.837	28.95
608.03	28.92
608.222	28.97
608.414	28.88
608.606	28.76
608.799	28.64
608.991	28.75
609.183	28.7
609.375	28.65
609.567	28.55
609.759	28.57
609.952	28.28
610.144	28.23
610.336	28.07
610.528	27.9
610.72	27.99
610.912	27.98
611.104	27.75
611.296	27.72
611.488	27.63
611.68	27.69
611.872	27.82
612.064	27.56
612.256	27.65
612.448	27.84
612.64	28.17
612.832	28.12
613.023	28.23
613.215	28.16
613.407	28.23
613.599	28.59
613.791	28.69
613.983	28.9
614.174	29.33
614.366	29.26
614.558	29.23
614.75	29.08
614.941	29.09
615.133	29.21
615.325	29.46
615.516	29.87
615.708	29.59
615.9	29.69
616.091	29.38
616.283	29.41
616.475	29.69
616.666	29.77
616.858	29.67
617.049	29.79
617.241	29.71
617.432	29.54
617.624	29.53
617.815	29.52
618.007	29.51
618.198	29.88
618.39	30.12
618.581	30.04
618.773	30.35
618.964	30.36
619.155	30.11
619.347	30.25
619.538	30.68
619.729	30.52
619.921	30.92
620.112	31.23
620.303	30.85
620.494	30.51
620.686	30.7
620.877	30.54
621.068	30.65
621.259	30.8
621.451	30.44
621.642	30.29
621.833	30.71
622.024	30.86
622.215	30.5
622.406	30.73
622.597	30.82
622.788	30.51
622.98	30.48
623.171	30.67
623.362	30.91
623.553	31.01
623.744	31.07
623.935	30.6
624.126	30.32
624.317	30.61
624.508	30.64
624.698	30.41
624.889	30.84
625.08	30.67
625.271	30.93
625.462	30.63
625.653	30.68
625.844	30.71
626.034	31.08
626.225	30.94
626.416	30.78
626.607	30.75
626.798	31.05
626.988	30.92
627.179	31
627.37	30.78
627.56	30.87
627.751	30.8
627.942	30.74
628.132	30.47
628.323	30.55
628.514	30.45
628.704	30.57
628.895	30.47
629.085	30.43
629.276	30.41
629.466	30.2
629.657	30.54
629.847	30.81
630.038	30.63
630.228	30.76
630.419	30.57
630.609	30.78
630.8	30.64
630.99	30.67
631.181	30.43
631.371	30.32
631.561	30.43
631.752	30.26
631.942	30.36
632.132	30.26
632.323	30.08
632.513	30.87
632.703	30.78
632.893	30.86
633.084	30.81
633.274	30.87
633.464	30.83
633.654	30.99
633.844	30.65
634.034	30.63
634.225	30.83
634.415	30.91
634.605	30.7
634.795	30.77
634.985	30.65
635.175	30.73
635.365	30.96
635.555	31.24
635.745	30.94
635.935	31.28
636.125	31.36
636.315	31.42
636.505	31.41
636.695	31.22
636.885	30.94
637.075	30.96
637.265	31.07
637.455	30.77
637.644	30.79
637.834	30.95
638.024	30.74
638.214	30.37
638.404	30.53
638.593	30.64
638.783	30.5
638.973	30.83
639.163	30.87
639.352	31.06
639.542	31.37
639.732	31.45
639.921	31.62
640.111	32.13
640.301	32.38
640.49	32.41
640.68	32.59
640.87	32.69
641.059	33.01
641.249	33.32
641.438	33.11
641.628	33.03
641.817	33.05
642.007	33.11
642.196	33.18
642.386	32.92
642.575	32.86
642.764	32.48
642.954	32.93
643.143	32.68
643.333	32.37
643.522	32.38
643.711	32.29
643.901	32.21
644.09	32.25
644.279	32.12
644.469	32.26
644.658	32.08
644.847	32.45
645.036	32.62
645.226	32.4
645.415	32.11
645.604	32.35
645.793	32.39
645.982	32.57
646.171	32.56
646.361	32.31
646.55	32.42
646.739	32.84
646.928	32.7
647.117	31.86
647.306	32.24
647.495	32.96
647.684	32.65
647.873	32.87
648.062	32.64
648.251	32.44
648.44	32.83
648.629	32.92
648.818	32.61
649.007	32.24
649.196	32.58
649.384	32.54
649.573	32.53
649.762	32.72
649.951	32.54
650.14	32.6
650.328	32.84
650.517	33.01
650.706	32.6
650.895	32.95
651.083	33.2
651.272	32.97
651.461	32.92
651.65	32.77
651.838	32.81
652.027	32.49
652.216	32.39
652.404	32.4
652.593	31.99
652.781	32.76
652.97	32.41
653.158	32.63
653.347	32.71
653.535	32.79
653.724	32.69
653.912	32.69
654.101	33.14
654.289	33.27
654.478	33.5
654.666	33.47
654.855	32.82
655.043	32.67
655.231	32.25
655.42	32.61
655.608	32.74
655.796	32.82
655.985	32.45
656.173	32.25
656.361	32.05
656.55	31.72
656.738	32.24
656.926	32.63
657.114	32.61
657.302	33.09
657.491	32.88
657.679	32.9
657.867	32.82
658.055	33.19
658.243	33.58
658.431	33.56
658.619	33.91
658.807	33.57
658.996	33.62
659.184	33.81
659.372	33.73
659.56	33.83
659.748	33.76
659.936	33.84
660.124	33.59
660.311	33.39
660.499	33.14
660.687	32.71
660.875	32.57
661.063	32.54
661.251	32.59
661.439	32.57
661.627	32.86
661.814	32.86
662.002	33.08
662.19	33.15
662.378	33.09
662.565	33.68
662.753	33.93
662.941	34.06
663.129	33.91
663.316	33.9
663.504	33.92
663.692	33.53
663.879	33.19
664.067	33.11
664.254	33.42
664.442	33.56
664.63	33.48
664.817	33.77
665.005	33.84
665.192	34.36
665.38	34.42
665.567	34.29
665.755	34.62
665.942	34.95
666.13	34.53
666.317	34.33
666.504	34.17
666.692	34.03
666.879	33.32
667.067	33.57
667.254	33.09
667.441	33.32
667.629	33.46
667.816	32.85
668.003	32.86
668.19	32.88
668.378	33.32
668.565	33.54
668.752	33.42
668.939	33.72
669.127	33.73
669.314	34.1
669.501	33.61
669.688	33.56
669.875	34.05
670.062	34.21
670.249	34.25
670.436	33.91
670.623	33.99
670.81	34.37
670.997	34.64
671.184	33.82
671.371	33.73
671.558	33.81
671.745	33.9
671.932	33.96
672.119	33.67
672.306	33.84
672.493	33.73
672.68	33.65
672.867	33.75
673.054	33.3
673.24	33.8
673.427	33.46
673.614	33.74
673.801	34.31
673.988	34.75
674.174	34.62
674.361	34.63
674.548	34.59
674.734	34.43
674.921	34.6
675.108	35
675.294	35.11
675.481	34.99
675.668	35.11
675.854	34.59
676.041	34.09
676.227	34.3
676.414	34.06
676.601	34.09
676.787	33.86
676.974	33.6
677.16	33.78
677.347	33.68
677.533	34.2
677.719	34.26
677.906	34.53
678.092	34.56
678.279	34.97
678.465	35.44
678.651	35.52
678.838	36.22
679.024	35.98
679.21	35.56
679.397	35.63
679.583	35.25
679.769	35.39
679.955	34.88
680.142	34.78
680.328	34.44
680.514	34.29
680.7	34.71
680.886	34.97
681.073	35.05
681.259	35.71
681.445	35.58
681.631	35.7
681.817	35.64
682.003	36
682.189	35.94
682.375	35.93
682.561	35.77
682.747	35.42
682.933	34.93
683.119	34.85
683.305	34.43
683.491	34.63
683.677	34.48
683.863	34.04
684.049	34.05
684.235	34.13
684.42	34.4
684.606	34.77
684.792	34.89
684.978	35.2
685.164	35.07
685.349	35.42
685.535	35.04
685.721	35.27
685.907	34.89
686.092	34.4
686.278	34.19
686.464	34.1
686.649	33.78
686.835	33.84
687.021	34.02
687.206	34.2
687.392	33.1
687.577	34.05
687.763	34.4
687.948	35.2
688.134	35.09
688.319	35.06
688.505	34.66
688.69	34.94
688.876	34.51
689.061	33.73
689.247	33.61
689.432	34.2
689.618	33.68
689.803	33.47
689.988	33.28
690.174	33.9
690.359	33.96
690.544	33.47
690.73	33.61
690.915	34.26
691.1	34.73
691.285	35
691.471	35.52
691.656	35.46
691.841	35.5
692.026	35.35
692.211	35.18
692.396	34.85
692.582	35.38
692.767	34.97
692.952	34.89
693.137	34.91
693.322	34.84
693.507	34.13
693.692	34.12
693.877	33.82
694.062	33.95
694.247	33.97
694.432	35.3
694.617	35.6
694.802	36.11
694.987	35.4
695.172	34.99
695.357	35.4
695.541	35.52
695.726	35.76
695.911	35.44
696.096	36.23
696.281	35.72
696.466	35.02
696.65	34.9
696.835	34.84
697.02	35.61
697.204	35.41
697.389	35.34
697.574	35.4
697.759	35.23
697.943	35.39
698.128	34.78
698.312	35.2
698.497	35.06
698.682	35.06
698.866	34.76
699.051	34.42
699.235	34.43
699.42	34.27
699.604	34.46
699.789	34.17
699.973	34.47
700.158	34.45
700.342	34.31
700.527	34.48
700.711	34.52
700.895	34.84
701.08	34.66
701.264	35.53
701.448	35.43
701.633	35.48
701.817	35.87
702.001	35.83
702.186	36.18
702.37	36.56
702.554	35.97
702.738	36.42
702.923	35.91
703.107	36.27
703.291	35.26
703.475	35.37
703.659	35.29
703.843	35.39
704.027	35.12
704.212	34.54
704.396	34.32
704.58	35.01
704.764	34.42
704.948	34.46
705.132	34.93
705.316	35.62
705.5	35.49
705.684	35.18
705.868	34.78
706.052	34.73
706.235	35.29
706.419	35.77
706.603	35.98
706.787	36.3
706.971	36.84
707.155	36.4
707.339	35.93
707.522	36.72
707.706	37.13
707.89	37.32
708.074	38.19
708.257	38.54
708.441	37.86
708.625	37.03
708.808	36.73
708.992	36.57
709.176	36.76
709.359	36.32
709.543	36.51
709.727	35.91
709.91	36.41
710.094	35.87
710.277	35.4
710.461	35.41
710.644	35.85
710.828	37
711.011	37.44
711.195	36.88
711.378	37.53
711.562	36.98
711.745	36.87
711.928	36.56
712.112	36.72
712.295	36.4
712.478	36.45
712.662	36.57
712.845	35.57
713.028	35.2
713.212	35.57
713.395	35.12
713.578	35.48
713.761	35.73
713.945	36.24
714.128	36.17
714.311	36.46
714.494	36.54
714.677	36.38
714.86	36.42
715.043	36.26
715.227	37.26
715.41	37.46
715.593	36.77
715.776	36.79
715.959	36.09
716.142	36.37
716.325	36.19
716.508	36.03
716.691	36.45
716.874	36.79
717.057	37.48
717.239	36.63
717.422	37.05
717.605	36.62
717.788	35.82
717.971	36.01
718.154	35.83
718.337	36.2
718.519	35.96
718.702	35.66
718.885	36.68
719.068	36.19
719.25	36
719.433	36.19
719.616	37.35
719.798	38.19
719.981	37.19
720.164	37.32
720.346	37.29
720.529	38.01
720.712	38.12
720.894	36.52
721.077	36.12
721.259	35.85
721.442	35.97
721.624	34.72
721.807	35.21
721.989	37.24
722.172	36.12
722.354	35.89
722.537	35.89
722.719	36.13
722.901	35.12
723.084	34.53
723.266	35.04
723.448	34.21
723.631	34.26
723.813	34.22
723.995	32.98
724.178	33.64
724.36	33.62
724.542	34.18
724.724	33.62
724.907	34.7
725.089	35.87
725.271	36.1
725.453	36.26
725.635	37.04
725.817	36.28
725.999	36.97
726.181	36.89
726.364	37.53
726.546	36.15
726.728	36.76
726.91	37.14
727.092	36.25
727.274	36.75
727.456	36.72
727.638	36.86
727.819	38.18
728.001	37.79
728.183	37.47
728.365	37.69
728.547	38.81
728.729	39.11
728.911	39.23
729.093	39.84
729.274	39.46
729.456	39.37
729.638	39.17
729.82	38.39
730.001	37.96
730.183	38.13
730.365	37.68
730.546	37.63
730.728	37.58
730.91	37.57
731.091	38.06
731.273	37.82
731.455	38.23
731.636	39.41
731.818	40.04
731.999	39.85
732.181	39.98
732.362	40.77
732.544	40.45
732.725	39.62
732.907	38.66
733.088	38.29
733.27	38.69
733.451	38.52
733.633	37.45
733.814	36.84
733.995	37.28
734.177	37.24
734.358	36.22
734.539	36.57
734.721	36.84
734.902	38.08
735.083	37.68
735.264	36.67
735.446	37.36
735.627	37.88
735.808	38.22
735.989	38.55
736.17	38.11
736.351	38.79
736.533	38.79
736.714	38.11
736.895	37.7
737.076	37.73
737.257	38.61
737.438	38.2
737.619	37.78
737.8	37.76
737.981	37.68
738.162	38.61
738.343	38.21
738.524	37.7
738.705	39.01
738.886	38.78
739.067	38.78
739.247	38.51
739.428	37.92
739.609	37.7
739.79	38.76
739.971	38.37
740.151	37.53
740.332	37.02
740.513	37.61
740.694	37.22
740.874	38.05
741.055	38.11
741.236	38.64
741.417	38.47
741.597	38.47
741.778	37.93
741.958	37.84
742.139	37.87
742.32	38.5
742.5	38.11
742.681	37.81
742.861	36.34
743.042	37.13
743.222	36.57
743.403	37.68
743.583	38.39
743.764	36.95
743.944	37.3
744.124	37.89
744.305	38.49
744.485	38.38
744.666	38.96
744.846	40.03
745.026	40.27
745.207	40.66
745.387	39
745.567	39.46
745.747	39.86
745.928	40.64
746.108	40.76
746.288	39.02
746.468	38.79
746.648	37.84
746.829	36.21
747.009	35.96
747.189	35.4
747.369	35.99
747.549	35.13
747.729	35.46
747.909	34.32
748.089	34.1
748.269	34.76
748.449	33.24
748.629	33.83
748.809	34.39
748.989	34.2
749.169	34.44
749.349	34.71
749.529	34.18
749.709	34.51
749.889	34.65
750.068	34.74
750.248	35.49
750.428	37.49
750.608	38.07
750.788	38.96
750.967	38.37
751.147	38.17
751.327	37.93
751.507	37.75
751.686	37.84
751.866	38.56
752.046	38.11
752.225	38.22
752.405	38.11
752.585	38.32
752.764	38.18
752.944	39.71
753.123	39.9
753.303	40.96
753.482	41.57
753.662	41.28
753.841	41.05
754.021	40.54
754.2	40.01
754.38	39.02
754.559	37.9
754.739	37.03
754.918	35.22
755.097	35.3
755.277	33.72
755.456	34.34
755.635	33.72
755.815	33.24
755.994	33.4
756.173	33.52
756.352	34.71
756.532	34.59
756.711	36.05
756.89	36.48
757.069	36.41
757.248	37.03
757.427	36.18
757.607	37.36
757.786	38.11
757.965	40.12
758.144	40.22
758.323	39.99
758.502	41.46
758.681	41.82
758.86	41.84
759.039	41.29
759.218	41.25
759.397	41.65
759.576	41.29
759.755	40.64
759.934	39.23
760.113	39.11
760.291	38.63
760.47	37.42
760.649	36.81
760.828	37.8
761.007	38.35
761.186	37.9
761.364	37.48
761.543	37.24
761.722	37.45
761.901	37.44
762.079	37.4
762.258	37.53
762.437	37.71
762.615	37.9
762.794	37.11
762.972	37.28
763.151	37.56
763.33	38.44
763.508	38.56
763.687	39.17
763.865	39.36
764.044	40.17
764.222	40.22
764.401	40.4
764.579	40.27
764.758	40.1
764.936	39.46
765.114	40.39
765.293	39.63
765.471	39.38
765.65	39.16
765.828	39.03
766.006	38.22
766.184	37.96
766.363	37.18
766.541	36.46
766.719	37.53
766.898	39.14
767.076	38.26
767.254	39.09
767.432	39.82
767.61	39.48
767.788	40.56
767.967	40.1
768.145	41.22
768.323	41.33
768.501	42.9
768.679	40.66
768.857	40.13
769.035	39.95
769.213	39.4
769.391	38.68
769.569	38.37
769.747	37.46
769.925	37.27
770.103	36.25
770.281	37.5
770.459	36.16
770.636	38.71
770.814	36.98
770.992	36.64
771.17	36.58
771.348	36.55
771.525	37.64
771.703	37.6
771.881	38.64
772.059	40.25
772.236	40.76
772.414	41.67
772.592	39.78
772.769	40.65
772.947	41
773.125	40.96
773.302	40.58
773.48	38.98
773.657	38.45
773.835	37.95
774.013	37.13
774.19	37.46
774.368	36.93
774.545	38.44
774.723	38.89
774.9	39.71
775.077	40.66
775.255	40.42
775.432	40.93
775.61	42.22
775.787	43.28
775.964	42.64
776.142	41.19
776.319	41.41
776.496	40.07
776.674	39.48
776.851	40.38
777.028	37.12
777.205	39.4
777.382	41.1
777.56	40.05
777.737	37.95
777.914	37.93
778.091	38.8
778.268	39.34
778.445	39.57
778.622	40.18
778.8	39.86
778.977	43.22
779.154	41.19
779.331	41.48
779.508	41.68
779.685	43.13
779.862	43.35
780.038	41.47
780.215	39.7
780.392	39.98
780.569	39.28
780.746	40.49
780.923	38.28
781.1	39.12
781.277	38.26
781.453	37.04
781.63	35.26
781.807	36.59
781.984	37.99
782.16	40.19
782.337	40.8
782.514	42.82
782.691	40.73
782.867	40.37
783.044	38.91
783.221	38.58
783.397	39.97
783.574	39.96
783.75	39.11
783.927	39.68
784.103	38.47
784.28	39.05
784.456	37.14
784.633	39.03
784.809	41.12
784.986	42.58
785.162	40.86
785.339	39.26
785.515	40.62
785.692	39.8
785.868	40.49
786.044	41.24
786.221	39.26
786.397	40.68
786.573	40.35
786.749	39.36
786.926	38.51
787.102	42.62
787.278	42.21
787.454	41.54
787.631	40.8
787.807	40.08
787.983	40.03
788.159	41.74
788.335	41.52
788.511	40.66
788.687	40.84
788.863	42.36
789.039	40.26
789.216	40.63
789.392	40.83
789.568	41.56
789.744	42.53
789.919	41.55
790.095	41.62
790.271	41.41
790.447	41.55
790.623	40.83
790.799	39.63
790.975	40.96
791.151	43.52
791.327	45.3
791.502	46.83
791.678	45.81
791.854	47.31
792.03	46.67
792.205	46.35
792.381	45.76
792.557	47.28
792.733	47.84
792.908	46.01
793.084	45.6
793.259	43.33
793.435	41.64
793.611	42.34
793.786	42.06
793.962	41.55
794.137	41.36
794.313	40.58
794.488	38.72
794.664	38.21
794.839	39.51
795.015	38.94
795.19	40.46
795.366	40.32
795.541	38.49
795.716	36.77
795.892	36.56
796.067	37.23
796.242	37.31
796.418	37.21
796.593	38.26
796.768	37.16
796.944	36.6
797.119	35.72
797.294	36.24
797.469	34.98
797.644	36.44
797.82	37.88
797.995	37.06
798.17	39.17
798.345	41.14
798.52	40.48
798.695	41.7
798.87	40.08
799.045	39.16
799.22	39.81
799.395	43.91
799.57	41.86
799.745	41.24
799.92	41.59
800.095	39.48
800.27	39.64
800.445	40.37
800.62	39.33
800.795	40.25
800.97	43.14
801.145	40.07
801.319	38.15
801.494	38.54
801.669	40.89
801.844	40.98
802.018	41.62
802.193	41.41
802.368	43.38
802.543	42.29
802.717	44.01
802.892	42.51
803.067	44.12
803.241	46.74
803.416	48.29
803.59	45.74
803.765	44.62
803.94	46.3
804.114	45.26
804.289	44.63
804.463	48.01
804.638	48.2
804.812	46.71
804.986	48.83
805.161	46.05
805.335	46.43
805.51	46.28
805.684	46.41
805.858	44.64
806.033	45.23
806.207	43.79
806.381	43.31
806.556	40.56
806.73	40.42
806.904	38.11
807.078	39.06
807.253	36.48
807.427	35.04
807.601	37.25
807.775	34.81
807.949	35.18
808.123	37.83
808.298	35.74
808.472	36.7
808.646	38.08
808.82	39.61
808.994	39.35
809.168	42.74
809.342	44.58
809.516	45.24
809.69	47.96
809.864	48.64
810.038	44.87
810.212	45.7
810.385	47.17
810.559	48.16
810.733	46.07
810.907	46.1
811.081	47.03
811.255	45.67
811.428	42.16
811.602	42.34
811.776	42.78
811.95	46.14
812.123	47.13
812.297	46.71
812.471	46.17
812.644	46.98
812.818	46.19
812.992	42.26
813.165	41.92
813.339	46.73
813.512	45.83
813.686	46.37
813.86	42.38
814.033	42.43
814.207	45.01
814.38	48.18
814.554	49.89
814.727	49.86
814.9	50.52
815.074	50.67
815.247	46.31
815.421	45.54
815.594	42.7
815.767	44.41
815.941	41.2
816.114	41.34
816.287	37.12
816.46	34.93
816.634	34.44
816.807	35.08
816.98	36.53
817.153	37.44
817.327	36.49
817.5	37.27
817.673	40.91
817.846	40.67
818.019	37.06
818.192	38.88
818.365	43.56
818.538	44.8
818.711	44.6
818.884	43.86
819.057	45.83
819.23	46.23
819.403	46.35
819.576	44.46
819.749	44.52
819.922	44.74
820.095	42.47
820.268	39.61
820.441	39.8
820.614	39.72
820.786	41.28
820.959	39.99
821.132	42.03
821.305	42.58
821.477	41.24
821.65	40.2
821.823	39.36
821.996	39.52
822.168	39.68
822.341	38.85
822.514	38.67
822.686	39.22
822.859	39.2
823.031	38.83
823.204	39.37
823.376	39.22
823.549	40.13
823.722	40.59
823.894	40.38
824.067	40.23
824.239	40.17
824.411	40.19
824.584	39.53
824.756	40.39
824.929	40.1
825.101	38.91
825.273	39.19
825.446	39.15
825.618	38.62
825.79	38.61
825.963	38.98
826.135	40.05
826.307	39.94
826.479	39.42
826.652	37.86
826.824	38.13
826.996	38.19
827.168	38.74
827.34	38.4
827.512	39.2
827.684	40.15
827.856	40.61
828.029	40.8
828.201	40.47
828.373	40.61
828.545	41.47
828.717	41.45
828.889	41.62
829.061	40.86
829.232	42.56
829.404	42.45
829.576	42.94
829.748	41.67
829.92	41.35
830.092	42.68
830.264	43.61
830.436	43.75
830.607	44.12
830.779	44.58
830.951	46.15
831.123	44.41
831.294	45.19
831.466	44.39
831.638	46.71
831.809	48.47
831.981	49.21
832.153	49.46
832.324	51.44
832.496	49.97
832.667	50.06
832.839	47.27
833.011	48.46
833.182	47.05
833.354	45.92
833.525	45.18
833.697	44.93
833.868	44.23
834.039	43.2
834.211	41.44
834.382	40.7
834.554	40.67
834.725	42.56
834.896	41.03
835.068	42.92
835.239	43.45
835.41	43.26
835.581	41.33
835.753	40.81
835.924	40.84
836.095	41.17
836.266	43.37
836.438	43.3
836.609	43.52
836.78	45.21
836.951	43.85
837.122	42.01
837.293	41.04
837.464	42.15
837.635	41.78
837.806	43.39
837.977	43.91
838.148	41.44
838.319	41.86
838.49	39.26
838.661	38.48
838.832	37.96
839.003	39.83
839.174	39.08
839.345	39.58
839.516	37.26
839.687	35.64
839.857	34.14
840.028	37.93
840.199	38.16
840.37	41.44
840.54	44.21
840.711	43.89
840.882	43.85
841.053	44.32
841.223	45.2
841.394	49.73
841.564	47.38
841.735	47.47
841.906	45.82
842.076	43.36
842.247	42.97
842.417	38.82
842.588	40.82
842.758	45.13
842.929	44.17
843.099	37.8
843.27	38.51
843.44	42.1
843.611	45.48
843.781	43.97
843.951	48.45
844.122	53.7
844.292	54.43
844.462	53.44
844.633	51.07
844.803	50.09
844.973	54.35
845.144	57.92
845.314	51.93
845.484	46.98
845.654	52.24
845.824	48.89
845.995	40.88
846.165	45.11
846.335	43.83
846.505	40.39
846.675	41.07
846.845	54.81
847.015	52.25
847.185	63.19
847.355	63.93
847.525	62.28
847.695	59.99
847.865	64.1
848.035	63.3
848.205	60.48
848.375	70.87
848.545	76.71
848.715	61.48
848.884	57
849.054	59.93
849.224	62.37
849.394	55.7
849.564	55.53
849.733	53.47
849.903	49.25
850.073	47.53
850.243	37.16
850.412	37.57
850.582	35.7
850.752	28.83
850.921	21.12
851.091	17.66
851.26	17.38
851.43	17.1
851.599	13.18
851.769	14.68
851.939	21.64
852.108	23.96
852.278	22.05
852.447	24.11
852.616	34.44
852.786	39.87
852.955	46.39
853.125	54.59
853.294	57.49
853.463	60.26
853.633	57.85
853.802	56.11
853.971	64.49
854.141	53.49
854.31	52.77
854.479	42.66
854.648	43.95
854.818	47
854.987	42.09
855.156	39.19
855.325	40.28
855.494	38.38
855.663	44.33
855.832	38.42
856.001	44.7
856.171	45.66
856.34	45.34
856.509	39.6
856.678	37.31
856.847	40.66
857.016	41.6
857.185	38.96
857.353	41.53
857.522	36.46
857.691	37.85
857.86	37.37
858.029	38.88
858.198	47.96
858.367	59.37
858.535	50
858.704	59.18
858.873	62.91
859.042	66.07
859.21	77.52
859.379	72.16
859.548	72.71
859.717	79.95
859.885	78.18
860.054	81.32
860.222	73.1
860.391	77.05
860.56	71.68
860.728	65.33
860.897	71.88
861.065	66.75
861.234	69.81
861.402	68.11
861.571	71.29
861.739	71.76
861.908	69.28
862.076	63.11
862.244	66.36
862.413	61.33
862.581	63.94
862.749	63.79
862.918	57.08
863.086	51.92
863.254	58.96
863.423	50.29
863.591	48.13
863.759	47.06
863.927	47.41
864.096	48.38
864.264	47.77
864.432	57.61
864.6	59.94
864.768	54.7
864.936	58.22
865.104	50.75
865.272	48.51
865.44	50.95
865.608	50.42
865.776	55.61
865.944	46.43
866.112	45.39
866.28	39.36
866.448	30.62
866.616	39.07
866.784	41
866.952	45.21
867.12	35.84
867.288	38.58
867.455	42.36
867.623	46.59
867.791	50.45
867.959	57.54
868.127	54.59
868.294	62.67
868.462	69.85
868.63	76.57
868.797	75.22
868.965	80.48
869.133	75.07
869.3	72.19
869.468	69.68
869.636	73.74
869.803	70.5
869.971	70.47
870.138	62.55
870.306	54.82
870.473	53.63
870.641	51.26
870.808	49.74
870.975	50.62
871.143	47.16
871.31	50.61
871.478	41.46
871.645	44.19
871.812	41.53
871.98	45.33
872.147	57.19
872.314	42.91
872.482	38.75
872.649	40.88
872.816	42.99
872.983	37.43
873.15	39.35
873.318	33.94
873.485	33.37
873.652	45.14
873.819	41.99
873.986	39.24
874.153	42.95
874.32	45.34
874.487	43.94
874.654	43.75
874.821	50.6
874.988	46.43
875.155	49.35
875.322	48.89
875.489	42.17
875.656	45.73
875.823	52.32
875.99	54.6
876.157	59.6
876.324	61.77
876.49	64.63
876.657	68.05
876.824	66.29
876.991	71.03
877.157	73.14
877.324	76.93
877.491	63.87
877.658	57.47
877.824	55.4
877.991	42.48
878.157	49.6
878.324	51.16
878.491	39.57
878.657	48.79
878.824	49.67
878.99	54.38
879.157	59.55
879.323	64.57
879.49	63.99
879.656	65.52
879.823	68.39
879.989	59.63
880.156	62.41
880.322	65.92
880.488	62.46
880.655	62.16
880.821	56.69
880.987	55.49
881.154	60
881.32	63.44
881.486	64.55
881.652	61.24
881.819	62.73
881.985	55.1
882.151	53.19
882.317	54.27
882.483	50.81
882.649	50.87
882.816	50.57
882.982	48.36
883.148	42.32
883.314	40.91
883.48	39.62
883.646	39.75
883.812	39.18
883.978	39.2
884.144	38.22
884.31	39.52
884.476	39
884.642	37.9
884.807	38.7
884.973	40.21
885.139	40.14
885.305	42.05
885.471	41.05
885.637	42.47
885.802	42.07
885.968	41.28
886.134	39.88
886.3	39.36
886.465	38.92
886.631	36.12
886.797	38.67
886.962	39.92
887.128	33.77
887.293	34.93
887.459	40.24
887.625	43.62
887.79	43.38
887.956	44.39
888.121	46.68
888.287	48.8
888.452	49.05
888.618	48.21
888.783	44.3
