Data from CB_016_Reflection_2.txt Node
Date: Wed Nov 11 19:06:09 EST 2015
User: robert
Spectrometer: USB4E03001
Autoset integration time: false
Trigger mode: 4
Integration Time (sec): 1.000000E-1
Scans to average: 15
Electric dark correction enabled: true
Nonlinearity correction enabled: false
Boxcar width: 5
Stray light correction enabled: false
XAxis mode: Wavelengths
Stop averaging: false
Number of Pixels in Spectrum: 3648
>>>>>Begin Spectral Data<<<<<
177.566	88.52
177.785	209.9
178.005	77.52
178.225	937.75
178.445	-133.29
178.665	-141.6
178.885	134.12
179.105	143.37
179.324	94.23
179.544	23.62
179.764	72.55
179.984	130.17
180.204	-94.13
180.423	210.24
180.643	523.07
180.863	-809.52
181.083	-2423.14
181.302	-110.28
181.522	620.96
181.742	-21.61
181.961	208.37
182.181	121.34
182.401	152.87
182.621	798.26
182.84	212.9
183.06	233.35
183.279	238.55
183.499	542.66
183.719	554.64
183.938	349.17
184.158	739.7
184.377	-872.05
184.597	-265.74
184.816	-207.21
185.036	-492.76
185.256	-115.31
185.475	608.76
185.695	-5774.71
185.914	291.26
186.134	222.53
186.353	242.81
186.572	247
186.792	162.49
187.011	109.71
187.231	110.49
187.45	156.34
187.67	101.8
187.889	1153.8
188.108	587.78
188.328	1076.79
188.547	-474.9
188.766	-747.31
188.986	331.89
189.205	-17340.91
189.424	610.83
189.644	2078.51
189.863	147.58
190.082	203.84
190.302	135.56
190.521	45.37
190.74	15.03
190.959	29.66
191.178	32.25
191.398	65.71
191.617	55.81
191.836	38.6
192.055	45.18
192.274	10.2
192.494	2.84
192.713	24.24
192.932	43.49
193.151	47.63
193.37	70.41
193.589	75.74
193.808	73.54
194.027	89.93
194.246	135.96
194.465	161.05
194.685	160.69
194.904	186.23
195.123	369.15
195.342	1651.12
195.561	224.76
195.78	193.17
195.999	187.19
196.218	693.92
196.436	-140.28
196.655	-144.09
196.874	3.31
197.093	68.98
197.312	-53.71
197.531	57.4
197.75	70.84
197.969	15.01
198.188	32.67
198.407	28.94
198.625	-26.8
198.844	-70.12
199.063	-85.49
199.282	-152.05
199.501	-44.65
199.719	-93.21
199.938	-1363.28
200.157	135.7
200.376	-1.63
200.594	-31.96
200.813	4142.86
201.032	34.18
201.251	63.8
201.469	30.4
201.688	47.18
201.907	69.4
202.125	46.2
202.344	69.3
202.563	101.69
202.781	139.48
203	98.63
203.218	62.92
203.437	54.43
203.656	35.79
203.874	41.28
204.093	14.96
204.311	29.34
204.53	16.41
204.748	-30.04
204.967	-72.5
205.185	-34.13
205.404	-1.87
205.622	12.65
205.841	12.73
206.059	-4.49
206.278	-9.59
206.496	-7.82
206.715	-9.3
206.933	55.81
207.151	120.45
207.37	109.39
207.588	104.73
207.806	152.6
208.025	132.65
208.243	-13.02
208.461	9.46
208.68	70.22
208.898	146.96
209.116	139.13
209.335	88.37
209.553	-112.41
209.771	140.1
209.989	-1393.04
210.208	75.91
210.426	-64.39
210.644	-56.67
210.862	-4.81
211.081	25.88
211.299	96.3
211.517	104.52
211.735	43.44
211.953	25.59
212.171	86.58
212.39	393.08
212.608	-444.14
212.826	108.05
213.044	117.91
213.262	125.96
213.48	124.27
213.698	254.57
213.916	-954.11
214.134	-185.03
214.352	-273.55
214.57	324.62
214.788	140.15
215.006	95.78
215.224	130.74
215.442	57.27
215.66	89.28
215.878	91.68
216.096	72.38
216.314	65.19
216.532	76.95
216.75	73.72
216.968	71.35
217.185	72.38
217.403	111.11
217.621	45.51
217.839	88.39
218.057	185.93
218.275	732.76
218.492	144.29
218.71	132.79
218.928	179.05
219.146	90.09
219.363	73.51
219.581	65.68
219.799	75.69
220.017	12.21
220.234	14.35
220.452	35.77
220.67	0.79
220.887	-55.31
221.105	-32.01
221.323	-43.68
221.54	57.66
221.758	93.01
221.976	113.37
222.193	98.78
222.411	93.82
222.629	98.9
222.846	74.01
223.064	75.43
223.281	59.29
223.499	57.46
223.716	46.76
223.934	-153.49
224.151	-627.52
224.369	-359.6
224.586	181175
224.804	-630.67
225.021	-317.01
225.239	-316.44
225.456	-262.51
225.674	-216.02
225.891	-71.51
226.108	-51.61
226.326	-40.96
226.543	-32.54
226.76	-26.52
226.978	-8.14
227.195	-6.23
227.413	1.82
227.63	-0.23
227.847	-6.22
228.064	-5.34
228.282	0.12
228.499	3.63
228.716	8.04
228.934	7.18
229.151	6.29
229.368	7.85
229.585	2.57
229.802	6.89
230.02	7.64
230.237	8.82
230.454	13.2
230.671	11.26
230.888	7.95
231.105	6.7
231.323	7.16
231.54	5.64
231.757	-1.61
231.974	5.48
232.191	-2.12
232.408	4.14
232.625	3.67
232.842	-3.13
233.059	-0.17
233.276	6.06
233.493	3.11
233.71	6.49
233.927	7.66
234.144	12.77
234.361	16.15
234.578	14.15
234.795	10.23
235.012	3.56
235.229	6.31
235.446	-0.78
235.663	-10.42
235.879	-5.78
236.096	-9.65
236.313	-14.18
236.53	-16.71
236.747	-9.64
236.964	-9.07
237.181	-18.39
237.397	1.35
237.614	-0.31
237.831	0.6
238.048	5.83
238.264	3.22
238.481	0.02
238.698	5.84
238.915	0.24
239.131	-15.53
239.348	-19.14
239.565	-11.58
239.781	-15.57
239.998	-16.61
240.215	-12.6
240.431	-11.73
240.648	-7.35
240.865	-2.54
241.081	-3.17
241.298	-2.9
241.514	1.56
241.731	4.21
241.947	4.62
242.164	4.23
242.38	6.52
242.597	6.55
242.814	7.22
243.03	6.28
243.246	7.75
243.463	8.8
243.679	11.11
243.896	9.39
244.112	9.18
244.329	10.15
244.545	9.76
244.762	9.23
244.978	9.64
245.194	6.3
245.411	7.27
245.627	4.85
245.843	4.38
246.06	6.94
246.276	8.36
246.492	8.1
246.709	8.51
246.925	8.38
247.141	7.7
247.357	7.72
247.574	9.59
247.79	9.9
248.006	9.8
248.222	10.15
248.439	8.25
248.655	9.53
248.871	9.74
249.087	9.82
249.303	10.41
249.519	10.84
249.736	10.01
249.952	7.5
250.168	5.46
250.384	5.51
250.6	5.21
250.816	6.34
251.032	0.71
251.248	1.19
251.464	1.55
251.68	0.4
251.896	2.26
252.112	2.52
252.328	4.71
252.544	6.06
252.76	5.74
252.976	5.64
253.192	6.91
253.408	8.21
253.624	6.99
253.84	5.82
254.056	8.05
254.272	4.79
254.487	5.63
254.703	6.17
254.919	7.12
255.135	8
255.351	7.5
255.567	6.11
255.782	8.08
255.998	6.4
256.214	5.31
256.43	5.29
256.646	7.13
256.861	4.51
257.077	1.67
257.293	-4.36
257.508	-1.66
257.724	-2.51
257.94	-3.18
258.155	-4.38
258.371	-1.3
258.587	-0.06
258.802	-0.81
259.018	0.25
259.234	2.56
259.449	3.12
259.665	4.52
259.88	4.19
260.096	4.27
260.312	4.76
260.527	5.42
260.743	5.49
260.958	5.13
261.174	5.32
261.389	5.2
261.605	4.21
261.82	5.41
262.036	4.84
262.251	4.58
262.466	5.91
262.682	4.03
262.897	3.43
263.113	1.27
263.328	0.91
263.543	1.67
263.759	2.05
263.974	1.53
264.189	-1.57
264.405	-1.81
264.62	-3.27
264.835	-4.1
265.051	-1.66
265.266	-1.64
265.481	1.48
265.696	2
265.912	1.65
266.127	-0.12
266.342	0.84
266.557	0.24
266.773	2.71
266.988	2.46
267.203	0.93
267.418	1.53
267.633	-0.26
267.848	-1.55
268.064	-0.81
268.279	-1.25
268.494	-0.23
268.709	1.27
268.924	3.43
269.139	1.68
269.354	2.16
269.569	3.08
269.784	2.88
269.999	3.3
270.214	4.03
270.429	2.31
270.644	3.01
270.859	2.54
271.074	2.79
271.289	1.15
271.504	2.29
271.719	2.29
271.934	2.69
272.149	2.47
272.363	2.65
272.578	3.29
272.793	4.87
273.008	4.65
273.223	4.82
273.438	4.05
273.653	4.78
273.867	4.2
274.082	4.53
274.297	3.21
274.512	2.95
274.726	4.51
274.941	3.66
275.156	2.27
275.371	1.42
275.585	0.61
275.8	0.33
276.015	-1.16
276.229	-1.91
276.444	-2.01
276.659	-1.55
276.873	-1.81
277.088	-1.88
277.302	-2.57
277.517	-3.16
277.732	-3.58
277.946	-3.85
278.161	-4.16
278.375	-3.06
278.59	-2.15
278.804	-3.08
279.019	-1.67
279.233	0.05
279.448	0.09
279.662	0.55
279.877	1.56
280.091	3.31
280.306	5.28
280.52	5.78
280.735	5.29
280.949	5.59
281.163	6.88
281.378	6.18
281.592	5.7
281.806	6.34
282.021	6.6
282.235	6.85
282.449	5.58
282.664	5.08
282.878	5.21
283.092	7.48
283.307	6.74
283.521	6.95
283.735	8.64
283.949	8.12
284.164	6.75
284.378	7.15
284.592	7.77
284.806	9.04
285.02	9.32
285.234	8.67
285.449	7.77
285.663	9.11
285.877	9.11
286.091	7.68
286.305	7.96
286.519	8.39
286.733	9.04
286.947	8.61
287.161	8.48
287.375	8.18
287.589	8.41
287.803	8.16
288.017	7.53
288.231	6.93
288.445	8.57
288.659	7.99
288.873	7.28
289.087	5.44
289.301	5.59
289.515	5.61
289.729	4.96
289.943	4.93
290.157	4.42
290.371	3.68
290.584	4.87
290.798	3.85
291.012	4.52
291.226	4.35
291.44	4.61
291.654	4.44
291.867	4.88
292.081	5.11
292.295	5.16
292.509	5.84
292.722	6.5
292.936	4.76
293.15	5.16
293.364	5.08
293.577	6.81
293.791	7.94
294.005	8.47
294.218	8.25
294.432	9.19
294.645	10.3
294.859	10.3
295.073	9.55
295.286	9.68
295.5	9.25
295.713	9.15
295.927	9.1
296.14	8.46
296.354	8.46
296.568	7.81
296.781	7.16
296.994	6.1
297.208	5.88
297.421	7.28
297.635	7.75
297.848	8.22
298.062	8.93
298.275	7.65
298.489	7.21
298.702	6.7
298.915	7.84
299.129	8.22
299.342	8.64
299.555	9.27
299.769	9.12
299.982	8.87
300.195	9.65
300.409	8.49
300.622	11.15
300.835	11.72
301.048	12.27
301.262	11.67
301.475	12.14
301.688	12.56
301.901	12.58
302.115	12.41
302.328	12.23
302.541	10.54
302.754	11.15
302.967	8.49
303.18	7.99
303.393	8.83
303.607	9.01
303.82	8.21
304.033	8.17
304.246	7.51
304.459	6.35
304.672	7.23
304.885	8.15
305.098	8.43
305.311	10.86
305.524	11.13
305.737	11.05
305.95	11.17
306.163	11.98
306.376	12.25
306.589	13.27
306.802	13.4
307.015	13.41
307.228	12.01
307.44	11.54
307.653	11.29
307.866	12.21
308.079	11.6
308.292	12
308.505	12.36
308.718	12.21
308.93	11.96
309.143	13.16
309.356	12.32
309.569	12.44
309.781	12.16
309.994	10.43
310.207	10.22
310.42	9.85
310.632	8.47
310.845	8.3
311.058	9.07
311.27	8.83
311.483	8.72
311.696	9.02
311.908	9.52
312.121	9.38
312.333	9.92
312.546	10.76
312.759	10.32
312.971	9.73
313.184	8.82
313.396	9.25
313.609	10.16
313.821	9.14
314.034	9.23
314.246	9
314.459	8.19
314.671	8.84
314.884	8.44
315.096	9.72
315.309	11.51
315.521	11.19
315.733	8.55
315.946	6.91
316.158	7.15
316.371	6.77
316.583	7.03
316.795	8.91
317.008	8.52
317.22	6.86
317.432	6.61
317.644	5.8
317.857	7.27
318.069	8.88
318.281	8.69
318.494	8.67
318.706	8.46
318.918	8.63
319.13	7.33
319.342	8.04
319.555	8.2
319.767	7.26
319.979	8.02
320.191	6.17
320.403	5.11
320.615	5.38
320.827	5.58
321.039	7.6
321.252	6.86
321.464	7.02
321.676	5
321.888	5.78
322.1	6.09
322.312	5.76
322.524	7.43
322.736	8.09
322.948	8.44
323.16	9.67
323.372	10.07
323.584	10.31
323.796	10.96
324.007	12.54
324.219	11.74
324.431	13.01
324.643	12.81
324.855	12.75
325.067	13.15
325.279	13.79
325.491	12.83
325.702	12.46
325.914	12.98
326.126	13.37
326.338	13.14
326.55	15.51
326.761	15.36
326.973	16.58
327.185	16.46
327.396	15.5
327.608	15.75
327.82	16.89
328.032	16.43
328.243	17.05
328.455	16.74
328.666	17.52
328.878	15.78
329.09	14.25
329.301	12.85
329.513	12.92
329.725	14.02
329.936	13.32
330.148	11.99
330.359	12.18
330.571	12.14
330.782	12.09
330.994	12.01
331.205	12.86
331.417	14.09
331.628	14.7
331.84	16.22
332.051	16.41
332.262	16.4
332.474	17.88
332.685	18.43
332.897	18.22
333.108	19.11
333.319	19.1
333.531	19.06
333.742	18.55
333.953	19.1
334.165	18.32
334.376	18.27
334.587	19.37
334.799	18.03
335.01	17.26
335.221	18.28
335.432	18.34
335.644	18.49
335.855	18.19
336.066	18.86
336.277	18.33
336.488	18.65
336.7	19.46
336.911	18.74
337.122	19.78
337.333	19.96
337.544	19.55
337.755	19.71
337.966	19.32
338.177	19.28
338.388	19.62
338.599	20.13
338.811	20.01
339.022	19.5
339.233	19.46
339.444	19.01
339.655	20.51
339.866	20.16
340.076	19.61
340.287	20.63
340.498	21.39
340.709	21.2
340.92	20.46
341.131	20.31
341.342	20.03
341.553	19.42
341.764	19.38
341.975	17.64
342.185	17.61
342.396	17.72
342.607	16.51
342.818	15.48
343.029	15.15
343.239	15.91
343.45	15.97
343.661	16.49
343.872	17.39
344.082	17.15
344.293	17.21
344.504	17.65
344.714	18.1
344.925	18.56
345.136	18.88
345.346	19.86
345.557	19.45
345.768	19.15
345.978	18.95
346.189	19.35
346.399	19.89
346.61	20.47
346.821	20.59
347.031	20.22
347.242	20.62
347.452	20.77
347.663	20.29
347.873	20.41
348.084	21.03
348.294	20.89
348.504	20.07
348.715	19.56
348.925	19.78
349.136	18.85
349.346	19.02
349.557	19.49
349.767	19.04
349.977	18.82
350.188	18.61
350.398	18.64
350.608	18.85
350.819	19.56
351.029	19.84
351.239	19.8
351.449	19.6
351.66	19.85
351.87	18.8
352.08	19.37
352.29	19.79
352.501	20.29
352.711	20.24
352.921	20.05
353.131	19.93
353.341	20.53
353.552	19.88
353.762	20.66
353.972	20.36
354.182	20.69
354.392	20.25
354.602	19.15
354.812	18.75
355.022	18.54
355.232	18.01
355.442	18.12
355.652	17.84
355.862	18.52
356.072	18.24
356.282	18.23
356.492	18.44
356.702	18.87
356.912	19.01
357.122	18.47
357.332	18.27
357.542	18.41
357.752	18.14
357.962	18.41
358.171	18.41
358.381	18.19
358.591	18.24
358.801	17.87
359.011	17.48
359.221	17.88
359.43	18.3
359.64	18.83
359.85	19.78
360.06	19.57
360.269	18.91
360.479	18.79
360.689	19.29
360.899	19.74
361.108	19.91
361.318	20.13
361.528	19.83
361.737	19.87
361.947	19.79
362.156	18.76
362.366	18.73
362.576	18.45
362.785	18.16
362.995	17.99
363.204	17.52
363.414	17.1
363.623	17.06
363.833	17.66
364.042	18
364.252	18.22
364.461	19.07
364.671	19.16
364.88	19.63
365.09	19.44
365.299	19.63
365.509	19.46
365.718	19.42
365.927	19.39
366.137	18.8
366.346	18
366.555	17.08
366.765	16.27
366.974	16.32
367.183	16.08
367.393	16.46
367.602	15.9
367.811	15.8
368.021	15.65
368.23	15.61
368.439	15.22
368.648	16.16
368.857	16.69
369.067	16.97
369.276	16.65
369.485	16.69
369.694	16.61
369.903	16.5
370.112	16.87
370.321	16.72
370.531	16.25
370.74	16.18
370.949	15.47
371.158	15.01
371.367	14.78
371.576	14.7
371.785	14.53
371.994	14.32
372.203	14.05
372.412	14
372.621	14.51
372.83	15.19
373.039	15.25
373.248	15.39
373.457	14.91
373.666	15.18
373.874	14.92
374.083	14.96
374.292	15.07
374.501	15.23
374.71	14.64
374.919	14.26
375.128	13.66
375.336	13.51
375.545	12.89
375.754	12.76
375.963	12.51
376.171	12.99
376.38	12.81
376.589	12.93
376.798	12.83
377.006	12.71
377.215	12.93
377.424	13.28
377.632	13.07
377.841	13.68
378.05	13.4
378.258	13.32
378.467	13.52
378.675	13.41
378.884	12.58
379.093	12.43
379.301	12.53
379.51	12.31
379.718	11.54
379.927	11.51
380.135	10.97
380.344	11.82
380.552	12.36
380.761	11.72
380.969	12.06
381.177	12.38
381.386	12.43
381.594	12.28
381.803	11.86
382.011	12.71
382.219	12.96
382.428	12.95
382.636	13.31
382.845	12.85
383.053	12.91
383.261	12.24
383.469	12.79
383.678	12.9
383.886	13.35
384.094	13.47
384.302	12.44
384.511	12.31
384.719	11.98
384.927	11.66
385.135	11.61
385.343	11.28
385.552	11.4
385.76	10.91
385.968	11.05
386.176	10.55
386.384	10.58
386.592	10.78
386.8	10.76
387.008	11.02
387.216	10.79
387.424	10.63
387.633	10.99
387.841	10.65
388.049	10.41
388.257	10.36
388.465	10.29
388.672	9.97
388.88	10.06
389.088	10.06
389.296	10.04
389.504	10.07
389.712	9.97
389.92	9.79
390.128	9.85
390.336	9.72
390.544	9.62
390.751	9.67
390.959	9.84
391.167	9.87
391.375	9.75
391.583	9.73
391.79	9.26
391.998	9.08
392.206	8.81
392.414	9.13
392.621	9.23
392.829	9.55
393.037	9.3
393.244	8.9
393.452	8.82
393.66	8.66
393.867	8.43
394.075	8.6
394.283	8.44
394.49	8.6
394.698	8.63
394.905	8.42
395.113	7.73
395.32	7.94
395.528	7.92
395.735	7.86
395.943	7.9
396.15	7.83
396.358	7.78
396.565	8.01
396.773	8.09
396.98	7.61
397.188	7.64
397.395	8.11
397.602	7.99
397.81	8.32
398.017	8.28
398.225	8.54
398.432	8.72
398.639	8.78
398.847	8.81
399.054	8.36
399.261	8.57
399.468	8.75
399.676	8.56
399.883	8.59
400.09	8.46
400.297	8.23
400.505	7.63
400.712	7.78
400.919	7.88
401.126	7.76
401.333	7.75
401.54	7.86
401.748	7.63
401.955	7.49
402.162	7.21
402.369	7.11
402.576	7.33
402.783	7.77
402.99	7.49
403.197	7.45
403.404	7.06
403.611	7.04
403.818	6.68
404.025	6.79
404.232	7.01
404.439	7.18
404.646	7.19
404.853	7.25
405.06	7.2
405.267	7.41
405.474	7.31
405.681	7.93
405.887	7.92
406.094	8.24
406.301	8.33
406.508	7.83
406.715	7.72
406.922	7.77
407.128	7.54
407.335	7.2
407.542	7.24
407.749	7.22
407.955	6.94
408.162	7.3
408.369	7.48
408.575	7.36
408.782	7.73
408.989	7.73
409.195	8.03
409.402	8.19
409.609	8.56
409.815	8.49
410.022	8.6
410.228	8.5
410.435	8.61
410.642	8.43
410.848	8.58
411.055	8.57
411.261	8.53
411.468	8.31
411.674	8.18
411.881	7.85
412.087	7.65
412.294	7.44
412.5	7.58
412.706	7.28
412.913	7.05
413.119	6.72
413.326	6.64
413.532	6.74
413.738	6.79
413.945	6.7
414.151	6.98
414.357	6.96
414.564	7.18
414.77	7.3
414.976	7.31
415.182	7.42
415.389	7.57
415.595	7.71
415.801	7.86
416.007	7.79
416.214	7.74
416.42	7.56
416.626	7.56
416.832	7.56
417.038	7.23
417.244	6.97
417.45	7.1
417.657	7.09
417.863	6.91
418.069	6.76
418.275	6.62
418.481	6.6
418.687	6.52
418.893	6.48
419.099	6.41
419.305	6.65
419.511	6.83
419.717	6.78
419.923	6.65
420.129	6.71
420.335	6.77
420.541	6.9
420.746	7.12
420.952	7.21
421.158	7.3
421.364	7.18
421.57	7.15
421.776	7.08
421.982	6.86
422.187	6.92
422.393	6.91
422.599	6.92
422.805	6.76
423.01	6.6
423.216	6.51
423.422	6.33
423.628	6.43
423.833	6.3
424.039	6.42
424.245	6.54
424.45	6.69
424.656	6.64
424.862	6.61
425.067	6.77
425.273	6.85
425.478	7.01
425.684	7.12
425.889	7.17
426.095	7.22
426.301	7.27
426.506	7.36
426.712	7.35
426.917	7.58
427.123	7.43
427.328	7.39
427.533	7.38
427.739	7.21
427.944	7.3
428.15	7.2
428.355	7.2
428.561	7.02
428.766	6.86
428.971	6.81
429.177	6.53
429.382	6.54
429.587	6.58
429.793	6.44
429.998	6.56
430.203	6.48
430.408	6.26
430.614	6.17
430.819	6.29
431.024	6.27
431.229	6.16
431.434	6.22
431.64	6.23
431.845	6.21
432.05	6.31
432.255	6.2
432.46	6.26
432.665	6.43
432.87	6.67
433.076	6.69
433.281	6.64
433.486	6.54
433.691	6.23
433.896	6.24
434.101	6.24
434.306	6.32
434.511	6.37
434.716	6.33
434.921	6.28
435.126	6.18
435.331	5.93
435.535	6.02
435.74	6.27
435.945	6.63
436.15	6.78
436.355	6.92
436.56	6.7
436.765	6.78
436.97	6.72
437.174	6.67
437.379	6.61
437.584	6.55
437.789	6.41
437.993	6.28
438.198	6.27
438.403	6.38
438.608	6.28
438.812	6.32
439.017	6.26
439.222	6.28
439.426	6.38
439.631	6.38
439.836	6.57
440.04	6.74
440.245	6.78
440.45	6.84
440.654	6.74
440.859	6.73
441.063	6.73
441.268	6.83
441.472	7.04
441.677	6.95
441.881	6.88
442.086	6.88
442.29	6.8
442.495	6.72
442.699	6.42
442.904	6.31
443.108	6.15
443.312	6.27
443.517	6.18
443.721	6.09
443.925	6.14
444.13	6.44
444.334	6.6
444.538	6.65
444.743	6.78
444.947	6.84
445.151	6.91
445.356	7.08
445.56	6.95
445.764	6.75
445.968	6.64
446.173	6.58
446.377	6.38
446.581	6.27
446.785	6.18
446.989	6.17
447.193	6.23
447.398	6.19
447.602	6.15
447.806	6.24
448.01	6.22
448.214	6.2
448.418	6.29
448.622	6.39
448.826	6.31
449.03	6.42
449.234	6.34
449.438	6.31
449.642	6.33
449.846	6.18
450.05	6.11
450.254	6.31
450.458	6.34
450.662	6.23
450.866	6.16
451.069	6.22
451.273	6.17
451.477	6.25
451.681	6.29
451.885	6.19
452.089	6.06
452.292	6.02
452.496	6
452.7	5.96
452.904	6.12
453.107	6.01
453.311	6.06
453.515	6.01
453.719	5.97
453.922	5.91
454.126	6.01
454.33	6.16
454.533	6.08
454.737	6.2
454.94	6.16
455.144	5.88
455.348	5.79
455.551	5.77
455.755	5.86
455.958	5.65
456.162	5.63
456.365	5.64
456.569	5.66
456.772	5.85
456.976	5.56
457.179	5.67
457.383	5.92
457.586	5.97
457.79	6
457.993	5.82
458.196	5.73
458.4	5.72
458.603	5.68
458.807	5.8
459.01	5.76
459.213	5.97
459.417	5.9
459.62	5.85
459.823	5.86
460.026	5.7
460.23	5.8
460.433	6.01
460.636	5.96
460.839	5.98
461.042	5.93
461.246	5.94
461.449	5.91
461.652	5.89
461.855	5.97
462.058	6
462.261	6.08
462.464	6.22
462.668	6.19
462.871	6.37
463.074	6.31
463.277	6.29
463.48	6.16
463.683	6.12
463.886	6.29
464.089	6.2
464.292	6.16
464.495	6.11
464.698	6.06
464.901	6.05
465.104	5.91
465.306	6.14
465.509	5.97
465.712	5.93
465.915	5.97
466.118	6.14
466.321	6
466.524	6.06
466.726	6.26
466.929	6.15
467.132	5.89
467.335	6.08
467.538	5.98
467.74	6.23
467.943	6.17
468.146	6.05
468.348	5.73
468.551	5.99
468.754	6.09
468.956	5.86
469.159	5.88
469.362	6.01
469.564	5.93
469.767	5.79
469.969	5.79
470.172	5.97
470.375	5.87
470.577	5.77
470.78	5.61
470.982	5.57
471.185	5.6
471.387	5.7
471.59	5.75
471.792	5.72
471.995	5.77
472.197	5.47
472.399	5.62
472.602	5.82
472.804	6.06
473.007	6.21
473.209	6.3
473.411	6.33
473.614	6.34
473.816	6.35
474.018	6.22
474.22	6.24
474.423	6.48
474.625	6.38
474.827	6.36
475.03	6.19
475.232	6.06
475.434	6.01
475.636	6.31
475.838	6.09
476.04	6.09
476.243	6.23
476.445	6.23
476.647	6.1
476.849	6.03
477.051	6.19
477.253	6.29
477.455	6.22
477.657	6.07
477.859	6.01
478.061	5.94
478.263	5.98
478.465	5.83
478.667	5.95
478.869	5.94
479.071	5.9
479.273	5.67
479.475	5.67
479.677	5.65
479.879	5.8
480.081	5.66
480.283	5.76
480.485	5.88
480.686	5.93
480.888	5.75
481.09	5.72
481.292	5.83
481.494	5.81
481.695	5.61
481.897	5.7
482.099	5.69
482.301	5.77
482.502	5.84
482.704	5.7
482.906	5.79
483.107	5.83
483.309	5.92
483.511	5.93
483.712	5.92
483.914	5.93
484.115	5.99
484.317	6.02
484.519	6.02
484.72	6
484.922	6.04
485.123	6.01
485.325	6.03
485.526	6.08
485.728	6.02
485.929	6.11
486.131	6.22
486.332	6.11
486.534	6
486.735	5.99
486.936	6.05
487.138	6.05
487.339	6.11
487.541	6.02
487.742	6.02
487.943	6.1
488.144	6.06
488.346	6.05
488.547	6.17
488.748	6.25
488.95	6.18
489.151	6.12
489.352	6.17
489.553	6.09
489.755	6.22
489.956	6.15
490.157	6.1
490.358	6.16
490.559	6.16
490.76	6.1
490.961	6.08
491.163	6.16
491.364	6.21
491.565	6.17
491.766	6.25
491.967	6.23
492.168	6.21
492.369	6.17
492.57	6.08
492.771	6.09
492.972	6
493.173	6.03
493.374	6.04
493.575	6
493.776	5.97
493.976	5.97
494.177	5.92
494.378	5.95
494.579	5.94
494.78	6.09
494.981	5.98
495.182	6.04
495.382	6.01
495.583	6.08
495.784	6.15
495.985	6.28
496.185	6.13
496.386	6.13
496.587	6.06
496.788	6.06
496.988	6.03
497.189	6.19
497.39	6.22
497.59	6.23
497.791	6.09
497.992	6.13
498.192	6.06
498.393	6.07
498.593	6.15
498.794	6.24
498.994	6.34
499.195	6.34
499.395	6.32
499.596	6.16
499.796	6.2
499.997	6.23
500.197	6.02
500.398	6
500.598	6.23
500.799	6.07
500.999	6.1
501.199	6.4
501.4	6.43
501.6	6.55
501.801	6.83
502.001	6.83
502.201	6.93
502.402	6.96
502.602	6.97
502.802	6.8
503.002	7.01
503.203	7.02
503.403	6.8
503.603	6.87
503.803	6.8
504.003	6.67
504.204	6.69
504.404	6.79
504.604	6.95
504.804	7
505.004	6.94
505.204	6.94
505.404	6.93
505.604	6.75
505.804	6.65
506.005	6.62
506.205	6.8
506.405	6.84
506.605	7.01
506.805	7.05
507.005	7.09
507.204	7.14
507.404	7.11
507.604	7.15
507.804	7.36
508.004	7.52
508.204	7.58
508.404	7.56
508.604	7.56
508.804	7.48
509.003	7.47
509.203	7.62
509.403	7.83
509.603	7.95
509.803	7.99
510.002	8.13
510.202	8.21
510.402	8.22
510.602	8.25
510.801	8.38
511.001	8.44
511.201	8.34
511.4	8.38
511.6	8.47
511.8	8.39
511.999	8.39
512.199	8.21
512.398	8.15
512.598	8.24
512.797	8.4
512.997	8.33
513.197	8.43
513.396	8.74
513.596	8.79
513.795	8.68
513.994	8.84
514.194	8.97
514.393	9.19
514.593	9.4
514.792	9.41
514.992	9.63
515.191	9.79
515.39	9.75
515.59	9.93
515.789	10
515.988	10.18
516.188	10.37
516.387	10.43
516.586	10.47
516.786	10.36
516.985	10.53
517.184	10.43
517.383	10.48
517.582	10.6
517.782	10.56
517.981	10.56
518.18	10.5
518.379	10.56
518.578	10.69
518.777	10.81
518.976	10.94
519.176	10.97
519.375	11.08
519.574	11.21
519.773	11.23
519.972	11.17
520.171	11.24
520.37	11.35
520.569	11.32
520.768	11.35
520.967	11.26
521.166	11.28
521.365	11.25
521.564	11.15
521.762	11.11
521.961	11.09
522.16	11.27
522.359	11.48
522.558	11.63
522.757	11.73
522.956	11.77
523.154	12.02
523.353	12.16
523.552	12.34
523.751	12.58
523.949	12.82
524.148	13.03
524.347	13.18
524.546	13.21
524.744	13.36
524.943	13.49
525.142	13.65
525.34	13.76
525.539	13.85
525.737	13.91
525.936	13.97
526.135	14.03
526.333	14.08
526.532	14.11
526.73	14.15
526.929	14.21
527.127	14.3
527.326	14.34
527.524	14.45
527.723	14.53
527.921	14.6
528.12	14.66
528.318	14.72
528.516	14.82
528.715	14.89
528.913	14.95
529.112	15.04
529.31	15.1
529.508	15.14
529.707	15.13
529.905	15.2
530.103	15.31
530.301	15.34
530.5	15.38
530.698	15.39
530.896	15.42
531.094	15.6
531.293	15.69
531.491	15.68
531.689	15.7
531.887	15.82
532.085	15.93
532.283	15.9
532.481	16.09
532.68	16.21
532.878	16.31
533.076	16.5
533.274	16.55
533.472	16.51
533.67	16.6
533.868	16.75
534.066	16.87
534.264	16.96
534.462	17.08
534.66	17.13
534.858	17.12
535.056	17.24
535.253	17.18
535.451	17.13
535.649	17.3
535.847	17.44
536.045	17.53
536.243	17.63
536.441	17.65
536.638	17.72
536.836	17.78
537.034	17.9
537.232	17.83
537.43	18.02
537.627	18.09
537.825	18.13
538.023	18.27
538.22	18.27
538.418	18.19
538.616	18.2
538.813	18.27
539.011	18.24
539.209	18.28
539.406	18.46
539.604	18.44
539.801	18.57
539.999	18.61
540.196	18.62
540.394	18.74
540.591	18.81
540.789	18.85
540.986	18.96
541.184	19.04
541.381	19.12
541.579	19.14
541.776	19.29
541.974	19.39
542.171	19.37
542.368	19.36
542.566	19.37
542.763	19.45
542.96	19.5
543.158	19.47
543.355	19.51
543.552	19.57
543.75	19.59
543.947	19.51
544.144	19.41
544.341	19.61
544.539	19.74
544.736	19.86
544.933	19.89
545.13	20.04
545.327	20.19
545.524	20.24
545.722	20.28
545.919	20.32
546.116	20.51
546.313	20.62
546.51	20.51
546.707	20.52
546.904	20.59
547.101	20.68
547.298	20.55
547.495	20.62
547.692	20.77
547.889	20.78
548.086	20.95
548.283	21.12
548.48	21.3
548.677	21.38
548.874	21.54
549.07	21.56
549.267	21.47
549.464	21.73
549.661	21.65
549.858	21.71
550.055	21.81
550.251	21.76
550.448	21.73
550.645	21.7
550.842	21.81
551.038	21.72
551.235	21.63
551.432	21.72
551.628	21.94
551.825	22.19
552.022	22.42
552.218	22.5
552.415	22.8
552.612	22.71
552.808	22.63
553.005	22.84
553.201	23.04
553.398	23.17
553.594	23.33
553.791	23.16
553.987	23.19
554.184	23.11
554.38	23.15
554.577	23.04
554.773	23.07
554.97	23.2
555.166	23.01
555.362	23.03
555.559	23.18
555.755	23.23
555.952	23.43
556.148	23.45
556.344	23.41
556.541	23.54
556.737	23.56
556.933	23.52
557.129	23.52
557.326	23.83
557.522	23.9
557.718	23.84
557.914	24.04
558.11	23.75
558.307	23.79
558.503	23.87
558.699	23.9
558.895	23.96
559.091	24.02
559.287	24.14
559.483	23.86
559.679	23.93
559.876	24.01
560.072	23.85
560.268	23.88
560.464	23.95
560.66	24.05
560.856	23.98
561.052	24.17
561.247	24.52
561.443	24.62
561.639	24.75
561.835	24.79
562.031	24.86
562.227	24.96
562.423	25.44
562.619	25.58
562.815	25.57
563.01	25.68
563.206	25.64
563.402	25.65
563.598	25.66
563.793	25.75
563.989	25.71
564.185	25.85
564.381	25.86
564.576	25.81
564.772	25.8
564.968	25.91
565.163	26.15
565.359	26.05
565.555	25.85
565.75	25.84
565.946	25.91
566.141	25.95
566.337	26.07
566.532	26.07
566.728	26.05
566.923	26
567.119	25.93
567.314	25.8
567.51	26.06
567.705	26.37
567.901	26.35
568.096	26.44
568.292	26.51
568.487	26.37
568.682	26.73
568.878	26.63
569.073	26.78
569.268	26.79
569.464	26.9
569.659	26.76
569.854	26.52
570.05	26.79
570.245	26.73
570.44	26.75
570.635	26.96
570.831	26.7
571.026	26.96
571.221	26.98
571.416	27.03
571.611	27.05
571.806	27.14
572.002	27.09
572.197	27.05
572.392	27.15
572.587	27.28
572.782	27.13
572.977	27.36
573.172	27.47
573.367	27.45
573.562	27.49
573.757	27.49
573.952	27.57
574.147	27.47
574.342	27.49
574.537	27.49
574.732	27.48
574.927	27.71
575.121	27.62
575.316	27.53
575.511	27.52
575.706	27.52
575.901	27.58
576.096	27.33
576.29	27.79
576.485	27.97
576.68	27.82
576.875	27.62
577.069	27.46
577.264	27.45
577.459	27.29
577.654	27.53
577.848	27.64
578.043	27.58
578.238	27.99
578.432	27.8
578.627	27.71
578.821	27.88
579.016	27.98
579.21	27.93
579.405	27.98
579.6	28.06
579.794	27.87
579.989	27.93
580.183	27.68
580.378	27.64
580.572	27.73
580.766	27.82
580.961	27.79
581.155	27.77
581.35	27.57
581.544	27.62
581.738	27.8
581.933	27.68
582.127	27.61
582.321	28
582.516	27.85
582.71	27.74
582.904	27.52
583.099	27.84
583.293	28.01
583.487	28.6
583.681	28.56
583.875	28.34
584.07	28.31
584.264	28.45
584.458	28.55
584.652	28.73
584.846	28.78
585.04	29.06
585.234	28.58
585.428	28.58
585.623	28.32
585.817	28.27
586.011	28.38
586.205	28.6
586.399	28.4
586.593	28.18
586.787	28.09
586.981	28.34
587.174	28.27
587.368	28.69
587.562	28.66
587.756	28.8
587.95	29.14
588.144	29.3
588.338	29.56
588.532	29.76
588.725	30
588.919	30.07
589.113	30.05
589.307	29.96
589.501	29.98
589.694	30.14
589.888	30.06
590.082	29.63
590.275	29.73
590.469	29.66
590.663	29.64
590.856	29.47
591.05	29.6
591.244	29.43
591.437	29.51
591.631	29.61
591.824	29.57
592.018	29.79
592.212	30.08
592.405	30.02
592.599	29.8
592.792	29.88
592.986	30.17
593.179	29.93
593.372	30
593.566	29.95
593.759	29.84
593.953	29.89
594.146	30.11
594.339	29.97
594.533	29.9
594.726	30.16
594.92	30.14
595.113	29.87
595.306	30.19
595.499	30.51
595.693	30.56
595.886	30.6
596.079	30.66
596.272	30.64
596.466	30.95
596.659	30.97
596.852	30.84
597.045	30.77
597.238	30.99
597.431	30.67
597.624	30.55
597.818	30.61
598.011	30.75
598.204	30.74
598.397	30.53
598.59	30.27
598.783	30.43
598.976	30.46
599.169	30.62
599.362	30.67
599.555	31.01
599.748	31.04
599.941	31.13
600.134	31.1
600.326	31.1
600.519	31.22
600.712	31.42
600.905	31.33
601.098	31.26
601.291	30.74
601.483	30.82
601.676	30.89
601.869	30.87
602.062	30.87
602.255	30.77
602.447	30.76
602.64	30.77
602.833	30.9
603.025	31.03
603.218	31.36
603.411	31.63
603.603	31.66
603.796	31.65
603.989	31.64
604.181	31.66
604.374	31.83
604.566	31.86
604.759	31.99
604.951	31.97
605.144	31.79
605.336	31.57
605.529	31.69
605.721	31.59
605.914	31.44
606.106	31.57
606.299	31.67
606.491	31.46
606.683	31.54
606.876	31.34
607.068	31.14
607.26	31.25
607.453	31.43
607.645	31.45
607.837	31.41
608.03	31.66
608.222	31.56
608.414	31.28
608.606	31.32
608.799	31.57
608.991	31.79
609.183	31.89
609.375	31.75
609.567	31.7
609.759	31.69
609.952	31.61
610.144	31.47
610.336	31.37
610.528	31.46
610.72	31.36
610.912	30.81
611.104	30.52
611.296	30.38
611.488	30.36
611.68	30.25
611.872	30.19
612.064	30.19
612.256	30.02
612.448	30.06
612.64	30.08
612.832	29.89
613.023	30.28
613.215	29.95
613.407	29.79
613.599	29.83
613.791	29.87
613.983	30.05
614.174	30.03
614.366	30.2
614.558	30.44
614.75	30.39
614.941	30.99
615.133	31.03
615.325	31.41
615.516	31.98
615.708	32.08
615.9	32.15
616.091	32.08
616.283	32.09
616.475	32.4
616.666	32.32
616.858	32.2
617.049	32.21
617.241	32.06
617.432	31.94
617.624	31.61
617.815	31.68
618.007	31.73
618.198	31.9
618.39	32.17
618.581	31.74
618.773	31.75
618.964	32
619.155	31.87
619.347	32.06
619.538	32.48
619.729	32.62
619.921	32.85
620.112	32.76
620.303	32.6
620.494	32.67
620.686	32.75
620.877	32.63
621.068	32.77
621.259	32.84
621.451	32.81
621.642	32.47
621.833	32.46
622.024	32.33
622.215	32.41
622.406	32.37
622.597	32.06
622.788	32.1
622.98	32.15
623.171	31.75
623.362	31.71
623.553	31.82
623.744	31.96
623.935	32.14
624.126	32
624.317	32.08
624.508	32.11
624.698	32.19
624.889	32.07
625.08	32.33
625.271	32.42
625.462	32.15
625.653	32.02
625.844	31.99
626.034	31.87
626.225	31.89
626.416	31.84
626.607	32.01
626.798	31.93
626.988	32.18
627.179	31.99
627.37	32.25
627.56	32.37
627.751	32.33
627.942	32.36
628.132	32.53
628.323	32.55
628.514	32.84
628.704	32.74
628.895	32.86
629.085	32.95
629.276	32.85
629.466	33
629.657	33.17
629.847	33.65
630.038	34
630.228	34.07
630.419	34.1
630.609	33.66
630.8	33.72
630.99	33.8
631.181	33.86
631.371	34.07
631.561	33.77
631.752	33.73
631.942	33.14
632.132	33.13
632.323	33.21
632.513	33.37
632.703	33.64
632.893	33.45
633.084	33.35
633.274	33.24
633.464	33.07
633.654	33.15
633.844	33.33
634.034	33.51
634.225	33.21
634.415	33.28
634.605	33.41
634.795	33.48
634.985	33.66
635.175	33.64
635.365	33.69
635.555	33.84
635.745	33.97
635.935	33.74
636.125	33.47
636.315	33.22
636.505	32.83
636.695	32.64
636.885	32.57
637.075	32.5
637.265	32.6
637.455	32.58
637.644	32.6
637.834	32.42
638.024	32.74
638.214	32.84
638.404	33.12
638.593	33.14
638.783	33.25
638.973	33.53
639.163	33.58
639.352	33.56
639.542	33.75
639.732	33.53
639.921	34.05
640.111	33.8
640.301	33.88
640.49	34.02
640.68	34.06
640.87	34.17
641.059	34.35
641.249	34.3
641.438	34.91
641.628	34.8
641.817	34.99
642.007	34.65
642.196	34.54
642.386	34.3
642.575	34.29
642.764	34.54
642.954	34.23
643.143	33.64
643.333	33.6
643.522	32.99
643.711	32.92
643.901	33.1
644.09	32.96
644.279	33.22
644.469	33.63
644.658	33.8
644.847	33.8
645.036	34.05
645.226	33.9
645.415	34.22
645.604	34.28
645.793	34.43
645.982	34.32
646.171	34.51
646.361	34.44
646.55	34.38
646.739	34.31
646.928	34.24
647.117	34.31
647.306	34.5
647.495	34.38
647.684	34.22
647.873	34.23
648.062	34.04
648.251	33.8
648.44	33.78
648.629	34.01
648.818	33.93
649.007	33.7
649.196	32.83
649.384	32.74
649.573	32.66
649.762	33.04
649.951	32.58
650.14	32.23
650.328	32.86
650.517	32.85
650.706	32.78
650.895	32.82
651.083	32.73
651.272	33.63
651.461	33.93
651.65	34.02
651.838	33.9
652.027	34.41
652.216	34.7
652.404	34.18
652.593	34.44
652.781	34.5
652.97	34.59
653.158	34.71
653.347	34.28
653.535	34.17
653.724	33.88
653.912	33.75
654.101	33.96
654.289	34.27
654.478	34.63
654.666	34.33
654.855	34.1
655.043	33.63
655.231	33.93
655.42	33.92
655.608	33.7
655.796	33.65
655.985	33.91
656.173	33.43
656.361	32.82
656.55	32.62
656.738	32.61
656.926	32.67
657.114	32.93
657.302	33.19
657.491	33.59
657.679	33.38
657.867	33.94
658.055	34.15
658.243	34.34
658.431	34.52
658.619	34.61
658.807	34.65
658.996	34.59
659.184	34.87
659.372	34.78
659.56	34.64
659.748	35.16
659.936	35.03
660.124	34.77
660.311	34.78
660.499	35.27
660.687	35.1
660.875	35.01
661.063	35.4
661.251	35.23
661.439	34.92
661.627	34.85
661.814	34.62
662.002	34.34
662.19	34.26
662.378	34.2
662.565	33.8
662.753	34.06
662.941	34.01
663.129	34.06
663.316	33.93
663.504	34.28
663.692	34.38
663.879	34.38
664.067	34.79
664.254	35.35
664.442	35.55
664.63	35.59
664.817	35.21
665.005	35.78
665.192	35.67
665.38	36.4
665.567	36.05
665.755	35.84
665.942	36.03
666.13	35.84
666.317	35.73
666.504	35.85
666.692	36.18
666.879	36.35
667.067	35.98
667.254	35.78
667.441	35.02
667.629	35.39
667.816	35.77
668.003	35.42
668.19	35.71
668.378	35.39
668.565	35.17
668.752	35.3
668.939	35.6
669.127	35.44
669.314	35.39
669.501	35.21
669.688	35.05
669.875	34.7
670.062	34.83
670.249	34.7
670.436	34.63
670.623	34.07
670.81	33.87
670.997	33.81
671.184	34.07
671.371	34.57
671.558	35.02
671.745	35.09
671.932	35.4
672.119	35.52
672.306	35.75
672.493	35.9
672.68	36.16
672.867	36.04
673.054	36.03
673.24	35.4
673.427	35.11
673.614	34.67
673.801	34.67
673.988	35.11
674.174	35.02
674.361	34.72
674.548	35.19
674.734	35.67
674.921	35.48
675.108	35.41
675.294	35.93
675.481	35.7
675.668	36.17
675.854	35.89
676.041	35.32
676.227	35.62
676.414	35.48
676.601	34.54
676.787	34.38
676.974	34.86
677.16	34.96
677.347	35.17
677.533	35.5
677.719	36.22
677.906	36.63
678.092	36.76
678.279	36.32
678.465	36.5
678.651	36.8
678.838	36.71
679.024	36.27
679.21	36.03
679.397	35.85
679.583	35.59
679.769	34.86
679.955	34.8
680.142	34.88
680.328	35.09
680.514	34.76
680.7	35.33
680.886	35.12
681.073	35.48
681.259	35.49
681.445	35.39
681.631	35.6
681.817	35.66
682.003	35.43
682.189	35.62
682.375	35.92
682.561	36.22
682.747	35.69
682.933	36.09
683.119	35.73
683.305	35.53
683.491	35.76
683.677	35.42
683.863	35.63
684.049	35.98
684.235	35.48
684.42	35.25
684.606	35.29
684.792	35.5
684.978	35.05
685.164	35.01
685.349	35.73
685.535	35.9
685.721	35.73
685.907	35.76
686.092	35.21
686.278	35.52
686.464	35.68
686.649	35.73
686.835	35.16
687.021	35.49
687.206	35.32
687.392	35.02
687.577	34.87
687.763	35.13
687.948	34.9
688.134	35.36
688.319	35.17
688.505	34.94
688.69	34.79
688.876	35.2
689.061	35.01
689.247	35.51
689.432	35.36
689.618	35.63
689.803	35.38
689.988	35.65
690.174	35.18
690.359	35.32
690.544	35.24
690.73	35.55
690.915	35.61
691.1	35.85
691.285	36
691.471	36.22
691.656	36.07
691.841	36.85
692.026	36.67
692.211	37.2
692.396	36.74
692.582	37.01
692.767	36.37
692.952	36.48
693.137	36.92
693.322	36.77
693.507	37.04
693.692	36.61
693.877	36.35
694.062	36.48
694.247	36.85
694.432	38.1
694.617	38.24
694.802	39.01
694.987	38.95
695.172	38.38
695.357	37.97
695.541	37.69
695.726	38.08
695.911	37.42
696.096	37.82
696.281	37.66
696.466	36.28
696.65	36.39
696.835	36.52
697.02	36.38
697.204	36.65
697.389	36.62
697.574	36.69
697.759	36.54
697.943	36.75
698.128	36.07
698.312	36.05
698.497	36.88
698.682	36.29
698.866	35.87
699.051	35.81
699.235	35.36
699.42	35.76
699.604	35.09
699.789	34.86
699.973	35.16
700.158	35.45
700.342	35.22
700.527	34.92
700.711	35.13
700.895	36.08
701.08	35.88
701.264	36.17
701.448	35.83
701.633	36.79
701.817	37.48
702.001	37.47
702.186	37.47
702.37	36.92
702.554	36.71
702.738	36.93
702.923	35.86
703.107	36.5
703.291	36.63
703.475	36.7
703.659	36.18
703.843	35.49
704.027	34.97
704.212	34.6
704.396	35.54
704.58	35.18
704.764	34.82
704.948	35.57
705.132	35.65
705.316	35.76
705.5	35.23
705.684	35.91
705.868	36.1
706.052	36.71
706.235	36.84
706.419	36.18
706.603	36.29
706.787	37.09
706.971	35.96
707.155	35.39
707.339	35.09
707.522	35.55
707.706	35.04
707.89	35.32
708.074	35.07
708.257	34.87
708.441	35.38
708.625	35.23
708.808	35.23
708.992	36.17
709.176	36.28
709.359	37.07
709.543	37.15
709.727	36.93
709.91	36.5
710.094	36.69
710.277	37.01
710.461	37.31
710.644	37.92
710.828	36.69
711.011	36
711.195	36.32
711.378	35.86
711.562	36.06
711.745	36.07
711.928	36.2
712.112	36.37
712.295	36.52
712.478	36.59
712.662	36.68
712.845	37.37
713.028	37.77
713.212	37.23
713.395	36.83
713.578	36.95
713.761	36.57
713.945	36.41
714.128	35.99
714.311	35.64
714.494	35.3
714.677	34.61
714.86	34.28
715.043	34.34
715.227	34.55
715.41	35.24
715.593	34.95
715.776	35.6
715.959	36.17
716.142	35.92
716.325	35.97
716.508	35.93
716.691	36.83
716.874	36.65
717.057	36.4
717.239	37.04
717.422	37.13
717.605	37.31
717.788	37.13
717.971	36.49
718.154	36.56
718.337	36.62
718.519	36.66
718.702	35.89
718.885	36.56
719.068	36.55
719.25	35.77
719.433	35
719.616	34.54
719.798	34.34
719.981	35.48
720.164	36.01
720.346	35.89
720.529	35.31
720.712	36.13
720.894	36.32
721.077	35.62
721.259	35.44
721.442	35.96
721.624	36.18
721.807	36.89
721.989	35.75
722.172	34.75
722.354	34.89
722.537	34.97
722.719	34.59
722.901	34.61
723.084	35.47
723.266	35.99
723.448	35.65
723.631	35.65
723.813	34.91
723.995	35.43
724.178	36.75
724.36	36.72
724.542	37.04
724.724	36.94
724.907	36.6
725.089	36.47
725.271	35.87
725.453	36.26
725.635	37.09
725.817	37.22
725.999	36.09
726.181	35.7
726.364	35.6
726.546	34.75
726.728	33.91
726.91	34.85
727.092	34.95
727.274	35.21
727.456	34.56
727.638	33.55
727.819	34
728.001	35.15
728.183	35.53
728.365	35.57
728.547	36.25
728.729	37.13
728.911	36.12
729.093	36.85
729.274	36.6
729.456	36.67
729.638	37.16
729.82	37.1
730.001	36.54
730.183	35.92
730.365	35.81
730.546	36.84
730.728	36.08
730.91	36.65
731.091	35.92
731.273	36.27
731.455	36.41
731.636	36.05
731.818	36.16
731.999	36.5
732.181	36.59
732.362	36.8
732.544	36.16
732.725	37.06
732.907	36.74
733.088	36.36
733.27	36.09
733.451	35.71
733.633	36.01
733.814	35.96
733.995	35.85
734.177	35.83
734.358	35.54
734.539	34.5
734.721	34.9
734.902	35.4
735.083	36.02
735.264	36.73
735.446	36.93
735.627	36.65
735.808	37.3
735.989	37.4
736.17	36.83
736.351	37.44
736.533	38.91
736.714	38.31
736.895	38.2
737.076	38.18
737.257	37.82
737.438	37.76
737.619	37.24
737.8	36.25
737.981	37.1
738.162	37.8
738.343	37.67
738.524	36.26
738.705	35.49
738.886	34.63
739.067	32.99
739.247	32.6
739.428	33.33
739.609	34.46
739.79	34.24
739.971	33.98
740.151	34.22
740.332	34.4
740.513	34.8
740.694	35.18
740.874	35.08
741.055	36.77
741.236	36.82
741.417	36.78
741.597	36.11
741.778	36.88
741.958	37.13
742.139	36.48
742.32	36.7
742.5	38.56
742.681	38.81
742.861	39.77
743.042	40.15
743.222	40.29
743.403	40.97
743.583	42.07
743.764	40.99
743.944	40.14
744.124	39.37
744.305	39.26
744.485	38.64
744.666	37.76
744.846	36.92
745.026	36.25
745.207	36.34
745.387	35.7
745.567	34.07
745.747	34.1
745.928	34.34
746.108	35.23
746.288	33.86
746.468	33.01
746.648	34.13
746.829	35.16
747.009	36.22
747.189	37.42
747.369	35.96
747.549	36.99
747.729	37.57
747.909	37.57
748.089	38.88
748.269	40.41
748.449	39.87
748.629	39.89
748.809	39.79
748.989	39.03
749.169	40.14
749.349	40.68
749.529	40.95
749.709	41.19
749.889	40.61
750.068	39.3
750.248	38.78
750.428	38.59
750.608	38.15
750.788	37.56
750.967	37.84
751.147	35.62
751.327	35.21
751.507	33.95
751.686	34.16
751.866	34.35
752.046	34.24
752.225	35.74
752.405	36.01
752.585	35.82
752.764	35.51
752.944	35.37
753.123	35.38
753.303	36.32
753.482	36.24
753.662	35.82
753.841	36.97
754.021	37.8
754.2	36.57
754.38	37.19
754.559	38.07
754.739	38.33
754.918	36.59
755.097	36.47
755.277	34.85
755.456	35.46
755.635	35.16
755.815	34.37
755.994	33.83
756.173	34.11
756.352	33.63
756.532	33.51
756.711	33.47
756.89	35.46
757.069	37.41
757.248	38.62
757.427	38.89
757.607	39.05
757.786	38.6
757.965	38.2
758.144	37.06
758.323	37.44
758.502	36.45
758.681	37.34
758.86	37.11
759.039	36.18
759.218	36.04
759.397	36.26
759.576	36.4
759.755	36.74
759.934	38.47
760.113	38.89
760.291	39.63
760.47	41.4
760.649	41.29
760.828	40.58
761.007	40.65
761.186	41.47
761.364	40.97
761.543	40.6
761.722	39.94
761.901	38.52
762.079	39.32
762.258	38.52
762.437	37.5
762.615	37.61
762.794	38.54
762.972	37.96
763.151	37.05
763.33	36.2
763.508	36.23
763.687	37.64
763.865	37.45
764.044	37.12
764.222	36.84
764.401	36.38
764.579	35.59
764.758	35.46
764.936	35.2
765.114	36.02
765.293	37.18
765.471	38.6
765.65	37.81
765.828	38.21
766.006	37.68
766.184	37.09
766.363	37.99
766.541	38.25
766.719	38.14
766.898	38.23
767.076	38.2
767.254	36.9
767.432	35.86
767.61	36.16
767.788	36.26
767.967	35.78
768.145	36.52
768.323	36.21
768.501	36.96
768.679	37.28
768.857	37.22
769.035	36.42
769.213	37.29
769.391	35.68
769.569	35.4
769.747	34.29
769.925	35.56
770.103	35.72
770.281	35.34
770.459	35.71
770.636	34.62
770.814	35.06
770.992	34.35
771.17	34.84
771.348	35.8
771.525	33.78
771.703	35.64
771.881	34.31
772.059	34.18
772.236	36.39
772.414	34.97
772.592	34.24
772.769	32.89
772.947	34.17
773.125	33.25
773.302	32.53
773.48	34.18
773.657	33.64
773.835	34.2
774.013	35.67
774.19	31.03
774.368	31.52
774.545	31.97
774.723	34.5
774.9	34.96
775.077	34.37
775.255	34.97
775.432	33.6
775.61	34.79
775.787	35.71
775.964	35.07
776.142	37.82
776.319	35.91
776.496	36.52
776.674	36.06
776.851	35.81
777.028	36.68
777.205	37.33
777.382	38.77
777.56	38.05
777.737	37.11
777.914	36.29
778.091	36.7
778.268	37.7
778.445	36.15
778.622	33.67
778.8	33.12
778.977	32.77
779.154	50.01
779.331	50.13
779.508	49.9
779.685	50.16
779.862	51.39
780.038	50.54
780.215	49.97
780.392	50.44
780.569	51.79
780.746	51.71
780.923	51.31
781.1	29.76
781.277	30.58
781.453	29.05
781.63	27.93
781.807	27.66
781.984	28.65
782.16	29.36
782.337	27.61
782.514	27.99
782.691	29.23
782.867	28.69
783.044	30.45
783.221	31.18
783.397	30.21
783.574	32.88
783.75	31.59
783.927	29.91
784.103	30.4
784.28	33.77
784.456	34.72
784.633	33.87
784.809	35.2
784.986	35.14
785.162	32.99
785.339	35.71
785.515	33.38
785.692	34.65
785.868	35.51
786.044	34.91
786.221	32.1
786.397	29.77
786.573	29.81
786.749	31.24
786.926	32.78
787.102	31.1
787.278	30.33
787.454	32.21
787.631	31.58
787.807	31.22
787.983	32.75
788.159	35.24
788.335	35.86
788.511	37.91
788.687	37.07
788.863	36.41
789.039	38.14
789.216	39.6
789.392	38.53
789.568	37.45
789.744	39.01
789.919	38.16
790.095	36.47
790.271	37.42
790.447	36.58
790.623	37.66
790.799	38.77
790.975	37.54
791.151	34.87
791.327	35.66
791.502	37.03
791.678	37.17
791.854	35.88
792.03	38.87
792.205	38.53
792.381	37.58
792.557	37.72
792.733	38.07
792.908	39.81
793.084	41.48
793.259	42.53
793.435	40.02
793.611	38.77
793.786	39.81
793.962	38
794.137	37.85
794.313	39.07
794.488	37.74
794.664	37.23
794.839	37.9
795.015	33.87
795.19	31.6
795.366	32.56
795.541	32.23
795.716	33.29
795.892	33.94
796.067	34.55
796.242	35.16
796.418	36.35
796.593	34.44
796.768	32.48
796.944	33.88
797.119	33.8
797.294	34.18
797.469	32.89
797.644	33.43
797.82	33.68
797.995	33.68
798.17	31.92
798.345	30.11
798.52	32.02
798.695	35.09
798.87	36.07
799.045	36.61
799.22	38.43
799.395	38.58
799.57	38.6
799.745	38.31
799.92	38.33
800.095	39.77
800.27	40.1
800.445	40.32
800.62	35.63
800.795	34.63
800.97	34.01
801.145	31.77
801.319	32.23
801.494	28.87
801.669	27.37
801.844	26.68
802.018	24.67
802.193	25.71
802.368	26.2
802.543	29.58
802.717	32.78
802.892	33.15
803.067	32.79
803.241	33.48
803.416	34.13
803.59	33.83
803.765	32.1
803.94	31.78
804.114	29.39
804.289	26.43
804.463	26.05
804.638	24.3
804.812	24.48
804.986	24.62
805.161	25.17
805.335	27.27
805.51	29.27
805.684	28.55
805.858	31.2
806.033	33.43
806.207	33.4
806.381	30
806.556	29.46
806.73	29.63
806.904	30.79
807.078	29.87
807.253	27.35
807.427	24.55
807.601	26.92
807.775	25.2
807.949	26.16
808.123	29.19
808.298	31.44
808.472	30.35
808.646	30.98
808.82	30.39
808.994	32.06
809.168	33.11
809.342	34.84
809.516	31.29
809.69	31.82
809.864	32.48
810.038	28.68
810.212	28.82
810.385	29.81
810.559	29.55
810.733	27.94
810.907	24.22
811.081	26.31
811.255	24.88
811.428	28.05
811.602	26.59
811.776	25.59
811.95	26.81
812.123	29.19
812.297	29.95
812.471	27.92
812.644	27.67
812.818	29.79
812.992	25.92
813.165	30.34
813.339	32.12
813.512	37.67
813.686	36.33
813.86	36.16
814.033	35.33
814.207	38.72
814.38	41.76
814.554	43.45
814.727	41.75
814.9	42.11
815.074	42.31
815.247	40.61
815.421	39.51
815.594	41.04
815.767	42.11
815.941	41.36
816.114	37.35
816.287	33.85
816.46	34.25
816.634	35.19
816.807	35.91
816.98	34.29
817.153	36.84
817.327	33.11
817.5	36.43
817.673	36.98
817.846	37.37
818.019	40.2
818.192	42.67
818.365	41.97
818.538	42.53
818.711	43.92
818.884	43.06
819.057	38.82
819.23	37.68
819.403	35.49
819.576	33.52
819.749	34.6
819.922	33.37
820.095	32.19
820.268	34.19
820.441	36.17
820.614	34.99
820.786	36
820.959	39.07
821.132	42.11
821.305	40.56
821.477	40.53
821.65	40.08
821.823	39.84
821.996	39.15
822.168	38.35
822.341	38.34
822.514	38.76
822.686	38.38
822.859	38.11
823.031	37.81
823.204	38.26
823.376	38.61
823.549	38.98
823.722	39.19
823.894	39.81
824.067	39.47
824.239	38.32
824.411	38.06
824.584	38.13
824.756	37.99
824.929	38.04
825.101	37.24
825.273	36.61
825.446	35.58
825.618	35.16
825.79	35.24
825.963	35.65
826.135	36.67
826.307	37.55
826.479	38.39
826.652	38.49
826.824	38.27
826.996	38.06
827.168	38.4
827.34	39.36
827.512	40.04
827.684	40.08
827.856	40.9
828.029	42.23
828.201	41.89
828.373	40.16
828.545	39.65
828.717	39.31
828.889	41.11
829.061	41.32
829.232	40.3
829.404	39.73
829.576	36.87
829.748	34.67
829.92	31.14
830.092	31.35
830.264	32.4
830.436	32.46
830.607	32.19
830.779	29.98
830.951	29.5
831.123	29.46
831.294	28.98
831.466	31.2
831.638	32.61
831.809	34.74
831.981	30.65
832.153	32.09
832.324	32.82
832.496	33.26
832.667	35.79
832.839	34.45
833.011	36.74
833.182	37.41
833.354	38.32
833.525	38.31
833.697	36.82
833.868	38.34
834.039	37.15
834.211	37.73
834.382	37.39
834.554	36.99
834.725	38.29
834.896	36.09
835.068	36.89
835.239	35.89
835.41	36.35
835.581	37.3
835.753	37.63
835.924	37.64
836.095	37.42
836.266	39.01
836.438	38.76
836.609	37.19
836.78	36.85
836.951	34.55
837.122	34.98
837.293	34.7
837.464	35.53
837.635	34.68
837.806	35.49
837.977	32.38
838.148	30.93
838.319	32.52
838.49	35.27
838.661	37.59
838.832	39.35
839.003	39.86
839.174	35.5
839.345	34.79
839.516	37.16
839.687	31.08
839.857	33.85
840.028	29.76
840.199	25.52
840.37	20.92
840.54	19.73
840.711	20.49
840.882	21.02
841.053	22.68
841.223	18.46
841.394	15.43
841.564	23.34
841.735	24.73
841.906	22.13
842.076	22.9
842.247	30.62
842.417	31.61
842.588	29.06
842.758	28.69
842.929	32.33
843.099	37.76
843.27	35.86
843.44	33.22
843.611	38.27
843.781	40.66
843.951	45.61
844.122	42.35
844.292	40.45
844.462	41.96
844.633	41.62
844.803	43.85
844.973	43.18
845.144	46.89
845.314	50.33
845.484	43.72
845.654	39.39
845.824	29.83
845.995	28.75
846.165	27.65
846.335	26.24
846.505	27.67
846.675	22.59
846.845	24.69
847.015	18.8
847.185	20.63
847.355	15.75
847.525	24.77
847.695	31.3
847.865	37.61
848.035	39.87
848.205	41.49
848.375	42.74
848.545	40.94
848.715	38.81
848.884	40.42
849.054	34.2
849.224	54.57
849.394	52.04
849.564	58.91
849.733	56.64
849.903	58.79
850.073	53.2
850.243	51.23
850.412	52.97
850.582	60.49
850.752	72.11
850.921	74.2
851.091	63.31
851.26	74.21
851.43	70.15
851.599	52.98
851.769	37.27
851.939	43.81
852.108	54.11
852.278	62.55
852.447	45.76
852.616	45.64
852.786	47.36
852.955	43.87
853.125	32.77
853.294	45.94
853.463	49.06
853.633	53.34
853.802	47.63
853.971	53.88
854.141	60.54
854.31	71.1
854.479	72.78
854.648	61.85
854.818	57.81
854.987	60.52
855.156	51.19
855.325	50.54
855.494	55.96
855.663	62.82
855.832	54.18
856.001	46.45
856.171	47.15
856.34	47.25
856.509	46.55
856.678	39.3
856.847	43.42
857.016	63.49
857.185	68.83
857.353	68.49
857.522	69.67
857.691	57.96
857.86	65.45
858.029	73.26
858.198	72.16
858.367	76.51
858.535	90.14
858.704	87.05
858.873	65.39
859.042	38.99
859.21	53.14
859.379	45.29
859.548	61.26
859.717	46.36
859.885	32.95
860.054	32.85
860.222	35.86
860.391	37.73
860.56	35.79
860.728	43.12
860.897	63.36
861.065	47.46
861.234	46.04
861.402	43.1
861.571	44.23
861.739	48.95
861.908	36
862.076	14.31
862.244	36.17
862.413	41.76
862.581	39.99
862.749	33.3
862.918	43.06
863.086	33.83
863.254	42.03
863.423	9.23
863.591	1.44
863.759	-9.54
863.927	35.27
864.096	26.11
864.264	-37.56
864.432	-9.92
864.6	-8.75
864.768	-9.38
864.936	8.44
865.104	4.44
865.272	23.99
865.44	25.19
865.608	46.75
865.776	37.72
865.944	6.57
866.112	33.94
866.28	23.22
866.448	25.1
866.616	19.55
866.784	20.61
866.952	20.05
867.12	22.63
867.288	27.47
867.455	19.77
867.623	16.64
867.791	35.7
867.959	24.12
868.127	22.36
868.294	-1.56
868.462	1.95
868.63	8.26
868.797	22.22
868.965	13.42
869.133	11.38
869.3	11.1
869.468	16.54
869.636	22.24
869.803	32.42
869.971	43.87
870.138	60.32
870.306	63.64
870.473	73.16
870.641	61.95
870.808	68.95
870.975	79.63
871.143	69.45
871.31	62.97
871.478	59.64
871.645	52.41
871.812	45.49
871.98	43.13
872.147	41.26
872.314	31.07
872.482	33.33
872.649	14.67
872.816	17.4
872.983	13.77
873.15	9.22
873.318	0.36
873.485	-3.51
873.652	-16.03
873.819	-13.34
873.986	-12.53
874.153	-13.3
874.32	-21.62
874.487	-21.07
874.654	-13.82
874.821	-11.38
874.988	11.88
875.155	17.37
875.322	23.64
875.489	34.08
875.656	44.9
875.823	41.45
875.99	39.61
876.157	42.82
876.324	60.21
876.49	55.67
876.657	56.41
876.824	38.59
876.991	30.6
877.157	39.8
877.324	40.78
877.491	30.44
877.658	33.96
877.824	50.48
877.991	47.43
878.157	8.07
878.324	12.04
878.491	5.44
878.657	38.38
878.824	51.78
878.99	22.66
879.157	7.21
879.323	16.39
879.49	13.46
879.656	3.76
879.823	16.03
879.989	28.02
880.156	13.89
880.322	21.82
880.488	13.35
880.655	20.69
880.821	29.53
880.987	34.5
881.154	36.34
881.32	44.34
881.486	44.99
881.652	44.04
881.819	45.99
881.985	49.27
882.151	50.55
882.317	53.16
882.483	50.83
882.649	47.5
882.816	48.16
882.982	46.1
883.148	43.5
883.314	42.28
883.48	41.08
883.646	41.31
883.812	40.42
883.978	39.39
884.144	37.57
884.31	36.99
884.476	36.86
884.642	36.29
884.807	36.67
884.973	34.79
885.139	33.51
885.305	34.02
885.471	32.68
885.637	34.31
885.802	33.47
885.968	33.13
886.134	31.57
886.3	34.99
886.465	34.91
886.631	32.89
886.797	34.73
886.962	36.72
887.128	33.85
887.293	29.6
887.459	26.64
887.625	29.65
887.79	31.93
887.956	30.11
888.121	20.02
888.287	16.14
888.452	20.51
888.618	14.93
888.783	12.38
