Data from CB_030_Reflection_2.txt Node
Date: Wed Nov 11 20:49:51 EST 2015
User: robert
Spectrometer: USB4E03001
Autoset integration time: false
Trigger mode: 4
Integration Time (sec): 1.000000E-1
Scans to average: 15
Electric dark correction enabled: true
Nonlinearity correction enabled: false
Boxcar width: 5
Stray light correction enabled: false
XAxis mode: Wavelengths
Stop averaging: false
Number of Pixels in Spectrum: 3648
>>>>>Begin Spectral Data<<<<<
177.566	-36.96
177.785	17.59
178.005	-34.2
178.225	160.79
178.445	67.06
178.665	-327.21
178.885	402.62
179.105	1900
179.324	19.86
179.544	83.63
179.764	-150.41
179.984	-268.73
180.204	4597.5
180.423	141.51
180.643	-292.29
180.863	577.87
181.083	98.98
181.302	254.13
181.522	491.67
181.742	-1747.61
181.961	-312.92
182.181	-1522.71
182.401	778.23
182.621	-225.09
182.84	-166.82
183.06	-69.91
183.279	-280.21
183.499	-121.45
183.719	-75.01
183.938	-38.64
184.158	-48.66
184.377	-55.54
184.597	-90.3
184.816	-50.55
185.036	4.39
185.256	27.52
185.475	55.76
185.695	52.77
185.914	29.01
186.134	-532.86
186.353	656.83
186.572	117.61
186.792	16.76
187.011	62.78
187.231	-497.72
187.45	-308.83
187.67	-84.54
187.889	-7.24
188.108	-9.81
188.328	14.92
188.547	7.11
188.766	67.35
188.986	-708.67
189.205	-1215.32
189.424	-30.86
189.644	93.76
189.863	123.2
190.082	-4.51
190.302	63.41
190.521	112.75
190.74	29.4
190.959	-9.91
191.178	7.28
191.398	23.01
191.617	-2.11
191.836	-115.69
192.055	-1.8
192.274	103.71
192.494	262.89
192.713	611.42
192.932	928.22
193.151	-55.49
193.37	-37.54
193.589	-94.35
193.808	-152.2
194.027	-157.15
194.246	-387.52
194.465	-5.64
194.685	-176.82
194.904	221.27
195.123	214.63
195.342	123.9
195.561	361.39
195.78	3439.81
195.999	499.09
196.218	282.97
196.436	280.25
196.655	-98.9
196.874	113.54
197.093	230.19
197.312	29.54
197.531	555.39
197.75	416.52
197.969	508.94
198.188	772.26
198.407	465.54
198.625	355.6
198.844	483.97
199.063	-965.01
199.282	-146.62
199.501	322.68
199.719	204.35
199.938	442.21
200.157	-1993.78
200.376	384.84
200.594	612.22
200.813	304.3
201.032	-95.31
201.251	-128.94
201.469	47.21
201.688	90.58
201.907	447.73
202.125	315.55
202.344	1789.7
202.563	572.09
202.781	665.41
203	322.8
203.218	165.99
203.437	553.4
203.656	955.18
203.874	648.12
204.093	1442.46
204.311	861.58
204.53	275.71
204.748	267.56
204.967	395.51
205.185	3831.43
205.404	-101.63
205.622	-7.36
205.841	69.21
206.059	66.83
206.278	46.57
206.496	2.68
206.715	-5.68
206.933	23.31
207.151	-22.62
207.37	-26.62
207.588	-166.39
207.806	-38.32
208.025	-143.38
208.243	265.51
208.461	118.22
208.68	126.18
208.898	-157.18
209.116	-55.88
209.335	-328.85
209.553	-38.12
209.771	-155.81
209.989	112.97
210.208	71.88
210.426	85.86
210.644	147.51
210.862	294.12
211.081	80.36
211.299	61.62
211.517	-31.93
211.735	59.27
211.953	-31.62
212.171	-6.58
212.39	-54.78
212.608	-39.8
212.826	12.95
213.044	63.48
213.262	43.01
213.48	79.21
213.698	14.42
213.916	-51.72
214.134	35.61
214.352	-5.7
214.57	36.43
214.788	64.62
215.006	249.68
215.224	24.28
215.442	263.09
215.66	85.8
215.878	152.69
216.096	133.48
216.314	72.2
216.532	165.58
216.75	146.82
216.968	140.71
217.185	119.26
217.403	166.44
217.621	331.22
217.839	104.46
218.057	173.94
218.275	154.89
218.492	378.52
218.71	18.29
218.928	66.8
219.146	128.7
219.363	421.57
219.581	-82.47
219.799	13.84
220.017	-100.65
220.234	-160.38
220.452	-194.99
220.67	-538.38
220.887	4141.1
221.105	-692.42
221.323	-129.52
221.54	-117.56
221.758	-422.29
221.976	-134.81
222.193	-91.28
222.411	-16.82
222.629	33.75
222.846	-10.02
223.064	16.25
223.281	50.78
223.499	41.17
223.716	28.07
223.934	8.28
224.151	27.66
224.369	-1.05
224.586	-9.8
224.804	-13.22
225.021	-34.91
225.239	-61.41
225.456	-45.91
225.674	-43.05
225.891	-57.22
226.108	-60.05
226.326	-49.42
226.543	-48.52
226.76	-15.13
226.978	-3.6
227.195	-0.35
227.413	24.6
227.63	29.38
227.847	18.18
228.064	15.54
228.282	14.13
228.499	8.18
228.716	10.33
228.934	9.44
229.151	5.63
229.368	4.99
229.585	2.43
229.802	-3.83
230.02	-5.59
230.237	-5.01
230.454	-5.28
230.671	-5.65
230.888	-1.77
231.105	5.41
231.323	8.21
231.54	10.21
231.757	10.21
231.974	11.05
232.191	12.06
232.408	10.15
232.625	17.08
232.842	15.79
233.059	14.97
233.276	19.16
233.493	8.39
233.71	7.37
233.927	15.72
234.144	9.39
234.361	14.41
234.578	16.26
234.795	9.93
235.012	7.85
235.229	6.46
235.446	2.28
235.663	-4.18
235.879	-1.59
236.096	5.42
236.313	-5.91
236.53	2.87
236.747	-0.75
236.964	-3.1
237.181	4.59
237.397	8.58
237.614	5.73
237.831	15.91
238.048	13.04
238.264	9.01
238.481	4.14
238.698	2.46
238.915	4.06
239.131	3.45
239.348	6.3
239.565	9.97
239.781	6.09
239.998	3.99
240.215	0.89
240.431	4.13
240.648	3.12
240.865	2.54
241.081	2.43
241.298	-1.02
241.514	2.95
241.731	3.75
241.947	2.48
242.164	4.95
242.38	7.51
242.597	6.54
242.814	5.47
243.03	7.63
243.246	9.4
243.463	9.97
243.679	8.85
243.896	6.43
244.112	7.74
244.329	9.36
244.545	5.47
244.762	5.49
244.978	6.54
245.194	9.33
245.411	8.17
245.627	6.71
245.843	9.04
246.06	9.79
246.276	11.11
246.492	7.39
246.709	7.01
246.925	9.13
247.141	8.86
247.357	9.49
247.574	9.07
247.79	9.53
248.006	9.95
248.222	9.61
248.439	9.76
248.655	9.68
248.871	11.12
249.087	11.46
249.303	11.2
249.519	12.81
249.736	12.08
249.952	11.7
250.168	8.97
250.384	8.6
250.6	6.56
250.816	6.82
251.032	8.7
251.248	10.3
251.464	10.77
251.68	12.36
251.896	10.74
252.112	11.22
252.328	11.08
252.544	13.34
252.76	13.91
252.976	16.88
253.192	16.71
253.408	14.25
253.624	13.39
253.84	14.3
254.056	11.7
254.272	13.71
254.487	13.03
254.703	13.85
254.919	14.07
255.135	12.06
255.351	6.44
255.567	9.67
255.782	12.15
255.998	16.77
256.214	12.68
256.43	11.9
256.646	9.5
256.861	10.16
257.077	11
257.293	6.6
257.508	7.46
257.724	9.4
257.94	9.65
258.155	11.17
258.371	7.64
258.587	7.67
258.802	6.46
259.018	6.04
259.234	5.1
259.449	5.6
259.665	5.95
259.88	6.4
260.096	6.21
260.312	6.05
260.527	4.76
260.743	4.66
260.958	4.64
261.174	5.92
261.389	5.72
261.605	7.51
261.82	6.44
262.036	7.19
262.251	5.41
262.466	6.02
262.682	4.77
262.897	5.25
263.113	7.12
263.328	8.47
263.543	6.69
263.759	6.44
263.974	3.68
264.189	3.51
264.405	4.8
264.62	4.2
264.835	5.09
265.051	3.95
265.266	4.86
265.481	4.22
265.696	0.83
265.912	1.34
266.127	1.7
266.342	1.75
266.557	3.04
266.773	1.52
266.988	4.02
267.203	1
267.418	1.66
267.633	1.79
267.848	1.86
268.064	4.58
268.279	5.76
268.494	5.61
268.709	5.67
268.924	4.2
269.139	4.4
269.354	3.02
269.569	3.55
269.784	6.45
269.999	5.92
270.214	5.68
270.429	4.23
270.644	3.89
270.859	4.06
271.074	4.03
271.289	4.9
271.504	5.69
271.719	6.28
271.934	6.55
272.149	5.69
272.363	5.59
272.578	4.81
272.793	5.17
273.008	5.41
273.223	6.41
273.438	5.29
273.653	5.11
273.867	4.1
274.082	3.21
274.297	4.01
274.512	4.25
274.726	3.6
274.941	4.21
275.156	4.67
275.371	3.55
275.585	3.2
275.8	4.7
276.015	4.73
276.229	6.9
276.444	8.98
276.659	8.8
276.873	7.26
277.088	7.82
277.302	6.73
277.517	6.86
277.732	7.04
277.946	6.95
278.161	6.45
278.375	6.67
278.59	4.47
278.804	1.8
279.019	0.94
279.233	0.33
279.448	1.04
279.662	2.92
279.877	2.92
280.091	4.15
280.306	5.4
280.52	7
280.735	7.1
280.949	8.36
281.163	8.68
281.378	9.54
281.592	10.4
281.806	9.4
282.021	9.84
282.235	8.78
282.449	6.29
282.664	5.31
282.878	5.42
283.092	4.78
283.307	3.89
283.521	3.43
283.735	3.09
283.949	3.21
284.164	3.12
284.378	3.5
284.592	3.62
284.806	4.13
285.02	3.87
285.234	4.04
285.449	4.19
285.663	4.25
285.877	4.81
286.091	4.04
286.305	4.69
286.519	5.19
286.733	4.8
286.947	6.15
287.161	7.5
287.375	7.46
287.589	6.1
287.803	5.9
288.017	6.93
288.231	7.46
288.445	8.75
288.659	8.1
288.873	8.65
289.087	8.14
289.301	7.48
289.515	8.57
289.729	8.77
289.943	9.64
290.157	11.29
290.371	10.82
290.584	10.37
290.798	9.97
291.012	9.62
291.226	8.8
291.44	8.74
291.654	8.12
291.867	7.3
292.081	6.86
292.295	6.82
292.509	5.23
292.722	3.61
292.936	4.35
293.15	2.4
293.364	1.73
293.577	3.03
293.791	3.29
294.005	4
294.218	4.17
294.432	4.88
294.645	5.11
294.859	6.28
295.073	7.55
295.286	7.62
295.5	9.72
295.713	10.52
295.927	10.58
296.14	10.03
296.354	10.13
296.568	9.64
296.781	9.29
296.994	8.9
297.208	9.17
297.421	8.61
297.635	8.79
297.848	7.97
298.062	8.23
298.275	8.18
298.489	8.7
298.702	8.51
298.915	8.55
299.129	8.45
299.342	8.91
299.555	7.92
299.769	8.3
299.982	7.84
300.195	7.64
300.409	7.34
300.622	8.01
300.835	8.16
301.048	9.45
301.262	9.28
301.475	9.72
301.688	9.28
301.901	9.56
302.115	9.92
302.328	10.31
302.541	12.29
302.754	12.01
302.967	11.74
303.18	11.84
303.393	10.71
303.607	10.55
303.82	10.59
304.033	11.58
304.246	11.34
304.459	10.62
304.672	11.42
304.885	10.65
305.098	11.41
305.311	10.58
305.524	10.71
305.737	10.59
305.95	11.11
306.163	9.74
306.376	9.32
306.589	8.74
306.802	9.88
307.015	8
307.228	7.79
307.44	6.7
307.653	5.4
307.866	5.3
308.079	4.84
308.292	4.03
308.505	5.52
308.718	5.41
308.93	5.94
309.143	5.08
309.356	6.97
309.569	7.85
309.781	8.33
309.994	9.51
310.207	9.64
310.42	11.19
310.632	11.38
310.845	11.46
311.058	12.42
311.27	12.8
311.483	13.57
311.696	13.33
311.908	12.38
312.121	11.68
312.333	11.52
312.546	10.89
312.759	10
312.971	10.86
313.184	10.67
313.396	9.23
313.609	10.77
313.821	10.5
314.034	9.79
314.246	10.44
314.459	11.03
314.671	10
314.884	10.63
315.096	11.18
315.309	11.3
315.521	11.91
315.733	11.46
315.946	9.93
316.158	9.26
316.371	9.31
316.583	8.41
316.795	8.19
317.008	10.27
317.22	10.45
317.432	9.98
317.644	8.87
317.857	9.04
318.069	10.46
318.281	10.68
318.494	11.66
318.706	11.94
318.918	12.27
319.13	13.38
319.342	12.77
319.555	12.59
319.767	11.78
319.979	12.83
320.191	12.23
320.403	11.36
320.615	11.21
320.827	9.82
321.039	9.51
321.252	9.98
321.464	9.2
321.676	10
321.888	10.24
322.1	10.63
322.312	10.17
322.524	10.66
322.736	11.7
322.948	11.84
323.16	12.71
323.372	14.06
323.584	14.25
323.796	15.25
324.007	14.99
324.219	15.33
324.431	15.34
324.643	16.03
324.855	16.35
325.067	16.65
325.279	17.16
325.491	17.85
325.702	18.23
325.914	17.57
326.126	16.8
326.338	17.91
326.55	18.27
326.761	19.05
326.973	19.01
327.185	19.09
327.396	19.62
327.608	19.23
327.82	18.67
328.032	17.86
328.243	18.23
328.455	20.27
328.666	19.18
328.878	19.51
329.09	19.99
329.301	19.87
329.513	19.89
329.725	19.8
329.936	20.62
330.148	21.62
330.359	22.15
330.571	22.76
330.782	22.24
330.994	22.56
331.205	22.56
331.417	22.97
331.628	22.83
331.84	23.24
332.051	23.35
332.262	24.08
332.474	23.61
332.685	23.29
332.897	24.99
333.108	25.13
333.319	25.58
333.531	26.31
333.742	26.24
333.953	26.79
334.165	27.43
334.376	26.74
334.587	26.06
334.799	25.63
335.01	26.06
335.221	25.28
335.432	25.06
335.644	25.12
335.855	24.29
336.066	24.17
336.277	24.33
336.488	23.5
336.7	23.72
336.911	23.71
337.122	23.83
337.333	23.6
337.544	23.62
337.755	23.76
337.966	23.7
338.177	23.39
338.388	24.2
338.599	24.26
338.811	24.74
339.022	25.05
339.233	24.88
339.444	26.41
339.655	26.16
339.866	25.16
340.076	25.01
340.287	25.46
340.498	25.72
340.709	23.68
340.92	23.58
341.131	23.69
341.342	24.2
341.553	24.43
341.764	23.86
341.975	23.73
342.185	24.33
342.396	24.26
342.607	23.72
342.818	24.22
343.029	26.37
343.239	26.55
343.45	26.93
343.661	26.73
343.872	26.78
344.082	26.74
344.293	27.58
344.504	27.46
344.714	27.91
344.925	28.82
345.136	28.68
345.346	27.33
345.557	27.69
345.768	26.24
345.978	26.73
346.189	26.47
346.399	26.41
346.61	26.11
346.821	26.15
347.031	25.15
347.242	23.88
347.452	23.3
347.663	23.38
347.873	22.86
348.084	24.27
348.294	23.28
348.504	23.57
348.715	23.3
348.925	23.21
349.136	23.36
349.346	23.69
349.557	24.05
349.767	24.42
349.977	24.85
350.188	24.39
350.398	23.67
350.608	23.58
350.819	23.65
351.029	24.04
351.239	23.61
351.449	23.4
351.66	23.56
351.87	24.27
352.08	23.87
352.29	23.38
352.501	23.82
352.711	23.79
352.921	23.88
353.131	24.91
353.341	24.64
353.552	25.3
353.762	26.1
353.972	25.43
354.182	24.34
354.392	23.45
354.602	24.18
354.812	23.54
355.022	24.16
355.232	24.41
355.442	23.98
355.652	23.51
355.862	23.65
356.072	23.35
356.282	23.97
356.492	23.82
356.702	24.79
356.912	24.63
357.122	24.48
357.332	24.51
357.542	24.35
357.752	23.48
357.962	24.13
358.171	23.52
358.381	23.33
358.591	22.79
358.801	22.86
359.011	22.83
359.221	22.49
359.43	22.3
359.64	21.88
359.85	22.18
360.06	21.86
360.269	21.91
360.479	22.15
360.689	21.67
360.899	21.73
361.108	21.64
361.318	21.82
361.528	22.18
361.737	22.7
361.947	22.98
362.156	22.72
362.366	22.74
362.576	22.55
362.785	22.42
362.995	22.61
363.204	22.6
363.414	22.92
363.623	22.82
363.833	21.83
364.042	21.5
364.252	21.19
364.461	21.17
364.671	21.35
364.88	21.06
365.09	20.99
365.299	21.34
365.509	21.46
365.718	21.25
365.927	21.16
366.137	21.87
366.346	21.78
366.555	21.71
366.765	20.99
366.974	21.33
367.183	21.27
367.393	21.8
367.602	21.46
367.811	21.08
368.021	20.66
368.23	19.84
368.439	20.3
368.648	20.77
368.857	20.74
369.067	21.08
369.276	20.88
369.485	20.51
369.694	19.89
369.903	19.47
370.112	19.64
370.321	19.69
370.531	20.05
370.74	19.67
370.949	19.56
371.158	18.68
371.367	18.49
371.576	18.13
371.785	18.25
371.994	18.4
372.203	18.69
372.412	19.08
372.621	19.43
372.83	19.72
373.039	19.28
373.248	18.67
373.457	18.99
373.666	19.12
373.874	18.97
374.083	19.14
374.292	18.72
374.501	18.4
374.71	17.9
374.919	17.29
375.128	16.13
375.336	16.12
375.545	16.45
375.754	16.61
375.963	16.78
376.171	16.85
376.38	16.83
376.589	16.66
376.798	16.88
377.006	17.34
377.215	17.79
377.424	18.21
377.632	17.86
377.841	17.61
378.05	17.29
378.258	17.13
378.467	17
378.675	16.76
378.884	16.91
379.093	16.66
379.301	16.12
379.51	16
379.718	15.78
379.927	15.8
380.135	15.95
380.344	16.18
380.552	16.28
380.761	15.98
380.969	15.97
381.177	15.76
381.386	15.51
381.594	15.76
381.803	15.18
382.011	15.83
382.219	16.36
382.428	16.48
382.636	16.25
382.845	15.65
383.053	15.8
383.261	15.76
383.469	15.4
383.678	15.77
383.886	15.08
384.094	15.19
384.302	14.51
384.511	14.53
384.719	14.27
384.927	14.26
385.135	14.28
385.343	14.29
385.552	13.78
385.76	13.92
385.968	13.85
386.176	14.12
386.384	14.14
386.592	13.88
386.8	13.29
387.008	13.22
387.216	13.14
387.424	13.48
387.633	13.16
387.841	13.67
388.049	13.54
388.257	13.21
388.465	13.51
388.672	13.4
388.88	13.82
389.088	14.27
389.296	14.34
389.504	14.07
389.712	13.78
389.92	14.03
390.128	13.69
390.336	13.71
390.544	13.56
390.751	13.05
390.959	12.91
391.167	12.66
391.375	12.27
391.583	11.95
391.79	12.3
391.998	12.22
392.206	12.51
392.414	12.7
392.621	12.65
392.829	13.02
393.037	13.29
393.244	13.46
393.452	13.25
393.66	13.4
393.867	13.47
394.075	13.13
394.283	12.7
394.49	12.26
394.698	12.55
394.905	12.95
395.113	13.02
395.32	12.98
395.528	12.85
395.735	12.79
395.943	12.7
396.15	12.6
396.358	12.52
396.565	12.92
396.773	12.93
396.98	12.55
397.188	12.39
397.395	12.19
397.602	11.78
397.81	11.79
398.017	12.23
398.225	12.15
398.432	12.47
398.639	12.83
398.847	12.22
399.054	12.15
399.261	11.81
399.468	11.46
399.676	11.05
399.883	11.06
400.09	10.9
400.297	10.85
400.505	11.02
400.712	10.72
400.919	10.65
401.126	11.44
401.333	11.34
401.54	11.59
401.748	11.32
401.955	11.31
402.162	11.33
402.369	11.27
402.576	11.12
402.783	10.71
402.99	10.78
403.197	11.11
403.404	10.96
403.611	10.93
403.818	10.51
404.025	10.98
404.232	11.06
404.439	11.03
404.646	10.99
404.853	11.07
405.06	10.96
405.267	10.73
405.474	10.33
405.681	9.91
405.887	9.85
406.094	10.09
406.301	9.81
406.508	9.75
406.715	10.04
406.922	10.4
407.128	10.04
407.335	10.27
407.542	10.11
407.749	10.17
407.955	10.31
408.162	10.47
408.369	10.42
408.575	10.51
408.782	10.45
408.989	10.27
409.195	9.84
409.402	9.83
409.609	9.76
409.815	9.7
410.022	9.49
410.228	9.81
410.435	9.62
410.642	9.91
410.848	9.71
411.055	9.69
411.261	9.57
411.468	9.86
411.674	10.1
411.881	10.25
412.087	10.4
412.294	10.63
412.5	10.63
412.706	10.78
412.913	10.53
413.119	10.66
413.326	10.47
413.532	10.5
413.738	10.36
413.945	10.29
414.151	9.96
414.357	10.15
414.564	9.81
414.77	9.56
414.976	9.53
415.182	9.47
415.389	9.78
415.595	9.96
415.801	9.98
416.007	9.91
416.214	10.16
416.42	10.41
416.626	10.44
416.832	10.55
417.038	10.58
417.244	10.78
417.45	11.07
417.657	10.89
417.863	10.99
418.069	10.95
418.275	10.82
418.481	10.52
418.687	10.28
418.893	10.19
419.099	10.41
419.305	10.38
419.511	10.09
419.717	9.91
419.923	9.8
420.129	9.69
420.335	9.86
420.541	10.01
420.746	10.18
420.952	10.25
421.158	10.12
421.364	9.89
421.57	9.9
421.776	10.09
421.982	10.04
422.187	10
422.393	9.97
422.599	9.78
422.805	9.83
423.01	9.62
423.216	9.63
423.422	9.6
423.628	9.65
423.833	9.76
424.039	9.54
424.245	9.52
424.45	9.69
424.656	9.84
424.862	9.66
425.067	9.53
425.273	9.6
425.478	9.61
425.684	9.69
425.889	9.47
426.095	9.44
426.301	9.56
426.506	9.5
426.712	9.3
426.917	9.13
427.123	9.51
427.328	9.56
427.533	9.59
427.739	9.4
427.944	9.21
428.15	9.34
428.355	8.94
428.561	8.76
428.766	8.83
428.971	8.88
429.177	8.85
429.382	8.56
429.587	8.37
429.793	8.3
429.998	8.24
430.203	8.32
430.408	8.29
430.614	8.5
430.819	8.47
431.024	8.39
431.229	8.28
431.434	8.21
431.64	8.14
431.845	8.01
432.05	8.04
432.255	8.23
432.46	8.52
432.665	8.46
432.87	8.35
433.076	8.44
433.281	8.51
433.486	8.56
433.691	8.63
433.896	8.72
434.101	8.89
434.306	8.79
434.511	8.81
434.716	8.75
434.921	8.93
435.126	8.95
435.331	8.93
435.535	8.83
435.74	8.73
435.945	8.54
436.15	8.61
436.355	8.61
436.56	8.74
436.765	8.61
436.97	8.65
437.174	8.52
437.379	8.88
437.584	8.88
437.789	9.09
437.993	9.27
438.198	9.31
438.403	9.22
438.608	9.22
438.812	9.33
439.017	9.43
439.222	9.38
439.426	9.48
439.631	9.49
439.836	9.58
440.04	9.67
440.245	9.78
440.45	9.87
440.654	9.78
440.859	9.73
441.063	9.62
441.268	9.56
441.472	9.54
441.677	9.52
441.881	9.32
442.086	9.38
442.29	9.21
442.495	9.19
442.699	9.24
442.904	9.18
443.108	9.3
443.312	9.12
443.517	9.06
443.721	9.06
443.925	8.96
444.13	8.93
444.334	8.83
444.538	8.88
444.743	8.51
444.947	8.57
445.151	8.62
445.356	8.58
445.56	8.65
445.764	8.75
445.968	8.69
446.173	8.7
446.377	8.7
446.581	8.68
446.785	8.55
446.989	8.66
447.193	8.61
447.398	8.61
447.602	8.6
447.806	8.57
448.01	8.54
448.214	8.66
448.418	8.52
448.622	8.73
448.826	8.72
449.03	8.77
449.234	8.7
449.438	8.62
449.642	8.9
449.846	8.68
450.05	8.78
450.254	8.88
450.458	8.57
450.662	8.74
450.866	8.55
451.069	8.45
451.273	8.67
451.477	8.67
451.681	8.71
451.885	8.43
452.089	8.54
452.292	8.47
452.496	8.34
452.7	8.62
452.904	8.56
453.107	8.54
453.311	8.55
453.515	8.47
453.719	8.78
453.922	8.69
454.126	8.76
454.33	8.8
454.533	9.03
454.737	8.9
454.94	8.66
455.144	8.63
455.348	8.68
455.551	8.74
455.755	8.78
455.958	8.46
456.162	8.25
456.365	8.31
456.569	8.44
456.772	8.28
456.976	8.51
457.179	8.66
457.383	8.84
457.586	8.71
457.79	8.61
457.993	8.39
458.196	8.63
458.4	8.85
458.603	8.8
458.807	8.7
459.01	8.77
459.213	8.65
459.417	8.6
459.62	8.48
459.823	8.38
460.026	8.4
460.23	8.59
460.433	8.44
460.636	8.48
460.839	8.48
461.042	8.44
461.246	8.33
461.449	8.33
461.652	8.46
461.855	8.6
462.058	8.87
462.261	9.1
462.464	8.98
462.668	9.1
462.871	9
463.074	8.96
463.277	9.06
463.48	8.96
463.683	9.05
463.886	8.96
464.089	8.85
464.292	8.52
464.495	8.22
464.698	8.17
464.901	8.03
465.104	8.13
465.306	8.15
465.509	8.18
465.712	8.53
465.915	8.48
466.118	8.52
466.321	8.58
466.524	8.77
466.726	9.06
466.929	9.19
467.132	9.11
467.335	8.99
467.538	9.05
467.74	9
467.943	8.8
468.146	8.85
468.348	8.95
468.551	9.02
468.754	8.87
468.956	8.67
469.159	8.72
469.362	8.74
469.564	8.82
469.767	8.81
469.969	8.8
470.172	8.75
470.375	8.61
470.577	8.28
470.78	8.12
470.982	8.21
471.185	8.3
471.387	8.24
471.59	8.36
471.792	8.42
471.995	8.4
472.197	8.39
472.399	8.69
472.602	8.83
472.804	9.12
473.007	9.32
473.209	9.34
473.411	9.14
473.614	8.98
473.816	9.14
474.018	8.99
474.22	8.77
474.423	8.81
474.625	8.53
474.827	8.47
475.03	8.28
475.232	8.13
475.434	8.19
475.636	8.27
475.838	8.49
476.04	8.45
476.243	8.68
476.445	8.98
476.647	8.9
476.849	9.05
477.051	8.92
477.253	8.9
477.455	8.79
477.657	8.75
477.859	8.91
478.061	8.72
478.263	8.55
478.465	8.49
478.667	8.45
478.869	8.61
479.071	8.45
479.273	8.47
479.475	8.46
479.677	8.37
479.879	8.23
480.081	8.1
480.283	8.26
480.485	8.42
480.686	8.42
480.888	8.4
481.09	8.3
481.292	8.31
481.494	8.37
481.695	8.4
481.897	8.53
482.099	8.56
482.301	8.6
482.502	8.55
482.704	8.53
482.906	8.5
483.107	8.5
483.309	8.47
483.511	8.48
483.712	8.51
483.914	8.53
484.115	8.53
484.317	8.52
484.519	8.55
484.72	8.58
484.922	8.61
485.123	8.54
485.325	8.5
485.526	8.5
485.728	8.49
485.929	8.41
486.131	8.45
486.332	8.43
486.534	8.5
486.735	8.42
486.936	8.27
487.138	8.29
487.339	8.38
487.541	8.37
487.742	8.39
487.943	8.39
488.144	8.42
488.346	8.38
488.547	8.31
488.748	8.25
488.95	8.25
489.151	8.35
489.352	8.29
489.553	8.23
489.755	8.26
489.956	8.27
490.157	8.29
490.358	8.25
490.559	8.23
490.76	8.3
490.961	8.33
491.163	8.28
491.364	8.26
491.565	8.23
491.766	8.29
491.967	8.35
492.168	8.36
492.369	8.35
492.57	8.4
492.771	8.45
492.972	8.48
493.173	8.49
493.374	8.58
493.575	8.52
493.776	8.59
493.976	8.63
494.177	8.57
494.378	8.65
494.579	8.65
494.78	8.62
494.981	8.63
495.182	8.67
495.382	8.66
495.583	8.66
495.784	8.78
495.985	8.8
496.185	8.69
496.386	8.77
496.587	8.75
496.788	8.71
496.988	8.75
497.189	8.7
497.39	8.62
497.59	8.6
497.791	8.45
497.992	8.47
498.192	8.3
498.393	8.36
498.593	8.27
498.794	8.28
498.994	8.35
499.195	8.4
499.395	8.5
499.596	8.55
499.796	8.62
499.997	8.68
500.197	8.71
500.398	8.78
500.598	8.81
500.799	8.91
500.999	8.78
501.199	8.65
501.4	8.66
501.6	8.49
501.801	8.47
502.001	8.42
502.201	8.69
502.402	8.69
502.602	8.76
502.802	8.63
503.002	8.68
503.203	8.78
503.403	9.01
503.603	8.9
503.803	9.01
504.003	9.06
504.204	9.15
504.404	9.13
504.604	9.09
504.804	9.32
505.004	9.55
505.204	9.62
505.404	9.76
505.604	9.71
505.804	9.78
506.005	9.88
506.205	9.99
506.405	10.04
506.605	10.01
506.805	9.95
507.005	9.87
507.204	9.83
507.404	9.69
507.604	9.67
507.804	9.68
508.004	9.7
508.204	9.74
508.404	9.76
508.604	9.64
508.804	9.73
509.003	9.89
509.203	9.99
509.403	10.08
509.603	10.32
509.803	10.34
510.002	10.54
510.202	10.76
510.402	10.73
510.602	10.83
510.801	10.97
511.001	10.99
511.201	11.06
511.4	10.93
511.6	10.98
511.8	11.1
511.999	11.04
512.199	11.08
512.398	11.07
512.598	11.31
512.797	11.25
512.997	11.36
513.197	11.43
513.396	11.49
513.596	11.63
513.795	11.57
513.994	11.5
514.194	11.68
514.393	11.86
514.593	11.91
514.792	11.87
514.992	11.98
515.191	12.04
515.39	12.21
515.59	12.27
515.789	12.37
515.988	12.48
516.188	12.64
516.387	12.72
516.586	12.67
516.786	12.64
516.985	12.79
517.184	12.88
517.383	13.08
517.582	13.02
517.782	13.07
517.981	13.27
518.18	13.45
518.379	13.35
518.578	13.41
518.777	13.47
518.976	13.65
519.176	13.64
519.375	13.65
519.574	13.57
519.773	13.61
519.972	13.78
520.171	13.7
520.37	13.62
520.569	13.76
520.768	13.8
520.967	13.76
521.166	13.8
521.365	13.84
521.564	13.99
521.762	14.18
521.961	14.31
522.16	14.33
522.359	14.46
522.558	14.73
522.757	14.85
522.956	14.96
523.154	15.13
523.353	15.17
523.552	15.33
523.751	15.45
523.949	15.63
524.148	15.66
524.347	15.69
524.546	15.78
524.744	15.74
524.943	15.81
525.142	15.96
525.34	16.11
525.539	16.21
525.737	16.1
525.936	16.2
526.135	16.13
526.333	16.2
526.532	16.23
526.73	16.31
526.929	16.45
527.127	16.57
527.326	16.68
527.524	16.67
527.723	16.76
527.921	16.92
528.12	16.97
528.318	17.12
528.516	17.22
528.715	17.31
528.913	17.38
529.112	17.42
529.31	17.45
529.508	17.46
529.707	17.48
529.905	17.54
530.103	17.56
530.301	17.65
530.5	17.63
530.698	17.64
530.896	17.71
531.094	17.78
531.293	17.89
531.491	17.94
531.689	18.1
531.887	18.18
532.085	18.21
532.283	18.44
532.481	18.46
532.68	18.5
532.878	18.64
533.076	18.67
533.274	18.71
533.472	18.72
533.67	18.73
533.868	18.72
534.066	18.84
534.264	18.97
534.462	18.88
534.66	18.94
534.858	19.02
535.056	19.04
535.253	19.07
535.451	19.12
535.649	19.24
535.847	19.35
536.045	19.46
536.243	19.49
536.441	19.5
536.638	19.49
536.836	19.49
537.034	19.51
537.232	19.52
537.43	19.65
537.627	19.75
537.825	19.62
538.023	19.56
538.22	19.49
538.418	19.58
538.616	19.56
538.813	19.55
539.011	19.68
539.209	19.89
539.406	20.06
539.604	20.13
539.801	20.07
539.999	20.3
540.196	20.38
540.394	20.55
540.591	20.53
540.789	20.57
540.986	20.7
541.184	20.7
541.381	20.72
541.579	20.66
541.776	20.54
541.974	20.69
542.171	20.62
542.368	20.77
542.566	20.76
542.763	20.78
542.96	20.84
543.158	20.85
543.355	20.88
543.552	20.87
543.75	20.93
543.947	21.07
544.144	20.92
544.341	21.01
544.539	20.96
544.736	20.95
544.933	20.98
545.13	21.09
545.327	21.08
545.524	21.09
545.722	21.06
545.919	21
546.116	21.13
546.313	21.27
546.51	21.28
546.707	21.38
546.904	21.41
547.101	21.43
547.298	21.37
547.495	21.44
547.692	21.51
547.889	21.49
548.086	21.74
548.283	21.78
548.48	21.82
548.677	21.89
548.874	21.71
549.07	21.78
549.267	21.92
549.464	21.97
549.661	22.18
549.858	22.19
550.055	22.21
550.251	22.15
550.448	22.13
550.645	22.08
550.842	22.16
551.038	22.32
551.235	22.41
551.432	22.26
551.628	22.32
551.825	22.26
552.022	22.28
552.218	22.48
552.415	22.32
552.612	22.25
552.808	22.27
553.005	22.42
553.201	22.43
553.398	22.22
553.594	22.32
553.791	22.44
553.987	22.39
554.184	22.52
554.38	22.31
554.577	22.61
554.773	22.66
554.97	22.7
555.166	22.53
555.362	22.55
555.559	22.64
555.755	22.65
555.952	22.51
556.148	22.51
556.344	22.4
556.541	22.43
556.737	22.34
556.933	22.38
557.129	22.39
557.326	22.45
557.522	22.38
557.718	22.5
557.914	22.48
558.11	22.5
558.307	22.52
558.503	22.53
558.699	22.63
558.895	22.85
559.091	22.69
559.287	22.73
559.483	22.64
559.679	22.85
559.876	22.88
560.072	22.98
560.268	23.16
560.464	23.44
560.66	23.41
560.856	23.48
561.052	23.19
561.247	23.45
561.443	23.63
561.639	23.68
561.835	23.59
562.031	23.59
562.227	23.37
562.423	23.44
562.619	23.29
562.815	23.51
563.01	23.67
563.206	23.74
563.402	23.76
563.598	23.63
563.793	23.84
563.989	24.12
564.185	24.11
564.381	24.6
564.576	24.3
564.772	24.31
564.968	24.22
565.163	24.21
565.359	24.09
565.555	24.04
565.75	24.34
565.946	24.39
566.141	24.18
566.337	24.28
566.532	24.28
566.728	24.35
566.923	24.39
567.119	24.41
567.314	24.2
567.51	24.47
567.705	24.44
567.901	24.18
568.096	24.13
568.292	24.21
568.487	24.19
568.682	24.05
568.878	24.02
569.073	24.01
569.268	23.92
569.464	24.29
569.659	24.13
569.854	24.24
570.05	24.35
570.245	24.2
570.44	24.21
570.635	24.15
570.831	24.12
571.026	24.22
571.221	24.25
571.416	24.28
571.611	24.09
571.806	24.26
572.002	24.25
572.197	24.16
572.392	24.31
572.587	24.44
572.782	24.62
572.977	24.74
573.172	24.89
573.367	24.89
573.562	25.2
573.757	25.27
573.952	25.24
574.147	25.3
574.342	25.44
574.537	25.42
574.732	25.28
574.927	25.29
575.121	25.12
575.316	25.27
575.511	25.4
575.706	25.2
575.901	25.2
576.096	25.17
576.29	25.23
576.485	25.06
576.68	25.04
576.875	24.95
577.069	24.93
577.264	25.13
577.459	25.05
577.654	24.9
577.848	24.94
578.043	25.16
578.238	25.36
578.432	25.17
578.627	25.17
578.821	25.21
579.016	25.55
579.21	25.38
579.405	25.13
579.6	24.91
579.794	24.98
579.989	25.01
580.183	24.91
580.378	24.51
580.572	24.59
580.766	24.81
580.961	24.85
581.155	24.39
581.35	24.32
581.544	24.49
581.738	24.26
581.933	24.23
582.127	23.98
582.321	24.18
582.516	24.78
582.71	24.91
582.904	24.72
583.099	24.86
583.293	25.13
583.487	25.37
583.681	25.35
583.875	25.76
584.07	25.85
584.264	25.85
584.458	25.56
584.652	25.14
584.846	25.21
585.04	25.44
585.234	25.44
585.428	25.39
585.623	25.46
585.817	25.7
586.011	25.54
586.205	25.48
586.399	25.92
586.593	26.13
586.787	26.4
586.981	26.18
587.174	25.94
587.368	25.79
587.562	25.64
587.756	25.46
587.95	25.45
588.144	25.44
588.338	25.36
588.532	25.13
588.725	25.05
588.919	24.99
589.113	25.18
589.307	25.42
589.501	25.16
589.694	25.4
589.888	25.48
590.082	25.28
590.275	25.31
590.469	25.48
590.663	25.4
590.856	25.57
591.05	25.72
591.244	25.43
591.437	25.26
591.631	25.76
591.824	25.63
592.018	25.68
592.212	25.77
592.405	25.63
592.599	25.72
592.792	26.01
592.986	26.01
593.179	25.94
593.372	26.19
593.566	26.46
593.759	26.33
593.953	26.33
594.146	26.13
594.339	26.02
594.533	26.39
594.726	26.45
594.92	26.17
595.113	26.03
595.306	25.8
595.499	25.87
595.693	25.83
595.886	25.86
596.079	25.98
596.272	26.03
596.466	26.41
596.659	26.33
596.852	26.06
597.045	26.21
597.238	26.31
597.431	26.45
597.624	26.41
597.818	26.52
598.011	26.66
598.204	26.63
598.397	26.85
598.59	26.7
598.783	26.9
598.976	27.28
599.169	27.66
599.362	27.65
599.555	27.67
599.748	27.68
599.941	27.44
600.134	27.26
600.326	27.29
600.519	27.44
600.712	27.25
600.905	26.72
601.098	26.62
601.291	26.36
601.483	26.44
601.676	26.42
601.869	26.74
602.062	26.73
602.255	26.66
602.447	26.73
602.64	26.85
602.833	26.97
603.025	27.32
603.218	27.17
603.411	27.12
603.603	27.17
603.796	27.25
603.989	27.11
604.181	27.14
604.374	27.22
604.566	27.18
604.759	26.98
604.951	27
605.144	26.92
605.336	27.08
605.529	27.07
605.721	27.09
605.914	26.98
606.106	26.87
606.299	27.17
606.491	27.23
606.683	27.41
606.876	27.44
607.068	27.59
607.26	27.71
607.453	27.71
607.645	27.89
607.837	27.59
608.03	27.64
608.222	27.86
608.414	27.69
608.606	27.65
608.799	27.47
608.991	27.59
609.183	27.4
609.375	27.26
609.567	27.27
609.759	27.25
609.952	27.28
610.144	27.41
610.336	27.3
610.528	27.33
610.72	27.42
610.912	27.43
611.104	27.15
611.296	27.03
611.488	27.01
611.68	26.85
611.872	26.69
612.064	26.97
612.256	26.88
612.448	26.96
612.64	26.66
612.832	26.36
613.023	26.22
613.215	26.23
613.407	26.32
613.599	26.33
613.791	26.31
613.983	26.28
614.174	26.21
614.366	25.83
614.558	26.06
614.75	26.36
614.941	26.88
615.133	26.96
615.325	27.16
615.516	27.66
615.708	27.96
615.9	28.01
616.091	28.1
616.283	28.37
616.475	28.9
616.666	28.67
616.858	28.6
617.049	28.27
617.241	28.45
617.432	28.35
617.624	28.22
617.815	28.22
618.007	28.52
618.198	28.7
618.39	28.35
618.581	28.35
618.773	28.48
618.964	28.51
619.155	28.56
619.347	28.73
619.538	28.96
619.729	28.56
619.921	28.52
620.112	28.54
620.303	28.18
620.494	28.28
620.686	28.14
620.877	27.82
621.068	27.77
621.259	28.03
621.451	28.02
621.642	28.03
621.833	28.05
622.024	27.81
622.215	27.53
622.406	27.44
622.597	27.43
622.788	27.46
622.98	27.75
623.171	28.03
623.362	28.24
623.553	28.09
623.744	28.08
623.935	28.62
624.126	28.67
624.317	28.83
624.508	28.95
624.698	28.87
624.889	28.73
625.08	28.68
625.271	28.64
625.462	28.58
625.653	28.61
625.844	28.62
626.034	28.36
626.225	28.59
626.416	28.35
626.607	28.67
626.798	28.56
626.988	28.67
627.179	28.74
627.37	28.85
627.56	28.73
627.751	28.62
627.942	28.43
628.132	28.54
628.323	28.69
628.514	28.97
628.704	28.91
628.895	28.96
629.085	28.89
629.276	28.71
629.466	28.49
629.657	28.4
629.847	28.52
630.038	28.74
630.228	28.55
630.419	28.28
630.609	28.35
630.8	28.3
630.99	28.38
631.181	28.4
631.371	28.69
631.561	28.6
631.752	28.94
631.942	29.19
632.132	29.32
632.323	29.27
632.513	29.2
632.703	29.03
632.893	28.87
633.084	28.76
633.274	28.5
633.464	28.41
633.654	28.73
633.844	28.32
634.034	28.37
634.225	28.2
634.415	28.37
634.605	28.36
634.795	28.45
634.985	28.59
635.175	28.96
635.365	29.19
635.555	28.99
635.745	28.54
635.935	28.39
636.125	27.99
636.315	27.95
636.505	27.7
636.695	27.92
636.885	28.08
637.075	27.82
637.265	27.63
637.455	27.65
637.644	27.74
637.834	28.01
638.024	28.41
638.214	28.95
638.404	29.11
638.593	29.41
638.783	29.33
638.973	29.23
639.163	29.85
639.352	29.95
639.542	30.19
639.732	30.17
639.921	30.34
640.111	30.02
640.301	29.8
640.49	29.84
640.68	29.77
640.87	29.7
641.059	29.52
641.249	29.23
641.438	29.04
641.628	28.83
641.817	29.17
642.007	29.19
642.196	29.39
642.386	29.21
642.575	29.11
642.764	29.21
642.954	29.58
643.143	29.8
643.333	29.74
643.522	29.86
643.711	30.13
643.901	29.61
644.09	29.22
644.279	29.16
644.469	29.16
644.658	29.29
644.847	29
645.036	28.81
645.226	28.91
645.415	29.04
645.604	29.28
645.793	29.28
645.982	29.66
646.171	29.78
646.361	30.15
646.55	30.19
646.739	30
646.928	30.42
647.117	30.2
647.306	30.08
647.495	29.97
647.684	29.62
647.873	29.5
648.062	28.98
648.251	28.85
648.44	28.48
648.629	28.64
648.818	28.62
649.007	28.44
649.196	28.27
649.384	28.37
649.573	28.26
649.762	28.33
649.951	28.06
650.14	28.54
650.328	28.66
650.517	28.65
650.706	28.35
650.895	28.56
651.083	28.5
651.272	28.87
651.461	28.74
651.65	28.4
651.838	28.3
652.027	28.96
652.216	28.82
652.404	29.07
652.593	29.37
652.781	29.88
652.97	29.74
653.158	29.93
653.347	29.88
653.535	29.88
653.724	30.33
653.912	30.58
654.101	30.42
654.289	30.64
654.478	30.53
654.666	30.21
654.855	30.26
655.043	30.67
655.231	30.18
655.42	30.45
655.608	30.62
655.796	30.05
655.985	30.28
656.173	30.31
656.361	30.2
656.55	30.32
656.738	29.94
656.926	29.84
657.114	29.69
657.302	29.8
657.491	29.4
657.679	28.81
657.867	29.18
658.055	28.88
658.243	28.67
658.431	28.59
658.619	28.42
658.807	29.07
658.996	28.93
659.184	28.65
659.372	28.78
659.56	29.15
659.748	29.74
659.936	30.27
660.124	30.29
660.311	30.45
660.499	30.45
660.687	30.58
660.875	30.36
661.063	30.63
661.251	30.95
661.439	30.94
661.627	30.61
661.814	30.4
662.002	29.87
662.19	29.82
662.378	29.31
662.565	29.73
662.753	29.73
662.941	29.64
663.129	29.31
663.316	29.2
663.504	29.27
663.692	29.61
663.879	29.3
664.067	29.65
664.254	29.71
664.442	30.07
664.63	30.01
664.817	29.87
665.005	30.25
665.192	30.11
665.38	29.68
665.567	30.15
665.755	29.88
665.942	29.93
666.13	29.79
666.317	29.83
666.504	29.92
666.692	29.75
666.879	29.36
667.067	29.14
667.254	29.56
667.441	30.06
667.629	29.24
667.816	29.03
668.003	28.84
668.19	29.35
668.378	29.26
668.565	29.47
668.752	29.69
668.939	30.52
669.127	30.61
669.314	30.16
669.501	30.09
669.688	30.86
669.875	30.92
670.062	31.22
670.249	30.55
670.436	30.43
670.623	30.29
670.81	29.98
670.997	29.58
671.184	29.8
671.371	30.43
671.558	30.27
671.745	30.15
671.932	30.84
672.119	30.95
672.306	31.19
672.493	31.04
672.68	30.83
672.867	30.86
673.054	30.89
673.24	30.97
673.427	30.67
673.614	30.56
673.801	30.69
673.988	30.23
674.174	30.36
674.361	30.18
674.548	30.82
674.734	31.05
674.921	31.43
675.108	31.28
675.294	31.35
675.481	31.4
675.668	31.15
675.854	30.53
676.041	30.29
676.227	30.39
676.414	30.55
676.601	30.59
676.787	30.45
676.974	30.18
677.16	30.54
677.347	29.85
677.533	29.68
677.719	30.42
677.906	30.6
678.092	30.7
678.279	30.47
678.465	30.23
678.651	29.89
678.838	29.81
679.024	29.65
679.21	29.19
679.397	29.13
679.583	29.16
679.769	29.13
679.955	29.05
680.142	29.51
680.328	29.78
680.514	30.01
680.7	30.64
680.886	30.78
681.073	30.67
681.259	30.77
681.445	30.92
681.631	30.94
681.817	31.03
682.003	31.17
682.189	30.77
682.375	30.49
682.561	30.5
682.747	30.32
682.933	30.06
683.119	30.64
683.305	31.31
683.491	31.37
683.677	31.15
683.863	30.7
684.049	30.7
684.235	31.02
684.42	31.31
684.606	31.15
684.792	31.11
684.978	31.47
685.164	31.56
685.349	30.93
685.535	31.15
685.721	31.2
685.907	31.42
686.092	31.42
686.278	31.04
686.464	31.1
686.649	30.92
686.835	31.23
687.021	31.11
687.206	30.68
687.392	31.17
687.577	30.93
687.763	30.88
687.948	30.88
688.134	31.37
688.319	31.65
688.505	31.18
688.69	31.25
688.876	30.23
689.061	30.28
689.247	30.82
689.432	30.91
689.618	31.23
689.803	31.63
689.988	31.46
690.174	31.02
690.359	30.66
690.544	30.61
690.73	31.12
690.915	31.64
691.1	31.62
691.285	31.04
691.471	30.58
691.656	30.38
691.841	30.4
692.026	30.21
692.211	30.28
692.396	30.64
692.582	31.35
692.767	30.72
692.952	30.39
693.137	30.31
693.322	30.29
693.507	30.23
693.692	30.4
693.877	30.11
694.062	30.54
694.247	31.1
694.432	30.97
694.617	30.63
694.802	31.98
694.987	31.66
695.172	32.14
695.357	31.99
695.541	32.09
695.726	32.06
695.911	32.55
696.096	32.72
696.281	32.21
696.466	32.44
696.65	32.4
696.835	31.84
697.02	32.42
697.204	32.25
697.389	32.69
697.574	32.51
697.759	32.61
697.943	31.83
698.128	31.74
698.312	31.61
698.497	31.41
698.682	31.35
698.866	30.76
699.051	30.61
699.235	30.57
699.42	30.24
699.604	30.52
699.789	30.49
699.973	31.2
700.158	31.16
700.342	31.59
700.527	31.69
700.711	32
700.895	32
701.08	32.21
701.264	32.04
701.448	31.63
701.633	31.4
701.817	31.61
702.001	31.1
702.186	31.66
702.37	31.52
702.554	31.57
702.738	31.41
702.923	31.9
703.107	31.4
703.291	32.03
703.475	33.1
703.659	33.87
703.843	33.46
704.027	33.01
704.212	31.6
704.396	30.91
704.58	30.51
704.764	30.78
704.948	30.97
705.132	31.98
705.316	31.42
705.5	31.06
705.684	30.35
705.868	30.84
706.052	32.16
706.235	33.17
706.419	33.49
706.603	33.94
706.787	32.86
706.971	32.87
707.155	32.59
707.339	32.91
707.522	32.85
707.706	32.8
707.89	31.8
708.074	30.82
708.257	30.44
708.441	30.23
708.625	29.26
708.808	30.83
708.992	30.01
709.176	30.18
709.359	29.92
709.543	29.57
709.727	29.75
709.91	30.31
710.094	30.69
710.277	30.89
710.461	31.03
710.644	31.35
710.828	30.86
711.011	31.55
711.195	31.36
711.378	31.07
711.562	31.67
711.745	31.52
711.928	31.51
712.112	31.38
712.295	31.26
712.478	31.42
712.662	32.07
712.845	31.24
713.028	31.59
713.212	31.61
713.395	32.05
713.578	31.92
713.761	32.51
713.945	32.37
714.128	32.24
714.311	32.14
714.494	32.19
714.677	32.37
714.86	32.5
715.043	32.16
715.227	31.73
715.41	31.93
715.593	32.29
715.776	31.26
715.959	30.93
716.142	31.04
716.325	31.56
716.508	31.4
716.691	30.61
716.874	30.7
717.057	31.33
717.239	31.79
717.422	31.98
717.605	31
717.788	31.91
717.971	32.1
718.154	32.27
718.337	31.67
718.519	30.97
718.702	31.08
718.885	31.14
719.068	30.16
719.25	31.25
719.433	30.7
719.616	30.48
719.798	30.79
719.981	31.34
720.164	30.94
720.346	30.94
720.529	31.56
720.712	31.83
720.894	32.49
721.077	33.34
721.259	31.6
721.442	31.58
721.624	32.73
721.807	31.54
721.989	32.33
722.172	33.28
722.354	33.08
722.537	33.76
722.719	33.7
722.901	33.46
723.084	33.84
723.266	34.4
723.448	33.79
723.631	34.69
723.813	34.82
723.995	33.06
724.178	32.83
724.36	34.15
724.542	33.49
724.724	33.35
724.907	33.85
725.089	32.82
725.271	32.4
725.453	33.64
725.635	32.5
725.817	32.18
725.999	32.86
726.181	32.43
726.364	32.31
726.546	31.97
726.728	32.13
726.91	31.73
727.092	32.51
727.274	31.95
727.456	31.67
727.638	31
727.819	32
728.001	32.62
728.183	32.4
728.365	31.56
728.547	32.37
728.729	32.86
728.911	32.8
729.093	32.89
729.274	33.29
729.456	33.37
729.638	33.29
729.82	32.72
730.001	32.51
730.183	33.03
730.365	32.75
730.546	32.26
730.728	31.74
730.91	31.84
731.091	30.79
731.273	31.82
731.455	31.38
731.636	31.75
731.818	31.24
731.999	31.47
732.181	31.01
732.362	31.62
732.544	31.55
732.725	31.95
732.907	30.75
733.088	30.62
733.27	29.25
733.451	29.14
733.633	28.56
733.814	29.39
733.995	28.78
734.177	28.02
734.358	27.93
734.539	28.42
734.721	28.26
734.902	29.05
735.083	29.07
735.264	29.35
735.446	29.97
735.627	30.36
735.808	30.23
735.989	29.91
736.17	30.62
736.351	30.48
736.533	30.35
736.714	30.23
736.895	30.82
737.076	31.04
737.257	31.72
737.438	30.77
737.619	30.89
737.8	30.84
737.981	30.82
738.162	31.13
738.343	31.3
738.524	31.19
738.705	31.24
738.886	30.15
739.067	29.96
739.247	29.66
739.428	29.83
739.609	30.13
739.79	30.54
739.971	31.29
740.151	31.49
740.332	31.45
740.513	32.04
740.694	31.78
740.874	32.73
741.055	34.3
741.236	34.17
741.417	34.05
741.597	34.4
741.778	34.79
741.958	35.54
742.139	35.54
742.32	36.48
742.5	36.12
742.681	37.15
742.861	36.9
743.042	35.78
743.222	35.8
743.403	36.28
743.583	36.81
743.764	35.68
743.944	35.28
744.124	35.47
744.305	34.74
744.485	34.05
744.666	33.81
744.846	33.55
745.026	33.19
745.207	33.05
745.387	33.98
745.567	33.33
745.747	35.01
745.928	33.91
746.108	34.43
746.288	33.66
746.468	34.53
746.648	34.88
746.829	36.44
747.009	35.74
747.189	36.11
747.369	34.64
747.549	35.53
747.729	34.95
747.909	35.83
748.089	35.64
748.269	35.46
748.449	34.95
748.629	33.74
748.809	33.24
748.989	34.79
749.169	34.74
749.349	35.63
749.529	35.33
749.709	34.98
749.889	34.12
750.068	33.69
750.248	34.37
750.428	35.02
750.608	34.94
750.788	33.99
750.967	32.92
751.147	33.25
751.327	32.27
751.507	32.76
751.686	32.64
751.866	33.37
752.046	33.33
752.225	32.85
752.405	32
752.585	32.43
752.764	32.94
752.944	33.48
753.123	32.04
753.303	32.16
753.482	30.1
753.662	30.91
753.841	30.52
754.021	29.1
754.2	28.71
754.38	28.88
754.559	28.62
754.739	28.47
754.918	27.16
755.097	28.22
755.277	28.4
755.456	28.82
755.635	27.6
755.815	27.95
755.994	29.35
756.173	30.6
756.352	30.6
756.532	30.5
756.711	31.26
756.89	32.59
757.069	33.07
757.248	33.16
757.427	33.61
757.607	34.48
757.786	34.08
757.965	35.26
758.144	34.6
758.323	34.28
758.502	33.61
758.681	33.27
758.86	33.84
759.039	33.75
759.218	34.07
759.397	35.07
759.576	35.31
759.755	35.18
759.934	34.33
760.113	34.05
760.291	35.2
760.47	36.05
760.649	35.62
760.828	34.84
761.007	34.67
761.186	34.35
761.364	33.06
761.543	32.39
761.722	33.12
761.901	32.59
762.079	33.12
762.258	32.91
762.437	32.94
762.615	32.27
762.794	32.72
762.972	32.89
763.151	33.04
763.33	33.48
763.508	33.88
763.687	33.34
763.865	33
764.044	33.94
764.222	33.63
764.401	33.49
764.579	34.07
764.758	34.29
764.936	33.66
765.114	33.65
765.293	34.05
765.471	33.33
765.65	33.51
765.828	34.24
766.006	33.42
766.184	32.68
766.363	32.64
766.541	32.6
766.719	31.65
766.898	32.62
767.076	32.28
767.254	32.26
767.432	32.18
767.61	32.19
767.788	31.84
767.967	30.21
768.145	31.95
768.323	33.24
768.501	32.79
768.679	33.59
768.857	32.63
769.035	32.8
769.213	31.62
769.391	32.08
769.569	32.5
769.747	33.29
769.925	35.27
770.103	35.01
770.281	35.18
770.459	35.82
770.636	36.12
770.814	37.67
770.992	38.29
771.17	39.79
771.348	40.08
771.525	39.86
771.703	39.86
771.881	40.52
772.059	40.87
772.236	39.58
772.414	39.06
772.592	39.78
772.769	38.61
772.947	37.55
773.125	35.72
773.302	33.48
773.48	32.42
773.657	31.62
773.835	29.53
774.013	26.86
774.19	27.27
774.368	28.62
774.545	26.03
774.723	27.42
774.9	28.15
775.077	29.41
775.255	31.97
775.432	32.75
775.61	33.77
775.787	36.67
775.964	38.55
776.142	38.41
776.319	37.09
776.496	38.22
776.674	36.68
776.851	36.82
777.028	36.06
777.205	35.92
777.382	36.05
777.56	35.16
777.737	30.77
777.914	32.36
778.091	30.61
778.268	32.17
778.445	31.84
778.622	33.93
778.8	32.34
778.977	32.85
779.154	-2.9
779.331	-4.59
779.508	-5.18
779.685	-2.24
779.862	-3.61
780.038	0.27
780.215	-0.32
780.392	-0.45
780.569	-2.38
780.746	-1.46
780.923	-0.43
781.1	35.96
781.277	36.62
781.453	35.79
781.63	37.12
781.807	37.74
781.984	34.84
782.16	35.17
782.337	34.97
782.514	34.62
782.691	34.95
782.867	32.84
783.044	31.58
783.221	29.77
783.397	31.07
783.574	28.39
783.75	27.44
783.927	28.03
784.103	24.93
784.28	25.63
784.456	25.7
784.633	23.85
784.809	23.12
784.986	25.42
785.162	28.81
785.339	27.97
785.515	30.66
785.692	28.66
785.868	29.44
786.044	33.04
786.221	32.65
786.397	34.4
786.573	37.09
786.749	39.49
786.926	40.08
787.102	39
787.278	40.18
787.454	39
787.631	40.92
787.807	42.2
787.983	42
788.159	43.07
788.335	39.87
788.511	40.77
788.687	38.54
788.863	36.78
789.039	35.8
789.216	34.72
789.392	34.9
789.568	34.59
789.744	31.83
789.919	31.01
790.095	30.75
790.271	30.98
790.447	29.56
790.623	32.08
790.799	31.63
790.975	33.15
791.151	34.76
791.327	35.49
791.502	34.29
791.678	36.34
791.854	37.63
792.03	38.45
792.205	39.64
792.381	40.62
792.557	37.57
792.733	38.02
792.908	37.4
793.084	36.5
793.259	34.84
793.435	35.56
793.611	34.03
793.786	32.67
793.962	33.62
794.137	32.75
794.313	31.19
794.488	33.45
794.664	33.36
794.839	29.41
795.015	27.71
795.19	28.31
795.366	31.55
795.541	32.42
795.716	30.61
795.892	28.89
796.067	29.44
796.242	31.15
796.418	32.38
796.593	29.64
796.768	34.17
796.944	35.96
797.119	37.45
797.294	36.08
797.469	33.74
797.644	36.9
797.82	37.35
797.995	37.37
798.17	37.06
798.345	34.56
798.52	35.3
798.695	34.43
798.87	35.87
799.045	33.47
799.22	32.76
799.395	35.71
799.57	35.5
799.745	35.96
799.92	35.89
800.095	34.85
800.27	36.1
800.445	37.64
800.62	38.43
800.795	35.98
800.97	34.39
801.145	32.84
801.319	30.64
801.494	28.79
801.669	27.88
801.844	30.24
802.018	30.7
802.193	32.4
802.368	32.96
802.543	26.89
802.717	28.86
802.892	34.01
803.067	33.69
803.241	35.83
803.416	35.07
803.59	34.24
803.765	32.57
803.94	33.46
804.114	32.28
804.289	32.7
804.463	37.72
804.638	38.17
804.812	32.12
804.986	35.86
805.161	34.74
805.335	34.6
805.51	34.75
805.684	34.05
805.858	33.4
806.033	35.62
806.207	36.2
806.381	34.28
806.556	31.77
806.73	33.29
806.904	30.67
807.078	29.09
807.253	25.94
807.427	27.55
807.601	25.88
807.775	27.32
807.949	23.18
808.123	19.51
808.298	24.73
808.472	24.62
808.646	25.97
808.82	24.36
808.994	26.23
809.168	29.59
809.342	25.83
809.516	26.4
809.69	26.65
809.864	27.54
810.038	27.89
810.212	24.98
810.385	24.96
810.559	25.6
810.733	29.42
810.907	31.82
811.081	35.59
811.255	40.21
811.428	41.52
811.602	38.48
811.776	36.62
811.95	40.33
812.123	40.92
812.297	41.91
812.471	41.52
812.644	40.77
812.818	36.46
812.992	32.11
813.165	30.48
813.339	30.73
813.512	31.83
813.686	35.46
813.86	34.97
814.033	35.12
814.207	35.68
814.38	33.6
814.554	32.36
814.727	35.68
814.9	34.84
815.074	36.92
815.247	36
815.421	36.17
815.594	34.23
815.767	33.03
815.941	29.06
816.114	26.67
816.287	30.21
816.46	31.41
816.634	25.78
816.807	28.88
816.98	22.22
817.153	22.17
817.327	24.83
817.5	26.72
817.673	26.82
817.846	27.23
818.019	28.34
818.192	25.38
818.365	21.01
818.538	26.29
818.711	25.15
818.884	30.08
819.057	31.39
819.23	29.06
819.403	27.36
819.576	26.68
819.749	25.8
819.922	27.7
820.095	30.41
820.268	35.52
820.441	32.98
820.614	32.64
820.786	31.4
820.959	31.33
821.132	30.94
821.305	31.98
821.477	32.97
821.65	33.93
821.823	34.35
821.996	34.53
822.168	33.94
822.341	34.61
822.514	35.6
822.686	35.1
822.859	34.7
823.031	35.01
823.204	34.71
823.376	34.81
823.549	35.14
823.722	34.89
823.894	34.78
824.067	34.75
824.239	34.66
824.411	34.21
824.584	34.95
824.756	35.13
824.929	35.17
825.101	35.61
825.273	35.34
825.446	34.65
825.618	34.69
825.79	34.16
825.963	34.7
826.135	35.56
826.307	35.8
826.479	35.03
826.652	35.55
826.824	34.95
826.996	33.83
827.168	33.19
827.34	32.84
827.512	32.6
827.684	33.32
827.856	33.34
828.029	32.42
828.201	31.64
828.373	32.35
828.545	32.59
828.717	34.14
828.889	34.97
829.061	35.49
829.232	36.64
829.404	37.43
829.576	37.34
829.748	35.45
829.92	35.65
830.092	35.77
830.264	35.48
830.436	33.4
830.607	32.63
830.779	34.52
830.951	34.09
831.123	33.03
831.294	32.92
831.466	31.55
831.638	33.44
831.809	34.39
831.981	34.89
832.153	34.55
832.324	37.92
832.496	38.5
832.667	35.06
832.839	34.25
833.011	35.76
833.182	32.68
833.354	33.89
833.525	33.7
833.697	32.84
833.868	31.12
834.039	31.66
834.211	29.43
834.382	29.2
834.554	31.1
834.725	30.96
834.896	29.99
835.068	31.54
835.239	29.06
835.41	30.34
835.581	28
835.753	30.24
835.924	30.18
836.095	31.89
836.266	31.34
836.438	30.82
836.609	32.21
836.78	33.63
836.951	33.13
837.122	35.34
837.293	33.4
837.464	34.9
837.635	34.76
837.806	35.36
837.977	32.83
838.148	33.62
838.319	32.84
838.49	34.11
838.661	33.12
838.832	35.39
839.003	37.65
839.174	40.89
839.345	42.5
839.516	41.69
839.687	40.56
839.857	44
840.028	41.53
840.199	42.19
840.37	38.78
840.54	40.15
840.711	37.59
840.882	33.57
841.053	31.04
841.223	29.96
841.394	29.03
841.564	28.84
841.735	30.38
841.906	31.82
842.076	27.6
842.247	29.69
842.417	30.44
842.588	28.29
842.758	31.75
842.929	32.03
843.099	34.12
843.27	34.08
843.44	30.52
843.611	25.09
843.781	23.7
843.951	32.53
844.122	31.89
844.292	29.14
844.462	30.71
844.633	20.34
844.803	16.43
844.973	12.71
845.144	13.31
845.314	16.47
845.484	21.86
845.654	21.19
845.824	14.84
845.995	23.09
846.165	21.93
846.335	20.37
846.505	29.13
846.675	36.64
846.845	38.55
847.015	40.44
847.185	41.43
847.355	38.35
847.525	36.15
847.695	36.2
847.865	29.47
848.035	29.44
848.205	35.31
848.375	30.83
848.545	19
848.715	20.48
848.884	23.62
849.054	29.09
849.224	30.2
849.394	24.71
849.564	26.83
849.733	33.22
849.903	28.83
850.073	31.95
850.243	36.2
850.412	40.16
850.582	37.65
850.752	31.26
850.921	18.53
851.091	15.41
851.26	27.72
851.43	16.88
851.599	11.82
851.769	13.17
851.939	8.92
852.108	6.46
852.278	10.68
852.447	19
852.616	20.96
852.786	33.57
852.955	36.66
853.125	36.36
853.294	40.46
853.463	33.08
853.633	37.81
853.802	36.86
853.971	38.44
854.141	25.84
854.31	20.34
854.479	28.97
854.648	24
854.818	29.1
854.987	28.56
855.156	29.44
855.325	50.42
855.494	50.97
855.663	44.9
855.832	53.67
856.001	50.37
856.171	41.94
856.34	29.76
856.509	29.63
856.678	23.68
856.847	22.86
857.016	17.79
857.185	5.92
857.353	12.17
857.522	23.3
857.691	23.93
857.86	25.47
858.029	39.33
858.198	47.42
858.367	47.68
858.535	49.22
858.704	53.86
858.873	62.22
859.042	69.37
859.21	63.05
859.379	61.43
859.548	61.82
859.717	69.62
859.885	61.55
860.054	57
860.222	62.72
860.391	53.48
860.56	38.77
860.728	40.6
860.897	34.97
861.065	43.59
861.234	53.07
861.402	35.69
861.571	45.36
861.739	32.44
861.908	37.99
862.076	33.67
862.244	37.98
862.413	49.78
862.581	37.61
862.749	32.15
862.918	41.35
863.086	33.1
863.254	42.38
863.423	35.33
863.591	37.58
863.759	38.26
863.927	32.44
864.096	39.5
864.264	29.59
864.432	43.09
864.6	56.18
864.768	60.42
864.936	65.17
865.104	53.31
865.272	41.01
865.44	34.42
865.608	21.69
865.776	32.8
865.944	29.13
866.112	36.34
866.28	15.28
866.448	13.47
866.616	19.81
866.784	13.29
866.952	2.45
867.12	21.01
867.288	36.96
867.455	31.29
867.623	23.08
867.791	-6.95
867.959	-13.14
868.127	45.04
868.294	31.54
868.462	0.19
868.63	5.56
868.797	36.14
868.965	51.92
869.133	37.41
869.3	31.05
869.468	37.61
869.636	45.6
869.803	46.45
869.971	40.06
870.138	43.56
870.306	50.79
870.473	54.15
870.641	49.34
870.808	39.69
870.975	42.39
871.143	51.23
871.31	46.85
871.478	38.64
871.645	37.02
871.812	29.08
871.98	20.23
872.147	4.54
872.314	17.4
872.482	13.77
872.649	10.93
872.816	7.5
872.983	20.22
873.15	7.66
873.318	2.02
873.485	2.79
873.652	7.73
873.819	13.22
873.986	25.66
874.153	9.32
874.32	17.69
874.487	16.19
874.654	9.24
874.821	-7.53
874.988	10.1
875.155	12.51
875.322	17.82
875.489	6.96
875.656	6.67
875.823	4.28
875.99	13.7
876.157	13.22
876.324	13.96
876.49	17.77
876.657	21.22
876.824	15.53
876.991	22.97
877.157	11.79
877.324	21.05
877.491	10.57
877.658	14.29
877.824	9.82
877.991	14.75
878.157	8.08
878.324	11.98
878.491	11.65
878.657	20.4
878.824	21.33
878.99	31.8
879.157	42.07
879.323	47.86
879.49	44.48
879.656	49.48
879.823	37.85
879.989	41.61
880.156	43.27
880.322	37.61
880.488	31.04
880.655	28.83
880.821	31.71
880.987	33.39
881.154	28.84
881.32	26.82
881.486	28.89
881.652	27.66
881.819	29.56
881.985	29.59
882.151	32.53
882.317	37.14
882.483	35.2
882.649	32.85
882.816	29.91
882.982	32.03
883.148	32.8
883.314	31.89
883.48	35.74
883.646	36.36
883.812	36.52
883.978	35.7
884.144	34.87
884.31	34.76
884.476	34.97
884.642	35.38
884.807	32.45
884.973	33.26
885.139	30.5
885.305	28.49
885.471	27.29
885.637	26.04
885.802	25.22
885.968	25.09
886.134	26.49
886.3	28.32
886.465	29.05
886.631	35.55
886.797	36.65
886.962	40.1
887.128	38.94
887.293	39.2
887.459	39.17
887.625	39.76
887.79	39.4
887.956	36.01
888.121	33.21
888.287	32.03
888.452	28.22
888.618	23.37
888.783	20.95
