Data from CB_044_Reflection_00003.txt Node
Date: Wed Nov 11 22:11:17 EST 2015
User: robert
Spectrometer: USB4E03001
Autoset integration time: false
Trigger mode: 4
Integration Time (sec): 1.000000E-1
Scans to average: 15
Electric dark correction enabled: true
Nonlinearity correction enabled: false
Boxcar width: 5
Stray light correction enabled: false
XAxis mode: Wavelengths
Stop averaging: false
Number of Pixels in Spectrum: 3648
>>>>>Begin Spectral Data<<<<<
177.566	292.79
177.785	1754.61
178.005	-378.97
178.225	-762.12
178.445	125.45
178.665	72.4
178.885	245.78
179.105	130.6
179.324	160.93
179.544	136.99
179.764	161.24
179.984	124.3
180.204	100.52
180.423	160.15
180.643	111.13
180.863	84.64
181.083	72.48
181.302	68.79
181.522	46.35
181.742	56.21
181.961	53.2
182.181	54.38
182.401	64.86
182.621	80.67
182.84	66.41
183.06	66.65
183.279	66.11
183.499	69.53
183.719	85.22
183.938	112.19
184.158	97.24
184.377	99.11
184.597	106.75
184.816	128.26
185.036	103.4
185.256	100.22
185.475	115.81
185.695	150.97
185.914	173.17
186.134	187.31
186.353	165
186.572	150.17
186.792	149.89
187.011	104.45
187.231	68.57
187.45	81.54
187.67	85.41
187.889	53.12
188.108	54.29
188.328	49.97
188.547	31.01
188.766	37.2
188.986	30.52
189.205	16.56
189.424	33.5
189.644	31.78
189.863	35.28
190.082	35.13
190.302	24.9
190.521	-0.19
190.74	5.53
190.959	14.28
191.178	-2.89
191.398	9.8
191.617	26.43
191.836	11.25
192.055	10.12
192.274	5.92
192.494	2.45
192.713	18.12
192.932	39.03
193.151	26.12
193.37	30.02
193.589	73.67
193.808	74.26
194.027	60.99
194.246	72.09
194.465	86.49
194.685	83.73
194.904	74.38
195.123	68.07
195.342	60.78
195.561	76.14
195.78	84.81
195.999	106.17
196.218	93.36
196.436	87.01
196.655	91.18
196.874	134.37
197.093	168.9
197.312	135.46
197.531	142.63
197.75	133.44
197.969	137.44
198.188	94.15
198.407	77.77
198.625	79.45
198.844	91.3
199.063	89.76
199.282	77.16
199.501	51.75
199.719	70.81
199.938	80.13
200.157	80.35
200.376	76.95
200.594	137.67
200.813	133.28
201.032	128.49
201.251	147.33
201.469	128.25
201.688	125.27
201.907	113.55
202.125	87.83
202.344	70.18
202.563	89.91
202.781	79.54
203	76.17
203.218	62.1
203.437	62.83
203.656	66.97
203.874	72.1
204.093	58.86
204.311	74.39
204.53	82.82
204.748	80.61
204.967	81.08
205.185	97.6
205.404	105.56
205.622	95.9
205.841	111.05
206.059	84.13
206.278	97.35
206.496	106.85
206.715	82.79
206.933	89.63
207.151	90.59
207.37	80.65
207.588	72.1
207.806	70.21
208.025	81.13
208.243	73.61
208.461	87.7
208.68	79.15
208.898	65.85
209.116	67.81
209.335	53.28
209.553	55.83
209.771	62.12
209.989	72.83
210.208	48.37
210.426	45.11
210.644	47.06
210.862	64.68
211.081	82.94
211.299	113.19
211.517	117.89
211.735	111.9
211.953	118.25
212.171	129.43
212.39	113.75
212.608	125.12
212.826	116.05
213.044	121.55
213.262	101.66
213.48	97.3
213.698	91.82
213.916	94.62
214.134	84.44
214.352	95.8
214.57	54.77
214.788	92.83
215.006	86.89
215.224	78.38
215.442	32.95
215.66	40.64
215.878	60.69
216.096	51.17
216.314	68.15
216.532	112.98
216.75	93.78
216.968	105.57
217.185	71.89
217.403	75.39
217.621	68.49
217.839	73.09
218.057	72.45
218.275	76.8
218.492	88.54
218.71	82.42
218.928	77
219.146	73.73
219.363	77.63
219.581	95.89
219.799	89.97
220.017	108.22
220.234	94.46
220.452	82.27
220.67	73.74
220.887	61.88
221.105	51.82
221.323	18.82
221.54	33.76
221.758	36.17
221.976	34.36
222.193	36.84
222.411	30.31
222.629	41.69
222.846	46.04
223.064	31.83
223.281	30.97
223.499	36.31
223.716	40.72
223.934	42.34
224.151	48.13
224.369	45.35
224.586	42.94
224.804	34.98
225.021	19.33
225.239	25.51
225.456	33.98
225.674	34.79
225.891	30.82
226.108	23.92
226.326	7.73
226.543	0.86
226.76	2.8
226.978	-2.34
227.195	12.46
227.413	17.84
227.63	17.86
227.847	13.03
228.064	14.77
228.282	9.91
228.499	11.22
228.716	13.5
228.934	11.69
229.151	9.27
229.368	13.79
229.585	13.1
229.802	10.41
230.02	7.9
230.237	10.63
230.454	8.97
230.671	10.78
230.888	10.29
231.105	13.01
231.323	14.9
231.54	20.46
231.757	13.75
231.974	9.06
232.191	11.27
232.408	15.1
232.625	14.06
232.842	15.12
233.059	15.58
233.276	21.84
233.493	17.86
233.71	13.76
233.927	11.63
234.144	16.14
234.361	20.52
234.578	23.46
234.795	23.82
235.012	22.56
235.229	22.75
235.446	26.17
235.663	21.46
235.879	23.54
236.096	25.84
236.313	24.15
236.53	27.47
236.747	34.26
236.964	33.65
237.181	35.1
237.397	32.32
237.614	33.34
237.831	26.2
238.048	28.13
238.264	28.21
238.481	26.94
238.698	25.04
238.915	22.82
239.131	14.54
239.348	11.86
239.565	6.7
239.781	9.92
239.998	8.43
240.215	12.29
240.431	12.52
240.648	13.77
240.865	12.27
241.081	15.98
241.298	14.48
241.514	13.19
241.731	15.02
241.947	14.41
242.164	13.16
242.38	14.45
242.597	13.21
242.814	14.14
243.03	13.21
243.246	14.75
243.463	13.65
243.679	14.13
243.896	18.82
244.112	17.75
244.329	21.32
244.545	21.04
244.762	19.69
244.978	20.88
245.194	18.15
245.411	17.19
245.627	16.8
245.843	17.71
246.06	16.4
246.276	12.83
246.492	11.87
246.709	10.34
246.925	11.46
247.141	12.33
247.357	11.45
247.574	10.98
247.79	11.13
248.006	10.75
248.222	9.38
248.439	9.58
248.655	11.35
248.871	11.18
249.087	11.1
249.303	11.35
249.519	10.72
249.736	10.8
249.952	10.63
250.168	12.72
250.384	12.48
250.6	13.92
250.816	15
251.032	10.06
251.248	13.02
251.464	11.7
251.68	10.07
251.896	9.36
252.112	8.95
252.328	9.88
252.544	8.99
252.76	10.04
252.976	8.46
253.192	7.15
253.408	8.24
253.624	7.76
253.84	9.61
254.056	11.62
254.272	14.62
254.487	16.21
254.703	16.05
254.919	15.57
255.135	13.49
255.351	18.5
255.567	21.15
255.782	21.46
255.998	19.5
256.214	18.47
256.43	18.14
256.646	15.09
256.861	13.89
257.077	13.42
257.293	10.63
257.508	10
257.724	9.4
257.94	8.46
258.155	8.82
258.371	7.66
258.587	8.32
258.802	8.62
259.018	8.62
259.234	7.85
259.449	8.18
259.665	9.21
259.88	9.84
260.096	9.04
260.312	9.04
260.527	8.78
260.743	9.32
260.958	9.09
261.174	9.33
261.389	9.89
261.605	10.71
261.82	10.68
262.036	10.54
262.251	11.38
262.466	12.02
262.682	11.66
262.897	12.24
263.113	11.78
263.328	10.98
263.543	10.46
263.759	9.98
263.974	10.34
264.189	9.55
264.405	7.5
264.62	5.92
264.835	4.9
265.051	4.49
265.266	3.2
265.481	4.19
265.696	5.14
265.912	3.14
266.127	4.4
266.342	4.62
266.557	4.62
266.773	5.44
266.988	5.68
267.203	4.56
267.418	5.74
267.633	7.21
267.848	7.81
268.064	7.06
268.279	7.34
268.494	5.54
268.709	6.02
268.924	7.47
269.139	8.22
269.354	8.62
269.569	9.33
269.784	10.37
269.999	8.92
270.214	8.31
270.429	8.5
270.644	8.96
270.859	9.42
271.074	8.68
271.289	9.14
271.504	10.03
271.719	9.3
271.934	9.23
272.149	8.58
272.363	9.89
272.578	10.33
272.793	11
273.008	11.05
273.223	11.24
273.438	11.12
273.653	12.09
273.867	10.78
274.082	11.14
274.297	11.82
274.512	11.53
274.726	9.75
274.941	9.87
275.156	10.83
275.371	10.2
275.585	9.59
275.8	10.23
276.015	9.83
276.229	10.65
276.444	10.76
276.659	10.31
276.873	10.58
277.088	11.32
277.302	10.56
277.517	10.02
277.732	11.85
277.946	12.56
278.161	12.58
278.375	11.45
278.59	10.99
278.804	10.6
279.019	10.2
279.233	9.71
279.448	10.63
279.662	11.32
279.877	9.6
280.091	8.76
280.306	8.92
280.52	8.14
280.735	8.08
280.949	7.84
281.163	7.46
281.378	7.24
281.592	6.94
281.806	6.74
282.021	4.96
282.235	5.14
282.449	4.38
282.664	3.78
282.878	4.6
283.092	5.12
283.307	6.04
283.521	6.32
283.735	7.51
283.949	8.4
284.164	8.79
284.378	10.39
284.592	10.76
284.806	11.25
285.02	11.2
285.234	10.97
285.449	10.6
285.663	10.05
285.877	10.24
286.091	10.57
286.305	9.74
286.519	9.8
286.733	9.76
286.947	10.17
287.161	9.94
287.375	10.49
287.589	10.34
287.803	10.16
288.017	9.9
288.231	9.9
288.445	9.82
288.659	9.41
288.873	9.3
289.087	8.89
289.301	8.96
289.515	9.87
289.729	9.01
289.943	9.68
290.157	9.52
290.371	9.08
290.584	9.21
290.798	9.07
291.012	9.73
291.226	9.83
291.44	9.49
291.654	8.85
291.867	8.42
292.081	8.28
292.295	8.55
292.509	8.46
292.722	8.99
292.936	8.55
293.15	7.51
293.364	9
293.577	9.1
293.791	9.71
294.005	9.28
294.218	8.9
294.432	11.49
294.645	10.43
294.859	10.05
295.073	10.13
295.286	10.06
295.5	10.83
295.713	9.88
295.927	8.96
296.14	8.78
296.354	9.16
296.568	9.02
296.781	7.42
296.994	7.87
297.208	9.11
297.421	9.11
297.635	9.02
297.848	9
298.062	8.9
298.275	9.79
298.489	10.04
298.702	10.59
298.915	11.53
299.129	12.3
299.342	12.23
299.555	12.51
299.769	13.17
299.982	13.76
300.195	13.9
300.409	13.38
300.622	13.3
300.835	13.31
301.048	13.04
301.262	12.76
301.475	12.76
301.688	14.5
301.901	13.65
302.115	13.04
302.328	13.3
302.541	13.79
302.754	14.5
302.967	14.4
303.18	15.22
303.393	15.05
303.607	14.95
303.82	15.15
304.033	13.84
304.246	13.05
304.459	13.88
304.672	13.7
304.885	13.43
305.098	13.23
305.311	13.04
305.524	11.34
305.737	11.53
305.95	10.82
306.163	10.88
306.376	11.64
306.589	11.84
306.802	11.28
307.015	11.98
307.228	11.08
307.44	11.83
307.653	12.79
307.866	13.31
308.079	13.88
308.292	13.52
308.505	12.84
308.718	12.82
308.93	14.24
309.143	14.1
309.356	13.88
309.569	14.59
309.781	14.64
309.994	14.57
310.207	15.13
310.42	14.86
310.632	16.31
310.845	16.68
311.058	15.79
311.27	15.51
311.483	15.29
311.696	14.87
311.908	15.65
312.121	14.9
312.333	14.44
312.546	13.91
312.759	13.92
312.971	12.55
313.184	12.52
313.396	12.77
313.609	12.05
313.821	12.49
314.034	13.05
314.246	11.52
314.459	11.75
314.671	11.49
314.884	13.14
315.096	13.21
315.309	13.33
315.521	12.56
315.733	13.16
315.946	12.91
316.158	12.78
316.371	12.54
316.583	12.7
316.795	13.31
317.008	13.68
317.22	12.82
317.432	13.35
317.644	13.68
317.857	14.56
318.069	13.22
318.281	12.28
318.494	12.55
318.706	13
318.918	14.53
319.13	15.19
319.342	15.15
319.555	14.61
319.767	14.17
319.979	13.77
320.191	13.14
320.403	15.09
320.615	16.53
320.827	16.64
321.039	15.56
321.252	14.44
321.464	13.14
321.676	12.38
321.888	12.89
322.1	12.29
322.312	12.94
322.524	14.41
322.736	14.29
322.948	14.86
323.16	15.07
323.372	15.33
323.584	15.77
323.796	16.29
324.007	16.37
324.219	16.28
324.431	16.39
324.643	17.07
324.855	16.22
325.067	14.75
325.279	14.9
325.491	15.61
325.702	15.83
325.914	15.98
326.126	16.02
326.338	16.37
326.55	16.97
326.761	17.76
326.973	17.78
327.185	17.85
327.396	19.42
327.608	18.88
327.82	19.08
328.032	19.82
328.243	19.91
328.455	20.68
328.666	21.52
328.878	21.13
329.09	20.89
329.301	19.94
329.513	20.23
329.725	19.47
329.936	20.04
330.148	19.63
330.359	19.86
330.571	19.71
330.782	19.5
330.994	19.34
331.205	19.76
331.417	20.03
331.628	21.44
331.84	21.65
332.051	22.82
332.262	23.04
332.474	23.99
332.685	23.89
332.897	24.51
333.108	24.66
333.319	25.42
333.531	26.26
333.742	26.68
333.953	26.39
334.165	26.19
334.376	25.91
334.587	25.74
334.799	25.42
335.01	25.57
335.221	25.37
335.432	25.63
335.644	25.17
335.855	24.57
336.066	24.53
336.277	25.23
336.488	25.44
336.7	25.16
336.911	25
337.122	24.8
337.333	24.92
337.544	25.44
337.755	25.22
337.966	25.58
338.177	25.27
338.388	25.33
338.599	25.44
338.811	25.18
339.022	24.79
339.233	25.28
339.444	25.27
339.655	25.62
339.866	23.91
340.076	24.07
340.287	24.36
340.498	25.02
340.709	24.45
340.92	24.11
341.131	24.21
341.342	25.48
341.553	25.72
341.764	25.49
341.975	24.9
342.185	25.96
342.396	25.69
342.607	25.22
342.818	24.48
343.029	24.79
343.239	24.6
343.45	24.52
343.661	23.32
343.872	22.69
344.082	22.18
344.293	22.83
344.504	22.35
344.714	22.26
344.925	21.96
345.136	22.48
345.346	22.59
345.557	22.5
345.768	22.46
345.978	23.69
346.189	24.19
346.399	24.84
346.61	24.43
346.821	24.71
347.031	24.98
347.242	25.71
347.452	25.17
347.663	25.36
347.873	25.41
348.084	26.24
348.294	26.06
348.504	25.68
348.715	25.72
348.925	25.25
349.136	25.15
349.346	25.34
349.557	24.43
349.767	25.44
349.977	25.16
350.188	25.24
350.398	24.2
350.608	23.71
350.819	24.11
351.029	23.7
351.239	24.42
351.449	24.74
351.66	23.47
351.87	24.86
352.08	24.17
352.29	24.29
352.501	24.63
352.711	25.11
352.921	24.63
353.131	25.14
353.341	25.12
353.552	24.99
353.762	24.46
353.972	26.17
354.182	24.41
354.392	24.63
354.602	23.7
354.812	22.72
355.022	22.36
355.232	22.93
355.442	22.47
355.652	22.48
355.862	22.27
356.072	22.27
356.282	20.98
356.492	21.98
356.702	22
356.912	22.52
357.122	22.95
357.332	23.81
357.542	23.76
357.752	23.62
357.962	23.45
358.171	23.56
358.381	23.53
358.591	23.6
358.801	23.38
359.011	22.77
359.221	23.1
359.43	23.22
359.64	22.12
359.85	21.97
360.06	21.85
360.269	22.36
360.479	22.27
360.689	22.48
360.899	22.78
361.108	22.53
361.318	23.2
361.528	22.79
361.737	22.07
361.947	22.59
362.156	21.95
362.366	22.2
362.576	21.7
362.785	21.74
362.995	21.65
363.204	21.45
363.414	21.62
363.623	21.04
363.833	21.04
364.042	21.5
364.252	21.86
364.461	22.44
364.671	21.91
364.88	21.95
365.09	21.75
365.299	22.08
365.509	22.13
365.718	22.09
365.927	22.29
366.137	22.15
366.346	22.08
366.555	21.5
366.765	21.07
366.974	21.2
367.183	21.46
367.393	21.35
367.602	20.72
367.811	20.4
368.021	19.86
368.23	19.82
368.439	19.66
368.648	20.24
368.857	19.91
369.067	19.51
369.276	19.82
369.485	19.55
369.694	19.6
369.903	19.68
370.112	19.41
370.321	19.46
370.531	18.97
370.74	19.51
370.949	18.82
371.158	18.97
371.367	19.86
371.576	20.03
371.785	20.26
371.994	20.08
372.203	20.02
372.412	20.69
372.621	20.68
372.83	20.43
373.039	20.13
373.248	19.93
373.457	19.61
373.666	19.43
373.874	18.76
374.083	17.8
374.292	17.21
374.501	17.61
374.71	16.83
374.919	17.14
375.128	17.79
375.336	17.65
375.545	18
375.754	18.34
375.963	17.75
376.171	17.83
376.38	17.99
376.589	18.19
376.798	16.9
377.006	16.78
377.215	16.79
377.424	16.57
377.632	16.16
377.841	15.82
378.05	15.62
378.258	15.63
378.467	15.46
378.675	15.86
378.884	15.82
379.093	16.38
379.301	16.94
379.51	16.26
379.718	16.24
379.927	16.81
380.135	16.56
380.344	16.02
380.552	15.91
380.761	15.58
380.969	14.95
381.177	15.13
381.386	14.59
381.594	13.75
381.803	14.01
382.011	13.64
382.219	13.03
382.428	13.04
382.636	12.76
382.845	13.13
383.053	13.29
383.261	12.97
383.469	12.57
383.678	13.06
383.886	12.95
384.094	12.64
384.302	13.45
384.511	13.44
384.719	13.18
384.927	13.81
385.135	13.62
385.343	13.57
385.552	14.33
385.76	14.53
385.968	14.2
386.176	14.47
386.384	14.1
386.592	13.57
386.8	13.67
387.008	13.69
387.216	13.27
387.424	13.48
387.633	13.19
387.841	12.85
388.049	12.38
388.257	12.12
388.465	12.05
388.672	12.14
388.88	11.72
389.088	11.78
389.296	11.77
389.504	11.41
389.712	10.94
389.92	10.87
390.128	10.43
390.336	10.46
390.544	10.65
390.751	10.71
390.959	11.16
391.167	11.21
391.375	11.16
391.583	11.23
391.79	11.2
391.998	11.25
392.206	11.34
392.414	11.57
392.621	11.35
392.829	11.49
393.037	11.4
393.244	11.25
393.452	11.06
393.66	10.7
393.867	10.69
394.075	11.06
394.283	10.94
394.49	10.96
394.698	11.05
394.905	11.41
395.113	11.33
395.32	11.32
395.528	11.44
395.735	11.69
395.943	11.53
396.15	11.44
396.358	11.19
396.565	11.41
396.773	11.19
396.98	11.31
397.188	10.87
397.395	10.86
397.602	10.94
397.81	10.99
398.017	10.74
398.225	10.74
398.432	10.71
398.639	10.82
398.847	10.49
399.054	10.52
399.261	10.19
399.468	10.8
399.676	10.73
399.883	10.65
400.09	9.94
400.297	10
400.505	9.92
400.712	9.86
400.919	10.1
401.126	10.16
401.333	9.93
401.54	9.61
401.748	9.31
401.955	9.39
402.162	9.41
402.369	9.53
402.576	9.73
402.783	10
402.99	9.69
403.197	9.21
403.404	9.13
403.611	9.49
403.818	9.69
404.025	9.56
404.232	9.51
404.439	9.37
404.646	9.28
404.853	8.89
405.06	8.87
405.267	9.11
405.474	9.19
405.681	9.18
405.887	9.42
406.094	9.48
406.301	9.49
406.508	9.58
406.715	9.6
406.922	9.91
407.128	10.09
407.335	9.78
407.542	9.6
407.749	9.69
407.955	9.58
408.162	9
408.369	8.57
408.575	8.53
408.782	8.5
408.989	8.43
409.195	8.33
409.402	8.13
409.609	8.31
409.815	8.11
410.022	8.31
410.228	8.49
410.435	8.51
410.642	8.73
410.848	8.52
411.055	8.58
411.261	8.67
411.468	8.54
411.674	8.75
411.881	8.61
412.087	9.05
412.294	8.92
412.5	9.03
412.706	9.09
412.913	9.15
413.119	9.33
413.326	8.88
413.532	8.9
413.738	9.22
413.945	9.21
414.151	9.26
414.357	8.91
414.564	8.59
414.77	8.12
414.976	8.05
415.182	7.91
415.389	7.68
415.595	7.52
415.801	7.29
416.007	6.94
416.214	6.6
416.42	6.75
416.626	6.64
416.832	6.8
417.038	7.17
417.244	7.25
417.45	7.27
417.657	7.67
417.863	7.83
418.069	8.01
418.275	8.13
418.481	8.21
418.687	8.19
418.893	8.37
419.099	8.53
419.305	8.23
419.511	8.24
419.717	8.36
419.923	8.17
420.129	8.24
420.335	8.11
420.541	8.05
420.746	7.88
420.952	7.76
421.158	7.63
421.364	7.47
421.57	7.44
421.776	7.38
421.982	7.24
422.187	7.22
422.393	7.1
422.599	6.99
422.805	6.92
423.01	7.16
423.216	7.23
423.422	7.23
423.628	7.22
423.833	7.21
424.039	7.2
424.245	7.34
424.45	7.37
424.656	7.34
424.862	7.44
425.067	7.6
425.273	7.57
425.478	7.47
425.684	7.51
425.889	7.53
426.095	7.69
426.301	7.66
426.506	7.68
426.712	7.45
426.917	7.47
427.123	7.44
427.328	7.16
427.533	6.83
427.739	6.83
427.944	6.86
428.15	6.77
428.355	6.58
428.561	6.76
428.766	6.47
428.971	6.81
429.177	6.96
429.382	6.88
429.587	7.17
429.793	7.54
429.998	7.62
430.203	7.52
430.408	7.62
430.614	7.89
430.819	7.64
431.024	7.84
431.229	7.78
431.434	7.52
431.64	7.76
431.845	7.59
432.05	7.44
432.255	7.28
432.46	7.26
432.665	7.1
432.87	6.93
433.076	7.18
433.281	7.14
433.486	6.92
433.691	7
433.896	6.85
434.101	6.76
434.306	6.85
434.511	6.77
434.716	6.83
434.921	6.92
435.126	6.85
435.331	6.57
435.535	6.36
435.74	6.46
435.945	6.29
436.15	6.35
436.355	6.46
436.56	6.66
436.765	6.68
436.97	6.72
437.174	6.64
437.379	6.85
437.584	6.96
437.789	7.08
437.993	7.22
438.198	7.36
438.403	7.33
438.608	7.28
438.812	7.07
439.017	7.21
439.222	7.19
439.426	7.18
439.631	6.99
439.836	7.06
440.04	6.89
440.245	6.74
440.45	6.69
440.654	6.67
440.859	6.77
441.063	6.7
441.268	6.74
441.472	6.75
441.677	6.93
441.881	7.03
442.086	7
442.29	7.19
442.495	7.26
442.699	7.37
442.904	7.39
443.108	7.4
443.312	7.4
443.517	7.44
443.721	7.28
443.925	6.97
444.13	6.96
444.334	6.9
444.538	6.79
444.743	6.69
444.947	6.62
445.151	6.58
445.356	6.64
445.56	6.78
445.764	6.89
445.968	6.92
446.173	7.09
446.377	7.07
446.581	7.07
446.785	7.21
446.989	7.19
447.193	7.29
447.398	7.17
447.602	7.02
447.806	6.89
448.01	6.69
448.214	6.7
448.418	6.6
448.622	6.63
448.826	6.56
449.03	6.44
449.234	6.5
449.438	6.44
449.642	6.61
449.846	6.66
450.05	6.94
450.254	6.99
450.458	7.03
450.662	7.16
450.866	7.04
451.069	7.08
451.273	7
451.477	6.97
451.681	7.01
451.885	6.86
452.089	6.79
452.292	6.69
452.496	6.71
452.7	6.78
452.904	6.69
453.107	6.89
453.311	6.98
453.515	7.07
453.719	7.24
453.922	7.13
454.126	7.26
454.33	7.38
454.533	7.54
454.737	7.57
454.94	7.59
455.144	7.38
455.348	7.38
455.551	7.32
455.755	7.31
455.958	7.3
456.162	7.38
456.365	7.64
456.569	7.57
456.772	7.31
456.976	6.9
457.179	6.84
457.383	7.02
457.586	7.03
457.79	6.98
457.993	6.8
458.196	6.54
458.4	6.47
458.603	6.19
458.807	6.28
459.01	6.24
459.213	6.46
459.417	6.44
459.62	6.47
459.823	6.41
460.026	6.43
460.23	6.47
460.433	6.55
460.636	6.52
460.839	6.71
461.042	6.79
461.246	6.92
461.449	6.85
461.652	6.8
461.855	6.84
462.058	6.81
462.261	6.77
462.464	6.77
462.668	6.98
462.871	7.06
463.074	6.75
463.277	6.61
463.48	6.49
463.683	6.77
463.886	6.75
464.089	6.88
464.292	6.86
464.495	6.66
464.698	6.76
464.901	6.47
465.104	6.62
465.306	6.6
465.509	6.52
465.712	6.4
465.915	6.33
466.118	6.51
466.321	6.43
466.524	6.3
466.726	6.32
466.929	6.31
467.132	6.3
467.335	6.14
467.538	6.36
467.74	6.46
467.943	6.59
468.146	6.41
468.348	6.29
468.551	6.11
468.754	6.37
468.956	6.46
469.159	6.45
469.362	6.51
469.564	6.62
469.767	6.43
469.969	6.41
470.172	6.25
470.375	6.42
470.577	6.63
470.78	6.51
470.982	6.48
471.185	6.58
471.387	6.69
471.59	6.61
471.792	6.44
471.995	6.58
472.197	6.54
472.399	6.32
472.602	6.27
472.804	6.33
473.007	6.49
473.209	6.27
473.411	6.26
473.614	6.1
473.816	6.13
474.018	6.26
474.22	6.19
474.423	6.16
474.625	6.42
474.827	6.53
475.03	6.39
475.232	6.35
475.434	6.47
475.636	6.34
475.838	6.41
476.04	6.3
476.243	6.22
476.445	6.24
476.647	6.32
476.849	6.61
477.051	6.55
477.253	6.44
477.455	6.37
477.657	6.39
477.859	6.55
478.061	6.71
478.263	6.8
478.465	6.8
478.667	6.68
478.869	6.73
479.071	6.57
479.273	6.66
479.475	6.74
479.677	6.89
479.879	6.82
480.081	6.8
480.283	6.71
480.485	6.93
480.686	6.9
480.888	7.02
481.09	6.95
481.292	6.99
481.494	6.85
481.695	6.73
481.897	6.68
482.099	6.68
482.301	6.62
482.502	6.58
482.704	6.52
482.906	6.43
483.107	6.41
483.309	6.3
483.511	6.21
483.712	6.19
483.914	6.21
484.115	6.15
484.317	6.1
484.519	6.06
484.72	6.03
484.922	5.93
485.123	5.98
485.325	5.95
485.526	6
485.728	6.04
485.929	6.03
486.131	6.01
486.332	6.07
486.534	6.17
486.735	6.23
486.936	6.23
487.138	6.3
487.339	6.24
487.541	6.25
487.742	6.26
487.943	6.23
488.144	6.21
488.346	6.19
488.547	6.13
488.748	6.06
488.95	6.03
489.151	6
489.352	5.96
489.553	6.06
489.755	6
489.956	6.03
490.157	6.04
490.358	6.14
490.559	6.19
490.76	6.29
490.961	6.31
491.163	6.33
491.364	6.32
491.565	6.46
491.766	6.42
491.967	6.5
492.168	6.39
492.369	6.45
492.57	6.41
492.771	6.43
492.972	6.44
493.173	6.41
493.374	6.4
493.575	6.49
493.776	6.29
493.976	6.22
494.177	6.23
494.378	6.44
494.579	6.47
494.78	6.52
494.981	6.49
495.182	6.38
495.382	6.61
495.583	6.56
495.784	6.62
495.985	6.8
496.185	6.91
496.386	6.89
496.587	6.87
496.788	6.79
496.988	6.58
497.189	6.6
497.39	6.74
497.59	6.78
497.791	6.93
497.992	6.96
498.192	6.99
498.393	6.92
498.593	7.02
498.794	6.98
498.994	6.92
499.195	7.17
499.395	7.28
499.596	7.22
499.796	7.18
499.997	7.34
500.197	7.43
500.398	7.41
500.598	7.47
500.799	7.39
500.999	7.53
501.199	7.66
501.4	7.64
501.6	7.57
501.801	7.55
502.001	7.41
502.201	7.17
502.402	6.93
502.602	6.99
502.802	7
503.002	7.15
503.203	6.87
503.403	6.86
503.603	6.99
503.803	7.27
504.003	7.23
504.204	7.43
504.404	7.7
504.604	7.81
504.804	7.99
505.004	8.08
505.204	7.98
505.404	8.12
505.604	8.1
505.804	8.16
506.005	8.18
506.205	8.37
506.405	8.34
506.605	8.2
506.805	8.4
507.005	8.37
507.204	8.34
507.404	8.56
507.604	8.68
507.804	8.94
508.004	8.84
508.204	8.76
508.404	8.93
508.604	9.06
508.804	9.22
509.003	9.2
509.203	9.12
509.403	9.23
509.603	9.19
509.803	9.22
510.002	9.24
510.202	9.35
510.402	9.45
510.602	9.49
510.801	9.45
511.001	9.43
511.201	9.35
511.4	9.47
511.6	9.77
511.8	9.84
511.999	10.05
512.199	9.97
512.398	10.08
512.598	10.16
512.797	10.11
512.997	10.36
513.197	10.43
513.396	10.54
513.596	10.64
513.795	10.38
513.994	10.56
514.194	10.49
514.393	10.65
514.593	10.5
514.792	10.58
514.992	10.63
515.191	10.52
515.39	10.61
515.59	10.82
515.789	10.92
515.988	11.16
516.188	11.1
516.387	11.18
516.586	11.54
516.786	11.66
516.985	11.81
517.184	11.87
517.383	12.13
517.582	12.24
517.782	12.35
517.981	12.35
518.18	12.44
518.379	12.56
518.578	12.7
518.777	12.51
518.976	12.75
519.176	12.71
519.375	12.96
519.574	13.03
519.773	13.19
519.972	13.3
520.171	13.51
520.37	13.73
520.569	13.75
520.768	13.76
520.967	14.08
521.166	14.17
521.365	14.41
521.564	14.48
521.762	14.56
521.961	14.75
522.16	14.83
522.359	14.81
522.558	14.85
522.757	15.01
522.956	15.22
523.154	15.24
523.353	15.39
523.552	15.59
523.751	15.8
523.949	15.89
524.148	15.91
524.347	16.09
524.546	16.45
524.744	16.52
524.943	16.67
525.142	16.79
525.34	17.03
525.539	17.07
525.737	17.17
525.936	17.23
526.135	17.48
526.333	17.63
526.532	17.63
526.73	17.59
526.929	17.73
527.127	17.87
527.326	18.01
527.524	18.19
527.723	18.39
527.921	18.48
528.12	18.55
528.318	18.62
528.516	18.65
528.715	18.79
528.913	18.89
529.112	18.98
529.31	19.01
529.508	19.07
529.707	19.08
529.905	19.1
530.103	19.11
530.301	19.17
530.5	19.26
530.698	19.39
530.896	19.51
531.094	19.69
531.293	19.86
531.491	20.16
531.689	20.31
531.887	20.54
532.085	20.74
532.283	20.89
532.481	21
532.68	21.02
532.878	21.17
533.076	21.25
533.274	21.29
533.472	21.32
533.67	21.4
533.868	21.55
534.066	21.62
534.264	21.67
534.462	21.84
534.66	21.99
534.858	22.14
535.056	22.26
535.253	22.45
535.451	22.51
535.649	22.62
535.847	22.68
536.045	22.9
536.243	22.89
536.441	22.99
536.638	23.06
536.836	23.22
537.034	23.26
537.232	23.31
537.43	23.29
537.627	23.56
537.825	23.65
538.023	23.73
538.22	23.68
538.418	23.79
538.616	23.79
538.813	24.01
539.011	24.01
539.209	24.21
539.406	24.34
539.604	24.58
539.801	24.7
539.999	24.91
540.196	25.07
540.394	25.15
540.591	25.25
540.789	25.47
540.986	25.4
541.184	25.35
541.381	25.42
541.579	25.52
541.776	25.56
541.974	25.54
542.171	25.56
542.368	25.56
542.566	25.61
542.763	25.75
542.96	25.74
543.158	25.85
543.355	26.03
543.552	26.16
543.75	26.23
543.947	26.2
544.144	26.33
544.341	26.41
544.539	26.54
544.736	26.54
544.933	26.56
545.13	26.72
545.327	26.78
545.524	26.82
545.722	26.85
545.919	26.83
546.116	27.01
546.313	27.02
546.51	27.02
546.707	27.13
546.904	27.29
547.101	27.28
547.298	27.32
547.495	27.34
547.692	27.48
547.889	27.36
548.086	27.47
548.283	27.52
548.48	27.83
548.677	28.03
548.874	28.13
549.07	28.33
549.267	28.45
549.464	28.72
549.661	29.01
549.858	29.11
550.055	29.38
550.251	29.47
550.448	29.51
550.645	29.44
550.842	29.33
551.038	29.39
551.235	29.35
551.432	29.51
551.628	29.54
551.825	29.51
552.022	29.44
552.218	29.5
552.415	29.56
552.612	29.72
552.808	29.69
553.005	29.93
553.201	29.87
553.398	29.83
553.594	29.8
553.791	29.71
553.987	29.62
554.184	29.61
554.38	29.62
554.577	29.55
554.773	29.67
554.97	29.75
555.166	29.58
555.362	29.79
555.559	30.05
555.755	29.79
555.952	30.02
556.148	30.45
556.344	30.85
556.541	31.15
556.737	31.34
556.933	31.15
557.129	31.18
557.326	31.2
557.522	31.13
557.718	31.15
557.914	31.45
558.11	31.31
558.307	31
558.503	30.79
558.699	30.74
558.895	30.66
559.091	30.77
559.287	30.82
559.483	30.82
559.679	30.92
559.876	31.08
560.072	31.17
560.268	31.35
560.464	31.61
560.66	31.82
560.856	31.96
561.052	32.03
561.247	31.98
561.443	31.9
561.639	31.99
561.835	32.08
562.031	31.9
562.227	31.84
562.423	31.75
562.619	31.62
562.815	31.44
563.01	31.19
563.206	31.4
563.402	31.64
563.598	31.86
563.793	31.96
563.989	31.95
564.185	31.94
564.381	32.15
564.576	32.14
564.772	32.32
564.968	32.49
565.163	32.63
565.359	32.5
565.555	32.52
565.75	32.42
565.946	32.53
566.141	32.46
566.337	32.37
566.532	32.43
566.728	32.42
566.923	32.54
567.119	32.48
567.314	32.57
567.51	32.62
567.705	32.54
567.901	32.72
568.096	32.67
568.292	32.65
568.487	32.76
568.682	32.73
568.878	32.72
569.073	32.54
569.268	32.68
569.464	32.52
569.659	32.45
569.854	32.45
570.05	32.47
570.245	32.61
570.44	32.81
570.635	32.97
570.831	33.02
571.026	33.38
571.221	33.49
571.416	33.46
571.611	33.64
571.806	33.92
572.002	33.77
572.197	33.82
572.392	33.86
572.587	33.85
572.782	33.73
572.977	33.67
573.172	33.54
573.367	33.55
573.562	33.58
573.757	33.5
573.952	33.27
574.147	33.54
574.342	33.59
574.537	33.5
574.732	33.46
574.927	33.8
575.121	33.7
575.316	33.85
575.511	34
575.706	33.71
575.901	33.82
576.096	33.8
576.29	33.73
576.485	33.58
576.68	33.63
576.875	33.85
577.069	33.54
577.264	33.62
577.459	33.59
577.654	33.55
577.848	33.96
578.043	34.02
578.238	34.41
578.432	34.61
578.627	34.6
578.821	34.65
579.016	34.69
579.21	34.77
579.405	34.75
579.6	34.77
579.794	34.59
579.989	34.48
580.183	34.13
580.378	34.05
580.572	33.96
580.766	34.12
580.961	34.36
581.155	34.08
581.35	34.31
581.544	34.49
581.738	34.25
581.933	34.48
582.127	34.71
582.321	35.23
582.516	35.05
582.71	35.01
582.904	34.97
583.099	34.56
583.293	34.89
583.487	34.83
583.681	34.77
583.875	34.94
584.07	34.96
584.264	35
584.458	34.82
584.652	34.63
584.846	34.58
585.04	34.75
585.234	34.91
585.428	34.93
585.623	35.17
585.817	35.32
586.011	35.32
586.205	35
586.399	35.07
586.593	35.48
586.787	35.55
586.981	35.7
587.174	35.63
587.368	35.92
587.562	35.77
587.756	35.71
587.95	35.88
588.144	36.19
588.338	36.26
588.532	36.23
588.725	36
588.919	36.3
589.113	36.45
589.307	36.58
589.501	36.57
589.694	36.58
589.888	36.46
590.082	36.35
590.275	36.1
590.469	36.2
590.663	36.15
590.856	36.16
591.05	36.16
591.244	35.95
591.437	35.83
591.631	35.66
591.824	35.63
592.018	35.78
592.212	35.65
592.405	35.53
592.599	35.68
592.792	35.62
592.986	35.59
593.179	35.71
593.372	35.96
593.566	36.07
593.759	36.35
593.953	36.23
594.146	36.08
594.339	36.06
594.533	36.21
594.726	36.18
594.92	36.1
595.113	36.23
595.306	36.02
595.499	36.06
595.693	35.95
595.886	35.66
596.079	35.79
596.272	35.91
596.466	35.97
596.659	35.94
596.852	36.07
597.045	36.24
597.238	36.16
597.431	36.17
597.624	36.05
597.818	36.13
598.011	36.16
598.204	36.34
598.397	36.27
598.59	36.27
598.783	36.26
598.976	36.08
599.169	35.95
599.362	35.74
599.555	36
599.748	35.84
599.941	35.97
600.134	36.01
600.326	35.76
600.519	36.04
600.712	36.25
600.905	36.39
601.098	36.48
601.291	36.7
601.483	36.79
601.676	36.62
601.869	36.88
602.062	36.73
602.255	36.81
602.447	36.92
602.64	36.87
602.833	36.93
603.025	36.85
603.218	36.82
603.411	36.91
603.603	36.98
603.796	36.99
603.989	36.95
604.181	37.05
604.374	36.99
604.566	36.87
604.759	36.86
604.951	36.83
605.144	36.76
605.336	36.71
605.529	36.52
605.721	36.56
605.914	36.57
606.106	36.43
606.299	36.41
606.491	36.31
606.683	36.44
606.876	36.43
607.068	36.37
607.26	36.6
607.453	36.44
607.645	36.58
607.837	36.62
608.03	36.42
608.222	36.76
608.414	36.62
608.606	36.68
608.799	36.76
608.991	36.44
609.183	36.44
609.375	36.17
609.567	36.38
609.759	36.27
609.952	36.09
610.144	36.06
610.336	35.76
610.528	35.78
610.72	35.94
610.912	35.91
611.104	36.07
611.296	35.95
611.488	36.04
611.68	36.13
611.872	36.13
612.064	36.12
612.256	36.31
612.448	36.64
612.64	36.83
612.832	36.4
613.023	36.22
613.215	36.08
613.407	36.26
613.599	36.43
613.791	36.27
613.983	36.83
614.174	37.07
614.366	36.92
614.558	36.69
614.75	36.63
614.941	37.13
615.133	37.13
615.325	37.25
615.516	37.1
615.708	36.84
615.9	36.99
616.091	36.43
616.283	36.59
616.475	36.74
616.666	36.88
616.858	36.82
617.049	36.8
617.241	37.17
617.432	37.12
617.624	37.22
617.815	37.52
618.007	37.59
618.198	37.64
618.39	37.18
618.581	37.27
618.773	37.3
618.964	37.06
619.155	37.06
619.347	36.91
619.538	37.24
619.729	37.29
619.921	37.27
620.112	37.18
620.303	36.9
620.494	37.08
620.686	37.25
620.877	37.15
621.068	37.53
621.259	37.35
621.451	37.51
621.642	37.43
621.833	37.92
622.024	38.22
622.215	38.25
622.406	38.82
622.597	38.92
622.788	38.97
622.98	39.01
623.171	39.01
623.362	39.27
623.553	39.2
623.744	39.12
623.935	38.64
624.126	38.24
624.317	38.14
624.508	37.91
624.698	37.93
624.889	37.78
625.08	37.5
625.271	37.35
625.462	37.03
625.653	36.83
625.844	37.1
626.034	37.24
626.225	37.59
626.416	37.72
626.607	37.99
626.798	37.94
626.988	37.96
627.179	38.34
627.37	38.42
627.56	38.75
627.751	38.7
627.942	38.47
628.132	38.49
628.323	38.08
628.514	38.25
628.704	37.97
628.895	37.88
629.085	37.79
629.276	37.77
629.466	37.62
629.657	37.56
629.847	37.99
630.038	37.91
630.228	37.91
630.419	38.01
630.609	37.77
630.8	37.75
630.99	37.89
631.181	37.97
631.371	37.68
631.561	38.09
631.752	38.19
631.942	38.15
632.132	38.24
632.323	37.76
632.513	37.95
632.703	38.06
632.893	38.17
633.084	38.37
633.274	38.52
633.464	38.39
633.654	38.28
633.844	37.96
634.034	37.78
634.225	37.99
634.415	38.42
634.605	38.43
634.795	38.48
634.985	38.47
635.175	38.41
635.365	38.21
635.555	38.44
635.745	38.28
635.935	38.33
636.125	38.21
636.315	37.86
636.505	37.72
636.695	37.59
636.885	37.2
637.075	37.01
637.265	36.87
637.455	37.06
637.644	37.24
637.834	37.13
638.024	37.03
638.214	36.99
638.404	37.21
638.593	37.39
638.783	37.13
638.973	37.34
639.163	37.48
639.352	37.4
639.542	37.42
639.732	37.28
639.921	37.58
640.111	37.85
640.301	38.02
640.49	38.21
640.68	38.41
640.87	38.83
641.059	39.09
641.249	39.32
641.438	39.18
641.628	39.23
641.817	39.41
642.007	39.34
642.196	39.47
642.386	39.6
642.575	39.49
642.764	39.22
642.954	39.53
643.143	39.28
643.333	39.69
643.522	40.09
643.711	40.33
643.901	40.28
644.09	40.31
644.279	40.51
644.469	40.47
644.658	40.5
644.847	40.58
645.036	40.12
645.226	39.73
645.415	39.08
645.604	39.2
645.793	38.68
645.982	38.7
646.171	38.84
646.361	38.48
646.55	38.71
646.739	38.68
646.928	38.52
647.117	38.46
647.306	39.05
647.495	39.56
647.684	38.96
647.873	38.95
648.062	38.97
648.251	38.52
648.44	38.7
648.629	38.56
648.818	38.6
649.007	38.55
649.196	38.37
649.384	38.21
649.573	38.21
649.762	38.73
649.951	38.77
650.14	38.84
650.328	39.36
650.517	39.49
650.706	39.28
650.895	39.29
651.083	39.45
651.272	39.65
651.461	39.42
651.65	39.27
651.838	39.18
652.027	39.01
652.216	38.87
652.404	38.63
652.593	38.53
652.781	38.33
652.97	37.92
653.158	37.63
653.347	37.74
653.535	37.8
653.724	37.48
653.912	37.68
654.101	37.83
654.289	38.08
654.478	37.98
654.666	37.51
654.855	37.6
655.043	38.31
655.231	38.48
655.42	38.46
655.608	38.96
655.796	39.05
655.985	38.83
656.173	39.2
656.361	38.91
656.55	39.15
656.738	39.75
656.926	40.14
657.114	40.12
657.302	39.87
657.491	39.96
657.679	39.6
657.867	39.69
658.055	39.73
658.243	39.81
658.431	39.78
658.619	39.68
658.807	39.44
658.996	39.44
659.184	38.95
659.372	39.08
659.56	39.08
659.748	39.01
659.936	38.73
660.124	38.81
660.311	38.21
660.499	37.97
660.687	37.52
660.875	37.31
661.063	37.31
661.251	37.51
661.439	37.96
661.627	37.69
661.814	37.78
662.002	38.39
662.19	38.44
662.378	38.83
662.565	39.32
662.753	39.85
662.941	39.86
663.129	39.41
663.316	39.44
663.504	38.78
663.692	38.74
663.879	39.15
664.067	38.61
664.254	38.45
664.442	38.58
664.63	38.59
664.817	38.44
665.005	38.79
665.192	38.85
665.38	39.17
665.567	39.52
665.755	39.76
665.942	39.63
666.13	39.69
666.317	39.6
666.504	39.39
666.692	39.5
666.879	39.66
667.067	39.49
667.254	39.85
667.441	39.6
667.629	39.54
667.816	39.86
668.003	39.69
668.19	39.89
668.378	40.25
668.565	40.46
668.752	40.38
668.939	40.66
669.127	41
669.314	41.1
669.501	40.68
669.688	41
669.875	40.86
670.062	41.05
670.249	40.94
670.436	40.93
670.623	40.83
670.81	40.88
670.997	41.23
671.184	40.89
671.371	40.59
671.558	40.74
671.745	40.33
671.932	39.92
672.119	39.35
672.306	39.27
672.493	38.74
672.68	38.77
672.867	38.61
673.054	37.52
673.24	37.54
673.427	37.9
673.614	38.09
673.801	38.46
673.988	39.12
674.174	39.49
674.361	39.3
674.548	39.71
674.734	39.33
674.921	39.76
675.108	40.46
675.294	40.56
675.481	40.12
675.668	40.14
675.854	39.75
676.041	39.57
676.227	39.79
676.414	40.22
676.601	40.14
676.787	40.39
676.974	40.29
677.16	40.09
677.347	40.39
677.533	40.7
677.719	40.9
677.906	40.96
678.092	41.11
678.279	41.41
678.465	41.03
678.651	40.84
678.838	41.13
679.024	40.46
679.21	40.39
679.397	39.9
679.583	39.76
679.769	39.58
679.955	39.22
680.142	39
680.328	38.78
680.514	38.97
680.7	39.43
680.886	39.44
681.073	39.75
681.259	39.81
681.445	40.37
681.631	40.17
681.817	40.1
682.003	40.74
682.189	40.95
682.375	40.84
682.561	40.77
682.747	40.22
682.933	39.8
683.119	39.83
683.305	40.11
683.491	39.7
683.677	39.91
683.863	39.85
684.049	39.34
684.235	39.41
684.42	39.68
684.606	40.13
684.792	40.51
684.978	40.74
685.164	40.35
685.349	39.91
685.535	39.59
685.721	39.47
685.907	39.3
686.092	39.69
686.278	39.53
686.464	39.38
686.649	39.23
686.835	39.25
687.021	39.28
687.206	39.95
687.392	39.57
687.577	40.13
687.763	40.36
687.948	40.61
688.134	40.54
688.319	40.17
688.505	39.63
688.69	40.12
688.876	39.08
689.061	38.95
689.247	38.45
689.432	39.04
689.618	39.16
689.803	39.47
689.988	39.96
690.174	39.71
690.359	39.83
690.544	39.98
690.73	39.47
690.915	40.25
691.1	40.29
691.285	40.9
691.471	41.02
691.656	40.71
691.841	40.27
692.026	39.43
692.211	39.8
692.396	39.72
692.582	39.67
692.767	39.59
692.952	39.74
693.137	39.68
693.322	38.82
693.507	38.22
693.692	38.16
693.877	38.94
694.062	39.69
694.247	39.46
694.432	39.86
694.617	39.88
694.802	39.77
694.987	39.05
695.172	39.33
695.357	40.22
695.541	40.48
695.726	41.05
695.911	40.29
696.096	40.43
696.281	40.2
696.466	39.89
696.65	40.32
696.835	40.15
697.02	41.2
697.204	41.1
697.389	40.58
697.574	40.69
697.759	40.02
697.943	39.94
698.128	39.69
698.312	39.88
698.497	40.01
698.682	39.94
698.866	40.03
699.051	39.88
699.235	39.88
699.42	39.72
699.604	39.94
699.789	39.86
699.973	40.07
700.158	39.78
700.342	39.93
700.527	39.83
700.711	39.72
700.895	40.34
701.08	39.65
701.264	40.4
701.448	41.02
701.633	40.79
701.817	41.6
702.001	41.08
702.186	41.97
702.37	42.23
702.554	42.35
702.738	42.99
702.923	42.33
703.107	43.09
703.291	42.2
703.475	41.78
703.659	41.95
703.843	42.16
704.027	42.91
704.212	42.28
704.396	41.8
704.58	42.07
704.764	41.6
704.948	41.21
705.132	41.45
705.316	40.87
705.5	40.55
705.684	39.95
705.868	39.17
706.052	39.35
706.235	39.19
706.419	39.89
706.603	39.73
706.787	39.57
706.971	39.93
707.155	39.79
707.339	40.47
707.522	41.15
707.706	41.32
707.89	41.22
708.074	41.19
708.257	41.79
708.441	41.25
708.625	41.09
708.808	41.32
708.992	41.63
709.176	41.4
709.359	41.63
709.543	41.32
709.727	41.33
709.91	41.79
710.094	42.17
710.277	42.08
710.461	42.7
710.644	42.66
710.828	42.91
711.011	43.16
711.195	43.22
711.378	42.86
711.562	42.57
711.745	42.44
711.928	42.18
712.112	41.42
712.295	41.63
712.478	40.65
712.662	41.05
712.845	40.52
713.028	40.26
713.212	40.13
713.395	39.77
713.578	40.28
713.761	40.5
713.945	40.95
714.128	40.88
714.311	40.24
714.494	40.85
714.677	41.07
714.86	41.59
715.043	41.42
715.227	41.66
715.41	41.34
715.593	40.98
715.776	41.05
715.959	40.69
716.142	40.58
716.325	40.7
716.508	40.06
716.691	39.8
716.874	39.57
717.057	39.56
717.239	40.01
717.422	40.77
717.605	40.67
717.788	39.9
717.971	39.28
718.154	39.93
718.337	39.94
718.519	40.57
718.702	40.47
718.885	41.09
719.068	41.21
719.25	40.91
719.433	40.75
719.616	41.71
719.798	41.71
719.981	42.01
720.164	41.87
720.346	41.83
720.529	41.91
720.712	42.18
720.894	41.22
721.077	40.59
721.259	40.5
721.442	41.06
721.624	39.59
721.807	40.9
721.989	41.91
722.172	41.52
722.354	41.9
722.537	42.52
722.719	42.28
722.901	41.6
723.084	41.47
723.266	41.35
723.448	41.02
723.631	41.62
723.813	41.69
723.995	40.17
724.178	40.55
724.36	40.68
724.542	40.73
724.724	40.09
724.907	40.42
725.089	40.64
725.271	41
725.453	40.49
725.635	40.91
725.817	39.78
725.999	40.7
726.181	40.01
726.364	39.82
726.546	39.48
726.728	40.15
726.91	40.6
727.092	40.85
727.274	39.66
727.456	40.27
727.638	39.51
727.819	40.23
728.001	39.86
728.183	40.52
728.365	40.24
728.547	40.23
728.729	40.95
728.911	40.83
729.093	40.35
729.274	41.13
729.456	40.39
729.638	40.98
729.82	41.37
730.001	41.5
730.183	41.78
730.365	42.33
730.546	41.91
730.728	41.76
730.91	41.62
731.091	42.51
731.273	43.34
731.455	43.5
731.636	43.55
731.818	43.22
731.999	43.35
732.181	42.28
732.362	42.24
732.544	41.22
732.725	40.62
732.907	40.97
733.088	40.62
733.27	39.94
733.451	40.36
733.633	40.17
733.814	40.02
733.995	39.46
734.177	40.52
734.358	39.45
734.539	41.29
734.721	40.92
734.902	40.99
735.083	40.18
735.264	39.99
735.446	40.75
735.627	40.42
735.808	40.69
735.989	41.22
736.17	40.7
736.351	41.19
736.533	40.35
736.714	40.57
736.895	40.57
737.076	41.93
737.257	42.22
737.438	41.52
737.619	42.35
737.8	41.46
737.981	41.01
738.162	40.61
738.343	40.86
738.524	40.66
738.705	41.32
738.886	40.69
739.067	40.91
739.247	41.03
739.428	40.35
739.609	40.9
739.79	42.97
739.971	43.38
740.151	44.53
740.332	44.87
740.513	44.81
740.694	43.34
740.874	44.09
741.055	43.52
741.236	43.19
741.417	43.8
741.597	42.98
741.778	41.44
741.958	41.53
742.139	41.29
742.32	41.03
742.5	41.48
742.681	42.52
742.861	41.47
743.042	41.8
743.222	40.6
743.403	40.74
743.583	40.8
743.764	39.55
743.944	39.36
744.124	39.77
744.305	39.42
744.485	38.81
744.666	38.65
744.846	39.41
745.026	39.2
745.207	42.21
745.387	41.38
745.567	41.54
745.747	42.63
745.928	42.99
746.108	42.66
746.288	43.07
746.468	43.54
746.648	43.66
746.829	42.88
747.009	42.86
747.189	41.04
747.369	41.32
747.549	40.86
747.729	41.29
747.909	40.74
748.089	40.03
748.269	40.82
748.449	41.6
748.629	41.47
748.809	41.16
748.989	41.36
749.169	40.83
749.349	41.64
749.529	41.85
749.709	42.24
749.889	42.63
750.068	43.51
750.248	42.88
750.428	41.91
750.608	42.69
750.788	43.54
750.967	44.16
751.147	44.41
751.327	44.15
751.507	44.03
751.686	44.37
751.866	45.18
752.046	44.16
752.225	44.6
752.405	44.56
752.585	43.95
752.764	44.5
752.944	43.92
753.123	44.8
753.303	44.6
753.482	45.25
753.662	44.54
753.841	43.98
754.021	44.33
754.2	43.09
754.38	42.84
754.559	42.36
754.739	41.83
754.918	40.17
755.097	40.01
755.277	39.31
755.456	39.55
755.635	39.81
755.815	39.08
755.994	38.73
756.173	38.4
756.352	40.46
756.532	39.46
756.711	39.66
756.89	40.17
757.069	40.13
757.248	41.07
757.427	39.99
757.607	40.28
757.786	40.72
757.965	42.33
758.144	43.97
758.323	42.28
758.502	43.11
758.681	43.09
758.86	43.74
759.039	43
759.218	42.73
759.397	43.6
759.576	43.21
759.755	43.73
759.934	42.17
760.113	41.96
760.291	42.24
760.47	43.29
760.649	42.65
760.828	42.8
761.007	43.65
761.186	42.7
761.364	42.58
761.543	41.63
761.722	41.29
761.901	41.15
762.079	40.88
762.258	40.89
762.437	40.19
762.615	40.73
762.794	40.5
762.972	39.95
763.151	40.4
763.33	40.25
763.508	40.19
763.687	39.89
763.865	40.51
764.044	40.63
764.222	40.82
764.401	40.77
764.579	40.92
764.758	40.95
764.936	40.37
765.114	40.75
765.293	40.22
765.471	41
765.65	40.66
765.828	39.75
766.006	39.33
766.184	38.35
766.363	38.47
766.541	37.48
766.719	38.05
766.898	39
767.076	39.55
767.254	41.15
767.432	40.25
767.61	40.43
767.788	41.24
767.967	41.73
768.145	42.15
768.323	40.77
768.501	42.41
768.679	41.38
768.857	40.63
769.035	40.31
769.213	38.84
769.391	39.53
769.569	39.53
769.747	38.59
769.925	38.54
770.103	38.95
770.281	40.95
770.459	38.87
770.636	39.44
770.814	38.47
770.992	38.89
771.17	38.83
771.348	38.36
771.525	39.62
771.703	39.53
771.881	39
772.059	38.17
772.236	38.88
772.414	40.99
772.592	39.58
772.769	41.07
772.947	41.1
773.125	42.38
773.302	41.24
773.48	40.81
773.657	42.92
773.835	42.79
774.013	44.08
774.19	41.97
774.368	39.92
774.545	40.66
774.723	41.19
774.9	40.48
775.077	41.5
775.255	41.8
775.432	40.84
775.61	41.09
775.787	41.46
775.964	40.28
776.142	40.81
776.319	42.27
776.496	42.52
776.674	43.49
776.851	43.19
777.028	40.68
777.205	41.16
777.382	41.74
777.56	39.14
777.737	38.61
777.914	40.08
778.091	40.01
778.268	40.15
778.445	40.5
778.622	39.3
778.8	39.13
778.977	40.53
779.154	40.73
779.331	42.18
779.508	45.84
779.685	46.37
779.862	45.4
780.038	46.57
780.215	44.14
780.392	44.21
780.569	45.05
780.746	45.72
780.923	44.06
781.1	44.78
781.277	44.23
781.453	39.87
781.63	39.64
781.807	39.99
781.984	40.09
782.16	42.9
782.337	43.01
782.514	43.35
782.691	41.51
782.867	42.68
783.044	41.71
783.221	40.86
783.397	42.69
783.574	43.94
783.75	44.82
783.927	44.93
784.103	43.81
784.28	45.62
784.456	44.15
784.633	46.31
784.809	45.51
784.986	46.37
785.162	46.02
785.339	45.03
785.515	43.12
785.692	42.82
785.868	42.42
786.044	45.43
786.221	40.8
786.397	40.93
786.573	42.15
786.749	42.4
786.926	41.48
787.102	44.38
787.278	42.89
787.454	42.57
787.631	42.19
787.807	42.13
787.983	40.9
788.159	43.56
788.335	43.85
788.511	43.5
788.687	43.97
788.863	45.66
789.039	43.13
789.216	44.66
789.392	46.55
789.568	45.77
789.744	46.3
789.919	45.86
790.095	46.83
790.271	48.18
790.447	46.58
790.623	45.7
790.799	45.04
790.975	46.03
791.151	48.56
791.327	48.18
791.502	49.94
791.678	50.15
791.854	49.04
792.03	47.95
792.205	45.23
792.381	46.18
792.557	47.9
792.733	48.85
792.908	48.9
793.084	46.63
793.259	46.14
793.435	43.14
793.611	42.4
793.786	43.36
793.962	41.96
794.137	44.34
794.313	40.94
794.488	39.47
794.664	38.38
794.839	38.65
795.015	38.5
795.19	38.16
795.366	39.75
795.541	39.16
795.716	39.33
795.892	42.02
796.067	42.22
796.242	44.52
796.418	43.47
796.593	44.12
796.768	43.51
796.944	43.47
797.119	42.88
797.294	43.54
797.469	42.53
797.644	43.61
797.82	42.8
797.995	41.04
798.17	42.07
798.345	43.67
798.52	41.77
798.695	42.59
798.87	42.12
799.045	43.07
799.22	44.18
799.395	46.33
799.57	42.53
799.745	43.11
799.92	45.47
800.095	45.6
800.27	45.61
800.445	45.21
800.62	45.4
800.795	46.24
800.97	46.76
801.145	44.45
801.319	44.98
801.494	44.98
801.669	43.78
801.844	42.44
802.018	41.51
802.193	40.9
802.368	43.02
802.543	43.62
802.717	45.1
802.892	45.24
803.067	45.89
803.241	47.54
803.416	50.55
803.59	50.44
803.765	49.28
803.94	46.43
804.114	43.7
804.289	43.02
804.463	43.84
804.638	41.96
804.812	41.09
804.986	41.61
805.161	37.63
805.335	36.35
805.51	38.45
805.684	39.01
805.858	42.41
806.033	46.45
806.207	48.41
806.381	47.73
806.556	47.38
806.73	46.43
806.904	45.85
807.078	49.19
807.253	47.86
807.427	46.37
807.601	47.08
807.775	46.9
807.949	47.22
808.123	47.1
808.298	44.13
808.472	44.58
808.646	45.07
808.82	45.98
808.994	44.16
809.168	46.78
809.342	45.95
809.516	46.86
809.69	47.24
809.864	46.45
810.038	43.51
810.212	44.98
810.385	46.34
810.559	47.68
810.733	47.24
810.907	48.98
811.081	48.28
811.255	48.64
811.428	47.12
811.602	44.75
811.776	42.1
811.95	44.66
812.123	44.85
812.297	42.55
812.471	42.23
812.644	41.15
812.818	39.41
812.992	39.6
813.165	41.15
813.339	41.53
813.512	46.03
813.686	49.3
813.86	50.46
814.033	51.57
814.207	55.48
814.38	58.69
814.554	62.2
814.727	62.55
814.9	64.17
815.074	62.75
815.247	66.35
815.421	63
815.594	61.07
815.767	59.02
815.941	57.52
816.114	54.96
816.287	49.83
816.46	48.79
816.634	47.52
816.807	44.2
816.98	46.71
817.153	42.33
817.327	41.59
817.5	43.28
817.673	43.07
817.846	42.88
818.019	43.75
818.192	46.55
818.365	45.31
818.538	48.22
818.711	52.53
818.884	49.5
819.057	48.23
819.23	50.38
819.403	49.68
819.576	48.13
819.749	47.67
819.922	43.19
820.095	41.73
820.268	41.21
820.441	38.8
820.614	36.99
820.786	38.95
820.959	40.85
821.132	41.49
821.305	40.83
821.477	41.93
821.65	42.11
821.823	43.4
821.996	43.13
822.168	42.95
822.341	41.28
822.514	41.2
822.686	41.3
822.859	41.56
823.031	41.21
823.204	41.6
823.376	41.26
823.549	41.08
823.722	41.08
823.894	40.92
824.067	41.19
824.239	42.38
824.411	42.45
824.584	42.35
824.756	41.86
824.929	41.92
825.101	40.83
825.273	40.77
825.446	40.8
825.618	41.23
825.79	41.13
825.963	41.4
826.135	41.21
826.307	41.12
826.479	40.75
826.652	40.7
826.824	40.44
826.996	41.7
827.168	42.46
827.34	43.11
827.512	42.41
827.684	42.68
827.856	42.05
828.029	43.34
828.201	43.05
828.373	43.79
828.545	43.96
828.717	44.19
828.889	43.71
829.061	42.85
829.232	42.81
829.404	43.63
829.576	44
829.748	44.62
829.92	43.44
830.092	44.37
830.264	43.49
830.436	45.42
830.607	47.98
830.779	48.59
830.951	48.94
831.123	48.25
831.294	47.34
831.466	46.32
831.638	47.51
831.809	48.32
831.981	49.13
832.153	49.69
832.324	49.58
832.496	45.67
832.667	46.29
832.839	47.42
833.011	48.32
833.182	49.4
833.354	49.39
833.525	46.47
833.697	45.19
833.868	44.52
834.039	44.19
834.211	42.21
834.382	42.6
834.554	43.81
834.725	44.08
834.896	43.6
835.068	42.29
835.239	42.94
835.41	43.77
835.581	44.49
835.753	44.38
835.924	44.09
836.095	44.62
836.266	44.62
836.438	42.6
836.609	43.14
836.78	43.45
836.951	45.32
837.122	45.86
837.293	46.45
837.464	46.31
837.635	46.47
837.806	47.55
837.977	47.03
838.148	47.13
838.319	49.62
838.49	48.21
838.661	48.38
838.832	47.52
839.003	46.24
839.174	46.86
839.345	47.11
839.516	47.56
839.687	48.66
839.857	49.46
840.028	55.37
840.199	54.11
840.37	54.48
840.54	57.26
840.711	53.69
840.882	52.43
841.053	47.67
841.223	48.57
841.394	49.93
841.564	44.73
841.735	43.68
841.906	38.41
842.076	41.89
842.247	46.06
842.417	40.64
842.588	41.96
842.758	44.63
842.929	47.5
843.099	44.57
843.27	43.95
843.44	49.85
843.611	52.31
843.781	51.48
843.951	48.76
844.122	44.53
844.292	52.99
844.462	57.93
844.633	55.73
844.803	57.63
844.973	58.38
845.144	59
845.314	52.62
845.484	47.25
845.654	45.32
845.824	47.33
845.995	52.44
846.165	46.2
846.335	41.91
846.505	40.98
846.675	43.71
846.845	51.16
847.015	52.64
847.185	56.63
847.355	65.03
847.525	71.09
847.695	62.78
847.865	57.53
848.035	58.71
848.205	65.03
848.375	75.55
848.545	76.56
848.715	67.05
848.884	60.73
849.054	63.73
849.224	54.26
849.394	50.88
849.564	49.88
849.733	45.15
849.903	44.69
850.073	41.19
850.243	36.45
850.412	26.93
850.582	25.93
850.752	29.31
850.921	26.9
851.091	34.12
851.26	34.12
851.43	37.53
851.599	35.03
851.769	37.04
851.939	38.72
852.108	37.53
852.278	37.76
852.447	38.6
852.616	38.08
852.786	45.87
852.955	41.42
853.125	47.19
853.294	50.35
853.463	54.78
853.633	52.42
853.802	53.85
853.971	60.26
854.141	57.22
854.31	58.38
854.479	56.26
854.648	43.4
854.818	45.44
854.987	45.82
855.156	44.07
855.325	44.26
855.494	50.55
855.663	53.26
855.832	47.88
856.001	54.75
856.171	56.64
856.34	58.5
856.509	60.13
856.678	59.52
856.847	54.78
857.016	55.08
857.185	60.97
857.353	55.42
857.522	44.66
857.691	38.98
857.86	39.12
858.029	43.12
858.198	50.2
858.367	62.95
858.535	65.62
858.704	68.79
858.873	74.96
859.042	73.42
859.21	74.21
859.379	70.35
859.548	80.68
859.717	81.48
859.885	72.5
860.054	65.07
860.222	55.91
860.391	58.32
860.56	58.49
860.728	50.58
860.897	53.91
861.065	57.87
861.234	65.76
861.402	64.08
861.571	58.5
861.739	59.71
861.908	64.57
862.076	65.16
862.244	62.74
862.413	58.44
862.581	56.18
862.749	47.39
862.918	38.64
863.086	42.33
863.254	43.52
863.423	48.43
863.591	44.24
863.759	32.62
863.927	30.84
864.096	36.93
864.264	36.35
864.432	34.84
864.6	40.86
864.768	38.93
864.936	27.43
865.104	27.63
865.272	28.98
865.44	28.73
865.608	33.67
865.776	40.77
865.944	33.58
866.112	39.91
866.28	43.65
866.448	42.59
866.616	44.26
866.784	42.98
866.952	41.59
867.12	39.61
867.288	43.72
867.455	47.55
867.623	45.85
867.791	48.45
867.959	53.55
868.127	47.94
868.294	48.85
868.462	59.44
868.63	81.45
868.797	84.54
868.965	80.01
869.133	82.09
869.3	79.63
869.468	87.98
869.636	81.62
869.803	73.51
869.971	83.56
870.138	84.04
870.306	72
870.473	70.65
870.641	67.64
870.808	68.38
870.975	61.42
871.143	60.91
871.31	55.2
871.478	54.14
871.645	50.07
871.812	38.34
871.98	46.02
872.147	50.09
872.314	39.26
872.482	36.52
872.649	36.77
872.816	52.22
872.983	58.12
873.15	60.31
873.318	53.19
873.485	62.21
873.652	66.66
873.819	57.09
873.986	57.05
874.153	53.24
874.32	53.86
874.487	51.96
874.654	45.74
874.821	51.35
874.988	47.39
875.155	56.25
875.322	50.29
875.489	55
875.656	54.5
875.823	61.04
875.99	63.46
876.157	78.55
876.324	77.24
876.49	82.39
876.657	77.12
876.824	75.19
876.991	71.95
877.157	78.12
877.324	72.21
877.491	75.25
877.658	68.46
877.824	61.17
877.991	49.87
878.157	52.71
878.324	51.93
878.491	47.33
878.657	49.47
878.824	56.7
878.99	54.67
879.157	52.61
879.323	51.99
879.49	48.74
879.656	52.25
879.823	46.12
879.989	41.47
880.156	42.15
880.322	42.55
880.488	44.09
880.655	40.09
880.821	42.59
880.987	44.7
881.154	42.3
881.32	41.71
881.486	44.63
881.652	46.23
881.819	46.78
881.985	46.45
882.151	45.77
882.317	43.93
882.483	43.55
882.649	42.14
882.816	42.08
882.982	43.12
883.148	43.35
883.314	43.79
883.48	43.06
883.646	42.48
883.812	41.99
883.978	41.78
884.144	41.29
884.31	41.64
884.476	42.33
884.642	42.48
884.807	43.48
884.973	42.68
885.139	41.66
885.305	44.13
885.471	42.74
885.637	44.36
885.802	47.02
885.968	49.05
886.134	49.17
886.3	48.52
886.465	48.8
886.631	44.8
886.797	49
886.962	52.5
887.128	50.45
887.293	55.48
887.459	56.23
887.625	55.31
887.79	55.3
887.956	56.75
888.121	59.16
888.287	61.66
888.452	68.59
888.618	65.3
888.783	58.95
