Data from CB_035_Reflection_21-32-02-976.txt Node
Date: Wed Nov 11 21:32:02 EST 2015
User: robert
Spectrometer: USB4E03001
Autoset integration time: false
Trigger mode: 4
Integration Time (sec): 1.000000E-1
Scans to average: 15
Electric dark correction enabled: true
Nonlinearity correction enabled: false
Boxcar width: 5
Stray light correction enabled: false
XAxis mode: Wavelengths
Stop averaging: false
Number of Pixels in Spectrum: 3648
>>>>>Begin Spectral Data<<<<<
177.566	-159.67
177.785	-619.08
178.005	19.32
178.225	177.13
178.445	-6.86
178.665	48.52
178.885	830.79
179.105	-194.15
179.324	-137.42
179.544	-17.11
179.764	-3.12
179.984	3.06
180.204	16.48
180.423	73.84
180.643	41.61
180.863	33.43
181.083	45.34
181.302	44.21
181.522	33.72
181.742	27.09
181.961	29.39
182.181	34.38
182.401	32.8
182.621	36.2
182.84	14.76
183.06	27.61
183.279	23.68
183.499	38.09
183.719	37.78
183.938	47.04
184.158	47.33
184.377	43.83
184.597	46.94
184.816	71.82
185.036	56.45
185.256	63.02
185.475	65.52
185.695	62.37
185.914	36.85
186.134	22.06
186.353	6.24
186.572	9.7
186.792	-24.87
187.011	1.34
187.231	-3.32
187.45	4.84
187.67	-2.17
187.889	-13.38
188.108	19.93
188.328	5.95
188.547	15.16
188.766	6.24
188.986	1.43
189.205	8.1
189.424	-30.44
189.644	-75.58
189.863	-60.72
190.082	-31.98
190.302	-34.87
190.521	-49.04
190.74	-54.97
190.959	-37.98
191.178	-21.46
191.398	-15.23
191.617	-3.34
191.836	0.91
192.055	14.58
192.274	6.15
192.494	-20.63
192.713	-12.96
192.932	7.78
193.151	24.56
193.37	14.66
193.589	17.9
193.808	8.91
194.027	-10.24
194.246	24.02
194.465	36.23
194.685	34.2
194.904	42.55
195.123	22.61
195.342	-12.48
195.561	-20.16
195.78	-18.51
195.999	-19.64
196.218	-29.21
196.436	-19.59
196.655	-84.44
196.874	-130.99
197.093	-96.8
197.312	-43.87
197.531	-41.9
197.75	-8.4
197.969	-7.51
198.188	-4.93
198.407	-23.85
198.625	-6.59
198.844	-13.76
199.063	8.07
199.282	6.75
199.501	0.43
199.719	-49.94
199.938	-3.08
200.157	-120.71
200.376	-51.11
200.594	-34.87
200.813	6.88
201.032	5.35
201.251	-1.58
201.469	-7.25
201.688	21.64
201.907	18.52
202.125	28.59
202.344	4.23
202.563	48.72
202.781	54.41
203	38.63
203.218	42.76
203.437	40.12
203.656	39.96
203.874	37.41
204.093	15.27
204.311	25.98
204.53	-0.88
204.748	8.46
204.967	6.41
205.185	-10.26
205.404	-0.52
205.622	6.23
205.841	5.43
206.059	-7.34
206.278	25.53
206.496	38.51
206.715	23.74
206.933	46.95
207.151	45.4
207.37	31
207.588	30.73
207.806	17.59
208.025	13
208.243	2.34
208.461	13.26
208.68	-2.79
208.898	-3.8
209.116	-8.4
209.335	-21.13
209.553	-28.89
209.771	-17.1
209.989	-1.77
210.208	-3.04
210.426	-6.41
210.644	12.36
210.862	5.93
211.081	26.86
211.299	36.38
211.517	66.42
211.735	73.05
211.953	74.05
212.171	64.3
212.39	66.7
212.608	73.59
212.826	60.59
213.044	74.45
213.262	72.96
213.48	82.2
213.698	70.55
213.916	57.57
214.134	49.22
214.352	64.89
214.57	54.75
214.788	56.13
215.006	45.5
215.224	41.5
215.442	-20.04
215.66	-17.5
215.878	-1.59
216.096	7.71
216.314	0.06
216.532	-11.89
216.75	-15.88
216.968	18.43
217.185	21.49
217.403	38.62
217.621	41.5
217.839	40.01
218.057	40.25
218.275	38.61
218.492	46.92
218.71	50.27
218.928	53.93
219.146	56.72
219.363	42.68
219.581	44.71
219.799	17.44
220.017	20.72
220.234	25.96
220.452	19.9
220.67	35.08
220.887	22.3
221.105	14.29
221.323	4.32
221.54	18.72
221.758	37.74
221.976	30.15
222.193	34.39
222.411	30.43
222.629	33.41
222.846	31.22
223.064	13.39
223.281	18.28
223.499	26.35
223.716	31.65
223.934	35.51
224.151	25.08
224.369	24.84
224.586	20.05
224.804	30.04
225.021	34.21
225.239	34.04
225.456	47.29
225.674	41.23
225.891	34.99
226.108	33.67
226.326	24.78
226.543	23.57
226.76	32.78
226.978	17.17
227.195	3.94
227.413	0.34
227.63	7.14
227.847	5.23
228.064	7.05
228.282	3.21
228.499	5.09
228.716	4.61
228.934	7.5
229.151	1.79
229.368	6.95
229.585	8.88
229.802	8.4
230.02	5.2
230.237	5.77
230.454	7.49
230.671	7.97
230.888	4.91
231.105	6.09
231.323	5.52
231.54	13.15
231.757	11.44
231.974	10.49
232.191	10.98
232.408	15.67
232.625	13.57
232.842	10.31
233.059	12.45
233.276	17.04
233.493	16.18
233.71	15.72
233.927	11.82
234.144	8.06
234.361	10.3
234.578	13.91
234.795	10.29
235.012	15.2
235.229	12.55
235.446	17.8
235.663	16.08
235.879	16.33
236.096	12.14
236.313	5.49
236.53	9.33
236.747	10.33
236.964	12.73
237.181	14.88
237.397	10.64
237.614	12.86
237.831	7.85
238.048	7.87
238.264	6.16
238.481	6.98
238.698	14.42
238.915	13.92
239.131	8.57
239.348	2.82
239.565	1.19
239.781	3.51
239.998	6.28
240.215	7.64
240.431	5.7
240.648	8.03
240.865	6.83
241.081	7.55
241.298	8.22
241.514	8.63
241.731	12.26
241.947	13.15
242.164	12.48
242.38	10.8
242.597	10.53
242.814	12.39
243.03	11.29
243.246	12.63
243.463	12.82
243.679	12.09
243.896	12.88
244.112	10.92
244.329	12.35
244.545	10.54
244.762	10.11
244.978	11.14
245.194	9.27
245.411	8.78
245.627	9.67
245.843	10.5
246.06	10.62
246.276	9.61
246.492	9.21
246.709	8.63
246.925	9.96
247.141	10.35
247.357	9.74
247.574	9.76
247.79	10.53
248.006	10.36
248.222	9.94
248.439	10.29
248.655	11.43
248.871	11.42
249.087	11.58
249.303	11.63
249.519	12.03
249.736	12.55
249.952	11.66
250.168	11.62
250.384	12.27
250.6	12.23
250.816	12.58
251.032	10.71
251.248	12.81
251.464	11.6
251.68	13.86
251.896	13.07
252.112	11.53
252.328	13.1
252.544	12.57
252.76	11.6
252.976	10.58
253.192	8.66
253.408	8.95
253.624	9.16
253.84	9.41
254.056	7.25
254.272	10.95
254.487	12.15
254.703	10.05
254.919	8.97
255.135	9.57
255.351	11.17
255.567	13.45
255.782	14.6
255.998	13.94
256.214	12.46
256.43	14.07
256.646	10.93
256.861	8.83
257.077	11.8
257.293	11.35
257.508	11.1
257.724	11.02
257.94	11.92
258.155	11.71
258.371	11.15
258.587	12.67
258.802	11.85
259.018	11.94
259.234	11.3
259.449	10.87
259.665	10.59
259.88	10.72
260.096	10.3
260.312	9.56
260.527	9.73
260.743	9.43
260.958	9.11
261.174	8.69
261.389	8.9
261.605	9.37
261.82	8.97
262.036	10.93
262.251	11.81
262.466	12.69
262.682	13.56
262.897	13.48
263.113	14.06
263.328	12.75
263.543	12.17
263.759	10.15
263.974	11.16
264.189	11.66
264.405	8.91
264.62	6.44
264.835	5.52
265.051	6.98
265.266	6.58
265.481	6.69
265.696	7.29
265.912	8.86
266.127	11.47
266.342	10.83
266.557	10.63
266.773	10.69
266.988	11.73
267.203	10.94
267.418	9.92
267.633	11.02
267.848	10.55
268.064	9.86
268.279	9.82
268.494	9.02
268.709	9.64
268.924	11.75
269.139	11.24
269.354	11.46
269.569	12.24
269.784	12.04
269.999	10.99
270.214	11.29
270.429	12.05
270.644	11.45
270.859	11.53
271.074	11.29
271.289	10.59
271.504	11.59
271.719	10.51
271.934	9.95
272.149	10.2
272.363	11.12
272.578	11.34
272.793	11.37
273.008	10.5
273.223	10.18
273.438	9.93
273.653	10.15
273.867	10.1
274.082	10.59
274.297	10.95
274.512	10.59
274.726	8.17
274.941	8.38
275.156	9.12
275.371	9.82
275.585	9.46
275.8	9.4
276.015	8.16
276.229	7.9
276.444	7.42
276.659	8.52
276.873	9.79
277.088	11.49
277.302	11.04
277.517	10.87
277.732	11.8
277.946	12.27
278.161	12.42
278.375	12.06
278.59	12.07
278.804	12.73
279.019	12.16
279.233	10.2
279.448	10.44
279.662	10.09
279.877	8.32
280.091	8.24
280.306	8.35
280.52	8.22
280.735	9.34
280.949	8.32
281.163	7.8
281.378	6.65
281.592	6.44
281.806	6.83
282.021	6.91
282.235	7.43
282.449	7.64
282.664	6.59
282.878	6.8
283.092	6.66
283.307	8.47
283.521	8.87
283.735	10.2
283.949	11.04
284.164	11.2
284.378	12.14
284.592	12.4
284.806	11.42
285.02	11.66
285.234	12.02
285.449	11.17
285.663	9.44
285.877	9.28
286.091	9.14
286.305	8.79
286.519	7.85
286.733	7.06
286.947	6.72
287.161	7.01
287.375	8.32
287.589	8.3
287.803	8.31
288.017	8.84
288.231	9.73
288.445	9.74
288.659	10.31
288.873	11.53
289.087	11.83
289.301	12.84
289.515	13.8
289.729	12.58
289.943	11.47
290.157	11.39
290.371	11.44
290.584	11.33
290.798	11.87
291.012	12.46
291.226	12.47
291.44	12.97
291.654	13.22
291.867	12.46
292.081	12.26
292.295	13.37
292.509	13.68
292.722	13.96
292.936	12.76
293.15	12.56
293.364	12.04
293.577	11.42
293.791	11.72
294.005	10.1
294.218	10.53
294.432	12.69
294.645	12.2
294.859	11.98
295.073	11.65
295.286	12.26
295.5	11.58
295.713	11.56
295.927	11.08
296.14	10.81
296.354	11.92
296.568	11.33
296.781	9.97
296.994	10.2
297.208	11.53
297.421	12.36
297.635	11.68
297.848	11.42
298.062	11.18
298.275	11.26
298.489	10.76
298.702	10.53
298.915	11.19
299.129	11.73
299.342	12.11
299.555	11.37
299.769	11.21
299.982	12.09
300.195	12.61
300.409	12.94
300.622	14.33
300.835	13.67
301.048	13.32
301.262	12.71
301.475	12.17
301.688	11.42
301.901	11.23
302.115	11.08
302.328	11.43
302.541	11.92
302.754	11.04
302.967	9.84
303.18	11.96
303.393	11.7
303.607	11.9
303.82	12.71
304.033	12.6
304.246	12.15
304.459	12.59
304.672	12.03
304.885	12.85
305.098	13.94
305.311	14.3
305.524	12.9
305.737	13.2
305.95	13.22
306.163	12.52
306.376	13.28
306.589	14.8
306.802	14.04
307.015	14.77
307.228	13.15
307.44	13.12
307.653	13.36
307.866	13.35
308.079	13.87
308.292	13.14
308.505	13.36
308.718	12.84
308.93	13.02
309.143	12.55
309.356	12.25
309.569	12.62
309.781	12.54
309.994	12.38
310.207	12.99
310.42	12.43
310.632	13.19
310.845	13.06
311.058	13.6
311.27	12.15
311.483	12.59
311.696	12.72
311.908	13.08
312.121	12.86
312.333	12.7
312.546	12.3
312.759	12.83
312.971	12.59
313.184	12.47
313.396	11.94
313.609	12.12
313.821	12.44
314.034	12.16
314.246	11.86
314.459	12.11
314.671	11.9
314.884	12.33
315.096	12.41
315.309	11.43
315.521	11.42
315.733	11.97
315.946	11.71
316.158	11.21
316.371	11.41
316.583	10.48
316.795	10.91
317.008	12.53
317.22	12.31
317.432	12.53
317.644	13.6
317.857	14.13
318.069	12.92
318.281	12.31
318.494	12.93
318.706	12.57
318.918	14.47
319.13	14.43
319.342	13.51
319.555	13.15
319.767	12.7
319.979	12.31
320.191	12.4
320.403	14.46
320.615	16.21
320.827	15.99
321.039	15.88
321.252	14.84
321.464	15.19
321.676	14.88
321.888	16.04
322.1	15.55
322.312	16.12
322.524	15.87
322.736	16.11
322.948	15.99
323.16	15.41
323.372	15.94
323.584	15.57
323.796	14.95
324.007	14.99
324.219	15.25
324.431	15.95
324.643	16.52
324.855	16.15
325.067	15.33
325.279	15.75
325.491	17.43
325.702	17.43
325.914	18.25
326.126	18.33
326.338	17.86
326.55	17.58
326.761	18.28
326.973	18.11
327.185	18.8
327.396	18.26
327.608	17.92
327.82	17.19
328.032	18.37
328.243	18.8
328.455	19.94
328.666	20.5
328.878	19.27
329.09	18.24
329.301	17.07
329.513	16.98
329.725	16.62
329.936	16.68
330.148	16.6
330.359	15.86
330.571	15.02
330.782	13.97
330.994	14.36
331.205	16.42
331.417	16.48
331.628	18.04
331.84	17.97
332.051	19.01
332.262	18.96
332.474	19.32
332.685	18.82
332.897	19.13
333.108	20.03
333.319	20.04
333.531	19.84
333.742	19.89
333.953	19.45
334.165	19.06
334.376	18.98
334.587	19.37
334.799	19.64
335.01	19.97
335.221	20.46
335.432	20.69
335.644	21.31
335.855	20.93
336.066	21.5
336.277	22.24
336.488	22.29
336.7	21.25
336.911	21.54
337.122	20.62
337.333	20.12
337.544	20.19
337.755	19.45
337.966	19.06
338.177	19.2
338.388	18.95
338.599	18.64
338.811	18.76
339.022	19.55
339.233	18.67
339.444	18.52
339.655	18.98
339.866	18.87
340.076	18.62
340.287	19.38
340.498	19.01
340.709	19.33
340.92	19.12
341.131	18.72
341.342	19.18
341.553	19.11
341.764	19.86
341.975	19.82
342.185	19.04
342.396	19.27
342.607	18.65
342.818	18.29
343.029	17.35
343.239	17.62
343.45	18.76
343.661	18.16
343.872	18.23
344.082	17.05
344.293	16.89
344.504	17.13
344.714	17.04
344.925	16.44
345.136	17.4
345.346	18.34
345.557	18.18
345.768	17.41
345.978	18.16
346.189	18.52
346.399	19.33
346.61	19.41
346.821	19.81
347.031	20.08
347.242	20.84
347.452	20.26
347.663	20.14
347.873	19.95
348.084	19.92
348.294	19.78
348.504	19.48
348.715	19.57
348.925	19.83
349.136	19.31
349.346	18.85
349.557	18.76
349.767	19.16
349.977	18.81
350.188	19.17
350.398	19.52
350.608	19.42
350.819	19.76
351.029	20.07
351.239	19.26
351.449	19.76
351.66	18.92
351.87	19.45
352.08	19.2
352.29	19.55
352.501	19.54
352.711	19.38
352.921	18.92
353.131	18.75
353.341	18.41
353.552	18.96
353.762	18.21
353.972	19.73
354.182	18.71
354.392	18.6
354.602	18.22
354.812	17.4
355.022	17.29
355.232	17.5
355.442	17.55
355.652	17.57
355.862	17.51
356.072	17.69
356.282	17.14
356.492	18.25
356.702	18.43
356.912	18.22
357.122	18.66
357.332	19.12
357.542	19.59
357.752	19.49
357.962	19.05
358.171	19.03
358.381	19.33
358.591	19.26
358.801	18.42
359.011	17.69
359.221	18.36
359.43	18.84
359.64	18.41
359.85	18.06
360.06	17.85
360.269	18.46
360.479	18.56
360.689	17.98
360.899	18.03
361.108	18.06
361.318	18.37
361.528	18.16
361.737	16.92
361.947	17.24
362.156	16.76
362.366	16.99
362.576	16.35
362.785	16.05
362.995	16.16
363.204	15.8
363.414	15.72
363.623	15.76
363.833	15.16
364.042	15.75
364.252	15.63
364.461	15.61
364.671	15.79
364.88	16.3
365.09	16.01
365.299	16.26
365.509	16.84
365.718	16.71
365.927	16.42
366.137	17.06
366.346	17.1
366.555	16.99
366.765	17.41
366.974	16.94
367.183	16.78
367.393	17.58
367.602	17.59
367.811	16.98
368.021	17.01
368.23	16.97
368.439	16.74
368.648	16.62
368.857	16.25
369.067	15.73
369.276	15.79
369.485	15.96
369.694	15.99
369.903	15.87
370.112	15.97
370.321	16.2
370.531	16.34
370.74	16.57
370.949	16.67
371.158	16.14
371.367	16.61
371.576	16.26
371.785	16.2
371.994	15.72
372.203	15.77
372.412	16.28
372.621	15.79
372.83	15.43
373.039	15.13
373.248	14.66
373.457	15.03
373.666	15.17
373.874	15.12
374.083	14.43
374.292	14.21
374.501	14.23
374.71	13.53
374.919	13.63
375.128	13.75
375.336	13.78
375.545	13.69
375.754	14.18
375.963	13.24
376.171	13.19
376.38	13.11
376.589	13.28
376.798	12.79
377.006	12.72
377.215	12.99
377.424	13.18
377.632	12.73
377.841	12.58
378.05	12.12
378.258	12.56
378.467	12.57
378.675	13.09
378.884	12.78
379.093	12.88
379.301	12.88
379.51	12.42
379.718	12.34
379.927	12.11
380.135	12.58
380.344	12.29
380.552	12.42
380.761	12.14
380.969	11.53
381.177	11.58
381.386	11.79
381.594	11.92
381.803	11.84
382.011	11.54
382.219	11.75
382.428	11.81
382.636	11.97
382.845	12.28
383.053	12.19
383.261	12.6
383.469	12.47
383.678	11.86
383.886	11.45
384.094	11.62
384.302	12.04
384.511	12.29
384.719	11.7
384.927	11.59
385.135	11.13
385.343	11.39
385.552	11.17
385.76	11.09
385.968	11.31
386.176	11.45
386.384	11.55
386.592	11.35
386.8	11.14
387.008	11.68
387.216	11.6
387.424	11.68
387.633	11.56
387.841	11.4
388.049	11.3
388.257	11.46
388.465	11.38
388.672	11.42
388.88	11.05
389.088	10.91
389.296	10.28
389.504	10.4
389.712	10.22
389.92	10.32
390.128	10.21
390.336	10.37
390.544	9.99
390.751	10.16
390.959	10
391.167	10
391.375	9.79
391.583	10.01
391.79	9.91
391.998	9.86
392.206	9.76
392.414	9.85
392.621	9.54
392.829	9.79
393.037	9.45
393.244	9.23
393.452	9.23
393.66	9.28
393.867	9.36
394.075	9.51
394.283	9.24
394.49	9.52
394.698	9.65
394.905	10.03
395.113	9.73
395.32	9.51
395.528	9.68
395.735	9.72
395.943	9.68
396.15	9.51
396.358	9.14
396.565	9.55
396.773	9.03
396.98	8.92
397.188	8.68
397.395	8.68
397.602	9.14
397.81	9.18
398.017	8.94
398.225	8.91
398.432	8.82
398.639	9.01
398.847	8.45
399.054	8.65
399.261	8.62
399.468	8.66
399.676	8.59
399.883	8.36
400.09	8.09
400.297	8.44
400.505	8.44
400.712	8.38
400.919	8.34
401.126	8.55
401.333	8.27
401.54	7.97
401.748	8.13
401.955	8.15
402.162	8.23
402.369	8.17
402.576	7.85
402.783	7.83
402.99	7.63
403.197	7.44
403.404	7.46
403.611	7.94
403.818	7.84
404.025	7.54
404.232	7.65
404.439	7.51
404.646	7.19
404.853	7.13
405.06	7.14
405.267	7.17
405.474	7.13
405.681	6.91
405.887	6.86
406.094	6.91
406.301	7.05
406.508	6.94
406.715	6.98
406.922	7.35
407.128	7.64
407.335	7.27
407.542	7.41
407.749	7.58
407.955	7.69
408.162	7.27
408.369	7.04
408.575	6.7
408.782	6.6
408.989	6.68
409.195	6.58
409.402	6.34
409.609	6.9
409.815	6.9
410.022	7
410.228	7.04
410.435	7.05
410.642	7.26
410.848	7.46
411.055	7.79
411.261	7.49
411.468	7.32
411.674	7.34
411.881	7.03
412.087	6.87
412.294	6.58
412.5	6.77
412.706	6.64
412.913	6.69
413.119	6.41
413.326	6.11
413.532	6.46
413.738	6.59
413.945	6.38
414.151	6.48
414.357	6.53
414.564	6.68
414.77	6.52
414.976	6.53
415.182	6.71
415.389	6.59
415.595	6.44
415.801	6.29
416.007	6.12
416.214	5.88
416.42	5.93
416.626	6
416.832	5.93
417.038	5.94
417.244	6.06
417.45	5.95
417.657	6.19
417.863	6.29
418.069	6.08
418.275	6.13
418.481	6.25
418.687	6.32
418.893	6.15
419.099	6.14
419.305	5.93
419.511	5.93
419.717	6.02
419.923	5.8
420.129	5.7
420.335	5.86
420.541	5.88
420.746	5.82
420.952	5.55
421.158	5.53
421.364	5.4
421.57	5.35
421.776	5.28
421.982	5.15
422.187	5.29
422.393	5.14
422.599	5.05
422.805	4.95
423.01	4.98
423.216	5.08
423.422	5.16
423.628	5.17
423.833	5.22
424.039	5.17
424.245	5.18
424.45	5.32
424.656	5.49
424.862	5.42
425.067	5.68
425.273	5.77
425.478	5.65
425.684	5.62
425.889	5.6
426.095	5.75
426.301	5.74
426.506	5.76
426.712	5.56
426.917	5.62
427.123	5.66
427.328	5.32
427.533	5.17
427.739	5.38
427.944	5.34
428.15	5.41
428.355	5.37
428.561	5.41
428.766	5.26
428.971	5.25
429.177	5.22
429.382	5.27
429.587	5.35
429.793	5.38
429.998	5.16
430.203	5.18
430.408	5.22
430.614	5.18
430.819	5.02
431.024	5.16
431.229	5.19
431.434	5.18
431.64	5.31
431.845	5.43
432.05	5.44
432.255	5.51
432.46	5.38
432.665	5.28
432.87	5.25
433.076	5.43
433.281	5.44
433.486	5.35
433.691	5.29
433.896	5.12
434.101	5.06
434.306	5.04
434.511	4.99
434.716	5.23
434.921	5.37
435.126	5.35
435.331	5.05
435.535	4.96
435.74	4.93
435.945	4.97
436.15	4.98
436.355	4.91
436.56	4.99
436.765	4.94
436.97	4.82
437.174	4.86
437.379	4.88
437.584	5.2
437.789	5.16
437.993	5.31
438.198	5.1
438.403	5.18
438.608	5.07
438.812	5
439.017	5.18
439.222	5.23
439.426	5.03
439.631	5.09
439.836	5.15
440.04	5.06
440.245	4.97
440.45	5.04
440.654	5.16
440.859	5.3
441.063	5.27
441.268	5.2
441.472	5.18
441.677	5.27
441.881	5.16
442.086	5.1
442.29	5.3
442.495	5.31
442.699	5.41
442.904	5.14
443.108	5.1
443.312	5.13
443.517	5.04
443.721	4.9
443.925	4.76
444.13	4.82
444.334	4.64
444.538	4.36
444.743	4.38
444.947	4.29
445.151	4.38
445.356	4.43
445.56	4.37
445.764	4.53
445.968	4.66
446.173	4.71
446.377	4.61
446.581	4.66
446.785	4.78
446.989	4.73
447.193	4.79
447.398	4.7
447.602	4.64
447.806	4.64
448.01	4.73
448.214	4.71
448.418	4.75
448.622	4.76
448.826	4.77
449.03	4.78
449.234	4.92
449.438	4.96
449.642	5.04
449.846	5.07
450.05	5.27
450.254	4.97
450.458	5.01
450.662	4.93
450.866	4.98
451.069	4.92
451.273	4.69
451.477	4.5
451.681	4.38
451.885	4.43
452.089	4.31
452.292	4.27
452.496	4.25
452.7	4.26
452.904	4.26
453.107	4.44
453.311	4.48
453.515	4.67
453.719	4.8
453.922	4.68
454.126	4.64
454.33	4.69
454.533	4.78
454.737	4.94
454.94	4.87
455.144	4.94
455.348	4.84
455.551	4.76
455.755	4.73
455.958	4.74
456.162	4.74
456.365	4.8
456.569	4.86
456.772	4.88
456.976	4.62
457.179	4.5
457.383	4.42
457.586	4.31
457.79	4.28
457.993	4.09
458.196	4
458.4	4.06
458.603	3.95
458.807	4.01
459.01	3.88
459.213	4.03
459.417	4.2
459.62	4.28
459.823	4.44
460.026	4.55
460.23	4.64
460.433	4.78
460.636	4.83
460.839	4.92
461.042	4.84
461.246	4.84
461.449	4.76
461.652	4.65
461.855	4.64
462.058	4.56
462.261	4.43
462.464	4.49
462.668	4.25
462.871	4.18
463.074	3.94
463.277	3.99
463.48	4.07
463.683	4.15
463.886	4.03
464.089	4.14
464.292	3.98
464.495	3.9
464.698	4.02
464.901	4.03
465.104	4.19
465.306	4.31
465.509	4.32
465.712	4.17
465.915	4.16
466.118	4.32
466.321	4.15
466.524	4.11
466.726	4.23
466.929	4.19
467.132	4.27
467.335	4.22
467.538	4.34
467.74	4.46
467.943	4.54
468.146	4.53
468.348	4.51
468.551	4.49
468.754	4.79
468.956	4.72
469.159	4.61
469.362	4.59
469.564	4.65
469.767	4.58
469.969	4.44
470.172	4.34
470.375	4.33
470.577	4.35
470.78	4.3
470.982	4.19
471.185	4.47
471.387	4.6
471.59	4.44
471.792	4.29
471.995	4.25
472.197	4.41
472.399	4.32
472.602	4.4
472.804	4.38
473.007	4.61
473.209	4.47
473.411	4.22
473.614	4.01
473.816	4.08
474.018	4.34
474.22	4.53
474.423	4.45
474.625	4.46
474.827	4.5
475.03	4.55
475.232	4.44
475.434	4.51
475.636	4.62
475.838	4.8
476.04	4.8
476.243	4.49
476.445	4.29
476.647	4.33
476.849	4.54
477.051	4.38
477.253	4.46
477.455	4.3
477.657	4.3
477.859	4.33
478.061	4.5
478.263	4.36
478.465	4.45
478.667	4.34
478.869	4.26
479.071	4.19
479.273	4.34
479.475	4.15
479.677	4.29
479.879	4.22
480.081	4.22
480.283	4.07
480.485	4.29
480.686	4.22
480.888	4.43
481.09	4.39
481.292	4.51
481.494	4.35
481.695	4.36
481.897	4.32
482.099	4.34
482.301	4.32
482.502	4.35
482.704	4.37
482.906	4.38
483.107	4.38
483.309	4.34
483.511	4.3
483.712	4.4
483.914	4.43
484.115	4.44
484.317	4.39
484.519	4.39
484.72	4.4
484.922	4.33
485.123	4.35
485.325	4.34
485.526	4.35
485.728	4.37
485.929	4.32
486.131	4.32
486.332	4.3
486.534	4.33
486.735	4.26
486.936	4.24
487.138	4.27
487.339	4.26
487.541	4.25
487.742	4.24
487.943	4.19
488.144	4.15
488.346	4.11
488.547	4.16
488.748	4.22
488.95	4.28
489.151	4.19
489.352	4.18
489.553	4.19
489.755	4.19
489.956	4.26
490.157	4.3
490.358	4.37
490.559	4.3
490.76	4.26
490.961	4.28
491.163	4.25
491.364	4.29
491.565	4.35
491.766	4.39
491.967	4.44
492.168	4.45
492.369	4.39
492.57	4.35
492.771	4.45
492.972	4.49
493.173	4.43
493.374	4.52
493.575	4.6
493.776	4.54
493.976	4.57
494.177	4.49
494.378	4.51
494.579	4.64
494.78	4.84
494.981	4.76
495.182	4.76
495.382	5
495.583	5.02
495.784	5
495.985	5.1
496.185	4.95
496.386	5.06
496.587	5.06
496.788	4.96
496.988	4.79
497.189	4.81
497.39	4.9
497.59	4.68
497.791	4.74
497.992	4.81
498.192	4.83
498.393	4.88
498.593	4.98
498.794	4.98
498.994	5.02
499.195	5.11
499.395	5.24
499.596	5.15
499.796	5.14
499.997	5.18
500.197	5.19
500.398	5.25
500.598	5.29
500.799	4.94
500.999	4.94
501.199	5.01
501.4	4.92
501.6	4.73
501.801	4.85
502.001	4.93
502.201	4.78
502.402	4.83
502.602	4.8
502.802	4.72
503.002	4.98
503.203	4.94
503.403	4.9
503.603	5.13
503.803	5.66
504.003	5.53
504.204	5.66
504.404	5.93
504.604	5.81
504.804	5.97
505.004	6.21
505.204	6.29
505.404	6.26
505.604	6.3
505.804	6.39
506.005	6.13
506.205	6.25
506.405	6.26
506.605	6.24
506.805	6.52
507.005	6.56
507.204	6.61
507.404	6.78
507.604	6.99
507.804	7.15
508.004	7.05
508.204	7.12
508.404	7.29
508.604	7.38
508.804	7.5
509.003	7.54
509.203	7.43
509.403	7.33
509.603	7.32
509.803	7.41
510.002	7.5
510.202	7.66
510.402	7.84
510.602	7.88
510.801	7.92
511.001	7.97
511.201	7.99
511.4	8.16
511.6	8.5
511.8	8.55
511.999	8.61
512.199	8.68
512.398	8.7
512.598	8.88
512.797	8.93
512.997	9.13
513.197	9.08
513.396	9.06
513.596	9.19
513.795	9.13
513.994	9.31
514.194	9.28
514.393	9.38
514.593	9.41
514.792	9.24
514.992	9.23
515.191	9.21
515.39	9.37
515.59	9.51
515.789	9.62
515.988	9.75
516.188	9.72
516.387	9.95
516.586	10.3
516.786	10.43
516.985	10.76
517.184	10.92
517.383	11.09
517.582	11.17
517.782	11.25
517.981	11.26
518.18	11.31
518.379	11.45
518.578	11.67
518.777	11.52
518.976	11.67
519.176	11.51
519.375	11.66
519.574	11.68
519.773	11.8
519.972	11.91
520.171	12.03
520.37	12.22
520.569	12.34
520.768	12.26
520.967	12.48
521.166	12.51
521.365	12.75
521.564	12.89
521.762	12.94
521.961	12.91
522.16	12.93
522.359	12.97
522.558	12.97
522.757	12.96
522.956	13.04
523.154	13.03
523.353	13.13
523.552	13.29
523.751	13.42
523.949	13.57
524.148	13.66
524.347	13.87
524.546	14.05
524.744	14.14
524.943	14.24
525.142	14.36
525.34	14.36
525.539	14.5
525.737	14.56
525.936	14.54
526.135	14.74
526.333	14.84
526.532	14.86
526.73	15
526.929	15.02
527.127	15.15
527.326	15.23
527.524	15.43
527.723	15.42
527.921	15.53
528.12	15.58
528.318	15.54
528.516	15.57
528.715	15.65
528.913	15.69
529.112	15.8
529.31	15.76
529.508	15.79
529.707	15.78
529.905	15.82
530.103	15.79
530.301	15.79
530.5	15.91
530.698	16.04
530.896	16.15
531.094	16.16
531.293	16.23
531.491	16.46
531.689	16.6
531.887	16.66
532.085	16.93
532.283	17.05
532.481	17.23
532.68	17.24
532.878	17.28
533.076	17.33
533.274	17.31
533.472	17.38
533.67	17.43
533.868	17.48
534.066	17.62
534.264	17.58
534.462	17.6
534.66	17.61
534.858	17.73
535.056	17.81
535.253	17.91
535.451	18.08
535.649	18.06
535.847	18.15
536.045	18.2
536.243	18.26
536.441	18.27
536.638	18.36
536.836	18.42
537.034	18.39
537.232	18.54
537.43	18.59
537.627	18.73
537.825	18.93
538.023	18.93
538.22	18.93
538.418	18.95
538.616	19.11
538.813	19.29
539.011	19.48
539.209	19.73
539.406	19.72
539.604	19.87
539.801	19.9
539.999	20.04
540.196	20.16
540.394	20.25
540.591	20.28
540.789	20.37
540.986	20.3
541.184	20.25
541.381	20.33
541.579	20.41
541.776	20.39
541.974	20.45
542.171	20.38
542.368	20.52
542.566	20.67
542.763	20.78
542.96	20.84
543.158	20.99
543.355	21.12
543.552	21.11
543.75	21.21
543.947	21.21
544.144	21.32
544.341	21.52
544.539	21.47
544.736	21.26
544.933	21.34
545.13	21.46
545.327	21.49
545.524	21.5
545.722	21.55
545.919	21.52
546.116	21.64
546.313	21.68
546.51	21.64
546.707	21.77
546.904	22.1
547.101	22.21
547.298	22.15
547.495	22.04
547.692	22.16
547.889	22.32
548.086	22.52
548.283	22.59
548.48	22.61
548.677	22.94
548.874	22.85
549.07	22.9
549.267	22.99
549.464	23.2
549.661	23.53
549.858	23.64
550.055	23.51
550.251	23.37
550.448	23.42
550.645	23.63
550.842	23.35
551.038	23.55
551.235	23.56
551.432	23.56
551.628	23.5
551.825	23.47
552.022	23.64
552.218	23.71
552.415	23.87
552.612	24.04
552.808	23.94
553.005	24.11
553.201	24.16
553.398	24.24
553.594	24.42
553.791	24.43
553.987	24.49
554.184	24.5
554.38	24.79
554.577	24.91
554.773	24.84
554.97	25.2
555.166	25.14
555.362	25.26
555.559	25.48
555.755	25.32
555.952	25.54
556.148	25.85
556.344	25.78
556.541	25.78
556.737	25.79
556.933	25.97
557.129	25.87
557.326	25.91
557.522	26.04
557.718	25.88
557.914	26.11
558.11	26.14
558.307	26.04
558.503	26.05
558.699	26.29
558.895	26.27
559.091	26.24
559.287	26.52
559.483	26.69
559.679	26.8
559.876	26.85
560.072	26.86
560.268	26.84
560.464	26.94
560.66	27.21
560.856	27.04
561.052	27.05
561.247	27.1
561.443	27.02
561.639	27.02
561.835	26.99
562.031	27.04
562.227	26.93
562.423	26.84
562.619	27.04
562.815	26.88
563.01	26.65
563.206	26.82
563.402	26.95
563.598	26.94
563.793	26.95
563.989	26.82
564.185	27.01
564.381	27.24
564.576	27.53
564.772	27.39
564.968	27.43
565.163	27.66
565.359	27.77
565.555	27.84
565.75	27.76
565.946	27.78
566.141	27.97
566.337	27.77
566.532	27.75
566.728	27.64
566.923	27.81
567.119	28.1
567.314	28.41
567.51	28.42
567.705	28.39
567.901	28.35
568.096	28.55
568.292	28.46
568.487	28.65
568.682	28.73
568.878	28.92
569.073	28.83
569.268	28.7
569.464	28.45
569.659	28.39
569.854	28.63
570.05	28.94
570.245	29.02
570.44	29.17
570.635	29.32
570.831	29.35
571.026	29.45
571.221	29.46
571.416	29.59
571.611	29.74
571.806	29.89
572.002	29.82
572.197	29.55
572.392	29.48
572.587	29.46
572.782	29.39
572.977	29.43
573.172	29.21
573.367	29.13
573.562	28.93
573.757	28.97
573.952	28.84
574.147	28.9
574.342	29.23
574.537	29.28
574.732	29.31
574.927	29.42
575.121	29.45
575.316	29.49
575.511	29.71
575.706	29.77
575.901	29.71
576.096	29.76
576.29	29.68
576.485	29.53
576.68	29.4
576.875	29.49
577.069	29.35
577.264	29.4
577.459	29.7
577.654	29.68
577.848	29.82
578.043	29.84
578.238	29.99
578.432	30.05
578.627	29.92
578.821	30.17
579.016	30.13
579.21	30.12
579.405	30.03
579.6	29.81
579.794	29.77
579.989	29.84
580.183	29.54
580.378	29.71
580.572	29.53
580.766	30.02
580.961	30.4
581.155	30.28
581.35	30.29
581.544	30.24
581.738	30.47
581.933	30.78
582.127	30.88
582.321	31.17
582.516	30.64
582.71	30.89
582.904	30.7
583.099	30.27
583.293	30.42
583.487	30.45
583.681	30.59
583.875	30.49
584.07	30.33
584.264	30.28
584.458	30.35
584.652	30.62
584.846	30.54
585.04	30.66
585.234	30.79
585.428	30.72
585.623	30.8
585.817	30.9
586.011	31.08
586.205	30.97
586.399	30.96
586.593	31.04
586.787	31.06
586.981	31.29
587.174	31.19
587.368	31.3
587.562	31.51
587.756	31.74
587.95	31.83
588.144	31.72
588.338	31.7
588.532	31.78
588.725	31.95
588.919	32.08
589.113	32.14
589.307	32.23
589.501	32.29
589.694	32.25
589.888	32.05
590.082	32.05
590.275	31.98
590.469	31.96
590.663	31.92
590.856	31.72
591.05	31.72
591.244	31.85
591.437	31.58
591.631	31.53
591.824	31.36
592.018	31.47
592.212	31.13
592.405	31.34
592.599	31.52
592.792	31.67
592.986	31.68
593.179	31.85
593.372	31.56
593.566	31.81
593.759	31.59
593.953	31.86
594.146	32
594.339	32.29
594.533	32.42
594.726	32.42
594.92	32.26
595.113	32.48
595.306	32.36
595.499	32.58
595.693	32.68
595.886	32.76
596.079	32.52
596.272	32.29
596.466	32.27
596.659	32.09
596.852	32.25
597.045	32.21
597.238	32.06
597.431	31.72
597.624	31.58
597.818	31.66
598.011	31.53
598.204	31.75
598.397	31.76
598.59	31.77
598.783	31.79
598.976	31.89
599.169	31.79
599.362	31.79
599.555	32.31
599.748	32.15
599.941	32.22
600.134	32.53
600.326	32.47
600.519	32.87
600.712	32.72
600.905	32.66
601.098	32.28
601.291	32.48
601.483	32.53
601.676	32.36
601.869	32.81
602.062	32.65
602.255	32.53
602.447	32.57
602.64	32.76
602.833	33.05
603.025	33.01
603.218	33.16
603.411	33.47
603.603	33.61
603.796	33.72
603.989	33.63
604.181	33.68
604.374	33.78
604.566	33.79
604.759	33.74
604.951	33.62
605.144	33.59
605.336	33.59
605.529	33.39
605.721	33.36
605.914	33.36
606.106	33.32
606.299	33.18
606.491	33.11
606.683	33.15
606.876	32.85
607.068	32.85
607.26	33.05
607.453	32.81
607.645	32.75
607.837	32.54
608.03	32.38
608.222	32.55
608.414	32.48
608.606	32.48
608.799	32.48
608.991	32.7
609.183	32.69
609.375	32.62
609.567	32.9
609.759	32.93
609.952	33.11
610.144	33.24
610.336	33.07
610.528	32.96
610.72	33.03
610.912	33.08
611.104	32.76
611.296	32.72
611.488	32.73
611.68	32.7
611.872	32.61
612.064	32.64
612.256	32.64
612.448	32.65
612.64	32.91
612.832	32.55
613.023	32.31
613.215	32.31
613.407	32.5
613.599	32.91
613.791	32.88
613.983	33.46
614.174	33.41
614.366	33.51
614.558	33.76
614.75	33.94
614.941	34.47
615.133	34.7
615.325	35.25
615.516	35.16
615.708	34.79
615.9	34.61
616.091	34.1
616.283	34.27
616.475	34.02
616.666	33.78
616.858	33.58
617.049	33.86
617.241	33.87
617.432	33.48
617.624	33.63
617.815	33.63
618.007	33.53
618.198	33.78
618.39	33.37
618.581	33.62
618.773	33.72
618.964	33.7
619.155	33.22
619.347	33.23
619.538	33.56
619.729	33.33
619.921	33.71
620.112	34.22
620.303	34.11
620.494	34.12
620.686	34.27
620.877	34.55
621.068	34.6
621.259	34.84
621.451	34.84
621.642	34.49
621.833	35.08
622.024	35.09
622.215	34.91
622.406	35.02
622.597	35.24
622.788	35.06
622.98	35.04
623.171	34.89
623.362	34.85
623.553	34.87
623.744	35.14
623.935	34.56
624.126	34.05
624.317	34.17
624.508	34.03
624.698	33.95
624.889	34.03
625.08	33.88
625.271	34.23
625.462	34.25
625.653	34.11
625.844	34.17
626.034	34.39
626.225	34.67
626.416	34.54
626.607	34.64
626.798	34.54
626.988	34.48
627.179	34.47
627.37	34.39
627.56	34.32
627.751	34.39
627.942	34.29
628.132	34.38
628.323	34.2
628.514	34.41
628.704	34.64
628.895	34.69
629.085	34.74
629.276	34.78
629.466	34.66
629.657	34.85
629.847	34.94
630.038	34.86
630.228	34.81
630.419	35.07
630.609	34.92
630.8	34.65
630.99	34.8
631.181	34.45
631.371	34.15
631.561	34.61
631.752	34.54
631.942	34.51
632.132	34.77
632.323	34.61
632.513	34.78
632.703	34.96
632.893	35.04
633.084	34.75
633.274	35.25
633.464	35.24
633.654	35.06
633.844	35.13
634.034	35.21
634.225	35.12
634.415	35.13
634.605	34.99
634.795	34.94
634.985	34.67
635.175	35.06
635.365	35.01
635.555	35.17
635.745	34.93
635.935	34.85
636.125	34.67
636.315	34.39
636.505	34.37
636.695	34.45
636.885	34.33
637.075	34.44
637.265	34.48
637.455	34.39
637.644	34.62
637.834	34.57
638.024	34.57
638.214	34.77
638.404	35.08
638.593	34.8
638.783	34.55
638.973	34.53
639.163	34.61
639.352	34.54
639.542	34.56
639.732	34.37
639.921	34.46
640.111	34.56
640.301	34.47
640.49	34.65
640.68	35.03
640.87	35.14
641.059	35.04
641.249	35.04
641.438	35.11
641.628	35.4
641.817	35.41
642.007	35.75
642.196	35.68
642.386	35.69
642.575	35.57
642.764	35.53
642.954	35.6
643.143	35.87
643.333	35.96
643.522	35.93
643.711	35.52
643.901	35.47
644.09	34.71
644.279	34.75
644.469	34.68
644.658	34.26
644.847	34.84
645.036	35.15
645.226	35.09
645.415	34.82
645.604	34.64
645.793	34.71
645.982	35.15
646.171	35.67
646.361	35.25
646.55	35.51
646.739	35.96
646.928	35.46
647.117	34.92
647.306	34.95
647.495	35.25
647.684	35.11
647.873	35.05
648.062	34.71
648.251	34.77
648.44	35.08
648.629	35.37
648.818	35.49
649.007	35.36
649.196	35.86
649.384	36.03
649.573	36.14
649.762	36.41
649.951	36.87
650.14	36.74
650.328	36.79
650.517	36.74
650.706	36.35
650.895	36.07
651.083	35.95
651.272	35.6
651.461	35.23
651.65	35.37
651.838	35.21
652.027	35.11
652.216	35.33
652.404	35.41
652.593	35.61
652.781	35.92
652.97	35.74
653.158	35.75
653.347	35.7
653.535	36.01
653.724	35.86
653.912	35.9
654.101	35.63
654.289	35.44
654.478	35.38
654.666	35.29
654.855	34.76
655.043	34.61
655.231	34.46
655.42	35
655.608	35.05
655.796	34.92
655.985	34.9
656.173	35.15
656.361	35.01
656.55	34.92
656.738	35.17
656.926	35.7
657.114	35.31
657.302	35.78
657.491	35.62
657.679	35.64
657.867	35.76
658.055	36.07
658.243	35.8
658.431	36.21
658.619	36.48
658.807	36.15
658.996	35.85
659.184	36.19
659.372	36.12
659.56	36.21
659.748	36.04
659.936	35.91
660.124	35.83
660.311	36.2
660.499	35.96
660.687	35.57
660.875	35.67
661.063	36.12
661.251	36.36
661.439	36.6
661.627	36.57
661.814	36.78
662.002	37.1
662.19	37
662.378	36.77
662.565	36.85
662.753	36.92
662.941	36.78
663.129	36.3
663.316	36.57
663.504	36.04
663.692	35.89
663.879	35.47
664.067	35.2
664.254	35.42
664.442	35.72
664.63	35.59
664.817	36.24
665.005	36.72
665.192	36.56
665.38	36.39
665.567	37.01
665.755	37.1
665.942	37.65
666.13	37.21
666.317	37.18
666.504	36.67
666.692	37.47
666.879	37.15
667.067	37.08
667.254	37.45
667.441	37.75
667.629	37.58
667.816	37.18
668.003	36.65
668.19	37.03
668.378	37.11
668.565	37.38
668.752	36.59
668.939	36.55
669.127	36.41
669.314	36.43
669.501	36.37
669.688	36.34
669.875	36.93
670.062	37.2
670.249	37.08
670.436	36.84
670.623	37.25
670.81	37.45
670.997	37.85
671.184	37.66
671.371	37.34
671.558	37.15
671.745	36.91
671.932	36.45
672.119	36.5
672.306	36.32
672.493	36.35
672.68	35.42
672.867	35.41
673.054	34.9
673.24	35.11
673.427	35.15
673.614	35.18
673.801	35.87
673.988	36.29
674.174	35.93
674.361	36.28
674.548	36.29
674.734	36.68
674.921	36.97
675.108	36.66
675.294	37.03
675.481	37.19
675.668	37.12
675.854	36.44
676.041	36.23
676.227	36.39
676.414	36.34
676.601	36.55
676.787	36.77
676.974	36.59
677.16	37.01
677.347	36.61
677.533	37.02
677.719	37.51
677.906	37.77
678.092	37.63
678.279	38.14
678.465	38.22
678.651	38.52
678.838	38.48
679.024	38.36
679.21	38.1
679.397	38.31
679.583	38.23
679.769	37.95
679.955	37.72
680.142	37.71
680.328	37.3
680.514	37.33
680.7	37.13
680.886	37.27
681.073	36.89
681.259	37.24
681.445	37.28
681.631	36.8
681.817	36.67
682.003	36.73
682.189	36.71
682.375	36.82
682.561	36.85
682.747	36.96
682.933	36.49
683.119	37.22
683.305	37.3
683.491	37.25
683.677	37.25
683.863	37.36
684.049	37.38
684.235	37.96
684.42	38.55
684.606	38.27
684.792	37.9
684.978	38.63
685.164	37.92
685.349	37.7
685.535	37.05
685.721	37.53
685.907	37.23
686.092	37.58
686.278	36.68
686.464	36.21
686.649	36.24
686.835	36.71
687.021	36.16
687.206	36.83
687.392	36.56
687.577	37.28
687.763	37.29
687.948	37.37
688.134	36.52
688.319	36.58
688.505	36.4
688.69	37.17
688.876	36.49
689.061	36.74
689.247	35.73
689.432	36.2
689.618	35.68
689.803	35.86
689.988	35.78
690.174	36.06
690.359	36.24
690.544	36.17
690.73	35.82
690.915	36.34
691.1	36.03
691.285	37.18
691.471	37.23
691.656	37.85
691.841	37.34
692.026	37.49
692.211	37.63
692.396	37.83
692.582	37.88
692.767	37.25
692.952	37.23
693.137	37.25
693.322	37.21
693.507	36.78
693.692	36.3
693.877	36.94
694.062	37.24
694.247	37.45
694.432	37.53
694.617	37.89
694.802	38.27
694.987	38.06
695.172	37.89
695.357	38.29
695.541	38.33
695.726	38.88
695.911	38.67
696.096	38.73
696.281	38.57
696.466	38.74
696.65	38.32
696.835	38.27
697.02	38.32
697.204	38.53
697.389	38.26
697.574	38.25
697.759	38.03
697.943	37.83
698.128	37.58
698.312	37.85
698.497	37.8
698.682	37.54
698.866	37.63
699.051	37.87
699.235	37.78
699.42	37.67
699.604	37.65
699.789	37.58
699.973	37.64
700.158	37.55
700.342	37.82
700.527	37.72
700.711	37.78
700.895	38.02
701.08	37.52
701.264	38.08
701.448	37.55
701.633	38.07
701.817	38.21
702.001	38.57
702.186	38.89
702.37	38.01
702.554	37.67
702.738	38.68
702.923	38.36
703.107	38.49
703.291	37.8
703.475	38.82
703.659	38.01
703.843	38.28
704.027	37.81
704.212	37.84
704.396	38.63
704.58	38.89
704.764	37.92
704.948	37.42
705.132	37.25
705.316	36.99
705.5	36.28
705.684	36.91
705.868	36.57
706.052	36.98
706.235	36.67
706.419	36.44
706.603	36.26
706.787	36.88
706.971	37.14
707.155	37.49
707.339	37.57
707.522	37.63
707.706	36.67
707.89	36.44
708.074	36.22
708.257	37
708.441	36.89
708.625	37
708.808	36.86
708.992	37.13
709.176	37.31
709.359	37.96
709.543	38.39
709.727	38.73
709.91	39.1
710.094	39.54
710.277	39.22
710.461	39.3
710.644	39.32
710.828	39.37
711.011	39.05
711.195	38.79
711.378	38.39
711.562	38.08
711.745	38.9
711.928	38.61
712.112	37.66
712.295	37.48
712.478	36.98
712.662	37.12
712.845	36.94
713.028	37.33
713.212	37.07
713.395	36.79
713.578	36.85
713.761	35.97
713.945	36.08
714.128	36.69
714.311	36.94
714.494	37.52
714.677	37.44
714.86	37.76
715.043	37.69
715.227	38.18
715.41	37.33
715.593	36.99
715.776	36.7
715.959	36.8
716.142	36.76
716.325	36.3
716.508	35.87
716.691	35.57
716.874	34.97
717.057	34.64
717.239	35.07
717.422	36.61
717.605	36.76
717.788	36.74
717.971	36.46
718.154	36.51
718.337	37.22
718.519	37.96
718.702	38.27
718.885	38.99
719.068	38.71
719.25	37.37
719.433	36.79
719.616	37.02
719.798	37.6
719.981	37.11
720.164	36.41
720.346	35.42
720.529	35.07
720.712	34.95
720.894	34.22
721.077	35.2
721.259	36.1
721.442	36.39
721.624	35.94
721.807	35.95
721.989	37.4
722.172	37.76
722.354	37.55
722.537	37.21
722.719	38.04
722.901	38.12
723.084	37.13
723.266	36.53
723.448	35.97
723.631	35.99
723.813	36.73
723.995	35.75
724.178	35.5
724.36	36.18
724.542	36.96
724.724	36.27
724.907	36.46
725.089	36.07
725.271	36.43
725.453	36.64
725.635	37.87
725.817	36.51
725.999	36.84
726.181	37.08
726.364	37.18
726.546	37.26
726.728	37.25
726.91	37.36
727.092	37.89
727.274	37.8
727.456	37.77
727.638	37.35
727.819	37.78
728.001	37.7
728.183	37.7
728.365	37.37
728.547	37.31
728.729	38.18
728.911	38.37
729.093	38.48
729.274	38.41
729.456	38.96
729.638	38.21
729.82	38.63
730.001	37.56
730.183	37.72
730.365	38.35
730.546	37.26
730.728	36.23
730.91	36.08
731.091	36.82
731.273	36.73
731.455	35.81
731.636	36.4
731.818	36.54
731.999	38.23
732.181	37.57
732.362	37.77
732.544	38.09
732.725	38.17
732.907	38.5
733.088	37.76
733.27	38.52
733.451	39.18
733.633	38.84
733.814	38.75
733.995	38.07
734.177	39.11
734.358	37.75
734.539	38.29
734.721	38.38
734.902	38.55
735.083	37.99
735.264	36.98
735.446	37.37
735.627	37
735.808	36.54
735.989	36.92
736.17	36.44
736.351	37.82
736.533	38.44
736.714	38.25
736.895	37.01
737.076	37.74
737.257	38.19
737.438	38.13
737.619	38.06
737.8	37.57
737.981	37.35
738.162	36.98
738.343	36.34
738.524	35.48
738.705	36.41
738.886	37.29
739.067	37.72
739.247	38.48
739.428	38.4
739.609	39.64
739.79	40.85
739.971	40.94
740.151	42.4
740.332	42.98
740.513	43.14
740.694	42.69
740.874	41.91
741.055	41.28
741.236	40.6
741.417	39.42
741.597	37.97
741.778	37.78
741.958	36.79
742.139	35.62
742.32	35.1
742.5	34.63
742.681	34.24
742.861	34.54
743.042	34.74
743.222	34.46
743.403	35.03
743.583	36.42
743.764	35.5
743.944	35.18
744.124	35.68
744.305	35.73
744.485	36.04
744.666	35.58
744.846	35.53
745.026	35.91
745.207	36
745.387	35.69
745.567	35.12
745.747	35.98
745.928	37.94
746.108	36.95
746.288	35.83
746.468	36.92
746.648	37.7
746.829	37.05
747.009	37.77
747.189	38.44
747.369	39.25
747.549	39.44
747.729	39.06
747.909	37.71
748.089	38.08
748.269	38.75
748.449	37.41
748.629	37.86
748.809	37.91
748.989	36.64
749.169	36.55
749.349	36.42
749.529	35.89
749.709	36.2
749.889	36
750.068	35.73
750.248	36.12
750.428	36.38
750.608	35.36
750.788	35.53
750.967	36.09
751.147	35.02
751.327	35.22
751.507	35.39
751.686	36.66
751.866	37.17
752.046	37.28
752.225	38.06
752.405	38.17
752.585	38.91
752.764	40.07
752.944	40.01
753.123	40.08
753.303	40.24
753.482	40.96
753.662	39.58
753.841	39.57
754.021	38.57
754.2	36.83
754.38	37.44
754.559	37.44
754.739	35.77
754.918	34.98
755.097	36.1
755.277	35.57
755.456	35.83
755.635	35.19
755.815	34.79
755.994	36.03
756.173	36.64
756.352	36.71
756.532	36.07
756.711	36.78
756.89	37.13
757.069	37.28
757.248	37.37
757.427	35.88
757.607	36.15
757.786	36.75
757.965	36.92
758.144	37.44
758.323	36.57
758.502	36.73
758.681	37.71
758.86	37.68
759.039	37.17
759.218	38.09
759.397	38.73
759.576	39.89
759.755	39.39
759.934	38.71
760.113	38.96
760.291	38.25
760.47	39.75
760.649	40.02
760.828	40.92
761.007	40.38
761.186	39.45
761.364	39.44
761.543	38.62
761.722	38.69
761.901	39.44
762.079	39.83
762.258	40.65
762.437	38.98
762.615	38.35
762.794	37.99
762.972	38.34
763.151	38.13
763.33	38.36
763.508	38.57
763.687	39.21
763.865	39.77
764.044	39.35
764.222	39.02
764.401	39.01
764.579	39.1
764.758	39.24
764.936	39.05
765.114	39.72
765.293	38.72
765.471	38.27
765.65	38.6
765.828	38.07
766.006	37.29
766.184	37.12
766.363	36.91
766.541	36.47
766.719	36.62
766.898	37.4
767.076	37.21
767.254	38.89
767.432	38.6
767.61	36.87
767.788	35.79
767.967	36.11
768.145	35.68
768.323	35.17
768.501	35.26
768.679	33.76
768.857	32.49
769.035	32.57
769.213	31.44
769.391	31.99
769.569	31.6
769.747	32.66
769.925	31.6
770.103	32.19
770.281	33.85
770.459	33.78
770.636	35.49
770.814	35.99
770.992	35.77
771.17	36.85
771.348	37.72
771.525	39.07
771.703	38.8
771.881	39.18
772.059	40.05
772.236	40
772.414	41.06
772.592	39.41
772.769	40.29
772.947	38.93
773.125	37.84
773.302	36.58
773.48	35.72
773.657	36.11
773.835	37.93
774.013	39.07
774.19	39.23
774.368	38.55
774.545	39.69
774.723	37.88
774.9	38.13
775.077	39.51
775.255	39.88
775.432	39.78
775.61	39.64
775.787	39.4
775.964	38.83
776.142	39.5
776.319	38.49
776.496	38.08
776.674	39.35
776.851	41.66
777.028	39.78
777.205	40.47
777.382	41.19
777.56	40.75
777.737	41.24
777.914	40.48
778.091	39.97
778.268	41.34
778.445	40.36
778.622	39.78
778.8	37.49
778.977	37.22
779.154	31.95
779.331	31.8
779.508	32.5
779.685	31.13
779.862	30.77
780.038	30.67
780.215	29.49
780.392	30.27
780.569	29.78
780.746	29.88
780.923	30.82
781.1	36.27
781.277	36.02
781.453	33.49
781.63	33.9
781.807	33.5
781.984	32.85
782.16	35.51
782.337	35.88
782.514	36.1
782.691	37.41
782.867	37.87
783.044	38.09
783.221	38.35
783.397	39.99
783.574	39.52
783.75	40.46
783.927	41.22
784.103	38.08
784.28	37.33
784.456	37.53
784.633	38.43
784.809	36.88
784.986	35.9
785.162	34.05
785.339	33.79
785.515	33.53
785.692	35.21
785.868	35.05
786.044	35.32
786.221	33
786.397	33
786.573	31.87
786.749	33.3
786.926	34.74
787.102	38.45
787.278	37.03
787.454	37.38
787.631	36.33
787.807	35.36
787.983	37.56
788.159	40.34
788.335	42.23
788.511	41.39
788.687	39.89
788.863	39.45
789.039	37.51
789.216	37.76
789.392	38.88
789.568	37.05
789.744	38.53
789.919	37.76
790.095	38.44
790.271	37.75
790.447	36.45
790.623	35.22
790.799	33.05
790.975	33.23
791.151	35.32
791.327	35.37
791.502	37.02
791.678	36.41
791.854	36.29
792.03	36.78
792.205	36.04
792.381	38.51
792.557	41.85
792.733	44.6
792.908	45.12
793.084	44.54
793.259	43.97
793.435	40.99
793.611	41.66
793.786	42.82
793.962	38.71
794.137	37.72
794.313	34.11
794.488	33.25
794.664	33.22
794.839	35.41
795.015	34.66
795.19	34.2
795.366	37
795.541	35.06
795.716	34.7
795.892	37.24
796.067	37.82
796.242	40.13
796.418	38.8
796.593	38.5
796.768	37.73
796.944	38.38
797.119	38.5
797.294	37.51
797.469	36.82
797.644	37.95
797.82	38.98
797.995	38.96
798.17	39.26
798.345	40.37
798.52	38.55
798.695	37.43
798.87	35
799.045	35.77
799.22	37.21
799.395	39.81
799.57	37.04
799.745	37.32
799.92	37.29
800.095	37.26
800.27	37.26
800.445	38.67
800.62	38.77
800.795	40.44
800.97	39.69
801.145	37.53
801.319	36.69
801.494	37.28
801.669	34.08
801.844	33.2
802.018	32.14
802.193	32.2
802.368	31.43
802.543	31.34
802.717	32.7
802.892	31.44
803.067	32.35
803.241	33.85
803.416	34.58
803.59	37.16
803.765	36.93
803.94	35.32
804.114	33.02
804.289	34.58
804.463	34.06
804.638	33.44
804.812	34
804.986	37.63
805.161	35.86
805.335	36.97
805.51	36.19
805.684	36.43
805.858	37.79
806.033	38.43
806.207	37.78
806.381	38.5
806.556	37.17
806.73	36.35
806.904	32.63
807.078	32.68
807.253	32.06
807.427	31.42
807.601	32.97
807.775	33.63
807.949	34.3
808.123	33.34
808.298	32.3
808.472	33.15
808.646	35.43
808.82	38.86
808.994	39.56
809.168	38.91
809.342	40.42
809.516	38.18
809.69	38.88
809.864	42.47
810.038	41.7
810.212	43.77
810.385	44.44
810.559	43.43
810.733	40.1
810.907	40.04
811.081	39.28
811.255	35.67
811.428	37.67
811.602	36.86
811.776	33.08
811.95	34.99
812.123	32.82
812.297	31.34
812.471	32.12
812.644	33.55
812.818	33.91
812.992	36.19
813.165	40.03
813.339	40.39
813.512	41.77
813.686	42.48
813.86	43.67
814.033	46.23
814.207	47.95
814.38	49.54
814.554	51.81
814.727	49.47
814.9	46.74
815.074	45.42
815.247	44.2
815.421	41.93
815.594	42.16
815.767	40.4
815.941	35.55
816.114	34.59
816.287	32.62
816.46	26.5
816.634	28.74
816.807	29.03
816.98	30.44
817.153	30.4
817.327	30.36
817.5	30.31
817.673	30.54
817.846	33.09
818.019	31.54
818.192	32.37
818.365	35.4
818.538	35.95
818.711	40.46
818.884	39.89
819.057	38.4
819.23	38.05
819.403	38.54
819.576	40.33
819.749	39.42
819.922	38.92
820.095	37.79
820.268	38.85
820.441	38.38
820.614	38.19
820.786	38.16
820.959	39.98
821.132	41.08
821.305	40.74
821.477	39.28
821.65	38.94
821.823	38.84
821.996	38.82
822.168	38.44
822.341	38.19
822.514	37.6
822.686	37.77
822.859	37.3
823.031	37.28
823.204	37.25
823.376	37.6
823.549	37.8
823.722	38.18
823.894	37.76
824.067	37.62
824.239	37.73
824.411	37.86
824.584	38.54
824.756	39.06
824.929	38.77
825.101	38
825.273	37.76
825.446	37.61
825.618	37.89
825.79	38.43
825.963	38.02
826.135	37.85
826.307	36.66
826.479	35.54
826.652	35.08
826.824	34.18
826.996	34.25
827.168	34.35
827.34	34.96
827.512	34.4
827.684	35.13
827.856	36.08
828.029	36.56
828.201	37.62
828.373	38.37
828.545	38.73
828.717	40.64
828.889	41.28
829.061	42.23
829.232	42.9
829.404	42.99
829.576	42.46
829.748	41.82
829.92	42.35
830.092	42.99
830.264	42.28
830.436	42.36
830.607	41.78
830.779	43.57
830.951	43.78
831.123	43.47
831.294	45.27
831.466	47.66
831.638	48.58
831.809	48.79
831.981	48.39
832.153	48.18
832.324	49.03
832.496	49.45
832.667	47.91
832.839	43.72
833.011	43.42
833.182	41.28
833.354	38.15
833.525	37.25
833.697	37.04
833.868	38.48
834.039	38.14
834.211	37.08
834.382	35.95
834.554	36.94
834.725	39.37
834.896	37.8
835.068	38.54
835.239	38.54
835.41	38.45
835.581	37.04
835.753	36.19
835.924	35.85
836.095	36.03
836.266	36.09
836.438	34.98
836.609	35.72
836.78	38.61
836.951	40.08
837.122	39.72
837.293	41.29
837.464	42.51
837.635	41.21
837.806	42.23
837.977	40.92
838.148	42.26
838.319	43.93
838.49	41.36
838.661	36.66
838.832	36.57
839.003	36.4
839.174	34.88
839.345	35.52
839.516	34.52
839.687	33.36
839.857	32.37
840.028	36.18
840.199	34.4
840.37	32.21
840.54	34.52
840.711	31.21
840.882	33.01
841.053	29.64
841.223	29.74
841.394	31.02
841.564	31.1
841.735	30.25
841.906	27.88
842.076	29.71
842.247	36.63
842.417	33.11
842.588	34.09
842.758	31.81
842.929	31.27
843.099	27.3
843.27	30.66
843.44	32.01
843.611	39.2
843.781	34.69
843.951	29.43
844.122	24.47
844.292	27.59
844.462	25.99
844.633	35.37
844.803	39.22
844.973	42.7
845.144	37.54
845.314	31.68
845.484	21.94
845.654	25.87
845.824	31.1
845.995	31
846.165	35.38
846.335	33.34
846.505	24.89
846.675	32.1
846.845	31.49
847.015	35.65
847.185	42.86
847.355	53.08
847.525	53.77
847.695	44.66
847.865	43.44
848.035	41.9
848.205	38.49
848.375	41.16
848.545	33.62
848.715	32.68
848.884	31.92
849.054	32.59
849.224	27.21
849.394	25.91
849.564	35.5
849.733	30.8
849.903	32.55
850.073	29.2
850.243	22.9
850.412	23.51
850.582	22.38
850.752	23.42
850.921	23.35
851.091	23.56
851.26	20.02
851.43	10.33
851.599	9.09
851.769	7.07
851.939	19.35
852.108	26.36
852.278	31.51
852.447	36.37
852.616	30.18
852.786	29.45
852.955	27.41
853.125	30.94
853.294	40.22
853.463	43.84
853.633	41.18
853.802	34.59
853.971	41.41
854.141	34.74
854.31	27.69
854.479	34
854.648	30.49
854.818	37.68
854.987	39.99
855.156	39.24
855.325	42.91
855.494	42.4
855.663	47.04
855.832	44.25
856.001	44.22
856.171	48.98
856.34	45.38
856.509	41.03
856.678	41.2
856.847	40.41
857.016	41.01
857.185	42.86
857.353	43.34
857.522	37.06
857.691	24.18
857.86	22.13
858.029	13.47
858.198	18.75
858.367	32.73
858.535	20.38
858.704	22.56
858.873	28.53
859.042	23.15
859.21	21.45
859.379	22.36
859.548	29.73
859.717	38.03
859.885	48.11
860.054	52.91
860.222	52.67
860.391	59.35
860.56	61.53
860.728	55.25
860.897	50.46
861.065	54.01
861.234	59.34
861.402	59.8
861.571	59.07
861.739	60.7
861.908	64.3
862.076	61.4
862.244	57.72
862.413	49.51
862.581	49.2
862.749	50.26
862.918	55.11
863.086	50.41
863.254	47.05
863.423	48.69
863.591	40.01
863.759	34.6
863.927	31.76
864.096	33.7
864.264	29.35
864.432	34.75
864.6	42.59
864.768	26.32
864.936	26.44
865.104	33.94
865.272	30.11
865.44	30.19
865.608	32.21
865.776	36.25
865.944	27.43
866.112	31.03
866.28	34.22
866.448	32.48
866.616	35.6
866.784	35.02
866.952	30.92
867.12	25.98
867.288	26.32
867.455	26.68
867.623	28.36
867.791	35.02
867.959	46.67
868.127	37.4
868.294	33.62
868.462	34.81
868.63	37.63
868.797	48.17
868.965	39.79
869.133	45.64
869.3	41.18
869.468	40.98
869.636	43.11
869.803	34.8
869.971	44.59
870.138	45.38
870.306	46.26
870.473	43.83
870.641	31.89
870.808	43.28
870.975	36.94
871.143	40.25
871.31	36.34
871.478	39.11
871.645	34.4
871.812	12.67
871.98	17.29
872.147	18.91
872.314	26.66
872.482	27.29
872.649	8.37
872.816	18.32
872.983	12.43
873.15	16.12
873.318	11.79
873.485	24.22
873.652	27.71
873.819	27.91
873.986	28.55
874.153	22.03
874.32	20.4
874.487	28.51
874.654	27.84
874.821	33.67
874.988	36.96
875.155	35.67
875.322	23.07
875.489	33.46
875.656	31.45
875.823	31.09
875.99	33.06
876.157	44.36
876.324	49.76
876.49	49.6
876.657	45.55
876.824	46.54
876.991	43.74
877.157	50.17
877.324	40.93
877.491	38.61
877.658	29.73
877.824	24.9
877.991	25.75
878.157	25.13
878.324	21.74
878.491	4.84
878.657	9.48
878.824	13.2
878.99	18.92
879.157	20.19
879.323	20.56
879.49	29.64
879.656	32.6
879.823	33.12
879.989	26.12
880.156	29.4
880.322	36.23
880.488	31.85
880.655	30.38
880.821	28.61
880.987	31.97
881.154	39.56
881.32	35.15
881.486	39.2
881.652	35.21
881.819	37.15
881.985	33.32
882.151	33.68
882.317	34.01
882.483	33.64
882.649	32.43
882.816	34.15
882.982	32.21
883.148	32.31
883.314	32.94
883.48	33.05
883.646	32.74
883.812	34.29
883.978	33.96
884.144	36
884.31	37.11
884.476	38.89
884.642	38.56
884.807	39.82
884.973	39.93
885.139	39.53
885.305	40.48
885.471	41.84
885.637	42.55
885.802	43.91
885.968	43.05
886.134	42.52
886.3	42.22
886.465	41.58
886.631	39.48
886.797	43.48
886.962	42.62
887.128	39.57
887.293	36.53
887.459	35.9
887.625	38.99
887.79	35.36
887.956	33.99
888.121	32.24
888.287	30.5
888.452	30.52
888.618	19.87
888.783	17.15
