Data from CB_037_Reflection_21-38-07-442.txt Node
Date: Wed Nov 11 21:38:07 EST 2015
User: robert
Spectrometer: USB4E03001
Autoset integration time: false
Trigger mode: 4
Integration Time (sec): 1.000000E-1
Scans to average: 15
Electric dark correction enabled: true
Nonlinearity correction enabled: false
Boxcar width: 5
Stray light correction enabled: false
XAxis mode: Wavelengths
Stop averaging: false
Number of Pixels in Spectrum: 3648
>>>>>Begin Spectral Data<<<<<
177.566	-98.63
177.785	-1709.21
178.005	344.13
178.225	435.84
178.445	9.21
178.665	5.11
178.885	11.99
179.105	-22.95
179.324	23.79
179.544	27.03
179.764	3.73
179.984	4.01
180.204	-6.99
180.423	-17.15
180.643	16.24
180.863	41.06
181.083	25.66
181.302	25.5
181.522	20.93
181.742	29.54
181.961	31.09
182.181	35.24
182.401	44.75
182.621	33.95
182.84	37.7
183.06	31.41
183.279	20.28
183.499	47.36
183.719	51.64
183.938	50.19
184.158	45.11
184.377	46.47
184.597	36.93
184.816	45.37
185.036	47.88
185.256	36.29
185.475	47.94
185.695	5.38
185.914	-46.2
186.134	-13.49
186.353	-1.68
186.572	-25.78
186.792	-30.68
187.011	-34.31
187.231	-24.51
187.45	-29.22
187.67	-31.01
187.889	-25.68
188.108	15.88
188.328	14.73
188.547	-14.73
188.766	-21.76
188.986	-12.71
189.205	-16.39
189.424	2.64
189.644	-24.6
189.863	8.31
190.082	21.58
190.302	38.65
190.521	54.64
190.74	63
190.959	82.17
191.178	72.86
191.398	59.13
191.617	63.04
191.836	63.62
192.055	42.95
192.274	18.38
192.494	2.45
192.713	-14.06
192.932	7.79
193.151	-0.48
193.37	-4.83
193.589	6.2
193.808	0.41
194.027	-4.89
194.246	6.37
194.465	37.72
194.685	34.43
194.904	41.32
195.123	44.76
195.342	4.9
195.561	5.68
195.78	-8.03
195.999	-12.77
196.218	-11.53
196.436	-9.04
196.655	-25.08
196.874	-38.04
197.093	-29.62
197.312	1.1
197.531	-12.71
197.75	5
197.969	3.1
198.188	4.65
198.407	-15.72
198.625	-12.4
198.844	-4.33
199.063	-1.85
199.282	-6.25
199.501	-3.98
199.719	-27.76
199.938	-3.21
200.157	-19.42
200.376	34.17
200.594	59.95
200.813	74.55
201.032	88.77
201.251	120.26
201.469	124.49
201.688	103.06
201.907	80.42
202.125	68.54
202.344	65.49
202.563	61.71
202.781	38.99
203	41.47
203.218	38.94
203.437	49.71
203.656	40.87
203.874	24.91
204.093	22.86
204.311	24.51
204.53	9.74
204.748	32.99
204.967	43.75
205.185	69.96
205.404	62.43
205.622	63.38
205.841	44.03
206.059	40.55
206.278	57.2
206.496	67.13
206.715	56.35
206.933	67.61
207.151	58.51
207.37	43.19
207.588	23.97
207.806	25.37
208.025	27.29
208.243	28.13
208.461	34.65
208.68	27.04
208.898	27.04
209.116	26.04
209.335	21.39
209.553	15.58
209.771	29.8
209.989	24.77
210.208	20.03
210.426	0.2
210.644	-0.88
210.862	-28.69
211.081	16.57
211.299	5.96
211.517	35.92
211.735	31.04
211.953	38.82
212.171	28.41
212.39	39.29
212.608	55.74
212.826	55.61
213.044	68.81
213.262	71.02
213.48	69.58
213.698	62.4
213.916	65.32
214.134	63.04
214.352	43.89
214.57	61.36
214.788	75.9
215.006	62.41
215.224	72.63
215.442	25.68
215.66	67.1
215.878	43.16
216.096	42.64
216.314	50.09
216.532	48.65
216.75	62.23
216.968	70.54
217.185	58.97
217.403	59.97
217.621	53.07
217.839	55.7
218.057	47.17
218.275	46.71
218.492	54.71
218.71	39.41
218.928	41.31
219.146	35.8
219.363	17.59
219.581	18.45
219.799	-9.95
220.017	-12.09
220.234	-15.17
220.452	-7.99
220.67	3.28
220.887	-18.99
221.105	-31.88
221.323	-71.43
221.54	-64.45
221.758	-19.68
221.976	-3.55
222.193	5.12
222.411	-3.4
222.629	-0.7
222.846	-8.53
223.064	-26.9
223.281	-14.61
223.499	4.37
223.716	11.64
223.934	15.72
224.151	11.15
224.369	3.58
224.586	3.64
224.804	11.99
225.021	8.49
225.239	10.93
225.456	28.25
225.674	27.24
225.891	27.97
226.108	34.91
226.326	16.17
226.543	11.16
226.76	18.85
226.978	19.27
227.195	21.08
227.413	18.16
227.63	22.72
227.847	19.68
228.064	18.48
228.282	14.17
228.499	12.33
228.716	15.46
228.934	16.61
229.151	9.56
229.368	9.67
229.585	9.51
229.802	9.15
230.02	5.83
230.237	3.64
230.454	4.23
230.671	5.41
230.888	5.77
231.105	2.21
231.323	1.07
231.54	8.03
231.757	5.32
231.974	4
232.191	3.67
232.408	6.85
232.625	8.51
232.842	6.98
233.059	10.13
233.276	9.53
233.493	16.07
233.71	17.67
233.927	16.39
234.144	18.06
234.361	16.79
234.578	17.26
234.795	20.72
235.012	21.6
235.229	19.71
235.446	19.01
235.663	20.01
235.879	22.41
236.096	14.1
236.313	17.94
236.53	19.51
236.747	21.99
236.964	20.73
237.181	17.48
237.397	16.86
237.614	20.71
237.831	17.94
238.048	21.31
238.264	14.53
238.481	21.64
238.698	18.06
238.915	18.33
239.131	17.55
239.348	16.2
239.565	15
239.781	15.1
239.998	17.66
240.215	18.32
240.431	14.75
240.648	18.8
240.865	15.78
241.081	15.38
241.298	16.11
241.514	14.86
241.731	18.8
241.947	16.6
242.164	16.96
242.38	14.98
242.597	13.81
242.814	14.48
243.03	12.99
243.246	14.34
243.463	15.63
243.679	15.35
243.896	18.15
244.112	16.34
244.329	20.06
244.545	17.57
244.762	18.43
244.978	20.47
245.194	19.01
245.411	18.88
245.627	20.43
245.843	20.48
246.06	18.7
246.276	15.55
246.492	13.74
246.709	12.57
246.925	15.45
247.141	14.61
247.357	13.51
247.574	13.69
247.79	13.25
248.006	12.37
248.222	11.65
248.439	11.48
248.655	13.02
248.871	13.15
249.087	12.97
249.303	11.45
249.519	10.81
249.736	10.81
249.952	10.51
250.168	12.09
250.384	12.12
250.6	11.02
250.816	11.34
251.032	8.83
251.248	10.76
251.464	10.42
251.68	10.79
251.896	12.18
252.112	12
252.328	12.1
252.544	10.91
252.76	12.15
252.976	13.4
253.192	13.27
253.408	13.97
253.624	15.59
253.84	15.1
254.056	15.64
254.272	17.53
254.487	18.72
254.703	19.71
254.919	21.68
255.135	19.68
255.351	16.82
255.567	19.07
255.782	17.95
255.998	15.17
256.214	14.72
256.43	17.6
256.646	15.31
256.861	11.29
257.077	10.61
257.293	8.36
257.508	9.45
257.724	10.03
257.94	10.13
258.155	9.78
258.371	9.62
258.587	10.9
258.802	8.86
259.018	8.94
259.234	9.75
259.449	9.86
259.665	9.72
259.88	8.87
260.096	8.89
260.312	8.02
260.527	8.65
260.743	9.2
260.958	8.58
261.174	7.87
261.389	7.52
261.605	7.71
261.82	7.44
262.036	8.65
262.251	9.75
262.466	11.49
262.682	12.85
262.897	11.93
263.113	10.99
263.328	12
263.543	12
263.759	10.7
263.974	11.63
264.189	11.98
264.405	11.51
264.62	10.18
264.835	8.73
265.051	6.78
265.266	7.12
265.481	6.94
265.696	6.5
265.912	7.77
266.127	11.18
266.342	11.46
266.557	9.55
266.773	9.03
266.988	9.44
267.203	7.59
267.418	8.43
267.633	8.98
267.848	8.64
268.064	7.7
268.279	8.38
268.494	6.94
268.709	7.19
268.924	9.24
269.139	9.33
269.354	9.86
269.569	10.41
269.784	11.34
269.999	9.44
270.214	9.69
270.429	11.07
270.644	10.46
270.859	10.78
271.074	9.45
271.289	9.58
271.504	9.14
271.719	8.74
271.934	9.44
272.149	9.16
272.363	10.44
272.578	10.47
272.793	10.09
273.008	9.06
273.223	8.28
273.438	8.79
273.653	8.74
273.867	9.12
274.082	8.88
274.297	8.85
274.512	9.03
274.726	7.57
274.941	8.01
275.156	8.08
275.371	9.43
275.585	9.53
275.8	8.97
276.015	8.4
276.229	7.79
276.444	7.68
276.659	6.61
276.873	6.8
277.088	7.93
277.302	6.21
277.517	6.51
277.732	6.66
277.946	5.83
278.161	6.32
278.375	6.37
278.59	7.05
278.804	6
279.019	6.16
279.233	5.19
279.448	4.71
279.662	6.39
279.877	7.18
280.091	7.31
280.306	8.73
280.52	8.78
280.735	8.84
280.949	8.67
281.163	10.6
281.378	9.87
281.592	9.54
281.806	10.48
282.021	9.62
282.235	8.91
282.449	9.02
282.664	8.71
282.878	8.49
283.092	9.22
283.307	10.04
283.521	8.06
283.735	9.82
283.949	11.51
284.164	12.14
284.378	13.24
284.592	13.45
284.806	13.59
285.02	13.03
285.234	12.86
285.449	12.19
285.663	11.25
285.877	12.16
286.091	11.93
286.305	10.77
286.519	9.84
286.733	9.76
286.947	9.94
287.161	9.46
287.375	10.09
287.589	10.59
287.803	10.28
288.017	10.7
288.231	11.67
288.445	11.87
288.659	11.87
288.873	12.36
289.087	11.73
289.301	11.13
289.515	11.29
289.729	10.88
289.943	9.78
290.157	10.53
290.371	9.72
290.584	9.46
290.798	9.74
291.012	10.23
291.226	10.59
291.44	10.2
291.654	10.58
291.867	9.44
292.081	9.61
292.295	11.37
292.509	10.06
292.722	10.28
292.936	9.2
293.15	8.41
293.364	8.5
293.577	7.86
293.791	8.84
294.005	6.88
294.218	7.96
294.432	9.05
294.645	8.81
294.859	8.49
295.073	8.44
295.286	8.42
295.5	8.42
295.713	7.93
295.927	7.24
296.14	7.66
296.354	8.54
296.568	8.6
296.781	8.73
296.994	8.63
297.208	9.83
297.421	10.17
297.635	10.47
297.848	10.45
298.062	10.7
298.275	11.48
298.489	11.23
298.702	11.97
298.915	12.1
299.129	12.24
299.342	11.84
299.555	12.53
299.769	13.65
299.982	14.63
300.195	14.66
300.409	15.43
300.622	15.26
300.835	14.58
301.048	14.36
301.262	15
301.475	14.44
301.688	14.98
301.901	13.57
302.115	13.01
302.328	12.68
302.541	13.17
302.754	12.26
302.967	13.13
303.18	14.45
303.393	14.48
303.607	14.28
303.82	14.04
304.033	13.58
304.246	14.05
304.459	14.83
304.672	13.99
304.885	14.46
305.098	14.78
305.311	15.11
305.524	14.14
305.737	12.63
305.95	12.06
306.163	12.86
306.376	13.88
306.589	13.4
306.802	12.36
307.015	13.47
307.228	12.69
307.44	12.73
307.653	12.01
307.866	12.13
308.079	13.62
308.292	14.17
308.505	13.49
308.718	13.51
308.93	14.46
309.143	14.03
309.356	13.3
309.569	13.45
309.781	13.14
309.994	12.93
310.207	13.14
310.42	13.73
310.632	14.12
310.845	13.78
311.058	14.09
311.27	13.55
311.483	13
311.696	12.19
311.908	13.08
312.121	12.93
312.333	13.04
312.546	13.1
312.759	12.31
312.971	11.19
313.184	12.41
313.396	10.85
313.609	11.43
313.821	12.71
314.034	13.79
314.246	13.18
314.459	13.53
314.671	13.13
314.884	14.1
315.096	14.35
315.309	14.04
315.521	12.16
315.733	11.95
315.946	10.62
316.158	10.44
316.371	10.89
316.583	8.83
316.795	9.06
317.008	9.24
317.22	9.44
317.432	9.68
317.644	10.6
317.857	12.28
318.069	13
318.281	12.62
318.494	12.66
318.706	12.95
318.918	15.04
319.13	15.59
319.342	15.12
319.555	13.76
319.767	12.93
319.979	13.58
320.191	11.94
320.403	14.03
320.615	14.48
320.827	14.03
321.039	12.91
321.252	11.73
321.464	10.92
321.676	11.42
321.888	12.14
322.1	13.21
322.312	13.65
322.524	14.93
322.736	13.22
322.948	14.09
323.16	14.17
323.372	14.3
323.584	14.3
323.796	14.86
324.007	15.25
324.219	16.05
324.431	15.24
324.643	14.51
324.855	14.79
325.067	15.81
325.279	16.12
325.491	17.33
325.702	17.97
325.914	18.21
326.126	18.26
326.338	17.27
326.55	16.56
326.761	17.59
326.973	18.07
327.185	17.76
327.396	16.85
327.608	16.23
327.82	15.59
328.032	16.06
328.243	17.35
328.455	17.81
328.666	19.5
328.878	19.43
329.09	18.85
329.301	18.71
329.513	18.7
329.725	17.72
329.936	18.92
330.148	18.04
330.359	17.29
330.571	17.22
330.782	17.4
330.994	17.41
331.205	18.5
331.417	19.1
331.628	19.99
331.84	20.38
332.051	22.19
332.262	22.09
332.474	23.73
332.685	25.23
332.897	24.63
333.108	24.92
333.319	24.22
333.531	24.33
333.742	24.59
333.953	24.37
334.165	24.76
334.376	24.99
334.587	25.45
334.799	25.35
335.01	25.62
335.221	26.45
335.432	25.6
335.644	25.54
335.855	25.53
336.066	25.83
336.277	25.8
336.488	25.4
336.7	24.86
336.911	24.4
337.122	23.93
337.333	23.1
337.544	22.76
337.755	23.69
337.966	24.37
338.177	23.55
338.388	22.71
338.599	22.66
338.811	22.38
339.022	22.35
339.233	22.11
339.444	22.57
339.655	22.62
339.866	22.48
340.076	21.49
340.287	22.06
340.498	22.72
340.709	23.25
340.92	23.62
341.131	23.83
341.342	24.19
341.553	24.54
341.764	24.46
341.975	23.94
342.185	23.61
342.396	23.96
342.607	23.32
342.818	23.05
343.029	22.4
343.239	22.32
343.45	22.87
343.661	22.23
343.872	21.54
344.082	21.58
344.293	22.22
344.504	22.25
344.714	22.5
344.925	22.19
345.136	22.2
345.346	22.64
345.557	21.79
345.768	21.05
345.978	21.83
346.189	22.69
346.399	22.25
346.61	22.74
346.821	22.61
347.031	22.34
347.242	22.15
347.452	22.51
347.663	22.38
347.873	23.39
348.084	23.95
348.294	23.81
348.504	22.9
348.715	23.34
348.925	22.79
349.136	22.67
349.346	22.53
349.557	23.05
349.767	22.76
349.977	23.01
350.188	21.87
350.398	21.5
350.608	21.19
350.819	21.58
351.029	21.05
351.239	20.17
351.449	20.82
351.66	20.46
351.87	20.51
352.08	20.26
352.29	20.82
352.501	21.8
352.711	22.37
352.921	22.88
353.131	23.39
353.341	24.05
353.552	25.38
353.762	24.9
353.972	25.34
354.182	25.07
354.392	25.77
354.602	24.74
354.812	24.28
355.022	23.27
355.232	22.9
355.442	22.55
355.652	22.32
355.862	21.52
356.072	21.09
356.282	21.09
356.492	21.77
356.702	21.2
356.912	21.42
357.122	21.35
357.332	22.33
357.542	22.28
357.752	22.42
357.962	22.12
358.171	22.14
358.381	22.56
358.591	22.4
358.801	21.97
359.011	21.93
359.221	21.71
359.43	22.4
359.64	21.83
359.85	21.75
360.06	21.09
360.269	21.23
360.479	21.01
360.689	21.21
360.899	21.34
361.108	21.48
361.318	21.59
361.528	21.7
361.737	21.1
361.947	21.27
362.156	21.29
362.366	21.93
362.576	21.72
362.785	22.33
362.995	22.13
363.204	22.09
363.414	22.09
363.623	21.95
363.833	21.78
364.042	21.82
364.252	22.28
364.461	22.18
364.671	21.98
364.88	22.05
365.09	21.33
365.299	21.75
365.509	21.56
365.718	21.34
365.927	21.06
366.137	21.2
366.346	21.53
366.555	21.54
366.765	21.46
366.974	21.25
367.183	21.02
367.393	21.6
367.602	21.25
367.811	21.08
368.021	21.15
368.23	21
368.439	21.08
368.648	20.71
368.857	19.87
369.067	19.34
369.276	19.35
369.485	19.16
369.694	18.6
369.903	18.61
370.112	18.99
370.321	18.66
370.531	18.77
370.74	18.5
370.949	18.28
371.158	18.03
371.367	18.22
371.576	17.89
371.785	18.35
371.994	18.66
372.203	18.12
372.412	17.95
372.621	17.51
372.83	17.1
373.039	17.12
373.248	17.24
373.457	17.68
373.666	17.83
373.874	17.67
374.083	16.89
374.292	16.24
374.501	16.52
374.71	15.86
374.919	16.51
375.128	17.13
375.336	17.16
375.545	16.95
375.754	16.93
375.963	16.84
376.171	17.2
376.38	17.44
376.589	17.67
376.798	17.34
377.006	17.36
377.215	16.97
377.424	16.65
377.632	16.03
377.841	15.73
378.05	15.01
378.258	14.72
378.467	14.41
378.675	14.42
378.884	14.26
379.093	14.03
379.301	13.89
379.51	13.81
379.718	13.98
379.927	14.12
380.135	14.19
380.344	14.43
380.552	14.59
380.761	14.49
380.969	14.15
381.177	14.05
381.386	14.51
381.594	14.61
381.803	14.41
382.011	13.88
382.219	14.26
382.428	14.39
382.636	14.06
382.845	13.92
383.053	14.09
383.261	14.44
383.469	14.01
383.678	13.42
383.886	13.08
384.094	13.06
384.302	13.43
384.511	12.98
384.719	12.39
384.927	12.56
385.135	12.68
385.343	12.31
385.552	12.13
385.76	12.28
385.968	12.07
386.176	12
386.384	12.01
386.592	11.87
386.8	12.21
387.008	12.59
387.216	12.57
387.424	12.54
387.633	12.41
387.841	12.25
388.049	12.16
388.257	12.62
388.465	12.84
388.672	12.76
388.88	12.88
389.088	12.19
389.296	11.62
389.504	11.17
389.712	11.12
389.92	11.15
390.128	11.07
390.336	11.11
390.544	10.87
390.751	10.95
390.959	10.98
391.167	10.55
391.375	10.64
391.583	11.16
391.79	11.41
391.998	11.04
392.206	11.11
392.414	11.09
392.621	10.79
392.829	10.87
393.037	10.59
393.244	10.39
393.452	10.45
393.66	10.33
393.867	10.12
394.075	9.97
394.283	10.07
394.49	10.11
394.698	9.81
394.905	10.26
395.113	9.93
395.32	9.91
395.528	10.24
395.735	10.08
395.943	10.21
396.15	9.94
396.358	9.86
396.565	10.04
396.773	9.65
396.98	9.8
397.188	9.56
397.395	9.55
397.602	9.63
397.81	9.28
398.017	9.14
398.225	9.25
398.432	9.48
398.639	9.67
398.847	9.18
399.054	9.54
399.261	9.5
399.468	9.59
399.676	9.64
399.883	9.47
400.09	9.33
400.297	9.72
400.505	9.39
400.712	9.28
400.919	9.1
401.126	9.17
401.333	8.62
401.54	8.59
401.748	8.19
401.955	8.22
402.162	8.59
402.369	8.74
402.576	8.3
402.783	8.42
402.99	8.1
403.197	7.81
403.404	8.03
403.611	8.5
403.818	8.25
404.025	8.38
404.232	8.65
404.439	8.42
404.646	8.02
404.853	8.05
405.06	8.04
405.267	8.18
405.474	8.14
405.681	7.86
405.887	7.92
406.094	8.14
406.301	8.06
406.508	7.83
406.715	7.82
406.922	8.19
407.128	8.42
407.335	8.34
407.542	8.38
407.749	8.74
407.955	8.65
408.162	8.35
408.369	8.02
408.575	7.81
408.782	7.84
408.989	7.9
409.195	7.45
409.402	7.01
409.609	6.89
409.815	6.97
410.022	6.78
410.228	7.12
410.435	7.03
410.642	7.23
410.848	7.33
411.055	7.44
411.261	7.1
411.468	7.2
411.674	7.37
411.881	7.38
412.087	7.24
412.294	7.39
412.5	7.37
412.706	7.34
412.913	7.42
413.119	7.6
413.326	7.28
413.532	7.33
413.738	7.68
413.945	7.5
414.151	7.49
414.357	7.46
414.564	7.33
414.77	7.2
414.976	7.14
415.182	7.25
415.389	7.21
415.595	7.09
415.801	7.12
416.007	6.98
416.214	6.97
416.42	7.01
416.626	7.14
416.832	7.09
417.038	7.23
417.244	7.26
417.45	7.1
417.657	7.05
417.863	7.23
418.069	7.17
418.275	7.14
418.481	7.29
418.687	7.39
418.893	7.29
419.099	7.36
419.305	7.03
419.511	7.02
419.717	7.15
419.923	7.05
420.129	6.98
420.335	7.14
420.541	7.14
420.746	7.03
420.952	6.86
421.158	6.83
421.364	6.81
421.57	6.84
421.776	6.83
421.982	6.7
422.187	6.79
422.393	6.75
422.599	6.5
422.805	6.32
423.01	6.34
423.216	6.35
423.422	6.28
423.628	6.11
423.833	6.12
424.039	6.27
424.245	6.38
424.45	6.25
424.656	6.29
424.862	6.41
425.067	6.61
425.273	6.65
425.478	6.73
425.684	6.82
425.889	6.93
426.095	7.04
426.301	6.91
426.506	6.97
426.712	7.02
426.917	7.03
427.123	6.87
427.328	6.66
427.533	6.44
427.739	6.37
427.944	6.37
428.15	6.4
428.355	6.44
428.561	6.34
428.766	6.08
428.971	6.17
429.177	6.07
429.382	6.23
429.587	6.3
429.793	6.52
429.998	6.53
430.203	6.21
430.408	6.12
430.614	6.06
430.819	5.93
431.024	6.07
431.229	6.19
431.434	6.13
431.64	6.16
431.845	6.33
432.05	6.22
432.255	6.14
432.46	6.41
432.665	6.4
432.87	6.39
433.076	6.69
433.281	6.67
433.486	6.31
433.691	6.37
433.896	6.31
434.101	6.09
434.306	6.18
434.511	6.13
434.716	6.07
434.921	6.12
435.126	6.06
435.331	5.85
435.535	5.71
435.74	5.85
435.945	5.83
436.15	6.08
436.355	6.17
436.56	6
436.765	5.93
436.97	5.98
437.174	6.11
437.379	6.11
437.584	6.13
437.789	6.24
437.993	6.46
438.198	6.38
438.403	6.2
438.608	6.13
438.812	6.25
439.017	6.52
439.222	6.51
439.426	6.39
439.631	6.35
439.836	6.54
440.04	6.33
440.245	6.14
440.45	6.23
440.654	6.26
440.859	6.43
441.063	6.41
441.268	6.32
441.472	6.37
441.677	6.29
441.881	6.44
442.086	6.29
442.29	6.38
442.495	6.53
442.699	6.51
442.904	6.4
443.108	6.12
443.312	6.12
443.517	6.14
443.721	6.14
443.925	6.09
444.13	5.95
444.334	5.84
444.538	5.97
444.743	5.82
444.947	5.68
445.151	5.78
445.356	5.99
445.56	5.92
445.764	6.12
445.968	6.04
446.173	6.21
446.377	6.38
446.581	6.49
446.785	6.42
446.989	6.4
447.193	6.63
447.398	6.54
447.602	6.37
447.806	6.42
448.01	6.25
448.214	6.19
448.418	6.15
448.622	5.97
448.826	5.82
449.03	5.86
449.234	5.88
449.438	5.75
449.642	5.8
449.846	6
450.05	6.15
450.254	6.06
450.458	6.24
450.662	6.18
450.866	6.15
451.069	6.12
451.273	5.96
451.477	5.86
451.681	5.86
451.885	5.76
452.089	5.58
452.292	5.54
452.496	5.49
452.7	5.45
452.904	5.53
453.107	5.77
453.311	5.85
453.515	5.95
453.719	6.09
453.922	5.91
454.126	6.16
454.33	6.28
454.533	6.3
454.737	6.47
454.94	6.49
455.144	6.36
455.348	6.31
455.551	6.35
455.755	6.25
455.958	6.34
456.162	6.52
456.365	6.57
456.569	6.63
456.772	6.69
456.976	6.48
457.179	6.47
457.383	6.53
457.586	6.31
457.79	6.39
457.993	6.38
458.196	6.26
458.4	6.07
458.603	5.86
458.807	5.85
459.01	5.69
459.213	5.73
459.417	5.79
459.62	5.92
459.823	5.99
460.026	5.97
460.23	6.09
460.433	6.1
460.636	6.19
460.839	6.28
461.042	6.31
461.246	6.34
461.449	6.44
461.652	6.35
461.855	6.18
462.058	6.13
462.261	6.07
462.464	6.06
462.668	5.98
462.871	6.13
463.074	5.9
463.277	5.83
463.48	5.8
463.683	5.9
463.886	5.83
464.089	6.06
464.292	6.16
464.495	6.04
464.698	6.12
464.901	6.12
465.104	6.03
465.306	6.08
465.509	6.02
465.712	6.03
465.915	5.79
466.118	5.89
466.321	5.82
466.524	5.74
466.726	5.67
466.929	5.52
467.132	5.64
467.335	5.56
467.538	5.83
467.74	6.12
467.943	6.16
468.146	6.17
468.348	6.29
468.551	6.11
468.754	6.26
468.956	6.19
469.159	6.03
469.362	5.85
469.564	5.97
469.767	5.83
469.969	5.6
470.172	5.5
470.375	5.61
470.577	5.59
470.78	5.63
470.982	5.51
471.185	5.97
471.387	6.15
471.59	6.33
471.792	6.27
471.995	6.1
472.197	6.17
472.399	6.21
472.602	6.32
472.804	6.36
473.007	6.45
473.209	6.51
473.411	6.36
473.614	6.19
473.816	6.07
474.018	6.16
474.22	6.32
474.423	6.26
474.625	6.24
474.827	6.19
475.03	6.08
475.232	6.2
475.434	6.14
475.636	5.92
475.838	6.18
476.04	6.12
476.243	5.93
476.445	5.93
476.647	5.97
476.849	5.99
477.051	5.99
477.253	5.95
477.455	5.76
477.657	5.65
477.859	5.82
478.061	5.83
478.263	5.82
478.465	5.89
478.667	5.76
478.869	5.78
479.071	5.78
479.273	5.78
479.475	5.86
479.677	5.91
479.879	5.97
480.081	6.01
480.283	5.9
480.485	6.28
480.686	6.33
480.888	6.4
481.09	6.4
481.292	6.46
481.494	6.32
481.695	6.15
481.897	6.21
482.099	6.22
482.301	6.1
482.502	6.05
482.704	5.99
482.906	5.87
483.107	5.9
483.309	5.84
483.511	5.78
483.712	5.83
483.914	5.88
484.115	5.81
484.317	5.76
484.519	5.83
484.72	5.9
484.922	5.85
485.123	5.93
485.325	5.87
485.526	5.91
485.728	5.97
485.929	5.93
486.131	5.91
486.332	5.96
486.534	6.01
486.735	5.93
486.936	5.82
487.138	5.86
487.339	5.78
487.541	5.87
487.742	5.8
487.943	5.79
488.144	5.77
488.346	5.78
488.547	5.79
488.748	5.74
488.95	5.75
489.151	5.75
489.352	5.73
489.553	5.77
489.755	5.73
489.956	5.73
490.157	5.7
490.358	5.84
490.559	5.83
490.76	5.7
490.961	5.83
491.163	5.81
491.364	5.83
491.565	5.78
491.766	5.85
491.967	5.88
492.168	5.93
492.369	5.9
492.57	5.7
492.771	5.74
492.972	5.87
493.173	5.77
493.374	5.83
493.575	5.78
493.776	5.75
493.976	5.67
494.177	5.63
494.378	5.67
494.579	5.73
494.78	5.9
494.981	5.78
495.182	5.76
495.382	5.97
495.583	5.96
495.784	6.06
495.985	6.1
496.185	6.11
496.386	6.16
496.587	6.13
496.788	6
496.988	5.98
497.189	6.1
497.39	6.07
497.59	6.09
497.791	6.12
497.992	6.19
498.192	6.25
498.393	6.18
498.593	6.26
498.794	6.22
498.994	6.36
499.195	6.34
499.395	6.33
499.596	6.3
499.796	6.1
499.997	6.18
500.197	6.34
500.398	6.31
500.598	6.39
500.799	6.27
500.999	6.32
501.199	6.23
501.4	6.37
501.6	6.34
501.801	6.41
502.001	6.49
502.201	6.41
502.402	6.3
502.602	6.39
502.802	6.33
503.002	6.39
503.203	6.38
503.403	6.55
503.603	6.67
503.803	6.89
504.003	6.9
504.204	6.99
504.404	7.05
504.604	6.86
504.804	7.02
505.004	7.33
505.204	7.49
505.404	7.56
505.604	7.53
505.804	7.64
506.005	7.61
506.205	7.73
506.405	7.79
506.605	7.77
506.805	8.01
507.005	7.94
507.204	7.66
507.404	7.63
507.604	7.62
507.804	7.72
508.004	7.64
508.204	7.65
508.404	7.67
508.604	7.75
508.804	7.85
509.003	7.95
509.203	7.96
509.403	8.11
509.603	8.26
509.803	8.29
510.002	8.42
510.202	8.49
510.402	8.73
510.602	8.97
510.801	8.96
511.001	9.15
511.201	9.19
511.4	9.37
511.6	9.57
511.8	9.49
511.999	9.67
512.199	9.62
512.398	9.66
512.598	9.69
512.797	9.57
512.997	9.93
513.197	9.87
513.396	9.95
513.596	9.85
513.795	9.77
513.994	9.96
514.194	10
514.393	10.21
514.593	10.38
514.792	10.38
514.992	10.48
515.191	10.32
515.39	10.4
515.59	10.46
515.789	10.57
515.988	10.81
516.188	10.83
516.387	11
516.586	11.17
516.786	11.24
516.985	11.46
517.184	11.45
517.383	11.61
517.582	11.85
517.782	11.92
517.981	12.1
518.18	12.17
518.379	12.4
518.578	12.53
518.777	12.42
518.976	12.52
519.176	12.46
519.375	12.69
519.574	12.73
519.773	12.81
519.972	12.88
520.171	12.94
520.37	13.1
520.569	13.03
520.768	13.1
520.967	13.47
521.166	13.63
521.365	13.9
521.564	14.1
521.762	14.27
521.961	14.33
522.16	14.58
522.359	14.75
522.558	14.82
522.757	15
522.956	15.13
523.154	15.17
523.353	15.23
523.552	15.33
523.751	15.43
523.949	15.53
524.148	15.6
524.347	15.78
524.546	16.03
524.744	16.23
524.943	16.34
525.142	16.53
525.34	16.65
525.539	16.8
525.737	16.89
525.936	16.95
526.135	17.11
526.333	17.35
526.532	17.43
526.73	17.47
526.929	17.55
527.127	17.71
527.326	17.77
527.524	17.94
527.723	18.12
527.921	18.25
528.12	18.4
528.318	18.55
528.516	18.59
528.715	18.72
528.913	18.86
529.112	19.01
529.31	18.99
529.508	19.1
529.707	19.2
529.905	19.22
530.103	19.26
530.301	19.32
530.5	19.44
530.698	19.61
530.896	19.71
531.094	19.84
531.293	19.86
531.491	20.17
531.689	20.35
531.887	20.47
532.085	20.7
532.283	20.92
532.481	21.07
532.68	21.12
532.878	21.29
533.076	21.45
533.274	21.5
533.472	21.65
533.67	21.73
533.868	21.83
534.066	21.98
534.264	22.07
534.462	22.2
534.66	22.31
534.858	22.49
535.056	22.6
535.253	22.72
535.451	22.81
535.649	22.94
535.847	23.14
536.045	23.25
536.243	23.18
536.441	23.26
536.638	23.41
536.836	23.5
537.034	23.43
537.232	23.43
537.43	23.46
537.627	23.64
537.825	23.84
538.023	23.84
538.22	23.92
538.418	24.13
538.616	24.15
538.813	24.35
539.011	24.49
539.209	24.83
539.406	24.96
539.604	25.21
539.801	25.35
539.999	25.35
540.196	25.63
540.394	25.68
540.591	25.85
540.789	26.05
540.986	25.97
541.184	25.99
541.381	26.09
541.579	26.2
541.776	26.18
541.974	26.23
542.171	26.28
542.368	26.33
542.566	26.45
542.763	26.44
542.96	26.46
543.158	26.63
543.355	26.8
543.552	26.81
543.75	26.96
543.947	26.99
544.144	27.09
544.341	27.23
544.539	27.3
544.736	27.39
544.933	27.51
545.13	27.69
545.327	27.85
545.524	27.96
545.722	28.01
545.919	27.94
546.116	28.09
546.313	28.19
546.51	28.28
546.707	28.31
546.904	28.47
547.101	28.66
547.298	28.77
547.495	28.6
547.692	28.5
547.889	28.54
548.086	28.7
548.283	28.9
548.48	29.01
548.677	29.16
548.874	29.27
549.07	29.28
549.267	29.3
549.464	29.39
549.661	29.7
549.858	29.84
550.055	29.98
550.251	30.06
550.448	30.14
550.645	30.27
550.842	30.3
551.038	30.31
551.235	30.41
551.432	30.53
551.628	30.47
551.825	30.48
552.022	30.67
552.218	30.65
552.415	30.78
552.612	30.83
552.808	30.84
553.005	30.77
553.201	30.88
553.398	30.86
553.594	30.73
553.791	30.86
553.987	30.81
554.184	30.78
554.38	30.84
554.577	30.66
554.773	30.7
554.97	30.77
555.166	30.88
555.362	30.94
555.559	31.04
555.755	31.02
555.952	31.25
556.148	31.55
556.344	31.58
556.541	31.7
556.737	31.81
556.933	31.9
557.129	31.77
557.326	31.74
557.522	31.92
557.718	31.93
557.914	32.25
558.11	32.07
558.307	31.77
558.503	31.89
558.699	31.93
558.895	32
559.091	32.06
559.287	32.23
559.483	32.17
559.679	32.18
559.876	32.39
560.072	32.63
560.268	32.53
560.464	32.87
560.66	32.96
560.856	33.1
561.052	33.19
561.247	32.99
561.443	33.21
561.639	33.33
561.835	33.29
562.031	33.14
562.227	32.78
562.423	32.84
562.619	32.75
562.815	32.72
563.01	32.81
563.206	32.96
563.402	33.36
563.598	33.13
563.793	33.24
563.989	33.17
564.185	33.37
564.381	33.67
564.576	33.94
564.772	33.95
564.968	34.06
565.163	33.87
565.359	33.88
565.555	33.8
565.75	33.78
565.946	33.83
566.141	34.07
566.337	33.84
566.532	33.85
566.728	33.74
566.923	33.81
567.119	33.84
567.314	34.16
567.51	34.08
567.705	33.98
567.901	34
568.096	34.04
568.292	33.77
568.487	33.86
568.682	34.11
568.878	34.18
569.073	34.22
569.268	34.44
569.464	34.29
569.659	34.4
569.854	34.44
570.05	34.75
570.245	34.9
570.44	35.03
570.635	35.26
570.831	35.18
571.026	35.12
571.221	35.29
571.416	35.23
571.611	35.28
571.806	35.45
572.002	35.53
572.197	35.5
572.392	35.42
572.587	35.4
572.782	35.26
572.977	35.1
573.172	35.07
573.367	34.94
573.562	34.86
573.757	34.74
573.952	34.57
574.147	34.75
574.342	34.79
574.537	34.98
574.732	35.2
574.927	35.5
575.121	35.73
575.316	36.03
575.511	36.18
575.706	36.17
575.901	36.32
576.096	36.32
576.29	36.22
576.485	36.15
576.68	35.97
576.875	35.88
577.069	35.67
577.264	35.49
577.459	35.49
577.654	35.45
577.848	35.62
578.043	35.69
578.238	35.97
578.432	35.94
578.627	35.87
578.821	36.05
579.016	36.24
579.21	36.32
579.405	36.32
579.6	36.21
579.794	36.09
579.989	36.11
580.183	36.03
580.378	36.06
580.572	36.07
580.766	36.43
580.961	36.49
581.155	36.52
581.35	36.62
581.544	36.73
581.738	36.81
581.933	36.98
582.127	37.03
582.321	37.1
582.516	36.79
582.71	37.08
582.904	36.67
583.099	36.28
583.293	36.13
583.487	36.2
583.681	36.07
583.875	36
584.07	35.93
584.264	35.9
584.458	35.92
584.652	36.01
584.846	35.52
585.04	35.78
585.234	36
585.428	36
585.623	35.94
585.817	36.03
586.011	36.07
586.205	36.12
586.399	36.2
586.593	36.54
586.787	36.5
586.981	36.61
587.174	36.59
587.368	36.83
587.562	36.89
587.756	37.01
587.95	36.96
588.144	37.14
588.338	37.21
588.532	37.47
588.725	37.43
588.919	37.46
589.113	37.64
589.307	37.57
589.501	37.66
589.694	37.78
589.888	37.69
590.082	37.83
590.275	37.69
590.469	37.71
590.663	37.37
590.856	37.18
591.05	37.26
591.244	37.24
591.437	37.32
591.631	37.35
591.824	37.23
592.018	37.3
592.212	37.23
592.405	37.28
592.599	37.41
592.792	37.37
592.986	37.47
593.179	37.62
593.372	37.91
593.566	37.93
593.759	37.61
593.953	37.85
594.146	37.85
594.339	37.72
594.533	37.73
594.726	37.75
594.92	37.71
595.113	37.73
595.306	37.55
595.499	37.2
595.693	37.15
595.886	37.24
596.079	37
596.272	37.07
596.466	37.31
596.659	37.37
596.852	37.23
597.045	37.25
597.238	37.24
597.431	37.22
597.624	37.25
597.818	37.34
598.011	37.42
598.204	37.55
598.397	37.64
598.59	37.5
598.783	37.49
598.976	37.44
599.169	37.58
599.362	37.72
599.555	37.97
599.748	38.21
599.941	38.39
600.134	38.4
600.326	38.24
600.519	38.35
600.712	38.4
600.905	38.3
601.098	38.32
601.291	38.38
601.483	38.06
601.676	37.86
601.869	37.91
602.062	37.9
602.255	37.98
602.447	38.46
602.64	38.34
602.833	38.44
603.025	38.35
603.218	38.32
603.411	38.39
603.603	38.42
603.796	38.59
603.989	38.63
604.181	38.43
604.374	38.42
604.566	38.14
604.759	38.15
604.951	38.35
605.144	38.5
605.336	38.59
605.529	38.61
605.721	38.61
605.914	38.55
606.106	38.51
606.299	38.96
606.491	38.99
606.683	39.25
606.876	39.31
607.068	39.12
607.26	39.31
607.453	39.42
607.645	39.29
607.837	39.57
608.03	39.5
608.222	39.48
608.414	39.09
608.606	39.07
608.799	39.05
608.991	38.82
609.183	38.97
609.375	38.95
609.567	38.98
609.759	39.15
609.952	39.21
610.144	39.44
610.336	39.4
610.528	39.52
610.72	39.68
610.912	39.75
611.104	40.11
611.296	40.01
611.488	39.93
611.68	39.89
611.872	39.89
612.064	39.7
612.256	40.04
612.448	40.19
612.64	40.28
612.832	40.1
613.023	39.99
613.215	39.47
613.407	39.44
613.599	39.49
613.791	39.4
613.983	39.73
614.174	39.88
614.366	39.33
614.558	39.4
614.75	39.32
614.941	39.41
615.133	39.39
615.325	39.54
615.516	39.66
615.708	39.85
615.9	40.18
616.091	39.78
616.283	39.69
616.475	39.78
616.666	39.9
616.858	39.76
617.049	39.71
617.241	39.59
617.432	39.84
617.624	39.87
617.815	39.76
618.007	39.48
618.198	39.66
618.39	39.58
618.581	39.52
618.773	39.2
618.964	39.18
619.155	39.06
619.347	39.19
619.538	39.2
619.729	39.29
619.921	39.41
620.112	39.73
620.303	39.46
620.494	39.48
620.686	39.41
620.877	39.41
621.068	39.65
621.259	39.91
621.451	39.82
621.642	39.72
621.833	39.78
622.024	39.7
622.215	39.42
622.406	39.72
622.597	39.89
622.788	39.93
622.98	39.86
623.171	39.82
623.362	39.71
623.553	39.82
623.744	40.02
623.935	39.76
624.126	39.56
624.317	39.59
624.508	39.65
624.698	39.57
624.889	39.78
625.08	40
625.271	40.05
625.462	40.03
625.653	39.94
625.844	39.78
626.034	39.82
626.225	39.88
626.416	39.91
626.607	39.61
626.798	39.51
626.988	39.48
627.179	39.41
627.37	39.26
627.56	39.36
627.751	39.03
627.942	38.84
628.132	38.89
628.323	38.93
628.514	38.92
628.704	38.95
628.895	39.01
629.085	39.28
629.276	39.26
629.466	39.27
629.657	39.41
629.847	39.77
630.038	39.91
630.228	40.1
630.419	40.06
630.609	40.26
630.8	40.35
630.99	40.4
631.181	40.12
631.371	40.22
631.561	40.47
631.752	40.29
631.942	40.55
632.132	40.73
632.323	40.39
632.513	40.63
632.703	40.51
632.893	40.82
633.084	40.76
633.274	40.76
633.464	40.67
633.654	40.26
633.844	40.06
634.034	39.92
634.225	39.81
634.415	40.09
634.605	40.12
634.795	39.98
634.985	39.57
635.175	39.63
635.365	39.58
635.555	39.8
635.745	40.14
635.935	40.53
636.125	40.71
636.315	40.74
636.505	40.59
636.695	40.24
636.885	40.29
637.075	40.42
637.265	40.32
637.455	40.32
637.644	40.36
637.834	40.01
638.024	39.56
638.214	39.39
638.404	39.22
638.593	39.19
638.783	38.86
638.973	38.83
639.163	38.97
639.352	39.07
639.542	39.26
639.732	39.21
639.921	39.34
640.111	39.66
640.301	39.39
640.49	39.73
640.68	39.9
640.87	40.33
641.059	40.55
641.249	40.51
641.438	40.16
641.628	40.01
641.817	40.08
642.007	40.33
642.196	40.6
642.386	40.86
642.575	40.68
642.764	40.33
642.954	40.47
643.143	40.46
643.333	40.66
643.522	41.1
643.711	40.9
643.901	41.04
644.09	40.99
644.279	40.63
644.469	40.27
644.658	40.41
644.847	40.46
645.036	40.54
645.226	40.26
645.415	39.66
645.604	39.43
645.793	39.03
645.982	38.45
646.171	38.67
646.361	38.56
646.55	39.19
646.739	39.34
646.928	39.6
647.117	39.2
647.306	39.56
647.495	39.88
647.684	39.84
647.873	40.53
648.062	40.46
648.251	39.86
648.44	40.4
648.629	40.15
648.818	39.82
649.007	39.7
649.196	40.21
649.384	40.5
649.573	40.51
649.762	40.69
649.951	40.33
650.14	40.08
650.328	40.8
650.517	40.63
650.706	40.26
650.895	40.38
651.083	40.27
651.272	39.81
651.461	39.11
651.65	39.38
651.838	39.4
652.027	39.55
652.216	40
652.404	39.64
652.593	39.25
652.781	39.8
652.97	39.46
653.158	39.23
653.347	39.19
653.535	39.57
653.724	39.44
653.912	39.54
654.101	39.19
654.289	39.45
654.478	39.37
654.666	39.65
654.855	39.51
655.043	39.69
655.231	39.69
655.42	40.16
655.608	40.01
655.796	40.03
655.985	39.94
656.173	40.72
656.361	40.74
656.55	40.7
656.738	40.91
656.926	40.96
657.114	40.93
657.302	41.25
657.491	41.06
657.679	41.07
657.867	40.55
658.055	40.57
658.243	40.33
658.431	39.84
658.619	40.31
658.807	40.18
658.996	39.8
659.184	39.91
659.372	39.94
659.56	39.97
659.748	39.68
659.936	39.78
660.124	40.01
660.311	39.79
660.499	39.77
660.687	39.28
660.875	39.07
661.063	39.25
661.251	39.48
661.439	39.61
661.627	39.45
661.814	39.79
662.002	40.31
662.19	39.59
662.378	39.65
662.565	39.84
662.753	40.24
662.941	40.35
663.129	40.43
663.316	40.32
663.504	39.76
663.692	39.82
663.879	39.52
664.067	39.24
664.254	39.9
664.442	40.33
664.63	40.5
664.817	40.84
665.005	40.76
665.192	40.76
665.38	40.49
665.567	41.04
665.755	41.19
665.942	41.62
666.13	41.11
666.317	40.61
666.504	40.13
666.692	40.36
666.879	39.75
667.067	39.82
667.254	40.25
667.441	40.6
667.629	40.44
667.816	40.38
668.003	40.34
668.19	41.01
668.378	41.3
668.565	41.86
668.752	41.51
668.939	41.41
669.127	41.3
669.314	41.23
669.501	41.1
669.688	41.05
669.875	41.26
670.062	41.2
670.249	41.38
670.436	41.22
670.623	40.99
670.81	41.2
670.997	41.36
671.184	41.5
671.371	41.1
671.558	41.27
671.745	41.46
671.932	41.26
672.119	41
672.306	40.01
672.493	40.02
672.68	39.74
672.867	39.47
673.054	39.28
673.24	39.25
673.427	39.32
673.614	39.18
673.801	39.84
673.988	40.09
674.174	40.07
674.361	40.68
674.548	41.05
674.734	40.85
674.921	41.2
675.108	41.37
675.294	41.44
675.481	41.64
675.668	41.45
675.854	40.75
676.041	40.64
676.227	40.5
676.414	40.26
676.601	39.82
676.787	40.17
676.974	39.97
677.16	39.99
677.347	40.24
677.533	40.14
677.719	40.45
677.906	40.81
678.092	40.94
678.279	41.57
678.465	41.54
678.651	42
678.838	42.28
679.024	42.07
679.21	41.55
679.397	41.04
679.583	40.7
679.769	40.29
679.955	39.61
680.142	39.26
680.328	39.04
680.514	39.4
680.7	39.34
680.886	39.4
681.073	39.45
681.259	39.65
681.445	39.98
681.631	40.25
681.817	40.43
682.003	40.96
682.189	40.98
682.375	41.03
682.561	40.34
682.747	39.91
682.933	39.41
683.119	39.55
683.305	39.97
683.491	40.47
683.677	40.44
683.863	40.18
684.049	39.92
684.235	40.3
684.42	40.43
684.606	40.78
684.792	41.2
684.978	41.98
685.164	41.89
685.349	41.83
685.535	41.27
685.721	41.54
685.907	41.64
686.092	41.94
686.278	41.67
686.464	41.54
686.649	41.52
686.835	41.31
687.021	40.64
687.206	40.68
687.392	40.17
687.577	40.3
687.763	39.66
687.948	39.9
688.134	39.43
688.319	39.18
688.505	39.34
688.69	40.18
688.876	39.83
689.061	39.77
689.247	39.34
689.432	39.88
689.618	39.54
689.803	39.97
689.988	39.86
690.174	39.42
690.359	39.49
690.544	38.89
690.73	38.3
690.915	38.83
691.1	39.03
691.285	39.93
691.471	40.24
691.656	40.36
691.841	40.11
692.026	40
692.211	40.7
692.396	40.76
692.582	40.97
692.767	40.64
692.952	40.79
693.137	40.79
693.322	40.36
693.507	39.59
693.692	39.34
693.877	39.78
694.062	40.38
694.247	40.29
694.432	40.24
694.617	40.11
694.802	40.37
694.987	39.81
695.172	39.9
695.357	40.57
695.541	40.93
695.726	41.1
695.911	40.74
696.096	40.84
696.281	40.74
696.466	41.06
696.65	41.17
696.835	41.25
697.02	42.27
697.204	41.87
697.389	41.12
697.574	41.36
697.759	41.06
697.943	40.72
698.128	40.37
698.312	40.49
698.497	40
698.682	40.01
698.866	40.08
699.051	39.64
699.235	39.86
699.42	39.5
699.604	39.11
699.789	39.25
699.973	39.5
700.158	39.27
700.342	39.39
700.527	39.71
700.711	39.94
700.895	40.07
701.08	40.15
701.264	40.08
701.448	40.53
701.633	40.79
701.817	40.99
702.001	41.33
702.186	41.85
702.37	41.43
702.554	41.59
702.738	41.35
702.923	40.64
703.107	40.62
703.291	40.58
703.475	40.75
703.659	40.52
703.843	40.26
704.027	40.3
704.212	40.41
704.396	40.18
704.58	40.09
704.764	40.05
704.948	40.1
705.132	39.65
705.316	39.33
705.5	39.66
705.684	39.87
705.868	40.5
706.052	39.68
706.235	38.95
706.419	39.69
706.603	39.71
706.787	39.48
706.971	40.04
707.155	40.25
707.339	40.64
707.522	40.58
707.706	40.6
707.89	40.8
708.074	41.71
708.257	42.14
708.441	42.02
708.625	42.43
708.808	42.91
708.992	43.01
709.176	43.02
709.359	42.84
709.543	43.12
709.727	42.5
709.91	42.54
710.094	42.55
710.277	43
710.461	43.26
710.644	43.06
710.828	43.55
711.011	43.6
711.195	43.63
711.378	43.83
711.562	43.41
711.745	43.93
711.928	42.98
712.112	41.87
712.295	41.31
712.478	40.89
712.662	40.74
712.845	40.37
713.028	40.36
713.212	40.05
713.395	39.65
713.578	39.9
713.761	39.97
713.945	40.82
714.128	42.04
714.311	41.82
714.494	41.85
714.677	41.77
714.86	41.68
715.043	41.42
715.227	41.63
715.41	41.21
715.593	40.53
715.776	39.77
715.959	39.1
716.142	38.42
716.325	38.84
716.508	38.87
716.691	39
716.874	38.95
717.057	38.7
717.239	39.07
717.422	39.43
717.605	39.55
717.788	39.44
717.971	39.26
718.154	39.41
718.337	38.59
718.519	38.01
718.702	37.55
718.885	37.28
719.068	37.09
719.25	36.59
719.433	37.14
719.616	36.84
719.798	37.52
719.981	37.48
720.164	37.47
720.346	38.09
720.529	38.29
720.712	38.33
720.894	37.52
721.077	37.95
721.259	38.1
721.442	38.43
721.624	38.76
721.807	39.39
721.989	39.93
722.172	39.56
722.354	39.78
722.537	40.18
722.719	40.57
722.901	40.03
723.084	39.4
723.266	38.9
723.448	38.03
723.631	37.74
723.813	38.16
723.995	38.32
724.178	37.95
724.36	37.51
724.542	38.13
724.724	37.36
724.907	39.07
725.089	39.32
725.271	39.99
725.453	39.68
725.635	40.04
725.817	38.39
725.999	38.4
726.181	39.21
726.364	39.67
726.546	39.86
726.728	40.26
726.91	40.22
727.092	39.91
727.274	40.09
727.456	40.33
727.638	39.96
727.819	41.08
728.001	40.3
728.183	40.58
728.365	39.78
728.547	38.77
728.729	39.52
728.911	39.55
729.093	39.58
729.274	39.86
729.456	39.57
729.638	39.76
729.82	39.87
730.001	40.43
730.183	39.76
730.365	41.32
730.546	41.58
730.728	41.55
730.91	42.07
731.091	43.13
731.273	42.68
731.455	42.88
731.636	43.07
731.818	43.4
731.999	43.37
732.181	42.74
732.362	42.36
732.544	42.12
732.725	42.09
732.907	41.59
733.088	41.03
733.27	40.84
733.451	41.72
733.633	41.52
733.814	40.86
733.995	40.24
734.177	41.3
734.358	40.34
734.539	40.97
734.721	41.07
734.902	40.36
735.083	40.21
735.264	39.59
735.446	39.35
735.627	39.82
735.808	39.44
735.989	40.29
736.17	39.33
736.351	39.68
736.533	39.63
736.714	39.41
736.895	40.49
737.076	41.27
737.257	42.18
737.438	41.27
737.619	41.86
737.8	41.42
737.981	40.64
738.162	41.34
738.343	40.74
738.524	40.71
738.705	41.58
738.886	40.77
739.067	40.95
739.247	41.01
739.428	41.69
739.609	41.07
739.79	42.02
739.971	42.23
740.151	42.6
740.332	43.27
740.513	43.29
740.694	41.54
740.874	42.11
741.055	40.73
741.236	40.67
741.417	39.63
741.597	39.43
741.778	38.81
741.958	39.63
742.139	38.6
742.32	38.29
742.5	37.48
742.681	37.94
742.861	37.46
743.042	38.09
743.222	37.86
743.403	38.85
743.583	38.49
743.764	39.04
743.944	38.77
744.124	38.62
744.305	38.75
744.485	38.95
744.666	39.22
744.846	40.36
745.026	40.34
745.207	41
745.387	40.49
745.567	40.72
745.747	39.96
745.928	39.05
746.108	38.75
746.288	38.42
746.468	38.86
746.648	38.13
746.829	36.67
747.009	36.93
747.189	36.26
747.369	37.36
747.549	37.66
747.729	38.84
747.909	39.19
748.089	40.89
748.269	41.43
748.449	41.09
748.629	42.36
748.809	41.84
748.989	41.3
749.169	40.8
749.349	39.83
749.529	39.07
749.709	39.01
749.889	39.36
750.068	39.51
750.248	40.23
750.428	39.88
750.608	38.94
750.788	40.16
750.967	40.52
751.147	41.09
751.327	40.74
751.507	40.92
751.686	40.24
751.866	39.99
752.046	39.5
752.225	39.03
752.405	39.16
752.585	39.47
752.764	39.14
752.944	39.99
753.123	39.57
753.303	39.65
753.482	39.22
753.662	39.07
753.841	39.5
754.021	38.8
754.2	38.62
754.38	39.13
754.559	37.95
754.739	36.38
754.918	35.22
755.097	36.11
755.277	36.21
755.456	38.27
755.635	37.87
755.815	38.05
755.994	39
756.173	39.35
756.352	40.29
756.532	40.66
756.711	42.11
756.89	41.92
757.069	41.53
757.248	42.07
757.427	41.07
757.607	42.97
757.786	42.12
757.965	42.86
758.144	42.56
758.323	41.79
758.502	42.46
758.681	42.77
758.86	43.75
759.039	43.13
759.218	43.41
759.397	43.12
759.576	42.61
759.755	42.53
759.934	41.39
760.113	41.7
760.291	40.4
760.47	40.98
760.649	40.87
760.828	40.85
761.007	41.79
761.186	41.06
761.364	40.78
761.543	40.36
761.722	40.73
761.901	40.74
762.079	40.09
762.258	41.55
762.437	40.25
762.615	39.82
762.794	39.41
762.972	39.35
763.151	39.36
763.33	39.46
763.508	39.23
763.687	39.59
763.865	39.73
764.044	40.11
764.222	39.32
764.401	40.38
764.579	40.34
764.758	40.01
764.936	39.12
765.114	39.94
765.293	40.23
765.471	40.24
765.65	39.46
765.828	39.04
766.006	38.53
766.184	38.48
766.363	37.12
766.541	36.53
766.719	37.61
766.898	38.45
767.076	37.84
767.254	38.04
767.432	38.47
767.61	39
767.788	39.2
767.967	39.58
768.145	40.23
768.323	39.89
768.501	40.42
768.679	39.61
768.857	39.95
769.035	40.12
769.213	40.88
769.391	41.25
769.569	40.65
769.747	41.24
769.925	39.86
770.103	39.65
770.281	40.78
770.459	41.2
770.636	41.49
770.814	40.98
770.992	41.08
771.17	37.72
771.348	36.39
771.525	37.06
771.703	37.76
771.881	39.56
772.059	39.75
772.236	40.77
772.414	42.25
772.592	41.38
772.769	42.39
772.947	42.57
773.125	44.64
773.302	45.7
773.48	44.98
773.657	42.7
773.835	42.16
774.013	42.88
774.19	43.15
774.368	41.25
774.545	42.18
774.723	41.09
774.9	40.36
775.077	40.71
775.255	39.43
775.432	40.36
775.61	41.78
775.787	40.73
775.964	39.53
776.142	38.36
776.319	37.77
776.496	37.07
776.674	36.26
776.851	36.23
777.028	35.92
777.205	36.4
777.382	36.64
777.56	34.94
777.737	36.89
777.914	37.26
778.091	38.1
778.268	40.24
778.445	40.19
778.622	41.1
778.8	41.62
778.977	42.08
779.154	42.71
779.331	43.71
779.508	45.97
779.685	45.53
779.862	45.98
780.038	44.39
780.215	43.06
780.392	43.7
780.569	43.73
780.746	43.18
780.923	42.23
781.1	42.38
781.277	40.5
781.453	38.75
781.63	36.35
781.807	34.99
781.984	36.94
782.16	37.14
782.337	37.34
782.514	37.57
782.691	36.64
782.867	36.32
783.044	35.34
783.221	36.13
783.397	35.94
783.574	37.41
783.75	38.51
783.927	37.49
784.103	35.59
784.28	34.05
784.456	33.33
784.633	36.62
784.809	36.7
784.986	37.5
785.162	36.27
785.339	36.48
785.515	35.43
785.692	33.99
785.868	34.49
786.044	37.06
786.221	37
786.397	38.13
786.573	36.55
786.749	36.38
786.926	34.95
787.102	37.03
787.278	37.73
787.454	37.96
787.631	38
787.807	36.33
787.983	34.46
788.159	33.58
788.335	32.78
788.511	33.15
788.687	34.82
788.863	35.88
789.039	34.11
789.216	33.42
789.392	32.87
789.568	35.15
789.744	37.96
789.919	38.47
790.095	40.28
790.271	40.84
790.447	40.23
790.623	37.83
790.799	38.65
790.975	40.44
791.151	41.05
791.327	42.58
791.502	43.75
791.678	41.72
791.854	43.6
792.03	43.79
792.205	43.63
792.381	44.25
792.557	45.42
792.733	44.03
792.908	43.63
793.084	45.51
793.259	47.05
793.435	42.75
793.611	44.22
793.786	42.59
793.962	41.16
794.137	40.35
794.313	36.22
794.488	36.72
794.664	36.97
794.839	36.59
795.015	33.08
795.19	31.25
795.366	31.57
795.541	31.69
795.716	32.42
795.892	33.15
796.067	32.1
796.242	35.57
796.418	33.97
796.593	34.59
796.768	34
796.944	36.29
797.119	37.08
797.294	39.17
797.469	36.87
797.644	37.24
797.82	37.46
797.995	36.74
798.17	36.82
798.345	38.16
798.52	39.19
798.695	40.33
798.87	39.47
799.045	38.79
799.22	39.14
799.395	39.64
799.57	38.15
799.745	38.86
799.92	42.33
800.095	41.41
800.27	42.56
800.445	39.53
800.62	39.27
800.795	38.71
800.97	38.94
801.145	35.26
801.319	37.03
801.494	37.56
801.669	34.74
801.844	35.01
802.018	36.74
802.193	37.33
802.368	37.84
802.543	37.33
802.717	40.93
802.892	38.57
803.067	40.45
803.241	40.96
803.416	40.57
803.59	41.45
803.765	38.75
803.94	36.23
804.114	33.49
804.289	34.26
804.463	35.83
804.638	32.04
804.812	32.98
804.986	34.67
805.161	34.31
805.335	35.82
805.51	37.09
805.684	37.64
805.858	39.2
806.033	41.76
806.207	44.64
806.381	43.78
806.556	42.36
806.73	41.22
806.904	41.83
807.078	42.4
807.253	39.37
807.427	39.34
807.601	38.59
807.775	38.81
807.949	37.56
808.123	35.66
808.298	33.63
808.472	34
808.646	35.71
808.82	33.97
808.994	30.98
809.168	34.91
809.342	36.93
809.516	39.76
809.69	35.81
809.864	37.72
810.038	36.41
810.212	37.64
810.385	38.3
810.559	38.88
810.733	38.63
810.907	40.13
811.081	37.87
811.255	35.92
811.428	34.18
811.602	37.19
811.776	35.85
811.95	36.88
812.123	38.89
812.297	39.4
812.471	38.26
812.644	39.61
812.818	38.87
812.992	40.93
813.165	42.18
813.339	45.04
813.512	45.05
813.686	43.07
813.86	44.01
814.033	40.89
814.207	45.88
814.38	49.73
814.554	51.4
814.727	51.92
814.9	50.49
815.074	49.01
815.247	45.19
815.421	44.71
815.594	45.26
815.767	44.88
815.941	42.83
816.114	39.7
816.287	35.01
816.46	31.45
816.634	33.92
816.807	33.27
816.98	34.83
817.153	37.13
817.327	38.18
817.5	37.02
817.673	35.8
817.846	38.73
818.019	36.19
818.192	36.61
818.365	37.59
818.538	35.32
818.711	39.39
818.884	38.86
819.057	37.29
819.23	37.02
819.403	39.68
819.576	38.65
819.749	37.65
819.922	37.09
820.095	39.02
820.268	37.88
820.441	39.49
820.614	37.04
820.786	37.32
820.959	37.98
821.132	38.49
821.305	37.24
821.477	37.71
821.65	37.57
821.823	38.65
821.996	38.35
822.168	39.28
822.341	38.78
822.514	39.01
822.686	39.36
822.859	39.86
823.031	39.62
823.204	40.27
823.376	40.43
823.549	41.02
823.722	40.71
823.894	40.67
824.067	40.15
824.239	40.04
824.411	40.19
824.584	40.03
824.756	39.71
824.929	40.15
825.101	39.08
825.273	39.77
825.446	39.39
825.618	39.71
825.79	40.01
825.963	39.27
826.135	38.59
826.307	38.2
826.479	37.58
826.652	37.23
826.824	36
826.996	36.84
827.168	36.8
827.34	38.17
827.512	37.2
827.684	36.55
827.856	38.19
828.029	39.74
828.201	40.03
828.373	40.1
828.545	40.24
828.717	42.45
828.889	43.23
829.061	42.45
829.232	40.72
829.404	42.3
829.576	42.19
829.748	42.23
829.92	40.22
830.092	39.61
830.264	39.46
830.436	39.33
830.607	37.44
830.779	37.22
830.951	36.9
831.123	35.8
831.294	35.05
831.466	36.06
831.638	35.71
831.809	37.6
831.981	38
832.153	39.17
832.324	39.89
832.496	40.39
832.667	39.93
832.839	36.89
833.011	40.01
833.182	39.78
833.354	37.44
833.525	34.67
833.697	34.61
833.868	37
834.039	34.48
834.211	32.86
834.382	32.93
834.554	34.05
834.725	36.91
834.896	36.29
835.068	36.42
835.239	38.31
835.41	39.75
835.581	39.58
835.753	38.8
835.924	39.46
836.095	41.02
836.266	39.61
836.438	36.98
836.609	36.71
836.78	36.24
836.951	37.03
837.122	36.5
837.293	38.24
837.464	38.8
837.635	36.97
837.806	37.68
837.977	36.48
838.148	37.6
838.319	42.68
838.49	40.68
838.661	38.32
838.832	35.58
839.003	36.05
839.174	30.66
839.345	28.14
839.516	30.11
839.687	31.68
839.857	34.21
840.028	36.65
840.199	31.27
840.37	32.91
840.54	38.46
840.711	42.2
840.882	38.94
841.053	40.51
841.223	46.2
841.394	44.05
841.564	43.56
841.735	39.85
841.906	39.89
842.076	38.98
842.247	40.19
842.417	37.12
842.588	39.03
842.758	43.97
842.929	44.95
843.099	39.79
843.27	39.72
843.44	38.71
843.611	41.5
843.781	34.38
843.951	38.33
844.122	38.69
844.292	40.03
844.462	32.47
844.633	31.66
844.803	32.91
844.973	33.47
845.144	35.05
845.314	32.02
845.484	26.45
845.654	36.43
845.824	32.44
845.995	28.37
846.165	28.12
846.335	31.48
846.505	28.25
846.675	30.72
846.845	35.72
847.015	34.2
847.185	40.66
847.355	50.61
847.525	49.68
847.695	44.72
847.865	44.74
848.035	47.86
848.205	37.66
848.375	40.78
848.545	41.45
848.715	38.57
848.884	34.04
849.054	34.91
849.224	35.38
849.394	30.63
849.564	38.25
849.733	36.47
849.903	36.99
850.073	43.06
850.243	37.79
850.412	34.39
850.582	35.11
850.752	31.18
850.921	29.82
851.091	23.53
851.26	20.5
851.43	18.5
851.599	19.42
851.769	15.13
851.939	17.36
852.108	16.49
852.278	20.89
852.447	22.94
852.616	23.16
852.786	17.72
852.955	22.66
853.125	30.42
853.294	33.08
853.463	32.91
853.633	30.22
853.802	26.96
853.971	36.26
854.141	25.4
854.31	21.94
854.479	33.65
854.648	39.62
854.818	37.73
854.987	31.81
855.156	30.38
855.325	35.3
855.494	36.5
855.663	34.75
855.832	25.69
856.001	35.61
856.171	35.36
856.34	34.5
856.509	30.77
856.678	30.75
856.847	32.88
857.016	33.2
857.185	30.97
857.353	30.43
857.522	34.52
857.691	36.1
857.86	28.44
858.029	28.44
858.198	28.97
858.367	31.58
858.535	28.22
858.704	28.99
858.873	27.3
859.042	30.78
859.21	37.73
859.379	37.38
859.548	37.69
859.717	44.99
859.885	51.57
860.054	50.91
860.222	52.29
860.391	58.64
860.56	62.56
860.728	63.97
860.897	58.57
861.065	56.85
861.234	57.83
861.402	58.98
861.571	57.4
861.739	54.58
861.908	60.1
862.076	59.06
862.244	52.96
862.413	54.28
862.581	52.54
862.749	51.47
862.918	55.07
863.086	55.08
863.254	51.06
863.423	55.87
863.591	57.93
863.759	52.99
863.927	46.92
864.096	47.21
864.264	39.54
864.432	37.83
864.6	40.32
864.768	26.28
864.936	24.98
865.104	24.15
865.272	19.38
865.44	2.43
865.608	-3.33
865.776	5.03
865.944	1.01
866.112	8.73
866.28	13.73
866.448	14.57
866.616	20.55
866.784	27.06
866.952	33.16
867.12	29.17
867.288	33.51
867.455	40.34
867.623	41.7
867.791	46.45
867.959	56.67
868.127	52.16
868.294	55.47
868.462	68.82
868.63	73.71
868.797	75.92
868.965	65.58
869.133	63.21
869.3	58.88
869.468	57.3
869.636	55.06
869.803	40.95
869.971	40.62
870.138	33.08
870.306	35.28
870.473	30.33
870.641	18.52
870.808	22.73
870.975	24.82
871.143	26.46
871.31	25.77
871.478	31.79
871.645	35.93
871.812	40.01
871.98	45.95
872.147	38.48
872.314	38.32
872.482	41.77
872.649	34.67
872.816	38.86
872.983	39.11
873.15	43.7
873.318	41.59
873.485	40.3
873.652	43.87
873.819	31.94
873.986	37.91
874.153	33.51
874.32	27.25
874.487	29.51
874.654	26.61
874.821	31.69
874.988	35.5
875.155	36.51
875.322	30.86
875.489	28.69
875.656	38.26
875.823	40.64
875.99	47.95
876.157	63.73
876.324	71.09
876.49	74.4
876.657	77.89
876.824	74.77
876.991	65.63
877.157	70.72
877.324	74.62
877.491	69.11
877.658	54.13
877.824	54.14
877.991	45.05
878.157	35.92
878.324	27.49
878.491	11.92
878.657	12.62
878.824	24.23
878.99	21.03
879.157	27.82
879.323	23.66
879.49	26.51
879.656	23.48
879.823	27.79
879.989	27.4
880.156	33.26
880.322	35.93
880.488	35.22
880.655	30.04
880.821	33.28
880.987	31.41
881.154	38.34
881.32	43.17
881.486	45.42
881.652	43.93
881.819	43.56
881.985	38.51
882.151	34.57
882.317	34.29
882.483	32.66
882.649	32.78
882.816	34.99
882.982	35.28
883.148	33.28
883.314	34
883.48	33.18
883.646	32.82
883.812	34.95
883.978	35.85
884.144	36.36
884.31	38.84
884.476	39.97
884.642	38.74
884.807	37.76
884.973	38.46
885.139	39.22
885.305	40.14
885.471	40.09
885.637	38.7
885.802	40.73
885.968	40.86
886.134	39.92
886.3	38.4
886.465	40.36
886.631	39.92
886.797	37.17
886.962	33.85
887.128	34.08
887.293	35.17
887.459	39.83
887.625	38.67
887.79	38.78
887.956	40.08
888.121	41.15
888.287	40.51
888.452	42.22
888.618	47.92
888.783	52.23
