Data from CB_066_Reflection_2.txt Node
Date: Sat Nov 14 10:45:15 EST 2015
User: robert
Spectrometer: USB4E03001
Autoset integration time: false
Trigger mode: 4
Integration Time (sec): 1.000000E-1
Scans to average: 15
Electric dark correction enabled: true
Nonlinearity correction enabled: false
Boxcar width: 5
Stray light correction enabled: false
XAxis mode: Wavelengths
Stop averaging: false
Number of Pixels in Spectrum: 3648
>>>>>Begin Spectral Data<<<<<
177.566	-189.49
177.785	-251.19
178.005	-946.51
178.225	-184.48
178.445	-273.62
178.665	-357.72
178.885	71.96
179.105	-70.4
179.324	-64.12
179.544	-161.05
179.764	-25
179.984	-56.09
180.204	-9.53
180.423	-128.07
180.643	13.15
180.863	86.2
181.083	160.49
181.302	-161.9
181.522	-278.23
181.742	-90.16
181.961	-15.55
182.181	8.54
182.401	24.25
182.621	46.98
182.84	333.72
183.06	-465.76
183.279	-129.5
183.499	-68.07
183.719	-53.5
183.938	-66.74
184.158	-25.87
184.377	12
184.597	8.13
184.816	11.81
185.036	-21.62
185.256	-13.99
185.475	-107.59
185.695	-86.77
185.914	-97.1
186.134	-67.44
186.353	-83.31
186.572	-103.39
186.792	-338.42
187.011	1702.52
187.231	-408.12
187.45	-100.72
187.67	-120.16
187.889	327.93
188.108	182.4
188.328	125.79
188.547	123.21
188.766	94.13
188.986	74.88
189.205	85.74
189.424	73.61
189.644	104.59
189.863	104.47
190.082	120.78
190.302	132.11
190.521	67.2
190.74	77.41
190.959	159.36
191.178	125.5
191.398	258.99
191.617	766.03
191.836	3254.84
192.055	444.58
192.274	113.42
192.494	165.7
192.713	1873.21
192.932	-420.73
193.151	54500
193.37	36.79
193.589	-790.27
193.808	30.31
194.027	41.3
194.246	-400.25
194.465	314.26
194.685	12.1
194.904	-72.06
195.123	20.99
195.342	-0.81
195.561	14.22
195.78	110.14
195.999	-166.98
196.218	-287.72
196.436	-468.61
196.655	7.75
196.874	-21.21
197.093	-79.84
197.312	27.11
197.531	-17.44
197.75	70.43
197.969	299.41
198.188	84.08
198.407	111.61
198.625	129.57
198.844	243.13
199.063	226.72
199.282	495.22
199.501	-3060.55
199.719	-1250.1
199.938	700.54
200.157	380.21
200.376	-2318.56
200.594	-153.8
200.813	-379.28
201.032	-1034.37
201.251	-316.15
201.469	-324.92
201.688	-673.97
201.907	1586.49
202.125	512.49
202.344	1638.6
202.563	12221.74
202.781	583.55
203	185.92
203.218	181.92
203.437	300.33
203.656	255.72
203.874	509.35
204.093	413.49
204.311	179.67
204.53	180.55
204.748	110.79
204.967	119.28
205.185	173.19
205.404	151.91
205.622	133.96
205.841	55.27
206.059	33.5
206.278	89.74
206.496	153.59
206.715	171.62
206.933	160.24
207.151	180.98
207.37	95.37
207.588	54.33
207.806	112.53
208.025	181.68
208.243	179.95
208.461	-8490.91
208.68	-75.99
208.898	-46.39
209.116	64.46
209.335	41.27
209.553	3.9
209.771	18.35
209.989	61.31
210.208	49.93
210.426	28.56
210.644	51.58
210.862	47.55
211.081	62.43
211.299	60.21
211.517	56.36
211.735	60.84
211.953	53.49
212.171	54.84
212.39	37.96
212.608	28.71
212.826	45.22
213.044	45.86
213.262	60.13
213.48	44.7
213.698	24.72
213.916	18.16
214.134	-18.8
214.352	-11.34
214.57	-17.69
214.788	17.92
215.006	34.33
215.224	22
215.442	141.89
215.66	-57.11
215.878	126.22
216.096	101.52
216.314	494.01
216.532	2107.36
216.75	-692.65
216.968	-1090.21
217.185	-8084.07
217.403	1992.83
217.621	-99044.44
217.839	-451.42
218.057	-12341.67
218.275	-258.07
218.492	-41.25
218.71	-1037.53
218.928	607.22
219.146	199.08
219.363	93.86
219.581	155.83
219.799	-172.9
220.017	133.65
220.234	106.98
220.452	162.03
220.67	219.73
220.887	85.33
221.105	125.99
221.323	109.79
221.54	126.31
221.758	130.99
221.976	94.31
222.193	81.55
222.411	83.44
222.629	92.41
222.846	77.2
223.064	52.77
223.281	58.61
223.499	49.86
223.716	29.8
223.934	-3.97
224.151	-10.47
224.369	-3.85
224.586	-17.93
224.804	-24.2
225.021	6
225.239	25.25
225.456	48.2
225.674	39.41
225.891	34.93
226.108	37.22
226.326	37.79
226.543	48.48
226.76	30.34
226.978	38.19
227.195	37.44
227.413	27.04
227.63	25.54
227.847	23.15
228.064	22.28
228.282	19.98
228.499	22.22
228.716	24.09
228.934	22.15
229.151	27.93
229.368	22.04
229.585	21.46
229.802	19.47
230.02	18.34
230.237	18.97
230.454	23.19
230.671	26.78
230.888	26.92
231.105	27.57
231.323	28.29
231.54	26.76
231.757	32.53
231.974	39.53
232.191	43.49
232.408	39.88
232.625	46.32
232.842	39.68
233.059	28.36
233.276	27.26
233.493	26.51
233.71	26.79
233.927	21.76
234.144	15.66
234.361	12.11
234.578	12.87
234.795	10.68
235.012	7.39
235.229	2.49
235.446	17.44
235.663	19.38
235.879	13.38
236.096	12.87
236.313	19.08
236.53	15.56
236.747	11.16
236.964	7.57
237.181	18.07
237.397	12.99
237.614	23.89
237.831	27.16
238.048	28.35
238.264	26.56
238.481	29.13
238.698	20.65
238.915	27.96
239.131	27.39
239.348	22.41
239.565	18.25
239.781	19
239.998	19.3
240.215	14.41
240.431	11.19
240.648	17.19
240.865	16.28
241.081	18.12
241.298	16.08
241.514	15.82
241.731	19.04
241.947	18.3
242.164	17.47
242.38	13.57
242.597	11.32
242.814	11.36
243.03	12.08
243.246	12.57
243.463	13.42
243.679	13.17
243.896	14.01
244.112	11.97
244.329	14.45
244.545	17.92
244.762	20.98
244.978	22.88
245.194	20.7
245.411	20.47
245.627	18.09
245.843	17.27
246.06	17.39
246.276	16.5
246.492	17.57
246.709	16.33
246.925	14.41
247.141	13.88
247.357	13.54
247.574	14.14
247.79	13.57
248.006	13.37
248.222	13.51
248.439	11.91
248.655	11.58
248.871	10.51
249.087	10.49
249.303	11.2
249.519	10.33
249.736	10.82
249.952	10.19
250.168	11.5
250.384	11.68
250.6	10.59
250.816	14.51
251.032	13.63
251.248	15.31
251.464	14.59
251.68	13.88
251.896	12.79
252.112	13.62
252.328	14.64
252.544	13.84
252.76	14.05
252.976	12.6
253.192	11.29
253.408	13.51
253.624	9.86
253.84	8.85
254.056	9.06
254.272	9.65
254.487	3.84
254.703	1.12
254.919	-1.08
255.135	-0.16
255.351	-0.03
255.567	-1.84
255.782	0.61
255.998	7.14
256.214	6.64
256.43	5.26
256.646	5.81
256.861	8.91
257.077	8.32
257.293	9.34
257.508	7.51
257.724	9.96
257.94	12.26
258.155	9.75
258.371	7.88
258.587	9.07
258.802	9.67
259.018	9.85
259.234	10.46
259.449	11.46
259.665	11.67
259.88	11.51
260.096	11.45
260.312	11.28
260.527	10.97
260.743	11.63
260.958	12.07
261.174	12.79
261.389	12.9
261.605	12
261.82	10.14
262.036	9.9
262.251	10.59
262.466	11.39
262.682	11
262.897	11.54
263.113	11.42
263.328	9.01
263.543	8.08
263.759	9.19
263.974	11.04
264.189	13.07
264.405	11.76
264.62	11.29
264.835	10.35
265.051	10.85
265.266	10.23
265.481	10.56
265.696	14.55
265.912	12.56
266.127	11.44
266.342	10.39
266.557	10.69
266.773	9.86
266.988	10.55
267.203	9.86
267.418	8.5
267.633	8.78
267.848	8
268.064	4.34
268.279	6.29
268.494	5.08
268.709	5.87
268.924	7.63
269.139	7.49
269.354	6.97
269.569	6.41
269.784	5.82
269.999	6.45
270.214	8.48
270.429	9.12
270.644	8.73
270.859	10
271.074	9.11
271.289	8.68
271.504	8.96
271.719	8.63
271.934	9.23
272.149	10.51
272.363	11.21
272.578	9.55
272.793	9.95
273.008	9.84
273.223	9.54
273.438	10.07
273.653	10.05
273.867	11.46
274.082	13.11
274.297	13.76
274.512	15.01
274.726	13.8
274.941	13.22
275.156	14.91
275.371	14.62
275.585	15.16
275.8	16.5
276.015	15.46
276.229	14.31
276.444	13.22
276.659	11.39
276.873	10.13
277.088	11.08
277.302	13.44
277.517	10.59
277.732	10.21
277.946	10.59
278.161	8.92
278.375	9.41
278.59	9.19
278.804	8.79
279.019	9.53
279.233	9.5
279.448	7.77
279.662	6.61
279.877	9.25
280.091	7.69
280.306	6.53
280.52	5.41
280.735	5.67
280.949	7.04
281.163	7.33
281.378	7.14
281.592	7.41
281.806	8.31
282.021	8.56
282.235	7.81
282.449	10.07
282.664	10.98
282.878	12.08
283.092	10.41
283.307	9.99
283.521	9.82
283.735	10.27
283.949	9.79
284.164	9.46
284.378	8.69
284.592	8.33
284.806	7.9
285.02	6.71
285.234	5.08
285.449	5.73
285.663	5.97
285.877	5.61
286.091	4.71
286.305	4.88
286.519	5.17
286.733	5.94
286.947	6.31
287.161	6.46
287.375	6.83
287.589	8.88
287.803	9.94
288.017	10.13
288.231	10.9
288.445	12.68
288.659	12.94
288.873	13.48
289.087	13.5
289.301	13.78
289.515	12.51
289.729	12.44
289.943	12.71
290.157	13.22
290.371	13.18
290.584	12.74
290.798	12.48
291.012	13.17
291.226	12.67
291.44	12.31
291.654	12.45
291.867	13.08
292.081	14.29
292.295	14.87
292.509	14.15
292.722	13.76
292.936	13.21
293.15	13.3
293.364	11.71
293.577	11.71
293.791	12.29
294.005	11.46
294.218	12.94
294.432	11.89
294.645	10.44
294.859	10.56
295.073	11.04
295.286	11.43
295.5	10.99
295.713	11.68
295.927	11.52
296.14	10.77
296.354	9.83
296.568	8.93
296.781	9.39
296.994	10.7
297.208	10.54
297.421	9.75
297.635	10.31
297.848	10.01
298.062	9.86
298.275	10.1
298.489	10.37
298.702	11.54
298.915	11.09
299.129	10.85
299.342	10.58
299.555	11.7
299.769	11.99
299.982	11.63
300.195	11.55
300.409	10.05
300.622	9.98
300.835	9.31
301.048	9.36
301.262	10.44
301.475	11.31
301.688	9.83
301.901	8.53
302.115	8.96
302.328	9.3
302.541	9.52
302.754	11.79
302.967	11.84
303.18	12.44
303.393	12.62
303.607	12.97
303.82	12.46
304.033	13.3
304.246	13.42
304.459	12.93
304.672	12.92
304.885	14.03
305.098	14.19
305.311	14.45
305.524	15.13
305.737	14.52
305.95	13.95
306.163	14.02
306.376	13.39
306.589	13.5
306.802	14.83
307.015	15.3
307.228	15.74
307.44	15.47
307.653	15.64
307.866	15.29
308.079	15.02
308.292	14.09
308.505	14.94
308.718	15.18
308.93	15.9
309.143	14.68
309.356	14.93
309.569	13.44
309.781	12.72
309.994	13.24
310.207	13.35
310.42	13.79
310.632	13.88
310.845	13.37
311.058	14.33
311.27	14.31
311.483	14.62
311.696	13.7
311.908	14.1
312.121	14.39
312.333	14.67
312.546	14.22
312.759	13.97
312.971	14.15
313.184	13.97
313.396	12.89
313.609	12.26
313.821	12.67
314.034	12.72
314.246	12.57
314.459	12.9
314.671	11.39
314.884	11.88
315.096	12.77
315.309	13.28
315.521	14.27
315.733	13.36
315.946	12.66
316.158	12.58
316.371	12.46
316.583	12.61
316.795	12.47
317.008	13.6
317.22	13.49
317.432	12.79
317.644	12.65
317.857	10.73
318.069	12.58
318.281	14.32
318.494	14.56
318.706	15.59
318.918	16.42
319.13	15.33
319.342	14.21
319.555	13.8
319.767	14.4
319.979	14.21
320.191	14.49
320.403	13.4
320.615	13.85
320.827	13.47
321.039	13.54
321.252	13.98
321.464	15.62
321.676	14.98
321.888	16.06
322.1	15.43
322.312	14.88
322.524	16.35
322.736	15.1
322.948	15.39
323.16	16.12
323.372	16.35
323.584	16.33
323.796	15.74
324.007	16.86
324.219	16.8
324.431	16.83
324.643	17.82
324.855	18.59
325.067	18.96
325.279	17.59
325.491	18.11
325.702	18.48
325.914	16.93
326.126	16.59
326.338	14.6
326.55	14.55
326.761	15.19
326.973	14.69
327.185	13.25
327.396	14.64
327.608	14.27
327.82	13.06
328.032	12.32
328.243	13.47
328.455	14.53
328.666	16.67
328.878	17.05
329.09	16.73
329.301	17.17
329.513	17.02
329.725	17.65
329.936	19.34
330.148	19.12
330.359	19.06
330.571	19.18
330.782	18.76
330.994	18.7
331.205	18.92
331.417	18.69
331.628	18.3
331.84	20.07
332.051	19.95
332.262	18.57
332.474	19.43
332.685	20.29
332.897	20
333.108	19.8
333.319	18.85
333.531	18.48
333.742	18.67
333.953	18.18
334.165	16.55
334.376	16.61
334.587	16.58
334.799	15.54
335.01	14.69
335.221	14.91
335.432	14.8
335.644	15.54
335.855	15.34
336.066	15.2
336.277	16.45
336.488	16.86
336.7	15.85
336.911	16.65
337.122	17.83
337.333	17.18
337.544	16.99
337.755	17.44
337.966	17.66
338.177	17.61
338.388	17.36
338.599	16.77
338.811	16.41
339.022	17.15
339.233	17.59
339.444	16.13
339.655	16.82
339.866	16.62
340.076	16.21
340.287	15.22
340.498	15.09
340.709	15.63
340.92	15.71
341.131	16.57
341.342	16.78
341.553	15.47
341.764	16.09
341.975	16.26
342.185	16.6
342.396	17.28
342.607	18.05
342.818	18.04
343.029	17.29
343.239	17.52
343.45	17.27
343.661	17.53
343.872	18.16
344.082	18.02
344.293	18.49
344.504	18.48
344.714	18.09
344.925	18.14
345.136	18.13
345.346	17.07
345.557	16.85
345.768	16.25
345.978	16.77
346.189	16.82
346.399	16.41
346.61	16.46
346.821	16.61
347.031	16.52
347.242	16.41
347.452	16.53
347.663	18.38
347.873	18.92
348.084	19.22
348.294	17.12
348.504	16.98
348.715	18.12
348.925	17.18
349.136	15.48
349.346	15.16
349.557	15.39
349.767	15.67
349.977	15.55
350.188	14.27
350.398	14.74
350.608	15.21
350.819	15.48
351.029	15.03
351.239	16.18
351.449	17.39
351.66	17.38
351.87	16.49
352.08	15.83
352.29	16.04
352.501	16.61
352.711	15.17
352.921	15.36
353.131	14.87
353.341	14.56
353.552	13.21
353.762	12.1
353.972	12.04
354.182	13.39
354.392	13.68
354.602	13.24
354.812	13.24
355.022	13.43
355.232	13.92
355.442	13.72
355.652	13.23
355.862	13.38
356.072	14.33
356.282	14.14
356.492	13.98
356.702	13.61
356.912	13.41
357.122	14.17
357.332	14.69
357.542	14.18
357.752	14.26
357.962	14.69
358.171	14.95
358.381	15.06
358.591	15.37
358.801	15.18
359.011	15.67
359.221	15.93
359.43	14.99
359.64	14.6
359.85	14.51
360.06	15
360.269	15.2
360.479	15.44
360.689	15.48
360.899	15.53
361.108	15.49
361.318	14.55
361.528	14.53
361.737	15.16
361.947	15.33
362.156	15.4
362.366	14.57
362.576	14.69
362.785	14.35
362.995	14.27
363.204	13.95
363.414	13.84
363.623	14.21
363.833	14.49
364.042	14.11
364.252	14.31
364.461	14.51
364.671	15.08
364.88	14.9
365.09	15.39
365.299	15.85
365.509	16.59
365.718	16.09
365.927	16.93
366.137	16.85
366.346	16.71
366.555	16.49
366.765	16.11
366.974	16.16
367.183	16.25
367.393	15.49
367.602	14.74
367.811	14.41
368.021	14.7
368.23	14.36
368.439	14.13
368.648	13.48
368.857	13.18
369.067	13.25
369.276	13.02
369.485	12.96
369.694	13.7
369.903	13.92
370.112	13.74
370.321	13.31
370.531	12.45
370.74	12.44
370.949	12.86
371.158	12.66
371.367	12.3
371.576	11.69
371.785	11.33
371.994	10.87
372.203	10.65
372.412	10.2
372.621	10.73
372.83	10.82
373.039	10.56
373.248	10.32
373.457	10.88
373.666	10.77
373.874	11.14
374.083	10.85
374.292	10.92
374.501	11.02
374.71	11.16
374.919	11.03
375.128	11.24
375.336	11.67
375.545	11.89
375.754	11.98
375.963	12.34
376.171	12.21
376.38	12.36
376.589	11.87
376.798	11
377.006	11.46
377.215	11.09
377.424	11.16
377.632	10.14
377.841	9.58
378.05	9.42
378.258	9.52
378.467	9.71
378.675	9.52
378.884	9.96
379.093	10.26
379.301	10.21
379.51	10.06
379.718	10.23
379.927	10.8
380.135	11.5
380.344	10.86
380.552	10.85
380.761	10.68
380.969	10.51
381.177	10.01
381.386	10.63
381.594	10.31
381.803	10.21
382.011	10.06
382.219	9.53
382.428	9.2
382.636	9.3
382.845	8.44
383.053	8.12
383.261	8.04
383.469	8.1
383.678	7.86
383.886	7.79
384.094	7.87
384.302	7.63
384.511	7.75
384.719	8.02
384.927	8.29
385.135	8.78
385.343	8.97
385.552	9.47
385.76	9.45
385.968	9.12
386.176	8.85
386.384	8.77
386.592	8.47
386.8	8.69
387.008	8.61
387.216	8.33
387.424	8.05
387.633	7.87
387.841	8.1
388.049	8.62
388.257	8.89
388.465	8.85
388.672	9.19
388.88	9.46
389.088	8.98
389.296	8.78
389.504	8.73
389.712	9.13
389.92	9.63
390.128	9.22
390.336	8.57
390.544	8.3
390.751	8.43
390.959	8.17
391.167	8.21
391.375	8.78
391.583	8.58
391.79	8.31
391.998	8.16
392.206	7.89
392.414	7.83
392.621	8.14
392.829	8.15
393.037	7.88
393.244	7.74
393.452	7.85
393.66	7.28
393.867	7.41
394.075	7.82
394.283	7.57
394.49	7.25
394.698	7.19
394.905	6.75
395.113	6.54
395.32	6.46
395.528	6.51
395.735	6.32
395.943	6.6
396.15	6.7
396.358	6.35
396.565	6.5
396.773	6.63
396.98	6.72
397.188	6.74
397.395	7
397.602	7.31
397.81	7.19
398.017	7.18
398.225	7.28
398.432	6.77
398.639	6.93
398.847	6.91
399.054	6.79
399.261	6.35
399.468	6.39
399.676	6.47
399.883	6.34
400.09	6.75
400.297	6.69
400.505	6.6
400.712	6.96
400.919	7.09
401.126	6.9
401.333	6.71
401.54	6.96
401.748	6.83
401.955	6.6
402.162	6.14
402.369	5.77
402.576	5.65
402.783	5.16
402.99	4.91
403.197	4.41
403.404	4.39
403.611	4.7
403.818	4.68
404.025	4.72
404.232	4.91
404.439	5.42
404.646	5.35
404.853	5.25
405.06	5.18
405.267	5.29
405.474	5.72
405.681	5.79
405.887	5.59
406.094	5.82
406.301	6.13
406.508	6.1
406.715	6.13
406.922	6.37
407.128	6.75
407.335	7.1
407.542	7.05
407.749	6.73
407.955	6.7
408.162	6.8
408.369	6.39
408.575	6.03
408.782	6.06
408.989	5.74
409.195	5.36
409.402	5.03
409.609	4.79
409.815	4.81
410.022	4.96
410.228	4.94
410.435	5.25
410.642	5.44
410.848	5.25
411.055	5.07
411.261	4.97
411.468	5.27
411.674	5.32
411.881	5.54
412.087	5.31
412.294	5.46
412.5	5.75
412.706	5.42
412.913	5.46
413.119	5.66
413.326	5.33
413.532	5.54
413.738	5.45
413.945	5.21
414.151	5.71
414.357	5.96
414.564	5.74
414.77	5.81
414.976	5.83
415.182	5.83
415.389	5.9
415.595	5.91
415.801	6.04
416.007	6.02
416.214	6.06
416.42	5.59
416.626	5.57
416.832	5.47
417.038	5.22
417.244	5.24
417.45	5
417.657	4.84
417.863	4.88
418.069	4.75
418.275	4.7
418.481	4.7
418.687	4.75
418.893	4.69
419.099	4.75
419.305	4.58
419.511	4.59
419.717	4.58
419.923	4.71
420.129	4.82
420.335	4.83
420.541	4.74
420.746	4.68
420.952	4.66
421.158	4.73
421.364	4.64
421.57	4.79
421.776	4.66
421.982	4.87
422.187	4.77
422.393	4.81
422.599	4.76
422.805	4.84
423.01	5.02
423.216	4.97
423.422	5
423.628	5.17
423.833	5.09
424.039	5.15
424.245	4.99
424.45	4.99
424.656	4.93
424.862	4.93
425.067	4.85
425.273	4.75
425.478	4.72
425.684	4.52
425.889	4.49
426.095	4.52
426.301	4.64
426.506	4.57
426.712	4.65
426.917	4.69
427.123	4.54
427.328	4.61
427.533	4.7
427.739	4.77
427.944	4.78
428.15	4.58
428.355	4.48
428.561	4.24
428.766	4.43
428.971	4.32
429.177	4.09
429.382	4.33
429.587	4.31
429.793	4.13
429.998	4.01
430.203	4.13
430.408	4.48
430.614	4.43
430.819	4.7
431.024	4.46
431.229	4.61
431.434	4.88
431.64	4.64
431.845	4.7
432.05	4.72
432.255	4.68
432.46	4.66
432.665	4.35
432.87	4.59
433.076	4.44
433.281	4.6
433.486	4.38
433.691	4.15
433.896	4.27
434.101	4.13
434.306	4.13
434.511	4.21
434.716	4.15
434.921	4.43
435.126	4.36
435.331	4.35
435.535	4.41
435.74	4.42
435.945	4.42
436.15	4.37
436.355	4.64
436.56	4.89
436.765	4.87
436.97	4.81
437.174	4.53
437.379	4.47
437.584	4.42
437.789	4.4
437.993	4.46
438.198	4.49
438.403	4.74
438.608	4.63
438.812	4.46
439.017	4.4
439.222	4.58
439.426	4.65
439.631	4.48
439.836	4.45
440.04	4.34
440.245	4.34
440.45	4.35
440.654	4.19
440.859	4.01
441.063	3.95
441.268	4.03
441.472	3.99
441.677	3.84
441.881	3.81
442.086	3.82
442.29	3.8
442.495	3.88
442.699	3.88
442.904	3.74
443.108	3.93
443.312	3.98
443.517	3.91
443.721	3.84
443.925	3.99
444.13	4.01
444.334	3.87
444.538	4.06
444.743	4.01
444.947	4.08
445.151	4.23
445.356	4.24
445.56	4.24
445.764	4.23
445.968	4.21
446.173	4.12
446.377	4.21
446.581	4.28
446.785	4.14
446.989	4.2
447.193	4.17
447.398	4.19
447.602	4.07
447.806	4.03
448.01	4.15
448.214	4.14
448.418	4.17
448.622	4.1
448.826	4.04
449.03	4.08
449.234	4
449.438	3.99
449.642	3.9
449.846	3.99
450.05	3.95
450.254	3.95
450.458	3.87
450.662	3.91
450.866	3.99
451.069	4.17
451.273	4.13
451.477	4.23
451.681	4.27
451.885	4.25
452.089	4.41
452.292	4.31
452.496	4.25
452.7	4.43
452.904	4.59
453.107	4.71
453.311	4.49
453.515	4.64
453.719	4.56
453.922	4.64
454.126	4.77
454.33	4.55
454.533	4.65
454.737	4.45
454.94	4.34
455.144	4.21
455.348	4.04
455.551	4.26
455.755	4.21
455.958	4.17
456.162	4.17
456.365	4.16
456.569	4.09
456.772	3.87
456.976	4.15
457.179	4.24
457.383	4.08
457.586	4.23
457.79	4.11
457.993	3.95
458.196	3.95
458.4	3.89
458.603	3.85
458.807	3.81
459.01	4.12
459.213	4.04
459.417	4.04
459.62	4.04
459.823	3.97
460.026	3.96
460.23	4.03
460.433	3.93
460.636	3.74
460.839	3.69
461.042	3.74
461.246	3.68
461.449	3.66
461.652	3.52
461.855	3.53
462.058	3.59
462.261	3.65
462.464	3.57
462.668	3.65
462.871	4.03
463.074	3.89
463.277	3.82
463.48	3.7
463.683	3.79
463.886	3.74
464.089	3.82
464.292	3.62
464.495	3.69
464.698	3.73
464.901	3.77
465.104	3.63
465.306	3.62
465.509	3.7
465.712	3.89
465.915	3.9
466.118	4
466.321	4.02
466.524	3.87
466.726	3.94
466.929	3.9
467.132	3.89
467.335	4
467.538	4.18
467.74	4.07
467.943	3.94
468.146	3.79
468.348	3.91
468.551	3.84
468.754	4.14
468.956	4.02
469.159	3.84
469.362	3.84
469.564	3.7
469.767	3.62
469.969	3.8
470.172	3.87
470.375	3.94
470.577	3.99
470.78	4
470.982	3.95
471.185	3.93
471.387	4.22
471.59	4.04
471.792	4.07
471.995	4.29
472.197	4.25
472.399	4.3
472.602	4.22
472.804	4.08
473.007	4.2
473.209	4.28
473.411	4.35
473.614	4.45
473.816	4.43
474.018	4.39
474.22	4.32
474.423	4.37
474.625	4.38
474.827	4.47
475.03	4.36
475.232	4.36
475.434	4.29
475.636	4.25
475.838	4.09
476.04	4.32
476.243	4.21
476.445	4.08
476.647	4.16
476.849	4.08
477.051	3.97
477.253	4.35
477.455	4.2
477.657	4.22
477.859	4.16
478.061	4.07
478.263	4.05
478.465	4.13
478.667	3.99
478.869	3.8
479.071	3.76
479.273	3.61
479.475	3.36
479.677	3.37
479.879	3.25
480.081	3.19
480.283	3.35
480.485	3.32
480.686	3.51
480.888	3.78
481.09	3.79
481.292	3.76
481.494	3.9
481.695	3.81
481.897	3.82
482.099	3.82
482.301	3.87
482.502	3.72
482.704	3.83
482.906	3.66
483.107	3.57
483.309	3.56
483.511	3.57
483.712	3.59
483.914	3.61
484.115	3.61
484.317	3.6
484.519	3.64
484.72	3.66
484.922	3.61
485.123	3.62
485.325	3.68
485.526	3.76
485.728	3.72
485.929	3.69
486.131	3.73
486.332	3.72
486.534	3.79
486.735	3.73
486.936	3.8
487.138	3.73
487.339	3.78
487.541	3.71
487.742	3.68
487.943	3.71
488.144	3.78
488.346	3.74
488.547	3.76
488.748	3.66
488.95	3.67
489.151	3.64
489.352	3.69
489.553	3.66
489.755	3.72
489.956	3.66
490.157	3.59
490.358	3.49
490.559	3.52
490.76	3.54
490.961	3.57
491.163	3.71
491.364	3.75
491.565	3.77
491.766	3.82
491.967	3.78
492.168	3.79
492.369	3.88
492.57	3.94
492.771	3.98
492.972	3.98
493.173	4.04
493.374	3.93
493.575	3.95
493.776	3.87
493.976	3.88
494.177	3.9
494.378	3.78
494.579	3.93
494.78	3.9
494.981	3.88
495.182	3.99
495.382	4.12
495.583	4.27
495.784	4.3
495.985	4.47
496.185	4.4
496.386	4.49
496.587	4.77
496.788	4.57
496.988	4.53
497.189	4.49
497.39	4.39
497.59	4.34
497.791	4.08
497.992	4.03
498.192	4.02
498.393	4.1
498.593	4
498.794	3.92
498.994	4.02
499.195	4.11
499.395	4.21
499.596	4.24
499.796	4.18
499.997	4.47
500.197	4.36
500.398	4.3
500.598	4.02
500.799	4.11
500.999	4.13
501.199	4.1
501.4	4.13
501.6	4.15
501.801	4.19
502.001	4.39
502.201	4.33
502.402	4.32
502.602	4.39
502.802	4.69
503.002	4.59
503.203	4.67
503.403	4.72
503.603	4.82
503.803	4.8
504.003	4.85
504.204	4.77
504.404	4.65
504.604	4.84
504.804	4.94
505.004	4.69
505.204	4.79
505.404	4.79
505.604	4.64
505.804	4.53
506.005	4.61
506.205	4.46
506.405	4.44
506.605	4.52
506.805	4.59
507.005	4.5
507.204	4.65
507.404	4.59
507.604	4.61
507.804	4.9
508.004	4.89
508.204	4.8
508.404	4.91
508.604	5.03
508.804	5.09
509.003	5.05
509.203	5.14
509.403	5.26
509.603	5.38
509.803	5.32
510.002	5.32
510.202	5.42
510.402	5.62
510.602	5.66
510.801	5.46
511.001	5.51
511.201	5.48
511.4	5.33
511.6	5.27
511.8	5.42
511.999	5.72
512.199	5.53
512.398	5.51
512.598	5.39
512.797	5.64
512.997	5.85
513.197	5.92
513.396	6.09
513.596	6.23
513.795	6.37
513.994	6.39
514.194	6.2
514.393	6.36
514.593	6.5
514.792	6.61
514.992	6.52
515.191	6.51
515.39	6.56
515.59	6.59
515.789	6.69
515.988	6.7
516.188	6.62
516.387	6.82
516.586	7.09
516.786	7.08
516.985	7.19
517.184	7.18
517.383	7.32
517.582	7.37
517.782	7.32
517.981	7.32
518.18	7.44
518.379	7.68
518.578	7.57
518.777	7.54
518.976	7.66
519.176	7.73
519.375	7.72
519.574	7.68
519.773	7.6
519.972	7.7
520.171	7.83
520.37	7.82
520.569	7.74
520.768	7.96
520.967	7.94
521.166	8.03
521.365	8.05
521.564	8.36
521.762	8.6
521.961	8.68
522.16	8.76
522.359	8.86
522.558	8.87
522.757	8.84
522.956	8.78
523.154	8.8
523.353	8.8
523.552	8.83
523.751	8.71
523.949	8.71
524.148	8.81
524.347	8.91
524.546	8.95
524.744	9.19
524.943	9.3
525.142	9.32
525.34	9.44
525.539	9.42
525.737	9.53
525.936	9.65
526.135	9.68
526.333	9.8
526.532	9.82
526.73	9.8
526.929	9.86
527.127	9.97
527.326	10.03
527.524	10.06
527.723	10.15
527.921	10.2
528.12	10.22
528.318	10.24
528.516	10.3
528.715	10.34
528.913	10.38
529.112	10.37
529.31	10.35
529.508	10.41
529.707	10.44
529.905	10.52
530.103	10.54
530.301	10.53
530.5	10.57
530.698	10.59
530.896	10.68
531.094	10.83
531.293	10.88
531.491	11.03
531.689	11.07
531.887	11.18
532.085	11.23
532.283	11.25
532.481	11.36
532.68	11.5
532.878	11.59
533.076	11.71
533.274	11.62
533.472	11.69
533.67	11.75
533.868	11.83
534.066	11.92
534.264	11.97
534.462	11.99
534.66	12.09
534.858	12.18
535.056	12.29
535.253	12.24
535.451	12.49
535.649	12.66
535.847	12.79
536.045	12.84
536.243	12.89
536.441	12.99
536.638	13.1
536.836	13.18
537.034	13.23
537.232	13.19
537.43	13.27
537.627	13.2
537.825	13.21
538.023	13.16
538.22	13.35
538.418	13.42
538.616	13.4
538.813	13.51
539.011	13.63
539.209	13.68
539.406	13.83
539.604	14
539.801	14.08
539.999	14.12
540.196	14.19
540.394	14.1
540.591	14.16
540.789	14.19
540.986	14.26
541.184	14.23
541.381	14.34
541.579	14.35
541.776	14.39
541.974	14.5
542.171	14.55
542.368	14.62
542.566	14.66
542.763	14.69
542.96	14.78
543.158	14.88
543.355	15.01
543.552	15.08
543.75	15.23
543.947	15.3
544.144	15.42
544.341	15.46
544.539	15.5
544.736	15.66
544.933	15.82
545.13	15.86
545.327	15.9
545.524	15.87
545.722	15.85
545.919	15.78
546.116	15.8
546.313	15.76
546.51	15.95
546.707	15.96
546.904	16.04
547.101	16.05
547.298	16.15
547.495	16.24
547.692	16.38
547.889	16.41
548.086	16.45
548.283	16.55
548.48	16.63
548.677	16.62
548.874	16.76
549.07	16.84
549.267	16.89
549.464	17.01
549.661	17
549.858	17.01
550.055	17.21
550.251	17.45
550.448	17.49
550.645	17.57
550.842	17.59
551.038	17.59
551.235	17.58
551.432	17.75
551.628	17.89
551.825	18.21
552.022	18.2
552.218	18.34
552.415	18.29
552.612	18.35
552.808	18.47
553.005	18.66
553.201	18.76
553.398	19.01
553.594	19.21
553.791	19.31
553.987	19.32
554.184	19.48
554.38	19.37
554.577	19.5
554.773	19.73
554.97	19.66
555.166	19.6
555.362	19.77
555.559	19.88
555.755	19.82
555.952	19.9
556.148	20.19
556.344	20.32
556.541	20.58
556.737	20.73
556.933	20.77
557.129	20.91
557.326	21.06
557.522	21.15
557.718	21.2
557.914	21.37
558.11	21.4
558.307	21.18
558.503	21.21
558.699	21.22
558.895	21.47
559.091	21.7
559.287	22.06
559.483	21.96
559.679	22.01
559.876	21.86
560.072	21.9
560.268	21.7
560.464	21.77
560.66	21.82
560.856	21.95
561.052	21.73
561.247	21.7
561.443	21.46
561.639	21.84
561.835	21.86
562.031	22.15
562.227	22.2
562.423	22.57
562.619	22.56
562.815	22.73
563.01	22.94
563.206	23.01
563.402	22.86
563.598	23.23
563.793	23.24
563.989	23.29
564.185	23.27
564.381	23.12
564.576	23.21
564.772	23.21
564.968	23.27
565.163	23.34
565.359	23.42
565.555	23.46
565.75	23.42
565.946	23.42
566.141	23.58
566.337	23.49
566.532	23.73
566.728	23.77
566.923	24.01
567.119	24.07
567.314	23.96
567.51	24.07
567.705	24.16
567.901	24.24
568.096	24.08
568.292	24.1
568.487	24.24
568.682	24.26
568.878	24.31
569.073	24.11
569.268	23.98
569.464	24.13
569.659	24.32
569.854	24.46
570.05	24.25
570.245	24.59
570.44	24.66
570.635	24.67
570.831	24.66
571.026	24.63
571.221	25.09
571.416	25.17
571.611	24.92
571.806	24.64
572.002	24.62
572.197	24.87
572.392	24.8
572.587	24.89
572.782	24.98
572.977	25.04
573.172	25.03
573.367	24.61
573.562	24.69
573.757	25.02
573.952	25.19
574.147	25.35
574.342	25.43
574.537	25.46
574.732	25.17
574.927	25.26
575.121	25.37
575.316	25.45
575.511	25.79
575.706	26.05
575.901	25.79
576.096	26.02
576.29	26.05
576.485	25.83
576.68	25.91
576.875	26.23
577.069	26.33
577.264	26.28
577.459	26.34
577.654	26.41
577.848	26.35
578.043	26.79
578.238	26.78
578.432	26.74
578.627	27.1
578.821	27.42
579.016	27.58
579.21	27.61
579.405	27.51
579.6	27.49
579.794	27.43
579.989	27.44
580.183	27.41
580.378	27.46
580.572	27.91
580.766	27.95
580.961	27.73
581.155	27.72
581.35	27.98
581.544	28.18
581.738	28.52
581.933	28.56
582.127	28.69
582.321	28.79
582.516	28.7
582.71	28.5
582.904	28.47
583.099	28.5
583.293	28.34
583.487	28.24
583.681	28.51
583.875	28.53
584.07	28.51
584.264	28.51
584.458	28.4
584.652	28.66
584.846	28.68
585.04	28.53
585.234	28.7
585.428	28.97
585.623	28.81
585.817	28.76
586.011	28.59
586.205	28.78
586.399	28.88
586.593	28.95
586.787	28.84
586.981	28.63
587.174	28.6
587.368	28.49
587.562	28.47
587.756	28.36
587.95	28.26
588.144	28.18
588.338	28.15
588.532	28.07
588.725	28.11
588.919	28.24
589.113	28.3
589.307	28.44
589.501	28.34
589.694	28.47
589.888	28.73
590.082	28.81
590.275	28.81
590.469	28.97
590.663	29.01
590.856	28.89
591.05	28.69
591.244	28.63
591.437	28.97
591.631	28.99
591.824	28.7
592.018	28.59
592.212	28.74
592.405	29.21
592.599	28.92
592.792	28.81
592.986	28.81
593.179	28.81
593.372	29.05
593.566	28.64
593.759	28.99
593.953	29.33
594.146	29.46
594.339	29.27
594.533	29.17
594.726	29.22
594.92	29.23
595.113	29.25
595.306	29.56
595.499	29.49
595.693	29.67
595.886	29.54
596.079	29.35
596.272	29.32
596.466	29.37
596.659	29.17
596.852	29.44
597.045	29.45
597.238	29.46
597.431	29.4
597.624	29.42
597.818	29.33
598.011	29.43
598.204	29.45
598.397	29.31
598.59	29.29
598.783	29.35
598.976	29.27
599.169	29.39
599.362	29.46
599.555	29.45
599.748	29.46
599.941	29.46
600.134	29.38
600.326	29.49
600.519	29.84
600.712	30.11
600.905	30.5
601.098	30.54
601.291	30.59
601.483	30.73
601.676	30.6
601.869	30.72
602.062	30.76
602.255	30.73
602.447	30.53
602.64	30.45
602.833	30.28
603.025	30.05
603.218	29.95
603.411	30
603.603	30.05
603.796	30.12
603.989	29.97
604.181	30.19
604.374	30.11
604.566	30.45
604.759	30.5
604.951	30.66
605.144	30.55
605.336	30.8
605.529	30.74
605.721	30.61
605.914	30.87
606.106	31.27
606.299	31.47
606.491	31.67
606.683	31.45
606.876	31.39
607.068	31.2
607.26	31.36
607.453	31.11
607.645	30.99
607.837	31.36
608.03	31.21
608.222	30.78
608.414	30.56
608.606	30.4
608.799	31
608.991	31.1
609.183	31.22
609.375	31.23
609.567	31.42
609.759	31.68
609.952	31.52
610.144	31.51
610.336	31.72
610.528	31.72
610.72	31.93
610.912	31.51
611.104	31.72
611.296	31.66
611.488	31.46
611.68	31.53
611.872	31.44
612.064	31.54
612.256	31.53
612.448	31.57
612.64	31.47
612.832	31.5
613.023	31.44
613.215	31.21
613.407	31
613.599	31.38
613.791	31.13
613.983	30.97
614.174	31.01
614.366	30.87
614.558	30.73
614.75	30.91
614.941	30.81
615.133	30.95
615.325	30.95
615.516	31.44
615.708	31.58
615.9	31.57
616.091	31.77
616.283	31.73
616.475	31.76
616.666	31.62
616.858	31.65
617.049	31.65
617.241	31.57
617.432	31.32
617.624	31.33
617.815	30.88
618.007	31.05
618.198	30.86
618.39	30.64
618.581	30.81
618.773	30.88
618.964	30.81
619.155	30.73
619.347	30.63
619.538	31.06
619.729	30.8
619.921	30.96
620.112	31.35
620.303	31.23
620.494	31.27
620.686	31.12
620.877	31.15
621.068	31.05
621.259	30.92
621.451	31.11
621.642	30.48
621.833	30.54
622.024	30.61
622.215	29.99
622.406	30.2
622.597	30.11
622.788	30.03
622.98	30.46
623.171	30.57
623.362	30.85
623.553	31.02
623.744	31.42
623.935	31.3
624.126	31.3
624.317	31.5
624.508	31.6
624.698	31.88
624.889	31.83
625.08	31.63
625.271	31.79
625.462	31.58
625.653	31.22
625.844	31.02
626.034	31.08
626.225	31.18
626.416	31.05
626.607	31.06
626.798	31.07
626.988	31.29
627.179	31.36
627.37	31.19
627.56	31.37
627.751	31.79
627.942	32.11
628.132	32.16
628.323	32.13
628.514	32.39
628.704	32.46
628.895	32.22
629.085	31.98
629.276	31.89
629.466	32.15
629.657	32.06
629.847	31.7
630.038	32.01
630.228	32.1
630.419	32.24
630.609	32.19
630.8	32.15
630.99	32.38
631.181	32.72
631.371	32.63
631.561	32.48
631.752	32.75
631.942	33
632.132	32.55
632.323	32.42
632.513	32.26
632.703	32.26
632.893	32.52
633.084	32.45
633.274	32.34
633.464	32.31
633.654	32.58
633.844	32.52
634.034	32.29
634.225	32.29
634.415	32.41
634.605	32.7
634.795	32.51
634.985	32.23
635.175	32.33
635.365	32.36
635.555	32.42
635.745	31.85
635.935	31.85
636.125	32.09
636.315	32.26
636.505	32.02
636.695	31.61
636.885	31.6
637.075	31.77
637.265	31.7
637.455	31.7
637.644	31.8
637.834	32.45
638.024	32.43
638.214	32.48
638.404	32.44
638.593	32.65
638.783	32.88
638.973	33.18
639.163	32.92
639.352	32.57
639.542	32.57
639.732	32.63
639.921	32.25
640.111	32.56
640.301	32.29
640.49	32.55
640.68	32.99
640.87	33.12
641.059	32.96
641.249	33.28
641.438	33.66
641.628	33.74
641.817	33.93
642.007	33.89
642.196	33.82
642.386	33.84
642.575	33.84
642.764	33.4
642.954	33.21
643.143	33.19
643.333	33.14
643.522	33.04
643.711	32.7
643.901	32.98
644.09	32.94
644.279	32.87
644.469	33.05
644.658	32.94
644.847	33.11
645.036	33.35
645.226	33.49
645.415	33.5
645.604	33.29
645.793	33.74
645.982	33.17
646.171	33.24
646.361	32.83
646.55	33.53
646.739	33.39
646.928	32.96
647.117	32.88
647.306	32.77
647.495	32.77
647.684	33.07
647.873	32.98
648.062	33.24
648.251	33.15
648.44	33.13
648.629	32
648.818	32.2
649.007	32.24
649.196	32.19
649.384	32
649.573	31.98
649.762	31.6
649.951	31.89
650.14	31.81
650.328	31.78
650.517	32.11
650.706	32.66
650.895	32.33
651.083	33.11
651.272	33.46
651.461	33.74
651.65	33.54
651.838	34.22
652.027	34.07
652.216	33.72
652.404	33.51
652.593	33.42
652.781	33.26
652.97	33.29
653.158	32.41
653.347	32.1
653.535	31.94
653.724	31.9
653.912	32.33
654.101	31.98
654.289	32.27
654.478	32.6
654.666	32.63
654.855	32.66
655.043	32.93
655.231	33.21
655.42	33.43
655.608	33.56
655.796	33.97
655.985	33.77
656.173	33.67
656.361	33.64
656.55	33.47
656.738	33.61
656.926	34.07
657.114	33.97
657.302	34.07
657.491	33.74
657.679	33.52
657.867	33.51
658.055	33.12
658.243	33.47
658.431	33.53
658.619	33.96
658.807	33.97
658.996	33.6
659.184	33.45
659.372	33.53
659.56	33.52
659.748	33.43
659.936	33.25
660.124	33.22
660.311	33.09
660.499	32.97
660.687	32.4
660.875	32.22
661.063	32.31
661.251	32.27
661.439	32.56
661.627	32.5
661.814	32.84
662.002	32.57
662.19	32.78
662.378	33.15
662.565	33.3
662.753	33.32
662.941	33.44
663.129	33.15
663.316	33.44
663.504	33.21
663.692	33.19
663.879	32.94
664.067	33.17
664.254	32.69
664.442	32.18
664.63	32.77
664.817	33.5
665.005	33.4
665.192	33.53
665.38	33.27
665.567	32.93
665.755	33.09
665.942	33.25
666.13	33.4
666.317	33.76
666.504	34.01
666.692	33.62
666.879	33.21
667.067	33.34
667.254	33.71
667.441	33.76
667.629	33.53
667.816	33.51
668.003	34.07
668.19	34.22
668.378	34.31
668.565	34.53
668.752	34.21
668.939	34.26
669.127	33.85
669.314	33.49
669.501	33.77
669.688	34.1
669.875	34.21
670.062	33.67
670.249	33.65
670.436	33.94
670.623	33.85
670.81	33.9
670.997	34.12
671.184	34.59
671.371	35.04
671.558	35.01
671.745	34.88
671.932	34.56
672.119	34.52
672.306	34.35
672.493	34.12
672.68	34.36
672.867	34.85
673.054	34.6
673.24	34.65
673.427	34.41
673.614	34.2
673.801	34.54
673.988	35.01
674.174	34.88
674.361	35.14
674.548	35.07
674.734	34.81
674.921	34.05
675.108	34.41
675.294	34.33
675.481	34.47
675.668	34.45
675.854	34.49
676.041	34.55
676.227	34.84
676.414	34.49
676.601	34.83
676.787	34.46
676.974	34.81
677.16	34.41
677.347	34.69
677.533	34.24
677.719	34.65
677.906	34.19
678.092	34.06
678.279	34.33
678.465	34.44
678.651	33.75
678.838	33.56
679.024	33.68
679.21	33.46
679.397	33.27
679.583	33.57
679.769	33.3
679.955	33.43
680.142	33.29
680.328	33.18
680.514	32.99
680.7	33.5
680.886	33.69
681.073	33.67
681.259	34.3
681.445	34.26
681.631	34.33
681.817	34.43
682.003	34.49
682.189	34.52
682.375	34.65
682.561	35.17
682.747	34.45
682.933	34.79
683.119	34.9
683.305	34.58
683.491	34.23
683.677	34.42
683.863	34.37
684.049	34.8
684.235	34.83
684.42	34.72
684.606	34.69
684.792	35.4
684.978	35.29
685.164	35.56
685.349	35.7
685.535	36.3
685.721	36.04
685.907	36.03
686.092	35.29
686.278	35.41
686.464	35.33
686.649	35.24
686.835	35.1
687.021	35.53
687.206	35.06
687.392	34.5
687.577	34.76
687.763	35.01
687.948	35.18
688.134	35.32
688.319	35.27
688.505	35.32
688.69	35.21
688.876	35.25
689.061	34.62
689.247	34.52
689.432	35.09
689.618	34.71
689.803	34.59
689.988	34.3
690.174	34.68
690.359	34.11
690.544	34.12
690.73	34.12
690.915	34.12
691.1	33.74
691.285	34.03
691.471	33.62
691.656	33.16
691.841	32.55
692.026	32.48
692.211	32.36
692.396	33.02
692.582	33.61
692.767	33.7
692.952	33.89
693.137	34.73
693.322	34.68
693.507	35.12
693.692	35.56
693.877	35.94
694.062	36.19
694.247	36.72
694.432	36.85
694.617	36.11
694.802	36.32
694.987	35.98
695.172	36.11
695.357	36.21
695.541	35.46
695.726	35.49
695.911	35.23
696.096	35.27
696.281	34.88
696.466	34.97
696.65	35.4
696.835	35.25
697.02	35.46
697.204	35.87
697.389	35.18
697.574	35.58
697.759	35.59
697.943	35.65
698.128	35.84
698.312	36.1
698.497	35.88
698.682	35.86
698.866	35.61
699.051	35.47
699.235	35.28
699.42	35.65
699.604	35.73
699.789	35.78
699.973	35.72
700.158	35.35
700.342	34.99
700.527	35.05
700.711	34.55
700.895	34.92
701.08	35.25
701.264	34.92
701.448	34.61
701.633	35.07
701.817	35.58
702.001	36.16
702.186	36.43
702.37	36.3
702.554	36.52
702.738	37
702.923	37.11
703.107	36.94
703.291	37.14
703.475	37.22
703.659	36.38
703.843	35.65
704.027	35.1
704.212	34.46
704.396	35
704.58	34.87
704.764	34.08
704.948	33.66
705.132	33.54
705.316	33.63
705.5	34.45
705.684	35.16
705.868	35.49
706.052	35.95
706.235	36.62
706.419	36.39
706.603	36.17
706.787	36.65
706.971	37.04
707.155	36.81
707.339	36.27
707.522	36.08
707.706	36.14
707.89	35.7
708.074	35.83
708.257	35.82
708.441	36.16
708.625	35.97
708.808	36.05
708.992	35.95
709.176	36.19
709.359	36.78
709.543	36.53
709.727	36.31
709.91	36.63
710.094	36.52
710.277	37.28
710.461	37
710.644	37.65
710.828	38.25
711.011	37.95
711.195	37.88
711.378	37.89
711.562	38.21
711.745	38.02
711.928	37.67
712.112	37.04
712.295	36.32
712.478	36.63
712.662	36.71
712.845	35.95
713.028	35.89
713.212	35.72
713.395	35
713.578	35.44
713.761	35.93
713.945	35.95
714.128	36.95
714.311	36.48
714.494	36.04
714.677	35.72
714.86	35.43
715.043	35.99
715.227	36.1
715.41	37.13
715.593	36.62
715.776	36.88
715.959	37.18
716.142	36.62
716.325	37.47
716.508	37.58
716.691	37.16
716.874	37.78
717.057	37.35
717.239	37.59
717.422	36.97
717.605	37.21
717.788	36.64
717.971	37.24
718.154	37.5
718.337	37.51
718.519	37.15
718.702	37.55
718.885	37.51
719.068	37.5
719.25	38.14
719.433	38.18
719.616	38.41
719.798	38.44
719.981	38.07
720.164	37.5
720.346	37.13
720.529	37.37
720.712	37.37
720.894	37.59
721.077	37.15
721.259	36.6
721.442	37.1
721.624	37.12
721.807	37.93
721.989	37.53
722.172	37.45
722.354	37.22
722.537	37.87
722.719	37.25
722.901	37.64
723.084	38.36
723.266	38.21
723.448	37.59
723.631	36.81
723.813	36
723.995	35.56
724.178	36.32
724.36	36.25
724.542	35.83
724.724	36.93
724.907	36.78
725.089	37.83
725.271	38.25
725.453	37.98
725.635	37.89
725.817	38.21
725.999	39.14
726.181	39.22
726.364	39.63
726.546	39.45
726.728	39.11
726.91	38.8
727.092	37.39
727.274	36.62
727.456	37
727.638	36.63
727.819	36.64
728.001	36.49
728.183	36.51
728.365	37.17
728.547	37.67
728.729	37.74
728.911	37.54
729.093	38.05
729.274	37.66
729.456	37.51
729.638	38.02
729.82	38.19
730.001	37.93
730.183	37.96
730.365	37.4
730.546	37.51
730.728	37.67
730.91	37.55
731.091	37.98
731.273	38.68
731.455	39.15
731.636	39.6
731.818	39.19
731.999	38.86
732.181	38.28
732.362	37.02
732.544	37.24
732.725	36.99
732.907	37.4
733.088	36.32
733.27	37.56
733.451	37.01
733.633	36.6
733.814	36.88
733.995	36.9
734.177	37.89
734.358	39.21
734.539	37.73
734.721	37.77
734.902	37.67
735.083	38.65
735.264	37.41
735.446	38.44
735.627	38.07
735.808	37.62
735.989	38.9
736.17	38.28
736.351	39.08
736.533	40.16
736.714	39.82
736.895	39.6
737.076	38.91
737.257	38.99
737.438	37.34
737.619	38.39
737.8	38.1
737.981	37.41
738.162	37.31
738.343	36.16
738.524	36.12
738.705	36.6
738.886	35.93
739.067	36.64
739.247	37
739.428	37.19
739.609	37
739.79	38.49
739.971	38.78
740.151	38.56
740.332	38.72
740.513	39.74
740.694	39.36
740.874	39.36
741.055	39.05
741.236	39.12
741.417	39.45
741.597	39.13
741.778	38.05
741.958	37.01
742.139	36.34
742.32	35.69
742.5	34.52
742.681	35.1
742.861	35.33
743.042	34.62
743.222	34.31
743.403	34.58
743.583	35.24
743.764	35.85
743.944	36.46
744.124	37.85
744.305	38.51
744.485	37.8
744.666	37.52
744.846	38.54
745.026	39.55
745.207	40.3
745.387	40.38
745.567	39.86
745.747	39.55
745.928	38.3
746.108	37.6
746.288	36.69
746.468	38.05
746.648	39.25
746.829	38.54
747.009	37.33
747.189	36.13
747.369	35.71
747.549	36.21
747.729	35.33
747.909	36.8
748.089	38.15
748.269	39.08
748.449	38.93
748.629	38.3
748.809	38.74
748.989	39.11
749.169	39.13
749.349	40.49
749.529	39.63
749.709	40.31
749.889	39.67
750.068	37.75
750.248	37.97
750.428	38.52
750.608	38.48
750.788	38.72
750.967	38.85
751.147	38.57
751.327	38.54
751.507	39.35
751.686	39.6
751.866	40.61
752.046	41.72
752.225	41.26
752.405	40.19
752.585	40.12
752.764	40.51
752.944	39.46
753.123	40.18
753.303	39.14
753.482	38.27
753.662	38.09
753.841	36.88
754.021	36.09
754.2	36.12
754.38	36.93
754.559	36.8
754.739	36.45
754.918	38.23
755.097	38.02
755.277	37.62
755.456	38
755.635	37.75
755.815	38.87
755.994	40.22
756.173	39.99
756.352	39.59
756.532	40.37
756.711	39.41
756.89	38.68
757.069	39.86
757.248	40.13
757.427	39.88
757.607	39.4
757.786	38.28
757.965	36.85
758.144	36.59
758.323	36.07
758.502	35.36
758.681	36.34
758.86	36.82
759.039	35.07
759.218	35.09
759.397	34.87
759.576	35.08
759.755	35.19
759.934	35.89
760.113	36.89
760.291	37.3
760.47	37.77
760.649	37.75
760.828	36.46
761.007	36.21
761.186	35.95
761.364	35.97
761.543	36.6
761.722	37.92
761.901	36.72
762.079	36.54
762.258	36.24
762.437	35.19
762.615	34.56
762.794	35.79
762.972	36.67
763.151	36.93
763.33	37.05
763.508	37.25
763.687	36.31
763.865	37.34
764.044	37.22
764.222	36.58
764.401	37.11
764.579	37.11
764.758	36.25
764.936	36.51
765.114	36.5
765.293	36.24
765.471	35.69
765.65	35.44
765.828	34.57
766.006	34.45
766.184	35.1
766.363	34.74
766.541	34.32
766.719	34.31
766.898	33.3
767.076	33.26
767.254	33.91
767.432	33.68
767.61	34.74
767.788	34.74
767.967	34.43
768.145	35.09
768.323	35.57
768.501	36.38
768.679	37.04
768.857	36.92
769.035	37.56
769.213	37.69
769.391	37.37
769.569	37.56
769.747	38.39
769.925	37.62
770.103	37.49
770.281	35.79
770.459	34.79
770.636	34.38
770.814	36.39
770.992	36.34
771.17	36.47
771.348	37.65
771.525	37.03
771.703	37.53
771.881	38.89
772.059	40.09
772.236	40.94
772.414	41.58
772.592	41.76
772.769	39.86
772.947	40.44
773.125	40.35
773.302	40.82
773.48	42.56
773.657	42.32
773.835	42.81
774.013	42.01
774.19	43.27
774.368	42.53
774.545	43.65
774.723	43.39
774.9	43.05
775.077	41.58
775.255	41.41
775.432	39.16
775.61	37.39
775.787	37.24
775.964	34.81
776.142	33.47
776.319	35.15
776.496	36.42
776.674	37.79
776.851	38.63
777.028	39.18
777.205	38.5
777.382	39.09
777.56	42.43
777.737	45.26
777.914	47.71
778.091	48.4
778.268	47.89
778.445	45.35
778.622	45.85
778.8	44.05
778.977	44.69
779.154	46.4
779.331	46.2
779.508	44.26
779.685	40.71
779.862	40.37
780.038	39.83
780.215	41.53
780.392	42.74
780.569	42.92
780.746	43.03
780.923	41.17
781.1	39.14
781.277	39.21
781.453	37.87
781.63	36.73
781.807	38.26
781.984	38.4
782.16	37.08
782.337	36.48
782.514	34.48
782.691	33.74
782.867	34.42
783.044	36.55
783.221	35.84
783.397	37.47
783.574	39.08
783.75	37.69
783.927	38.6
784.103	37.83
784.28	36.6
784.456	36.65
784.633	38.56
784.809	39.88
784.986	35.54
785.162	36.04
785.339	36.21
785.515	33.86
785.692	34.58
785.868	35.05
786.044	36.88
786.221	37.58
786.397	40.17
786.573	38.43
786.749	40.47
786.926	42.95
787.102	45.77
787.278	46.78
787.454	51.01
787.631	48.97
787.807	47.51
787.983	46.59
788.159	46.63
788.335	44.66
788.511	44.57
788.687	40.8
788.863	40.88
789.039	40.22
789.216	39.41
789.392	38.8
789.568	38.17
789.744	39.09
789.919	40.14
790.095	39.51
790.271	40.3
790.447	40.61
790.623	42.39
790.799	43.81
790.975	41.29
791.151	41.73
791.327	39.04
791.502	39.23
791.678	37.85
791.854	36.44
792.03	37.44
792.205	36.51
792.381	34.72
792.557	32.86
792.733	30.46
792.908	32.48
793.084	33.84
793.259	32.6
793.435	31.97
793.611	36.02
793.786	35.42
793.962	33.75
794.137	32.93
794.313	33.94
794.488	37.38
794.664	37.38
794.839	36.97
795.015	33.31
795.19	34.15
795.366	36.36
795.541	32.74
795.716	32.32
795.892	32.5
796.067	35.07
796.242	37.41
796.418	35.92
796.593	37.59
796.768	38.63
796.944	39.63
797.119	40.86
797.294	40.1
797.469	40.88
797.644	40.57
797.82	43.33
797.995	41.38
798.17	40.37
798.345	40.59
798.52	37.62
798.695	36.87
798.87	35.61
799.045	35.71
799.22	36.28
799.395	37.75
799.57	39.63
799.745	37.91
799.92	40.04
800.095	39.19
800.27	38.04
800.445	37.93
800.62	36.59
800.795	36.68
800.97	38.79
801.145	39.75
801.319	35.42
801.494	34.62
801.669	37.35
801.844	34.99
802.018	36.78
802.193	37.59
802.368	39.67
802.543	38.78
802.717	43.64
802.892	40.82
803.067	42.91
803.241	46.7
803.416	47.33
803.59	45.91
803.765	45.36
803.94	45.46
804.114	44.51
804.289	46.78
804.463	47.44
804.638	43.69
804.812	43.62
804.986	40.48
805.161	41.39
805.335	40.57
805.51	38.38
805.684	38.27
805.858	37.49
806.033	39.59
806.207	35.11
806.381	36.98
806.556	40.01
806.73	41.41
806.904	42.23
807.078	42.61
807.253	42.01
807.427	45.49
807.601	45.94
807.775	47.19
807.949	46.53
808.123	45.19
808.298	43.11
808.472	38.97
808.646	37.71
808.82	34.87
808.994	31.19
809.168	31.18
809.342	30.13
809.516	31.21
809.69	29.12
809.864	27.58
810.038	32.1
810.212	33.65
810.385	33.54
810.559	34.16
810.733	33.98
810.907	35.64
811.081	34.39
811.255	36.58
811.428	34.1
811.602	30.27
811.776	30.66
811.95	28.19
812.123	29.31
812.297	33.47
812.471	32.34
812.644	35.27
812.818	33.54
812.992	37.2
813.165	33.98
813.339	34.46
813.512	40.5
813.686	38.15
813.86	41.64
814.033	38
814.207	37.03
814.38	38.59
814.554	37.1
814.727	39.44
814.9	40.94
815.074	41.43
815.247	38.79
815.421	38.63
815.594	42.97
815.767	40.4
815.941	42.76
816.114	44.03
816.287	43.39
816.46	44.48
816.634	42.06
816.807	41.76
816.98	41.17
817.153	45.41
817.327	43.11
817.5	39.25
817.673	41.91
817.846	42.29
818.019	43.55
818.192	45.85
818.365	41.21
818.538	43.41
818.711	42.38
818.884	40.07
819.057	38.39
819.23	38.41
819.403	41.11
819.576	39.73
819.749	41.48
819.922	39.23
820.095	39.65
820.268	43.67
820.441	43.45
820.614	44.59
820.786	46.1
820.959	47.7
821.132	45.73
821.305	43.64
821.477	42.55
821.65	40.83
821.823	41.54
821.996	40.31
822.168	40.46
822.341	39.63
822.514	38.25
822.686	37.91
822.859	37.67
823.031	37.94
823.204	37.98
823.376	37.91
823.549	38.2
823.722	38.16
823.894	38.63
824.067	38.3
824.239	38.74
824.411	38.74
824.584	39.38
824.756	39.16
824.929	39.45
825.101	39.38
825.273	39.59
825.446	39.54
825.618	39.06
825.79	38.8
825.963	39.47
826.135	39.15
826.307	39.76
826.479	39.05
826.652	38.99
826.824	39.92
826.996	40.07
827.168	40.41
827.34	40.29
827.512	40.79
827.684	40.33
827.856	39.13
828.029	39.73
828.201	39.41
828.373	39.69
828.545	39.1
828.717	39.29
828.889	40.22
829.061	39.95
829.232	39.77
829.404	38.65
829.576	38.04
829.748	38.69
829.92	39.49
830.092	40.7
830.264	41.01
830.436	41.25
830.607	41.08
830.779	40.23
830.951	39.03
831.123	38.9
831.294	39.97
831.466	40.49
831.638	38.91
831.809	35.42
831.981	32.27
832.153	32.06
832.324	32.19
832.496	32.61
832.667	37.32
832.839	40.22
833.011	38.33
833.182	36.55
833.354	36.61
833.525	39.25
833.697	38.03
833.868	39.54
834.039	39.77
834.211	41.46
834.382	39.24
834.554	36.01
834.725	34.99
834.896	36.2
835.068	36.6
835.239	36.85
835.41	36.7
835.581	37.46
835.753	39.27
835.924	38.48
836.095	37.93
836.266	37.17
836.438	37.88
836.609	38.47
836.78	39.18
836.951	41
837.122	41.12
837.293	40.07
837.464	42.74
837.635	42.23
837.806	40.17
837.977	37.35
838.148	41.05
838.319	41.03
838.49	41.07
838.661	38.23
838.832	39.61
839.003	39.4
839.174	38.38
839.345	38.88
839.516	38.68
839.687	41.34
839.857	43.98
840.028	42.28
840.199	37.19
840.37	40.54
840.54	46.17
840.711	43.45
840.882	44.33
841.053	47.96
841.223	45.59
841.394	46.33
841.564	51.81
841.735	54.16
841.906	53.84
842.076	62.17
842.247	55.79
842.417	51.75
842.588	52.63
842.758	53.89
842.929	48.31
843.099	50.23
843.27	45.93
843.44	46.65
843.611	48.87
843.781	49.99
843.951	48.84
844.122	50.39
844.292	52.96
844.462	56.78
844.633	55.03
844.803	58.62
844.973	56.3
845.144	59.86
845.314	52.23
845.484	45.45
845.654	43.16
845.824	40.54
845.995	40.91
846.165	39.45
846.335	31.63
846.505	27.29
846.675	27.75
846.845	22.42
847.015	22.06
847.185	22.18
847.355	25.77
847.525	35.28
847.695	47.65
847.865	38.03
848.035	42.55
848.205	46.42
848.375	51.03
848.545	52.01
848.715	62.8
848.884	54.89
849.054	51.89
849.224	55.47
849.394	54.78
849.564	50.69
849.733	62.52
849.903	60.94
850.073	63.62
850.243	67.42
850.412	70.85
850.582	73.45
850.752	69.86
850.921	75.78
851.091	77.23
851.26	77.25
851.43	75.19
851.599	62.08
851.769	58.56
851.939	59.83
852.108	49.6
852.278	53.02
852.447	54.02
852.616	61.63
852.786	56.01
852.955	49.81
853.125	50.17
853.294	52.88
853.463	52.28
853.633	55.73
853.802	60.26
853.971	84.15
854.141	73.15
854.31	68.44
854.479	62.48
854.648	71.03
854.818	68.06
854.987	63.41
855.156	64.64
855.325	62.14
855.494	69.87
855.663	54.41
855.832	43.95
856.001	40.49
856.171	36.53
856.34	39.28
856.509	35.56
856.678	40.83
856.847	34.44
857.016	21.43
857.185	27.81
857.353	31.03
857.522	35.81
857.691	29.13
857.86	36.19
858.029	44.71
858.198	47.17
858.367	48.44
858.535	42.28
858.704	46.48
858.873	56.71
859.042	56.77
859.21	65.72
859.379	55.99
859.548	48.04
859.717	45.94
859.885	53.83
860.054	47.5
860.222	39.07
860.391	43.13
860.56	50.63
860.728	48.58
860.897	52.36
861.065	35.71
861.234	41.65
861.402	45.71
861.571	38.51
861.739	35.46
861.908	36.48
862.076	46.21
862.244	48.67
862.413	39.51
862.581	39.29
862.749	38.64
862.918	46.73
863.086	47.5
863.254	58
863.423	71.62
863.591	53.42
863.759	64.88
863.927	54.86
864.096	42.24
864.264	47.53
864.432	51.23
864.6	57.71
864.768	52.89
864.936	51.98
865.104	42.47
865.272	42.47
865.44	49.4
865.608	41.68
865.776	58.09
865.944	64.44
866.112	71.93
866.28	62.95
866.448	49.39
866.616	60.61
866.784	51.34
866.952	54.28
867.12	53.79
867.288	54.33
867.455	59.17
867.623	55.46
867.791	54.34
867.959	41.36
868.127	54.9
868.294	66.06
868.462	51.67
868.63	57.42
868.797	59.92
868.965	54.29
869.133	53.59
869.3	50.07
869.468	43.98
869.636	40.98
869.803	50.36
869.971	39.03
870.138	31.21
870.306	30.18
870.473	37.5
870.641	25.69
870.808	28.66
870.975	28.6
871.143	26.19
871.31	24.12
871.478	6.07
871.645	-8.45
871.812	9.53
871.98	7.93
872.147	7.04
872.314	1.59
872.482	11.02
872.649	8.58
872.816	7.88
872.983	17.07
873.15	23.58
873.318	42.47
873.485	48.62
873.652	38.78
873.819	47.21
873.986	51.4
874.153	65.01
874.32	70.41
874.487	80.77
874.654	86.02
874.821	77.5
874.988	78.2
875.155	82.47
875.322	67.03
875.489	47.06
875.656	23.39
875.823	19.78
875.99	18.81
876.157	23.58
876.324	27.73
876.49	33.36
876.657	33.26
876.824	26.94
876.991	21.86
877.157	23.51
877.324	38.13
877.491	41.21
877.658	39.5
877.824	36.58
877.991	34.34
878.157	34.91
878.324	34.57
878.491	29.94
878.657	29.84
878.824	31.41
878.99	30.03
879.157	31.31
879.323	33.98
879.49	36.12
879.656	41.15
879.823	48.77
879.989	54.96
880.156	58.63
880.322	63.33
880.488	62.44
880.655	61.8
880.821	68.83
880.987	63.91
881.154	59.83
881.32	64.36
881.486	56.93
881.652	57.3
881.819	45.01
881.985	44.94
882.151	45.06
882.317	43.45
882.483	45.29
882.649	40.67
882.816	38.54
882.982	40.66
883.148	37.01
883.314	36.97
883.48	36.2
883.646	37.03
883.812	36.49
883.978	36.04
884.144	37.63
884.31	38.82
884.476	38.54
884.642	39.14
884.807	36.52
884.973	36.1
885.139	37.46
885.305	36.33
885.471	35.97
885.637	36.18
885.802	35.13
885.968	33.87
886.134	32.16
886.3	35.22
886.465	35.71
886.631	37.34
886.797	41.64
886.962	39.67
887.128	42.14
887.293	45.21
887.459	40.63
887.625	43.51
887.79	47.85
887.956	45.12
888.121	41.62
888.287	43.32
888.452	46.67
888.618	41.15
888.783	42.43
