Data from CB_072_Reflection_3.txt Node
Date: Sat Nov 14 11:12:39 EST 2015
User: robert
Spectrometer: USB4E03001
Autoset integration time: false
Trigger mode: 4
Integration Time (sec): 1.000000E-1
Scans to average: 15
Electric dark correction enabled: true
Nonlinearity correction enabled: false
Boxcar width: 5
Stray light correction enabled: false
XAxis mode: Wavelengths
Stop averaging: false
Number of Pixels in Spectrum: 3648
>>>>>Begin Spectral Data<<<<<
177.566	-237.77
177.785	-530.06
178.005	-1812.4
178.225	-416.67
178.445	-288.93
178.665	-340.28
178.885	3.6
179.105	-96.41
179.324	-150.17
179.544	-317.46
179.764	-118.84
179.984	-190.19
180.204	-254.28
180.423	-756.57
180.643	-421.48
180.863	-485.73
181.083	-1942.34
181.302	-9155.56
181.522	1044.96
181.742	1011.45
181.961	1264.39
182.181	167.96
182.401	97.28
182.621	159.75
182.84	641.66
183.06	-2169.83
183.279	-369.03
183.499	-227.99
183.719	-236.28
183.938	-189.86
184.158	-156.05
184.377	-159.32
184.597	-96.43
184.816	-53.58
185.036	-99.76
185.256	-140.71
185.475	-307.74
185.695	-168.18
185.914	-147.87
186.134	-125.92
186.353	-108
186.572	-109.67
186.792	-312.2
187.011	2137.82
187.231	-1698.38
187.45	-370.37
187.67	-1998.84
187.889	810.16
188.108	438.98
188.328	373.8
188.547	306.46
188.766	257.1
188.986	212.48
189.205	218.27
189.424	233.61
189.644	206.16
189.863	243.79
190.082	256.04
190.302	350.78
190.521	205.59
190.74	195.86
190.959	690.6
191.178	649.9
191.398	625.14
191.617	1298.82
191.836	3839.78
192.055	735.22
192.274	191.33
192.494	305.53
192.713	10803.57
192.932	-1830.22
193.151	367700
193.37	431.08
193.589	-9725.66
193.808	-886.71
194.027	-1531.4
194.246	3805.41
194.465	-2426.94
194.685	619.82
194.904	628.97
195.123	314.4
195.342	165.33
195.561	120
195.78	524.79
195.999	1196.76
196.218	402.75
196.436	95.93
196.655	44.85
196.874	64.28
197.093	183.86
197.312	207.89
197.531	427.82
197.75	770.92
197.969	2051.47
198.188	401.76
198.407	256.96
198.625	281.1
198.844	450.57
199.063	543.02
199.282	970
199.501	-4673.83
199.719	-1605.96
199.938	687.14
200.157	389.08
200.376	-2675.45
200.594	-163.91
200.813	-537.43
201.032	-1376.19
201.251	-478.2
201.469	-990.75
201.688	-1607.08
201.907	2936.61
202.125	1110.45
202.344	4992.1
202.563	28286.96
202.781	1392.4
203	426.15
203.218	288.9
203.437	452.79
203.656	293.41
203.874	589.12
204.093	720.95
204.311	433.36
204.53	1121.2
204.748	274.46
204.967	296.89
205.185	287.5
205.404	303.31
205.622	528.98
205.841	277.56
206.059	261.79
206.278	208.31
206.496	261.05
206.715	482.72
206.933	349.03
207.151	386.02
207.37	319.42
207.588	361.46
207.806	428.55
208.025	611.33
208.243	1089.17
208.461	-79440.91
208.68	2043.27
208.898	834.19
209.116	416.91
209.335	296.35
209.553	279.24
209.771	183.88
209.989	167.26
210.208	148.15
210.426	94.67
210.644	83.7
210.862	73.87
211.081	85.5
211.299	68.36
211.517	83.6
211.735	81.1
211.953	80.14
212.171	91.53
212.39	64.2
212.608	77.65
212.826	87.98
213.044	103.13
213.262	106.38
213.48	112.17
213.698	205.59
213.916	122.48
214.134	180.07
214.352	344.9
214.57	194.29
214.788	222.88
215.006	142.25
215.224	367.99
215.442	783.08
215.66	1536.91
215.878	415.05
216.096	107.62
216.314	333.65
216.532	1684.01
216.75	-523.81
216.968	-784.22
217.185	-6435.4
217.403	1952.87
217.621	-88600
217.839	-533.36
218.057	-18941.67
218.275	-624.55
218.492	-132.89
218.71	-2238.87
218.928	1015.58
219.146	402.15
219.363	236.33
219.581	304.08
219.799	-993.77
220.017	130.16
220.234	140.43
220.452	215.81
220.67	272.22
220.887	149.62
221.105	254.57
221.323	218.62
221.54	183.21
221.758	167.79
221.976	151.29
222.193	100.92
222.411	117.39
222.629	112.07
222.846	96.24
223.064	94.19
223.281	106.61
223.499	101.45
223.716	79.43
223.934	80.09
224.151	92.82
224.369	96.73
224.586	122.94
224.804	134.48
225.021	133.59
225.239	137.16
225.456	129.56
225.674	112.18
225.891	118.18
226.108	123.89
226.326	112.68
226.543	99.32
226.76	86.04
226.978	75.42
227.195	73.43
227.413	59.44
227.63	53.86
227.847	52.44
228.064	47.19
228.282	41.83
228.499	39.84
228.716	36.33
228.934	37.88
229.151	36.86
229.368	34.05
229.585	30.27
229.802	32.18
230.02	30.2
230.237	29.84
230.454	32.67
230.671	35.05
230.888	34.45
231.105	36.99
231.323	38.61
231.54	39.29
231.757	42.23
231.974	49.46
232.191	53.41
232.408	52.63
232.625	58.71
232.842	55.81
233.059	52.78
233.276	53.83
233.493	50.25
233.71	42.89
233.927	41
234.144	38.85
234.361	33.8
234.578	31.01
234.795	31.76
235.012	28
235.229	22.81
235.446	28.42
235.663	26.83
235.879	29.1
236.096	28.19
236.313	30.69
236.53	29.81
236.747	29.04
236.964	25.64
237.181	36.47
237.397	40.09
237.614	55.47
237.831	58.16
238.048	53.6
238.264	55.46
238.481	61.25
238.698	59.68
238.915	59.01
239.131	56.54
239.348	56
239.565	50.48
239.781	47.01
239.998	35.63
240.215	29.96
240.431	35.84
240.648	31.29
240.865	27.66
241.081	29.15
241.298	29.49
241.514	28.16
241.731	25.17
241.947	23.65
242.164	23.63
242.38	22.75
242.597	21.32
242.814	19.41
243.03	20.96
243.246	22.42
243.463	20.46
243.679	19
243.896	18.85
244.112	19.88
244.329	20.56
244.545	24.43
244.762	24.41
244.978	25.88
245.194	24.2
245.411	23.93
245.627	22.38
245.843	22.8
246.06	22.43
246.276	22.18
246.492	22.91
246.709	22.04
246.925	19.49
247.141	19.56
247.357	18.46
247.574	19.18
247.79	18.33
248.006	17.26
248.222	18.15
248.439	17.46
248.655	17.33
248.871	15.76
249.087	16.21
249.303	17.17
249.519	18.12
249.736	20
249.952	20.2
250.168	22.95
250.384	25.53
250.6	23.6
250.816	26.76
251.032	25.77
251.248	27.27
251.464	27.29
251.68	22.81
251.896	19.24
252.112	17.82
252.328	17.8
252.544	17.62
252.76	14.85
252.976	15.23
253.192	12.78
253.408	12.23
253.624	12.08
253.84	12.43
254.056	14.19
254.272	17.34
254.487	18.93
254.703	17.16
254.919	14.17
255.135	18.29
255.351	19.33
255.567	18.85
255.782	24.19
255.998	24.32
256.214	20.24
256.43	19.84
256.646	22.56
256.861	23.82
257.077	24.17
257.293	24.05
257.508	23.69
257.724	21.26
257.94	21.59
258.155	18.82
258.371	19.05
258.587	17.06
258.802	17.55
259.018	15.29
259.234	13.27
259.449	13.02
259.665	14.09
259.88	13.72
260.096	14.05
260.312	13.4
260.527	12.98
260.743	12.63
260.958	13.33
261.174	14.29
261.389	15.31
261.605	16.34
261.82	16.49
262.036	15.57
262.251	15.88
262.466	15.33
262.682	15.53
262.897	17.63
263.113	16.67
263.328	17.32
263.543	15.89
263.759	14.23
263.974	14.65
264.189	14.45
264.405	13.63
264.62	14.84
264.835	12.84
265.051	15.47
265.266	14.78
265.481	16.22
265.696	18.87
265.912	17.41
266.127	16.82
266.342	16.69
266.557	17.04
266.773	17.26
266.988	15.55
267.203	18.51
267.418	15.86
267.633	15.9
267.848	15.65
268.064	12.32
268.279	13.53
268.494	12.93
268.709	11.59
268.924	13.57
269.139	12.33
269.354	12.62
269.569	9.87
269.784	13.23
269.999	13.13
270.214	13.94
270.429	14.83
270.644	14.4
270.859	15.46
271.074	15.97
271.289	15.71
271.504	16.47
271.719	16.51
271.934	18.15
272.149	15.54
272.363	16.69
272.578	16.02
272.793	15.6
273.008	14.89
273.223	13.8
273.438	13.64
273.653	12.45
273.867	13.09
274.082	13.81
274.297	13.64
274.512	15.97
274.726	14.56
274.941	14.36
275.156	16.71
275.371	17
275.585	17.84
275.8	19.53
276.015	18.34
276.229	17.98
276.444	16.85
276.659	17.03
276.873	15.15
277.088	16.44
277.302	17.96
277.517	15.38
277.732	16.01
277.946	15.33
278.161	14.9
278.375	15.48
278.59	14.75
278.804	16.65
279.019	16.34
279.233	16.58
279.448	14.24
279.662	13.23
279.877	13.49
280.091	10.87
280.306	11.14
280.52	8.68
280.735	8.95
280.949	10.3
281.163	9.63
281.378	9.5
281.592	11.88
281.806	12.72
282.021	12.03
282.235	12.88
282.449	15.34
282.664	15.25
282.878	16.96
283.092	16.87
283.307	16.79
283.521	15.94
283.735	16.47
283.949	14.44
284.164	14.49
284.378	13.6
284.592	13.11
284.806	12.62
285.02	12.05
285.234	10.62
285.449	11.2
285.663	10.93
285.877	10.7
286.091	9.97
286.305	10.5
286.519	10.78
286.733	12.13
286.947	12.53
287.161	12.69
287.375	12.81
287.589	14.28
287.803	14.87
288.017	14.44
288.231	15.32
288.445	15.98
288.659	14.72
288.873	15.16
289.087	14.89
289.301	15.92
289.515	14.93
289.729	15.86
289.943	15.59
290.157	14.77
290.371	14.83
290.584	14.36
290.798	15.18
291.012	16.44
291.226	15.05
291.44	14.76
291.654	12.73
291.867	13.09
292.081	14.32
292.295	14.82
292.509	15.29
292.722	15.71
292.936	16.19
293.15	15.03
293.364	14.07
293.577	14.85
293.791	15.43
294.005	15.58
294.218	16.75
294.432	15.85
294.645	14.29
294.859	13.8
295.073	13.81
295.286	13.67
295.5	13.09
295.713	14.05
295.927	13.75
296.14	13.04
296.354	13.75
296.568	11.89
296.781	10.6
296.994	11.4
297.208	11.49
297.421	10.8
297.635	11.19
297.848	11.17
298.062	9.99
298.275	10.49
298.489	10.6
298.702	11.23
298.915	12.02
299.129	13.17
299.342	12.9
299.555	13.31
299.769	14.25
299.982	13.85
300.195	13.95
300.409	15.57
300.622	14.53
300.835	14.52
301.048	13.15
301.262	12.61
301.475	12.98
301.688	13.35
301.901	12.51
302.115	13.12
302.328	12.27
302.541	12.55
302.754	12.78
302.967	13.89
303.18	15.14
303.393	15.79
303.607	16.74
303.82	17.16
304.033	17.02
304.246	17.4
304.459	16.27
304.672	18.13
304.885	19.13
305.098	18.82
305.311	19.22
305.524	17.87
305.737	17.45
305.95	16.87
306.163	15.72
306.376	14.67
306.589	15.34
306.802	15.83
307.015	15.81
307.228	15.39
307.44	14.23
307.653	13.28
307.866	14.27
308.079	14.86
308.292	14.87
308.505	16.29
308.718	17.44
308.93	17.63
309.143	17.71
309.356	18.13
309.569	17.2
309.781	17.83
309.994	18.38
310.207	17.87
310.42	17.25
310.632	17.63
310.845	15.87
311.058	16
311.27	14.9
311.483	14.85
311.696	13.99
311.908	14.24
312.121	14.05
312.333	15.29
312.546	14.86
312.759	14.09
312.971	13.23
313.184	14.57
313.396	14.56
313.609	15.18
313.821	14.75
314.034	14.06
314.246	13.87
314.459	15.21
314.671	13.48
314.884	14.11
315.096	16.09
315.309	17.3
315.521	17.8
315.733	16.77
315.946	16.01
316.158	17.16
316.371	18.15
316.583	18.22
316.795	16.94
317.008	17.39
317.22	18.04
317.432	18.96
317.644	19.03
317.857	18.36
318.069	19.17
318.281	20.64
318.494	20.15
318.706	20.81
318.918	21.16
319.13	20.32
319.342	19.34
319.555	18.12
319.767	17.06
319.979	16.35
320.191	15.96
320.403	15.74
320.615	16.61
320.827	16.36
321.039	15.62
321.252	17.91
321.464	20.19
321.676	20.08
321.888	20.49
322.1	20.32
322.312	20.32
322.524	20.74
322.736	20.12
322.948	19.45
323.16	20.08
323.372	19.28
323.584	17.49
323.796	14.82
324.007	14.88
324.219	15.45
324.431	15.95
324.643	17.02
324.855	17.63
325.067	17.68
325.279	17.25
325.491	17.2
325.702	18.39
325.914	18.73
326.126	20.71
326.338	19.5
326.55	20.4
326.761	20.28
326.973	20.02
327.185	19.63
327.396	21.17
327.608	21.34
327.82	22.12
328.032	22.25
328.243	22.41
328.455	22.76
328.666	24.8
328.878	24.58
329.09	24.04
329.301	24.48
329.513	24.35
329.725	25.11
329.936	25.93
330.148	25.58
330.359	25.62
330.571	26.51
330.782	26.5
330.994	28.28
331.205	29.26
331.417	31.37
331.628	31.06
331.84	32.07
332.051	32.01
332.262	32.52
332.474	31.41
332.685	32.82
332.897	32.6
333.108	32.31
333.319	30.8
333.531	29.93
333.742	28.63
333.953	29.36
334.165	29.14
334.376	29.77
334.587	29.45
334.799	29.45
335.01	28.06
335.221	27.44
335.432	26.86
335.644	26.59
335.855	27
336.066	26.84
336.277	26.77
336.488	27.01
336.7	25.01
336.911	25.57
337.122	27
337.333	27.07
337.544	27.75
337.755	29.44
337.966	30.3
338.177	29.57
338.388	29.86
338.599	29.68
338.811	28.63
339.022	28.97
339.233	28.44
339.444	27.57
339.655	27.06
339.866	26.74
340.076	25.87
340.287	25.32
340.498	25.37
340.709	26.17
340.92	26.03
341.131	27.45
341.342	28.4
341.553	27.24
341.764	27.86
341.975	28.47
342.185	28.57
342.396	28.86
342.607	28.89
342.818	28.9
343.029	28.4
343.239	28.54
343.45	28.29
343.661	27.74
343.872	28.51
344.082	27.9
344.293	28.15
344.504	27.9
344.714	27.53
344.925	28.25
345.136	28.51
345.346	26.98
345.557	27.07
345.768	25.67
345.978	26.1
346.189	26.27
346.399	25.55
346.61	25.61
346.821	25.54
347.031	25.68
347.242	24.57
347.452	24.09
347.663	25.23
347.873	25.06
348.084	26.48
348.294	24.82
348.504	24.43
348.715	26.09
348.925	24.81
349.136	23.2
349.346	22.88
349.557	23.53
349.767	24.19
349.977	25
350.188	24.19
350.398	24.04
350.608	24.91
350.819	25.51
351.029	24.25
351.239	26.04
351.449	26.87
351.66	27.25
351.87	26.71
352.08	26.52
352.29	26.13
352.501	26.55
352.711	26.02
352.921	26.61
353.131	26.6
353.341	26.87
353.552	25.37
353.762	25.57
353.972	24.69
354.182	25.68
354.392	25.75
354.602	25.8
354.812	26.37
355.022	26.22
355.232	26.67
355.442	26.19
355.652	25.79
355.862	26.18
356.072	26.47
356.282	26.19
356.492	25.04
356.702	24.21
356.912	23.74
357.122	24.23
357.332	24.36
357.542	23.21
357.752	23.45
357.962	23.49
358.171	23.44
358.381	22.96
358.591	23.66
358.801	23.9
359.011	24.43
359.221	24.95
359.43	24.35
359.64	23.88
359.85	24.46
360.06	24.24
360.269	24.02
360.479	24.25
360.689	24.69
360.899	24.99
361.108	25.27
361.318	24.81
361.528	24.34
361.737	24.28
361.947	24.59
362.156	24.58
362.366	24.24
362.576	24.55
362.785	24.06
362.995	23.79
363.204	23.38
363.414	22.96
363.623	22.8
363.833	22.64
364.042	22.49
364.252	22.07
364.461	21.5
364.671	21.7
364.88	21.67
365.09	22.57
365.299	22.77
365.509	22.78
365.718	22.44
365.927	23.09
366.137	22.93
366.346	23.22
366.555	23.14
366.765	23.52
366.974	23.31
367.183	21.94
367.393	20.9
367.602	20.47
367.811	20.44
368.021	20.95
368.23	20.21
368.439	20.48
368.648	19.71
368.857	19.98
369.067	19.6
369.276	19.73
369.485	20.86
369.694	21.42
369.903	21.53
370.112	21.18
370.321	20.82
370.531	20.58
370.74	20.89
370.949	21.17
371.158	21.25
371.367	21.13
371.576	20.38
371.785	20.42
371.994	20.27
372.203	20.31
372.412	20.41
372.621	20.69
372.83	21.25
373.039	21.01
373.248	20.51
373.457	20.5
373.666	19.88
373.874	20.42
374.083	20.21
374.292	19.58
374.501	19.43
374.71	19.3
374.919	19.03
375.128	18.57
375.336	18.21
375.545	18.67
375.754	18.95
375.963	19.27
376.171	18.51
376.38	18.76
376.589	18.82
376.798	18.25
377.006	18.34
377.215	18.38
377.424	18.3
377.632	18.09
377.841	18.08
378.05	17.52
378.258	17.38
378.467	17.59
378.675	17.08
378.884	17.45
379.093	17.71
379.301	17.55
379.51	17.01
379.718	17.27
379.927	17.56
380.135	17.12
380.344	16.51
380.552	16.82
380.761	17.02
380.969	17.07
381.177	16.38
381.386	17.29
381.594	16.67
381.803	16.38
382.011	16.05
382.219	15.61
382.428	15.37
382.636	15.77
382.845	15.03
383.053	15.06
383.261	14.91
383.469	15.14
383.678	14.06
383.886	14.25
384.094	14.51
384.302	14.87
384.511	15.19
384.719	15.2
384.927	15.32
385.135	15.37
385.343	15.05
385.552	15.08
385.76	14.86
385.968	14.67
386.176	14.68
386.384	14.46
386.592	14
386.8	13.74
387.008	13.67
387.216	13.09
387.424	13.34
387.633	13.3
387.841	13.17
388.049	13.53
388.257	13.84
388.465	13.61
388.672	13.74
388.88	13.95
389.088	13.7
389.296	13.63
389.504	13.66
389.712	13.99
389.92	13.75
390.128	14.03
390.336	13.52
390.544	13.05
390.751	13.2
390.959	12.98
391.167	12.77
391.375	12.79
391.583	12.83
391.79	12.95
391.998	12.67
392.206	13.11
392.414	12.71
392.621	12.9
392.829	13.15
393.037	12.89
393.244	12.97
393.452	12.75
393.66	12.61
393.867	12.24
394.075	12.03
394.283	11.75
394.49	11.14
394.698	10.96
394.905	10.68
395.113	10.75
395.32	10.78
395.528	10.53
395.735	10.52
395.943	10.68
396.15	10.81
396.358	10.89
396.565	10.8
396.773	11.08
396.98	11.15
397.188	11.14
397.395	10.95
397.602	10.92
397.81	10.96
398.017	11.04
398.225	11.15
398.432	11.07
398.639	10.79
398.847	10.78
399.054	10.72
399.261	10.65
399.468	10.59
399.676	10.88
399.883	10.64
400.09	10.82
400.297	10.51
400.505	10.33
400.712	10.5
400.919	10.97
401.126	11.13
401.333	10.89
401.54	10.85
401.748	11.07
401.955	10.37
402.162	10.25
402.369	10.2
402.576	10.23
402.783	10.02
402.99	9.9
403.197	9.4
403.404	9.17
403.611	9.13
403.818	9.22
404.025	8.82
404.232	9.21
404.439	9.37
404.646	9.25
404.853	9.05
405.06	8.68
405.267	8.79
405.474	8.99
405.681	9.23
405.887	9.29
406.094	9.62
406.301	9.77
406.508	9.92
406.715	10.05
406.922	9.95
407.128	10.46
407.335	10.69
407.542	10.27
407.749	10.02
407.955	9.98
408.162	9.79
408.369	9.35
408.575	9.64
408.782	9.4
408.989	8.94
409.195	9.01
409.402	8.86
409.609	8.74
409.815	8.82
410.022	9.08
410.228	9
410.435	9.38
410.642	9.44
410.848	9.17
411.055	9.2
411.261	9.47
411.468	9.42
411.674	9.3
411.881	9.47
412.087	9.56
412.294	9.59
412.5	9.6
412.706	9.32
412.913	9.11
413.119	9.05
413.326	8.61
413.532	8.41
413.738	8.53
413.945	8.06
414.151	8.25
414.357	8.46
414.564	8.56
414.77	8.47
414.976	8.62
415.182	9.11
415.389	9.1
415.595	9.07
415.801	9.3
416.007	9.32
416.214	9.52
416.42	9.39
416.626	8.88
416.832	8.81
417.038	8.72
417.244	8.63
417.45	8.06
417.657	8.08
417.863	8.1
418.069	8.16
418.275	8.14
418.481	8.17
418.687	8.16
418.893	8.27
419.099	8.15
419.305	8.05
419.511	8
419.717	8.05
419.923	7.99
420.129	7.95
420.335	7.91
420.541	7.8
420.746	7.83
420.952	7.82
421.158	7.93
421.364	7.87
421.57	7.95
421.776	7.94
421.982	8.03
422.187	8.09
422.393	8.09
422.599	8.1
422.805	8.05
423.01	8.09
423.216	7.99
423.422	8.04
423.628	8.03
423.833	7.89
424.039	7.95
424.245	8.02
424.45	7.88
424.656	7.81
424.862	7.66
425.067	7.62
425.273	7.54
425.478	7.58
425.684	7.43
425.889	7.54
426.095	7.63
426.301	7.53
426.506	7.33
426.712	7.41
426.917	7.66
427.123	7.71
427.328	7.75
427.533	7.94
427.739	8.12
427.944	8.2
428.15	8.13
428.355	8.15
428.561	8.18
428.766	8.28
428.971	8.27
429.177	8.14
429.382	8.19
429.587	8.32
429.793	8.14
429.998	8.05
430.203	7.95
430.408	8.01
430.614	8.06
430.819	8.02
431.024	7.81
431.229	7.84
431.434	7.98
431.64	7.81
431.845	7.82
432.05	8.02
432.255	7.81
432.46	7.85
432.665	7.7
432.87	7.55
433.076	7.59
433.281	7.72
433.486	7.6
433.691	7.47
433.896	7.47
434.101	7.27
434.306	7.14
434.511	7.13
434.716	7.23
434.921	7.42
435.126	7.64
435.331	7.61
435.535	7.56
435.74	7.63
435.945	7.53
436.15	7.68
436.355	7.95
436.56	7.78
436.765	7.94
436.97	7.79
437.174	7.72
437.379	7.7
437.584	7.89
437.789	7.8
437.993	7.72
438.198	7.9
438.403	7.86
438.608	7.77
438.812	7.95
439.017	7.89
439.222	7.86
439.426	7.75
439.631	7.54
439.836	7.45
440.04	7.66
440.245	7.7
440.45	7.68
440.654	7.62
440.859	7.48
441.063	7.36
441.268	7.34
441.472	7.42
441.677	7.38
441.881	7.36
442.086	7.32
442.29	7.14
442.495	7.08
442.699	7.15
442.904	7.07
443.108	7.29
443.312	7.28
443.517	7.23
443.721	7.09
443.925	7.24
444.13	7.32
444.334	7.33
444.538	7.38
444.743	7.33
444.947	7.26
445.151	7.47
445.356	7.29
445.56	7.28
445.764	7.23
445.968	7.29
446.173	7.17
446.377	7.14
446.581	7.03
446.785	6.97
446.989	7.1
447.193	6.95
447.398	6.94
447.602	6.83
447.806	6.92
448.01	7.1
448.214	7.08
448.418	6.92
448.622	6.88
448.826	6.96
449.03	7.02
449.234	6.93
449.438	7.13
449.642	7.09
449.846	7.36
450.05	7.08
450.254	6.98
450.458	6.85
450.662	7.25
450.866	7.28
451.069	7.23
451.273	7.25
451.477	7.34
451.681	7.21
451.885	6.92
452.089	7
452.292	7.07
452.496	6.97
452.7	7.05
452.904	6.77
453.107	6.95
453.311	6.91
453.515	6.84
453.719	6.65
453.922	6.81
454.126	7.07
454.33	6.78
454.533	6.72
454.737	6.67
454.94	6.62
455.144	6.9
455.348	6.74
455.551	6.94
455.755	6.98
455.958	7.35
456.162	7.21
456.365	7.04
456.569	7.02
456.772	7.05
456.976	7.3
457.179	7.44
457.383	7.29
457.586	7.38
457.79	7.22
457.993	7.15
458.196	6.95
458.4	7.06
458.603	7.09
458.807	7.1
459.01	7.13
459.213	6.99
459.417	7.01
459.62	6.99
459.823	6.96
460.026	6.88
460.23	6.87
460.433	6.76
460.636	6.74
460.839	6.69
461.042	6.59
461.246	6.69
461.449	6.72
461.652	6.62
461.855	6.66
462.058	6.65
462.261	6.72
462.464	6.63
462.668	6.9
462.871	6.88
463.074	6.88
463.277	7.04
463.48	6.9
463.683	6.99
463.886	7.04
464.089	7.07
464.292	6.96
464.495	7.04
464.698	7.13
464.901	6.85
465.104	6.79
465.306	6.85
465.509	6.89
465.712	7.15
465.915	7.16
466.118	7.06
466.321	7.01
466.524	7.05
466.726	6.97
466.929	7.01
467.132	7.04
467.335	7.07
467.538	7
467.74	7.03
467.943	6.8
468.146	6.7
468.348	6.69
468.551	6.74
468.754	6.68
468.956	6.77
469.159	6.72
469.362	6.85
469.564	6.84
469.767	6.98
469.969	6.97
470.172	6.98
470.375	6.99
470.577	7.1
470.78	7.09
470.982	7.11
471.185	7.09
471.387	7.06
471.59	6.97
471.792	7.02
471.995	7.02
472.197	6.93
472.399	7.05
472.602	7
472.804	7.02
473.007	7
473.209	7.09
473.411	7.1
473.614	7.28
473.816	7.32
474.018	7.12
474.22	7.17
474.423	7.24
474.625	7.27
474.827	7.49
475.03	7.58
475.232	7.57
475.434	7.62
475.636	7.54
475.838	7.6
476.04	7.63
476.243	7.61
476.445	7.56
476.647	7.65
476.849	7.44
477.051	7.25
477.253	7.35
477.455	7.2
477.657	7.17
477.859	7.19
478.061	7.06
478.263	6.91
478.465	7
478.667	7.01
478.869	6.72
479.071	6.78
479.273	6.57
479.475	6.41
479.677	6.45
479.879	6.34
480.081	6.29
480.283	6.26
480.485	6.31
480.686	6.53
480.888	6.58
481.09	6.8
481.292	6.81
481.494	6.98
481.695	6.86
481.897	6.85
482.099	6.9
482.301	6.89
482.502	6.84
482.704	6.82
482.906	6.64
483.107	6.5
483.309	6.45
483.511	6.4
483.712	6.39
483.914	6.38
484.115	6.35
484.317	6.35
484.519	6.38
484.72	6.35
484.922	6.34
485.123	6.28
485.325	6.35
485.526	6.39
485.728	6.46
485.929	6.49
486.131	6.48
486.332	6.48
486.534	6.46
486.735	6.44
486.936	6.49
487.138	6.47
487.339	6.54
487.541	6.45
487.742	6.45
487.943	6.37
488.144	6.35
488.346	6.39
488.547	6.44
488.748	6.45
488.95	6.43
489.151	6.48
489.352	6.56
489.553	6.57
489.755	6.71
489.956	6.59
490.157	6.66
490.358	6.59
490.559	6.55
490.76	6.61
490.961	6.52
491.163	6.57
491.364	6.47
491.565	6.41
491.766	6.47
491.967	6.38
492.168	6.54
492.369	6.52
492.57	6.55
492.771	6.7
492.972	6.62
493.173	6.67
493.374	6.74
493.575	6.75
493.776	6.74
493.976	6.74
494.177	6.82
494.378	6.66
494.579	6.8
494.78	6.9
494.981	6.82
495.182	6.85
495.382	7.01
495.583	6.85
495.784	7.01
495.985	7.12
496.185	7.08
496.386	7.1
496.587	7.14
496.788	7.09
496.988	7
497.189	6.9
497.39	6.79
497.59	6.77
497.791	6.71
497.992	6.75
498.192	6.67
498.393	6.71
498.593	6.8
498.794	6.92
498.994	7.02
499.195	7.04
499.395	7.11
499.596	7.26
499.796	7.18
499.997	7.36
500.197	7.43
500.398	7.52
500.598	7.39
500.799	7.4
500.999	7.21
501.199	7.17
501.4	7.3
501.6	7.29
501.801	7.4
502.001	7.51
502.201	7.39
502.402	7.27
502.602	7.27
502.802	7.43
503.002	7.29
503.203	7.45
503.403	7.49
503.603	7.53
503.803	7.66
504.003	7.77
504.204	7.7
504.404	7.87
504.604	7.93
504.804	8.25
505.004	8.32
505.204	8.41
505.404	8.38
505.604	8.33
505.804	8.31
506.005	8.28
506.205	8.13
506.405	8.32
506.605	8.4
506.805	8.55
507.005	8.28
507.204	8.31
507.404	8.32
507.604	8.47
507.804	8.62
508.004	8.74
508.204	8.75
508.404	8.86
508.604	8.75
508.804	8.65
509.003	8.67
509.203	8.69
509.403	8.65
509.603	8.74
509.803	8.64
510.002	8.65
510.202	8.62
510.402	8.81
510.602	8.81
510.801	8.93
511.001	8.99
511.201	8.89
511.4	8.95
511.6	9.11
511.8	9.26
511.999	9.4
512.199	9.26
512.398	9.36
512.598	9.43
512.797	9.65
512.997	9.73
513.197	9.8
513.396	9.96
513.596	10.02
513.795	10.08
513.994	10.02
514.194	10.04
514.393	10.27
514.593	10.41
514.792	10.45
514.992	10.54
515.191	10.73
515.39	10.88
515.59	11.02
515.789	11.14
515.988	11.25
516.188	11.34
516.387	11.46
516.586	11.56
516.786	11.55
516.985	11.6
517.184	11.67
517.383	11.65
517.582	11.66
517.782	11.59
517.981	11.84
518.18	11.82
518.379	11.91
518.578	11.86
518.777	12
518.976	12.17
519.176	12.26
519.375	12.19
519.574	12.24
519.773	12.32
519.972	12.49
520.171	12.49
520.37	12.64
520.569	12.68
520.768	13.09
520.967	13.01
521.166	12.97
521.365	13.03
521.564	13.22
521.762	13.31
521.961	13.43
522.16	13.57
522.359	13.58
522.558	13.53
522.757	13.79
522.956	13.54
523.154	13.72
523.353	13.9
523.552	13.92
523.751	13.93
523.949	14.12
524.148	14.12
524.347	14.16
524.546	14.26
524.744	14.6
524.943	14.66
525.142	14.78
525.34	14.78
525.539	14.81
525.737	15.08
525.936	15.14
526.135	15.17
526.333	15.24
526.532	15.27
526.73	15.26
526.929	15.23
527.127	15.33
527.326	15.41
527.524	15.6
527.723	15.66
527.921	15.64
528.12	15.72
528.318	15.73
528.516	15.88
528.715	15.91
528.913	16.02
529.112	16.12
529.31	16.14
529.508	16.19
529.707	16.19
529.905	16.3
530.103	16.36
530.301	16.45
530.5	16.6
530.698	16.61
530.896	16.75
531.094	16.87
531.293	17.01
531.491	17.12
531.689	17.3
531.887	17.38
532.085	17.44
532.283	17.47
532.481	17.56
532.68	17.61
532.878	17.75
533.076	17.84
533.274	17.82
533.472	17.8
533.67	17.83
533.868	17.86
534.066	17.98
534.264	17.96
534.462	18
534.66	18.08
534.858	18.1
535.056	18.25
535.253	18.39
535.451	18.58
535.649	18.72
535.847	18.86
536.045	18.99
536.243	19.15
536.441	19.31
536.638	19.43
536.836	19.51
537.034	19.78
537.232	19.62
537.43	19.55
537.627	19.6
537.825	19.75
538.023	19.88
538.22	20.03
538.418	20.1
538.616	20.19
538.813	20.36
539.011	20.48
539.209	20.35
539.406	20.55
539.604	20.87
539.801	20.92
539.999	20.81
540.196	20.87
540.394	20.87
540.591	20.87
540.789	20.98
540.986	20.97
541.184	21.03
541.381	21.2
541.579	21.28
541.776	21.21
541.974	21.31
542.171	21.39
542.368	21.42
542.566	21.43
542.763	21.5
542.96	21.54
543.158	21.71
543.355	21.73
543.552	21.74
543.75	21.82
543.947	22.03
544.144	22.14
544.341	22.14
544.539	22.23
544.736	22.35
544.933	22.45
545.13	22.5
545.327	22.46
545.524	22.63
545.722	22.71
545.919	22.7
546.116	22.67
546.313	22.67
546.51	22.93
546.707	22.92
546.904	23.02
547.101	22.99
547.298	23.07
547.495	23.25
547.692	23.32
547.889	23.27
548.086	23.48
548.283	23.69
548.48	23.78
548.677	23.73
548.874	23.84
549.07	24.14
549.267	24.39
549.464	24.45
549.661	24.55
549.858	24.53
550.055	24.78
550.251	24.79
550.448	24.73
550.645	24.68
550.842	24.93
551.038	25.18
551.235	24.95
551.432	25.17
551.628	25.31
551.825	25.31
552.022	25.34
552.218	25.45
552.415	25.7
552.612	25.82
552.808	25.99
553.005	25.93
553.201	25.97
553.398	26.16
553.594	26.14
553.791	26.32
553.987	26.5
554.184	26.72
554.38	26.75
554.577	26.7
554.773	26.7
554.97	26.77
555.166	27.05
555.362	27.1
555.559	27.26
555.755	27.46
555.952	27.54
556.148	27.81
556.344	27.92
556.541	27.98
556.737	27.98
556.933	28.22
557.129	28.15
557.326	27.89
557.522	27.91
557.718	27.97
557.914	27.96
558.11	27.89
558.307	27.56
558.503	27.59
558.699	27.73
558.895	27.99
559.091	28.08
559.287	28.57
559.483	28.97
559.679	29.07
559.876	28.86
560.072	28.79
560.268	28.77
560.464	28.94
560.66	29.07
560.856	29.12
561.052	29
561.247	28.87
561.443	28.68
561.639	28.54
561.835	28.75
562.031	29
562.227	29.28
562.423	29.5
562.619	29.65
562.815	29.87
563.01	30.16
563.206	30.24
563.402	30.27
563.598	30.5
563.793	30.78
563.989	30.84
564.185	30.87
564.381	30.7
564.576	30.76
564.772	30.7
564.968	30.67
565.163	30.57
565.359	30.67
565.555	30.96
565.75	31.02
565.946	30.91
566.141	30.85
566.337	30.9
566.532	31.1
566.728	31.19
566.923	31.43
567.119	31.42
567.314	31.48
567.51	31.55
567.705	31.45
567.901	31.69
568.096	31.63
568.292	31.79
568.487	31.85
568.682	31.74
568.878	31.74
569.073	31.57
569.268	31.47
569.464	31.74
569.659	31.86
569.854	31.96
570.05	31.56
570.245	32.04
570.44	32.16
570.635	32.24
570.831	32.47
571.026	32.53
571.221	32.94
571.416	33.08
571.611	32.92
571.806	32.79
572.002	32.78
572.197	33.08
572.392	33.01
572.587	33.09
572.782	33.14
572.977	33.12
573.172	33.31
573.367	32.99
573.562	33.02
573.757	33.11
573.952	33.16
574.147	33.24
574.342	33.29
574.537	33.24
574.732	33.17
574.927	33.38
575.121	33.32
575.316	33.28
575.511	33.63
575.706	33.71
575.901	33.68
576.096	33.93
576.29	33.97
576.485	34.03
576.68	34.1
576.875	34.06
577.069	34.03
577.264	34.2
577.459	34.21
577.654	34.17
577.848	34.24
578.043	34.42
578.238	34.43
578.432	34.58
578.627	34.43
578.821	34.5
579.016	34.42
579.21	34.6
579.405	34.66
579.6	34.67
579.794	34.64
579.989	34.7
580.183	35.01
580.378	34.99
580.572	35.22
580.766	35.35
580.961	35.23
581.155	35.39
581.35	35.08
581.544	35
581.738	35.53
581.933	35.5
582.127	35.75
582.321	35.45
582.516	35.42
582.71	35.26
582.904	35.43
583.099	35.69
583.293	36.04
583.487	36.39
583.681	36.85
583.875	36.39
584.07	36.76
584.264	36.79
584.458	36.68
584.652	36.78
584.846	36.79
585.04	36.66
585.234	36.88
585.428	36.71
585.623	36.6
585.817	36.36
586.011	36.47
586.205	36.42
586.399	36.56
586.593	36.84
586.787	36.86
586.981	36.69
587.174	36.84
587.368	36.56
587.562	36.61
587.756	36.63
587.95	36.82
588.144	36.73
588.338	36.57
588.532	36.32
588.725	36.32
588.919	36.5
589.113	36.7
589.307	36.73
589.501	36.73
589.694	36.9
589.888	36.99
590.082	36.84
590.275	36.93
590.469	37.03
590.663	37.14
590.856	36.85
591.05	36.91
591.244	36.92
591.437	37.19
591.631	37.24
591.824	37.11
592.018	37.03
592.212	37.07
592.405	37.26
592.599	37.3
592.792	37.4
592.986	37.56
593.179	37.3
593.372	37.55
593.566	37.09
593.759	37.39
593.953	37.47
594.146	37.58
594.339	37.55
594.533	37.4
594.726	37.28
594.92	37.17
595.113	37.29
595.306	37.45
595.499	37.48
595.693	37.85
595.886	37.79
596.079	38.07
596.272	38.17
596.466	38.13
596.659	38.3
596.852	38.38
597.045	38.28
597.238	38.27
597.431	38.24
597.624	38.27
597.818	38.08
598.011	37.95
598.204	37.7
598.397	37.45
598.59	37.67
598.783	37.62
598.976	37.85
599.169	37.93
599.362	37.97
599.555	38
599.748	37.96
599.941	38.17
600.134	38.4
600.326	38.41
600.519	38.79
600.712	38.82
600.905	39.07
601.098	38.96
601.291	38.97
601.483	39.04
601.676	39.14
601.869	39.19
602.062	39.14
602.255	39.2
602.447	39.12
602.64	39
602.833	38.85
603.025	38.62
603.218	38.57
603.411	38.62
603.603	38.74
603.796	38.95
603.989	38.75
604.181	38.79
604.374	38.66
604.566	38.73
604.759	38.73
604.951	38.78
605.144	38.85
605.336	38.93
605.529	38.89
605.721	38.68
605.914	38.48
606.106	38.69
606.299	38.77
606.491	38.95
606.683	39.02
606.876	38.98
607.068	39.02
607.26	38.87
607.453	38.62
607.645	38.68
607.837	38.99
608.03	39.02
608.222	38.97
608.414	38.89
608.606	38.75
608.799	39.2
608.991	39.43
609.183	39.66
609.375	40.06
609.567	40.3
609.759	40.48
609.952	40.28
610.144	40.27
610.336	40.26
610.528	40.31
610.72	40.6
610.912	40.44
611.104	40.66
611.296	40.49
611.488	40.47
611.68	40.58
611.872	40.74
612.064	41.24
612.256	41.55
612.448	41.88
612.64	41.86
612.832	41.92
613.023	41.87
613.215	41.87
613.407	41.75
613.599	41.6
613.791	41.39
613.983	41.28
614.174	41.07
614.366	41.12
614.558	41.05
614.75	41.2
614.941	41.08
615.133	40.82
615.325	40.41
615.516	40.83
615.708	40.85
615.9	40.81
616.091	40.48
616.283	40.49
616.475	40.16
616.666	39.92
616.858	40.06
617.049	39.9
617.241	40.25
617.432	40.28
617.624	39.89
617.815	40.04
618.007	40.26
618.198	40.6
618.39	40.58
618.581	40.5
618.773	40.49
618.964	40.47
619.155	40.37
619.347	40.12
619.538	40.33
619.729	40.6
619.921	40.67
620.112	40.92
620.303	40.64
620.494	40.45
620.686	40.79
620.877	40.76
621.068	40.56
621.259	40.62
621.451	40.96
621.642	40.72
621.833	40.64
622.024	40.42
622.215	39.92
622.406	40.15
622.597	40.11
622.788	40.15
622.98	40.07
623.171	39.99
623.362	40.07
623.553	40.11
623.744	40.25
623.935	40.33
624.126	40.36
624.317	40.45
624.508	40.42
624.698	40.42
624.889	40.65
625.08	41.1
625.271	41.33
625.462	41.6
625.653	41.34
625.844	41.11
626.034	41.1
626.225	41.08
626.416	40.85
626.607	40.87
626.798	41
626.988	40.8
627.179	40.78
627.37	40.61
627.56	40.5
627.751	40.66
627.942	41.02
628.132	40.88
628.323	40.63
628.514	41.01
628.704	40.82
628.895	40.62
629.085	40.26
629.276	40.02
629.466	40.22
629.657	40.07
629.847	39.93
630.038	40.05
630.228	40.59
630.419	41.12
630.609	41.25
630.8	41.35
630.99	41.7
631.181	42.12
631.371	42.52
631.561	42.36
631.752	42.45
631.942	42.61
632.132	42.09
632.323	41.43
632.513	41.09
632.703	40.74
632.893	40.9
633.084	40.75
633.274	40.64
633.464	40.27
633.654	40.44
633.844	40.38
634.034	40.16
634.225	40.26
634.415	40.45
634.605	40.43
634.795	40.62
634.985	40.98
635.175	41.16
635.365	41.25
635.555	41.28
635.745	41.09
635.935	41.26
636.125	41.29
636.315	41.51
636.505	41.38
636.695	41.6
636.885	41.24
637.075	41.21
637.265	41.05
637.455	41.43
637.644	41.6
637.834	42.05
638.024	41.9
638.214	41.86
638.404	42
638.593	42.14
638.783	42.15
638.973	42.58
639.163	42.68
639.352	42.81
639.542	42.49
639.732	42.27
639.921	42.06
640.111	42.37
640.301	42.42
640.49	42.28
640.68	42.52
640.87	42.8
641.059	42.84
641.249	42.62
641.438	42.71
641.628	42.67
641.817	42.87
642.007	42.84
642.196	42.81
642.386	43.11
642.575	43.29
642.764	43.12
642.954	42.91
643.143	42.53
643.333	42.3
643.522	42.17
643.711	41.66
643.901	41.58
644.09	41.48
644.279	41.43
644.469	41.2
644.658	40.76
644.847	40.82
645.036	40.96
645.226	41.32
645.415	41.43
645.604	41.38
645.793	42.04
645.982	41.99
646.171	41.96
646.361	41.64
646.55	42.1
646.739	42.42
646.928	42.23
647.117	41.99
647.306	41.96
647.495	41.78
647.684	41.85
647.873	41.87
648.062	42.21
648.251	42.18
648.44	42.24
648.629	41.61
648.818	41.38
649.007	41.41
649.196	41.65
649.384	41.59
649.573	41.67
649.762	41.78
649.951	41.29
650.14	41.18
650.328	40.93
650.517	40.97
650.706	41.58
650.895	41.72
651.083	42.23
651.272	41.98
651.461	41.98
651.65	42
651.838	41.62
652.027	41.71
652.216	41.4
652.404	41.82
652.593	42.06
652.781	41.59
652.97	41.65
653.158	40.82
653.347	41.19
653.535	41.29
653.724	41.19
653.912	41.65
654.101	41.93
654.289	42.61
654.478	42.67
654.666	42.55
654.855	42.89
655.043	42.58
655.231	43.16
655.42	43.22
655.608	43.34
655.796	43.71
655.985	43.43
656.173	43.15
656.361	42.62
656.55	42.31
656.738	42.34
656.926	42.75
657.114	43.38
657.302	43.34
657.491	42.97
657.679	42.83
657.867	42.84
658.055	42.92
658.243	43.36
658.431	43.61
658.619	43.84
658.807	43.78
658.996	43.28
659.184	43.02
659.372	43.03
659.56	42.87
659.748	42.63
659.936	42.78
660.124	42.71
660.311	42.54
660.499	42.61
660.687	42.47
660.875	42.5
661.063	42.57
661.251	42.37
661.439	42.47
661.627	42.65
661.814	43.06
662.002	42.6
662.19	42.91
662.378	42.73
662.565	42.54
662.753	42.67
662.941	42.79
663.129	42.59
663.316	43.21
663.504	43.02
663.692	42.51
663.879	42.12
664.067	42.1
664.254	41.87
664.442	41.95
664.63	41.9
664.817	41.89
665.005	41.44
665.192	42.07
665.38	41.79
665.567	41.82
665.755	42.79
665.942	42.94
666.13	43.34
666.317	43.38
666.504	43.47
666.692	43.59
666.879	43.61
667.067	44.15
667.254	43.77
667.441	43.62
667.629	43.88
667.816	43.28
668.003	43.75
668.19	43.69
668.378	43.88
668.565	43.86
668.752	43.56
668.939	43.76
669.127	43.83
669.314	43.53
669.501	43.91
669.688	43.83
669.875	44.87
670.062	44.51
670.249	44.52
670.436	44.47
670.623	44.72
670.81	44.81
670.997	44.38
671.184	43.99
671.371	44.79
671.558	44.5
671.745	44.21
671.932	43.22
672.119	42.81
672.306	43.22
672.493	43.04
672.68	42.85
672.867	43.29
673.054	43.4
673.24	43.94
673.427	42.91
673.614	43.3
673.801	43.74
673.988	43.88
674.174	44.43
674.361	44.1
674.548	43.8
674.734	43.73
674.921	43.24
675.108	43.92
675.294	43.77
675.481	44.26
675.668	44.01
675.854	43.99
676.041	44.37
676.227	44.47
676.414	44.34
676.601	44.93
676.787	44.74
676.974	45.01
677.16	44.31
677.347	44.22
677.533	44.42
677.719	44.78
677.906	44.7
678.092	44.13
678.279	44.39
678.465	44.51
678.651	44.44
678.838	44.59
679.024	44.64
679.21	44.49
679.397	44.67
679.583	44.47
679.769	43.88
679.955	43.8
680.142	44.13
680.328	43.92
680.514	43.66
680.7	43.53
680.886	43.76
681.073	43.56
681.259	43.95
681.445	43.69
681.631	44.02
681.817	43.97
682.003	43.65
682.189	43.66
682.375	43.52
682.561	43.89
682.747	43.75
682.933	43.81
683.119	43.92
683.305	43.49
683.491	43.83
683.677	43.71
683.863	43.92
684.049	44.55
684.235	44.73
684.42	45.03
684.606	44.42
684.792	44.97
684.978	44.78
685.164	44.99
685.349	45.52
685.535	45.67
685.721	45.64
685.907	45.48
686.092	44.85
686.278	44.6
686.464	44.28
686.649	44.81
686.835	44.45
687.021	45.07
687.206	45.05
687.392	45.13
687.577	44.87
687.763	45.04
687.948	45.29
688.134	45.52
688.319	45.68
688.505	46.05
688.69	45.92
688.876	46.05
689.061	45.02
689.247	45.09
689.432	44.67
689.618	44.48
689.803	43.99
689.988	44.09
690.174	43.9
690.359	43.58
690.544	43.37
690.73	43.34
690.915	43.32
691.1	42.93
691.285	43.38
691.471	44.06
691.656	43.98
691.841	43.67
692.026	43.7
692.211	43.97
692.396	43.89
692.582	44.52
692.767	44.2
692.952	44.34
693.137	45.13
693.322	44.64
693.507	43.94
693.692	44.02
693.877	44.59
694.062	44.51
694.247	45.38
694.432	45.49
694.617	44.82
694.802	45.37
694.987	44.8
695.172	44.96
695.357	44.93
695.541	45.23
695.726	45.01
695.911	45.62
696.096	45.57
696.281	45.06
696.466	45.64
696.65	45.98
696.835	45.73
697.02	45.62
697.204	45.79
697.389	45.4
697.574	45.32
697.759	45.22
697.943	44.85
698.128	45.32
698.312	45.36
698.497	44.93
698.682	44.65
698.866	44.79
699.051	45.13
699.235	44.79
699.42	44.92
699.604	44.93
699.789	45.02
699.973	44.81
700.158	44.3
700.342	43.98
700.527	44.03
700.711	44.07
700.895	44.1
701.08	44.11
701.264	44.54
701.448	44.27
701.633	43.94
701.817	44.25
702.001	44.65
702.186	44.38
702.37	44.14
702.554	44.43
702.738	44.31
702.923	44.01
703.107	43.77
703.291	43.79
703.475	44.5
703.659	45.02
703.843	44.63
704.027	44.5
704.212	44.43
704.396	45.38
704.58	45.03
704.764	44.97
704.948	44.89
705.132	45.41
705.316	44.71
705.5	45.04
705.684	45.01
705.868	45.67
706.052	45.13
706.235	46.17
706.419	45.63
706.603	45.75
706.787	45.95
706.971	45.79
707.155	45.29
707.339	45.5
707.522	45.18
707.706	45.16
707.89	44.63
708.074	44.85
708.257	44.06
708.441	43.82
708.625	43.97
708.808	43.94
708.992	44.39
709.176	44.8
709.359	44.68
709.543	44.23
709.727	44.3
709.91	44.67
710.094	45.16
710.277	46.34
710.461	47.06
710.644	47.02
710.828	47.73
711.011	47.07
711.195	47.13
711.378	47.63
711.562	48.25
711.745	47.88
711.928	47.42
712.112	46.45
712.295	45.3
712.478	44.97
712.662	45.01
712.845	44.46
713.028	44.41
713.212	44.21
713.395	43.93
713.578	43.25
713.761	43.97
713.945	44.53
714.128	45.37
714.311	45.87
714.494	45.55
714.677	45.48
714.86	45.48
715.043	46.41
715.227	45.91
715.41	46.54
715.593	46.85
715.776	46.6
715.959	46.04
716.142	46.35
716.325	46.38
716.508	46.83
716.691	46.34
716.874	46.07
717.057	45.78
717.239	46.4
717.422	45.62
717.605	45.41
717.788	45.13
717.971	46.61
718.154	45.41
718.337	45.47
718.519	45.42
718.702	46.46
718.885	46.49
719.068	46.71
719.25	47.16
719.433	47.51
719.616	48.38
719.798	48.57
719.981	47.94
720.164	48.62
720.346	48.61
720.529	48.59
720.712	48.26
720.894	49.22
721.077	48.7
721.259	48.84
721.442	49.45
721.624	49.46
721.807	49.77
721.989	48.85
722.172	48.32
722.354	47.71
722.537	47.7
722.719	47.26
722.901	46.33
723.084	46.35
723.266	45.87
723.448	45.54
723.631	44.93
723.813	44.97
723.995	45.26
724.178	46.38
724.36	46.46
724.542	46.45
724.724	46.92
724.907	47.71
725.089	48.87
725.271	48.6
725.453	48.75
725.635	49.41
725.817	49.14
725.999	49.67
726.181	49.59
726.364	49.79
726.546	49.78
726.728	49.75
726.91	49.02
727.092	48.04
727.274	48.76
727.456	48.46
727.638	47.16
727.819	47.64
728.001	47.13
728.183	47.11
728.365	47.62
728.547	47.87
728.729	47.73
728.911	49.23
729.093	49.46
729.274	48.08
729.456	48.05
729.638	48.39
729.82	48.05
730.001	47.6
730.183	46.88
730.365	45.87
730.546	46.12
730.728	46.15
730.91	44.2
731.091	44.02
731.273	44.35
731.455	44.73
731.636	45.28
731.818	46.02
731.999	46.21
732.181	46.59
732.362	46.74
732.544	46.59
732.725	45.57
732.907	45.88
733.088	45.78
733.27	46.46
733.451	45.94
733.633	45.54
733.814	45.05
733.995	45.05
734.177	45.39
734.358	46.07
734.539	45.58
734.721	46.76
734.902	47.9
735.083	48.43
735.264	47.73
735.446	48.17
735.627	47.7
735.808	47.19
735.989	47.95
736.17	48.13
736.351	48.13
736.533	48.05
736.714	47.86
736.895	46.79
737.076	46.31
737.257	47.64
737.438	46.54
737.619	48.03
737.8	47.04
737.981	47.57
738.162	47.21
738.343	46.44
738.524	46.87
738.705	46.11
738.886	45.95
739.067	46.55
739.247	45.72
739.428	45.7
739.609	44.61
739.79	46.49
739.971	45.78
740.151	46.07
740.332	46.01
740.513	45.91
740.694	46.44
740.874	46.34
741.055	46.15
741.236	46.33
741.417	46.73
741.597	47.36
741.778	47.5
741.958	46.8
742.139	46.56
742.32	46.79
742.5	47.56
742.681	49.03
742.861	49
743.042	48.08
743.222	47.57
743.403	47.98
743.583	47.25
743.764	45.98
743.944	45.65
744.124	45.89
744.305	46.85
744.485	46.04
744.666	44.89
744.846	45.51
745.026	46.32
745.207	47.02
745.387	46.49
745.567	46.23
745.747	47.29
745.928	47.28
746.108	46.07
746.288	45.34
746.468	45.51
746.648	45.61
746.829	46.3
747.009	47.15
747.189	47.37
747.369	46.75
747.549	47.86
747.729	46.66
747.909	47.62
748.089	48.64
748.269	48.95
748.449	49.29
748.629	50.05
748.809	48.65
748.989	48.69
749.169	48.14
749.349	49.41
749.529	48.42
749.709	48.18
749.889	47.77
750.068	47.21
750.248	46.12
750.428	46.71
750.608	45.83
750.788	46.82
750.967	45.2
751.147	44.79
751.327	45.81
751.507	46.08
751.686	47.62
751.866	48.04
752.046	48.43
752.225	48.82
752.405	48.29
752.585	47.77
752.764	47.15
752.944	46.73
753.123	48.42
753.303	47.47
753.482	47.06
753.662	45.87
753.841	45.36
754.021	44.87
754.2	46.06
754.38	44.9
754.559	45.75
754.739	46.46
754.918	48.1
755.097	46.56
755.277	46.06
755.456	46.2
755.635	46.72
755.815	46.88
755.994	47.15
756.173	44.73
756.352	45.28
756.532	44.86
756.711	44.49
756.89	44.07
757.069	44.38
757.248	44.41
757.427	44.42
757.607	44.3
757.786	44.01
757.965	43.26
758.144	44.34
758.323	44.67
758.502	45.43
758.681	44.88
758.86	45.09
759.039	44.1
759.218	44.91
759.397	45.64
759.576	45.55
759.755	45.54
759.934	46.21
760.113	46.64
760.291	47.01
760.47	47.49
760.649	48.39
760.828	48.16
761.007	47.73
761.186	47.36
761.364	46.67
761.543	46.67
761.722	48.27
761.901	47.44
762.079	48.15
762.258	48.43
762.437	47.19
762.615	46.36
762.794	46.25
762.972	47.8
763.151	47.02
763.33	46.79
763.508	46.75
763.687	46.3
763.865	46.97
764.044	46.3
764.222	45.98
764.401	46.05
764.579	46.29
764.758	45.61
764.936	45.97
765.114	46.22
765.293	46.37
765.471	46.23
765.65	46.12
765.828	46.38
766.006	46.67
766.184	46.11
766.363	46.61
766.541	46.25
766.719	46.6
766.898	45.4
767.076	46.45
767.254	47.49
767.432	48.35
767.61	47.93
767.788	48.44
767.967	47.79
768.145	47.78
768.323	48.39
768.501	48.12
768.679	47.96
768.857	47.96
769.035	47.34
769.213	47.85
769.391	47.55
769.569	47.33
769.747	46.36
769.925	46.52
770.103	47.51
770.281	46.49
770.459	48.49
770.636	48.53
770.814	48.81
770.992	49.18
771.17	48.35
771.348	48.08
771.525	48.92
771.703	49.53
771.881	49.79
772.059	50.2
772.236	48.3
772.414	47.97
772.592	48.34
772.769	47.92
772.947	45.43
773.125	45.21
773.302	45.63
773.48	46.02
773.657	45.63
773.835	45.77
774.013	46.96
774.19	49.26
774.368	47.78
774.545	48.55
774.723	51.19
774.9	55.57
775.077	55.38
775.255	54.07
775.432	53.43
775.61	53.33
775.787	53.34
775.964	51.5
776.142	51.51
776.319	52.33
776.496	52.08
776.674	49.93
776.851	48.77
777.028	49.38
777.205	49.56
777.382	50.31
777.56	50.81
777.737	55.18
777.914	55.68
778.091	53.5
778.268	53.32
778.445	53.92
778.622	53.28
778.8	51.29
778.977	51.64
779.154	55.07
779.331	54.77
779.508	55.12
779.685	51.83
779.862	51.4
780.038	52.98
780.215	54.88
780.392	55.05
780.569	55.7
780.746	56.33
780.923	55.39
781.1	51.98
781.277	51.29
781.453	49.54
781.63	48.45
781.807	49.84
781.984	48.9
782.16	48.46
782.337	46.74
782.514	46.51
782.691	47.16
782.867	46.02
783.044	48.84
783.221	49.63
783.397	50.78
783.574	51.44
783.75	48.86
783.927	50.04
784.103	48.25
784.28	48.78
784.456	48.61
784.633	48.32
784.809	50.94
784.986	46.95
785.162	46.38
785.339	47.47
785.515	46.84
785.692	46.4
785.868	47.28
786.044	48.18
786.221	48.51
786.397	50.46
786.573	49.13
786.749	47.95
786.926	50.5
787.102	49.95
787.278	49.68
787.454	50.52
787.631	52.09
787.807	50.49
787.983	50.07
788.159	51.58
788.335	50.47
788.511	50.98
788.687	49.61
788.863	49.55
789.039	51.16
789.216	51.63
789.392	51.21
789.568	49.88
789.744	50.99
789.919	51.69
790.095	50.51
790.271	49.52
790.447	49.56
790.623	51.78
790.799	51.15
790.975	50.17
791.151	48.78
791.327	49.75
791.502	48.69
791.678	47.99
791.854	48.36
792.03	47.02
792.205	49.01
792.381	51.25
792.557	46.56
792.733	45.84
792.908	45.84
793.084	48.49
793.259	47.86
793.435	48.78
793.611	51.34
793.786	49.41
793.962	48.9
794.137	47.48
794.313	44.34
794.488	48.53
794.664	49.45
794.839	49.34
795.015	47.74
795.19	46.88
795.366	47.87
795.541	44.24
795.716	44.17
795.892	45.78
796.067	46.84
796.242	49.95
796.418	48.87
796.593	47.34
796.768	45.15
796.944	44.78
797.119	46.09
797.294	47.4
797.469	50.48
797.644	51.85
797.82	53.17
797.995	52.9
798.17	51.7
798.345	53.52
798.52	54.36
798.695	56.68
798.87	55.41
799.045	54.83
799.22	56.26
799.395	54.61
799.57	54.82
799.745	53.83
799.92	52.93
800.095	50.92
800.27	49.5
800.445	48.83
800.62	46.9
800.795	46.57
800.97	48.85
801.145	45.85
801.319	45.34
801.494	44.88
801.669	48.63
801.844	48.34
802.018	50.53
802.193	51.11
802.368	51.76
802.543	51.35
802.717	56.68
802.892	54.13
803.067	56.41
803.241	58.74
803.416	55.49
803.59	55
803.765	54.24
803.94	55.83
804.114	55.46
804.289	56.54
804.463	57
804.638	51.23
804.812	50.46
804.986	46.36
805.161	45.89
805.335	49.66
805.51	45.36
805.684	45.44
805.858	44.08
806.033	43.71
806.207	41.06
806.381	46.67
806.556	48.6
806.73	50.86
806.904	54.3
807.078	54.39
807.253	50.48
807.427	52.47
807.601	55.31
807.775	55.36
807.949	57.35
808.123	59.77
808.298	58.31
808.472	57.74
808.646	57.03
808.82	57.64
808.994	57.57
809.168	59.84
809.342	59.73
809.516	58.54
809.69	58.28
809.864	57.33
810.038	57.23
810.212	53.11
810.385	53.24
810.559	53.1
810.733	54.01
810.907	54.59
811.081	54.11
811.255	54.94
811.428	53.93
811.602	53.11
811.776	51.36
811.95	52.88
812.123	54.44
812.297	55.97
812.471	56.62
812.644	53.09
812.818	51.28
812.992	54.09
813.165	50.57
813.339	54.4
813.512	57.1
813.686	57.07
813.86	56.28
814.033	54.94
814.207	54.73
814.38	52.95
814.554	53.3
814.727	54.09
814.9	54.7
815.074	55.42
815.247	51.2
815.421	49.74
815.594	51.62
815.767	51.13
815.941	51.74
816.114	52.58
816.287	55.47
816.46	55.04
816.634	51.92
816.807	51.49
816.98	54.54
817.153	55.52
817.327	56.46
817.5	56.88
817.673	58.05
817.846	58.13
818.019	56.78
818.192	56.57
818.365	56.43
818.538	59.73
818.711	57.6
818.884	54.49
819.057	52.29
819.23	49.94
819.403	48.74
819.576	49.37
819.749	51.38
819.922	50.53
820.095	49.01
820.268	49.93
820.441	51.15
820.614	51.84
820.786	51.59
820.959	53.03
821.132	52.5
821.305	51.25
821.477	48.44
821.65	47.08
821.823	47.65
821.996	47.73
822.168	48.29
822.341	46.8
822.514	46.88
822.686	46.41
822.859	46.26
823.031	45.8
823.204	45.85
823.376	46.25
823.549	46.44
823.722	46.25
823.894	46.48
824.067	45.88
824.239	45.51
824.411	44.71
824.584	45.67
824.756	45.61
824.929	45.83
825.101	45.76
825.273	45.94
825.446	46.32
825.618	46.56
825.79	46.21
825.963	45.36
826.135	45.96
826.307	46.58
826.479	46.59
826.652	46.73
826.824	47.33
826.996	47.31
827.168	47.57
827.34	47.66
827.512	47.49
827.684	48.06
827.856	48.97
828.029	49.85
828.201	49.39
828.373	48.6
828.545	48.23
828.717	49.13
828.889	48.44
829.061	49.12
829.232	48.05
829.404	48.85
829.576	48.47
829.748	48.81
829.92	50.02
830.092	50.82
830.264	50.79
830.436	50.43
830.607	50.21
830.779	52.28
830.951	50.46
831.123	52.15
831.294	51.18
831.466	52.02
831.638	51.51
831.809	47.86
831.981	48.5
832.153	49.32
832.324	51.41
832.496	50.74
832.667	52.88
832.839	53.28
833.011	50.75
833.182	52.43
833.354	49.92
833.525	49.69
833.697	49.69
833.868	48.11
834.039	49.64
834.211	47.66
834.382	47.41
834.554	45.95
834.725	45.74
834.896	44.85
835.068	45.16
835.239	46.37
835.41	47.8
835.581	47.55
835.753	48.05
835.924	47.07
836.095	47.28
836.266	48.33
836.438	46.43
836.609	46.07
836.78	46.99
836.951	47.16
837.122	45.24
837.293	44.81
837.464	45
837.635	44.87
837.806	43.42
837.977	43.8
838.148	44.31
838.319	44.97
838.49	47.92
838.661	48.84
838.832	49.73
839.003	51.36
839.174	48.27
839.345	54.93
839.516	57.46
839.687	64.57
839.857	66.58
840.028	65.69
840.199	67.19
840.37	67.77
840.54	71.02
840.711	69.16
840.882	67.77
841.053	70.42
841.223	69.41
841.394	73.1
841.564	72.85
841.735	74.18
841.906	73.13
842.076	71.02
842.247	69.76
842.417	67.13
842.588	65.91
842.758	72.67
842.929	70.93
843.099	68.79
843.27	63.95
843.44	61.18
843.611	65.87
843.781	65.47
843.951	69.4
844.122	66.49
844.292	61.6
844.462	63.22
844.633	59.78
844.803	57.25
844.973	53.65
845.144	50.96
845.314	50.38
845.484	43.5
845.654	46.9
845.824	51.41
845.995	51.28
846.165	58.29
846.335	58.68
846.505	64.03
846.675	72.16
846.845	75.94
847.015	97.74
847.185	101.35
847.355	102.74
847.525	102.99
847.695	94.59
847.865	94.2
848.035	93.87
848.205	90.59
848.375	80.02
848.545	82.46
848.715	77.8
848.884	66.07
849.054	65.11
849.224	64.36
849.394	62.25
849.564	59.17
849.733	71.01
849.903	64.62
850.073	62.83
850.243	66.35
850.412	68.19
850.582	66.69
850.752	57.29
850.921	52.55
851.091	57.65
851.26	71.78
851.43	74.76
851.599	68.14
851.769	71.06
851.939	67.44
852.108	64.47
852.278	57.63
852.447	66.2
852.616	85.62
852.786	79.5
852.955	85.27
853.125	76.36
853.294	77.54
853.463	81.96
853.633	82.62
853.802	97.92
853.971	111.33
854.141	110.43
854.31	106.1
854.479	100.42
854.648	128.1
854.818	109.68
854.987	96.25
855.156	98.15
855.325	86.65
855.494	93.52
855.663	68.23
855.832	66.24
856.001	75.05
856.171	71.85
856.34	75.21
856.509	73.75
856.678	80.73
856.847	95.7
857.016	97.91
857.185	101.11
857.353	103.56
857.522	119.39
857.691	110.12
857.86	108.38
858.029	105.83
858.198	98.76
858.367	95.99
858.535	78.95
858.704	78
858.873	84.05
859.042	78.55
859.21	77.53
859.379	70.37
859.548	69.25
859.717	63.49
859.885	73.73
860.054	69.84
860.222	61.03
860.391	72.55
860.56	79.12
860.728	72.67
860.897	71.81
861.065	68.16
861.234	73.37
861.402	71.2
861.571	66.23
861.739	62.69
861.908	66.22
862.076	77.76
862.244	75.64
862.413	69.17
862.581	67.72
862.749	66.78
862.918	64.22
863.086	57.77
863.254	59.47
863.423	71.73
863.591	59.62
863.759	66.64
863.927	61.34
864.096	59.53
864.264	57.46
864.432	57.04
864.6	66.39
864.768	71.64
864.936	78.95
865.104	80.03
865.272	76.76
865.44	88.82
865.608	85.94
865.776	91.38
865.944	95.81
866.112	92.61
866.28	95.29
866.448	97.54
866.616	111.55
866.784	101.77
866.952	98.6
867.12	112.34
867.288	113.09
867.455	117.73
867.623	103.68
867.791	95.35
867.959	110.5
868.127	112.91
868.294	97.39
868.462	73
868.63	73.83
868.797	72.14
868.965	44.57
869.133	34.67
869.3	31.69
869.468	53.74
869.636	52.99
869.803	52.01
869.971	50.39
870.138	49.72
870.306	53.08
870.473	58.71
870.641	50.24
870.808	56.39
870.975	57.15
871.143	58.73
871.31	48.94
871.478	41.28
871.645	46.78
871.812	59.72
871.98	52.44
872.147	38.5
872.314	30.22
872.482	40.9
872.649	45.95
872.816	47.47
872.983	60
873.15	63.6
873.318	77.63
873.485	81.18
873.652	76.59
873.819	90.39
873.986	110.26
874.153	123.59
874.32	134.41
874.487	153.2
874.654	160.85
874.821	155.11
874.988	149.28
875.155	155.42
875.322	111.27
875.489	100.62
875.656	84.7
875.823	77.13
875.99	57.64
876.157	45.12
876.324	29.2
876.49	41.12
876.657	41.19
876.824	39.83
876.991	34.85
877.157	46.49
877.324	51.53
877.491	51.26
877.658	49.32
877.824	52.76
877.991	61.04
878.157	65.63
878.324	69.22
878.491	66.92
878.657	66.08
878.824	70.9
878.99	65.8
879.157	71.81
879.323	66.16
879.49	66.69
879.656	61.42
879.823	59.81
879.989	66.63
880.156	65.93
880.322	58.88
880.488	56.92
880.655	53.57
880.821	58.55
880.987	54.64
881.154	59.93
881.32	64.78
881.486	71.19
881.652	69.57
881.819	63.67
881.985	65.27
882.151	66.49
882.317	64.45
882.483	66.92
882.649	64.39
882.816	61.46
882.982	60.93
883.148	56.39
883.314	53.68
883.48	52.91
883.646	52.95
883.812	51.8
883.978	52.65
884.144	54.36
884.31	54
884.476	52.29
884.642	50.77
884.807	49.88
884.973	50.85
885.139	51.71
885.305	53.1
885.471	51.92
885.637	51.86
885.802	50.63
885.968	49.16
886.134	49.85
886.3	52.93
886.465	56.52
886.631	57.14
886.797	59.84
886.962	64.42
887.128	66.06
887.293	76.26
887.459	77.33
887.625	81.39
887.79	81.61
887.956	78.76
888.121	77.76
888.287	79.18
888.452	86.65
888.618	87.42
888.783	80.11
