Data from CB_013_Reflection_3.txt Node
Date: Wed Nov 11 18:56:11 EST 2015
User: robert
Spectrometer: USB4E03001
Autoset integration time: false
Trigger mode: 4
Integration Time (sec): 1.000000E-1
Scans to average: 15
Electric dark correction enabled: true
Nonlinearity correction enabled: false
Boxcar width: 5
Stray light correction enabled: false
XAxis mode: Wavelengths
Stop averaging: false
Number of Pixels in Spectrum: 3648
>>>>>Begin Spectral Data<<<<<
177.566	229.03
177.785	503.71
178.005	183.71
178.225	1820.53
178.445	-159.08
178.665	-570.93
178.885	42.91
179.105	-70.92
179.324	59.54
179.544	24.21
179.764	52.53
179.984	8.31
180.204	207.27
180.423	-85.12
180.643	-221.58
180.863	867.38
181.083	1710.74
181.302	542.23
181.522	-1911.98
181.742	-440.62
181.961	403.95
182.181	153.69
182.401	165.15
182.621	642.55
182.84	160.21
183.06	179.3
183.279	241.07
183.499	677.28
183.719	522.28
183.938	292.44
184.158	596.33
184.377	-948.15
184.597	-207.46
184.816	-182.61
185.036	-566.98
185.256	-152.92
185.475	552.58
185.695	-5636.78
185.914	244.78
186.134	219.68
186.353	285.27
186.572	399.52
186.792	243.44
187.011	264.93
187.231	239.97
187.45	271.19
187.67	300.57
187.889	2983.54
188.108	811.62
188.328	1426.32
188.547	-794.31
188.766	-1053.2
188.986	435.09
189.205	-26427.27
189.424	547.92
189.644	990.91
189.863	184.14
190.082	174.01
190.302	104.02
190.521	66.93
190.74	60.73
190.959	84.36
191.178	83.26
191.398	82.44
191.617	71.39
191.836	65.66
192.055	86.88
192.274	75.36
192.494	76.48
192.713	67.73
192.932	71.86
193.151	48.67
193.37	44.93
193.589	52.12
193.808	62.39
194.027	68.53
194.246	79.21
194.465	70.51
194.685	69.89
194.904	79.47
195.123	184.86
195.342	703.14
195.561	206.24
195.78	186.59
195.999	180.58
196.218	948.44
196.436	-168.03
196.655	-813.83
196.874	502.28
197.093	348.38
197.312	204.07
197.531	21.11
197.75	58.66
197.969	94.18
198.188	81.1
198.407	97.54
198.625	233.22
198.844	269.38
199.063	150.12
199.282	99.52
199.501	125.75
199.719	7
199.938	-671.48
200.157	158.16
200.376	164.34
200.594	94.32
200.813	-4614.29
201.032	262.91
201.251	192.21
201.469	154.77
201.688	163.81
201.907	245.34
202.125	122.46
202.344	115.42
202.563	153.66
202.781	193.56
203	170.54
203.218	150.62
203.437	158.49
203.656	131.64
203.874	119.34
204.093	66.36
204.311	46.1
204.53	40.06
204.748	17.29
204.967	-13.72
205.185	11.38
205.404	61.09
205.622	62.75
205.841	103.67
206.059	168.13
206.278	195.17
206.496	227.57
206.715	408.25
206.933	545.1
207.151	319.59
207.37	389.28
207.588	351.95
207.806	460.1
208.025	701.5
208.243	479.63
208.461	202.51
208.68	167.68
208.898	207.97
209.116	206.29
209.335	183.66
209.553	-616.62
209.771	231.26
209.989	-1425.65
210.208	-596.89
210.426	-122.28
210.644	-71.56
210.862	-47.32
211.081	-75.37
211.299	-87.09
211.517	-264.39
211.735	-199.92
211.953	-173.81
212.171	-8.56
212.39	-550.91
212.608	-2240.62
212.826	398.16
213.044	231.76
213.262	145.66
213.48	109.06
213.698	243.41
213.916	-828.77
214.134	-265.05
214.352	-916.77
214.57	779.78
214.788	223.13
215.006	186.98
215.224	124.59
215.442	96.51
215.66	121.33
215.878	141.21
216.096	93.71
216.314	56.24
216.532	73.13
216.75	66.27
216.968	63.35
217.185	65.14
217.403	112.33
217.621	134.85
217.839	199.25
218.057	2875.88
218.275	-874.78
218.492	-72.46
218.71	-74.26
218.928	-89.69
219.146	-80.76
219.363	-36.97
219.581	-101.41
219.799	-117.24
220.017	-61.89
220.234	-48.86
220.452	-54
220.67	-71.16
220.887	-141.29
221.105	-91.37
221.323	-74.74
221.54	31.83
221.758	29.35
221.976	35.57
222.193	44.34
222.411	-6.37
222.629	-3.26
222.846	-27.41
223.064	-31.48
223.281	-78.84
223.499	-111.41
223.716	-117.42
223.934	-753.19
224.151	-1305
224.369	-682.38
224.586	304600
224.804	-789.43
225.021	-326.38
225.239	-210.91
225.456	-172.04
225.674	-108.72
225.891	-25.83
226.108	-30.77
226.326	-0.03
226.543	19.34
226.76	13.27
226.978	4.6
227.195	-10.42
227.413	-8.21
227.63	-8.74
227.847	-3.75
228.064	-0.07
228.282	-0.08
228.499	6.05
228.716	4.32
228.934	2.98
229.151	3.23
229.368	5.37
229.585	2.9
229.802	4.46
230.02	4.42
230.237	2.84
230.454	6.49
230.671	5.95
230.888	-0.14
231.105	2.12
231.323	1.79
231.54	1.27
231.757	-11.22
231.974	-6.02
232.191	-10.47
232.408	-9.23
232.625	-12.36
232.842	-16.68
233.059	-15.37
233.276	-8.83
233.493	-8.82
233.71	-7.98
233.927	-5.6
234.144	6.79
234.361	6.34
234.578	5.8
234.795	3.86
235.012	-0.17
235.229	0.22
235.446	-3.4
235.663	-11.38
235.879	-5.28
236.096	-8.58
236.313	-17.78
236.53	-20.18
236.747	-13.5
236.964	-12.52
237.181	-17.74
237.397	-3.44
237.614	-2.75
237.831	1.61
238.048	1.43
238.264	-14.65
238.481	-21.8
238.698	-21.02
238.915	-24.44
239.131	-31.7
239.348	-33.1
239.565	-29.57
239.781	-32.3
239.998	-27.55
240.215	-23.17
240.431	-18.84
240.648	-15.22
240.865	-6.58
241.081	-2.59
241.298	-0.3
241.514	-0.84
241.731	0.63
241.947	2.74
242.164	3.49
242.38	2.55
242.597	2.9
242.814	3.64
243.03	4.48
243.246	4.61
243.463	6.28
243.679	5.79
243.896	7.29
244.112	7.44
244.329	5.15
244.545	4.83
244.762	4.63
244.978	6.92
245.194	3.91
245.411	2.73
245.627	-0.11
245.843	-1.39
246.06	2.72
246.276	4.41
246.492	4.98
246.709	6.93
246.925	6.27
247.141	6.66
247.357	5.14
247.574	6.41
247.79	7.24
248.006	7.41
248.222	7.98
248.439	7.31
248.655	7.55
248.871	7.71
249.087	7.81
249.303	8.06
249.519	6.85
249.736	5.09
249.952	4.63
250.168	2.76
250.384	3.89
250.6	3.51
250.816	1.11
251.032	-0.14
251.248	-0.57
251.464	-0.86
251.68	1.13
251.896	3.6
252.112	4.74
252.328	5.42
252.544	6.8
252.76	6.4
252.976	6.57
253.192	6.05
253.408	4.74
253.624	3.72
253.84	1.15
254.056	0.55
254.272	-1.72
254.487	-0.53
254.703	-0.69
254.919	0.49
255.135	-1.88
255.351	-3.21
255.567	-1.52
255.782	-2.42
255.998	-0.96
256.214	0.62
256.43	0.01
256.646	0.25
256.861	0.35
257.077	-2.19
257.293	-5.71
257.508	-3.74
257.724	-3.94
257.94	-3.01
258.155	-2.86
258.371	-0.48
258.587	-0.72
258.802	-0.03
259.018	0.81
259.234	0.99
259.449	2.72
259.665	3
259.88	3.54
260.096	3.08
260.312	3.97
260.527	5.53
260.743	4.03
260.958	3.72
261.174	3.06
261.389	2.73
261.605	2.46
261.82	1.79
262.036	1.66
262.251	0.92
262.466	1.29
262.682	-1.6
262.897	-4.38
263.113	-5.4
263.328	-3.75
263.543	-2.71
263.759	-2.67
263.974	-2.14
264.189	-4.69
264.405	-5.64
264.62	-6.82
264.835	-5.65
265.051	-3.96
265.266	-6.17
265.481	-3.89
265.696	-4.61
265.912	-3.3
266.127	-3.27
266.342	-1.59
266.557	-2.48
266.773	-1.51
266.988	-1.75
267.203	-2.76
267.418	-1.98
267.633	0.35
267.848	1.02
268.064	1.46
268.279	1.16
268.494	-0.19
268.709	-0.81
268.924	1.91
269.139	3.09
269.354	4.28
269.569	5.23
269.784	4.69
269.999	4.23
270.214	4.25
270.429	2.58
270.644	2.55
270.859	4.06
271.074	3.86
271.289	3.33
271.504	2.66
271.719	1.81
271.934	1.81
272.149	2.5
272.363	3.81
272.578	3.44
272.793	7.01
273.008	5.88
273.223	6.09
273.438	7
273.653	6.86
273.867	6.9
274.082	7.21
274.297	6.67
274.512	5.57
274.726	4.87
274.941	5.5
275.156	2.4
275.371	2.98
275.585	2.76
275.8	0.6
276.015	-0.44
276.229	-2.25
276.444	-1.3
276.659	-1.91
276.873	-2.86
277.088	-3.6
277.302	-4.15
277.517	-4.32
277.732	-4.85
277.946	-4.87
278.161	-5.15
278.375	-4.36
278.59	-1.54
278.804	-0.98
279.019	0.69
279.233	2.47
279.448	2.63
279.662	2.21
279.877	2.35
280.091	4.18
280.306	5.59
280.52	7.36
280.735	6.71
280.949	7.07
281.163	6.52
281.378	5.23
281.592	5.44
281.806	5.8
282.021	5.53
282.235	4.81
282.449	3.26
282.664	1.83
282.878	0.63
283.092	2.8
283.307	1.95
283.521	3.51
283.735	5.14
283.949	4.65
284.164	3.75
284.378	5.14
284.592	6.32
284.806	6.77
285.02	7.3
285.234	7.79
285.449	6.81
285.663	6.82
285.877	6.01
286.091	5.93
286.305	5.92
286.519	6.42
286.733	6.05
286.947	5.21
287.161	5.1
287.375	4.3
287.589	4.11
287.803	4.95
288.017	5.23
288.231	4.21
288.445	4.43
288.659	4.51
288.873	4.66
289.087	3.98
289.301	5.73
289.515	6.23
289.729	6.17
289.943	6.94
290.157	5.5
290.371	5.39
290.584	5.73
290.798	5.05
291.012	5.16
291.226	5.25
291.44	5.12
291.654	3.6
291.867	3.3
292.081	4.09
292.295	2.6
292.509	2.11
292.722	2.36
292.936	1.88
293.15	1.66
293.364	2.63
293.577	3.08
293.791	4.32
294.005	4.88
294.218	6.38
294.432	5.02
294.645	6.6
294.859	6.62
295.073	6.39
295.286	6.82
295.5	6.86
295.713	6.08
295.927	6.38
296.14	5.71
296.354	5.05
296.568	3.36
296.781	4.02
296.994	3.19
297.208	3.35
297.421	4.03
297.635	4.06
297.848	4.73
298.062	5.76
298.275	4.74
298.489	3.7
298.702	4.42
298.915	5.71
299.129	5.37
299.342	6.03
299.555	6.86
299.769	6.52
299.982	6.1
300.195	6.59
300.409	5.52
300.622	6.78
300.835	8.27
301.048	8.39
301.262	6.58
301.475	6.96
301.688	7.11
301.901	6.72
302.115	6.96
302.328	7.49
302.541	6.65
302.754	5.93
302.967	4.29
303.18	4.8
303.393	4.74
303.607	6.76
303.82	7.11
304.033	6.56
304.246	5.27
304.459	2.78
304.672	3.99
304.885	3.79
305.098	4.56
305.311	5.72
305.524	4.53
305.737	4.69
305.95	4.09
306.163	4.04
306.376	3.97
306.589	5.37
306.802	7.5
307.015	5.41
307.228	5.27
307.44	5.59
307.653	5.55
307.866	6.11
308.079	5.32
308.292	6
308.505	6.37
308.718	6.68
308.93	6.56
309.143	6.48
309.356	7.21
309.569	7.44
309.781	7.56
309.994	6.85
310.207	6.82
310.42	7.22
310.632	7.04
310.845	6.96
311.058	7.42
311.27	7.69
311.483	8.34
311.696	7.76
311.908	7.2
312.121	6.89
312.333	7.28
312.546	8.73
312.759	8.92
312.971	8.6
313.184	8.31
313.396	8.81
313.609	9.42
313.821	9.5
314.034	12.07
314.246	13.52
314.459	13.78
314.671	14.82
314.884	13.32
315.096	14.15
315.309	12.89
315.521	13.13
315.733	11.66
315.946	11.46
316.158	10.75
316.371	8.39
316.583	6.86
316.795	6.65
317.008	6.47
317.22	7.99
317.432	6.42
317.644	5.39
317.857	5.23
318.069	6.2
318.281	5.29
318.494	4.12
318.706	4.25
318.918	4.96
319.13	4.23
319.342	3.98
319.555	2.07
319.767	1.86
319.979	4.88
320.191	5.23
320.403	4.3
320.615	5.11
320.827	5.87
321.039	6.9
321.252	6.86
321.464	6.44
321.676	5.59
321.888	6.58
322.1	7.1
322.312	7.1
322.524	8.14
322.736	9.87
322.948	9.75
323.16	11.24
323.372	11.19
323.584	11.44
323.796	11.76
324.007	11.25
324.219	11.22
324.431	11.45
324.643	10.43
324.855	10.88
325.067	10.81
325.279	10.9
325.491	10.25
325.702	10.66
325.914	10.7
326.126	11.28
326.338	11.87
326.55	12.5
326.761	13.49
326.973	14.8
327.185	14.08
327.396	13.25
327.608	14.01
327.82	15.54
328.032	15.45
328.243	17.01
328.455	17.73
328.666	19.52
328.878	20.07
329.09	19.64
329.301	19.22
329.513	19.81
329.725	21.06
329.936	20.6
330.148	19.03
330.359	19.12
330.571	18.39
330.782	18.88
330.994	18.11
331.205	17.73
331.417	18.86
331.628	18.38
331.84	18.51
332.051	18.44
332.262	19.11
332.474	20.68
332.685	20.93
332.897	21.35
333.108	21.65
333.319	22.94
333.531	22.73
333.742	21.81
333.953	23.02
334.165	22.72
334.376	21.98
334.587	22.07
334.799	21.68
335.01	22.03
335.221	22.52
335.432	22.62
335.644	22.15
335.855	22.53
336.066	23.17
336.277	23.62
336.488	24.31
336.7	25.63
336.911	26.2
337.122	26.77
337.333	26.89
337.544	26.7
337.755	26.43
337.966	25.25
338.177	24.85
338.388	24.22
338.599	23.13
338.811	22.89
339.022	22.99
339.233	23.32
339.444	23.36
339.655	24.12
339.866	24.35
340.076	24.56
340.287	25.69
340.498	26.92
340.709	27.69
340.92	28.86
341.131	28.98
341.342	28.45
341.553	27.46
341.764	26.68
341.975	25.36
342.185	25.14
342.396	25.3
342.607	25.34
342.818	23.45
343.029	23.07
343.239	22.75
343.45	22.96
343.661	23.21
343.872	23.85
344.082	24.02
344.293	24.01
344.504	24.22
344.714	24.36
344.925	24.43
345.136	25.83
345.346	26.85
345.557	27.1
345.768	26.54
345.978	26.3
346.189	25.43
346.399	25.69
346.61	26.74
346.821	26.06
347.031	25.55
347.242	25.5
347.452	26.23
347.663	26.23
347.873	26.28
348.084	26.76
348.294	26.36
348.504	26.68
348.715	26.38
348.925	25.67
349.136	25.81
349.346	26.19
349.557	26.45
349.767	25.49
349.977	24.33
350.188	24.44
350.398	24.84
350.608	25.62
350.819	26.7
351.029	26.75
351.239	28.07
351.449	27.67
351.66	28.3
351.87	28.37
352.08	29.04
352.29	29.77
352.501	29.68
352.711	29.91
352.921	29.73
353.131	29.35
353.341	29.59
353.552	28.94
353.762	29.66
353.972	29.06
354.182	28.34
354.392	27.19
354.602	26.42
354.812	25.61
355.022	25.15
355.232	25
355.442	23.8
355.652	23.72
355.862	24.36
356.072	23.74
356.282	23.94
356.492	24.93
356.702	26.18
356.912	26.69
357.122	26.68
357.332	26.98
357.542	26.56
357.752	27.41
357.962	27.56
358.171	26.99
358.381	26.96
358.591	26.79
358.801	26.33
359.011	25.85
359.221	25.99
359.43	26.2
359.64	26.36
359.85	27.53
360.06	27.67
360.269	27.65
360.479	27.46
360.689	27.39
360.899	28.16
361.108	28.33
361.318	27.84
361.528	27.35
361.737	27.52
361.947	27.08
362.156	26.59
362.366	26.58
362.576	26.56
362.785	26.24
362.995	26.56
363.204	25.87
363.414	24.93
363.623	25.41
363.833	25.86
364.042	25.41
364.252	25.4
364.461	25.59
364.671	25
364.88	24.92
365.09	24.61
365.299	25.03
365.509	24.44
365.718	25.32
365.927	24.27
366.137	23.88
366.346	23.83
366.555	23.16
366.765	22.4
366.974	22.65
367.183	21.97
367.393	22.54
367.602	21.77
367.811	22.26
368.021	22.06
368.23	22.86
368.439	22.94
368.648	23.4
368.857	23.5
369.067	23.48
369.276	23.47
369.485	23.43
369.694	23.38
369.903	23.47
370.112	23.14
370.321	22.95
370.531	22.4
370.74	22.18
370.949	21.42
371.158	21.18
371.367	21.02
371.576	20.84
371.785	21.37
371.994	20.85
372.203	20.47
372.412	20.49
372.621	21.07
372.83	21.43
373.039	21.46
373.248	22.06
373.457	22.32
373.666	22.45
373.874	22.32
374.083	22.65
374.292	23.12
374.501	23.22
374.71	23.1
374.919	22.5
375.128	22.32
375.336	21.99
375.545	21.46
375.754	20.99
375.963	20.77
376.171	20.99
376.38	20.02
376.589	19.44
376.798	19.35
377.006	18.96
377.215	18.63
377.424	18.6
377.632	18.68
377.841	18.85
378.05	18.59
378.258	18.42
378.467	18.34
378.675	18.38
378.884	18.33
379.093	18.43
379.301	18.82
379.51	18.82
379.718	18.81
379.927	18.97
380.135	18.68
380.344	19.39
380.552	19.58
380.761	19.27
380.969	19.19
381.177	19.25
381.386	18.85
381.594	18.67
381.803	18.68
382.011	18.78
382.219	18.31
382.428	17.95
382.636	17.77
382.845	17.39
383.053	17.27
383.261	16.89
383.469	17.22
383.678	17.3
383.886	17.34
384.094	17.23
384.302	16.92
384.511	17.01
384.719	17.23
384.927	17.34
385.135	17.63
385.343	17.45
385.552	17.79
385.76	17.5
385.968	17.61
386.176	17.48
386.384	17.39
386.592	16.93
386.8	16.69
387.008	16.34
387.216	16
387.424	15.79
387.633	15.9
387.841	15.8
388.049	15.29
388.257	15.02
388.465	14.8
388.672	14.57
388.88	14.49
389.088	14.39
389.296	14.64
389.504	14.77
389.712	14.68
389.92	14.61
390.128	14.24
390.336	14.2
390.544	13.96
390.751	13.92
390.959	13.81
391.167	14.06
391.375	14.02
391.583	14.02
391.79	13.81
391.998	13.8
392.206	13.78
392.414	13.81
392.621	14.07
392.829	14.4
393.037	13.98
393.244	13.84
393.452	13.61
393.66	13.55
393.867	13.48
394.075	13.59
394.283	13.37
394.49	13.23
394.698	13.65
394.905	13.55
395.113	13.09
395.32	13.43
395.528	13.46
395.735	13.56
395.943	13.22
396.15	13.15
396.358	12.91
396.565	13.02
396.773	12.91
396.98	12.52
397.188	12.48
397.395	12.99
397.602	12.83
397.81	13.01
398.017	12.86
398.225	13.22
398.432	13.12
398.639	13.27
398.847	13.42
399.054	13.32
399.261	13.2
399.468	13.2
399.676	12.9
399.883	12.82
400.09	12.96
400.297	12.77
400.505	12.48
400.712	12.63
400.919	12.66
401.126	12.3
401.333	12.09
401.54	12.24
401.748	11.92
401.955	11.95
402.162	11.88
402.369	11.43
402.576	11.52
402.783	11.94
402.99	11.84
403.197	11.66
403.404	11.32
403.611	11.42
403.818	11.12
404.025	11.48
404.232	11.49
404.439	11.51
404.646	11.65
404.853	11.63
405.06	11.33
405.267	11.43
405.474	11.42
405.681	11.88
405.887	11.97
406.094	12.03
406.301	12.1
406.508	12.19
406.715	12.1
406.922	12.11
407.128	12.24
407.335	12.33
407.542	12.17
407.749	11.96
407.955	11.78
408.162	12.13
408.369	12.39
408.575	12.04
408.782	11.85
408.989	11.92
409.195	12.01
409.402	12.29
409.609	12.23
409.815	12.26
410.022	12.26
410.228	12.28
410.435	12.07
410.642	11.94
410.848	12.24
411.055	12.15
411.261	12.09
411.468	12.04
411.674	11.58
411.881	11.67
412.087	11.66
412.294	11.91
412.5	11.83
412.706	11.71
412.913	11.55
413.119	11.47
413.326	11.42
413.532	11.39
413.738	11.52
413.945	11.71
414.151	11.6
414.357	11.45
414.564	11.39
414.77	11.56
414.976	11.48
415.182	11.78
415.389	11.68
415.595	12
415.801	12.06
416.007	11.97
416.214	11.93
416.42	11.82
416.626	11.87
416.832	11.86
417.038	11.68
417.244	11.63
417.45	11.6
417.657	11.31
417.863	11.09
418.069	11.22
418.275	11.21
418.481	11.29
418.687	11.33
418.893	11.29
419.099	11.2
419.305	11.54
419.511	11.51
419.717	11.4
419.923	11.44
420.129	11.43
420.335	11.31
420.541	11.16
420.746	11.38
420.952	11.49
421.158	11.5
421.364	11.43
421.57	11.23
421.776	11.15
421.982	11.01
422.187	11.01
422.393	11.02
422.599	11.18
422.805	11.1
423.01	10.84
423.216	10.66
423.422	10.54
423.628	10.73
423.833	10.7
424.039	10.9
424.245	10.92
424.45	11.04
424.656	10.88
424.862	10.8
425.067	10.95
425.273	11.09
425.478	11.09
425.684	11.25
425.889	11.11
426.095	11.05
426.301	11.02
426.506	11.25
426.712	11.38
426.917	11.58
427.123	11.5
427.328	11.51
427.533	11.29
427.739	11.44
427.944	11.29
428.15	11.37
428.355	11.57
428.561	11.32
428.766	11.05
428.971	10.7
429.177	10.68
429.382	10.68
429.587	10.67
429.793	10.56
429.998	10.57
430.203	10.67
430.408	10.44
430.614	10.18
430.819	10.47
431.024	10.32
431.229	10.74
431.434	10.75
431.64	10.69
431.845	10.55
432.05	10.76
432.255	10.75
432.46	10.75
432.665	10.82
432.87	10.92
433.076	10.93
433.281	11.11
433.486	10.73
433.691	10.6
433.896	10.61
434.101	10.8
434.306	10.84
434.511	10.8
434.716	10.77
434.921	10.79
435.126	10.82
435.331	10.63
435.535	10.74
435.74	10.97
435.945	11
436.15	11.03
436.355	11.07
436.56	10.91
436.765	10.8
436.97	10.77
437.174	10.96
437.379	10.94
437.584	10.97
437.789	10.84
437.993	10.78
438.198	10.97
438.403	11.11
438.608	11.17
438.812	11.09
439.017	11.23
439.222	11.32
439.426	11.23
439.631	11.23
439.836	11.28
440.04	11.36
440.245	11.42
440.45	11.32
440.654	11.34
440.859	11.24
441.063	11.22
441.268	11.22
441.472	11.17
441.677	11.05
441.881	10.98
442.086	10.92
442.29	10.83
442.495	10.67
442.699	10.51
442.904	10.43
443.108	10.33
443.312	10.5
443.517	10.53
443.721	10.5
443.925	10.68
444.13	10.75
444.334	10.78
444.538	10.86
444.743	11.01
444.947	11.19
445.151	11.15
445.356	11.33
445.56	11.19
445.764	11.03
445.968	11.05
446.173	10.97
446.377	10.87
446.581	10.84
446.785	10.88
446.989	10.85
447.193	10.82
447.398	10.77
447.602	10.64
447.806	10.72
448.01	10.73
448.214	10.76
448.418	10.76
448.622	10.99
448.826	10.99
449.03	10.86
449.234	10.82
449.438	10.83
449.642	10.88
449.846	10.76
450.05	10.65
450.254	10.71
450.458	10.62
450.662	10.48
450.866	10.23
451.069	10.21
451.273	10.3
451.477	10.31
451.681	10.22
451.885	10.18
452.089	10.17
452.292	10.31
452.496	10.39
452.7	10.33
452.904	10.5
453.107	10.45
453.311	10.44
453.515	10.42
453.719	10.36
453.922	10.37
454.126	10.4
454.33	10.52
454.533	10.31
454.737	10.16
454.94	10.13
455.144	9.97
455.348	10.03
455.551	10.01
455.755	10.01
455.958	9.98
456.162	9.85
456.365	9.69
456.569	9.54
456.772	9.74
456.976	9.64
457.179	9.7
457.383	9.86
457.586	9.86
457.79	9.88
457.993	9.74
458.196	9.61
458.4	9.83
458.603	9.97
458.807	10.25
459.01	10.27
459.213	10.48
459.417	10.38
459.62	10.36
459.823	10.27
460.026	10.23
460.23	10.36
460.433	10.35
460.636	10.2
460.839	10.13
461.042	10.05
461.246	9.94
461.449	9.79
461.652	9.82
461.855	9.81
462.058	9.91
462.261	9.89
462.464	9.92
462.668	10.16
462.871	10.4
463.074	10.42
463.277	10.37
463.48	10.48
463.683	10.54
463.886	10.62
464.089	10.54
464.292	10.49
464.495	10.57
464.698	10.56
464.901	10.68
465.104	10.54
465.306	10.7
465.509	10.64
465.712	10.5
465.915	10.54
466.118	10.72
466.321	10.75
466.524	10.87
466.726	10.95
466.929	10.75
467.132	10.37
467.335	10.46
467.538	10.44
467.74	10.49
467.943	10.59
468.146	10.51
468.348	10.39
468.551	10.46
468.754	10.41
468.956	10.35
469.159	10.42
469.362	10.58
469.564	10.51
469.767	10.57
469.969	10.58
470.172	10.54
470.375	10.63
470.577	10.46
470.78	10.39
470.982	10.33
471.185	10.4
471.387	10.34
471.59	10.51
471.792	10.61
471.995	10.55
472.197	10.63
472.399	10.76
472.602	10.77
472.804	11
473.007	11.04
473.209	11.07
473.411	10.91
473.614	10.98
473.816	10.95
474.018	10.89
474.22	10.83
474.423	10.68
474.625	10.57
474.827	10.57
475.03	10.37
475.232	10.27
475.434	10.3
475.636	10.38
475.838	10.39
476.04	10.41
476.243	10.42
476.445	10.44
476.647	10.32
476.849	10.37
477.051	10.28
477.253	10.29
477.455	10.41
477.657	10.31
477.859	10.44
478.061	10.4
478.263	10.42
478.465	10.27
478.667	10.31
478.869	10.51
479.071	10.5
479.273	10.59
479.475	10.66
479.677	10.61
479.879	10.69
480.081	10.52
480.283	10.54
480.485	10.56
480.686	10.61
480.888	10.49
481.09	10.33
481.292	10.29
481.494	10.21
481.695	10.17
481.897	10.33
482.099	10.34
482.301	10.54
482.502	10.61
482.704	10.43
482.906	10.54
483.107	10.59
483.309	10.69
483.511	10.73
483.712	10.7
483.914	10.69
484.115	10.69
484.317	10.7
484.519	10.67
484.72	10.58
484.922	10.73
485.123	10.71
485.325	10.72
485.526	10.67
485.728	10.69
485.929	10.83
486.131	10.86
486.332	10.75
486.534	10.73
486.735	10.67
486.936	10.76
487.138	10.69
487.339	10.73
487.541	10.71
487.742	10.71
487.943	10.71
488.144	10.66
488.346	10.68
488.547	10.75
488.748	10.76
488.95	10.74
489.151	10.72
489.352	10.75
489.553	10.66
489.755	10.71
489.956	10.71
490.157	10.68
490.358	10.66
490.559	10.63
490.76	10.57
490.961	10.59
491.163	10.62
491.364	10.65
491.565	10.58
491.766	10.64
491.967	10.55
492.168	10.65
492.369	10.54
492.57	10.49
492.771	10.47
492.972	10.52
493.173	10.52
493.374	10.59
493.575	10.58
493.776	10.66
493.976	10.59
494.177	10.6
494.378	10.46
494.579	10.54
494.78	10.55
494.981	10.62
495.182	10.66
495.382	10.47
495.583	10.52
495.784	10.51
495.985	10.43
496.185	10.46
496.386	10.48
496.587	10.55
496.788	10.54
496.988	10.58
497.189	10.63
497.39	10.56
497.59	10.73
497.791	10.64
497.992	10.74
498.192	10.71
498.393	10.74
498.593	10.8
498.794	10.75
498.994	10.87
499.195	10.99
499.395	11.09
499.596	11.07
499.796	11.09
499.997	11.19
500.197	11
500.398	11.07
500.598	11.1
500.799	11.13
500.999	11.19
501.199	11.36
501.4	11.28
501.6	11.18
501.801	11.2
502.001	11.14
502.201	11.13
502.402	11.37
502.602	11.42
502.802	11.58
503.002	11.92
503.203	11.93
503.403	11.82
503.603	11.77
503.803	11.68
504.003	11.68
504.204	11.89
504.404	11.98
504.604	11.92
504.804	11.97
505.004	11.9
505.204	11.54
505.404	11.67
505.604	11.51
505.804	11.68
506.005	11.84
506.205	12.04
506.405	12.03
506.605	12.08
506.805	11.99
507.005	12.09
507.204	12.14
507.404	12.35
507.604	12.25
507.804	12.55
508.004	12.62
508.204	12.84
508.404	12.73
508.604	12.71
508.804	12.69
509.003	12.86
509.203	12.9
509.403	12.91
509.603	12.97
509.803	13.1
510.002	13.21
510.202	13.29
510.402	13.17
510.602	13.3
510.801	13.45
511.001	13.53
511.201	13.56
511.4	13.7
511.6	13.92
511.8	13.99
511.999	13.96
512.199	13.92
512.398	13.91
512.598	14.09
512.797	14.41
512.997	14.33
513.197	14.38
513.396	14.49
513.596	14.53
513.795	14.47
513.994	14.46
514.194	14.68
514.393	14.84
514.593	14.99
514.792	14.91
514.992	14.92
515.191	15.15
515.39	15.16
515.59	15.44
515.789	15.46
515.988	15.5
516.188	15.67
516.387	15.72
516.586	15.72
516.786	15.8
516.985	16.12
517.184	16.11
517.383	16.17
517.582	16.3
517.782	16.24
517.981	16.41
518.18	16.52
518.379	16.52
518.578	16.6
518.777	16.78
518.976	16.94
519.176	16.88
519.375	17.02
519.574	17.09
519.773	17.22
519.972	17.31
520.171	17.33
520.37	17.39
520.569	17.57
520.768	17.67
520.967	17.66
521.166	17.62
521.365	17.74
521.564	17.71
521.762	17.87
521.961	17.84
522.16	17.96
522.359	18.07
522.558	18.33
522.757	18.43
522.956	18.51
523.154	18.7
523.353	18.88
523.552	18.93
523.751	19.11
523.949	19.35
524.148	19.57
524.347	19.74
524.546	19.97
524.744	20.04
524.943	20.1
525.142	20.26
525.34	20.39
525.539	20.54
525.737	20.67
525.936	20.75
526.135	20.72
526.333	20.76
526.532	20.9
526.73	20.89
526.929	20.98
527.127	21.12
527.326	21.16
527.524	21.22
527.723	21.3
527.921	21.44
528.12	21.56
528.318	21.64
528.516	21.79
528.715	21.82
528.913	21.94
529.112	21.95
529.31	22.04
529.508	22.12
529.707	22.14
529.905	22.17
530.103	22.15
530.301	22.13
530.5	22.19
530.698	22.2
530.896	22.2
531.094	22.3
531.293	22.45
531.491	22.47
531.689	22.53
531.887	22.62
532.085	22.72
532.283	22.81
532.481	23.07
532.68	23.17
532.878	23.27
533.076	23.52
533.274	23.58
533.472	23.51
533.67	23.56
533.868	23.74
534.066	23.9
534.264	23.95
534.462	24.1
534.66	24.16
534.858	24.1
535.056	24.15
535.253	24.2
535.451	24.23
535.649	24.55
535.847	24.76
536.045	24.73
536.243	24.83
536.441	24.97
536.638	25.02
536.836	25.04
537.034	25.21
537.232	25.21
537.43	25.2
537.627	25.25
537.825	25.22
538.023	25.24
538.22	25.33
538.418	25.34
538.616	25.36
538.813	25.54
539.011	25.4
539.209	25.59
539.406	25.78
539.604	25.93
539.801	25.98
539.999	25.98
540.196	26.05
540.394	26.1
540.591	26.24
540.789	26.26
540.986	26.31
541.184	26.46
541.381	26.54
541.579	26.56
541.776	26.57
541.974	26.74
542.171	26.82
542.368	26.94
542.566	26.97
542.763	26.96
542.96	27.07
543.158	27.05
543.355	27.22
543.552	27.22
543.75	27.21
543.947	27.27
544.144	27.28
544.341	27.42
544.539	27.35
544.736	27.46
544.933	27.45
545.13	27.51
545.327	27.59
545.524	27.61
545.722	27.79
545.919	28.02
546.116	28.19
546.313	28.11
546.51	27.98
546.707	28.21
546.904	28.36
547.101	28.48
547.298	28.46
547.495	28.6
547.692	28.68
547.889	28.68
548.086	28.66
548.283	28.64
548.48	28.96
548.677	29.15
548.874	29.01
549.07	29
549.267	29.22
549.464	29.41
549.661	29.39
549.858	29.36
550.055	29.18
550.251	29.3
550.448	29.31
550.645	29.25
550.842	29.27
551.038	29.4
551.235	29.41
551.432	29.28
551.628	29.32
551.825	29.36
552.022	29.46
552.218	29.69
552.415	29.76
552.612	29.76
552.808	29.68
553.005	29.83
553.201	29.97
553.398	29.98
553.594	29.99
553.791	30.03
553.987	30.16
554.184	30.21
554.38	30.22
554.577	30.17
554.773	30.27
554.97	30.37
555.166	30.2
555.362	30.38
555.559	30.61
555.755	30.73
555.952	30.98
556.148	31.12
556.344	31.06
556.541	31.3
556.737	31.44
556.933	31.28
557.129	31.43
557.326	31.65
557.522	31.56
557.718	31.48
557.914	31.66
558.11	31.48
558.307	31.43
558.503	31.42
558.699	31.28
558.895	31.37
559.091	31.54
559.287	31.48
559.483	31.54
559.679	31.47
559.876	31.53
560.072	31.46
560.268	31.41
560.464	31.34
560.66	31.58
560.856	31.57
561.052	31.54
561.247	31.92
561.443	31.98
561.639	32.04
561.835	32.08
562.031	32.33
562.227	32.46
562.423	32.63
562.619	32.98
562.815	33.17
563.01	33.3
563.206	33.4
563.402	33.14
563.598	33.21
563.793	33.25
563.989	33.43
564.185	33.28
564.381	33.29
564.576	33.39
564.772	33.34
564.968	33.11
565.163	33.38
565.359	33.41
565.555	33.55
565.75	33.5
565.946	33.56
566.141	33.51
566.337	33.45
566.532	33.5
566.728	33.55
566.923	33.53
567.119	33.59
567.314	33.5
567.51	33.57
567.705	33.71
567.901	33.75
568.096	33.92
568.292	33.83
568.487	34.07
568.682	34.33
568.878	34.27
569.073	34.44
569.268	34.58
569.464	34.73
569.659	34.67
569.854	34.7
570.05	34.74
570.245	34.63
570.44	34.81
570.635	34.77
570.831	34.69
571.026	35.11
571.221	35.02
571.416	35.02
571.611	34.96
571.806	35.11
572.002	34.96
572.197	35.11
572.392	35.28
572.587	35.29
572.782	35.31
572.977	35.27
573.172	34.96
573.367	35.07
573.562	34.9
573.757	34.79
573.952	34.77
574.147	34.68
574.342	34.68
574.537	34.55
574.732	34.64
574.927	34.77
575.121	34.55
575.316	34.74
575.511	34.57
575.706	34.63
575.901	34.79
576.096	34.61
576.29	34.75
576.485	34.78
576.68	34.82
576.875	34.55
577.069	34.35
577.264	34.5
577.459	34.22
577.654	34.64
577.848	34.81
578.043	34.79
578.238	34.97
578.432	35.02
578.627	35.05
578.821	35.11
579.016	35.29
579.21	35.24
579.405	35.47
579.6	35.61
579.794	35.18
579.989	35.19
580.183	34.89
580.378	35.1
580.572	35.16
580.766	35.13
580.961	35.05
581.155	35.12
581.35	35.15
581.544	34.91
581.738	35.07
581.933	35.27
582.127	35.24
582.321	35.56
582.516	35.59
582.71	35.59
582.904	35.64
583.099	35.9
583.293	36
583.487	36.16
583.681	36.37
583.875	36.21
584.07	35.98
584.264	36.08
584.458	36.3
584.652	36.45
584.846	36.34
585.04	36.2
585.234	36
585.428	36.03
585.623	36.09
585.817	35.96
586.011	36
586.205	35.87
586.399	35.8
586.593	35.6
586.787	35.58
586.981	35.9
587.174	35.88
587.368	35.99
587.562	35.99
587.756	35.99
587.95	36.27
588.144	36.56
588.338	36.79
588.532	36.94
588.725	37.19
588.919	37.18
589.113	37.1
589.307	37.05
589.501	37.17
589.694	37.19
589.888	37.41
590.082	37.05
590.275	36.77
590.469	37.17
590.663	37.03
590.856	36.71
591.05	36.67
591.244	36.43
591.437	36.67
591.631	36.64
591.824	36.83
592.018	36.72
592.212	36.96
592.405	37.2
592.599	37.15
592.792	37.24
592.986	37.56
593.179	37.3
593.372	37.56
593.566	37.77
593.759	37.67
593.953	37.62
594.146	37.85
594.339	37.91
594.533	37.7
594.726	37.54
594.92	37.59
595.113	37.6
595.306	37.53
595.499	37.78
595.693	37.47
595.886	37.58
596.079	37.55
596.272	37.35
596.466	37.45
596.659	37.55
596.852	37.5
597.045	37.71
597.238	37.76
597.431	37.75
597.624	37.58
597.818	37.88
598.011	37.82
598.204	37.75
598.397	37.72
598.59	37.62
598.783	37.7
598.976	37.79
599.169	37.52
599.362	37.46
599.555	37.45
599.748	37.45
599.941	37.17
600.134	37.24
600.326	37.45
600.519	37.55
600.712	37.76
600.905	37.49
601.098	37.37
601.291	37.29
601.483	37.29
601.676	37.8
601.869	38.05
602.062	38.18
602.255	37.98
602.447	37.83
602.64	37.95
602.833	37.77
603.025	38.35
603.218	38.56
603.411	38.84
603.603	39.02
603.796	39.04
603.989	38.9
604.181	38.79
604.374	38.96
604.566	38.96
604.759	38.81
604.951	38.82
605.144	38.66
605.336	38.46
605.529	38.43
605.721	38.31
605.914	38.16
606.106	38.26
606.299	38.5
606.491	38.64
606.683	38.69
606.876	38.55
607.068	38.6
607.26	38.68
607.453	38.7
607.645	38.51
607.837	38.26
608.03	38.44
608.222	38.34
608.414	38.17
608.606	38.03
608.799	38.49
608.991	38.52
609.183	38.42
609.375	38.25
609.567	38.48
609.759	38.61
609.952	38.66
610.144	38.3
610.336	38.23
610.528	38.25
610.72	38.36
610.912	37.89
611.104	38.16
611.296	38.3
611.488	38.19
611.68	37.88
611.872	37.75
612.064	37.71
612.256	38.07
612.448	38.2
612.64	38.22
612.832	37.93
613.023	37.95
613.215	37.82
613.407	37.5
613.599	37.54
613.791	37.92
613.983	38.22
614.174	38.36
614.366	38.17
614.558	38.11
614.75	37.83
614.941	38.17
615.133	38.38
615.325	38.3
615.516	38.83
615.708	39.15
615.9	39.07
616.091	39.01
616.283	39.13
616.475	39.03
616.666	38.83
616.858	38.98
617.049	38.77
617.241	38.5
617.432	38.33
617.624	38.19
617.815	38.09
618.007	38.09
618.198	38.16
618.39	38.11
618.581	38.1
618.773	38.49
618.964	38.61
619.155	38.82
619.347	39.08
619.538	39.51
619.729	39.28
619.921	39.48
620.112	39.52
620.303	39.52
620.494	39.59
620.686	39.51
620.877	39.22
621.068	39.33
621.259	39.15
621.451	38.85
621.642	38.45
621.833	38.75
622.024	38.49
622.215	38.2
622.406	37.8
622.597	37.62
622.788	38.04
622.98	38.15
623.171	37.91
623.362	37.9
623.553	38.21
623.744	38.21
623.935	38.14
624.126	38.03
624.317	38.48
624.508	38.68
624.698	38.97
624.889	38.8
625.08	38.85
625.271	38.89
625.462	38.68
625.653	38.71
625.844	39
626.034	39.05
626.225	39.15
626.416	38.85
626.607	38.91
626.798	38.77
626.988	38.82
627.179	38.72
627.37	38.8
627.56	39.09
627.751	39.13
627.942	39.08
628.132	39.13
628.323	39.27
628.514	39.7
628.704	39.65
628.895	39.82
629.085	39.81
629.276	39.87
629.466	39.92
629.657	39.79
629.847	39.86
630.038	39.98
630.228	39.87
630.419	39.6
630.609	39.12
630.8	39.1
630.99	39.08
631.181	39.29
631.371	39.6
631.561	39.32
631.752	39.24
631.942	38.79
632.132	38.74
632.323	39.06
632.513	39.14
632.703	39.23
632.893	39.15
633.084	38.75
633.274	38.69
633.464	38.33
633.654	38.46
633.844	38.63
634.034	38.87
634.225	38.93
634.415	38.84
634.605	38.7
634.795	38.9
634.985	39.02
635.175	39.37
635.365	39.29
635.555	39.14
635.745	39.29
635.935	38.99
636.125	38.76
636.315	38.6
636.505	38.62
636.695	38.86
636.885	38.55
637.075	38.48
637.265	38.45
637.455	38.56
637.644	38.72
637.834	38.74
638.024	39.22
638.214	39.3
638.404	39.55
638.593	39.29
638.783	39.39
638.973	39.75
639.163	39.8
639.352	40.07
639.542	39.94
639.732	39.92
639.921	40.14
640.111	40.07
640.301	39.9
640.49	39.63
640.68	39.75
640.87	39.55
641.059	39.28
641.249	39.2
641.438	38.81
641.628	39.03
641.817	39.3
642.007	38.87
642.196	39.04
642.386	39.33
642.575	39.45
642.764	39.48
642.954	39.71
643.143	39.77
643.333	39.86
643.522	39.58
643.711	39.19
643.901	38.99
644.09	39.12
644.279	39.02
644.469	39.51
644.658	39.56
644.847	39.51
645.036	39.53
645.226	39.8
645.415	40.06
645.604	40.41
645.793	40.5
645.982	40.3
646.171	40.2
646.361	39.92
646.55	39.46
646.739	38.83
646.928	39.06
647.117	39.33
647.306	39.1
647.495	38.94
647.684	38.8
647.873	39.27
648.062	39.18
648.251	39.41
648.44	39.08
648.629	39.24
648.818	39.71
649.007	39.23
649.196	38.85
649.384	39.02
649.573	39.37
649.762	39.64
649.951	38.92
650.14	38.81
650.328	38.96
650.517	39.27
650.706	39.32
650.895	39.22
651.083	38.88
651.272	39.06
651.461	38.67
651.65	38.36
651.838	38.43
652.027	39.05
652.216	39.35
652.404	39.57
652.593	39.77
652.781	39.51
652.97	39.52
653.158	40.14
653.347	39.66
653.535	39.92
653.724	39.79
653.912	39.22
654.101	39.28
654.289	39.55
654.478	39.37
654.666	39.27
654.855	39.56
655.043	39.48
655.231	39.52
655.42	39.68
655.608	39.68
655.796	39.65
655.985	39.99
656.173	39.83
656.361	39.61
656.55	39.62
656.738	39.72
656.926	39.62
657.114	40.1
657.302	39.97
657.491	39.84
657.679	39.76
657.867	40.25
658.055	40.55
658.243	40.49
658.431	40.35
658.619	40.35
658.807	40.36
658.996	40.02
659.184	39.97
659.372	39.96
659.56	40.19
659.748	40.29
659.936	40.22
660.124	39.77
660.311	39.61
660.499	39.87
660.687	39.78
660.875	39.7
661.063	40.07
661.251	40.23
661.439	40.08
661.627	39.68
661.814	39.56
662.002	39.27
662.19	39.34
662.378	39.34
662.565	39.13
662.753	39
662.941	38.88
663.129	39.06
663.316	38.44
663.504	38.83
663.692	39.32
663.879	39.49
664.067	39.49
664.254	40.01
664.442	40.01
664.63	40.08
664.817	39.83
665.005	40.09
665.192	40.17
665.38	40.09
665.567	39.78
665.755	39.47
665.942	39.2
666.13	39.12
666.317	38.75
666.504	38.64
666.692	38.65
666.879	39.06
667.067	39.17
667.254	38.66
667.441	38.69
667.629	39
667.816	39.45
668.003	39.31
668.19	39.26
668.378	39.92
668.565	39.98
668.752	40.32
668.939	40.37
669.127	40.23
669.314	40.28
669.501	40.61
669.688	40.29
669.875	39.94
670.062	40.1
670.249	40.26
670.436	39.66
670.623	39.75
670.81	39.63
670.997	39.34
671.184	39.46
671.371	40
671.558	39.89
671.745	40.26
671.932	40.24
672.119	39.99
672.306	40.1
672.493	40.07
672.68	39.89
672.867	39.9
673.054	39.97
673.24	39.67
673.427	39.19
673.614	38.98
673.801	38.87
673.988	39
674.174	39.53
674.361	39.37
674.548	39.59
674.734	39.79
674.921	39.77
675.108	39.46
675.294	39.63
675.481	40.07
675.668	40.9
675.854	40.72
676.041	40.44
676.227	40.47
676.414	40.17
676.601	40.1
676.787	39.86
676.974	39.62
677.16	39.81
677.347	39.83
677.533	39.14
677.719	39.16
677.906	39.65
678.092	39.82
678.279	39.52
678.465	40.05
678.651	40
678.838	40.23
679.024	40.5
679.21	40.57
679.397	40.81
679.583	41
679.769	40.84
679.955	40.17
680.142	40.12
680.328	40.17
680.514	39.55
680.7	39.52
680.886	39.37
681.073	39.13
681.259	39.39
681.445	38.98
681.631	39.2
681.817	39.01
682.003	39.59
682.189	39.91
682.375	39.79
682.561	40.13
682.747	39.77
682.933	39.79
683.119	39.66
683.305	39.09
683.491	39.24
683.677	39.14
683.863	39.25
684.049	39.16
684.235	38.73
684.42	39.45
684.606	39.74
684.792	40.25
684.978	40.09
685.164	40.19
685.349	40.95
685.535	40.72
685.721	40.58
685.907	40.45
686.092	40.08
686.278	40.65
686.464	40.33
686.649	39.84
686.835	39.2
687.021	39.75
687.206	39.73
687.392	39.35
687.577	39.56
687.763	39.81
687.948	39.59
688.134	39.76
688.319	39.62
688.505	39.18
688.69	39.34
688.876	40.02
689.061	39.49
689.247	39.5
689.432	39.13
689.618	39.31
689.803	38.64
689.988	38.85
690.174	38.95
690.359	39.1
690.544	39.21
690.73	39.63
690.915	39.63
691.1	39.82
691.285	39.9
691.471	40.08
691.656	40.02
691.841	40.48
692.026	39.97
692.211	39.46
692.396	38.38
692.582	39.06
692.767	39.02
692.952	38.98
693.137	38.95
693.322	39.39
693.507	39.72
693.692	39.3
693.877	39.2
694.062	39.56
694.247	39.56
694.432	40.67
694.617	40.68
694.802	40.29
694.987	39.94
695.172	40.03
695.357	39.69
695.541	39.81
695.726	39.02
695.911	39.15
696.096	39.68
696.281	40.62
696.466	40.2
696.65	39.95
696.835	40.6
697.02	40.69
697.204	41.19
697.389	41.09
697.574	41.01
697.759	42.16
697.943	42.07
698.128	41.21
698.312	41.15
698.497	41.01
698.682	40.92
698.866	40.44
699.051	40.44
699.235	40.26
699.42	40.33
699.604	40
699.789	39.68
699.973	39.44
700.158	39.85
700.342	39.72
700.527	39.69
700.711	39.66
700.895	39.7
701.08	39.31
701.264	39.05
701.448	39.02
701.633	39.46
701.817	39.84
702.001	40.6
702.186	40.52
702.37	39.61
702.554	40.18
702.738	40.22
702.923	40.94
703.107	41.46
703.291	41.79
703.475	42.6
703.659	42.43
703.843	41.79
704.027	41.36
704.212	41.44
704.396	42.16
704.58	41.17
704.764	41.28
704.948	40.83
705.132	40.93
705.316	40.59
705.5	39.13
705.684	39.28
705.868	39.23
706.052	39.08
706.235	39.22
706.419	39.29
706.603	40.13
706.787	40.51
706.971	39.73
707.155	39.7
707.339	39.35
707.522	39.67
707.706	39.27
707.89	39.62
708.074	39.44
708.257	38.97
708.441	38.71
708.625	38.32
708.808	38.07
708.992	38.5
709.176	38.62
709.359	38.83
709.543	38.71
709.727	39.2
709.91	38.82
710.094	39.1
710.277	39.32
710.461	39.67
710.644	39.77
710.828	38.89
711.011	38.93
711.195	39.63
711.378	40.06
711.562	40.35
711.745	40.11
711.928	39.71
712.112	39.7
712.295	40.28
712.478	40.34
712.662	41.14
712.845	41.06
713.028	41.12
713.212	39.56
713.395	39.03
713.578	39.13
713.761	38.86
713.945	39.48
714.128	39.56
714.311	39.16
714.494	39.42
714.677	39.19
714.86	39.72
715.043	40.09
715.227	40.57
715.41	40.53
715.593	40.08
715.776	40.57
715.959	40.48
716.142	40.47
716.325	40.17
716.508	39.51
716.691	39.29
716.874	39.7
717.057	38.94
717.239	39.62
717.422	40.46
717.605	40.59
717.788	39.55
717.971	39.4
718.154	39.38
718.337	38.97
718.519	39.52
718.702	39.36
718.885	38.85
719.068	38.53
719.25	37.95
719.433	37.6
719.616	38.45
719.798	38.67
719.981	39.46
720.164	39.75
720.346	40.58
720.529	39.83
720.712	39.62
720.894	40.63
721.077	41.56
721.259	41.4
721.442	41.29
721.624	40.95
721.807	42.01
721.989	40.17
722.172	39.73
722.354	38.9
722.537	39.48
722.719	39.41
722.901	39.04
723.084	38.58
723.266	38.57
723.448	38.01
723.631	36.93
723.813	36.41
723.995	38.29
724.178	38.05
724.36	38.23
724.542	37.31
724.724	37.65
724.907	36.96
725.089	37.1
725.271	36.37
725.453	36.96
725.635	38.55
725.817	39.1
725.999	38.08
726.181	38.5
726.364	39.36
726.546	39.68
726.728	38.89
726.91	39.14
727.092	39.57
727.274	40.05
727.456	40.06
727.638	39.28
727.819	38.88
728.001	39.27
728.183	38.9
728.365	37.73
728.547	38.1
728.729	38.56
728.911	38.57
729.093	37.92
729.274	38.63
729.456	38.39
729.638	38.04
729.82	37.59
730.001	36.82
730.183	37.2
730.365	38.06
730.546	38.31
730.728	38.08
730.91	38.37
731.091	38.82
731.273	38.39
731.455	37.35
731.636	37.54
731.818	38.11
731.999	37.71
732.181	38.79
732.362	38.98
732.544	39.41
732.725	39.95
732.907	39.43
733.088	40
733.27	39.79
733.451	40.4
733.633	40.24
733.814	40.38
733.995	40.89
734.177	40.17
734.358	40.13
734.539	39
734.721	39.63
734.902	39.96
735.083	39.68
735.264	39.92
735.446	39.98
735.627	40.47
735.808	39.67
735.989	39.71
736.17	39.64
736.351	39.48
736.533	40.55
736.714	39.57
736.895	39.25
737.076	37.74
737.257	37.46
737.438	37.14
737.619	36.5
737.8	37.79
737.981	38.88
738.162	38.26
738.343	37.87
738.524	36.2
738.705	36.15
738.886	35.68
739.067	35.91
739.247	36.18
739.428	36.97
739.609	36.96
739.79	36.55
739.971	35.99
740.151	36.65
740.332	36.58
740.513	37.34
740.694	37.03
740.874	37.27
741.055	37.96
741.236	38.24
741.417	38.5
741.597	39.39
741.778	38.82
741.958	40.46
742.139	39.49
742.32	39.91
742.5	40.82
742.681	40.97
742.861	40.96
743.042	42
743.222	41.08
743.403	41.4
743.583	41.59
743.764	41.47
743.944	41.08
744.124	42
744.305	41.73
744.485	40.49
744.666	39.52
744.846	39.89
745.026	39.01
745.207	39.79
745.387	40.17
745.567	39.3
745.747	38.8
745.928	38.34
746.108	38.4
746.288	38.08
746.468	38.06
746.648	39.32
746.829	39.08
747.009	39.46
747.189	40.11
747.369	38.56
747.549	39.42
747.729	39.86
747.909	38.79
748.089	38.48
748.269	39.68
748.449	39.6
748.629	39.58
748.809	39.38
748.989	37.78
749.169	37.37
749.349	36.75
749.529	36.83
749.709	37.11
749.889	37.6
750.068	37.33
750.248	36.73
750.428	36.99
750.608	37.1
750.788	37.83
750.967	38.9
751.147	38.26
751.327	38.35
751.507	37.63
751.686	36.92
751.866	36.64
752.046	36.11
752.225	37.01
752.405	37.8
752.585	37.61
752.764	36.54
752.944	35.86
753.123	35.7
753.303	36.83
753.482	37.02
753.662	37.61
753.841	38.12
754.021	38.12
754.2	38.23
754.38	37.31
754.559	38.1
754.739	39.19
754.918	39.45
755.097	40.54
755.277	38.5
755.456	39.06
755.635	39.42
755.815	39.17
755.994	40.89
756.173	40.47
756.352	41.62
756.532	40.06
756.711	39.43
756.89	39.32
757.069	39.63
757.248	42.3
757.427	41.43
757.607	41.62
757.786	41.21
757.965	39.49
758.144	38.06
758.323	37.72
758.502	37.78
758.681	38.26
758.86	39.09
759.039	38.54
759.218	39.02
759.397	39.08
759.576	37.77
759.755	37.52
759.934	39.01
760.113	40.14
760.291	40.75
760.47	41.74
760.649	41.07
760.828	39.98
761.007	40.81
761.186	40.14
761.364	40.36
761.543	41.34
761.722	42.09
761.901	41.36
762.079	40.94
762.258	40.59
762.437	40.87
762.615	41.35
762.794	42.05
762.972	41.26
763.151	39.36
763.33	38.91
763.508	38.45
763.687	39.32
763.865	39.01
764.044	39.29
764.222	38.79
764.401	38
764.579	37.38
764.758	37.72
764.936	37.06
765.114	38.21
765.293	38.32
765.471	38.58
765.65	37.03
765.828	37.48
766.006	37.62
766.184	37.42
766.363	37.3
766.541	37.25
766.719	37.51
766.898	37.6
767.076	38.88
767.254	38.73
767.432	37.94
767.61	38.89
767.788	38.18
767.967	37.08
768.145	36.43
768.323	36.93
768.501	38.22
768.679	37.2
768.857	37.61
769.035	34.6
769.213	34.79
769.391	34.23
769.569	33.68
769.747	33.32
769.925	34.38
770.103	35.08
770.281	34.87
770.459	33.4
770.636	32.67
770.814	32.91
770.992	34.25
771.17	35.46
771.348	35.66
771.525	35.45
771.703	35.78
771.881	35.11
772.059	35.35
772.236	35.93
772.414	35.8
772.592	35.72
772.769	34.93
772.947	34.31
773.125	32.18
773.302	33.06
773.48	32.62
773.657	32.97
773.835	33.46
774.013	34.35
774.19	32.21
774.368	34.42
774.545	35.5
774.723	37.24
774.9	37.29
775.077	37.47
775.255	38.08
775.432	36.8
775.61	37.73
775.787	37.68
775.964	35.04
776.142	36.9
776.319	36.29
776.496	36.04
776.674	36.15
776.851	38.02
777.028	39.59
777.205	38.69
777.382	39.19
777.56	38.68
777.737	37.02
777.914	38.49
778.091	37.87
778.268	35.47
778.445	34.46
778.622	33.23
778.8	33.75
778.977	32.71
779.154	51.15
779.331	52.09
779.508	50.29
779.685	51.3
779.862	53.03
780.038	54.46
780.215	55.1
780.392	55.51
780.569	55.79
780.746	54.09
780.923	53.81
781.1	33.22
781.277	34.95
781.453	36.58
781.63	34.69
781.807	33.79
781.984	31.84
782.16	31.89
782.337	32.52
782.514	30.68
782.691	32.53
782.867	33.17
783.044	33.58
783.221	32.27
783.397	31.26
783.574	34.68
783.75	34.22
783.927	34.33
784.103	31.89
784.28	29.6
784.456	31.85
784.633	29.93
784.809	29.51
784.986	30.73
785.162	30.38
785.339	29.42
785.515	27
785.692	28.62
785.868	28.12
786.044	30.16
786.221	30.97
786.397	30.14
786.573	30.07
786.749	30.77
786.926	33.08
787.102	34.69
787.278	37.45
787.454	39.05
787.631	37.97
787.807	40.15
787.983	40.77
788.159	42.03
788.335	40.04
788.511	40.82
788.687	41.73
788.863	38.97
789.039	38.04
789.216	35.44
789.392	35.59
789.568	33.47
789.744	31.24
789.919	32.62
790.095	33.31
790.271	36.25
790.447	36.3
790.623	35.35
790.799	36.84
790.975	37.53
791.151	37.77
791.327	37.62
791.502	40.91
791.678	44.38
791.854	41.36
792.03	39.92
792.205	37.79
792.381	37.35
792.557	36.3
792.733	34.71
792.908	34.63
793.084	35.28
793.259	34.6
793.435	31.88
793.611	28.99
793.786	30.3
793.962	30.49
794.137	30.4
794.313	29.59
794.488	29.38
794.664	31.71
794.839	29.95
795.015	32.23
795.19	33.13
795.366	33.39
795.541	35.62
795.716	35.8
795.892	35.45
796.067	36.89
796.242	37.38
796.418	38.09
796.593	35.03
796.768	34.81
796.944	33.45
797.119	32.68
797.294	34.38
797.469	33.3
797.644	33.86
797.82	34.01
797.995	34.98
798.17	34.52
798.345	34.91
798.52	36.09
798.695	36.55
798.87	35.79
799.045	37.75
799.22	36.81
799.395	36.97
799.57	36.05
799.745	36.64
799.92	35.29
800.095	36.22
800.27	36.17
800.445	37.52
800.62	37.44
800.795	37.54
800.97	34.08
801.145	33.37
801.319	32.88
801.494	32.37
801.669	30.77
801.844	32.59
802.018	30.78
802.193	29.32
802.368	28.69
802.543	27.3
802.717	26.71
802.892	29.06
803.067	30.68
803.241	29.9
803.416	31.7
803.59	32.16
803.765	28.43
803.94	28.92
804.114	31.22
804.289	30.2
804.463	33.37
804.638	34
804.812	32.59
804.986	30.45
805.161	31.44
805.335	30.69
805.51	32.48
805.684	34.78
805.858	36.84
806.033	36.34
806.207	34.71
806.381	31.58
806.556	33.6
806.73	30.98
806.904	32.66
807.078	33.69
807.253	34.7
807.427	33.12
807.601	31.76
807.775	30.26
807.949	30.65
808.123	30.37
808.298	30.14
808.472	28.29
808.646	33.84
808.82	31.56
808.994	29.34
809.168	27.1
809.342	28.54
809.516	31.19
809.69	31.49
809.864	28.74
810.038	31.15
810.212	35.74
810.385	36.84
810.559	33.54
810.733	35.93
810.907	35.96
811.081	35.83
811.255	32.3
811.428	28.61
811.602	30.17
811.776	33.13
811.95	34.3
812.123	33.14
812.297	32.86
812.471	35.56
812.644	36.63
812.818	36.82
812.992	37.08
813.165	39.79
813.339	43.63
813.512	44.43
813.686	44.71
813.86	43.02
814.033	40.5
814.207	42.91
814.38	41.13
814.554	40.61
814.727	41.43
814.9	44.97
815.074	45.64
815.247	44.82
815.421	43.17
815.594	44.53
815.767	43.4
815.941	42.82
816.114	41.23
816.287	38.33
816.46	34.74
816.634	35.72
816.807	32.36
816.98	33.88
817.153	34.16
817.327	34.8
817.5	35.8
817.673	38.16
817.846	39.48
818.019	42.39
818.192	44.37
818.365	46.03
818.538	46.38
818.711	47.98
818.884	47.85
819.057	44.4
819.23	42.15
819.403	38.51
819.576	36.59
819.749	37.37
819.922	33.48
820.095	33.18
820.268	32.47
820.441	34.12
820.614	32.87
820.786	31.02
820.959	33.22
821.132	35.55
821.305	36.67
821.477	37.02
821.65	37.05
821.823	37.55
821.996	37.45
822.168	37.1
822.341	36.96
822.514	37.97
822.686	38.03
822.859	37.86
823.031	37.63
823.204	36.69
823.376	36.92
823.549	36.96
823.722	37.21
823.894	36.9
824.067	36.65
824.239	36.22
824.411	35.76
824.584	35.45
824.756	36.14
824.929	35.93
825.101	36.16
825.273	36
825.446	35.14
825.618	35.57
825.79	36.61
825.963	37.29
826.135	37.98
826.307	38.48
826.479	39.7
826.652	38.58
826.824	38.13
826.996	38.19
827.168	37.67
827.34	38.53
827.512	37.56
827.684	36.81
827.856	37.31
828.029	36.95
828.201	36.87
828.373	35.37
828.545	35.85
828.717	36.65
828.889	37.18
829.061	37.67
829.232	36.19
829.404	36.14
829.576	35.42
829.748	34.65
829.92	33.32
830.092	32.71
830.264	32.27
830.436	31.14
830.607	30.49
830.779	30.59
830.951	30.1
831.123	28.47
831.294	28.61
831.466	29.97
831.638	30.53
831.809	31.32
831.981	29.77
832.153	29.97
832.324	31.68
832.496	33.72
832.667	31.78
832.839	30.92
833.011	37.6
833.182	37.94
833.354	39.46
833.525	38.36
833.697	38.54
833.868	40.28
834.039	40.94
834.211	41.99
834.382	40.53
834.554	41.67
834.725	42.04
834.896	40.01
835.068	40.31
835.239	37.74
835.41	37.38
835.581	37.78
835.753	35.36
835.924	35.99
836.095	34.32
836.266	34.72
836.438	35.48
836.609	34.88
836.78	34.65
836.951	31.64
837.122	32.68
837.293	32.55
837.464	30.66
837.635	31.37
837.806	30.75
837.977	27.34
838.148	26.51
838.319	22.73
838.49	23.6
838.661	22.83
838.832	23.73
839.003	26.7
839.174	26.57
839.345	27.29
839.516	28.28
839.687	26.41
839.857	30.15
840.028	25.92
840.199	26
840.37	24.66
840.54	24.11
840.711	25.86
840.882	24.28
841.053	24.48
841.223	24.12
841.394	16.76
841.564	19.87
841.735	19.59
841.906	20.12
842.076	21.78
842.247	25.68
842.417	21.91
842.588	21.64
842.758	19.49
842.929	15.02
843.099	19.43
843.27	26.12
843.44	20.5
843.611	23.09
843.781	20.01
843.951	19.66
844.122	15.82
844.292	22.02
844.462	22.19
844.633	19.71
844.803	24.47
844.973	20.57
845.144	27.57
845.314	31.24
845.484	28.11
845.654	23.32
845.824	16.86
845.995	17.25
846.165	19.3
846.335	23.18
846.505	15.01
846.675	10.17
846.845	6.64
847.015	-7.02
847.185	7.22
847.355	3
847.525	11.23
847.695	12.03
847.865	13.69
848.035	15.31
848.205	4.28
848.375	12.02
848.545	17.03
848.715	25.66
848.884	23.99
849.054	7.67
849.224	15.79
849.394	15.67
849.564	23.44
849.733	26.68
849.903	24.54
850.073	21
850.243	33.01
850.412	26.87
850.582	24.88
850.752	30.08
850.921	24
851.091	25.67
851.26	46.26
851.43	27.08
851.599	14.72
851.769	6.33
851.939	16.25
852.108	1.15
852.278	24.32
852.447	3.62
852.616	9.78
852.786	13.12
852.955	10.16
853.125	3.84
853.294	20.8
853.463	24.26
853.633	23.76
853.802	27.97
853.971	35.15
854.141	26.95
854.31	41.51
854.479	41.5
854.648	49.4
854.818	52.19
854.987	46.45
855.156	41
855.325	44.34
855.494	44.22
855.663	40.63
855.832	41.67
856.001	45.47
856.171	47.78
856.34	45.41
856.509	31.38
856.678	29.02
856.847	31.03
857.016	38.7
857.185	41.61
857.353	57.5
857.522	45.26
857.691	30.91
857.86	20.7
858.029	19.97
858.198	21.72
858.367	16.94
858.535	21.45
858.704	23.73
858.873	21.09
859.042	-6.03
859.21	-35.3
859.379	-26.77
859.548	-20.06
859.717	-5.56
859.885	-18.97
860.054	-5.68
860.222	22.27
860.391	15.45
860.56	24.81
860.728	18.04
860.897	32.21
861.065	32.79
861.234	44.51
861.402	44.03
861.571	35.55
861.739	53.46
861.908	34.45
862.076	5.49
862.244	15.72
862.413	7.71
862.581	5.27
862.749	8.66
862.918	-1.75
863.086	-10.58
863.254	-25.38
863.423	-41.43
863.591	-30.21
863.759	-44.34
863.927	-13.66
864.096	-34.02
864.264	-78.61
864.432	-67.91
864.6	-71.21
864.768	-43.98
864.936	-38.26
865.104	-36.63
865.272	-22.63
865.44	-25.87
865.608	-7.8
865.776	-27.16
865.944	-25.49
866.112	-0.89
866.28	11.68
866.448	2.64
866.616	12.13
866.784	12.37
866.952	19.54
867.12	3.79
867.288	1.31
867.455	2.58
867.623	4.71
867.791	18.11
867.959	-4.12
868.127	-30.61
868.294	-27.44
868.462	-22.42
868.63	-3.23
868.797	-3.07
868.965	14.73
869.133	9.42
869.3	16.32
869.468	27.67
869.636	22.39
869.803	36.98
869.971	47.64
870.138	63.22
870.306	58.77
870.473	63.74
870.641	72.95
870.808	67.24
870.975	77.49
871.143	62.28
871.31	49.69
871.478	44.33
871.645	33.78
871.812	15.74
871.98	15.53
872.147	-1.54
872.314	-1.3
872.482	-17.66
872.649	-42.63
872.816	-33.96
872.983	-22.4
873.15	-12.47
873.318	-16.38
873.485	-10.59
873.652	-3.04
873.819	-0.81
873.986	8.04
874.153	5.7
874.32	10.53
874.487	29.25
874.654	34.14
874.821	23.1
874.988	17.65
875.155	26.49
875.322	11.82
875.489	5.02
875.656	0.74
875.823	0.66
875.99	6.18
876.157	15.89
876.324	15.49
876.49	11.25
876.657	14.88
876.824	23.02
876.991	19.31
877.157	27.91
877.324	41.77
877.491	39
877.658	52.17
877.824	73.19
877.991	70.33
878.157	50.4
878.324	47.82
878.491	45.03
878.657	35.62
878.824	56.32
878.99	66.63
879.157	36.38
879.323	45.31
879.49	39.1
879.656	26.03
879.823	30.98
879.989	34.2
880.156	27.03
880.322	31.23
880.488	25.57
880.655	27.54
880.821	27.19
880.987	34.05
881.154	30.36
881.32	31.38
881.486	32.06
881.652	30.4
881.819	30.14
881.985	32.38
882.151	34.71
882.317	37.52
882.483	37.12
882.649	33.62
882.816	32.49
882.982	33.98
883.148	33.78
883.314	33.34
883.48	33.67
883.646	34.78
883.812	35.44
883.978	34.24
884.144	33.71
884.31	32.23
884.476	32.77
884.642	34.9
884.807	34.66
884.973	33.83
885.139	34.57
885.305	33.31
885.471	33.71
885.637	35.56
885.802	33.26
885.968	34.45
886.134	36.51
886.3	38.96
886.465	36.53
886.631	34.41
886.797	35.95
886.962	35.28
887.128	37.12
887.293	36.44
887.459	34.24
887.625	37.13
887.79	28.98
887.956	22.51
888.121	17.66
888.287	17.28
888.452	20.46
888.618	12.1
888.783	5.46
