Data from CB_070_Reflection_3.txt Node
Date: Sat Nov 14 11:02:00 EST 2015
User: robert
Spectrometer: USB4E03001
Autoset integration time: false
Trigger mode: 4
Integration Time (sec): 1.000000E-1
Scans to average: 15
Electric dark correction enabled: true
Nonlinearity correction enabled: false
Boxcar width: 5
Stray light correction enabled: false
XAxis mode: Wavelengths
Stop averaging: false
Number of Pixels in Spectrum: 3648
>>>>>Begin Spectral Data<<<<<
177.566	-39.43
177.785	-39.56
178.005	-817.83
178.225	-129.97
178.445	-107
178.665	-401.88
178.885	149.1
179.105	-0.35
179.324	-16.75
179.544	-174.94
179.764	-19.02
179.984	-23.7
180.204	-38.91
180.423	-298.83
180.643	-94.19
180.863	-228.59
181.083	-1380.15
181.302	-6506.35
181.522	615.42
181.742	662.44
181.961	739.91
182.181	151.25
182.401	119.85
182.621	184.04
182.84	903.34
183.06	-2430.85
183.279	-328.61
183.499	-239.9
183.719	-228.73
183.938	-231.75
184.158	-194.24
184.377	-138.79
184.597	-79.86
184.816	-66.44
185.036	-122.74
185.256	-174.74
185.475	-548.01
185.695	-358.83
185.914	-388.77
186.134	-444.71
186.353	-377.68
186.572	-315.26
186.792	-1133.44
187.011	5907.98
187.231	-3235.71
187.45	-563.11
187.67	-1792.83
187.889	650.95
188.108	306.5
188.328	271.12
188.547	174.75
188.766	138.32
188.986	120.59
189.205	114.96
189.424	136.72
189.644	144.59
189.863	189.12
190.082	239.15
190.302	341.1
190.521	286.42
190.74	255.31
190.959	951.28
191.178	945.68
191.398	765.28
191.617	2088.82
191.836	6595.16
192.055	1241.29
192.274	338.51
192.494	380.66
192.713	10971.43
192.932	-1181.61
193.151	237125
193.37	371.9
193.589	-9831.86
193.808	-840.41
194.027	-1505.07
194.246	3263.14
194.465	-1912.5
194.685	422.52
194.904	416.22
195.123	257.25
195.342	158.7
195.561	154.07
195.78	500.07
195.999	787.98
196.218	258.74
196.436	-3.51
196.655	125.98
196.874	131.39
197.093	287.95
197.312	260.07
197.531	521
197.75	845.47
197.969	1891.78
198.188	323.57
198.407	228.51
198.625	297.24
198.844	351.87
199.063	371.55
199.282	661.13
199.501	-4172.27
199.719	-2348.31
199.938	969.33
200.157	608.28
200.376	-4244.91
200.594	-302.57
200.813	-621.01
201.032	-1519.79
201.251	-743.2
201.469	-1118.39
201.688	-1868.86
201.907	3122.6
202.125	851.42
202.344	3531
202.563	18607.25
202.781	886.43
203	314.01
203.218	301.45
203.437	474.32
203.656	369.88
203.874	749.87
204.093	768.23
204.311	492.09
204.53	1320.58
204.748	331.84
204.967	457.98
205.185	358.26
205.404	371.01
205.622	439.91
205.841	267.12
206.059	210.36
206.278	166.98
206.496	266.12
206.715	329.57
206.933	273.49
207.151	318.27
207.37	241.99
207.588	290.12
207.806	339.45
208.025	508.14
208.243	667.1
208.461	-43645.45
208.68	1270.18
208.898	503.04
209.116	333.97
209.335	240.2
209.553	233.81
209.771	173.54
209.989	158.48
210.208	135.9
210.426	101.2
210.644	106.67
210.862	102.99
211.081	127.29
211.299	111.6
211.517	145.24
211.735	122.89
211.953	116.52
212.171	130.46
212.39	146.54
212.608	154.21
212.826	159.11
213.044	147.3
213.262	146.77
213.48	131.55
213.698	195.09
213.916	103.31
214.134	203.46
214.352	363.23
214.57	226.38
214.788	174.15
215.006	200.65
215.224	372.61
215.442	1044.68
215.66	2521.24
215.878	737.28
216.096	219.98
216.314	605.05
216.532	2377.66
216.75	-737.96
216.968	-1020.78
217.185	-8853.98
217.403	1773.25
217.621	-83000
217.839	-540.79
218.057	-15860.42
218.275	-284.33
218.492	-60.33
218.71	-2075.87
218.928	1132.32
219.146	549.92
219.363	369.57
219.581	442.57
219.799	-1958.57
220.017	313.44
220.234	346.16
220.452	352.01
220.67	670.11
220.887	264.12
221.105	419.54
221.323	227.65
221.54	196.74
221.758	179.79
221.976	160.98
222.193	118.42
222.411	108.73
222.629	110.85
222.846	87.86
223.064	65.41
223.281	64.06
223.499	63.31
223.716	62.65
223.934	32.97
224.151	38.08
224.369	40.81
224.586	59.6
224.804	68.55
225.021	70.37
225.239	75.32
225.456	95.14
225.674	90.55
225.891	81.39
226.108	80.09
226.326	80.82
226.543	83.25
226.76	63.96
226.978	50.8
227.195	53.26
227.413	41.3
227.63	46.71
227.847	38.61
228.064	41.71
228.282	43.07
228.499	43.51
228.716	40.9
228.934	37.78
229.151	40.37
229.368	38.74
229.585	35.46
229.802	38.82
230.02	36.93
230.237	38.78
230.454	36.28
230.671	35.47
230.888	35.78
231.105	40.96
231.323	42.87
231.54	41.53
231.757	42.43
231.974	49.34
232.191	43.43
232.408	39.17
232.625	43.03
232.842	41.08
233.059	37.04
233.276	35.36
233.493	25.89
233.71	21.94
233.927	23.05
234.144	20.72
234.361	19.52
234.578	25.38
234.795	25.21
235.012	19.43
235.229	15.84
235.446	19.09
235.663	19.74
235.879	22.64
236.096	24.47
236.313	26.48
236.53	20.05
236.747	21.82
236.964	16.45
237.181	26.54
237.397	30.58
237.614	44.11
237.831	50.29
238.048	50.85
238.264	49.66
238.481	43.68
238.698	38.88
238.915	43.88
239.131	36.54
239.348	36.36
239.565	28.93
239.781	24.34
239.998	21.19
240.215	17.4
240.431	17.7
240.648	16.69
240.865	21.53
241.081	20.16
241.298	19.26
241.514	19.37
241.731	18
241.947	20.03
242.164	20.31
242.38	14.52
242.597	11.98
242.814	10.64
243.03	14.89
243.246	14.57
243.463	15.95
243.679	16.26
243.896	16.62
244.112	16.31
244.329	16.64
244.545	17.62
244.762	22.11
244.978	25.07
245.194	24.19
245.411	18.51
245.627	17.55
245.843	17.74
246.06	18.1
246.276	17.78
246.492	17.99
246.709	16.71
246.925	16.36
247.141	16.27
247.357	16.55
247.574	17.83
247.79	17.92
248.006	17.5
248.222	17.96
248.439	17.68
248.655	17.83
248.871	16.82
249.087	16.6
249.303	17.46
249.519	18.83
249.736	17.98
249.952	17.65
250.168	20.16
250.384	21.5
250.6	19.75
250.816	22.33
251.032	22.12
251.248	25.61
251.464	25.36
251.68	22.39
251.896	19.57
252.112	20.61
252.328	20.35
252.544	19.57
252.76	17.59
252.976	17.15
253.192	14.4
253.408	13.15
253.624	11.3
253.84	13.37
254.056	14.77
254.272	15.77
254.487	13.62
254.703	12.36
254.919	12.39
255.135	16.23
255.351	19.51
255.567	20.27
255.782	25.31
255.998	25.95
256.214	24.4
256.43	22.79
256.646	23.13
256.861	23.42
257.077	20.29
257.293	19.38
257.508	17.49
257.724	16.34
257.94	16.23
258.155	13.86
258.371	13.5
258.587	12.54
258.802	14.2
259.018	13.56
259.234	13.48
259.449	14.04
259.665	13.69
259.88	14.23
260.096	13.47
260.312	12.92
260.527	12.55
260.743	12.8
260.958	12.75
261.174	12.64
261.389	13.13
261.605	12.82
261.82	11.77
262.036	12.09
262.251	10.12
262.466	9.72
262.682	9.42
262.897	8.02
263.113	7.73
263.328	7.66
263.543	6.79
263.759	7.89
263.974	8.01
264.189	8.03
264.405	6.55
264.62	7.42
264.835	7.29
265.051	9.19
265.266	9.92
265.481	11.21
265.696	13.02
265.912	12.05
266.127	10.09
266.342	9.96
266.557	10.83
266.773	11.67
266.988	12.41
267.203	12.44
267.418	11.14
267.633	12.66
267.848	10.89
268.064	8.38
268.279	9.09
268.494	8.23
268.709	9.14
268.924	11.74
269.139	10.78
269.354	12.2
269.569	12.26
269.784	13.46
269.999	13.14
270.214	14.03
270.429	15.19
270.644	14.44
270.859	13.3
271.074	12.56
271.289	11.94
271.504	12.53
271.719	12
271.934	12.74
272.149	11.66
272.363	12.38
272.578	11.46
272.793	10.61
273.008	11
273.223	12.2
273.438	12.32
273.653	12.45
273.867	12.1
274.082	11.43
274.297	11.63
274.512	13.02
274.726	11.37
274.941	11.71
275.156	13.16
275.371	13.35
275.585	14.06
275.8	13.95
276.015	11.62
276.229	11.34
276.444	12.15
276.659	11.04
276.873	10.2
277.088	13.81
277.302	14.35
277.517	13.69
277.732	14.2
277.946	14.06
278.161	14.62
278.375	15.17
278.59	15.28
278.804	14.41
279.019	16.4
279.233	16.31
279.448	12.18
279.662	12.65
279.877	11.44
280.091	9.19
280.306	8.25
280.52	7.1
280.735	7.91
280.949	8.4
281.163	9.81
281.378	7.35
281.592	8.47
281.806	9.9
282.021	9.5
282.235	11.35
282.449	12.79
282.664	13.96
282.878	15.02
283.092	13.96
283.307	13.48
283.521	10.86
283.735	12.73
283.949	12.27
284.164	11.84
284.378	11.63
284.592	11.01
284.806	10.74
285.02	9.61
285.234	8.43
285.449	8.96
285.663	9.71
285.877	10.97
286.091	10.45
286.305	10.3
286.519	10.37
286.733	11.17
286.947	12.31
287.161	12.79
287.375	12.29
287.589	14.32
287.803	15.78
288.017	15.34
288.231	15.97
288.445	15.46
288.659	14.88
288.873	14.18
289.087	13.77
289.301	14.75
289.515	13.9
289.729	15.45
289.943	15.22
290.157	15.77
290.371	17.01
290.584	16.59
290.798	17.46
291.012	18
291.226	18.96
291.44	19.1
291.654	17.3
291.867	17.57
292.081	17.78
292.295	18.36
292.509	17.76
292.722	15.87
292.936	14.42
293.15	13.62
293.364	12.35
293.577	12.73
293.791	12.78
294.005	12.41
294.218	12.89
294.432	12.63
294.645	10.71
294.859	9.54
295.073	11.31
295.286	12.43
295.5	12.4
295.713	12.18
295.927	11.63
296.14	10.14
296.354	9.84
296.568	9.45
296.781	8.67
296.994	9.09
297.208	9.29
297.421	8.52
297.635	9.55
297.848	9.34
298.062	9.92
298.275	9.82
298.489	10.43
298.702	11.25
298.915	10.68
299.129	11.33
299.342	11.17
299.555	10.56
299.769	10.99
299.982	10.02
300.195	10.79
300.409	11.04
300.622	11.13
300.835	11.6
301.048	12.18
301.262	13.23
301.475	13.85
301.688	14.12
301.901	15.84
302.115	16.02
302.328	15.27
302.541	15.62
302.754	16.21
302.967	16.57
303.18	17.32
303.393	17.03
303.607	16.92
303.82	17.18
304.033	17.92
304.246	16.66
304.459	16.62
304.672	17.78
304.885	17.3
305.098	17.67
305.311	17.35
305.524	16.6
305.737	15.72
305.95	16.28
306.163	15.36
306.376	14.81
306.589	16.84
306.802	16.44
307.015	16.8
307.228	16.67
307.44	15.92
307.653	17.19
307.866	17.69
308.079	18.39
308.292	17.26
308.505	18.36
308.718	18.6
308.93	17.47
309.143	17.34
309.356	16.6
309.569	17.06
309.781	17.73
309.994	17.62
310.207	17.54
310.42	17.45
310.632	18.18
310.845	17.23
311.058	16.71
311.27	16.44
311.483	16.36
311.696	16.3
311.908	15.72
312.121	15.61
312.333	15.5
312.546	14.67
312.759	14.09
312.971	13.39
313.184	14.29
313.396	14.21
313.609	14.09
313.821	14.44
314.034	14.61
314.246	14.19
314.459	14.6
314.671	14.02
314.884	14.05
315.096	14.95
315.309	15.85
315.521	15.82
315.733	16.6
315.946	16.49
316.158	16.67
316.371	16.86
316.583	17.04
316.795	15.38
317.008	16.75
317.22	17.16
317.432	17.3
317.644	16.74
317.857	16.14
318.069	15.22
318.281	16.38
318.494	16.68
318.706	18.61
318.918	20.29
319.13	19.93
319.342	18.56
319.555	18.66
319.767	19.51
319.979	19.23
320.191	19.48
320.403	20.16
320.615	20.64
320.827	21.22
321.039	19.8
321.252	19.56
321.464	21.48
321.676	20.75
321.888	21.94
322.1	20.6
322.312	20.61
322.524	20.75
322.736	19.2
322.948	18.93
323.16	18.31
323.372	18.78
323.584	18.88
323.796	17.21
324.007	17.48
324.219	17.75
324.431	17.92
324.643	18.62
324.855	19.03
325.067	19.7
325.279	19.36
325.491	19.86
325.702	19.58
325.914	18.44
326.126	19.24
326.338	18.38
326.55	17.79
326.761	17.71
326.973	17.88
327.185	17.76
327.396	18.78
327.608	18.91
327.82	18.46
328.032	18.44
328.243	19.04
328.455	20.58
328.666	22.69
328.878	22.84
329.09	24.15
329.301	23.81
329.513	23.01
329.725	23.36
329.936	23.9
330.148	24.47
330.359	25.32
330.571	26.45
330.782	25.59
330.994	26.2
331.205	27.78
331.417	27.76
331.628	28.69
331.84	30.27
332.051	30.41
332.262	29.95
332.474	29.11
332.685	29.39
332.897	28.96
333.108	29.91
333.319	28.58
333.531	27.91
333.742	27.06
333.953	26.41
334.165	25.72
334.376	26.77
334.587	27.39
334.799	27.69
335.01	26.61
335.221	26.6
335.432	24.86
335.644	25.78
335.855	25.57
336.066	26.21
336.277	26.58
336.488	27.59
336.7	26.17
336.911	26.39
337.122	26.96
337.333	27.14
337.544	27.57
337.755	28.5
337.966	28.29
338.177	28.81
338.388	28.72
338.599	29.4
338.811	28.35
339.022	28.52
339.233	28.29
339.444	27.29
339.655	27.41
339.866	27.16
340.076	27.58
340.287	27.33
340.498	27.51
340.709	27.78
340.92	27.48
341.131	28.81
341.342	29.46
341.553	28.63
341.764	29.71
341.975	30.24
342.185	30.78
342.396	30.01
342.607	30.37
342.818	29.49
343.029	28.9
343.239	28.6
343.45	27.28
343.661	26.64
343.872	27.43
344.082	26.37
344.293	25.89
344.504	25.09
344.714	25.92
344.925	26.29
345.136	25.75
345.346	24.95
345.557	25.09
345.768	25.38
345.978	25.58
346.189	25.25
346.399	25.6
346.61	25.25
346.821	25.43
347.031	25.96
347.242	25.35
347.452	25.25
347.663	26.7
347.873	27.56
348.084	27.49
348.294	27.21
348.504	26.84
348.715	27.36
348.925	27.86
349.136	26.79
349.346	26.25
349.557	25.69
349.767	26.69
349.977	26.7
350.188	25.32
350.398	25.72
350.608	25.6
350.819	26.21
351.029	25.6
351.239	26.68
351.449	27.38
351.66	26.84
351.87	26.87
352.08	26.46
352.29	25.87
352.501	26.52
352.711	26.29
352.921	26.53
353.131	25.71
353.341	25.92
353.552	24.03
353.762	23.7
353.972	23.56
354.182	24.25
354.392	24.12
354.602	24.04
354.812	23.64
355.022	23.03
355.232	23.61
355.442	23.82
355.652	24.36
355.862	24.96
356.072	25.72
356.282	25.43
356.492	25.79
356.702	25.56
356.912	25.8
357.122	26.94
357.332	27.28
357.542	26.8
357.752	27.04
357.962	26.66
358.171	27.11
358.381	27.13
358.591	27.5
358.801	26.59
359.011	27.12
359.221	26.93
359.43	26.23
359.64	25.74
359.85	25.39
360.06	25.34
360.269	24.63
360.479	24.51
360.689	24.29
360.899	24.46
361.108	24.65
361.318	23.74
361.528	23.62
361.737	23.84
361.947	24.03
362.156	24.29
362.366	23.68
362.576	24
362.785	23.6
362.995	23.75
363.204	23.72
363.414	24.01
363.623	24.72
363.833	24.87
364.042	24.41
364.252	24.87
364.461	24.65
364.671	25.34
364.88	25.14
365.09	25.97
365.299	25.78
365.509	25.55
365.718	24.95
365.927	24.96
366.137	24.76
366.346	24.44
366.555	24.01
366.765	24.57
366.974	24.54
367.183	24.39
367.393	23.04
367.602	22.81
367.811	22.75
368.021	23.1
368.23	23.05
368.439	22.32
368.648	21.54
368.857	21.29
369.067	20.49
369.276	20.6
369.485	20.99
369.694	22.21
369.903	22.24
370.112	22.28
370.321	21.67
370.531	21.32
370.74	21.77
370.949	22.82
371.158	23.11
371.367	23.39
371.576	22.76
371.785	22.4
371.994	22.26
372.203	22.28
372.412	21.86
372.621	22.11
372.83	22.15
373.039	22.31
373.248	21.52
373.457	21.11
373.666	20.21
373.874	20.25
374.083	20.29
374.292	19.69
374.501	19.84
374.71	20.03
374.919	19.93
375.128	19.52
375.336	19.57
375.545	20.03
375.754	20.28
375.963	20.46
376.171	20.01
376.38	19.92
376.589	19.54
376.798	18.52
377.006	18.57
377.215	18.67
377.424	18.9
377.632	18.03
377.841	17.93
378.05	17.52
378.258	17.66
378.467	17.57
378.675	17.25
378.884	17.42
379.093	17.65
379.301	17.76
379.51	17.3
379.718	17.17
379.927	17.75
380.135	17.48
380.344	17
380.552	16.82
380.761	16.96
380.969	17.15
381.177	16.84
381.386	17.67
381.594	17.32
381.803	17.14
382.011	17.15
382.219	16.9
382.428	16.67
382.636	17.11
382.845	16.49
383.053	16.65
383.261	16.58
383.469	16.79
383.678	15.87
383.886	15.87
384.094	16.47
384.302	16.36
384.511	16.29
384.719	16.82
384.927	16.74
385.135	17.39
385.343	17.37
385.552	17.68
385.76	17.23
385.968	17.16
386.176	16.58
386.384	15.83
386.592	15.74
386.8	16.04
387.008	15.52
387.216	15.45
387.424	15.15
387.633	14.9
387.841	14.6
388.049	15.08
388.257	15.38
388.465	15.35
388.672	15.84
388.88	15.56
389.088	14.8
389.296	14.62
389.504	14.44
389.712	14.77
389.92	14.64
390.128	14.48
390.336	13.95
390.544	13.77
390.751	13.83
390.959	13.57
391.167	13.54
391.375	14.06
391.583	14.17
391.79	14.19
391.998	14.04
392.206	14.24
392.414	13.85
392.621	13.92
392.829	13.66
393.037	13.79
393.244	13.65
393.452	13.83
393.66	13.64
393.867	13.57
394.075	13.26
394.283	13.08
394.49	12.58
394.698	12.83
394.905	12.82
395.113	13.02
395.32	12.78
395.528	12.74
395.735	12.35
395.943	12.25
396.15	12.02
396.358	11.94
396.565	11.83
396.773	12.06
396.98	12.17
397.188	11.96
397.395	11.81
397.602	11.9
397.81	11.9
398.017	11.99
398.225	12.42
398.432	12.33
398.639	12.35
398.847	12.35
399.054	12.31
399.261	12.13
399.468	12.01
399.676	12.12
399.883	12.06
400.09	12.21
400.297	12.2
400.505	11.5
400.712	11.72
400.919	12.11
401.126	11.83
401.333	11.72
401.54	11.6
401.748	11.85
401.955	11.67
402.162	11.55
402.369	11.47
402.576	11.48
402.783	11.29
402.99	11.34
403.197	10.5
403.404	10.66
403.611	10.63
403.818	10.64
404.025	10.64
404.232	10.57
404.439	10.54
404.646	10.48
404.853	10.27
405.06	10.41
405.267	10.2
405.474	10.65
405.681	10.83
405.887	10.77
406.094	10.8
406.301	10.75
406.508	11.06
406.715	11.41
406.922	11.36
407.128	11.56
407.335	11.49
407.542	11.47
407.749	11.58
407.955	11.3
408.162	11.52
408.369	11.41
408.575	11.3
408.782	11.12
408.989	10.59
409.195	10.25
409.402	10.34
409.609	10.24
409.815	10.31
410.022	10.21
410.228	10.23
410.435	10.24
410.642	10.46
410.848	10.16
411.055	10.03
411.261	10.24
411.468	10.83
411.674	10.68
411.881	10.8
412.087	10.96
412.294	10.98
412.5	11.1
412.706	10.97
412.913	10.69
413.119	10.96
413.326	10.98
413.532	10.8
413.738	10.44
413.945	9.95
414.151	10.18
414.357	9.85
414.564	9.95
414.77	9.76
414.976	9.77
415.182	9.94
415.389	9.91
415.595	9.5
415.801	9.53
416.007	9.52
416.214	9.62
416.42	9.62
416.626	9.33
416.832	9.29
417.038	9.27
417.244	9.17
417.45	9.04
417.657	9.07
417.863	9.1
418.069	9.16
418.275	9.09
418.481	9.19
418.687	9.06
418.893	9.23
419.099	9.17
419.305	8.95
419.511	9.12
419.717	9.01
419.923	8.85
420.129	8.94
420.335	8.92
420.541	8.91
420.746	8.89
420.952	8.89
421.158	9.03
421.364	8.93
421.57	9.08
421.776	8.87
421.982	8.99
422.187	8.93
422.393	8.81
422.599	8.84
422.805	8.83
423.01	8.87
423.216	8.81
423.422	8.78
423.628	8.77
423.833	8.54
424.039	8.54
424.245	8.5
424.45	8.68
424.656	8.82
424.862	8.73
425.067	8.6
425.273	8.58
425.478	8.61
425.684	8.52
425.889	8.66
426.095	8.87
426.301	8.88
426.506	8.79
426.712	8.59
426.917	8.57
427.123	8.58
427.328	8.56
427.533	8.6
427.739	8.65
427.944	8.65
428.15	8.45
428.355	8.57
428.561	8.73
428.766	8.73
428.971	8.75
429.177	8.59
429.382	8.71
429.587	8.88
429.793	8.72
429.998	8.72
430.203	8.68
430.408	8.85
430.614	8.7
430.819	8.47
431.024	8.37
431.229	8.66
431.434	8.73
431.64	8.6
431.845	8.62
432.05	8.78
432.255	8.5
432.46	8.61
432.665	8.35
432.87	8.33
433.076	8.28
433.281	8.46
433.486	8.28
433.691	8.24
433.896	8.19
434.101	8.03
434.306	8.11
434.511	8.35
434.716	8.26
434.921	8.5
435.126	8.58
435.331	8.67
435.535	8.58
435.74	8.65
435.945	8.77
436.15	8.82
436.355	9.12
436.56	8.97
436.765	9.03
436.97	9.06
437.174	8.98
437.379	8.95
437.584	9.03
437.789	9.08
437.993	8.98
438.198	8.88
438.403	8.94
438.608	8.86
438.812	8.81
439.017	8.48
439.222	8.39
439.426	8.37
439.631	8.21
439.836	8.07
440.04	8.12
440.245	8.14
440.45	8.21
440.654	8.11
440.859	7.9
441.063	7.92
441.268	8.02
441.472	8.06
441.677	7.95
441.881	7.88
442.086	7.99
442.29	7.78
442.495	7.7
442.699	7.62
442.904	7.51
443.108	7.82
443.312	7.85
443.517	7.95
443.721	7.96
443.925	7.96
444.13	8.19
444.334	8.04
444.538	8.17
444.743	8.18
444.947	8.09
445.151	8.25
445.356	8.09
445.56	8.13
445.764	7.94
445.968	7.94
446.173	7.79
446.377	7.7
446.581	7.72
446.785	7.56
446.989	7.64
447.193	7.64
447.398	7.58
447.602	7.48
447.806	7.44
448.01	7.52
448.214	7.4
448.418	7.34
448.622	7.43
448.826	7.52
449.03	7.62
449.234	7.64
449.438	7.78
449.642	7.67
449.846	7.78
450.05	7.74
450.254	7.71
450.458	7.59
450.662	7.94
450.866	7.84
451.069	7.67
451.273	7.84
451.477	7.57
451.681	7.7
451.885	7.63
452.089	7.84
452.292	7.61
452.496	7.69
452.7	7.98
452.904	7.81
453.107	7.81
453.311	7.73
453.515	7.52
453.719	7.73
453.922	7.5
454.126	7.84
454.33	7.61
454.533	7.57
454.737	7.59
454.94	7.37
455.144	7.64
455.348	7.54
455.551	7.7
455.755	7.82
455.958	7.7
456.162	7.76
456.365	7.67
456.569	7.62
456.772	7.77
456.976	7.81
457.179	8.03
457.383	7.93
457.586	8.02
457.79	8.03
457.993	7.87
458.196	7.82
458.4	7.8
458.603	7.69
458.807	7.74
459.01	7.79
459.213	7.62
459.417	7.59
459.62	7.45
459.823	7.44
460.026	7.43
460.23	7.48
460.433	7.5
460.636	7.51
460.839	7.48
461.042	7.35
461.246	7.4
461.449	7.55
461.652	7.5
461.855	7.74
462.058	7.76
462.261	7.85
462.464	7.75
462.668	7.78
462.871	7.82
463.074	7.7
463.277	7.7
463.48	7.62
463.683	7.67
463.886	7.55
464.089	7.53
464.292	7.42
464.495	7.31
464.698	7.68
464.901	7.81
465.104	7.66
465.306	7.62
465.509	7.79
465.712	7.99
465.915	7.92
466.118	7.79
466.321	7.66
466.524	7.53
466.726	7.62
466.929	7.36
467.132	7.19
467.335	7.25
467.538	7.29
467.74	7.31
467.943	7.14
468.146	7.09
468.348	7.23
468.551	7.32
468.754	7.49
468.956	7.47
469.159	7.36
469.362	7.5
469.564	7.47
469.767	7.67
469.969	7.7
470.172	7.68
470.375	7.8
470.577	7.97
470.78	7.78
470.982	7.7
471.185	7.62
471.387	7.82
471.59	7.68
471.792	7.66
471.995	7.8
472.197	7.88
472.399	7.89
472.602	7.79
472.804	7.69
473.007	7.85
473.209	7.95
473.411	7.9
473.614	8.02
473.816	8.1
474.018	8.06
474.22	7.98
474.423	7.87
474.625	7.91
474.827	7.95
475.03	8.05
475.232	8.02
475.434	8.09
475.636	8.07
475.838	7.93
476.04	7.84
476.243	8
476.445	7.84
476.647	7.85
476.849	7.9
477.051	7.82
477.253	7.97
477.455	7.83
477.657	7.73
477.859	7.69
478.061	7.64
478.263	7.67
478.465	7.45
478.667	7.49
478.869	7.33
479.071	7.37
479.273	7.3
479.475	7.07
479.677	7.12
479.879	7.01
480.081	7
480.283	7.08
480.485	7.01
480.686	7.27
480.888	7.26
481.09	7.3
481.292	7.2
481.494	7.33
481.695	7.2
481.897	7.2
482.099	7.31
482.301	7.34
482.502	7.28
482.704	7.36
482.906	7.2
483.107	7.17
483.309	7.1
483.511	7.09
483.712	7.04
483.914	7.04
484.115	6.99
484.317	6.99
484.519	6.99
484.72	6.95
484.922	6.89
485.123	6.87
485.325	6.92
485.526	6.95
485.728	6.98
485.929	6.99
486.131	7.04
486.332	7.03
486.534	6.97
486.735	6.98
486.936	7.11
487.138	7.15
487.339	7.23
487.541	7.15
487.742	7.27
487.943	7.17
488.144	7.17
488.346	7.12
488.547	7.23
488.748	7.29
488.95	7.32
489.151	7.28
489.352	7.27
489.553	7.31
489.755	7.39
489.956	7.23
490.157	7.27
490.358	7.29
490.559	7.26
490.76	7.26
490.961	7.14
491.163	7.19
491.364	7.13
491.565	7.11
491.766	7.08
491.967	7.1
492.168	7.16
492.369	7.16
492.57	7.16
492.771	7.27
492.972	7.25
493.173	7.4
493.374	7.41
493.575	7.54
493.776	7.58
493.976	7.56
494.177	7.52
494.378	7.57
494.579	7.86
494.78	7.88
494.981	7.88
495.182	7.94
495.382	7.97
495.583	7.93
495.784	7.9
495.985	8.08
496.185	8.11
496.386	8.26
496.587	8.25
496.788	8.09
496.988	8.08
497.189	7.99
497.39	7.98
497.59	7.99
497.791	7.87
497.992	7.87
498.192	7.79
498.393	7.81
498.593	7.83
498.794	7.83
498.994	7.94
499.195	8.06
499.395	8.21
499.596	8.38
499.796	8.26
499.997	8.59
500.197	8.57
500.398	8.52
500.598	8.32
500.799	8.29
500.999	8.24
501.199	8.06
501.4	8.21
501.6	8.17
501.801	7.99
502.001	8.24
502.201	8.06
502.402	8.16
502.602	8.2
502.802	8.54
503.002	8.63
503.203	8.76
503.403	8.87
503.603	8.75
503.803	8.92
504.003	8.88
504.204	8.86
504.404	8.98
504.604	9.01
504.804	9.36
505.004	9.22
505.204	9.12
505.404	9.01
505.604	9.05
505.804	9.04
506.005	8.95
506.205	9.01
506.405	9.16
506.605	9.23
506.805	9.2
507.005	8.95
507.204	9.09
507.404	9.1
507.604	9.33
507.804	9.33
508.004	9.35
508.204	9.36
508.404	9.53
508.604	9.35
508.804	9.3
509.003	9.32
509.203	9.36
509.403	9.39
509.603	9.55
509.803	9.61
510.002	9.78
510.202	9.9
510.402	10.1
510.602	10.07
510.801	10.25
511.001	10.31
511.201	10.37
511.4	10.45
511.6	10.57
511.8	10.52
511.999	10.62
512.199	10.51
512.398	10.55
512.598	10.55
512.797	10.74
512.997	10.76
513.197	10.79
513.396	10.88
513.596	10.99
513.795	11.09
513.994	11.1
514.194	11.1
514.393	11.16
514.593	11.19
514.792	11.29
514.992	11.41
515.191	11.34
515.39	11.37
515.59	11.52
515.789	11.58
515.988	11.64
516.188	11.92
516.387	11.89
516.586	12.23
516.786	12.32
516.985	12.31
517.184	12.34
517.383	12.51
517.582	12.69
517.782	12.58
517.981	12.62
518.18	12.68
518.379	12.71
518.578	12.81
518.777	12.76
518.976	12.87
519.176	12.95
519.375	12.92
519.574	12.94
519.773	12.94
519.972	13.22
520.171	13.35
520.37	13.36
520.569	13.46
520.768	13.65
520.967	13.72
521.166	13.88
521.365	14.03
521.564	14.19
521.762	14.42
521.961	14.63
522.16	14.6
522.359	14.62
522.558	14.85
522.757	14.89
522.956	14.86
523.154	15.01
523.353	15.02
523.552	15.04
523.751	15.04
523.949	15.13
524.148	15.28
524.347	15.49
524.546	15.55
524.744	15.52
524.943	15.65
525.142	15.66
525.34	15.78
525.539	15.73
525.737	15.92
525.936	16.03
526.135	16.09
526.333	16.11
526.532	16.03
526.73	16.05
526.929	16.19
527.127	16.21
527.326	16.33
527.524	16.39
527.723	16.56
527.921	16.55
528.12	16.62
528.318	16.65
528.516	16.7
528.715	16.77
528.913	16.88
529.112	16.95
529.31	16.99
529.508	17.06
529.707	17.08
529.905	17.15
530.103	17.21
530.301	17.25
530.5	17.32
530.698	17.41
530.896	17.62
531.094	17.79
531.293	17.82
531.491	18.06
531.689	18.12
531.887	18.29
532.085	18.31
532.283	18.41
532.481	18.57
532.68	18.75
532.878	18.78
533.076	18.78
533.274	18.71
533.472	18.76
533.67	18.76
533.868	18.87
534.066	18.86
534.264	18.94
534.462	18.94
534.66	19.02
534.858	19
535.056	19.16
535.253	19.13
535.451	19.24
535.649	19.37
535.847	19.48
536.045	19.55
536.243	19.76
536.441	19.92
536.638	20.06
536.836	20.14
537.034	20.28
537.232	20.28
537.43	20.38
537.627	20.53
537.825	20.68
538.023	20.69
538.22	20.83
538.418	20.84
538.616	20.9
538.813	21.13
539.011	21.27
539.209	21.37
539.406	21.45
539.604	21.73
539.801	21.82
539.999	21.81
540.196	21.94
540.394	21.96
540.591	22.03
540.789	22.01
540.986	21.97
541.184	22.05
541.381	22.07
541.579	22.16
541.776	22.17
541.974	22.2
542.171	22.3
542.368	22.33
542.566	22.36
542.763	22.36
542.96	22.44
543.158	22.6
543.355	22.62
543.552	22.73
543.75	22.73
543.947	22.75
544.144	22.83
544.341	22.88
544.539	22.95
544.736	23.09
544.933	23.27
545.13	23.43
545.327	23.4
545.524	23.41
545.722	23.43
545.919	23.54
546.116	23.79
546.313	23.86
546.51	23.98
546.707	24.06
546.904	24.13
547.101	24.19
547.298	24.24
547.495	24.3
547.692	24.37
547.889	24.38
548.086	24.54
548.283	24.64
548.48	24.76
548.677	24.89
548.874	25.07
549.07	25.11
549.267	25.24
549.464	25.15
549.661	25.36
549.858	25.6
550.055	25.95
550.251	26.13
550.448	25.98
550.645	25.92
550.842	25.9
551.038	25.85
551.235	25.95
551.432	26.18
551.628	26.35
551.825	26.41
552.022	26.51
552.218	26.41
552.415	26.39
552.612	26.42
552.808	26.8
553.005	26.84
553.201	26.73
553.398	26.94
553.594	27
553.791	27.42
553.987	27.43
554.184	27.37
554.38	27.38
554.577	27.43
554.773	27.55
554.97	27.35
555.166	27.48
555.362	27.82
555.559	27.91
555.755	27.93
555.952	27.69
556.148	28.08
556.344	28.1
556.541	28.4
556.737	28.41
556.933	28.79
557.129	28.89
557.326	28.85
557.522	28.85
557.718	29.02
557.914	29.02
558.11	29.22
558.307	29.03
558.503	29.38
558.699	29.39
558.895	29.63
559.091	29.51
559.287	30.05
559.483	30.21
559.679	30.45
559.876	30.25
560.072	30.18
560.268	30.32
560.464	30.39
560.66	30.31
560.856	30.46
561.052	30.45
561.247	30.47
561.443	30.23
561.639	30.38
561.835	30.47
562.031	30.49
562.227	30.67
562.423	30.66
562.619	30.74
562.815	31.02
563.01	31.39
563.206	31.38
563.402	31.44
563.598	31.49
563.793	31.62
563.989	31.5
564.185	31.59
564.381	31.64
564.576	31.76
564.772	31.41
564.968	31.17
565.163	30.96
565.359	31.05
565.555	31.22
565.75	31.4
565.946	31.2
566.141	31.24
566.337	31.3
566.532	31.32
566.728	31.24
566.923	31.36
567.119	31.56
567.314	31.51
567.51	31.55
567.705	31.58
567.901	31.49
568.096	31.62
568.292	31.83
568.487	31.91
568.682	32.14
568.878	32.29
569.073	32.52
569.268	32.49
569.464	32.75
569.659	32.91
569.854	32.76
570.05	32.64
570.245	32.79
570.44	32.76
570.635	32.83
570.831	32.73
571.026	32.69
571.221	32.95
571.416	33.06
571.611	32.72
571.806	32.73
572.002	33.06
572.197	33.12
572.392	33
572.587	32.99
572.782	33.09
572.977	33.12
573.172	33.14
573.367	33
573.562	33.19
573.757	33.46
573.952	33.24
574.147	33.11
574.342	33.24
574.537	33.38
574.732	33.37
574.927	33.38
575.121	33.48
575.316	33.65
575.511	33.66
575.706	33.54
575.901	33.6
576.096	34.09
576.29	34.01
576.485	34.06
576.68	34.15
576.875	34.22
577.069	34.08
577.264	34.06
577.459	34.16
577.654	34.48
577.848	34.63
578.043	34.66
578.238	34.59
578.432	34.8
578.627	34.74
578.821	35
579.016	35.24
579.21	35.58
579.405	35.73
579.6	35.59
579.794	35.61
579.989	35.54
580.183	35.6
580.378	35.55
580.572	35.86
580.766	36.09
580.961	35.82
581.155	35.56
581.35	35.47
581.544	35.38
581.738	35.71
581.933	35.57
582.127	35.75
582.321	35.94
582.516	36.02
582.71	35.9
582.904	35.93
583.099	35.97
583.293	36.15
583.487	36.3
583.681	36.59
583.875	36.4
584.07	36.26
584.264	36.21
584.458	35.89
584.652	35.72
584.846	35.84
585.04	36.05
585.234	36.23
585.428	36.44
585.623	36.42
585.817	36.2
586.011	36.04
586.205	36.36
586.399	36.6
586.593	36.81
586.787	37.17
586.981	37.02
587.174	37.06
587.368	37.08
587.562	37.15
587.756	37.17
587.95	37.19
588.144	37.49
588.338	37.25
588.532	36.8
588.725	36.81
588.919	36.62
589.113	36.63
589.307	36.66
589.501	36.66
589.694	36.83
589.888	36.91
590.082	36.85
590.275	36.77
590.469	36.86
590.663	37.1
590.856	36.92
591.05	37.25
591.244	37
591.437	36.84
591.631	36.69
591.824	36.28
592.018	36.15
592.212	36.41
592.405	36.64
592.599	36.69
592.792	36.83
592.986	37.05
593.179	36.77
593.372	37.15
593.566	36.93
593.759	37.27
593.953	37.29
594.146	37.44
594.339	37.56
594.533	37.62
594.726	37.5
594.92	37.52
595.113	37.51
595.306	37.31
595.499	37.14
595.693	37.47
595.886	37.45
596.079	37.79
596.272	37.98
596.466	37.96
596.659	37.77
596.852	37.97
597.045	37.9
597.238	37.91
597.431	38.31
597.624	38.49
597.818	38.29
598.011	38.24
598.204	38.08
598.397	37.93
598.59	37.89
598.783	37.93
598.976	37.88
599.169	37.81
599.362	37.76
599.555	37.69
599.748	37.56
599.941	37.81
600.134	37.87
600.326	37.73
600.519	37.8
600.712	38.04
600.905	38.14
601.098	38.22
601.291	38.33
601.483	38.38
601.676	38.24
601.869	38.41
602.062	38.22
602.255	38.12
602.447	38.08
602.64	37.9
602.833	37.57
603.025	37.56
603.218	37.56
603.411	37.55
603.603	37.63
603.796	37.74
603.989	37.54
604.181	37.69
604.374	37.85
604.566	38.09
604.759	38.15
604.951	38.15
605.144	38.12
605.336	38.21
605.529	38.3
605.721	38.16
605.914	37.99
606.106	38.06
606.299	38.09
606.491	37.97
606.683	38.07
606.876	38.21
607.068	38.27
607.26	38.33
607.453	38.14
607.645	38.06
607.837	38.42
608.03	38.8
608.222	38.79
608.414	38.71
608.606	38.61
608.799	38.69
608.991	38.74
609.183	38.94
609.375	39.29
609.567	39.58
609.759	39.94
609.952	39.96
610.144	39.87
610.336	40.33
610.528	40.57
610.72	40.91
610.912	41.22
611.104	41.54
611.296	41.56
611.488	41.66
611.68	42.21
611.872	42.32
612.064	42.84
612.256	42.92
612.448	42.97
612.64	43.14
612.832	43.33
613.023	43.03
613.215	43.01
613.407	43.18
613.599	43.03
613.791	42.53
613.983	42.23
614.174	41.84
614.366	41.85
614.558	41.72
614.75	41.91
614.941	41.81
615.133	41.67
615.325	41.52
615.516	41.49
615.708	41.54
615.9	41.48
616.091	41.49
616.283	41.17
616.475	40.92
616.666	40.78
616.858	40.66
617.049	40.46
617.241	40.67
617.432	40.47
617.624	40.54
617.815	40.5
618.007	40.4
618.198	40.7
618.39	40.88
618.581	41.07
618.773	41
618.964	40.61
619.155	40.77
619.347	40.47
619.538	40.61
619.729	40.39
619.921	40.43
620.112	40.57
620.303	40.14
620.494	40.15
620.686	40.04
620.877	40.38
621.068	40.16
621.259	39.78
621.451	40.06
621.642	39.97
621.833	40.24
622.024	40.16
622.215	40.05
622.406	40.11
622.597	39.91
622.788	40.26
622.98	40
623.171	40.33
623.362	40.75
623.553	41.01
623.744	41.03
623.935	40.81
624.126	40.5
624.317	40.57
624.508	40.82
624.698	40.94
624.889	40.74
625.08	41.05
625.271	40.99
625.462	40.8
625.653	40.3
625.844	40.03
626.034	39.72
626.225	40.18
626.416	39.86
626.607	39.71
626.798	39.7
626.988	39.6
627.179	39.27
627.37	39.1
627.56	39.22
627.751	39.49
627.942	39.79
628.132	40.07
628.323	39.71
628.514	39.91
628.704	39.89
628.895	39.94
629.085	40.06
629.276	39.89
629.466	40.29
629.657	40.22
629.847	39.96
630.038	40.06
630.228	40.24
630.419	40.62
630.609	40.76
630.8	40.48
630.99	40.61
631.181	41.12
631.371	41.41
631.561	40.93
631.752	41.17
631.942	41.3
632.132	41.07
632.323	40.91
632.513	40.5
632.703	40.21
632.893	40.7
633.084	40.47
633.274	40.1
633.464	39.78
633.654	40.13
633.844	39.96
634.034	39.68
634.225	39.76
634.415	39.62
634.605	39.9
634.795	39.91
634.985	39.65
635.175	39.79
635.365	39.83
635.555	40.08
635.745	39.73
635.935	39.74
636.125	39.82
636.315	40.08
636.505	40.11
636.695	39.91
636.885	40.14
637.075	40.32
637.265	40.32
637.455	40.5
637.644	40.69
637.834	41.16
638.024	41.16
638.214	41.36
638.404	40.88
638.593	40.99
638.783	40.97
638.973	40.83
639.163	40.58
639.352	40.45
639.542	39.9
639.732	40.07
639.921	40.08
640.111	39.95
640.301	39.85
640.49	40.21
640.68	40.34
640.87	40.6
641.059	40.88
641.249	41.3
641.438	41.3
641.628	41.97
641.817	41.97
642.007	42.03
642.196	42.35
642.386	42.49
642.575	42.54
642.764	42.44
642.954	42.23
643.143	42.2
643.333	42.19
643.522	42.21
643.711	41.57
643.901	41.37
644.09	41.26
644.279	41.45
644.469	41.41
644.658	41.18
644.847	41.24
645.036	41.39
645.226	41.33
645.415	41.12
645.604	40.95
645.793	41.04
645.982	41.02
646.171	40.69
646.361	40.03
646.55	40.37
646.739	40.51
646.928	40.37
647.117	40.23
647.306	39.98
647.495	39.83
647.684	40.2
647.873	40.06
648.062	39.94
648.251	40.08
648.44	40.18
648.629	39.62
648.818	39.56
649.007	39.4
649.196	39.9
649.384	40.05
649.573	40.5
649.762	40.29
649.951	40.61
650.14	40.78
650.328	40.87
650.517	40.82
650.706	41.32
650.895	41
651.083	41.6
651.272	40.89
651.461	40.8
651.65	40.64
651.838	40.51
652.027	40.47
652.216	40.5
652.404	40.65
652.593	41.23
652.781	40.91
652.97	41.24
653.158	40.48
653.347	40.86
653.535	41.12
653.724	41.05
653.912	41.44
654.101	41.31
654.289	41.12
654.478	41.28
654.666	40.69
654.855	40.86
655.043	40.87
655.231	41.5
655.42	41.75
655.608	41.93
655.796	42.34
655.985	42.36
656.173	41.89
656.361	42.01
656.55	41.52
656.738	41.82
656.926	41.6
657.114	41.47
657.302	41.36
657.491	40.72
657.679	40.33
657.867	39.95
658.055	39.68
658.243	40.19
658.431	40.17
658.619	40.44
658.807	40.6
658.996	40.47
659.184	40.82
659.372	40.65
659.56	40.88
659.748	40.87
659.936	41
660.124	41.06
660.311	40.88
660.499	40.83
660.687	40.65
660.875	40.78
661.063	40.84
661.251	40.25
661.439	40.52
661.627	40.97
661.814	40.77
662.002	40.53
662.19	40.84
662.378	40.75
662.565	41.49
662.753	41.68
662.941	41.56
663.129	41.49
663.316	42.08
663.504	42.16
663.692	41.3
663.879	41.49
664.067	41.49
664.254	41.23
664.442	41.54
664.63	41
664.817	41.4
665.005	40.96
665.192	41.44
665.38	41.14
665.567	40.81
665.755	41.38
665.942	41.58
666.13	42.01
666.317	41.74
666.504	42.04
666.692	42.15
666.879	41.44
667.067	41.72
667.254	41.79
667.441	41.82
667.629	41.85
667.816	41.6
668.003	41.83
668.19	41.68
668.378	41.99
668.565	41.69
668.752	41.14
668.939	41.47
669.127	41.25
669.314	40.87
669.501	41.03
669.688	41.67
669.875	41.73
670.062	41.76
670.249	41.9
670.436	41.75
670.623	42.38
670.81	42.47
670.997	42.38
671.184	42.33
671.371	42.88
671.558	42.82
671.745	42.44
671.932	42.05
672.119	41.76
672.306	41.65
672.493	41.83
672.68	41.76
672.867	42.25
673.054	42.44
673.24	42.5
673.427	42.24
673.614	42.29
673.801	41.97
673.988	42.5
674.174	42.96
674.361	42.65
674.548	42.66
674.734	41.94
674.921	41.22
675.108	41.14
675.294	41.11
675.481	41.06
675.668	40.75
675.854	40.34
676.041	40.5
676.227	39.75
676.414	39.63
676.601	39.81
676.787	40.05
676.974	40.08
677.16	40.24
677.347	40.78
677.533	40.75
677.719	41.29
677.906	41.36
678.092	41.64
678.279	42.09
678.465	42.69
678.651	42.4
678.838	42.03
679.024	42.37
679.21	41.67
679.397	41.17
679.583	41.22
679.769	40.68
679.955	40.72
680.142	40.02
680.328	40.16
680.514	39.81
680.7	39.88
680.886	39.62
681.073	39.62
681.259	40.21
681.445	40.41
681.631	40.32
681.817	40.64
682.003	41.14
682.189	41.26
682.375	41.03
682.561	41.23
682.747	40.76
682.933	40.84
683.119	40.98
683.305	40.57
683.491	40.88
683.677	41.21
683.863	41.41
684.049	41.32
684.235	41.41
684.42	41.44
684.606	41.07
684.792	41.69
684.978	42.17
685.164	41.89
685.349	42.05
685.535	41.58
685.721	41.18
685.907	40.55
686.092	40.54
686.278	40.4
686.464	40.37
686.649	40.9
686.835	40.9
687.021	41.17
687.206	41.05
687.392	41.01
687.577	41.15
687.763	41.51
687.948	42.02
688.134	41.95
688.319	42.55
688.505	42.77
688.69	42.71
688.876	42.74
689.061	42.61
689.247	43.16
689.432	43.18
689.618	42.99
689.803	42.68
689.988	42.72
690.174	43.11
690.359	42.48
690.544	42.41
690.73	42.58
690.915	42.3
691.1	41.76
691.285	41.67
691.471	41.58
691.656	41.77
691.841	41.44
692.026	41.31
692.211	40.54
692.396	40.83
692.582	41.5
692.767	41.17
692.952	41.82
693.137	42.37
693.322	41.89
693.507	42.09
693.692	41.87
693.877	41.87
694.062	42.07
694.247	42.86
694.432	42.7
694.617	42.19
694.802	42.53
694.987	42.17
695.172	41.86
695.357	41.99
695.541	41.99
695.726	42.47
695.911	42.76
696.096	42.58
696.281	42.66
696.466	43.5
696.65	43.34
696.835	42.84
697.02	42.22
697.204	42.5
697.389	42.68
697.574	42.81
697.759	42.5
697.943	42.44
698.128	42.59
698.312	42.63
698.497	41.9
698.682	41.89
698.866	41.78
699.051	42.04
699.235	42.06
699.42	42.21
699.604	41.95
699.789	41.88
699.973	41.79
700.158	41.48
700.342	40.86
700.527	40.92
700.711	41.05
700.895	41.29
701.08	41.4
701.264	41.68
701.448	40.81
701.633	40.72
701.817	41.29
702.001	42.12
702.186	42.41
702.37	42.7
702.554	43.23
702.738	43.1
702.923	42.46
703.107	41.95
703.291	41.43
703.475	42.38
703.659	42.76
703.843	42.4
704.027	41.5
704.212	40.76
704.396	41.08
704.58	41.04
704.764	40.63
704.948	41.48
705.132	42.18
705.316	43.16
705.5	42.81
705.684	42.85
705.868	43.19
706.052	43.68
706.235	44.69
706.419	44.4
706.603	44.03
706.787	43.56
706.971	43.86
707.155	43.42
707.339	42.27
707.522	42.74
707.706	42.69
707.89	41.95
708.074	41.89
708.257	41.44
708.441	41.36
708.625	41.48
708.808	42.36
708.992	41.88
709.176	42.37
709.359	42.22
709.543	41.82
709.727	42.02
709.91	41.95
710.094	42.15
710.277	42.78
710.461	42.71
710.644	42.84
710.828	43.36
711.011	42.86
711.195	42.88
711.378	43.93
711.562	43.81
711.745	43.6
711.928	43.93
712.112	43.37
712.295	42.79
712.478	43.13
712.662	43.47
712.845	42.68
713.028	42.97
713.212	43.54
713.395	42.58
713.578	42.73
713.761	43.07
713.945	43.52
714.128	44.28
714.311	43.9
714.494	43.64
714.677	43.1
714.86	43.28
715.043	43.46
715.227	43.01
715.41	43.63
715.593	43.84
715.776	43.81
715.959	42.41
716.142	41.67
716.325	42.13
716.508	41.54
716.691	41.96
716.874	41.71
717.057	41.19
717.239	40.43
717.422	40.26
717.605	39.69
717.788	39.41
717.971	41.37
718.154	41.55
718.337	41.9
718.519	42.44
718.702	42.32
718.885	42.18
719.068	42.75
719.25	43.19
719.433	43.12
719.616	43.52
719.798	43.87
719.981	42.8
720.164	43.39
720.346	43.51
720.529	44.51
720.712	43.72
720.894	44.3
721.077	44.48
721.259	44.43
721.442	44.92
721.624	45.23
721.807	44.72
721.989	44.57
722.172	44.09
722.354	43.74
722.537	43.77
722.719	44.85
722.901	45.55
723.084	45.02
723.266	45.5
723.448	45.85
723.631	44.8
723.813	44.86
723.995	45.08
724.178	45.33
724.36	44.42
724.542	42.85
724.724	43.02
724.907	42.06
725.089	43.14
725.271	43.35
725.453	43.02
725.635	43.77
725.817	44.09
725.999	44.67
726.181	45.05
726.364	46.37
726.546	47.02
726.728	44.95
726.91	44.76
727.092	43.97
727.274	44.51
727.456	43.51
727.638	42.74
727.819	42.83
728.001	42.11
728.183	41.15
728.365	40.53
728.547	40.29
728.729	42.21
728.911	42.86
729.093	42.8
729.274	41.31
729.456	42.17
729.638	43.63
729.82	43.54
730.001	43.39
730.183	44.54
730.365	44.98
730.546	44.39
730.728	43.3
730.91	42.14
731.091	42.5
731.273	43.09
731.455	43.22
731.636	42.97
731.818	42.72
731.999	42.67
732.181	41.68
732.362	41.6
732.544	43.11
732.725	43.4
732.907	44.49
733.088	44.54
733.27	44.57
733.451	43.58
733.633	43.85
733.814	43.75
733.995	43.91
734.177	44.46
734.358	44.62
734.539	43.85
734.721	44.11
734.902	43.53
735.083	44.09
735.264	42.9
735.446	44.24
735.627	43.36
735.808	42.77
735.989	43.94
736.17	43.87
736.351	43.76
736.533	44.73
736.714	44.55
736.895	44.71
737.076	44.26
737.257	45.55
737.438	44.65
737.619	45.9
737.8	46.05
737.981	45.27
738.162	46.14
738.343	45.62
738.524	44.92
738.705	45.42
738.886	45.22
739.067	45.17
739.247	44.51
739.428	43.75
739.609	42.77
739.79	43.88
739.971	43.67
740.151	43.1
740.332	42.56
740.513	43.03
740.694	42.73
740.874	42.41
741.055	41.71
741.236	42.47
741.417	42.76
741.597	42.2
741.778	41.96
741.958	41.96
742.139	41.14
742.32	41.14
742.5	40.48
742.681	41.66
742.861	42.62
743.042	43.15
743.222	42.89
743.403	43.62
743.583	45.67
743.764	45.27
743.944	45.83
744.124	45.89
744.305	47.28
744.485	46.73
744.666	45.6
744.846	46.04
745.026	46.53
745.207	46.92
745.387	46.76
745.567	45.22
745.747	44.99
745.928	44.11
746.108	43.96
746.288	42.9
746.468	44.28
746.648	44.91
746.829	44.86
747.009	44.53
747.189	44.39
747.369	44.47
747.549	44.72
747.729	45.44
747.909	45.4
748.089	45.74
748.269	46.15
748.449	45.7
748.629	44.13
748.809	43.91
748.989	43.83
749.169	43.39
749.349	44.23
749.529	43.24
749.709	43.84
749.889	44.33
750.068	44.24
750.248	45.29
750.428	45.96
750.608	46.57
750.788	45.82
750.967	45.59
751.147	45.4
751.327	45.6
751.507	46.43
751.686	44.7
751.866	45.62
752.046	46.11
752.225	44.68
752.405	43.29
752.585	43.56
752.764	44.89
752.944	44.25
753.123	45.31
753.303	44.16
753.482	44.18
753.662	44.33
753.841	42.6
754.021	41.03
754.2	41.92
754.38	42.81
754.559	42.91
754.739	42.12
754.918	43.13
755.097	42.08
755.277	42.14
755.456	42.76
755.635	44.16
755.815	45.45
755.994	47.73
756.173	46.04
756.352	46.28
756.532	46.87
756.711	45.88
756.89	45.95
757.069	47.2
757.248	46.42
757.427	46.42
757.607	45.76
757.786	44.63
757.965	43.42
758.144	44.24
758.323	43.84
758.502	43.32
758.681	43.24
758.86	43.04
759.039	41.83
759.218	42.71
759.397	41.96
759.576	41.13
759.755	41.51
759.934	41.23
760.113	41.77
760.291	41.83
760.47	42.51
760.649	42.86
760.828	42.24
761.007	41.46
761.186	41.48
761.364	40.61
761.543	41.13
761.722	42.22
761.901	42.24
762.079	42.76
762.258	42.91
762.437	42.12
762.615	41.59
762.794	42.69
762.972	44.74
763.151	43.52
763.33	43.5
763.508	43.34
763.687	42.74
763.865	43.68
764.044	42.93
764.222	42.04
764.401	41.79
764.579	42.6
764.758	41.49
764.936	41.11
765.114	41.8
765.293	42.28
765.471	42.8
765.65	43.04
765.828	41.99
766.006	43.08
766.184	43.56
766.363	44.3
766.541	42.94
766.719	43.63
766.898	42.9
767.076	43.16
767.254	43.51
767.432	43.84
767.61	43.31
767.788	43.73
767.967	42.22
768.145	41.54
768.323	41.93
768.501	42.44
768.679	42.39
768.857	42.2
769.035	41.57
769.213	42.92
769.391	41.81
769.569	40.77
769.747	41.83
769.925	41.7
770.103	43.32
770.281	41.52
770.459	42.58
770.636	42.31
770.814	42.53
770.992	44.35
771.17	43.22
771.348	44.08
771.525	45.99
771.703	44.53
771.881	45.5
772.059	45.58
772.236	44.72
772.414	44.45
772.592	43.78
772.769	43.45
772.947	42.32
773.125	41.93
773.302	42.5
773.48	43.12
773.657	44.09
773.835	45.15
774.013	45.01
774.19	47.21
774.368	46.08
774.545	46.79
774.723	47.6
774.9	47.68
775.077	46.56
775.255	45.17
775.432	45.15
775.61	44.11
775.787	43.19
775.964	41.74
776.142	40.08
776.319	42.24
776.496	41.97
776.674	42.66
776.851	42.74
777.028	43.74
777.205	43.86
777.382	44
777.56	45.69
777.737	48.66
777.914	50.08
778.091	51.04
778.268	50.22
778.445	51.19
778.622	50.44
778.8	49.47
778.977	49.28
779.154	51.79
779.331	51.6
779.508	49.94
779.685	47.03
779.862	47.88
780.038	47.8
780.215	50.59
780.392	50.15
780.569	49.01
780.746	51.14
780.923	51.75
781.1	47.38
781.277	45.52
781.453	45.58
781.63	45.54
781.807	46.01
781.984	46.93
782.16	45.55
782.337	46.97
782.514	47.83
782.691	47.9
782.867	45.75
783.044	49.83
783.221	51.8
783.397	52.62
783.574	52.71
783.75	52.81
783.927	54.46
784.103	53.66
784.28	52.18
784.456	51.12
784.633	50.02
784.809	53.6
784.986	49.01
785.162	47.54
785.339	45.7
785.515	45.44
785.692	43.91
785.868	43.37
786.044	44.41
786.221	45.59
786.397	49.3
786.573	49.85
786.749	48.83
786.926	51.92
787.102	52.6
787.278	55.69
787.454	57.04
787.631	56.76
787.807	55.23
787.983	55.1
788.159	54.7
788.335	52.34
788.511	51.68
788.687	50.61
788.863	51.46
789.039	50.32
789.216	48.58
789.392	47.04
789.568	45.33
789.744	44.97
789.919	44.79
790.095	43.53
790.271	44.4
790.447	46.1
790.623	46.36
790.799	45.39
790.975	46.16
791.151	47.32
791.327	47
791.502	48.59
791.678	48.53
791.854	48.72
792.03	49.17
792.205	48.42
792.381	47.22
792.557	46.02
792.733	43.83
792.908	42.86
793.084	41.25
793.259	40.45
793.435	39.16
793.611	39.22
793.786	39.37
793.962	38
794.137	37.56
794.313	36.46
794.488	38.83
794.664	41.19
794.839	41.57
795.015	42.12
795.19	41.43
795.366	42.99
795.541	42.69
795.716	40.49
795.892	42.65
796.067	44.68
796.242	46.26
796.418	45.89
796.593	44.74
796.768	44.72
796.944	45.8
797.119	47.35
797.294	48.45
797.469	50.54
797.644	51.22
797.82	51.69
797.995	51.68
798.17	50.78
798.345	49.67
798.52	51.57
798.695	52.46
798.87	48.87
799.045	48.49
799.22	45.56
799.395	45.4
799.57	45.15
799.745	43.36
799.92	43.19
800.095	43.12
800.27	42.29
800.445	40.71
800.62	40.11
800.795	41.73
800.97	45.52
801.145	45.61
801.319	41.59
801.494	40.48
801.669	44.09
801.844	43.01
802.018	44.37
802.193	45.48
802.368	46.72
802.543	49.1
802.717	51.44
802.892	48.34
803.067	51.33
803.241	52.95
803.416	53.13
803.59	53.37
803.765	53.94
803.94	52.94
804.114	53.37
804.289	52.46
804.463	50.84
804.638	47.98
804.812	48.84
804.986	46.03
805.161	48.87
805.335	51.31
805.51	48.22
805.684	47.02
805.858	47.5
806.033	45.7
806.207	44.98
806.381	46.89
806.556	47.88
806.73	46.32
806.904	48.71
807.078	47.36
807.253	48.17
807.427	49.66
807.601	48.44
807.775	47.57
807.949	51.18
808.123	50.62
808.298	48.12
808.472	47.83
808.646	47.91
808.82	48.07
808.994	47.57
809.168	43.57
809.342	43.97
809.516	45.4
809.69	45.9
809.864	44.62
810.038	44.42
810.212	44.53
810.385	46.82
810.559	46.66
810.733	43.11
810.907	44.99
811.081	45.33
811.255	46.27
811.428	45.19
811.602	45
811.776	45.79
811.95	50
812.123	53.16
812.297	51.71
812.471	53.46
812.644	55.78
812.818	51.09
812.992	56.84
813.165	55.09
813.339	56.73
813.512	58.43
813.686	55.43
813.86	55.6
814.033	53.27
814.207	51.93
814.38	49.71
814.554	52.15
814.727	54.08
814.9	53.77
815.074	54.26
815.247	52.14
815.421	47.74
815.594	49.74
815.767	47.67
815.941	44.74
816.114	47.9
816.287	48.53
816.46	46.81
816.634	46.89
816.807	48.19
816.98	46.75
817.153	48.26
817.327	51.51
817.5	48.15
817.673	49.15
817.846	51.6
818.019	51.71
818.192	51.26
818.365	48.16
818.538	49.25
818.711	44.28
818.884	43.09
819.057	42.1
819.23	40.29
819.403	43.69
819.576	42.97
819.749	45.03
819.922	42.46
820.095	44.31
820.268	45.73
820.441	45.54
820.614	46.91
820.786	46.63
820.959	47.05
821.132	46.53
821.305	43.65
821.477	42.44
821.65	40.63
821.823	40.78
821.996	40.28
822.168	40.23
822.341	39.91
822.514	39.82
822.686	39.79
822.859	39.74
823.031	39.53
823.204	39.34
823.376	39.87
823.549	39.62
823.722	39.81
823.894	39.51
824.067	39.8
824.239	39.84
824.411	39.33
824.584	39.46
824.756	38.84
824.929	38.81
825.101	38.98
825.273	38.53
825.446	38.98
825.618	38.43
825.79	39.2
825.963	38.79
826.135	38.08
826.307	37.89
826.479	38.26
826.652	38.79
826.824	39.14
826.996	39.36
827.168	39.34
827.34	38.44
827.512	38.18
827.684	37.01
827.856	36.81
828.029	37.41
828.201	37.74
828.373	37.49
828.545	38
828.717	39.39
828.889	40.11
829.061	40.32
829.232	41.63
829.404	43
829.576	43.51
829.748	44.42
829.92	46.07
830.092	46.66
830.264	47.68
830.436	46.97
830.607	45.73
830.779	45.21
830.951	46.02
831.123	46.42
831.294	46.1
831.466	45.21
831.638	45.07
831.809	43.49
831.981	43.86
832.153	43.74
832.324	43.26
832.496	42.99
832.667	48.59
832.839	49.97
833.011	47.56
833.182	48.5
833.354	47.31
833.525	46.6
833.697	44.42
833.868	42.92
834.039	42.84
834.211	45.44
834.382	46.96
834.554	41.88
834.725	39.26
834.896	38.63
835.068	39.1
835.239	40.36
835.41	40.31
835.581	40.73
835.753	43.39
835.924	42.74
836.095	41.03
836.266	39.5
836.438	40.3
836.609	41.83
836.78	43.57
836.951	42.88
837.122	42.96
837.293	42.46
837.464	43.31
837.635	43.25
837.806	43.26
837.977	45.08
838.148	48.31
838.319	47.76
838.49	47.46
838.661	45.39
838.832	51.71
839.003	51.19
839.174	54.09
839.345	60.27
839.516	57.62
839.687	56.59
839.857	50.73
840.028	46.92
840.199	48.47
840.37	50.79
840.54	58.61
840.711	48.85
840.882	54.95
841.053	53.5
841.223	48.52
841.394	48.33
841.564	57.18
841.735	64.11
841.906	59.87
842.076	59.63
842.247	53.82
842.417	48.43
842.588	52.18
842.758	46.14
842.929	49.09
843.099	53.64
843.27	51.55
843.44	46.81
843.611	43.53
843.781	54.94
843.951	58.13
844.122	62.12
844.292	58.19
844.462	62.95
844.633	68.01
844.803	65.65
844.973	63.69
845.144	66.7
845.314	60.01
845.484	62.26
845.654	54.85
845.824	54.89
845.995	55.69
846.165	66.08
846.335	64.66
846.505	61.05
846.675	62.69
846.845	64.94
847.015	70.62
847.185	78.17
847.355	71.31
847.525	69.41
847.695	79.31
847.865	90.03
848.035	80.3
848.205	67.23
848.375	62.59
848.545	63.56
848.715	60.69
848.884	59.97
849.054	55.88
849.224	60.18
849.394	68.35
849.564	64.84
849.733	62.44
849.903	58.56
850.073	63.04
850.243	71.43
850.412	71.08
850.582	64.48
850.752	58.65
850.921	50.2
851.091	56.08
851.26	62.39
851.43	55.17
851.599	58.21
851.769	60.54
851.939	59.88
852.108	43.94
852.278	50.34
852.447	63.12
852.616	75.95
852.786	83.81
852.955	79.33
853.125	59.9
853.294	64.72
853.463	57.92
853.633	66.83
853.802	69.54
853.971	94.91
854.141	93.18
854.31	93.24
854.479	69.72
854.648	86.63
854.818	91.68
854.987	102.31
855.156	98.65
855.325	95.66
855.494	91.4
855.663	78.13
855.832	74.3
856.001	60.71
856.171	57.51
856.34	75.23
856.509	77.25
856.678	86.04
856.847	78.56
857.016	78.2
857.185	85.92
857.353	86.21
857.522	95.04
857.691	71.8
857.86	77.95
858.029	78.47
858.198	77.47
858.367	76.24
858.535	64.94
858.704	77.06
858.873	85.51
859.042	80.26
859.21	77.25
859.379	71.28
859.548	81.52
859.717	87.21
859.885	87.51
860.054	85.97
860.222	72.56
860.391	75.6
860.56	77.25
860.728	70.09
860.897	72.17
861.065	71.79
861.234	78.7
861.402	71.99
861.571	73.57
861.739	75.64
861.908	76.87
862.076	86.9
862.244	78.87
862.413	72.34
862.581	79.23
862.749	81.28
862.918	77.81
863.086	75.26
863.254	81.92
863.423	85.06
863.591	60.92
863.759	53.87
863.927	35.75
864.096	36.19
864.264	40.63
864.432	43.62
864.6	39.74
864.768	37.14
864.936	32.11
865.104	43.35
865.272	47.91
865.44	65.61
865.608	69.32
865.776	76.14
865.944	83.85
866.112	87.07
866.28	75.45
866.448	74.3
866.616	89.87
866.784	90.12
866.952	86.88
867.12	89.1
867.288	89.57
867.455	96.23
867.623	111.13
867.791	104.87
867.959	113.15
868.127	131.39
868.294	113.8
868.462	97.7
868.63	113.25
868.797	106.86
868.965	83.89
869.133	70.68
869.3	70.44
869.468	74.94
869.636	65.38
869.803	67.15
869.971	63.9
870.138	61.56
870.306	54.75
870.473	59.42
870.641	49.23
870.808	53.71
870.975	59
871.143	51.1
871.31	39.92
871.478	33.08
871.645	22.55
871.812	29.76
871.98	41.18
872.147	32.05
872.314	15.23
872.482	26.69
872.649	33.77
872.816	36.44
872.983	39.34
873.15	45.56
873.318	56.18
873.485	66.94
873.652	63.86
873.819	58.54
873.986	78.79
874.153	96.07
874.32	114.16
874.487	128.88
874.654	131.37
874.821	155.44
874.988	161.8
875.155	184.5
875.322	138.44
875.489	139.51
875.656	124.07
875.823	101.15
875.99	75.6
876.157	59.79
876.324	46.38
876.49	51.09
876.657	52.82
876.824	47.84
876.991	42.39
877.157	43.26
877.324	46.37
877.491	59.03
877.658	59.48
877.824	63.57
877.991	62.59
878.157	69.32
878.324	63.78
878.491	59.22
878.657	63.12
878.824	65.52
878.99	62.82
879.157	64.86
879.323	54.7
879.49	59.3
879.656	63.72
879.823	70.14
879.989	65.2
880.156	69.73
880.322	60.73
880.488	55.09
880.655	48.78
880.821	56.47
880.987	55.99
881.154	59.9
881.32	51.83
881.486	47.36
881.652	51.28
881.819	49.09
881.985	48.73
882.151	51.72
882.317	49.89
882.483	51.74
882.649	47.87
882.816	45.98
882.982	45.18
883.148	45.92
883.314	44.24
883.48	40.45
883.646	40.6
883.812	41
883.978	41.76
884.144	42.65
884.31	43.47
884.476	42.59
884.642	41.94
884.807	41.46
884.973	40.91
885.139	40.83
885.305	42.31
885.471	41.85
885.637	40.03
885.802	38.85
885.968	39.11
886.134	38.03
886.3	38.54
886.465	37.93
886.631	38.3
886.797	41.25
886.962	43.91
887.128	46.48
887.293	51.58
887.459	49.76
887.625	50.28
887.79	49.57
887.956	43.25
888.121	44.84
888.287	50.2
888.452	51.4
888.618	44.68
888.783	41.38
