Data from CB_003_Reflection_1.txt Node
Date: Wed Nov 11 18:16:52 EST 2015
User: robert
Spectrometer: USB4E03001
Autoset integration time: false
Trigger mode: 4
Integration Time (sec): 1.000000E-1
Scans to average: 15
Electric dark correction enabled: true
Nonlinearity correction enabled: false
Boxcar width: 5
Stray light correction enabled: false
XAxis mode: Wavelengths
Stop averaging: false
Number of Pixels in Spectrum: 3648
>>>>>Begin Spectral Data<<<<<
177.566	-1.26
177.785	-100.28
178.005	-31.29
178.225	-700.66
178.445	259.31
178.665	-235.59
178.885	-56.3
179.105	322.19
179.324	227.13
179.544	-55.47
179.764	-46.35
179.984	33.56
180.204	140.06
180.423	63.85
180.643	-12.47
180.863	440.48
181.083	-523.14
181.302	127.02
181.522	-853.59
181.742	-186.19
181.961	340.82
182.181	138.98
182.401	191.87
182.621	860.81
182.84	159.78
183.06	132.56
183.279	126.6
183.499	262.38
183.719	119.31
183.938	-33.29
184.158	-522.65
184.377	1084.85
184.597	282.02
184.816	230.13
185.036	483.69
185.256	163.64
185.475	-104.46
185.695	1848.28
185.914	-82.2
186.134	18.65
186.353	44.28
186.572	160.86
186.792	95.43
187.011	82.71
187.231	96.9
187.45	80.98
187.67	100.86
187.889	626.58
188.108	253.99
188.328	572.73
188.547	-477.34
188.766	-906.73
188.986	409.3
189.205	-28559.09
189.424	630.53
189.644	3914.05
189.863	209.54
190.082	176.16
190.302	176.52
190.521	136.1
190.74	117.65
190.959	63.48
191.178	71.08
191.398	62.3
191.617	43.78
191.836	55.66
192.055	59.57
192.274	54.3
192.494	67.27
192.713	50.64
192.932	56.64
193.151	52.42
193.37	68.56
193.589	62.04
193.808	70.74
194.027	79.29
194.246	75.3
194.465	77.14
194.685	85.11
194.904	100.75
195.123	270.96
195.342	1012.33
195.561	124.14
195.78	144.8
195.999	189.32
196.218	693.58
196.436	-187.39
196.655	-319.6
196.874	315.32
197.093	290.86
197.312	47.13
197.531	68.43
197.75	-28.55
197.969	1.78
198.188	13.57
198.407	70.7
198.625	37.94
198.844	-65.87
199.063	-126.97
199.282	-103.97
199.501	-48.07
199.719	-125.47
199.938	-2048.05
200.157	236.97
200.376	284.15
200.594	456.07
200.813	-19140
201.032	1033.64
201.251	238.82
201.469	221.69
201.688	235.52
201.907	191.28
202.125	168.27
202.344	128.66
202.563	117.77
202.781	119.72
203	67.22
203.218	44.09
203.437	56.8
203.656	21.96
203.874	30.46
204.093	10.79
204.311	23.26
204.53	-12.29
204.748	-63.44
204.967	-85.38
205.185	-26.22
205.404	21.92
205.622	41.86
205.841	69.41
206.059	100.26
206.278	127.41
206.496	116.14
206.715	197.81
206.933	369.54
207.151	262.91
207.37	311.54
207.588	331.17
207.806	459.19
208.025	486.82
208.243	310.38
208.461	144.28
208.68	148.31
208.898	156.36
209.116	118.53
209.335	100
209.553	-127.47
209.771	75.03
209.989	716.09
210.208	817.36
210.426	106.84
210.644	40.01
210.862	23.53
211.081	7.25
211.299	-14.31
211.517	-210.32
211.735	-125.37
211.953	-176.78
212.171	-29.51
212.39	-204.12
212.608	-869.92
212.826	174.71
213.044	122.79
213.262	75.79
213.48	62.33
213.698	30.64
213.916	942.92
214.134	216.36
214.352	374.68
214.57	-85.9
214.788	48.09
215.006	27.99
215.224	81.76
215.442	91.78
215.66	98.07
215.878	104.09
216.096	106.57
216.314	91.27
216.532	81.28
216.75	83
216.968	87.1
217.185	101.31
217.403	139.04
217.621	111.23
217.839	90.55
218.057	-161.31
218.275	228.88
218.492	63.48
218.71	61.57
218.928	62.9
219.146	18.06
219.363	45.32
219.581	40.48
219.799	73.26
220.017	44.96
220.234	15.43
220.452	-25.3
220.67	3.08
220.887	-59.82
221.105	-17.36
221.323	-3.31
221.54	59.05
221.758	44.96
221.976	64.56
222.193	41.41
222.411	24.92
222.629	39.79
222.846	48.87
223.064	44.6
223.281	61.88
223.499	43.1
223.716	-17.15
223.934	-285.19
224.151	-567.12
224.369	-431.62
224.586	186000
224.804	-687.37
225.021	-254.04
225.239	-206.9
225.456	-193.76
225.674	-193.85
225.891	-60.43
226.108	-53.27
226.326	-28.02
226.543	-14.01
226.76	-7.55
226.978	-6.69
227.195	-12.54
227.413	-14.58
227.63	-19.44
227.847	-26.2
228.064	-22.96
228.282	-20.58
228.499	-11.03
228.716	-6.43
228.934	-5.95
229.151	-4.03
229.368	-0.57
229.585	-0.86
229.802	0.64
230.02	2.23
230.237	5.01
230.454	10.09
230.671	11.86
230.888	5.53
231.105	0.86
231.323	3.15
231.54	5.14
231.757	-0.63
231.974	-2.47
232.191	-7.73
232.408	-4.42
232.625	-3.35
232.842	-7.14
233.059	-11
233.276	-2.9
233.493	1.52
233.71	-4.6
233.927	-13.12
234.144	-7.66
234.361	-9.96
234.578	-5.61
234.795	-6.18
235.012	-11.36
235.229	-9.65
235.446	-10.46
235.663	-15.16
235.879	-5.81
236.096	-5.68
236.313	-3.19
236.53	-1.45
236.747	8.24
236.964	11.69
237.181	2.37
237.397	16.94
237.614	8.95
237.831	12.34
238.048	16.7
238.264	7.85
238.481	12.08
238.698	4.06
238.915	-6.94
239.131	-14.23
239.348	-19.25
239.565	-10.21
239.781	-20.19
239.998	-12.25
240.215	-8.74
240.431	-8.48
240.648	-4.57
240.865	-2.58
241.081	-1.05
241.298	4.71
241.514	7.59
241.731	8.21
241.947	7.05
242.164	8.59
242.38	8.79
242.597	8.67
242.814	9.17
243.03	8.06
243.246	9.04
243.463	10.17
243.679	10.62
243.896	10.22
244.112	9.62
244.329	11.93
244.545	12.62
244.762	12.49
244.978	11.75
245.194	10.35
245.411	9.96
245.627	6.41
245.843	7.23
246.06	8.07
246.276	8.52
246.492	8.89
246.709	8.89
246.925	8.02
247.141	7.02
247.357	6.86
247.574	7.78
247.79	8.19
248.006	8.71
248.222	9.11
248.439	7.93
248.655	8.35
248.871	8.75
249.087	9.43
249.303	10.19
249.519	10.64
249.736	9.55
249.952	6.67
250.168	5.14
250.384	3.71
250.6	3.11
250.816	2.37
251.032	2.23
251.248	1.84
251.464	-0.84
251.68	-0.46
251.896	1.36
252.112	3.46
252.328	7.57
252.544	9.47
252.76	10.16
252.976	9.76
253.192	11.35
253.408	8.4
253.624	7.92
253.84	6.1
254.056	5.67
254.272	3.21
254.487	2.96
254.703	3.38
254.919	0.93
255.135	1.57
255.351	-1.88
255.567	-2.17
255.782	1.31
255.998	2.44
256.214	5.74
256.43	6.55
256.646	8.3
256.861	6.07
257.077	1.92
257.293	1.7
257.508	0.16
257.724	0.63
257.94	-1.26
258.155	-1.06
258.371	-0.04
258.587	0.15
258.802	-0.06
259.018	-0.01
259.234	1.75
259.449	2.39
259.665	2.82
259.88	3.68
260.096	4.12
260.312	4.54
260.527	4.74
260.743	4.05
260.958	3.9
261.174	4.08
261.389	3.76
261.605	2.96
261.82	3.39
262.036	2.44
262.251	2.38
262.466	2.68
262.682	1.08
262.897	0.03
263.113	-0.22
263.328	0.06
263.543	0.61
263.759	-0.26
263.974	0.03
264.189	-1.65
264.405	-2.34
264.62	-3.83
264.835	-3.82
265.051	-1.12
265.266	-3.3
265.481	-0.26
265.696	-1
265.912	-2.03
266.127	0.32
266.342	0.26
266.557	-0.74
266.773	0.2
266.988	-0.53
267.203	-1.95
267.418	-2.71
267.633	-1.52
267.848	-2.77
268.064	-3.07
268.279	-2.58
268.494	-2.91
268.709	-1.73
268.924	-0.24
269.139	0.22
269.354	1.84
269.569	3.06
269.784	3.52
269.999	3.52
270.214	3.08
270.429	2.84
270.644	3.38
270.859	2.35
271.074	1.63
271.289	1.78
271.504	2.06
271.719	1.46
271.934	1.62
272.149	1.48
272.363	2.05
272.578	2.38
272.793	4.55
273.008	3.68
273.223	5
273.438	5.31
273.653	5.57
273.867	6.01
274.082	5.64
274.297	6.06
274.512	6.26
274.726	6.36
274.941	6.39
275.156	4.94
275.371	5.3
275.585	3.77
275.8	3.37
276.015	1.32
276.229	-1.74
276.444	-0.21
276.659	-2.1
276.873	-1.48
277.088	-2.02
277.302	-2.57
277.517	-3.11
277.732	-4.84
277.946	-5.03
278.161	-5.19
278.375	-3.74
278.59	-1.25
278.804	-2.46
279.019	-0.42
279.233	0.11
279.448	0.44
279.662	1.74
279.877	2.08
280.091	3.76
280.306	5.2
280.52	5.21
280.735	4.72
280.949	5.79
281.163	6.49
281.378	5.76
281.592	5.79
281.806	6.44
282.021	5.06
282.235	6.27
282.449	4.68
282.664	4.01
282.878	4.62
283.092	4.98
283.307	4.39
283.521	5.47
283.735	6.57
283.949	5.69
284.164	4.44
284.378	6.8
284.592	5.26
284.806	7.31
285.02	7.47
285.234	7.66
285.449	7.96
285.663	7.96
285.877	7.2
286.091	6.91
286.305	6.96
286.519	8.17
286.733	7.66
286.947	8.15
287.161	7.24
287.375	6.96
287.589	6.37
287.803	6.9
288.017	5.96
288.231	4.46
288.445	4.23
288.659	3.67
288.873	3.28
289.087	2.08
289.301	2.33
289.515	3.07
289.729	3.12
289.943	3.25
290.157	2.53
290.371	2.11
290.584	3.27
290.798	3.36
291.012	4.39
291.226	4.72
291.44	4.81
291.654	4.02
291.867	3.94
292.081	4.26
292.295	4.46
292.509	5.46
292.722	7.04
292.936	5.94
293.15	5.65
293.364	5.4
293.577	5.32
293.791	5.99
294.005	7.21
294.218	8.21
294.432	7.55
294.645	8.21
294.859	6.19
295.073	5.92
295.286	5.81
295.5	5.38
295.713	5.28
295.927	5.88
296.14	6.14
296.354	6.47
296.568	5.25
296.781	4.55
296.994	3.45
297.208	4.04
297.421	5.28
297.635	5.63
297.848	7.18
298.062	7.57
298.275	6.31
298.489	5.6
298.702	4.82
298.915	5.76
299.129	6.11
299.342	7.24
299.555	8.04
299.769	7.17
299.982	8.08
300.195	7.01
300.409	6.59
300.622	8.07
300.835	8.16
301.048	8.88
301.262	7.95
301.475	9.54
301.688	9.63
301.901	9.6
302.115	9.55
302.328	9.56
302.541	9.23
302.754	8.71
302.967	7.68
303.18	8.49
303.393	8.89
303.607	8.96
303.82	7.34
304.033	6.41
304.246	6.64
304.459	5.79
304.672	6.09
304.885	6.58
305.098	7.05
305.311	7.42
305.524	6.21
305.737	4.73
305.95	5.07
306.163	6.61
306.376	7.31
306.589	5.84
306.802	6.03
307.015	6
307.228	4.19
307.44	4.57
307.653	4.47
307.866	5.08
308.079	6.19
308.292	6.81
308.505	6.37
308.718	6.71
308.93	7.88
309.143	8.32
309.356	7.99
309.569	9.35
309.781	9.8
309.994	8.9
310.207	9.76
310.42	8.46
310.632	8.72
310.845	8.97
311.058	8.78
311.27	8.12
311.483	8.87
311.696	8.5
311.908	8.25
312.121	7.44
312.333	8.55
312.546	9.22
312.759	10.28
312.971	9.1
313.184	9.03
313.396	9.7
313.609	11.37
313.821	10.94
314.034	12.07
314.246	12.22
314.459	12.35
314.671	13.47
314.884	12.94
315.096	13.55
315.309	13.37
315.521	13.48
315.733	11.99
315.946	10.9
316.158	10.38
316.371	9.39
316.583	9.41
316.795	9.98
317.008	8.32
317.22	7.07
317.432	6.77
317.644	6.78
317.857	6.54
318.069	7.63
318.281	7.19
318.494	7.37
318.706	7.13
318.918	6.55
319.13	5.48
319.342	5.38
319.555	6.03
319.767	4.53
319.979	5.48
320.191	5.19
320.403	4.49
320.615	4.56
320.827	5.45
321.039	7.05
321.252	7.92
321.464	9.3
321.676	8.95
321.888	8.96
322.1	9.85
322.312	10.2
322.524	11.72
322.736	11.99
322.948	10.99
323.16	11.03
323.372	10.24
323.584	10.02
323.796	9.29
324.007	9.8
324.219	8.86
324.431	9.28
324.643	8.85
324.855	8.25
325.067	8.46
325.279	10.16
325.491	9.57
325.702	10.2
325.914	9.91
326.126	10.64
326.338	10.32
326.55	11.41
326.761	11.08
326.973	11.49
327.185	11.23
327.396	10.63
327.608	10.16
327.82	11.49
328.032	11.46
328.243	12.06
328.455	11.42
328.666	12.2
328.878	10.33
329.09	10.23
329.301	8.53
329.513	9.49
329.725	8.51
329.936	8.17
330.148	6.74
330.359	5.43
330.571	5.09
330.782	5.63
330.994	5.18
331.205	6.89
331.417	7.84
331.628	8.59
331.84	7.51
332.051	8.7
332.262	8.24
332.474	8.84
332.685	9.87
332.897	10.1
333.108	9.77
333.319	10.52
333.531	10.84
333.742	10.34
333.953	11.63
334.165	12.27
334.376	12.09
334.587	13.36
334.799	12.78
335.01	12.98
335.221	13.75
335.432	14.64
335.644	13.95
335.855	14.43
336.066	15.15
336.277	13.72
336.488	14.11
336.7	14.85
336.911	15.09
337.122	15.66
337.333	15.37
337.544	14.46
337.755	14.54
337.966	14.19
338.177	13.36
338.388	12.62
338.599	13.2
338.811	11.64
339.022	12.06
339.233	9.99
339.444	9.18
339.655	10.01
339.866	10.24
340.076	10.39
340.287	11.54
340.498	12.55
340.709	12.7
340.92	12.44
341.131	13.44
341.342	12.37
341.553	13.42
341.764	13.56
341.975	12.6
342.185	12.19
342.396	11.92
342.607	10.82
342.818	9.2
343.029	8.71
343.239	9.41
343.45	9.81
343.661	10.18
343.872	10.77
344.082	10.58
344.293	10.12
344.504	10.68
344.714	10.94
344.925	12.01
345.136	11.99
345.346	13.34
345.557	14.07
345.768	13.44
345.978	13.27
346.189	12.79
346.399	13.46
346.61	13.26
346.821	12.83
347.031	11.96
347.242	12.08
347.452	12.31
347.663	11.4
347.873	11.2
348.084	11.01
348.294	11.18
348.504	10.97
348.715	10.66
348.925	11.48
349.136	11.17
349.346	11.8
349.557	11.45
349.767	11.56
349.977	11.43
350.188	11.07
350.398	11.93
350.608	12.12
350.819	13.04
351.029	12.84
351.239	12.58
351.449	12.87
351.66	13.5
351.87	13.01
352.08	12.94
352.29	13.99
352.501	13.23
352.711	12.95
352.921	12.39
353.131	12.04
353.341	12.04
353.552	11.82
353.762	12.07
353.972	10.92
354.182	11.76
354.392	11.25
354.602	10.72
354.812	10.58
355.022	10.53
355.232	10.71
355.442	9.56
355.652	9.2
355.862	9.82
356.072	9.45
356.282	9.91
356.492	9.59
356.702	10.72
356.912	10.32
357.122	9.55
357.332	9.33
357.542	9.27
357.752	10.04
357.962	10.45
358.171	10.03
358.381	10.37
358.591	10.67
358.801	11.1
359.011	10.86
359.221	10.88
359.43	11.28
359.64	11.08
359.85	11.61
360.06	11.61
360.269	12.4
360.479	12.7
360.689	12.71
360.899	12.16
361.108	12.05
361.318	12.25
361.528	11.83
361.737	12.3
361.947	12.62
362.156	11.95
362.366	12.28
362.576	11.35
362.785	11.34
362.995	11.57
363.204	11.8
363.414	11.28
363.623	11.09
363.833	11.51
364.042	11.46
364.252	11.46
364.461	12.18
364.671	12.28
364.88	12.6
365.09	11.65
365.299	11.47
365.509	11.27
365.718	11.63
365.927	11.13
366.137	11.05
366.346	11.16
366.555	10.3
366.765	9.7
366.974	9.13
367.183	8.52
367.393	9.13
367.602	8.25
367.811	8
368.021	7.73
368.23	8.54
368.439	8.1
368.648	8.23
368.857	8.69
369.067	8.49
369.276	8.8
369.485	9.61
369.694	9.88
369.903	10.62
370.112	10.79
370.321	9.81
370.531	9.11
370.74	9.03
370.949	8.44
371.158	8.38
371.367	8.68
371.576	8.16
371.785	7.74
371.994	7.94
372.203	7.53
372.412	7.4
372.621	8.38
372.83	8.98
373.039	9.63
373.248	10.38
373.457	10.42
373.666	10.62
373.874	10.8
374.083	11.3
374.292	10.72
374.501	11.2
374.71	11.25
374.919	11.37
375.128	10.88
375.336	10.14
375.545	9.55
375.754	9.21
375.963	8.73
376.171	8.72
376.38	8.28
376.589	8.51
376.798	7.85
377.006	7.27
377.215	7.37
377.424	7.23
377.632	7.67
377.841	7.86
378.05	7.48
378.258	7.52
378.467	7.77
378.675	7.66
378.884	7.39
379.093	7.49
379.301	8.22
379.51	7.91
379.718	7.91
379.927	8.21
380.135	8.07
380.344	8.93
380.552	9.45
380.761	8.96
380.969	8.85
381.177	9.14
381.386	9.26
381.594	8.95
381.803	8.36
382.011	8.31
382.219	7.54
382.428	6.93
382.636	6.78
382.845	6.18
383.053	6.36
383.261	6.12
383.469	6.25
383.678	6.41
383.886	6.55
384.094	6.81
384.302	6.7
384.511	6.83
384.719	7.13
384.927	7.37
385.135	7.36
385.343	7.27
385.552	7.5
385.76	7.15
385.968	6.9
386.176	6.64
386.384	6.41
386.592	6.44
386.8	6.32
387.008	6.22
387.216	5.95
387.424	6.15
387.633	5.95
387.841	5.65
388.049	5.29
388.257	5.5
388.465	5.78
388.672	5.77
388.88	5.59
389.088	5.81
389.296	6.11
389.504	6.15
389.712	6.1
389.92	6.22
390.128	6.12
390.336	5.8
390.544	5.75
390.751	5.87
390.959	5.88
391.167	6.05
391.375	5.76
391.583	5.4
391.79	5
391.998	4.77
392.206	4.47
392.414	4.75
392.621	5.31
392.829	5.32
393.037	4.66
393.244	4.62
393.452	4.63
393.66	4.69
393.867	4.9
394.075	5.19
394.283	5.15
394.49	5.48
394.698	5.4
394.905	5.42
395.113	4.92
395.32	5.22
395.528	4.97
395.735	4.89
395.943	4.53
396.15	4.21
396.358	4.07
396.565	3.9
396.773	3.53
396.98	3.61
397.188	3.23
397.395	3.74
397.602	3.43
397.81	3.89
398.017	3.87
398.225	4.04
398.432	4.18
398.639	4.28
398.847	4.71
399.054	4.52
399.261	4.56
399.468	4.83
399.676	4.73
399.883	4.93
400.09	4.88
400.297	4.55
400.505	4.51
400.712	4.8
400.919	4.68
401.126	4.35
401.333	4.71
401.54	4.76
401.748	4.28
401.955	3.81
402.162	3.72
402.369	3.62
402.576	3.93
402.783	4.04
402.99	3.81
403.197	3.89
403.404	3.49
403.611	3.21
403.818	2.94
404.025	3.38
404.232	3.71
404.439	3.66
404.646	3.46
404.853	3.55
405.06	3.63
405.267	3.73
405.474	3.52
405.681	3.99
405.887	4.05
406.094	4.2
406.301	4.06
406.508	4.07
406.715	4.17
406.922	4.23
407.128	3.92
407.335	3.87
407.542	3.46
407.749	3.52
407.955	3.43
408.162	3.81
408.369	3.77
408.575	3.64
408.782	3.54
408.989	3.57
409.195	3.7
409.402	4.04
409.609	4.1
409.815	4.44
410.022	4.46
410.228	4.53
410.435	4.33
410.642	3.99
410.848	3.94
411.055	3.88
411.261	3.72
411.468	3.62
411.674	3.35
411.881	3.28
412.087	3.03
412.294	3.11
412.5	2.85
412.706	2.83
412.913	2.68
413.119	2.75
413.326	2.76
413.532	2.81
413.738	3.1
413.945	2.99
414.151	3.06
414.357	3.1
414.564	3.07
414.77	3.28
414.976	3.29
415.182	3.7
415.389	4.06
415.595	4.22
415.801	4.18
416.007	3.95
416.214	4
416.42	3.88
416.626	3.96
416.832	3.99
417.038	3.68
417.244	3.54
417.45	3.36
417.657	3
417.863	2.98
418.069	3.09
418.275	3.29
418.481	3.44
418.687	3.41
418.893	3.49
419.099	3.4
419.305	3.69
419.511	3.8
419.717	3.95
419.923	4.02
420.129	3.96
420.335	3.9
420.541	3.77
420.746	3.81
420.952	3.94
421.158	3.91
421.364	3.76
421.57	3.71
421.776	3.56
421.982	3.37
422.187	3.4
422.393	3.28
422.599	3.34
422.805	3.28
423.01	3.16
423.216	3.03
423.422	2.79
423.628	3.06
423.833	3.04
424.039	3.22
424.245	3.39
424.45	3.37
424.656	3.36
424.862	3.33
425.067	3.5
425.273	3.58
425.478	3.6
425.684	3.85
425.889	3.67
426.095	3.54
426.301	3.59
426.506	3.58
426.712	3.43
426.917	3.63
427.123	3.56
427.328	3.33
427.533	3.41
427.739	3.38
427.944	3.23
428.15	3.25
428.355	3.43
428.561	3.27
428.766	3.03
428.971	3.15
429.177	3.03
429.382	2.93
429.587	2.92
429.793	2.51
429.998	2.65
430.203	2.78
430.408	2.57
430.614	2.48
430.819	2.57
431.024	2.49
431.229	2.68
431.434	2.77
431.64	2.6
431.845	2.68
432.05	2.92
432.255	2.97
432.46	2.93
432.665	3.28
432.87	3.32
433.076	3.54
433.281	3.52
433.486	3.24
433.691	3.11
433.896	3.24
434.101	3.26
434.306	3.39
434.511	3.25
434.716	3
434.921	2.96
435.126	2.98
435.331	2.52
435.535	2.76
435.74	2.92
435.945	3.13
436.15	3.28
436.355	3.3
436.56	3.04
436.765	2.85
436.97	2.94
437.174	2.98
437.379	2.98
437.584	3.14
437.789	3.06
437.993	3.05
438.198	3.13
438.403	3.22
438.608	3.1
438.812	3.18
439.017	3.23
439.222	3.38
439.426	3.31
439.631	3.24
439.836	3.31
440.04	3.35
440.245	3.4
440.45	3.28
440.654	3.17
440.859	3.25
441.063	3.2
441.268	3.3
441.472	3.3
441.677	3.21
441.881	3.17
442.086	3.11
442.29	3.01
442.495	3.03
442.699	2.97
442.904	3.02
443.108	3.05
443.312	3.03
443.517	3
443.721	3.04
443.925	3.13
444.13	3.17
444.334	3.28
444.538	3.46
444.743	3.49
444.947	3.39
445.151	3.29
445.356	3.32
445.56	3.4
445.764	3.34
445.968	3.25
446.173	3.25
446.377	3.37
446.581	3.27
446.785	3.2
446.989	3.12
447.193	3.2
447.398	3.28
447.602	3.24
447.806	3.27
448.01	3.18
448.214	3.29
448.418	3.24
448.622	3.13
448.826	3.18
449.03	3.35
449.234	3.29
449.438	3.2
449.642	3.11
449.846	3.06
450.05	2.9
450.254	3.04
450.458	3.06
450.662	2.93
450.866	2.87
451.069	2.79
451.273	2.79
451.477	2.81
451.681	2.89
451.885	2.93
452.089	2.76
452.292	2.76
452.496	2.95
452.7	2.97
452.904	3.15
453.107	3.06
453.311	3.04
453.515	2.87
453.719	2.92
453.922	2.92
454.126	2.86
454.33	3.19
454.533	3.06
454.737	3.04
454.94	2.89
455.144	2.78
455.348	2.77
455.551	2.78
455.755	2.78
455.958	2.51
456.162	2.44
456.365	2.52
456.569	2.29
456.772	2.56
456.976	2.22
457.179	2.11
457.383	2.16
457.586	2.23
457.79	2.13
457.993	1.96
458.196	2.13
458.4	2.06
458.603	2.2
458.807	2.29
459.01	2.2
459.213	2.45
459.417	2.45
459.62	2.49
459.823	2.62
460.026	2.68
460.23	2.82
460.433	2.81
460.636	2.81
460.839	2.83
461.042	2.85
461.246	2.87
461.449	2.81
461.652	2.84
461.855	2.76
462.058	2.65
462.261	2.59
462.464	2.58
462.668	2.75
462.871	2.92
463.074	2.71
463.277	2.64
463.48	2.67
463.683	2.65
463.886	2.81
464.089	2.75
464.292	2.84
464.495	2.86
464.698	3
464.901	2.96
465.104	2.84
465.306	2.84
465.509	2.77
465.712	2.69
465.915	2.83
466.118	2.86
466.321	2.97
466.524	2.91
466.726	2.91
466.929	2.74
467.132	2.56
467.335	2.76
467.538	2.75
467.74	2.87
467.943	2.99
468.146	2.95
468.348	2.79
468.551	2.82
468.754	3
468.956	3.11
469.159	3.12
469.362	3.17
469.564	3.06
469.767	3.17
469.969	3.22
470.172	3.07
470.375	2.91
470.577	2.96
470.78	2.95
470.982	2.99
471.185	3.01
471.387	3
471.59	2.93
471.792	2.9
471.995	2.83
472.197	2.76
472.399	2.92
472.602	2.96
472.804	3
473.007	2.96
473.209	2.74
473.411	2.67
473.614	2.59
473.816	2.62
474.018	2.65
474.22	2.86
474.423	2.84
474.625	2.74
474.827	2.69
475.03	2.6
475.232	2.67
475.434	2.65
475.636	2.77
475.838	2.63
476.04	2.85
476.243	2.75
476.445	2.64
476.647	2.48
476.849	2.52
477.051	2.58
477.253	2.53
477.455	2.69
477.657	2.6
477.859	2.59
478.061	2.83
478.263	2.8
478.465	2.9
478.667	3.07
478.869	3.35
479.071	3.21
479.273	3.24
479.475	3.24
479.677	3.09
479.879	3.15
480.081	3.15
480.283	2.95
480.485	2.91
480.686	2.9
480.888	2.62
481.09	2.5
481.292	2.7
481.494	2.68
481.695	2.66
481.897	2.7
482.099	2.79
482.301	2.8
482.502	2.8
482.704	2.75
482.906	2.73
483.107	2.76
483.309	2.79
483.511	2.81
483.712	2.82
483.914	2.83
484.115	2.84
484.317	2.85
484.519	2.85
484.72	2.91
484.922	2.91
485.123	2.93
485.325	2.99
485.526	2.98
485.728	2.99
485.929	3.06
486.131	3.15
486.332	3.14
486.534	3.07
486.735	3.08
486.936	3.11
487.138	3.15
487.339	3.18
487.541	3.13
487.742	3.14
487.943	3.05
488.144	3.01
488.346	3
488.547	3
488.748	3.07
488.95	3.03
489.151	2.99
489.352	2.99
489.553	2.92
489.755	2.97
489.956	3
490.157	3.04
490.358	3.04
490.559	3.07
490.76	3.03
490.961	3.06
491.163	3.07
491.364	3.12
491.565	3.06
491.766	3.19
491.967	3.14
492.168	3.13
492.369	3.12
492.57	3.08
492.771	3.05
492.972	3.03
493.173	2.99
493.374	2.99
493.575	2.87
493.776	2.83
493.976	2.7
494.177	2.67
494.378	2.64
494.579	2.54
494.78	2.56
494.981	2.54
495.182	2.67
495.382	2.51
495.583	2.56
495.784	2.64
495.985	2.74
496.185	2.78
496.386	2.66
496.587	2.67
496.788	2.7
496.988	2.77
497.189	2.76
497.39	2.71
497.59	2.8
497.791	2.84
497.992	2.87
498.192	2.88
498.393	2.95
498.593	3.1
498.794	3.09
498.994	3.17
499.195	3.15
499.395	3.18
499.596	3.21
499.796	3.16
499.997	3.22
500.197	3.12
500.398	3.13
500.598	3.19
500.799	3.07
500.999	3.1
501.199	3.34
501.4	3.22
501.6	3.3
501.801	3.29
502.001	3.39
502.201	3.25
502.402	3.37
502.602	3.31
502.802	3.25
503.002	3.48
503.203	3.67
503.403	3.44
503.603	3.46
503.803	3.37
504.003	3.24
504.204	3.28
504.404	3.53
504.604	3.42
504.804	3.5
505.004	3.35
505.204	3.28
505.404	3.01
505.604	3.04
505.804	3.24
506.005	3.28
506.205	3.49
506.405	3.59
506.605	3.43
506.805	3.4
507.005	3.36
507.204	3.53
507.404	3.55
507.604	3.74
507.804	3.85
508.004	3.94
508.204	3.99
508.404	3.95
508.604	3.81
508.804	3.88
509.003	4.06
509.203	4.27
509.403	4.22
509.603	4.29
509.803	4.35
510.002	4.32
510.202	4.29
510.402	4.36
510.602	4.46
510.801	4.66
511.001	4.76
511.201	4.66
511.4	4.6
511.6	4.71
511.8	4.62
511.999	4.56
512.199	4.64
512.398	4.62
512.598	4.61
512.797	4.77
512.997	4.7
513.197	4.62
513.396	4.81
513.596	4.98
513.795	4.91
513.994	5
514.194	5.03
514.393	5.16
514.593	5.3
514.792	5.34
514.992	5.27
515.191	5.43
515.39	5.52
515.59	5.65
515.789	5.58
515.988	5.67
516.188	5.83
516.387	5.93
516.586	5.87
516.786	5.82
516.985	5.88
517.184	5.92
517.383	5.84
517.582	5.86
517.782	5.8
517.981	5.87
518.18	5.9
518.379	5.91
518.578	5.98
518.777	6.04
518.976	6.16
519.176	6.19
519.375	6.28
519.574	6.4
519.773	6.45
519.972	6.47
520.171	6.53
520.37	6.58
520.569	6.66
520.768	6.7
520.967	6.7
521.166	6.57
521.365	6.54
521.564	6.39
521.762	6.27
521.961	6.3
522.16	6.37
522.359	6.38
522.558	6.53
522.757	6.42
522.956	6.27
523.154	6.3
523.353	6.53
523.552	6.61
523.751	6.84
523.949	6.99
524.148	7.1
524.347	7.24
524.546	7.23
524.744	7.32
524.943	7.55
525.142	7.69
525.34	7.89
525.539	7.91
525.737	7.98
525.936	7.98
526.135	8.07
526.333	8
526.532	8.05
526.73	8.01
526.929	8.04
527.127	8.02
527.326	8.09
527.524	8.04
527.723	8.06
527.921	8.11
528.12	8.12
528.318	8.12
528.516	8.26
528.715	8.28
528.913	8.36
529.112	8.37
529.31	8.39
529.508	8.41
529.707	8.43
529.905	8.44
530.103	8.5
530.301	8.5
530.5	8.58
530.698	8.59
530.896	8.56
531.094	8.64
531.293	8.72
531.491	8.73
531.689	8.69
531.887	8.73
532.085	8.79
532.283	8.73
532.481	8.86
532.68	8.91
532.878	8.91
533.076	9.06
533.274	9.12
533.472	9.05
533.67	9.17
533.868	9.34
534.066	9.4
534.264	9.45
534.462	9.5
534.66	9.53
534.858	9.54
535.056	9.62
535.253	9.68
535.451	9.68
535.649	9.89
535.847	9.89
536.045	9.98
536.243	10.13
536.441	10.21
536.638	10.29
536.836	10.3
537.034	10.4
537.232	10.44
537.43	10.46
537.627	10.46
537.825	10.47
538.023	10.54
538.22	10.61
538.418	10.54
538.616	10.5
538.813	10.66
539.011	10.68
539.209	10.69
539.406	10.67
539.604	10.76
539.801	10.75
539.999	10.77
540.196	10.9
540.394	10.98
540.591	11.02
540.789	11.03
540.986	11.08
541.184	11.21
541.381	11.29
541.579	11.33
541.776	11.35
541.974	11.51
542.171	11.56
542.368	11.51
542.566	11.4
542.763	11.45
542.96	11.53
543.158	11.55
543.355	11.47
543.552	11.47
543.75	11.5
543.947	11.51
544.144	11.51
544.341	11.56
544.539	11.63
544.736	11.71
544.933	11.76
545.13	11.79
545.327	11.83
545.524	12.05
545.722	12.15
545.919	12.23
546.116	12.38
546.313	12.45
546.51	12.44
546.707	12.66
546.904	12.77
547.101	12.81
547.298	12.85
547.495	12.95
547.692	13.05
547.889	13.02
548.086	13.12
548.283	13.23
548.48	13.31
548.677	13.55
548.874	13.46
549.07	13.48
549.267	13.64
549.464	13.83
549.661	13.79
549.858	13.82
550.055	13.75
550.251	13.79
550.448	13.65
550.645	13.79
550.842	13.73
551.038	13.81
551.235	13.81
551.432	14.05
551.628	14.1
551.825	14.32
552.022	14.41
552.218	14.79
552.415	15
552.612	15.15
552.808	15.16
553.005	15.32
553.201	15.58
553.398	15.85
553.594	15.81
553.791	15.83
553.987	15.76
554.184	15.83
554.38	15.71
554.577	15.7
554.773	15.79
554.97	15.87
555.166	15.99
555.362	15.93
555.559	16.03
555.755	16.04
555.952	16.34
556.148	16.55
556.344	16.57
556.541	16.87
556.737	16.78
556.933	16.66
557.129	16.57
557.326	16.49
557.522	16.51
557.718	16.53
557.914	16.76
558.11	16.65
558.307	16.62
558.503	16.66
558.699	16.73
558.895	17.02
559.091	17.09
559.287	17.33
559.483	17.37
559.679	17.44
559.876	17.45
560.072	17.19
560.268	17.33
560.464	17.44
560.66	17.62
560.856	17.44
561.052	17.4
561.247	17.83
561.443	17.68
561.639	17.84
561.835	17.83
562.031	17.99
562.227	18.13
562.423	18.35
562.619	18.44
562.815	18.61
563.01	18.85
563.206	18.81
563.402	18.56
563.598	18.76
563.793	18.74
563.989	18.88
564.185	18.95
564.381	18.97
564.576	18.75
564.772	18.92
564.968	18.86
565.163	19
565.359	19.08
565.555	19.2
565.75	19.23
565.946	19.3
566.141	19.52
566.337	19.56
566.532	19.77
566.728	19.91
566.923	19.82
567.119	19.79
567.314	19.79
567.51	19.97
567.705	19.93
567.901	19.88
568.096	19.93
568.292	19.73
568.487	19.78
568.682	19.87
568.878	19.85
569.073	19.88
569.268	20
569.464	20.12
569.659	20.08
569.854	20.14
570.05	20.08
570.245	19.98
570.44	20.2
570.635	20.25
570.831	20.36
571.026	20.38
571.221	20.41
571.416	20.39
571.611	20.4
571.806	20.61
572.002	20.69
572.197	20.95
572.392	21.24
572.587	21.15
572.782	21.13
572.977	21.18
573.172	21.37
573.367	21.52
573.562	21.68
573.757	21.66
573.952	21.68
574.147	21.65
574.342	21.74
574.537	21.71
574.732	21.77
574.927	21.62
575.121	21.37
575.316	21.45
575.511	21.34
575.706	21.31
575.901	21.43
576.096	21.18
576.29	21.46
576.485	21.38
576.68	21.33
576.875	21.31
577.069	21.58
577.264	21.56
577.459	21.47
577.654	21.93
577.848	21.73
578.043	21.47
578.238	21.67
578.432	21.44
578.627	21.58
578.821	21.62
579.016	21.54
579.21	21.51
579.405	21.9
579.6	21.98
579.794	21.78
579.989	21.9
580.183	22.04
580.378	22.21
580.572	22.46
580.766	22.65
580.961	22.6
581.155	22.71
581.35	22.46
581.544	22.14
581.738	22.12
581.933	21.95
582.127	22.2
582.321	22.53
582.516	22.39
582.71	22.26
582.904	21.89
583.099	22.08
583.293	21.93
583.487	22.17
583.681	22.47
583.875	22.46
584.07	22.28
584.264	22.16
584.458	22.02
584.652	22.1
584.846	22.27
585.04	22.45
585.234	22.18
585.428	22.37
585.623	22.41
585.817	22.15
586.011	21.91
586.205	22.12
586.399	22.25
586.593	22.11
586.787	22.18
586.981	22.29
587.174	22.35
587.368	22.8
587.562	23.1
587.756	23.03
587.95	23.34
588.144	23.59
588.338	23.67
588.532	23.84
588.725	24.04
588.919	23.95
589.113	23.93
589.307	24.05
589.501	24.3
589.694	24.39
589.888	24.6
590.082	24.38
590.275	24.56
590.469	24.75
590.663	24.61
590.856	24.25
591.05	24.52
591.244	24.42
591.437	24.38
591.631	24.1
591.824	24
592.018	23.96
592.212	24.15
592.405	24.09
592.599	23.9
592.792	24.07
592.986	24.54
593.179	24.26
593.372	24.42
593.566	24.38
593.759	24.54
593.953	24.5
594.146	24.78
594.339	24.79
594.533	24.76
594.726	24.75
594.92	24.45
595.113	24.19
595.306	24.28
595.499	24.21
595.693	24.16
595.886	23.9
596.079	23.93
596.272	23.92
596.466	24.19
596.659	24.29
596.852	24.29
597.045	24.45
597.238	24.61
597.431	24.62
597.624	24.59
597.818	24.6
598.011	24.8
598.204	24.91
598.397	24.68
598.59	24.48
598.783	24.51
598.976	24.65
599.169	24.6
599.362	24.78
599.555	24.81
599.748	24.91
599.941	24.83
600.134	24.64
600.326	24.49
600.519	24.61
600.712	24.71
600.905	24.82
601.098	24.91
601.291	24.56
601.483	24.51
601.676	24.64
601.869	24.86
602.062	25.06
602.255	24.88
602.447	25.08
602.64	24.91
602.833	24.85
603.025	24.92
603.218	25.02
603.411	25.53
603.603	25.41
603.796	25.35
603.989	25.32
604.181	25.43
604.374	25.76
604.566	25.53
604.759	25.63
604.951	25.64
605.144	25.46
605.336	25.08
605.529	24.99
605.721	25.15
605.914	25.16
606.106	25.15
606.299	25.01
606.491	24.87
606.683	24.95
606.876	24.71
607.068	24.84
607.26	25.04
607.453	25.23
607.645	25.19
607.837	24.95
608.03	25.26
608.222	25.09
608.414	24.82
608.606	24.87
608.799	25.27
608.991	25.69
609.183	25.54
609.375	25.49
609.567	25.62
609.759	25.59
609.952	25.52
610.144	25.25
610.336	25.03
610.528	25.24
610.72	25.22
610.912	24.86
611.104	24.71
611.296	24.6
611.488	24.25
611.68	24.09
611.872	24.03
612.064	24.12
612.256	24.1
612.448	24.51
612.64	24.64
612.832	24.5
613.023	24.53
613.215	24.1
613.407	24.18
613.599	24.17
613.791	24.33
613.983	24.36
614.174	24.36
614.366	24.41
614.558	24.43
614.75	24.28
614.941	24.52
615.133	24.56
615.325	25.05
615.516	25.21
615.708	25.69
615.9	25.73
616.091	25.65
616.283	25.58
616.475	25.47
616.666	25.32
616.858	25.04
617.049	25.08
617.241	24.95
617.432	24.94
617.624	24.75
617.815	24.56
618.007	24.41
618.198	24.56
618.39	24.56
618.581	24.48
618.773	24.48
618.964	24.8
619.155	24.95
619.347	24.78
619.538	24.96
619.729	25.08
619.921	25.31
620.112	25.38
620.303	25.6
620.494	26.01
620.686	26.06
620.877	25.81
621.068	25.86
621.259	25.73
621.451	26
621.642	25.63
621.833	25.5
622.024	25.37
622.215	25.26
622.406	24.94
622.597	24.73
622.788	25.27
622.98	25.39
623.171	25.22
623.362	25.13
623.553	25.21
623.744	25.41
623.935	25.32
624.126	25.15
624.317	25.16
624.508	25.35
624.698	25
624.889	24.78
625.08	24.84
625.271	24.99
625.462	24.69
625.653	24.73
625.844	24.78
626.034	25.12
626.225	25.33
626.416	25.35
626.607	25.24
626.798	25.56
626.988	25.49
627.179	25.67
627.37	25.91
627.56	26.28
627.751	26.21
627.942	26.22
628.132	26.27
628.323	26.1
628.514	26.47
628.704	26.56
628.895	26.52
629.085	26.42
629.276	26.34
629.466	26.25
629.657	26.08
629.847	26.4
630.038	26.54
630.228	26.31
630.419	26.52
630.609	26.16
630.8	26.07
630.99	26.52
631.181	26.84
631.371	26.95
631.561	26.42
631.752	26.47
631.942	26.11
632.132	26.29
632.323	26.61
632.513	26.49
632.703	26.43
632.893	26.42
633.084	26.15
633.274	26.08
633.464	25.81
633.654	26.32
633.844	26.22
634.034	26.24
634.225	26.07
634.415	25.92
634.605	26.15
634.795	26.28
634.985	26.34
635.175	26.42
635.365	26.34
635.555	26.48
635.745	26.42
635.935	26.44
636.125	26.51
636.315	26.42
636.505	26.75
636.695	26.66
636.885	26.45
637.075	26.41
637.265	25.98
637.455	26.03
637.644	25.9
637.834	25.91
638.024	25.91
638.214	25.77
638.404	25.83
638.593	25.43
638.783	25.47
638.973	25.64
639.163	25.74
639.352	26.28
639.542	26.23
639.732	26.42
639.921	26.53
640.111	26.67
640.301	26.95
640.49	26.99
640.68	27.31
640.87	27.65
641.059	27.8
641.249	27.82
641.438	27.75
641.628	27.86
641.817	27.79
642.007	27.29
642.196	27.64
642.386	27.34
642.575	27.25
642.764	27.22
642.954	26.84
643.143	26.85
643.333	26.97
643.522	26.66
643.711	26.74
643.901	26.81
644.09	26.99
644.279	26.81
644.469	27.26
644.658	27.29
644.847	27.1
645.036	26.79
645.226	26.56
645.415	26.52
645.604	26.44
645.793	26.57
645.982	26.64
646.171	26.66
646.361	26.27
646.55	25.98
646.739	25.44
646.928	25.68
647.117	26.03
647.306	25.91
647.495	25.99
647.684	25.75
647.873	25.72
648.062	25.37
648.251	25.59
648.44	25.62
648.629	26.03
648.818	26.38
649.007	25.81
649.196	25.52
649.384	26.23
649.573	25.85
649.762	26.52
649.951	26.15
650.14	26.32
650.328	26.54
650.517	26.92
650.706	26.44
650.895	26.59
651.083	26.57
651.272	27.1
651.461	26.49
651.65	26.39
651.838	26.05
652.027	26.13
652.216	26.32
652.404	26.06
652.593	26.15
652.781	26.31
652.97	26.16
653.158	26.42
653.347	26.3
653.535	26.93
653.724	26.92
653.912	26.58
654.101	26.63
654.289	26.9
654.478	26.89
654.666	26.28
654.855	26.31
655.043	26.42
655.231	26.35
655.42	26.13
655.608	26.13
655.796	26.35
655.985	27.11
656.173	27.16
656.361	26.78
656.55	26.83
656.738	27.11
656.926	27.14
657.114	27.29
657.302	27.5
657.491	27.54
657.679	26.95
657.867	27.28
658.055	27.01
658.243	27.21
658.431	27.33
658.619	27.38
658.807	27.36
658.996	26.87
659.184	26.74
659.372	26.62
659.56	26.75
659.748	27.04
659.936	27.15
660.124	27.15
660.311	27.15
660.499	27.17
660.687	27.34
660.875	27.13
661.063	27.78
661.251	28.16
661.439	28.29
661.627	27.97
661.814	28.04
662.002	27.93
662.19	28.01
662.378	27.98
662.565	27.87
662.753	27.8
662.941	28.15
663.129	28.23
663.316	27.74
663.504	27.87
663.692	27.85
663.879	27.74
664.067	27.24
664.254	27.61
664.442	27.63
664.63	27.56
664.817	27.44
665.005	27.53
665.192	27.16
665.38	27.74
665.567	27.84
665.755	27.82
665.942	28.11
666.13	28.41
666.317	27.88
666.504	27.83
666.692	28.51
666.879	28.33
667.067	28.49
667.254	28.56
667.441	28.26
667.629	27.79
667.816	28.34
668.003	28.1
668.19	28.01
668.378	28.42
668.565	28.54
668.752	28.18
668.939	28.49
669.127	28.3
669.314	28.22
669.501	28.09
669.688	27.99
669.875	27.9
670.062	27.79
670.249	27.88
670.436	27.66
670.623	27.7
670.81	27.3
670.997	27.29
671.184	27.26
671.371	27.7
671.558	27.62
671.745	28.12
671.932	28
672.119	28.22
672.306	28.26
672.493	28.15
672.68	27.49
672.867	27.71
673.054	27.5
673.24	27.41
673.427	27.01
673.614	26.71
673.801	26.5
673.988	26.49
674.174	26.79
674.361	27.11
674.548	27.25
674.734	28.06
674.921	28.29
675.108	28.49
675.294	28.91
675.481	29.17
675.668	29.83
675.854	30.02
676.041	29.68
676.227	29.57
676.414	29.26
676.601	29.34
676.787	29.31
676.974	29.29
677.16	28.97
677.347	28.63
677.533	28.4
677.719	28.5
677.906	28.32
678.092	28.67
678.279	28.33
678.465	28.14
678.651	28.24
678.838	27.83
679.024	27.87
679.21	28.44
679.397	28.37
679.583	28.65
679.769	28.55
679.955	28.9
680.142	28.61
680.328	28.62
680.514	28.71
680.7	28.66
680.886	28.75
681.073	28.98
681.259	28.74
681.445	28.78
681.631	28.72
681.817	28.74
682.003	28.73
682.189	29.42
682.375	29.98
682.561	29.99
682.747	30.06
682.933	30.28
683.119	29.72
683.305	29.8
683.491	29.72
683.677	29.84
683.863	29.82
684.049	29.63
684.235	28.79
684.42	28.57
684.606	28.82
684.792	28.34
684.978	27.93
685.164	27.83
685.349	27.91
685.535	27.83
685.721	27.56
685.907	27.18
686.092	27.24
686.278	27.49
686.464	26.89
686.649	26.87
686.835	26.8
687.021	26.99
687.206	27.38
687.392	27.06
687.577	27.73
687.763	27.9
687.948	28.4
688.134	27.76
688.319	27.88
688.505	28.1
688.69	28.54
688.876	29.22
689.061	29.52
689.247	29.93
689.432	29.83
689.618	29.62
689.803	29.33
689.988	29.2
690.174	29.81
690.359	29.96
690.544	29.9
690.73	29.54
690.915	29.21
691.1	28.81
691.285	28.76
691.471	29.18
691.656	28.78
691.841	29.28
692.026	29.62
692.211	29.39
692.396	28.82
692.582	28.8
692.767	29.04
692.952	29.31
693.137	29.98
693.322	29.42
693.507	29.02
693.692	29.24
693.877	28.97
694.062	28.41
694.247	28.61
694.432	29.35
694.617	29.96
694.802	29.84
694.987	29.33
695.172	28.8
695.357	28.7
695.541	28.3
695.726	27.96
695.911	27.64
696.096	28.14
696.281	28.35
696.466	28.03
696.65	27.78
696.835	28.04
697.02	28.68
697.204	28.86
697.389	29.27
697.574	29.92
697.759	30
697.943	29.98
698.128	29.95
698.312	30.18
698.497	30.28
698.682	30.14
698.866	30.25
699.051	29.87
699.235	29.94
699.42	29.96
699.604	29.5
699.789	29.67
699.973	29.91
700.158	29.83
700.342	29.58
700.527	29.68
700.711	30.16
700.895	29.8
701.08	30.11
701.264	30.33
701.448	30.39
701.633	30.71
701.817	31.08
702.001	30.94
702.186	30.43
702.37	29.81
702.554	29.6
702.738	29.64
702.923	29.45
703.107	29.01
703.291	28.86
703.475	28.94
703.659	29
703.843	28.77
704.027	28.98
704.212	29.24
704.396	29.87
704.58	29.62
704.764	28.29
704.948	28.98
705.132	28.67
705.316	28.59
705.5	28.07
705.684	28.49
705.868	28.44
706.052	28.78
706.235	28.97
706.419	28.91
706.603	29.4
706.787	30.59
706.971	29.22
707.155	29.72
707.339	29.72
707.522	30.02
707.706	30.23
707.89	29.8
708.074	28.59
708.257	28.69
708.441	28.46
708.625	28.21
708.808	28.04
708.992	28.82
709.176	29.06
709.359	28.79
709.543	28.23
709.727	28.11
709.91	27.98
710.094	29.36
710.277	29.25
710.461	29.54
710.644	29.74
710.828	29.17
711.011	29.06
711.195	28.73
711.378	28.72
711.562	29.23
711.745	29.21
711.928	28.93
712.112	28.95
712.295	29.56
712.478	29.68
712.662	29.66
712.845	29.97
713.028	29.71
713.212	29.47
713.395	29.5
713.578	29.1
713.761	28.54
713.945	29.1
714.128	28.63
714.311	27.81
714.494	27.89
714.677	27.73
714.86	27.61
715.043	27.65
715.227	28.24
715.41	27.76
715.593	28.1
715.776	27.93
715.959	28.23
716.142	28.27
716.325	28.56
716.508	28.33
716.691	28.77
716.874	28.38
717.057	28.97
717.239	29.49
717.422	29.76
717.605	29.14
717.788	29.53
717.971	29.42
718.154	28.64
718.337	28.64
718.519	28.28
718.702	27.55
718.885	28.09
719.068	27.03
719.25	26.03
719.433	26.23
719.616	26.56
719.798	26.69
719.981	27.2
720.164	27.76
720.346	27.49
720.529	27.39
720.712	27.98
720.894	28.18
721.077	28.77
721.259	28.46
721.442	28.85
721.624	28.73
721.807	29.32
721.989	28.03
722.172	27.73
722.354	28.03
722.537	28.87
722.719	28.6
722.901	28.41
723.084	28.32
723.266	28.15
723.448	28.63
723.631	28.39
723.813	27.29
723.995	28.43
724.178	29.07
724.36	29.15
724.542	28.93
724.724	28.82
724.907	28.64
725.089	28.45
725.271	28.91
725.453	27.97
725.635	29.58
725.817	30.09
725.999	29.58
726.181	29.43
726.364	29.72
726.546	28.83
726.728	28.43
726.91	28.31
727.092	28.9
727.274	28.97
727.456	29.13
727.638	28.74
727.819	29.12
728.001	28.7
728.183	29.08
728.365	28.39
728.547	28.66
728.729	29.51
728.911	29.82
729.093	29.68
729.274	29.45
729.456	29.47
729.638	29.4
729.82	28.75
730.001	29.06
730.183	28.26
730.365	28.22
730.546	29.33
730.728	29.08
730.91	28.59
731.091	29.09
731.273	29.4
731.455	28.96
731.636	28.33
731.818	28.59
731.999	28.41
732.181	29.9
732.362	29.84
732.544	28.91
732.725	29.62
732.907	30.34
733.088	29.65
733.27	29.67
733.451	29.51
733.633	29.74
733.814	30.09
733.995	30.04
734.177	28.77
734.358	28.89
734.539	28.57
734.721	27.47
734.902	28.21
735.083	28.47
735.264	28.49
735.446	29.38
735.627	29.2
735.808	28.97
735.989	28.66
736.17	28.55
736.351	28.66
736.533	29.02
736.714	29.68
736.895	28.07
737.076	28.26
737.257	27.97
737.438	27.11
737.619	27.29
737.8	27.7
737.981	29.05
738.162	29.21
738.343	29.38
738.524	29.26
738.705	28.47
738.886	28.35
739.067	27.81
739.247	27.45
739.428	27.87
739.609	27.66
739.79	27.04
739.971	26.97
740.151	27.08
740.332	26.79
740.513	27.09
740.694	26.55
740.874	25.75
741.055	25.44
741.236	26.19
741.417	27.26
741.597	27.42
741.778	28.18
741.958	27.53
742.139	27.17
742.32	27.64
742.5	29.12
742.681	29.58
742.861	30.31
743.042	30.89
743.222	31.07
743.403	29.94
743.583	30.61
743.764	29.7
743.944	30.38
744.124	30.32
744.305	30.47
744.485	29.8
744.666	30.37
744.846	30
745.026	30.49
745.207	30.44
745.387	30.9
745.567	30.65
745.747	30.34
745.928	29.96
746.108	30.13
746.288	29.44
746.468	28.54
746.648	28.24
746.829	30.03
747.009	29.85
747.189	29.61
747.369	29.87
747.549	30.33
747.729	30.81
747.909	31.25
748.089	31.61
748.269	31.99
748.449	32.03
748.629	33.36
748.809	32.78
748.989	32.74
749.169	33.06
749.349	31.34
749.529	31.25
749.709	32
749.889	31.77
750.068	32.41
750.248	32.35
750.428	32.93
750.608	31.68
750.788	31.23
750.967	30.89
751.147	30.55
751.327	31.14
751.507	30.99
751.686	30.36
751.866	29.68
752.046	28.86
752.225	29.23
752.405	28.93
752.585	29.32
752.764	29.8
752.944	30.38
753.123	29.9
753.303	30.56
753.482	29.18
753.662	29.79
753.841	30.49
754.021	30.72
754.2	31.23
754.38	31.47
754.559	31.42
754.739	31.76
754.918	31.31
755.097	32.14
755.277	30.89
755.456	32.32
755.635	31.22
755.815	30.44
755.994	29.42
756.173	27.96
756.352	27.51
756.532	27.69
756.711	26.97
756.89	27.33
757.069	27.76
757.248	29.33
757.427	29.06
757.607	28.5
757.786	28.88
757.965	30.04
758.144	29.65
758.323	30.49
758.502	30.95
758.681	31.93
758.86	32.82
759.039	31.8
759.218	31.3
759.397	31.17
759.576	31.21
759.755	30.41
759.934	30.73
760.113	31.98
760.291	31.94
760.47	31.81
760.649	31.34
760.828	30.57
761.007	31.97
761.186	32.13
761.364	32.63
761.543	33.31
761.722	33.88
761.901	33.63
762.079	33.74
762.258	33.49
762.437	32.97
762.615	33.08
762.794	32.89
762.972	32.02
763.151	31.59
763.33	31.16
763.508	30.99
763.687	31.65
763.865	31.37
764.044	31.26
764.222	31
764.401	30.96
764.579	30.23
764.758	30.18
764.936	30.04
765.114	29.72
765.293	29.13
765.471	29.73
765.65	29.29
765.828	28.97
766.006	28.31
766.184	27.61
766.363	27.73
766.541	27.73
766.719	27.5
766.898	27.06
767.076	28.32
767.254	29.68
767.432	28.38
767.61	27.92
767.788	27.83
767.967	27.5
768.145	28.06
768.323	27.61
768.501	28.58
768.679	29.68
768.857	30.04
769.035	29.21
769.213	29.41
769.391	29.56
769.569	30.34
769.747	30.35
769.925	31.27
770.103	29.92
770.281	29.71
770.459	29.08
770.636	27.58
770.814	29.12
770.992	28.12
771.17	27.73
771.348	28.93
771.525	27.38
771.703	28.11
771.881	27.76
772.059	29.43
772.236	29.63
772.414	30.36
772.592	29.56
772.769	27.75
772.947	29.72
773.125	29.62
773.302	29.48
773.48	29.49
773.657	29.87
773.835	30.41
774.013	31.37
774.19	32.5
774.368	32.33
774.545	33.2
774.723	35.95
774.9	35.63
775.077	33.41
775.255	34.21
775.432	33.71
775.61	35.4
775.787	35.14
775.964	32.89
776.142	31.12
776.319	31.19
776.496	31.15
776.674	30.02
776.851	30.01
777.028	31.69
777.205	30.8
777.382	32.19
777.56	29.89
777.737	29.33
777.914	29.88
778.091	32.39
778.268	31
778.445	31.41
778.622	30.77
778.8	29.55
778.977	28.51
779.154	26.92
779.331	25.92
779.508	25.07
779.685	26.59
779.862	27.88
780.038	26.71
780.215	25.1
780.392	25.34
780.569	23.07
780.746	24
780.923	24.51
781.1	24.93
781.277	26.76
781.453	26.73
781.63	23.93
781.807	21.77
781.984	21.01
782.16	24.51
782.337	24.11
782.514	24.74
782.691	25.43
782.867	26.03
783.044	27.97
783.221	28.01
783.397	28.03
783.574	31.21
783.75	33
783.927	30.21
784.103	27.63
784.28	26.38
784.456	28.38
784.633	27.78
784.809	27.71
784.986	25.67
785.162	26.34
785.339	26.42
785.515	22.97
785.692	23.8
785.868	24.72
786.044	27.08
786.221	26.85
786.397	24.51
786.573	23.06
786.749	24.17
786.926	26.01
787.102	23.22
787.278	24.26
787.454	26.56
787.631	25.01
787.807	28.45
787.983	28.26
788.159	30.34
788.335	30.45
788.511	32.6
788.687	31.31
788.863	32.3
789.039	32.96
789.216	32.55
789.392	33.18
789.568	32.25
789.744	32.02
789.919	31.22
790.095	30.4
790.271	32.39
790.447	31.23
790.623	29.96
790.799	29.36
790.975	30.88
791.151	32.2
791.327	30.47
791.502	32.95
791.678	34.3
791.854	33.4
792.03	33.67
792.205	33.03
792.381	32.07
792.557	34.82
792.733	36.08
792.908	37.6
793.084	35.94
793.259	35.54
793.435	31.84
793.611	27.85
793.786	29.89
793.962	28.65
794.137	28.41
794.313	28.7
794.488	26.91
794.664	23.57
794.839	20.57
795.015	19.51
795.19	21.17
795.366	21.9
795.541	23.75
795.716	24.45
795.892	24.76
796.067	24.78
796.242	24.8
796.418	25.69
796.593	25.71
796.768	25.92
796.944	28.21
797.119	27.2
797.294	30
797.469	30.46
797.644	30.28
797.82	30.23
797.995	29.19
798.17	29.85
798.345	29.72
798.52	30.57
798.695	30.98
798.87	30.04
799.045	32.33
799.22	31.02
799.395	30.55
799.57	29.66
799.745	29.18
799.92	29.43
800.095	27.9
800.27	26.34
800.445	26.79
800.62	27.64
800.795	25.71
800.97	25.09
801.145	23.77
801.319	20.96
801.494	20.41
801.669	17.6
801.844	18.77
802.018	19.54
802.193	19.53
802.368	19.09
802.543	16.65
802.717	15.76
802.892	14.33
803.067	17.2
803.241	19.58
803.416	19.82
803.59	23.26
803.765	21.14
803.94	23.32
804.114	23.96
804.289	23.94
804.463	25.64
804.638	28.34
804.812	27.78
804.986	25.45
805.161	27.36
805.335	27.81
805.51	27.66
805.684	25.55
805.858	24.8
806.033	24.53
806.207	23.81
806.381	20
806.556	19.7
806.73	19.74
806.904	21.81
807.078	18.33
807.253	20.05
807.427	19.25
807.601	22.79
807.775	21.34
807.949	23.56
808.123	23.67
808.298	24.62
808.472	25.34
808.646	26.3
808.82	26.41
808.994	26.86
809.168	25.02
809.342	25.49
809.516	25.17
809.69	21.46
809.864	21.68
810.038	21.14
810.212	27.44
810.385	25.92
810.559	24.35
810.733	23.51
810.907	21.64
811.081	25.7
811.255	24.75
811.428	28.62
811.602	33.97
811.776	32.78
811.95	34.2
812.123	32.67
812.297	34.36
812.471	34.81
812.644	37.34
812.818	41.68
812.992	39.71
813.165	43.36
813.339	44.02
813.512	43.63
813.686	46.35
813.86	44.69
814.033	40.21
814.207	44.03
814.38	47.46
814.554	43.91
814.727	42.17
814.9	38.75
815.074	37.87
815.247	35.09
815.421	35.93
815.594	33.62
815.767	34.72
815.941	37.34
816.114	35.58
816.287	30.34
816.46	27.78
816.634	30.82
816.807	33.44
816.98	34.75
817.153	35.43
817.327	33.67
817.5	33.77
817.673	35.13
817.846	34.58
818.019	35.18
818.192	35.62
818.365	36.31
818.538	33.28
818.711	32.24
818.884	30.59
819.057	27.36
819.23	28.53
819.403	28.21
819.576	25.96
819.749	27.58
819.922	25.05
820.095	25.79
820.268	27.05
820.441	30.77
820.614	30.67
820.786	30.66
820.959	31.67
821.132	31.26
821.305	31.09
821.477	31.96
821.65	31.86
821.823	32.8
821.996	32.85
822.168	33.47
822.341	32.36
822.514	32.95
822.686	32.79
822.859	32.65
823.031	32.75
823.204	33.06
823.376	33.13
823.549	33.05
823.722	32.23
823.894	31.72
824.067	30.83
824.239	30.95
824.411	30.23
824.584	29.91
824.756	30.37
824.929	30.27
825.101	30.13
825.273	29.82
825.446	29.06
825.618	30.21
825.79	30.88
825.963	31.12
826.135	31.63
826.307	33.29
826.479	33.92
826.652	32.58
826.824	33.05
826.996	32.76
827.168	32.79
827.34	33.04
827.512	32.88
827.684	32.32
827.856	32.92
828.029	32.81
828.201	31.16
828.373	31
828.545	31.61
828.717	31.27
828.889	32.03
829.061	32.76
829.232	32.73
829.404	31.36
829.576	30.52
829.748	30.09
829.92	28.61
830.092	29.13
830.264	29.28
830.436	30.75
830.607	32.04
830.779	32.16
830.951	31.49
831.123	31.24
831.294	33.49
831.466	35.8
831.638	35.01
831.809	36.45
831.981	35.57
832.153	36.83
832.324	35.35
832.496	32.17
832.667	27.04
832.839	24.53
833.011	25.24
833.182	24.72
833.354	26.46
833.525	27.84
833.697	27.79
833.868	28.53
834.039	26.41
834.211	28.99
834.382	29.67
834.554	30.94
834.725	32.32
834.896	32.66
835.068	32.51
835.239	30.58
835.41	31.45
835.581	30.02
835.753	30.2
835.924	30.23
836.095	28.42
836.266	28.7
836.438	30.3
836.609	30.7
836.78	30.39
836.951	27.7
837.122	28.84
837.293	26.36
837.464	28.33
837.635	28.01
837.806	29.92
837.977	27.19
838.148	28.23
838.319	25.85
838.49	23.34
838.661	22.46
838.832	28.19
839.003	28.97
839.174	29.28
839.345	33.47
839.516	31.09
839.687	30.9
839.857	35.44
840.028	29.08
840.199	30.83
840.37	30.17
840.54	30.12
840.711	31.22
840.882	31.66
841.053	32.75
841.223	24.96
841.394	24.64
841.564	22.82
841.735	22.64
841.906	23.28
842.076	23.45
842.247	26.9
842.417	26.82
842.588	18.38
842.758	18.09
842.929	16.34
843.099	16.28
843.27	20.86
843.44	19.84
843.611	18.57
843.781	21.36
843.951	21.27
844.122	21.16
844.292	23.54
844.462	27.29
844.633	24.44
844.803	24.23
844.973	25.04
845.144	20.23
845.314	18.33
845.484	19.47
845.654	15.35
845.824	9.74
845.995	2.89
846.165	-2.66
846.335	-0.28
846.505	-1.11
846.675	-0.89
846.845	1.67
847.015	2.18
847.185	15.13
847.355	19.25
847.525	19.33
847.695	15.94
847.865	20.43
848.035	19.18
848.205	10.93
848.375	12.12
848.545	17.2
848.715	31.67
848.884	30.11
849.054	20.37
849.224	15.21
849.394	29.09
849.564	36.13
849.733	27.85
849.903	33.58
850.073	42.45
850.243	37.19
850.412	27.91
850.582	15.69
850.752	14.36
850.921	16.45
851.091	15.33
851.26	14.92
851.43	5.29
851.599	9.33
851.769	3.84
851.939	1.35
852.108	10.59
852.278	26.66
852.447	20.63
852.616	23.88
852.786	18.79
852.955	25.51
853.125	17.71
853.294	22.18
853.463	31.12
853.633	31.08
853.802	28.03
853.971	21.31
854.141	11.66
854.31	22.86
854.479	17.96
854.648	27.74
854.818	17.15
854.987	24.89
855.156	23.07
855.325	16.5
855.494	17.18
855.663	19.5
855.832	22.79
856.001	26.26
856.171	19.19
856.34	20.96
856.509	16.25
856.678	23.95
856.847	12.54
857.016	24.34
857.185	49.85
857.353	59.92
857.522	50.19
857.691	51.89
857.86	52.94
858.029	56.76
858.198	54.43
858.367	47.96
858.535	46.99
858.704	33.89
858.873	23.18
859.042	-10.08
859.21	-44.49
859.379	-31.78
859.548	-30.21
859.717	-51.86
859.885	-46.98
860.054	-30.43
860.222	-7.52
860.391	3.1
860.56	3.37
860.728	15.94
860.897	25.37
861.065	26.74
861.234	35.17
861.402	24.61
861.571	32.41
861.739	33.66
861.908	25.19
862.076	17.94
862.244	17.9
862.413	25.79
862.581	14.07
862.749	17.17
862.918	21.52
863.086	-1.53
863.254	-6.16
863.423	-34.99
863.591	-25.52
863.759	-46.16
863.927	-26.69
864.096	-32.93
864.264	-84.71
864.432	-59.46
864.6	-91.26
864.768	-60.78
864.936	-35.93
865.104	-32.43
865.272	-27.25
865.44	-36.92
865.608	-39.75
865.776	-65.03
865.944	-68.47
866.112	-50.95
866.28	-33.5
866.448	-26.34
866.616	-28.89
866.784	-29.39
866.952	-32.16
867.12	-34.55
867.288	-30.41
867.455	-19.54
867.623	-12.95
867.791	18.1
867.959	14.3
868.127	-13.01
868.294	-2.7
868.462	1.41
868.63	17.24
868.797	23.71
868.965	27.3
869.133	32.03
869.3	33.75
869.468	34.75
869.636	22.39
869.803	27.13
869.971	36.18
870.138	34.99
870.306	31.44
870.473	27.14
870.641	21.5
870.808	19.61
870.975	7.32
871.143	-0.92
871.31	-12.89
871.478	-20.37
871.645	-17.22
871.812	-28.35
871.98	-9.62
872.147	-0.89
872.314	4.49
872.482	10.96
872.649	-8.76
872.816	2.38
872.983	22.09
873.15	33.89
873.318	23.65
873.485	15.91
873.652	23.45
873.819	27.23
873.986	9.31
874.153	11.64
874.32	4.11
874.487	12.69
874.654	15.62
874.821	20.74
874.988	13.7
875.155	31.54
875.322	25.39
875.489	25
875.656	13.22
875.823	21.47
875.99	17.72
876.157	31.97
876.324	33.4
876.49	32.33
876.657	22.88
876.824	24.19
876.991	15.12
877.157	26.07
877.324	31.53
877.491	45.34
877.658	52.31
877.824	61.88
877.991	48.21
878.157	44.51
878.324	52.45
878.491	37.9
878.657	28.36
878.824	38.13
878.99	23.6
879.157	26.16
879.323	19.07
879.49	10.23
879.656	8.01
879.823	9.64
879.989	21.27
880.156	19.99
880.322	28.11
880.488	30.67
880.655	32.17
880.821	32.85
880.987	35.2
881.154	25.54
881.32	26.38
881.486	25.63
881.652	29.59
881.819	25.69
881.985	22.16
882.151	27.2
882.317	30.79
882.483	31.19
882.649	29.98
882.816	27.58
882.982	30.71
883.148	31.24
883.314	29.4
883.48	29.19
883.646	31.02
883.812	31
883.978	28.7
884.144	26.3
884.31	24.93
884.476	26.77
884.642	28.6
884.807	28.13
884.973	28.89
885.139	30.29
885.305	30.37
885.471	28.97
885.637	31.83
885.802	31.02
885.968	31.61
886.134	34.35
886.3	34.62
886.465	31.31
886.631	31.56
886.797	32.57
886.962	31.49
887.128	26.58
887.293	25.29
887.459	18.69
887.625	18.48
887.79	16.37
887.956	10.82
888.121	3.92
888.287	5.83
888.452	1.16
888.618	-11.28
888.783	-13.54
