Data from CB_008_Reflection_1.txt Node
Date: Wed Nov 11 18:34:40 EST 2015
User: robert
Spectrometer: USB4E03001
Autoset integration time: false
Trigger mode: 4
Integration Time (sec): 1.000000E-1
Scans to average: 15
Electric dark correction enabled: true
Nonlinearity correction enabled: false
Boxcar width: 5
Stray light correction enabled: false
XAxis mode: Wavelengths
Stop averaging: false
Number of Pixels in Spectrum: 3648
>>>>>Begin Spectral Data<<<<<
177.566	4.75
177.785	47.87
178.005	-23.29
178.225	-1421.85
178.445	366.13
178.665	231.58
178.885	73.8
179.105	372.96
179.324	187.97
179.544	-85.33
179.764	11.59
179.984	53.59
180.204	46.8
180.423	19.07
180.643	-181.3
180.863	1123.33
181.083	2534.71
181.302	371.12
181.522	-241.02
181.742	-196.34
181.961	233.45
182.181	102.18
182.401	141.81
182.621	460.54
182.84	125.34
183.06	103.79
183.279	95.98
183.499	264.86
183.719	263.8
183.938	212
184.158	329.45
184.377	-752.69
184.597	-260.6
184.816	-163.89
185.036	-332.94
185.256	-109.42
185.475	462.75
185.695	-5393.1
185.914	212.45
186.134	133.6
186.353	167.13
186.572	193.49
186.792	141.61
187.011	80.55
187.231	56.14
187.45	101.04
187.67	124.48
187.889	1180.38
188.108	438.19
188.328	606.34
188.547	-548.17
188.766	-818.35
188.986	343.39
189.205	-14531.82
189.424	450.77
189.644	2276.86
189.863	166.29
190.082	162.21
190.302	103.07
190.521	44.47
190.74	81.74
190.959	80.73
191.178	81.51
191.398	86.71
191.617	76.56
191.836	68.57
192.055	86.58
192.274	97.05
192.494	84.66
192.713	88.63
192.932	85.63
193.151	82.42
193.37	80.13
193.589	56.87
193.808	66.19
194.027	56.27
194.246	73.73
194.465	60.82
194.685	61.45
194.904	73.2
195.123	179.52
195.342	655.61
195.561	106.24
195.78	125.15
195.999	209.12
196.218	746.88
196.436	-242.95
196.655	-1052.45
196.874	633.75
197.093	608.49
197.312	464.83
197.531	-49.74
197.75	-206.2
197.969	-32.1
198.188	20.69
198.407	16.91
198.625	-132.47
198.844	-123.66
199.063	-118.77
199.282	-56.82
199.501	7.33
199.719	-45.69
199.938	-1436.72
200.157	207.18
200.376	164.14
200.594	317.92
200.813	-7054.29
201.032	243.27
201.251	111.92
201.469	117.93
201.688	160.56
201.907	168.76
202.125	140.97
202.344	117.58
202.563	145.83
202.781	156.02
203	117.71
203.218	96.14
203.437	97.23
203.656	101.95
203.874	100.79
204.093	98.71
204.311	60.32
204.53	28.31
204.748	-42.01
204.967	-120.26
205.185	-55.97
205.404	-6.79
205.622	-12.59
205.841	10.72
206.059	-41.01
206.278	-54.84
206.496	-85.08
206.715	0.79
206.933	134.73
207.151	158.09
207.37	171.42
207.588	191.89
207.806	221.44
208.025	244.33
208.243	289.1
208.461	165.72
208.68	130.01
208.898	125.18
209.116	61.18
209.335	52.2
209.553	-15.15
209.771	147.19
209.989	-864.35
210.208	-242.23
210.426	-220
210.644	-8.79
210.862	7.17
211.081	-25.69
211.299	-124.84
211.517	-288.97
211.735	-270.61
211.953	-424.26
212.171	-99.21
212.39	-663.76
212.608	-2533.59
212.826	371.64
213.044	314.05
213.262	303.07
213.48	198.42
213.698	288.44
213.916	-1246.35
214.134	-548.61
214.352	-1075.48
214.57	775.38
214.788	247.73
215.006	246.85
215.224	204.43
215.442	90.79
215.66	106.36
215.878	154.9
216.096	131.62
216.314	90.94
216.532	90.26
216.75	94.85
216.968	81.87
217.185	108.77
217.403	141.33
217.621	161.69
217.839	250.21
218.057	4004.02
218.275	-1193.32
218.492	-97.14
218.71	-57.09
218.928	-40.23
219.146	-19.34
219.363	-14.97
219.581	-44.19
219.799	-28.1
220.017	-4.71
220.234	8.87
220.452	29.46
220.67	15.88
220.887	10.21
221.105	-5.83
221.323	-51.01
221.54	-8.04
221.758	-3.21
221.976	-2.36
222.193	7.85
222.411	-21.37
222.629	-53.12
222.846	-63.9
223.064	-22.8
223.281	-26.37
223.499	-40.94
223.716	-29.11
223.934	-137.28
224.151	-393.1
224.369	-166.52
224.586	87400
224.804	-132.22
225.021	26.32
225.239	80.53
225.456	-20.61
225.674	-94.47
225.891	-53.39
226.108	-44.02
226.326	-36.21
226.543	-26.47
226.76	-29.97
226.978	-9.31
227.195	-14.08
227.413	-10.22
227.63	-13.97
227.847	-17.52
228.064	-9.22
228.282	-1.61
228.499	5.47
228.716	10.06
228.934	12.14
229.151	11.8
229.368	11.23
229.585	12.69
229.802	14.69
230.02	15.94
230.237	18.75
230.454	21.25
230.671	23.36
230.888	18.43
231.105	16.11
231.323	14.28
231.54	16.66
231.757	9.43
231.974	8.2
232.191	3.6
232.408	3.03
232.625	-2.75
232.842	-6.7
233.059	-0.81
233.276	6.37
233.493	4.12
233.71	7.98
233.927	6.82
234.144	12.18
234.361	9.52
234.578	9.31
234.795	6.38
235.012	8.13
235.229	9.61
235.446	0.53
235.663	-5.26
235.879	-2.67
236.096	-2.76
236.313	-8.28
236.53	-10.56
236.747	1.9
236.964	2.94
237.181	3.58
237.397	10.74
237.614	4.01
237.831	0.67
238.048	2.89
238.264	-1.64
238.481	-8.62
238.698	-1.71
238.915	-4.33
239.131	-10.93
239.348	-19.56
239.565	-16.33
239.781	-18.57
239.998	-10.68
240.215	-8.52
240.431	-8.55
240.648	-0.41
240.865	4.43
241.081	0.89
241.298	4.06
241.514	4.13
241.731	8.94
241.947	9.72
242.164	9.98
242.38	10.26
242.597	10.78
242.814	11.98
243.03	10.19
243.246	9.93
243.463	11.82
243.679	10.53
243.896	9.57
244.112	8.11
244.329	7.48
244.545	9.22
244.762	8.58
244.978	8.8
245.194	3.94
245.411	1.54
245.627	-1.61
245.843	0.02
246.06	3.27
246.276	5.7
246.492	5.45
246.709	6.29
246.925	5.18
247.141	5.08
247.357	5.91
247.574	8.97
247.79	10.09
248.006	10.31
248.222	10.51
248.439	9.78
248.655	9.64
248.871	10.08
249.087	9.82
249.303	9.85
249.519	9.65
249.736	8.7
249.952	4.77
250.168	-0.28
250.384	1.1
250.6	0.17
250.816	-0.83
251.032	-2.35
251.248	-1.06
251.464	-0.98
251.68	-1.09
251.896	1.16
252.112	0.34
252.328	3.2
252.544	5.59
252.76	5.65
252.976	4.99
253.192	6.48
253.408	5.9
253.624	6.11
253.84	5.78
254.056	6.94
254.272	6.14
254.487	7.65
254.703	7.16
254.919	8.97
255.135	7.11
255.351	5.12
255.567	3.96
255.782	7.48
255.998	6.38
256.214	6.75
256.43	6.8
256.646	6.32
256.861	2.86
257.077	1.99
257.293	-1.84
257.508	1.05
257.724	2.39
257.94	1.93
258.155	-0.4
258.371	0.83
258.587	-0.16
258.802	0.64
259.018	1.58
259.234	3.71
259.449	4.3
259.665	5.51
259.88	4.63
260.096	4.24
260.312	4.53
260.527	5.59
260.743	5.13
260.958	5.2
261.174	5.37
261.389	4.55
261.605	3.46
261.82	3.04
262.036	3.35
262.251	4.23
262.466	5.81
262.682	4.73
262.897	4.14
263.113	3.23
263.328	4.45
263.543	4
263.759	4.72
263.974	5.12
264.189	4.23
264.405	3.36
264.62	2.81
264.835	1.47
265.051	3.3
265.266	0.73
265.481	2.78
265.696	2.34
265.912	1.09
266.127	0.63
266.342	0.66
266.557	-0.45
266.773	-0.35
266.988	-0.52
267.203	-2.82
267.418	-2.89
267.633	-2.15
267.848	-3.17
268.064	-4.02
268.279	-3.7
268.494	-3.22
268.709	-1.49
268.924	-0.36
269.139	0.05
269.354	0.58
269.569	4.3
269.784	3.88
269.999	3.84
270.214	3.29
270.429	3.19
270.644	3.24
270.859	2.76
271.074	2.18
271.289	2.64
271.504	2.12
271.719	1.26
271.934	-0.44
272.149	0.16
272.363	1.2
272.578	1.68
272.793	4.42
273.008	4.05
273.223	4.68
273.438	4.69
273.653	4.49
273.867	5.17
274.082	5.59
274.297	6.57
274.512	6.37
274.726	5.82
274.941	6.14
275.156	3.4
275.371	4.03
275.585	3.87
275.8	3.38
276.015	2.94
276.229	1.51
276.444	1.29
276.659	0.08
276.873	-0.06
277.088	1.02
277.302	-0.14
277.517	-0.73
277.732	-0.23
277.946	-0.4
278.161	-0.29
278.375	-0.4
278.59	-0.33
278.804	-0.28
279.019	0.85
279.233	1.34
279.448	0.65
279.662	1.51
279.877	0.95
280.091	1.4
280.306	2.22
280.52	1.15
280.735	1.31
280.949	3.14
281.163	4.29
281.378	3.84
281.592	4.36
281.806	3.95
282.021	4.26
282.235	5.16
282.449	3.38
282.664	1.51
282.878	2.22
283.092	3.48
283.307	3.29
283.521	3.44
283.735	4.84
283.949	3.54
284.164	4.4
284.378	5.79
284.592	6.24
284.806	7.8
285.02	8.08
285.234	7.87
285.449	7.74
285.663	7.64
285.877	7.58
286.091	7.23
286.305	7.57
286.519	7.26
286.733	6.98
286.947	6.14
287.161	5.9
287.375	6.5
287.589	6.9
287.803	6.92
288.017	7.13
288.231	6.04
288.445	5.44
288.659	5.05
288.873	5.11
289.087	3.99
289.301	4.81
289.515	4.69
289.729	5.18
289.943	6.28
290.157	5.94
290.371	4.97
290.584	6.13
290.798	6.76
291.012	7.39
291.226	7.76
291.44	7.96
291.654	8.51
291.867	8.14
292.081	6.98
292.295	6.44
292.509	6.8
292.722	7.4
292.936	5.6
293.15	4.81
293.364	5.37
293.577	5.62
293.791	6.28
294.005	5.82
294.218	5.95
294.432	7.31
294.645	7.37
294.859	6.76
295.073	6.04
295.286	6.28
295.5	6.54
295.713	6.7
295.927	7.01
296.14	6.69
296.354	7.07
296.568	7.09
296.781	6.12
296.994	4.81
297.208	4.89
297.421	6.8
297.635	7.31
297.848	7.87
298.062	8.03
298.275	6.45
298.489	5.84
298.702	5.03
298.915	5.79
299.129	7.22
299.342	8
299.555	8.15
299.769	7.36
299.982	7.33
300.195	7.76
300.409	7.55
300.622	9.49
300.835	10.1
301.048	11.48
301.262	11.14
301.475	9.72
301.688	10.17
301.901	10.73
302.115	10.14
302.328	10.11
302.541	9.33
302.754	8.54
302.967	7.7
303.18	8.12
303.393	8.1
303.607	8.91
303.82	9.67
304.033	9.74
304.246	9.53
304.459	9.18
304.672	9.28
304.885	8.83
305.098	10.13
305.311	11.07
305.524	10.5
305.737	10.63
305.95	9.75
306.163	9.34
306.376	8.49
306.589	7.63
306.802	8.65
307.015	7.9
307.228	6.42
307.44	6.45
307.653	6.65
307.866	7.42
308.079	6.64
308.292	7.3
308.505	8.68
308.718	9.89
308.93	10.76
309.143	10.38
309.356	9.82
309.569	11.1
309.781	11.24
309.994	9.8
310.207	9.41
310.42	9.38
310.632	8.98
310.845	7.94
311.058	8.67
311.27	8.54
311.483	9.17
311.696	10.07
311.908	9.85
312.121	9.33
312.333	10.05
312.546	10.2
312.759	10.07
312.971	9.58
313.184	9.1
313.396	9.1
313.609	9.91
313.821	9.32
314.034	10.02
314.246	10.62
314.459	10.81
314.671	10.84
314.884	10.97
315.096	12.05
315.309	12.1
315.521	13.29
315.733	10.59
315.946	9.43
316.158	8.61
316.371	8.01
316.583	7.5
316.795	6.99
317.008	7.82
317.22	8
317.432	7.26
317.644	7.32
317.857	7.34
318.069	8.89
318.281	8.17
318.494	9.05
318.706	8.39
318.918	7.97
319.13	7.06
319.342	5.51
319.555	5.81
319.767	5.68
319.979	6.04
320.191	5
320.403	3.6
320.615	3.47
320.827	2.8
321.039	4.85
321.252	5.14
321.464	5.59
321.676	5.39
321.888	5.07
322.1	4.96
322.312	5.69
322.524	7.39
322.736	9.43
322.948	9.61
323.16	10.7
323.372	9.79
323.584	10.33
323.796	11.89
324.007	12.42
324.219	12.49
324.431	13.68
324.643	13.96
324.855	13.19
325.067	12.67
325.279	13.45
325.491	12.24
325.702	12.27
325.914	12.21
326.126	11.29
326.338	11.23
326.55	11.81
326.761	11.51
326.973	11.01
327.185	11.76
327.396	11.69
327.608	11.39
327.82	13.56
328.032	13.67
328.243	13.71
328.455	14.29
328.666	14.57
328.878	13.37
329.09	13.72
329.301	12.31
329.513	11.78
329.725	11.66
329.936	11.05
330.148	10.09
330.359	10.16
330.571	11.14
330.782	10.95
330.994	11.15
331.205	12.12
331.417	12.2
331.628	12.45
331.84	11.8
332.051	11.55
332.262	11.01
332.474	10.03
332.685	10
332.897	8.96
333.108	8.3
333.319	9.22
333.531	9.24
333.742	9.25
333.953	11.33
334.165	12.23
334.376	12.18
334.587	13.4
334.799	13.02
335.01	12.82
335.221	13.9
335.432	15.19
335.644	14.22
335.855	14.08
336.066	13.65
336.277	12.85
336.488	12.52
336.7	12.75
336.911	13.85
337.122	14.41
337.333	14.96
337.544	14.89
337.755	14.7
337.966	13.84
338.177	13.95
338.388	13.62
338.599	14.08
338.811	13.86
339.022	13.69
339.233	12.91
339.444	12.84
339.655	14.13
339.866	13.94
340.076	13.87
340.287	15.41
340.498	15.78
340.709	16
340.92	15.45
341.131	15.44
341.342	15.64
341.553	15.62
341.764	15.24
341.975	13.63
342.185	13.82
342.396	14.39
342.607	12.81
342.818	11.18
343.029	10.97
343.239	11.47
343.45	11.2
343.661	11.78
343.872	11.94
344.082	12.48
344.293	12.56
344.504	11.96
344.714	11.4
344.925	12.66
345.136	13.11
345.346	14.66
345.557	14.71
345.768	14.78
345.978	14.79
346.189	14.53
346.399	15.06
346.61	15.07
346.821	15.15
347.031	14.31
347.242	14.71
347.452	14.88
347.663	13.35
347.873	13.44
348.084	13.9
348.294	13.91
348.504	13.43
348.715	13.18
348.925	13.23
349.136	12.89
349.346	13.85
349.557	13.3
349.767	13.37
349.977	12.84
350.188	13.13
350.398	13.36
350.608	13.4
350.819	14.16
351.029	13.67
351.239	13.86
351.449	14.37
351.66	13.92
351.87	14.53
352.08	15.08
352.29	16.18
352.501	15.65
352.711	15.23
352.921	14.87
353.131	14.85
353.341	15.52
353.552	15.44
353.762	14.84
353.972	14.83
354.182	14.84
354.392	13.66
354.602	13.25
354.812	12.86
355.022	12.87
355.232	12.9
355.442	12.31
355.652	11.67
355.862	12.57
356.072	12.73
356.282	12.99
356.492	12.57
356.702	14.13
356.912	14.31
357.122	13.95
357.332	14.04
357.542	13.92
357.752	14.04
357.962	14.24
358.171	13.6
358.381	13.09
358.591	13.29
358.801	13.78
359.011	13.71
359.221	13.93
359.43	14.22
359.64	14.5
359.85	15.02
360.06	15.02
360.269	15.25
360.479	15.16
360.689	15.99
360.899	16.11
361.108	15.71
361.318	15.55
361.528	14.72
361.737	14.76
361.947	14.48
362.156	14.1
362.366	14.42
362.576	13.76
362.785	13.54
362.995	13.31
363.204	12.52
363.414	12.24
363.623	12.04
363.833	12.77
364.042	12.95
364.252	12.89
364.461	13.32
364.671	12.9
364.88	13.34
365.09	13.17
365.299	13.18
365.509	13.23
365.718	13.34
365.927	12.45
366.137	12.15
366.346	11.46
366.555	10.96
366.765	10.02
366.974	10.21
367.183	9.76
367.393	9.76
367.602	9.45
367.811	9.63
368.021	9.41
368.23	10.28
368.439	9.37
368.648	9.8
368.857	10.35
369.067	10.09
369.276	10.1
369.485	10.29
369.694	10.63
369.903	10.76
370.112	10.69
370.321	10.33
370.531	9.95
370.74	9.93
370.949	9.89
371.158	9.92
371.367	10.09
371.576	10.3
371.785	10.26
371.994	10.13
372.203	9.99
372.412	10.33
372.621	10.84
372.83	11.3
373.039	12.26
373.248	12.39
373.457	12.12
373.666	12.52
373.874	12.22
374.083	12.36
374.292	12.13
374.501	12.45
374.71	12.22
374.919	12.77
375.128	12.5
375.336	11.7
375.545	11.08
375.754	10.15
375.963	10.22
376.171	10.27
376.38	10.33
376.589	10.47
376.798	10.07
377.006	9.35
377.215	9.02
377.424	8.9
377.632	9.62
377.841	9.84
378.05	10.15
378.258	9.67
378.467	9.68
378.675	9.08
378.884	8.8
379.093	8.79
379.301	9.64
379.51	9.24
379.718	8.82
379.927	8.64
380.135	8.35
380.344	8.78
380.552	9.35
380.761	8.91
380.969	9.06
381.177	9.4
381.386	9.09
381.594	8.62
381.803	8.79
382.011	9.18
382.219	8.38
382.428	8.26
382.636	8.65
382.845	8.08
383.053	8.24
383.261	8.09
383.469	8.08
383.678	8.33
383.886	8.24
384.094	7.98
384.302	7.56
384.511	7.64
384.719	7.79
384.927	7.61
385.135	7.73
385.343	7.44
385.552	7.81
385.76	7.23
385.968	7.07
386.176	7
386.384	6.72
386.592	6.62
386.8	6.51
387.008	6.31
387.216	6.31
387.424	6.54
387.633	7
387.841	6.88
388.049	6.59
388.257	6.54
388.465	6.64
388.672	6.63
388.88	6.86
389.088	7.3
389.296	7.64
389.504	7.59
389.712	7.09
389.92	6.84
390.128	6.64
390.336	6.78
390.544	6.57
390.751	6.49
390.959	6.55
391.167	6.42
391.375	6.23
391.583	5.91
391.79	5.22
391.998	5.27
392.206	5.04
392.414	5.1
392.621	5.3
392.829	5.84
393.037	5.73
393.244	5.41
393.452	5.13
393.66	4.81
393.867	4.63
394.075	5.09
394.283	4.95
394.49	5.22
394.698	5.38
394.905	5.43
395.113	4.81
395.32	4.97
395.528	5.13
395.735	5.48
395.943	5.64
396.15	5.88
396.358	5.82
396.565	5.86
396.773	5.54
396.98	5.19
397.188	5.06
397.395	5.48
397.602	5.27
397.81	5.39
398.017	5.33
398.225	5.53
398.432	5.45
398.639	5.34
398.847	5.23
399.054	5.08
399.261	4.89
399.468	4.76
399.676	4.84
399.883	4.68
400.09	4.94
400.297	4.7
400.505	4.39
400.712	4.51
400.919	4.71
401.126	4.61
401.333	5.02
401.54	5.33
401.748	5.1
401.955	4.55
402.162	4.74
402.369	4.4
402.576	4.53
402.783	4.78
402.99	4.93
403.197	4.63
403.404	4.54
403.611	4.23
403.818	4.26
404.025	4.53
404.232	4.78
404.439	4.78
404.646	4.37
404.853	4.56
405.06	4.41
405.267	4.26
405.474	4.2
405.681	4.55
405.887	4.55
406.094	4.51
406.301	4.59
406.508	4.57
406.715	4.51
406.922	4.91
407.128	4.63
407.335	4.61
407.542	4.54
407.749	4.8
407.955	4.7
408.162	4.81
408.369	4.81
408.575	4.8
408.782	4.96
408.989	5.05
409.195	5.09
409.402	5.23
409.609	5.28
409.815	5.41
410.022	5.17
410.228	5.17
410.435	5.24
410.642	4.98
410.848	4.98
411.055	4.64
411.261	4.27
411.468	4.27
411.674	3.99
411.881	3.79
412.087	3.7
412.294	4.02
412.5	3.92
412.706	3.82
412.913	3.87
413.119	3.55
413.326	3.83
413.532	3.96
413.738	3.99
413.945	3.97
414.151	4.17
414.357	4.12
414.564	3.95
414.77	3.78
414.976	3.74
415.182	3.91
415.389	4.06
415.595	4.05
415.801	4.04
416.007	4.24
416.214	4.41
416.42	4.27
416.626	4.27
416.832	4.23
417.038	4.19
417.244	4.14
417.45	4.29
417.657	4.1
417.863	3.99
418.069	4.04
418.275	3.92
418.481	3.94
418.687	3.94
418.893	3.85
419.099	3.76
419.305	4.01
419.511	4.19
419.717	4.18
419.923	4.25
420.129	4.27
420.335	4.22
420.541	4.13
420.746	4.22
420.952	4.28
421.158	4.38
421.364	4.44
421.57	4.34
421.776	4.09
421.982	3.9
422.187	3.8
422.393	3.71
422.599	3.86
422.805	3.95
423.01	3.89
423.216	3.76
423.422	3.62
423.628	3.6
423.833	3.69
424.039	3.84
424.245	3.87
424.45	4.11
424.656	4.12
424.862	4.01
425.067	4.07
425.273	4.1
425.478	4.2
425.684	4.36
425.889	4.33
426.095	4.2
426.301	4.21
426.506	4.29
426.712	4.25
426.917	4.45
427.123	4.47
427.328	4.29
427.533	4.23
427.739	4.16
427.944	4.05
428.15	4.13
428.355	4.31
428.561	4.27
428.766	4.09
428.971	3.94
429.177	3.74
429.382	3.56
429.587	3.55
429.793	3.27
429.998	3.31
430.203	3.31
430.408	2.9
430.614	2.66
430.819	2.74
431.024	2.67
431.229	2.79
431.434	2.81
431.64	2.81
431.845	2.83
432.05	3.18
432.255	3.18
432.46	3.12
432.665	3.52
432.87	3.6
433.076	3.71
433.281	3.66
433.486	3.68
433.691	3.55
433.896	3.56
434.101	3.56
434.306	3.64
434.511	3.55
434.716	3.58
434.921	3.51
435.126	3.43
435.331	3.16
435.535	3.39
435.74	3.27
435.945	3.54
436.15	3.63
436.355	3.59
436.56	3.31
436.765	3.29
436.97	3.25
437.174	3.19
437.379	3.18
437.584	3.27
437.789	3.12
437.993	3.14
438.198	3.13
438.403	3.28
438.608	3.48
438.812	3.41
439.017	3.61
439.222	3.72
439.426	3.73
439.631	3.81
439.836	3.81
440.04	3.92
440.245	3.98
440.45	3.88
440.654	3.93
440.859	3.72
441.063	3.83
441.268	3.83
441.472	3.93
441.677	3.93
441.881	3.85
442.086	3.79
442.29	3.75
442.495	3.72
442.699	3.75
442.904	3.69
443.108	3.74
443.312	3.75
443.517	3.66
443.721	3.54
443.925	3.77
444.13	3.96
444.334	4.14
444.538	4.24
444.743	4.23
444.947	4.19
445.151	4.02
445.356	4.11
445.56	4
445.764	4.02
445.968	3.89
446.173	3.62
446.377	3.55
446.581	3.39
446.785	3.35
446.989	3.36
447.193	3.36
447.398	3.4
447.602	3.4
447.806	3.41
448.01	3.34
448.214	3.42
448.418	3.55
448.622	3.67
448.826	3.63
449.03	3.58
449.234	3.52
449.438	3.46
449.642	3.4
449.846	3.14
450.05	3.09
450.254	3.21
450.458	3.11
450.662	3.05
450.866	2.82
451.069	2.82
451.273	2.96
451.477	3.04
451.681	3.07
451.885	3.16
452.089	3.21
452.292	3.3
452.496	3.43
452.7	3.47
452.904	3.44
453.107	3.39
453.311	3.53
453.515	3.21
453.719	3.3
453.922	3.36
454.126	3.4
454.33	3.47
454.533	3.43
454.737	3.29
454.94	3.3
455.144	3.35
455.348	3.53
455.551	3.51
455.755	3.72
455.958	3.37
456.162	3.26
456.365	3.16
456.569	3.09
456.772	3.29
456.976	3.26
457.179	3.29
457.383	3.29
457.586	3.08
457.79	3.03
457.993	2.86
458.196	2.97
458.4	3.07
458.603	3.16
458.807	3.27
459.01	3.09
459.213	3.08
459.417	2.95
459.62	2.94
459.823	2.98
460.026	2.97
460.23	3.07
460.433	3.01
460.636	2.93
460.839	2.93
461.042	2.85
461.246	2.84
461.449	2.83
461.652	2.95
461.855	2.98
462.058	2.92
462.261	2.83
462.464	2.86
462.668	3.06
462.871	2.99
463.074	2.98
463.277	3.08
463.48	3.17
463.683	3.13
463.886	3.25
464.089	3.09
464.292	3.17
464.495	3.32
464.698	3.42
464.901	3.66
465.104	3.74
465.306	3.71
465.509	3.55
465.712	3.51
465.915	3.71
466.118	3.86
466.321	3.79
466.524	3.83
466.726	4
466.929	3.92
467.132	3.44
467.335	3.42
467.538	3.38
467.74	3.48
467.943	3.56
468.146	3.52
468.348	3.27
468.551	3.49
468.754	3.68
468.956	3.54
469.159	3.5
469.362	3.71
469.564	3.83
469.767	3.84
469.969	3.95
470.172	3.95
470.375	3.91
470.577	3.78
470.78	3.81
470.982	3.63
471.185	3.63
471.387	3.74
471.59	3.69
471.792	3.62
471.995	3.74
472.197	3.76
472.399	3.77
472.602	3.61
472.804	3.65
473.007	3.55
473.209	3.5
473.411	3.32
473.614	3.16
473.816	3.17
474.018	3.27
474.22	3.09
474.423	3.08
474.625	2.97
474.827	3.01
475.03	2.86
475.232	2.91
475.434	2.95
475.636	3.17
475.838	2.97
476.04	2.99
476.243	2.88
476.445	3.03
476.647	2.9
476.849	2.91
477.051	2.84
477.253	3.13
477.455	3.16
477.657	3.15
477.859	3.16
478.061	3.46
478.263	3.55
478.465	3.44
478.667	3.36
478.869	3.38
479.071	3.35
479.273	3.42
479.475	3.37
479.677	3.23
479.879	3.29
480.081	3.18
480.283	3.11
480.485	3.09
480.686	3.27
480.888	3.28
481.09	3.19
481.292	3.32
481.494	3.27
481.695	3.09
481.897	3.21
482.099	3.17
482.301	3.23
482.502	3.18
482.704	3.15
482.906	3.17
483.107	3.16
483.309	3.28
483.511	3.38
483.712	3.43
483.914	3.45
484.115	3.48
484.317	3.53
484.519	3.55
484.72	3.52
484.922	3.53
485.123	3.48
485.325	3.49
485.526	3.49
485.728	3.42
485.929	3.51
486.131	3.6
486.332	3.52
486.534	3.52
486.735	3.49
486.936	3.55
487.138	3.63
487.339	3.69
487.541	3.72
487.742	3.72
487.943	3.61
488.144	3.56
488.346	3.6
488.547	3.62
488.748	3.6
488.95	3.55
489.151	3.57
489.352	3.56
489.553	3.49
489.755	3.53
489.956	3.41
490.157	3.49
490.358	3.41
490.559	3.34
490.76	3.37
490.961	3.35
491.163	3.41
491.364	3.54
491.565	3.44
491.766	3.5
491.967	3.48
492.168	3.6
492.369	3.56
492.57	3.58
492.771	3.55
492.972	3.61
493.173	3.68
493.374	3.7
493.575	3.52
493.776	3.59
493.976	3.49
494.177	3.42
494.378	3.33
494.579	3.41
494.78	3.53
494.981	3.56
495.182	3.4
495.382	3.26
495.583	3.35
495.784	3.58
495.985	3.58
496.185	3.54
496.386	3.48
496.587	3.47
496.788	3.35
496.988	3.37
497.189	3.37
497.39	3.37
497.59	3.32
497.791	3.29
497.992	3.18
498.192	3.14
498.393	3.28
498.593	3.41
498.794	3.46
498.994	3.61
499.195	3.47
499.395	3.58
499.596	3.55
499.796	3.61
499.997	3.46
500.197	3.37
500.398	3.4
500.598	3.43
500.799	3.43
500.999	3.44
501.199	3.66
501.4	3.64
501.6	3.62
501.801	3.75
502.001	3.81
502.201	3.92
502.402	4.09
502.602	4.05
502.802	3.9
503.002	4.01
503.203	4.08
503.403	3.91
503.603	3.92
503.803	3.85
504.003	3.85
504.204	3.93
504.404	4.11
504.604	4.16
504.804	4.27
505.004	4.34
505.204	4.37
505.404	4.24
505.604	4.15
505.804	4.27
506.005	4.21
506.205	4.16
506.405	4.2
506.605	4.24
506.805	4.14
507.005	3.96
507.204	4.01
507.404	4.02
507.604	4.01
507.804	4.12
508.004	4.25
508.204	4.4
508.404	4.38
508.604	4.26
508.804	4.16
509.003	4.24
509.203	4.43
509.403	4.42
509.603	4.37
509.803	4.57
510.002	4.61
510.202	4.55
510.402	4.61
510.602	4.68
510.801	4.91
511.001	5.02
511.201	4.91
511.4	5.03
511.6	5.18
511.8	5.25
511.999	5.13
512.199	5.11
512.398	5.17
512.598	5.12
512.797	5.35
512.997	5.17
513.197	5.18
513.396	5.45
513.596	5.4
513.795	5.39
513.994	5.34
514.194	5.47
514.393	5.56
514.593	5.66
514.792	5.64
514.992	5.66
515.191	5.9
515.39	5.89
515.59	5.96
515.789	5.98
515.988	5.96
516.188	6.2
516.387	6.32
516.586	6.35
516.786	6.21
516.985	6.37
517.184	6.32
517.383	6.33
517.582	6.4
517.782	6.31
517.981	6.38
518.18	6.5
518.379	6.45
518.578	6.38
518.777	6.47
518.976	6.51
519.176	6.55
519.375	6.71
519.574	6.81
519.773	6.86
519.972	6.86
520.171	6.95
520.37	6.97
520.569	6.96
520.768	7.16
520.967	7.11
521.166	7.2
521.365	7.23
521.564	7.09
521.762	6.99
521.961	6.98
522.16	7.16
522.359	7.16
522.558	7.29
522.757	7.37
522.956	7.31
523.154	7.31
523.353	7.49
523.552	7.61
523.751	7.73
523.949	7.89
524.148	8.09
524.347	8.18
524.546	8.31
524.744	8.35
524.943	8.45
525.142	8.54
525.34	8.77
525.539	8.84
525.737	8.88
525.936	8.87
526.135	8.9
526.333	8.77
526.532	8.73
526.73	8.62
526.929	8.59
527.127	8.67
527.326	8.67
527.524	8.66
527.723	8.73
527.921	8.76
528.12	8.9
528.318	8.94
528.516	9.06
528.715	9.16
528.913	9.22
529.112	9.29
529.31	9.31
529.508	9.4
529.707	9.4
529.905	9.37
530.103	9.37
530.301	9.34
530.5	9.34
530.698	9.38
530.896	9.33
531.094	9.48
531.293	9.57
531.491	9.41
531.689	9.38
531.887	9.47
532.085	9.51
532.283	9.54
532.481	9.65
532.68	9.72
532.878	9.81
533.076	9.89
533.274	9.93
533.472	9.93
533.67	10.08
533.868	10.18
534.066	10.27
534.264	10.4
534.462	10.49
534.66	10.61
534.858	10.63
535.056	10.58
535.253	10.73
535.451	10.74
535.649	10.9
535.847	11.06
536.045	11.08
536.243	11.13
536.441	11.18
536.638	11.25
536.836	11.25
537.034	11.38
537.232	11.42
537.43	11.38
537.627	11.36
537.825	11.35
538.023	11.42
538.22	11.54
538.418	11.56
538.616	11.53
538.813	11.66
539.011	11.63
539.209	11.62
539.406	11.78
539.604	11.85
539.801	11.97
539.999	11.97
540.196	12.14
540.394	12.28
540.591	12.34
540.789	12.38
540.986	12.36
541.184	12.44
541.381	12.59
541.579	12.57
541.776	12.65
541.974	12.74
542.171	12.85
542.368	12.85
542.566	12.79
542.763	12.93
542.96	13.05
543.158	13.13
543.355	13.17
543.552	13.19
543.75	13.28
543.947	13.3
544.144	13.35
544.341	13.44
544.539	13.46
544.736	13.63
544.933	13.51
545.13	13.59
545.327	13.63
545.524	13.83
545.722	13.86
545.919	14.04
546.116	14.26
546.313	14.36
546.51	14.35
546.707	14.44
546.904	14.51
547.101	14.67
547.298	14.62
547.495	14.82
547.692	14.87
547.889	14.95
548.086	14.96
548.283	15.03
548.48	15.17
548.677	15.27
548.874	15.48
549.07	15.57
549.267	15.58
549.464	15.66
549.661	15.68
549.858	15.79
550.055	15.92
550.251	15.86
550.448	15.9
550.645	15.9
550.842	15.96
551.038	16.02
551.235	15.92
551.432	16.03
551.628	16.25
551.825	16.33
552.022	16.46
552.218	16.56
552.415	16.93
552.612	16.73
552.808	16.68
553.005	16.72
553.201	16.72
553.398	17.04
553.594	17.22
553.791	17.09
553.987	17.12
554.184	17.15
554.38	17.19
554.577	17.06
554.773	17.39
554.97	17.55
555.166	17.67
555.362	17.74
555.559	17.74
555.755	17.57
555.952	17.98
556.148	18.24
556.344	18.13
556.541	18.27
556.737	18.3
556.933	18.21
557.129	18.15
557.326	18.21
557.522	18.22
557.718	18.37
557.914	18.64
558.11	18.59
558.307	18.56
558.503	18.74
558.699	18.84
558.895	19.09
559.091	19.31
559.287	19.62
559.483	19.67
559.679	19.95
559.876	19.78
560.072	19.89
560.268	19.97
560.464	19.97
560.66	19.84
560.856	19.71
561.052	19.72
561.247	19.79
561.443	19.74
561.639	19.94
561.835	19.97
562.031	20.19
562.227	20.33
562.423	20.42
562.619	20.75
562.815	20.99
563.01	21.24
563.206	21.34
563.402	21.41
563.598	21.6
563.793	21.59
563.989	21.34
564.185	21.41
564.381	21.3
564.576	21.37
564.772	21.39
564.968	21.4
565.163	21.5
565.359	21.66
565.555	21.66
565.75	21.7
565.946	21.71
566.141	21.89
566.337	21.92
566.532	22.06
566.728	22.1
566.923	22.03
567.119	22.01
567.314	22.1
567.51	22.14
567.705	22.39
567.901	22.34
568.096	22.59
568.292	22.67
568.487	22.73
568.682	22.74
568.878	22.99
569.073	23.12
569.268	23.32
569.464	23.51
569.659	23.51
569.854	23.35
570.05	23.58
570.245	23.3
570.44	23.41
570.635	23.57
570.831	23.55
571.026	23.37
571.221	23.22
571.416	23.08
571.611	22.98
571.806	23.11
572.002	23.13
572.197	23.02
572.392	23.27
572.587	23.2
572.782	23.09
572.977	23.3
573.172	23.3
573.367	23.59
573.562	23.7
573.757	23.75
573.952	23.8
574.147	23.81
574.342	23.92
574.537	23.83
574.732	23.97
574.927	24.09
575.121	23.98
575.316	24.19
575.511	24.21
575.706	24.32
575.901	24.21
576.096	23.89
576.29	23.91
576.485	24
576.68	23.98
576.875	23.84
577.069	23.87
577.264	23.89
577.459	23.82
577.654	23.99
577.848	23.9
578.043	24.03
578.238	24.41
578.432	24.58
578.627	24.59
578.821	24.82
579.016	25.07
579.21	25.19
579.405	25.5
579.6	25.57
579.794	25.36
579.989	25.63
580.183	25.75
580.378	25.89
580.572	25.91
580.766	26.08
580.961	25.86
581.155	25.91
581.35	25.72
581.544	25.34
581.738	25.44
581.933	25.37
582.127	25.39
582.321	25.2
582.516	25.09
582.71	25.09
582.904	24.81
583.099	25.12
583.293	25.13
583.487	25.34
583.681	25.51
583.875	25.29
584.07	25.38
584.264	25.3
584.458	25.69
584.652	25.62
584.846	25.62
585.04	25.91
585.234	25.58
585.428	25.8
585.623	25.84
585.817	25.93
586.011	26.09
586.205	25.73
586.399	25.92
586.593	25.88
586.787	26
586.981	26.04
587.174	26.06
587.368	26.34
587.562	26.16
587.756	26.06
587.95	26.15
588.144	26.19
588.338	26.47
588.532	26.61
588.725	26.48
588.919	26.48
589.113	26.56
589.307	26.53
589.501	26.72
589.694	26.63
589.888	26.77
590.082	26.51
590.275	26.6
590.469	26.83
590.663	26.59
590.856	26.35
591.05	26.53
591.244	26.55
591.437	26.44
591.631	26.4
591.824	26.63
592.018	26.69
592.212	26.82
592.405	26.73
592.599	26.53
592.792	26.53
592.986	26.89
593.179	26.55
593.372	26.83
593.566	27.07
593.759	27.12
593.953	27.09
594.146	27.17
594.339	27.36
594.533	27.38
594.726	27.37
594.92	27.61
595.113	27.59
595.306	27.8
595.499	27.7
595.693	27.76
595.886	27.83
596.079	28.05
596.272	28.03
596.466	28.21
596.659	28.44
596.852	28.45
597.045	28.31
597.238	28.45
597.431	28.44
597.624	28.42
597.818	28.27
598.011	28.2
598.204	27.9
598.397	27.98
598.59	27.79
598.783	27.62
598.976	27.74
599.169	27.75
599.362	27.6
599.555	27.56
599.748	27.69
599.941	27.6
600.134	27.66
600.326	27.73
600.519	27.52
600.712	27.75
600.905	27.83
601.098	27.66
601.291	27.48
601.483	27.6
601.676	27.85
601.869	27.67
602.062	28.01
602.255	28.02
602.447	28.05
602.64	28.04
602.833	27.91
603.025	28.16
603.218	28.39
603.411	28.61
603.603	28.48
603.796	28.33
603.989	28.4
604.181	28.25
604.374	28.37
604.566	28.3
604.759	28.35
604.951	28.18
605.144	27.97
605.336	27.8
605.529	27.8
605.721	27.92
605.914	27.91
606.106	27.69
606.299	27.88
606.491	27.62
606.683	27.84
606.876	27.89
607.068	28.12
607.26	28.23
607.453	28.5
607.645	28.6
607.837	28.49
608.03	28.87
608.222	29.22
608.414	28.94
608.606	28.91
608.799	29.25
608.991	29.32
609.183	29.3
609.375	29.29
609.567	29.17
609.759	29.15
609.952	29.33
610.144	29.22
610.336	29.08
610.528	29.34
610.72	29.56
610.912	29.38
611.104	29.35
611.296	29.32
611.488	29.35
611.68	29.5
611.872	29.61
612.064	29.37
612.256	29.33
612.448	29.52
612.64	29.29
612.832	29.3
613.023	29.25
613.215	29.12
613.407	29.05
613.599	28.79
613.791	28.51
613.983	28.69
614.174	28.93
614.366	28.62
614.558	28.65
614.75	28.74
614.941	28.54
615.133	28.47
615.325	28.45
615.516	28.74
615.708	28.95
615.9	29.33
616.091	28.83
616.283	28.67
616.475	28.99
616.666	28.84
616.858	28.79
617.049	28.8
617.241	28.58
617.432	28.64
617.624	28.34
617.815	28.46
618.007	28.3
618.198	28.44
618.39	28.44
618.581	28.01
618.773	28.17
618.964	28.39
619.155	28.6
619.347	28.61
619.538	28.65
619.729	29.03
619.921	28.89
620.112	28.88
620.303	29.01
620.494	28.88
620.686	29.3
620.877	29.26
621.068	29.28
621.259	29.2
621.451	29.43
621.642	29.18
621.833	29.16
622.024	29.2
622.215	29.39
622.406	29.32
622.597	29.46
622.788	29.19
622.98	28.99
623.171	28.91
623.362	29.06
623.553	28.96
623.744	29.14
623.935	28.96
624.126	28.91
624.317	28.92
624.508	28.9
624.698	29.09
624.889	29.1
625.08	29.23
625.271	29.03
625.462	28.87
625.653	29.1
625.844	29.18
626.034	29.34
626.225	29.47
626.416	29.26
626.607	29.17
626.798	29.05
626.988	29.11
627.179	29.21
627.37	29.24
627.56	29.37
627.751	29.23
627.942	29.2
628.132	29.21
628.323	29.03
628.514	29.26
628.704	29.53
628.895	29.71
629.085	29.84
629.276	29.63
629.466	29.81
629.657	29.65
629.847	29.64
630.038	29.88
630.228	29.8
630.419	29.79
630.609	29.45
630.8	29.27
630.99	29.26
631.181	29.41
631.371	29.96
631.561	29.4
631.752	29.63
631.942	29.65
632.132	29.57
632.323	29.75
632.513	29.95
632.703	29.73
632.893	29.58
633.084	29.56
633.274	29.36
633.464	28.87
633.654	29.05
633.844	28.61
634.034	28.65
634.225	28.35
634.415	28.02
634.605	27.87
634.795	28.54
634.985	28.7
635.175	28.54
635.365	28.36
635.555	28.24
635.745	28.53
635.935	28.63
636.125	28.57
636.315	28.94
636.505	29.13
636.695	29.08
636.885	28.86
637.075	28.38
637.265	28.29
637.455	28.63
637.644	28.71
637.834	28.83
638.024	29.06
638.214	28.83
638.404	28.55
638.593	28.45
638.783	28.86
638.973	28.67
639.163	29.03
639.352	29.22
639.542	29.18
639.732	29.14
639.921	28.97
640.111	29.1
640.301	29.3
640.49	29.52
640.68	29.81
640.87	29.41
641.059	29.92
641.249	30.01
641.438	30.11
641.628	30.16
641.817	30.33
642.007	30.23
642.196	30.32
642.386	30.38
642.575	30.43
642.764	30.46
642.954	30.8
643.143	30.3
643.333	29.96
643.522	29.5
643.711	29.25
643.901	29.01
644.09	29.09
644.279	28.78
644.469	28.93
644.658	28.87
644.847	28.63
645.036	28.4
645.226	28.59
645.415	29.14
645.604	29.35
645.793	29.74
645.982	29.91
646.171	29.84
646.361	29.98
646.55	30.01
646.739	29.64
646.928	30.12
647.117	30.14
647.306	30.21
647.495	30.51
647.684	30.24
647.873	30.09
648.062	30.19
648.251	30.33
648.44	30.14
648.629	30.07
648.818	30.13
649.007	29.48
649.196	29.24
649.384	29.24
649.573	28.9
649.762	29.57
649.951	29.21
650.14	29.03
650.328	29.06
650.517	29.22
650.706	29.2
650.895	29.4
651.083	29.27
651.272	29.82
651.461	29.53
651.65	29.74
651.838	29.62
652.027	30.01
652.216	30.27
652.404	30.44
652.593	30.37
652.781	30.25
652.97	30.5
653.158	30.36
653.347	30.03
653.535	30.22
653.724	29.64
653.912	29.34
654.101	29.42
654.289	29.13
654.478	28.83
654.666	28.51
654.855	28.36
655.043	27.94
655.231	28.52
655.42	28.39
655.608	27.99
655.796	27.62
655.985	27.94
656.173	28.1
656.361	27.99
656.55	28.42
656.738	28.46
656.926	28.75
657.114	28.75
657.302	28.68
657.491	28.76
657.679	29.08
657.867	30.17
658.055	30.37
658.243	30.04
658.431	30.02
658.619	29.8
658.807	30
658.996	29.9
659.184	30.05
659.372	30.19
659.56	30.17
659.748	30.24
659.936	30.03
660.124	29.42
660.311	29.52
660.499	30.04
660.687	29.98
660.875	29.78
661.063	29.69
661.251	29.57
661.439	29.38
661.627	29.38
661.814	29.68
662.002	29.35
662.19	29.8
662.378	29.69
662.565	29.14
662.753	29.32
662.941	29.27
663.129	29.75
663.316	29.76
663.504	29.96
663.692	30
663.879	29.68
664.067	29.88
664.254	30.28
664.442	30.62
664.63	30.78
664.817	30.69
665.005	30.87
665.192	30.19
665.38	30.52
665.567	30.89
665.755	31.01
665.942	31.05
666.13	31.18
666.317	30.83
666.504	30.31
666.692	30.83
666.879	30.81
667.067	30.98
667.254	31.4
667.441	30.87
667.629	30.44
667.816	30.51
668.003	30.7
668.19	30.59
668.378	30.37
668.565	30.74
668.752	30.63
668.939	30.87
669.127	31.04
669.314	31.24
669.501	31.81
669.688	31.46
669.875	30.91
670.062	30.68
670.249	30.42
670.436	30.39
670.623	30.29
670.81	29.53
670.997	29.29
671.184	29.07
671.371	28.97
671.558	28.14
671.745	28.42
671.932	28.65
672.119	28.55
672.306	28.87
672.493	28.81
672.68	28.43
672.867	28.97
673.054	28.79
673.24	28.82
673.427	28.74
673.614	29.01
673.801	28.91
673.988	29.35
674.174	29.27
674.361	29.06
674.548	29.02
674.734	29.62
674.921	29.88
675.108	29.7
675.294	30.13
675.481	29.72
675.668	30.45
675.854	30.41
676.041	30.37
676.227	30.39
676.414	30.3
676.601	30.43
676.787	30.32
676.974	30.14
677.16	30.29
677.347	29.92
677.533	30.26
677.719	30.46
677.906	30.56
678.092	30.18
678.279	30.25
678.465	30.51
678.651	30.7
678.838	30.79
679.024	31.07
679.21	31.49
679.397	31.57
679.583	31.64
679.769	30.84
679.955	30.57
680.142	30.67
680.328	30.65
680.514	30.4
680.7	30.73
680.886	30.79
681.073	30.61
681.259	30.36
681.445	30.48
681.631	30.63
681.817	30.98
682.003	31.36
682.189	31.73
682.375	32.33
682.561	32.23
682.747	31.88
682.933	31.24
683.119	30.62
683.305	30.5
683.491	30.38
683.677	30.29
683.863	30.03
684.049	30.26
684.235	29.71
684.42	29.57
684.606	29.8
684.792	29.52
684.978	29.88
685.164	30.03
685.349	30.57
685.535	30.56
685.721	30.29
685.907	30.56
686.092	30.45
686.278	30.9
686.464	30.6
686.649	30.66
686.835	30.44
687.021	30.57
687.206	30.97
687.392	30.63
687.577	30.89
687.763	30.88
687.948	31.3
688.134	31.03
688.319	30.86
688.505	30.47
688.69	30.22
688.876	30.87
689.061	31.19
689.247	31.38
689.432	31.57
689.618	32.02
689.803	31.65
689.988	31.47
690.174	31.35
690.359	31.29
690.544	31.68
690.73	32.09
690.915	31.87
691.1	31.31
691.285	30.8
691.471	30.19
691.656	29.32
691.841	30.12
692.026	30.24
692.211	30.59
692.396	30.54
692.582	30.72
692.767	30.62
692.952	30.91
693.137	31.09
693.322	31.58
693.507	32.07
693.692	32.11
693.877	31.42
694.062	31.02
694.247	30.67
694.432	31
694.617	30.8
694.802	30.9
694.987	30.5
695.172	30.82
695.357	30.62
695.541	30.25
695.726	30.48
695.911	30.83
696.096	31.23
696.281	31.74
696.466	31.48
696.65	31.58
696.835	32.12
697.02	32.29
697.204	32.56
697.389	32.66
697.574	32.73
697.759	32.52
697.943	32.19
698.128	31.73
698.312	32
698.497	32.07
698.682	31.87
698.866	31.5
699.051	31.52
699.235	31.27
699.42	31.34
699.604	31.53
699.789	31.42
699.973	31.25
700.158	31.44
700.342	31.33
700.527	31.38
700.711	31.37
700.895	31.49
701.08	31.48
701.264	31.31
701.448	31.08
701.633	30.81
701.817	30.92
702.001	31.83
702.186	31.9
702.37	31.22
702.554	30.91
702.738	31.05
702.923	30.87
703.107	30.5
703.291	30.44
703.475	31.09
703.659	30.8
703.843	31.13
704.027	30.39
704.212	30.33
704.396	30.43
704.58	30.5
704.764	30.62
704.948	30.94
705.132	31.04
705.316	31.43
705.5	31.22
705.684	31.72
705.868	31.53
706.052	32.17
706.235	31.62
706.419	32.41
706.603	32.99
706.787	33.27
706.971	32.26
707.155	32.15
707.339	32.16
707.522	31.49
707.706	31.79
707.89	31.23
708.074	31
708.257	31.4
708.441	30.55
708.625	29.78
708.808	29.09
708.992	29.69
709.176	30.57
709.359	30.36
709.543	30.5
709.727	29.95
709.91	30.21
710.094	30.43
710.277	30.21
710.461	30.45
710.644	30.56
710.828	30.13
711.011	30.51
711.195	29.88
711.378	29.73
711.562	29.84
711.745	29.96
711.928	30.08
712.112	30.16
712.295	30.61
712.478	31.52
712.662	31.48
712.845	32.01
713.028	32
713.212	32.1
713.395	31.63
713.578	32.04
713.761	31.64
713.945	32.34
714.128	32.26
714.311	31.66
714.494	30.56
714.677	30.96
714.86	30.57
715.043	30.52
715.227	30.55
715.41	30.93
715.593	30.33
715.776	30.91
715.959	29.71
716.142	29.65
716.325	30.24
716.508	30.48
716.691	30.72
716.874	31.27
717.057	30.67
717.239	31.06
717.422	31.59
717.605	31.42
717.788	31.69
717.971	32.41
718.154	31.93
718.337	31.67
718.519	31.74
718.702	31.24
718.885	30.88
719.068	31.05
719.25	30.32
719.433	30.03
719.616	30.67
719.798	29.87
719.981	30.37
720.164	30.69
720.346	29.92
720.529	29.94
720.712	29.97
720.894	31.18
721.077	31.34
721.259	31.1
721.442	31.54
721.624	31.39
721.807	32.41
721.989	31.28
722.172	31.32
722.354	32.1
722.537	32.07
722.719	31.68
722.901	31.07
723.084	30.79
723.266	31.46
723.448	31.51
723.631	31.18
723.813	30.16
723.995	31.29
724.178	32.02
724.36	32.27
724.542	32.48
724.724	33.03
724.907	32.42
725.089	32.73
725.271	32.36
725.453	31.82
725.635	32.78
725.817	32.93
725.999	32.84
726.181	32.13
726.364	31.9
726.546	31.26
726.728	30.34
726.91	30.86
727.092	30.53
727.274	30.75
727.456	30.95
727.638	30.64
727.819	31.31
728.001	30.56
728.183	31.08
728.365	30.51
728.547	31.37
728.729	31.98
728.911	31.26
729.093	31.82
729.274	31.34
729.456	31.86
729.638	31.72
729.82	30.84
730.001	30.36
730.183	29.92
730.365	30.15
730.546	29.57
730.728	29.46
730.91	30.07
731.091	30.01
731.273	30.06
731.455	28.82
731.636	28.11
731.818	28.24
731.999	28.44
732.181	29.61
732.362	30.17
732.544	30.41
732.725	31.23
732.907	30.97
733.088	30.36
733.27	30.52
733.451	30.63
733.633	30.6
733.814	31.54
733.995	32.09
734.177	30.54
734.358	30.64
734.539	29.62
734.721	28.73
734.902	28.66
735.083	29.65
735.264	30.21
735.446	30.25
735.627	30.73
735.808	30.25
735.989	30.37
736.17	30.91
736.351	30.43
736.533	31.56
736.714	31.57
736.895	32.47
737.076	31.93
737.257	31.24
737.438	30.99
737.619	30.08
737.8	29.33
737.981	29.69
738.162	29.36
738.343	29.36
738.524	28.18
738.705	28
738.886	27.37
739.067	25.81
739.247	26.75
739.428	27.55
739.609	28.39
739.79	29.36
739.971	28.52
740.151	29.12
740.332	28.71
740.513	29.27
740.694	29.23
740.874	29.23
741.055	29.77
741.236	28.97
741.417	28.79
741.597	28.4
741.778	28.06
741.958	29.55
742.139	28.77
742.32	29
742.5	30.67
742.681	29.99
742.861	29.46
743.042	30.77
743.222	31.26
743.403	31.97
743.583	32.64
743.764	32.17
743.944	31.82
744.124	31.82
744.305	32.19
744.485	30.82
744.666	30.91
744.846	31.06
745.026	30.19
745.207	29.62
745.387	29.04
745.567	28.16
745.747	27.97
745.928	28.07
746.108	28.5
746.288	28.28
746.468	28.25
746.648	29.45
746.829	30.88
747.009	31.82
747.189	31.92
747.369	31.51
747.549	32.09
747.729	32.4
747.909	31.74
748.089	31.85
748.269	32.13
748.449	32.95
748.629	33.17
748.809	32.47
748.989	31.46
749.169	31.59
749.349	30.34
749.529	30.3
749.709	30.39
749.889	31.16
750.068	30.45
750.248	30.91
750.428	29.87
750.608	30.07
750.788	30.11
750.967	31.63
751.147	31.6
751.327	32.32
751.507	33.38
751.686	33.07
751.866	32.64
752.046	32.71
752.225	33.56
752.405	33.88
752.585	34
752.764	33.49
752.944	32.86
753.123	32.7
753.303	33.72
753.482	32.46
753.662	33.3
753.841	33.25
754.021	32.89
754.2	31.48
754.38	30.75
754.559	30.68
754.739	30.65
754.918	30.38
755.097	30.2
755.277	29.37
755.456	30.52
755.635	29.3
755.815	28.44
755.994	29.28
756.173	29.1
756.352	30.06
756.532	29.44
756.711	29.23
756.89	28.92
757.069	29.86
757.248	30.39
757.427	29.6
757.607	29.35
757.786	30.58
757.965	30.95
758.144	31.28
758.323	31.36
758.502	31.42
758.681	31.56
758.86	32.86
759.039	32.99
759.218	32.27
759.397	31.87
759.576	32.2
759.755	30.56
759.934	32.33
760.113	31.94
760.291	32.39
760.47	32.29
760.649	32.68
760.828	31.96
761.007	31.23
761.186	31.73
761.364	33.14
761.543	33.71
761.722	33.09
761.901	30.56
762.079	31.19
762.258	31.82
762.437	32.3
762.615	32.61
762.794	32.59
762.972	32.48
763.151	31.78
763.33	31.25
763.508	30.92
763.687	32.78
763.865	33.13
764.044	33.06
764.222	32.69
764.401	31.89
764.579	31.4
764.758	31.77
764.936	31.73
765.114	32.86
765.293	32.95
765.471	34.56
765.65	34.15
765.828	34.55
766.006	33.97
766.184	33.22
766.363	34.55
766.541	35.16
766.719	34.8
766.898	34.85
767.076	34.48
767.254	33.89
767.432	32.5
767.61	32.83
767.788	31.38
767.967	31.33
768.145	31.97
768.323	30.96
768.501	31.69
768.679	31.32
768.857	31.01
769.035	30.59
769.213	30.18
769.391	29.67
769.569	29.14
769.747	29.88
769.925	31.08
770.103	30.1
770.281	30.23
770.459	29.47
770.636	29.16
770.814	29.98
770.992	28.75
771.17	30.05
771.348	31.45
771.525	30.59
771.703	31.68
771.881	32.33
772.059	31.72
772.236	32.38
772.414	31.95
772.592	30.51
772.769	30.2
772.947	30.89
773.125	30.4
773.302	28.79
773.48	29.47
773.657	28.86
773.835	27.56
774.013	28.27
774.19	27.26
774.368	27.07
774.545	28.9
774.723	28.96
774.9	29.34
775.077	29.58
775.255	30.55
775.432	29.21
775.61	30.51
775.787	29.59
775.964	30.54
776.142	30.96
776.319	30.96
776.496	31.92
776.674	31.77
776.851	33.34
777.028	33.28
777.205	33.16
777.382	34.35
777.56	32.95
777.737	32.39
777.914	30.49
778.091	30.5
778.268	28.89
778.445	27.53
778.622	27.77
778.8	25.44
778.977	26.54
779.154	37.34
779.331	35.91
779.508	35.43
779.685	35.94
779.862	37.35
780.038	39.3
780.215	40.24
780.392	41.07
780.569	40.21
780.746	41.97
780.923	39.7
781.1	25.49
781.277	28.51
781.453	29.88
781.63	30.64
781.807	30.52
781.984	29.55
782.16	29.69
782.337	29.43
782.514	29.03
782.691	29.78
782.867	30.17
783.044	32.13
783.221	30.06
783.397	30
783.574	31.66
783.75	31.65
783.927	27.94
784.103	28.79
784.28	28.79
784.456	29.94
784.633	30.78
784.809	30.97
784.986	31.2
785.162	31.54
785.339	29.76
785.515	26.51
785.692	27.73
785.868	30.09
786.044	28.61
786.221	27.2
786.397	25.97
786.573	22.33
786.749	22.3
786.926	22.53
787.102	21.14
787.278	22.9
787.454	25.78
787.631	23.53
787.807	24.57
787.983	25.38
788.159	27.68
788.335	27
788.511	29.1
788.687	29.35
788.863	29.92
789.039	31.55
789.216	31.39
789.392	31.07
789.568	31.12
789.744	30.29
789.919	30.37
790.095	28.67
790.271	30.59
790.447	31.89
790.623	31.33
790.799	31.48
790.975	31.95
791.151	30.89
791.327	31.29
791.502	34.64
791.678	36.13
791.854	35.53
792.03	37.04
792.205	37.96
792.381	35.5
792.557	36.05
792.733	36.57
792.908	36.28
793.084	37.41
793.259	36.79
793.435	32.83
793.611	32.5
793.786	32.85
793.962	31.49
794.137	32.66
794.313	32.74
794.488	33.02
794.664	32.41
794.839	32.61
795.015	32.44
795.19	31.36
795.366	31.92
795.541	32.77
795.716	34.29
795.892	34.24
796.067	32.78
796.242	31.29
796.418	31.48
796.593	28.17
796.768	25.55
796.944	25.57
797.119	25.02
797.294	26.22
797.469	26.65
797.644	26.21
797.82	27.81
797.995	26.82
798.17	28.11
798.345	28.35
798.52	30.75
798.695	35.37
798.87	36.4
799.045	37.38
799.22	37.77
799.395	36.37
799.57	34.08
799.745	30.98
799.92	32.08
800.095	32.86
800.27	32.94
800.445	33.64
800.62	32.61
800.795	30.68
800.97	30.82
801.145	28.41
801.319	28.41
801.494	27.53
801.669	28.82
801.844	30
802.018	27.91
802.193	26.11
802.368	25.97
802.543	24.64
802.717	24.92
802.892	23.57
803.067	25.34
803.241	26.1
803.416	27.55
803.59	27.91
803.765	26.18
803.94	26.11
804.114	26.84
804.289	26.31
804.463	24.57
804.638	25.44
804.812	28.27
804.986	25.41
805.161	25.97
805.335	26.56
805.51	27.97
805.684	23.83
805.858	24.39
806.033	25.02
806.207	23.99
806.381	22.45
806.556	18.95
806.73	15.79
806.904	17.72
807.078	16.73
807.253	19.59
807.427	18.91
807.601	21.71
807.775	23.44
807.949	21.81
808.123	21.94
808.298	21.56
808.472	26.04
808.646	27.75
808.82	26.7
808.994	27.4
809.168	23.63
809.342	25.18
809.516	26.23
809.69	23.33
809.864	24.71
810.038	21.61
810.212	26
810.385	27.84
810.559	26.55
810.733	27.45
810.907	23.18
811.081	25.19
811.255	22.86
811.428	23.54
811.602	26.6
811.776	31.37
811.95	33.59
812.123	34.5
812.297	30.49
812.471	29.62
812.644	30.48
812.818	31.92
812.992	32.18
813.165	37.32
813.339	38.19
813.512	39.9
813.686	36.62
813.86	37.14
814.033	35
814.207	36.61
814.38	37.7
814.554	37.7
814.727	39.68
814.9	37.26
815.074	33.48
815.247	33.11
815.421	32.74
815.594	30.14
815.767	30.87
815.941	30.36
816.114	30.62
816.287	28.7
816.46	24.06
816.634	23.65
816.807	27.48
816.98	27.21
817.153	28.56
817.327	24.19
817.5	27.09
817.673	26.23
817.846	26.55
818.019	29
818.192	30.58
818.365	33.31
818.538	34.05
818.711	33.72
818.884	31.31
819.057	27.78
819.23	29.07
819.403	29.04
819.576	29.04
819.749	27.07
819.922	23.87
820.095	23.53
820.268	22.27
820.441	21.82
820.614	21.6
820.786	25.21
820.959	28.24
821.132	29.62
821.305	28.1
821.477	28.89
821.65	30.27
821.823	30.69
821.996	31.17
822.168	31.94
822.341	33.04
822.514	33.73
822.686	33.45
822.859	32.73
823.031	32.84
823.204	32.8
823.376	32.72
823.549	32.52
823.722	32.06
823.894	32.23
824.067	32.44
824.239	31.94
824.411	31.22
824.584	31.05
824.756	32.09
824.929	32.46
825.101	33.02
825.273	33.36
825.446	33.39
825.618	34.07
825.79	34.09
825.963	34.13
826.135	34.48
826.307	35.05
826.479	35.17
826.652	34.15
826.824	33.47
826.996	33.11
827.168	31.99
827.34	32.54
827.512	32.6
827.684	32.71
827.856	31.89
828.029	32.42
828.201	32.93
828.373	32.33
828.545	32.58
828.717	33.02
828.889	34.23
829.061	35.37
829.232	34.72
829.404	34.29
829.576	32.41
829.748	33.04
829.92	30.61
830.092	28.02
830.264	27.61
830.436	27.63
830.607	27.12
830.779	25.57
830.951	26.49
831.123	27.11
831.294	26.97
831.466	29.03
831.638	30.01
831.809	32.35
831.981	32.29
832.153	36.2
832.324	35.27
832.496	35.4
832.667	32.18
832.839	29.3
833.011	29.04
833.182	30.13
833.354	32.03
833.525	32.86
833.697	30.36
833.868	30.29
834.039	27.56
834.211	29.29
834.382	27.32
834.554	28.87
834.725	30.04
834.896	29.62
835.068	31.47
835.239	29.86
835.41	29.26
835.581	30.52
835.753	32.01
835.924	32.01
836.095	31.43
836.266	34.12
836.438	35.82
836.609	34.99
836.78	37.01
836.951	33.77
837.122	35.55
837.293	34.03
837.464	33.51
837.635	33.08
837.806	34.77
837.977	31.89
838.148	31.7
838.319	31.74
838.49	32.4
838.661	31.78
838.832	33.34
839.003	34.9
839.174	31.61
839.345	33.01
839.516	35.59
839.687	31.71
839.857	36.3
840.028	31.26
840.199	30.58
840.37	32.55
840.54	33.19
840.711	34.43
840.882	29.36
841.053	34.75
841.223	29.43
841.394	20.73
841.564	22.03
841.735	15.71
841.906	12.3
842.076	6.34
842.247	1.94
842.417	-8.31
842.588	-16.56
842.758	-14.2
842.929	-21.24
843.099	-10.98
843.27	-1.34
843.44	-4.08
843.611	1.9
843.781	6.35
843.951	10.42
844.122	12.82
844.292	21.77
844.462	23.62
844.633	18.56
844.803	23.97
844.973	19.08
845.144	19.11
845.314	24.01
845.484	17.67
845.654	18.41
845.824	19.85
845.995	16.51
846.165	14.73
846.335	19.54
846.505	24.73
846.675	25.17
846.845	27.83
847.015	29.66
847.185	35.24
847.355	40.16
847.525	39.31
847.695	31.21
847.865	37.32
848.035	31.88
848.205	27.28
848.375	35.11
848.545	29.24
848.715	31.8
848.884	28.65
849.054	14.85
849.224	14.46
849.394	22.49
849.564	33.14
849.733	36.27
849.903	40.61
850.073	32.37
850.243	26.88
850.412	26.68
850.582	20.7
850.752	23.52
850.921	16.8
851.091	21.58
851.26	24.92
851.43	11.14
851.599	11.69
851.769	1.89
851.939	19.22
852.108	6.83
852.278	20.22
852.447	17.88
852.616	29.08
852.786	48.69
852.955	39.74
853.125	31.69
853.294	36.06
853.463	33.73
853.633	25.01
853.802	27.13
853.971	33.6
854.141	25.97
854.31	35.87
854.479	34
854.648	38.98
854.818	41.78
854.987	47.5
855.156	41.07
855.325	37.4
855.494	41.88
855.663	37.12
855.832	39.9
856.001	42.67
856.171	44.93
856.34	32.6
856.509	27.67
856.678	31.04
856.847	28.29
857.016	50.65
857.185	57.79
857.353	64.66
857.522	62.63
857.691	56.5
857.86	56.11
858.029	60.34
858.198	59.67
858.367	56.16
858.535	60.35
858.704	55.81
858.873	36.13
859.042	29.93
859.21	35.62
859.379	44.7
859.548	50.7
859.717	47.84
859.885	15.93
860.054	37.6
860.222	50.52
860.391	59.99
860.56	64.77
860.728	68.28
860.897	66.01
861.065	50.61
861.234	46.54
861.402	39.32
861.571	39.59
861.739	44.18
861.908	32.91
862.076	2.38
862.244	10.64
862.413	12.22
862.581	0.51
862.749	-20.83
862.918	-0.17
863.086	-18.36
863.254	-6.98
863.423	-6.44
863.591	1.5
863.759	-30.36
863.927	-9.41
864.096	-29.18
864.264	-81.78
864.432	-67.25
864.6	-29.97
864.768	-30.54
864.936	-22.18
865.104	-23.6
865.272	-17.82
865.44	-22.8
865.608	14.86
865.776	22.28
865.944	14.98
866.112	29.73
866.28	38.5
866.448	31
866.616	32.87
866.784	39.69
866.952	30.55
867.12	10.74
867.288	14.63
867.455	4.28
867.623	-6.24
867.791	15.56
867.959	1.95
868.127	-27.8
868.294	-25.55
868.462	-36.86
868.63	-20.94
868.797	-13.94
868.965	-6.76
869.133	1.34
869.3	-3.9
869.468	11.83
869.636	-0.53
869.803	18.94
869.971	21.69
870.138	37.2
870.306	44.75
870.473	46.7
870.641	39
870.808	49.09
870.975	42.16
871.143	43.12
871.31	20.52
871.478	12.52
871.645	-0.38
871.812	13.24
871.98	-7.28
872.147	-15.89
872.314	-13.15
872.482	1.5
872.649	-15.56
872.816	-3.86
872.983	-15.03
873.15	-17.85
873.318	-12.71
873.485	-17.51
873.652	-27.53
873.819	-8.12
873.986	-1.5
874.153	6.94
874.32	3.25
874.487	2.04
874.654	6.09
874.821	14.06
874.988	32.35
875.155	33.29
875.322	23.03
875.489	20
875.656	17.03
875.823	18.94
875.99	19.31
876.157	23.31
876.324	32.36
876.49	23.53
876.657	16.25
876.824	17.74
876.991	19.1
877.157	36.28
877.324	47.55
877.491	45.71
877.658	43.2
877.824	48.33
877.991	61.17
878.157	45.56
878.324	69.88
878.491	70.48
878.657	60.54
878.824	62.78
878.99	61.15
879.157	50.82
879.323	48.51
879.49	44.89
879.656	38.33
879.823	22.7
879.989	29.82
880.156	19.17
880.322	33.14
880.488	29.23
880.655	32.37
880.821	31.62
880.987	32.14
881.154	30.18
881.32	35.39
881.486	31.75
881.652	36.44
881.819	32.48
881.985	32.03
882.151	31.87
882.317	32.76
882.483	31.35
882.649	26.68
882.816	26.24
882.982	27.33
883.148	24.64
883.314	25.21
883.48	24.19
883.646	25.72
883.812	25.39
883.978	22.84
884.144	23.42
884.31	22.89
884.476	25.54
884.642	26.24
884.807	25.62
884.973	26.52
885.139	26.09
885.305	26.15
885.471	26.63
885.637	29.35
885.802	28.23
885.968	28.42
886.134	30.14
886.3	31.63
886.465	31.71
886.631	30.82
886.797	29.92
886.962	30.7
887.128	31.4
887.293	27.93
887.459	22.69
887.625	22.12
887.79	18.05
887.956	13.5
888.121	4.83
888.287	1.52
888.452	2.06
888.618	-4.85
888.783	-9.18
