Data from CB_078_Reflection_2.txt Node
Date: Sat Nov 14 11:40:17 EST 2015
User: robert
Spectrometer: USB4E03001
Autoset integration time: false
Trigger mode: 4
Integration Time (sec): 1.000000E-1
Scans to average: 15
Electric dark correction enabled: true
Nonlinearity correction enabled: false
Boxcar width: 5
Stray light correction enabled: false
XAxis mode: Wavelengths
Stop averaging: false
Number of Pixels in Spectrum: 3648
>>>>>Begin Spectral Data<<<<<
177.566	-335.18
177.785	-598.61
178.005	-1967.44
178.225	-358.94
178.445	-237.79
178.665	-471.52
178.885	-2.65
179.105	-199.74
179.324	-272.52
179.544	-475.09
179.764	-146.99
179.984	-148.13
180.204	-181.49
180.423	-594.2
180.643	-295.11
180.863	-297.19
181.083	-1865.03
181.302	-9419.05
181.522	1019.46
181.742	1084.67
181.961	1204.87
182.181	210.22
182.401	181.38
182.621	317.34
182.84	1387.83
183.06	-4789.83
183.279	-658.25
183.499	-411.49
183.719	-498.7
183.938	-297.1
184.158	-258.92
184.377	-240.58
184.597	-144.11
184.816	-102.86
185.036	-186.55
185.256	-239.97
185.475	-541.04
185.695	-361.8
185.914	-355.79
186.134	-321.1
186.353	-411.62
186.572	-288.27
186.792	-869.46
187.011	4134.45
187.231	-2337.99
187.45	-376.49
187.67	-1755.81
187.889	667.41
188.108	356.19
188.328	281.37
188.547	213.22
188.766	178.39
188.986	175.02
189.205	160.77
189.424	189.5
189.644	186.16
189.863	256.96
190.082	280.24
190.302	395.18
190.521	334.62
190.74	354.8
190.959	1522.84
191.178	1249.62
191.398	1009.27
191.617	2733.68
191.836	11147.31
192.055	1891.04
192.274	532.14
192.494	743.72
192.713	27019.64
192.932	-2681.46
193.151	445225
193.37	614.63
193.589	-15748.67
193.808	-1257.52
194.027	-2174.4
194.246	4257.49
194.465	-3069.01
194.685	709.91
194.904	689.2
195.123	480.26
195.342	408.36
195.561	379.63
195.78	1071.1
195.999	2565.08
196.218	1172.2
196.436	812.94
196.655	354.75
196.874	215.73
197.093	473.15
197.312	440.06
197.531	796.59
197.75	1231.03
197.969	3457.14
198.188	646.58
198.407	394.95
198.625	479.74
198.844	536.93
199.063	720.5
199.282	1402.14
199.501	-6550.39
199.719	-2922.86
199.938	1288.85
200.157	696.61
200.376	-4082.63
200.594	-301.31
200.813	-932.67
201.032	-2180.06
201.251	-1281.3
201.469	-1789.34
201.688	-3165.24
201.907	5688.45
202.125	1688.31
202.344	6645.9
202.563	34702.9
202.781	1787.91
203	544.22
203.218	381.31
203.437	668.18
203.656	471
203.874	952.97
204.093	850.21
204.311	636.8
204.53	2133.38
204.748	510.42
204.967	680.8
205.185	560.47
205.404	589.8
205.622	830.71
205.841	443.83
206.059	346.74
206.278	281.95
206.496	474.55
206.715	570.33
206.933	388.67
207.151	498.46
207.37	357.04
207.588	428.13
207.806	500.13
208.025	716.12
208.243	1204.82
208.461	-92295.45
208.68	2701.06
208.898	1136.88
209.116	672.63
209.335	536.52
209.553	521.94
209.771	420.72
209.989	380.29
210.208	322.02
210.426	292.92
210.644	238.83
210.862	216.88
211.081	228.94
211.299	189.31
211.517	231.44
211.735	179.65
211.953	169.98
212.171	199.49
212.39	219.36
212.608	224.69
212.826	201.68
213.044	187.14
213.262	194.24
213.48	168.55
213.698	245.74
213.916	140.04
214.134	263.43
214.352	484.96
214.57	338.34
214.788	294.19
215.006	271.7
215.224	529.09
215.442	1355.52
215.66	2487.22
215.878	907.19
216.096	361.64
216.314	1219.45
216.532	5321.83
216.75	-1579.5
216.968	-1983.13
217.185	-16749.56
217.403	3612.1
217.621	-253200
217.839	-1533.01
218.057	-46825
218.275	-1583.63
218.492	-324.56
218.71	-5265.95
218.928	2706.78
219.146	1494.33
219.363	785.45
219.581	868.51
219.799	-4588.16
220.017	447.64
220.234	628.63
220.452	722.88
220.67	1024.49
220.887	421.46
221.105	776.52
221.323	472.44
221.54	318.39
221.758	326.12
221.976	252.89
222.193	173.01
222.411	189.34
222.629	185.81
222.846	174.29
223.064	157.47
223.281	168.94
223.499	164.94
223.716	155.38
223.934	156.92
224.151	131.47
224.369	149.27
224.586	189.27
224.804	203.13
225.021	175.35
225.239	164.89
225.456	160.96
225.674	141.64
225.891	113.73
226.108	96.1
226.326	75.62
226.543	78.86
226.76	70.3
226.978	58.15
227.195	56.52
227.413	48.3
227.63	50.99
227.847	47.66
228.064	40.39
228.282	44.31
228.499	50.74
228.716	50.32
228.934	50.48
229.151	49.29
229.368	43.13
229.585	38.99
229.802	40
230.02	40.59
230.237	41.12
230.454	44.82
230.671	46.86
230.888	42.66
231.105	46.79
231.323	46.68
231.54	48.24
231.757	55.92
231.974	63.5
232.191	65.97
232.408	65.85
232.625	68.67
232.842	55.76
233.059	52.3
233.276	54.78
233.493	51.54
233.71	45.24
233.927	40.82
234.144	44.98
234.361	45.6
234.578	42.85
234.795	39.17
235.012	36.23
235.229	45.42
235.446	47.83
235.663	45.73
235.879	46.26
236.096	53.2
236.313	59.43
236.53	51.54
236.747	48.2
236.964	42.89
237.181	49.67
237.397	57.32
237.614	68.33
237.831	69.16
238.048	75.02
238.264	72.47
238.481	67.78
238.698	67.31
238.915	65.95
239.131	60.62
239.348	57.98
239.565	54.7
239.781	51.61
239.998	38.59
240.215	33.32
240.431	29.72
240.648	32.44
240.865	28.52
241.081	26.9
241.298	25.09
241.514	27.68
241.731	27.64
241.947	24.02
242.164	22.58
242.38	20.57
242.597	18.02
242.814	17.93
243.03	19.04
243.246	20.37
243.463	20.86
243.679	23.19
243.896	23.13
244.112	24.18
244.329	26.24
244.545	26.38
244.762	26.76
244.978	31.42
245.194	30.49
245.411	27.32
245.627	28.41
245.843	27.47
246.06	24.8
246.276	21.91
246.492	21.8
246.709	21.05
246.925	21.34
247.141	22.66
247.357	21.56
247.574	21.29
247.79	20.61
248.006	19.87
248.222	20.2
248.439	19.74
248.655	20.73
248.871	20.67
249.087	20.68
249.303	21.34
249.519	21.45
249.736	23.76
249.952	24.64
250.168	28.06
250.384	27.58
250.6	24.51
250.816	25.27
251.032	23.93
251.248	23.26
251.464	24.93
251.68	24.18
251.896	22.51
252.112	20.02
252.328	17.79
252.544	18.06
252.76	17
252.976	16.96
253.192	16.76
253.408	16.17
253.624	15.69
253.84	15.9
254.056	12.08
254.272	12.96
254.487	14.27
254.703	14.18
254.919	12.18
255.135	17.26
255.351	21.08
255.567	21.85
255.782	25.84
255.998	27.23
256.214	26.35
256.43	28.37
256.646	27.25
256.861	30.22
257.077	29.56
257.293	27.73
257.508	27.76
257.724	25.07
257.94	23.02
258.155	21.05
258.371	19.96
258.587	19.04
258.802	18.95
259.018	17.66
259.234	14.8
259.449	15.09
259.665	15.5
259.88	14.73
260.096	15.18
260.312	15.16
260.527	15.08
260.743	14.73
260.958	14.98
261.174	15.7
261.389	17.66
261.605	18.14
261.82	17.99
262.036	18.04
262.251	18.23
262.466	17.65
262.682	18.54
262.897	18.82
263.113	18.62
263.328	17.87
263.543	16.82
263.759	16.6
263.974	18.25
264.189	18.42
264.405	17.23
264.62	18.94
264.835	19.85
265.051	21.44
265.266	20.31
265.481	23.08
265.696	26.95
265.912	26.41
266.127	22.57
266.342	20.8
266.557	22.54
266.773	22.14
266.988	19.73
267.203	20.28
267.418	18.23
267.633	19.27
267.848	18.07
268.064	13.93
268.279	12.93
268.494	12.27
268.709	12.15
268.924	11.54
269.139	12.24
269.354	12.91
269.569	11.9
269.784	12.11
269.999	11.82
270.214	12.32
270.429	13.6
270.644	14.01
270.859	15.18
271.074	14.96
271.289	15.86
271.504	15.6
271.719	16.98
271.934	18.07
272.149	17.84
272.363	18.94
272.578	17.54
272.793	16.65
273.008	16.36
273.223	15.37
273.438	15.79
273.653	15.2
273.867	15.14
274.082	15.41
274.297	14.88
274.512	16.45
274.726	15.08
274.941	16.11
275.156	18.68
275.371	18.92
275.585	21.69
275.8	22.46
276.015	20.57
276.229	21.94
276.444	21.28
276.659	19.79
276.873	18.95
277.088	20.7
277.302	22.66
277.517	19.75
277.732	20.81
277.946	17.15
278.161	18.06
278.375	17.86
278.59	16.59
278.804	15.68
279.019	17.18
279.233	16.6
279.448	13.9
279.662	12.86
279.877	13.68
280.091	11.41
280.306	13.59
280.52	9.92
280.735	12.32
280.949	14.03
281.163	14.84
281.378	14.58
281.592	14.91
281.806	15.7
282.021	15.12
282.235	16.56
282.449	17.67
282.664	15.83
282.878	18.08
283.092	16.19
283.307	14.62
283.521	13.07
283.735	12.94
283.949	12.7
284.164	12.81
284.378	11.61
284.592	9.26
284.806	9.47
285.02	11.34
285.234	10.01
285.449	10.49
285.663	11.12
285.877	11.82
286.091	11.96
286.305	11.81
286.519	12.37
286.733	13.38
286.947	14.9
287.161	15
287.375	13.87
287.589	15.65
287.803	16.55
288.017	16.17
288.231	16.88
288.445	16.9
288.659	17.65
288.873	17.79
289.087	17.47
289.301	17.88
289.515	16.43
289.729	17.37
289.943	16.77
290.157	17.51
290.371	17.7
290.584	17.25
290.798	17.28
291.012	16.3
291.226	15.38
291.44	15.93
291.654	14.56
291.867	15.64
292.081	15.94
292.295	15.43
292.509	14.37
292.722	13.92
292.936	12.46
293.15	12.16
293.364	12.91
293.577	12.16
293.791	12.99
294.005	13.33
294.218	13.73
294.432	12.73
294.645	13.65
294.859	13.56
295.073	14.03
295.286	14.29
295.5	14.21
295.713	13.41
295.927	13.24
296.14	12.02
296.354	11.82
296.568	11.73
296.781	11.54
296.994	12.05
297.208	11.54
297.421	10.65
297.635	11.12
297.848	10.5
298.062	10.39
298.275	11.81
298.489	12.51
298.702	13.8
298.915	13.08
299.129	14.29
299.342	13.19
299.555	14.84
299.769	16.08
299.982	16.53
300.195	17.06
300.409	17.94
300.622	16.55
300.835	15.07
301.048	13.26
301.262	14.23
301.475	14.25
301.688	14.32
301.901	13.69
302.115	13.18
302.328	12.61
302.541	12.6
302.754	12.71
302.967	13.7
303.18	15.34
303.393	16.27
303.607	16.4
303.82	16.4
304.033	16.96
304.246	17.67
304.459	18.49
304.672	19.73
304.885	20.62
305.098	20.92
305.311	21.58
305.524	20.41
305.737	19.19
305.95	19.15
306.163	18.8
306.376	18.66
306.589	17.15
306.802	17.09
307.015	16.2
307.228	16.04
307.44	15.53
307.653	14.5
307.866	14.93
308.079	16.41
308.292	16.27
308.505	17.03
308.718	17.13
308.93	18.7
309.143	18.93
309.356	18.72
309.569	17.78
309.781	17.52
309.994	17.94
310.207	17.85
310.42	17.14
310.632	17.37
310.845	16.7
311.058	16.6
311.27	14.79
311.483	14.68
311.696	14.56
311.908	14.81
312.121	14.95
312.333	15.29
312.546	15.42
312.759	15.66
312.971	15.06
313.184	15.45
313.396	14.96
313.609	15.89
313.821	16.3
314.034	16.96
314.246	16.12
314.459	17.68
314.671	16.83
314.884	16.62
315.096	16.26
315.309	17.42
315.521	17.93
315.733	17.95
315.946	17.36
316.158	17.32
316.371	17.93
316.583	18.72
316.795	17.04
317.008	18.22
317.22	18.46
317.432	20.6
317.644	20.02
317.857	19.43
318.069	19.81
318.281	20.36
318.494	19.82
318.706	19.42
318.918	19.8
319.13	19.61
319.342	18.77
319.555	18.41
319.767	18.66
319.979	18.49
320.191	17.85
320.403	18.24
320.615	19.13
320.827	19.64
321.039	19.71
321.252	21.19
321.464	22.43
321.676	21.91
321.888	22.59
322.1	20.84
322.312	20.19
322.524	21.11
322.736	20.22
322.948	20.23
323.16	19.62
323.372	20.02
323.584	19.32
323.796	18.84
324.007	18.33
324.219	18.85
324.431	19.84
324.643	21.8
324.855	22.92
325.067	22.66
325.279	22.5
325.491	23.66
325.702	23.57
325.914	23.45
326.126	24.24
326.338	23.4
326.55	22.85
326.761	22.22
326.973	21.07
327.185	20.85
327.396	22
327.608	21.64
327.82	20.07
328.032	20.34
328.243	21.09
328.455	21.21
328.666	22.48
328.878	23.64
329.09	24.64
329.301	25.33
329.513	24.08
329.725	24.43
329.936	25.55
330.148	26.36
330.359	26.41
330.571	26.34
330.782	25.58
330.994	27.03
331.205	25.66
331.417	24.52
331.628	24.96
331.84	25.54
332.051	25.04
332.262	24.64
332.474	24.56
332.685	24.66
332.897	23.79
333.108	24.13
333.319	23.02
333.531	23.59
333.742	23.42
333.953	22.19
334.165	22.14
334.376	23.3
334.587	23.32
334.799	22.34
335.01	21.69
335.221	21.78
335.432	20.24
335.644	20.52
335.855	20.53
336.066	20.71
336.277	21.47
336.488	20.99
336.7	19.17
336.911	19.12
337.122	19.88
337.333	20.3
337.544	20.46
337.755	22.85
337.966	23.32
338.177	22.44
338.388	22.87
338.599	22.52
338.811	22.15
339.022	22.83
339.233	22.22
339.444	21.3
339.655	20.15
339.866	20.15
340.076	18.16
340.287	17.12
340.498	17.12
340.709	16.68
340.92	16.98
341.131	18.32
341.342	18.34
341.553	18.25
341.764	19.95
341.975	20.81
342.185	21.3
342.396	22.19
342.607	22.56
342.818	23.41
343.029	22.31
343.239	21.66
343.45	20.85
343.661	20.63
343.872	20.97
344.082	19.72
344.293	19.41
344.504	18.92
344.714	19.06
344.925	18.85
345.136	18.19
345.346	17.63
345.557	17.51
345.768	16.99
345.978	18.2
346.189	17.43
346.399	17.13
346.61	17.17
346.821	17.06
347.031	17.01
347.242	17
347.452	17.09
347.663	19.24
347.873	20.23
348.084	20.1
348.294	17.9
348.504	19.32
348.715	20.72
348.925	21.32
349.136	19.95
349.346	19.29
349.557	19.21
349.767	19.88
349.977	19.31
350.188	18.62
350.398	19.69
350.608	20.54
350.819	20.34
351.029	19.56
351.239	19.79
351.449	21.04
351.66	21.65
351.87	21.67
352.08	21.07
352.29	20.87
352.501	21.34
352.711	20.86
352.921	20.91
353.131	20.01
353.341	20.51
353.552	19.39
353.762	18.75
353.972	18.57
354.182	18.81
354.392	18.68
354.602	18.9
354.812	18.57
355.022	18.02
355.232	18.28
355.442	18.74
355.652	18.57
355.862	18.89
356.072	19.57
356.282	18.79
356.492	18.7
356.702	18.84
356.912	18.37
357.122	18.86
357.332	19.26
357.542	18.16
357.752	17.99
357.962	17.23
358.171	16.93
358.381	16.65
358.591	16.81
358.801	17.07
359.011	17.1
359.221	17.53
359.43	16.8
359.64	15.73
359.85	15.98
360.06	16.07
360.269	16.07
360.479	15.81
360.689	15.78
360.899	16.59
361.108	16.9
361.318	16.32
361.528	16.03
361.737	15.94
361.947	16.68
362.156	17.03
362.366	16.44
362.576	16.85
362.785	16.7
362.995	16.25
363.204	15.69
363.414	14.97
363.623	15.24
363.833	15.7
364.042	16.08
364.252	16.09
364.461	15.63
364.671	16.02
364.88	15.88
365.09	17.47
365.299	18.14
365.509	18.31
365.718	17.5
365.927	17.78
366.137	17.5
366.346	17.34
366.555	16.85
366.765	17.05
366.974	17.28
367.183	15.96
367.393	14.45
367.602	14.02
367.811	13.79
368.021	14.36
368.23	13.98
368.439	13.56
368.648	13.08
368.857	12.96
369.067	13
369.276	13.14
369.485	14.72
369.694	15.32
369.903	15.12
370.112	15.15
370.321	14.97
370.531	14.92
370.74	15.11
370.949	15.07
371.158	14.8
371.367	14.72
371.576	14.1
371.785	13.65
371.994	13.8
372.203	14.14
372.412	13.64
372.621	14.56
372.83	14.77
373.039	15.05
373.248	14.53
373.457	15.06
373.666	14.65
373.874	14.67
374.083	14.55
374.292	14.32
374.501	14.27
374.71	14.49
374.919	13.47
375.128	13.22
375.336	13.4
375.545	14.31
375.754	14.47
375.963	14.73
376.171	14.25
376.38	14.09
376.589	13.38
376.798	12.69
377.006	12.25
377.215	13.03
377.424	12.63
377.632	11.52
377.841	11.32
378.05	11.57
378.258	11.55
378.467	11.62
378.675	11.63
378.884	12.32
379.093	12.62
379.301	12.87
379.51	12.32
379.718	12.59
379.927	13.25
380.135	12.93
380.344	11.7
380.552	11.69
380.761	11.54
380.969	11.35
381.177	10.98
381.386	11.21
381.594	10.98
381.803	10.97
382.011	11
382.219	10.33
382.428	10.41
382.636	10.83
382.845	10.2
383.053	10.88
383.261	10.98
383.469	11.13
383.678	11.15
383.886	11.3
384.094	11.56
384.302	11.44
384.511	11.87
384.719	11.99
384.927	11.79
385.135	12.13
385.343	11.5
385.552	11.75
385.76	11.26
385.968	11.03
386.176	10.58
386.384	9.82
386.592	9.51
386.8	9.58
387.008	9.54
387.216	9.91
387.424	10.15
387.633	10.46
387.841	10.18
388.049	11
388.257	10.85
388.465	10.77
388.672	11.25
388.88	11.68
389.088	11.03
389.296	10.75
389.504	10.24
389.712	10.02
389.92	10.02
390.128	9.9
390.336	9.12
390.544	9
390.751	9.25
390.959	9.28
391.167	9.05
391.375	9.45
391.583	9.38
391.79	9.65
391.998	9.67
392.206	9.45
392.414	9.18
392.621	9.66
392.829	9.55
393.037	9.62
393.244	9.08
393.452	9
393.66	8.79
393.867	8.89
394.075	8.57
394.283	8.47
394.49	8.06
394.698	8.05
394.905	7.6
395.113	8.04
395.32	7.94
395.528	8.31
395.735	8.46
395.943	8.51
396.15	8.23
396.358	8.25
396.565	8.13
396.773	8.55
396.98	8.95
397.188	8.84
397.395	8.57
397.602	8.4
397.81	8.04
398.017	7.94
398.225	8.17
398.432	8.23
398.639	8.3
398.847	8.38
399.054	8.44
399.261	8.21
399.468	8.24
399.676	8.29
399.883	8.3
400.09	8.72
400.297	8.81
400.505	8.55
400.712	8.84
400.919	9.06
401.126	8.84
401.333	8.77
401.54	8.59
401.748	8.72
401.955	8.19
402.162	8.19
402.369	7.94
402.576	7.61
402.783	7.31
402.99	7.33
403.197	6.8
403.404	6.86
403.611	6.96
403.818	7.08
404.025	7.12
404.232	7.64
404.439	7.48
404.646	7.37
404.853	7.61
405.06	7.65
405.267	7.35
405.474	7.65
405.681	8.02
405.887	7.9
406.094	8.11
406.301	8.09
406.508	8.21
406.715	8.77
406.922	8.87
407.128	8.92
407.335	8.96
407.542	8.94
407.749	8.93
407.955	8.62
408.162	8.27
408.369	8.01
408.575	8.04
408.782	7.65
408.989	7
409.195	6.95
409.402	7.1
409.609	6.89
409.815	6.91
410.022	6.83
410.228	6.65
410.435	6.92
410.642	7.21
410.848	6.93
411.055	7.2
411.261	7.65
411.468	7.96
411.674	7.82
411.881	8.19
412.087	8.45
412.294	8.6
412.5	8.91
412.706	9.13
412.913	8.89
413.119	9.01
413.326	8.65
413.532	8.4
413.738	7.99
413.945	7.47
414.151	7.52
414.357	7.29
414.564	7.1
414.77	6.99
414.976	7.05
415.182	7.2
415.389	6.97
415.595	6.66
415.801	6.86
416.007	7.17
416.214	7.13
416.42	6.81
416.626	6.65
416.832	6.92
417.038	6.79
417.244	6.44
417.45	6.28
417.657	6.38
417.863	6.29
418.069	6.25
418.275	6.07
418.481	6.18
418.687	6.39
418.893	6.37
419.099	6.35
419.305	6.24
419.511	6.31
419.717	6.25
419.923	6.21
420.129	6.26
420.335	6.23
420.541	6.27
420.746	6.12
420.952	6.06
421.158	6.13
421.364	5.9
421.57	6.05
421.776	5.94
421.982	6.14
422.187	6.07
422.393	6.13
422.599	6.06
422.805	5.95
423.01	6.02
423.216	5.93
423.422	5.92
423.628	6.04
423.833	5.88
424.039	5.97
424.245	6
424.45	6
424.656	5.99
424.862	5.91
425.067	5.9
425.273	6.06
425.478	6.08
425.684	6.09
425.889	6.3
426.095	6.4
426.301	6.38
426.506	6.14
426.712	6.21
426.917	6.33
427.123	6.33
427.328	6.32
427.533	6.3
427.739	6.34
427.944	6.29
428.15	5.91
428.355	5.99
428.561	5.98
428.766	5.85
428.971	5.82
429.177	5.87
429.382	5.9
429.587	6.07
429.793	6.03
429.998	6.15
430.203	6.04
430.408	6.07
430.614	5.94
430.819	6
431.024	6.04
431.229	6.1
431.434	6.27
431.64	6.44
431.845	6.29
432.05	6.33
432.255	6.17
432.46	6.47
432.665	6.42
432.87	6.33
433.076	6.47
433.281	6.62
433.486	6.5
433.691	6.39
433.896	6.21
434.101	6.1
434.306	6.01
434.511	6.08
434.716	5.99
434.921	6.08
435.126	6.12
435.331	5.87
435.535	5.74
435.74	5.73
435.945	5.66
436.15	5.8
436.355	6.07
436.56	6.02
436.765	5.99
436.97	5.72
437.174	5.65
437.379	5.64
437.584	5.87
437.789	5.91
437.993	6
438.198	5.86
438.403	5.8
438.608	5.81
438.812	5.75
439.017	5.62
439.222	5.79
439.426	5.78
439.631	5.77
439.836	5.61
440.04	5.66
440.245	5.53
440.45	5.65
440.654	5.52
440.859	5.27
441.063	5.31
441.268	5.47
441.472	5.42
441.677	5.32
441.881	5.33
442.086	5.25
442.29	5.11
442.495	5.26
442.699	5.25
442.904	5.3
443.108	5.55
443.312	5.53
443.517	5.38
443.721	5.26
443.925	5.35
444.13	5.23
444.334	5.15
444.538	5.24
444.743	5.22
444.947	5.2
445.151	5.22
445.356	5.1
445.56	5.24
445.764	5.27
445.968	5.41
446.173	5.36
446.377	5.4
446.581	5.62
446.785	5.64
446.989	5.6
447.193	5.53
447.398	5.6
447.602	5.42
447.806	5.36
448.01	5.41
448.214	5.32
448.418	5.19
448.622	5.24
448.826	5.15
449.03	5.14
449.234	5.17
449.438	5.23
449.642	5.14
449.846	5.56
450.05	5.55
450.254	5.4
450.458	5.27
450.662	5.57
450.866	5.53
451.069	5.53
451.273	5.45
451.477	5.41
451.681	5.53
451.885	5.51
452.089	5.55
452.292	5.31
452.496	5.26
452.7	5.42
452.904	5.34
453.107	5.32
453.311	5.15
453.515	5.33
453.719	5.28
453.922	5.33
454.126	5.38
454.33	5.08
454.533	5.2
454.737	5.39
454.94	5.49
455.144	5.54
455.348	5.7
455.551	5.72
455.755	5.51
455.958	5.58
456.162	5.5
456.365	5.37
456.569	5.34
456.772	5.32
456.976	5.35
457.179	5.24
457.383	5.18
457.586	5.11
457.79	5.04
457.993	5.07
458.196	4.86
458.4	4.82
458.603	4.79
458.807	4.72
459.01	4.69
459.213	4.6
459.417	4.73
459.62	4.6
459.823	4.62
460.026	4.68
460.23	4.64
460.433	4.7
460.636	4.65
460.839	4.71
461.042	4.86
461.246	4.98
461.449	5.03
461.652	4.89
461.855	4.94
462.058	4.93
462.261	4.96
462.464	4.79
462.668	4.77
462.871	4.96
463.074	4.8
463.277	4.57
463.48	4.37
463.683	4.44
463.886	4.43
464.089	4.6
464.292	4.46
464.495	4.65
464.698	4.83
464.901	4.84
465.104	4.74
465.306	4.8
465.509	5.03
465.712	5.37
465.915	5.33
466.118	5.24
466.321	5.27
466.524	5.24
466.726	5.18
466.929	5.28
467.132	5.32
467.335	5.5
467.538	5.54
467.74	5.39
467.943	5.15
468.146	5.01
468.348	5.12
468.551	5.01
468.754	5
468.956	4.88
469.159	4.63
469.362	4.81
469.564	4.68
469.767	4.89
469.969	5
470.172	5.01
470.375	5.3
470.577	5.4
470.78	5.49
470.982	5.63
471.185	5.82
471.387	5.84
471.59	5.78
471.792	5.81
471.995	5.7
472.197	5.86
472.399	5.96
472.602	5.87
472.804	5.83
473.007	5.69
473.209	5.64
473.411	5.51
473.614	5.71
473.816	5.54
474.018	5.46
474.22	5.61
474.423	5.38
474.625	5.18
474.827	5.34
475.03	5.22
475.232	5.23
475.434	5.26
475.636	5
475.838	4.92
476.04	5.07
476.243	5.08
476.445	4.85
476.647	4.86
476.849	5.11
477.051	4.76
477.253	5.13
477.455	5.19
477.657	5.28
477.859	5.46
478.061	5.35
478.263	5.26
478.465	5.01
478.667	5.02
478.869	4.95
479.071	4.87
479.273	4.88
479.475	4.66
479.677	4.53
479.879	4.4
480.081	4.37
480.283	4.61
480.485	4.54
480.686	4.8
480.888	4.88
481.09	4.91
481.292	4.77
481.494	5
481.695	4.95
481.897	4.95
482.099	4.96
482.301	4.87
482.502	4.7
482.704	4.73
482.906	4.58
483.107	4.47
483.309	4.49
483.511	4.49
483.712	4.43
483.914	4.42
484.115	4.37
484.317	4.33
484.519	4.36
484.72	4.35
484.922	4.3
485.123	4.32
485.325	4.4
485.526	4.38
485.728	4.37
485.929	4.33
486.131	4.26
486.332	4.36
486.534	4.4
486.735	4.37
486.936	4.45
487.138	4.48
487.339	4.46
487.541	4.41
487.742	4.44
487.943	4.39
488.144	4.41
488.346	4.46
488.547	4.4
488.748	4.42
488.95	4.41
489.151	4.41
489.352	4.47
489.553	4.52
489.755	4.55
489.956	4.47
490.157	4.52
490.358	4.48
490.559	4.4
490.76	4.45
490.961	4.38
491.163	4.55
491.364	4.55
491.565	4.49
491.766	4.52
491.967	4.53
492.168	4.61
492.369	4.64
492.57	4.67
492.771	4.87
492.972	4.88
493.173	4.93
493.374	4.89
493.575	4.87
493.776	4.8
493.976	4.91
494.177	4.97
494.378	5.06
494.579	5.2
494.78	5.21
494.981	5.16
495.182	5.25
495.382	5.36
495.583	5.23
495.784	5.32
495.985	5.5
496.185	5.33
496.386	5.24
496.587	5.23
496.788	5.21
496.988	5.11
497.189	5.15
497.39	4.99
497.59	5.02
497.791	4.99
497.992	4.89
498.192	4.83
498.393	5.01
498.593	5
498.794	5.05
498.994	5.04
499.195	5.22
499.395	5.16
499.596	5.44
499.796	5.39
499.997	5.73
500.197	5.88
500.398	5.97
500.598	5.6
500.799	5.84
500.999	5.75
501.199	5.61
501.4	5.61
501.6	5.52
501.801	5.43
502.001	5.53
502.201	5.25
502.402	5.21
502.602	5.17
502.802	5.53
503.002	5.42
503.203	5.61
503.403	5.7
503.603	5.65
503.803	5.74
504.003	5.92
504.204	5.87
504.404	5.9
504.604	5.97
504.804	6.29
505.004	6.14
505.204	6.04
505.404	6.04
505.604	6.13
505.804	6.23
506.005	6.4
506.205	6.17
506.405	6.25
506.605	6.45
506.805	6.49
507.005	6.24
507.204	6.25
507.404	6.3
507.604	6.2
507.804	6.19
508.004	6.18
508.204	6.04
508.404	6.06
508.604	5.87
508.804	5.76
509.003	5.74
509.203	5.9
509.403	5.97
509.603	6.05
509.803	6.13
510.002	6.14
510.202	6.16
510.402	6.29
510.602	6.42
510.801	6.63
511.001	6.73
511.201	6.74
511.4	6.63
511.6	6.67
511.8	6.72
511.999	6.87
512.199	6.75
512.398	6.77
512.598	6.7
512.797	6.92
512.997	7.02
513.197	6.97
513.396	7.16
513.596	7.32
513.795	7.51
513.994	7.45
514.194	7.36
514.393	7.56
514.593	7.7
514.792	7.82
514.992	7.66
515.191	7.73
515.39	7.79
515.59	7.77
515.789	7.92
515.988	7.87
516.188	7.9
516.387	7.99
516.586	8.15
516.786	8.21
516.985	8.26
517.184	8.35
517.383	8.38
517.582	8.49
517.782	8.39
517.981	8.4
518.18	8.31
518.379	8.55
518.578	8.45
518.777	8.48
518.976	8.59
519.176	8.73
519.375	8.73
519.574	8.71
519.773	8.75
519.972	8.95
520.171	9
520.37	9.17
520.569	9.2
520.768	9.5
520.967	9.49
521.166	9.5
521.365	9.56
521.564	9.67
521.762	9.93
521.961	10.05
522.16	10.12
522.359	9.97
522.558	9.86
522.757	9.95
522.956	9.77
523.154	9.78
523.353	9.87
523.552	9.85
523.751	9.73
523.949	9.7
524.148	9.6
524.347	9.6
524.546	9.96
524.744	10.29
524.943	10.31
525.142	10.46
525.34	10.64
525.539	10.59
525.737	10.74
525.936	10.82
526.135	10.83
526.333	10.95
526.532	10.96
526.73	10.91
526.929	10.92
527.127	10.94
527.326	10.99
527.524	10.96
527.723	11.09
527.921	11.06
528.12	11.17
528.318	11.16
528.516	11.25
528.715	11.31
528.913	11.29
529.112	11.33
529.31	11.37
529.508	11.41
529.707	11.46
529.905	11.53
530.103	11.58
530.301	11.58
530.5	11.73
530.698	11.71
530.896	11.81
531.094	11.91
531.293	11.87
531.491	11.96
531.689	11.96
531.887	12.04
532.085	12.03
532.283	12.06
532.481	12.12
532.68	12.17
532.878	12.26
533.076	12.29
533.274	12.35
533.472	12.37
533.67	12.36
533.868	12.45
534.066	12.57
534.264	12.57
534.462	12.65
534.66	12.75
534.858	12.81
535.056	12.98
535.253	12.97
535.451	13.08
535.649	13.29
535.847	13.48
536.045	13.61
536.243	13.66
536.441	13.81
536.638	13.84
536.836	13.87
537.034	14
537.232	13.91
537.43	14
537.627	14.04
537.825	14.2
538.023	14.23
538.22	14.33
538.418	14.29
538.616	14.35
538.813	14.46
539.011	14.59
539.209	14.52
539.406	14.54
539.604	14.69
539.801	14.76
539.999	14.81
540.196	14.85
540.394	14.84
540.591	14.92
540.789	14.92
540.986	14.85
541.184	15
541.381	15.14
541.579	15.25
541.776	15.25
541.974	15.3
542.171	15.33
542.368	15.37
542.566	15.36
542.763	15.38
542.96	15.44
543.158	15.72
543.355	15.67
543.552	15.66
543.75	15.76
543.947	15.84
544.144	15.94
544.341	15.99
544.539	16.12
544.736	16.23
544.933	16.3
545.13	16.42
545.327	16.41
545.524	16.54
545.722	16.58
545.919	16.58
546.116	16.54
546.313	16.49
546.51	16.66
546.707	16.65
546.904	16.84
547.101	16.98
547.298	17.16
547.495	17.14
547.692	17.24
547.889	17.27
548.086	17.36
548.283	17.68
548.48	17.83
548.677	17.79
548.874	17.81
549.07	17.87
549.267	17.92
549.464	17.71
549.661	17.89
549.858	17.87
550.055	18.26
550.251	18.44
550.448	18.39
550.645	18.41
550.842	18.42
551.038	18.47
551.235	18.57
551.432	18.83
551.628	19.18
551.825	19.26
552.022	19.35
552.218	19.36
552.415	19.38
552.612	19.56
552.808	19.82
553.005	19.91
553.201	20.04
553.398	20.19
553.594	20.29
553.791	20.3
553.987	20.47
554.184	20.64
554.38	20.54
554.577	20.66
554.773	20.88
554.97	20.83
555.166	21.05
555.362	21.21
555.559	21.14
555.755	21.14
555.952	21.21
556.148	21.17
556.344	21.2
556.541	21.39
556.737	21.41
556.933	21.36
557.129	21.39
557.326	21.51
557.522	21.59
557.718	21.98
557.914	21.93
558.11	21.9
558.307	21.87
558.503	21.84
558.699	21.91
558.895	22.09
559.091	22.1
559.287	22.35
559.483	22.44
559.679	22.33
559.876	22.04
560.072	22.24
560.268	22.4
560.464	22.36
560.66	22.55
560.856	22.68
561.052	22.47
561.247	22.58
561.443	22.55
561.639	22.58
561.835	23.02
562.031	23.33
562.227	23.47
562.423	23.54
562.619	23.89
562.815	24.14
563.01	24.35
563.206	24.65
563.402	24.67
563.598	24.79
563.793	24.81
563.989	24.72
564.185	24.63
564.381	24.57
564.576	24.71
564.772	24.68
564.968	24.51
565.163	24.38
565.359	24.28
565.555	24.35
565.75	24.6
565.946	24.46
566.141	24.56
566.337	24.59
566.532	24.8
566.728	24.71
566.923	24.65
567.119	24.94
567.314	25.08
567.51	25.38
567.705	25.43
567.901	25.35
568.096	25.63
568.292	25.82
568.487	26.08
568.682	26.03
568.878	26.2
569.073	26.44
569.268	26.21
569.464	26.27
569.659	26.23
569.854	26.32
570.05	26
570.245	26.21
570.44	26.15
570.635	26.2
570.831	26.3
571.026	26.43
571.221	26.73
571.416	26.85
571.611	26.8
571.806	26.85
572.002	26.97
572.197	27.14
572.392	27.18
572.587	27.28
572.782	27.42
572.977	27.45
573.172	27.38
573.367	27.17
573.562	27.33
573.757	27.53
573.952	27.44
574.147	27.44
574.342	27.75
574.537	27.78
574.732	27.63
574.927	27.59
575.121	27.58
575.316	27.85
575.511	27.86
575.706	27.84
575.901	27.77
576.096	28
576.29	27.96
576.485	28.06
576.68	28.2
576.875	28.42
577.069	28.36
577.264	28.49
577.459	28.49
577.654	28.72
577.848	28.83
578.043	29.15
578.238	29.33
578.432	29.44
578.627	29.45
578.821	29.4
579.016	29.45
579.21	29.74
579.405	29.83
579.6	29.81
579.794	30
579.989	30.02
580.183	29.91
580.378	29.9
580.572	30.26
580.766	30.33
580.961	30.31
581.155	30.28
581.35	30.54
581.544	30.44
581.738	30.65
581.933	30.45
582.127	30.82
582.321	30.96
582.516	31.23
582.71	31.1
582.904	31.14
583.099	31.1
583.293	31.29
583.487	31.12
583.681	31.67
583.875	31.44
584.07	31.61
584.264	31.66
584.458	31.63
584.652	31.2
584.846	31.34
585.04	31.24
585.234	31.71
585.428	31.76
585.623	31.54
585.817	31.38
586.011	31.47
586.205	31.47
586.399	31.38
586.593	31.31
586.787	31.67
586.981	31.47
587.174	31.7
587.368	31.59
587.562	31.74
587.756	31.88
587.95	31.91
588.144	32.07
588.338	32.02
588.532	31.93
588.725	32.05
588.919	32.04
589.113	32.48
589.307	32.59
589.501	32.43
589.694	32.77
589.888	33.06
590.082	33.04
590.275	32.98
590.469	33.29
590.663	33.51
590.856	33.36
591.05	33.4
591.244	33.15
591.437	33.2
591.631	33.28
591.824	32.75
592.018	32.53
592.212	32.54
592.405	33.02
592.599	33
592.792	32.95
592.986	33.2
593.179	33.38
593.372	33.42
593.566	33.08
593.759	33.22
593.953	33.6
594.146	33.77
594.339	33.93
594.533	33.82
594.726	33.68
594.92	33.61
595.113	33.42
595.306	33.32
595.499	33.37
595.693	33.84
595.886	33.97
596.079	33.91
596.272	33.71
596.466	33.52
596.659	33.48
596.852	33.75
597.045	33.8
597.238	34.09
597.431	34.15
597.624	34.43
597.818	34.33
598.011	34.32
598.204	34.15
598.397	34.5
598.59	34.58
598.783	34.49
598.976	34.38
599.169	34.41
599.362	34.55
599.555	34.57
599.748	34.37
599.941	34.24
600.134	34.27
600.326	34.46
600.519	34.58
600.712	34.92
600.905	35.19
601.098	35.36
601.291	35.22
601.483	35.02
601.676	34.9
601.869	34.76
602.062	34.85
602.255	35.03
602.447	34.96
602.64	34.68
602.833	34.48
603.025	34.48
603.218	34.46
603.411	34.58
603.603	34.55
603.796	34.76
603.989	34.85
604.181	35
604.374	34.85
604.566	35
604.759	35.16
604.951	35.3
605.144	35.28
605.336	35.5
605.529	35.73
605.721	35.85
605.914	35.73
606.106	35.76
606.299	35.78
606.491	36.02
606.683	36.03
606.876	36.05
607.068	36.01
607.26	36.04
607.453	35.62
607.645	35.45
607.837	35.62
608.03	35.85
608.222	35.94
608.414	35.83
608.606	35.65
608.799	35.94
608.991	35.83
609.183	35.96
609.375	36.03
609.567	36.06
609.759	36.29
609.952	36.15
610.144	36.23
610.336	36.08
610.528	36.15
610.72	36.27
610.912	36.05
611.104	36.4
611.296	36.28
611.488	36.6
611.68	36.9
611.872	36.73
612.064	37.2
612.256	37.21
612.448	37.69
612.64	37.87
612.832	37.93
613.023	38.08
613.215	38.17
613.407	38.3
613.599	37.86
613.791	37.65
613.983	37.57
614.174	37.24
614.366	37.45
614.558	37.24
614.75	37.29
614.941	37.56
615.133	37.47
615.325	37.43
615.516	37.72
615.708	37.93
615.9	38.18
616.091	38.13
616.283	38.08
616.475	37.71
616.666	37.85
616.858	38.06
617.049	37.62
617.241	37.58
617.432	37.45
617.624	37.52
617.815	37.29
618.007	37.18
618.198	37.55
618.39	37.78
618.581	38.06
618.773	37.97
618.964	37.58
619.155	37.52
619.347	37.4
619.538	37.34
619.729	37.03
619.921	37.31
620.112	37.45
620.303	37.18
620.494	37.17
620.686	37.12
620.877	37.23
621.068	37.25
621.259	37.6
621.451	37.98
621.642	37.84
621.833	37.95
622.024	37.93
622.215	37.76
622.406	38.13
622.597	38.08
622.788	38.17
622.98	38.31
623.171	38.53
623.362	38.7
623.553	38.84
623.744	39
623.935	38.87
624.126	38.75
624.317	39.07
624.508	38.91
624.698	38.72
624.889	38.6
625.08	38.68
625.271	38.81
625.462	38.26
625.653	37.81
625.844	37.8
626.034	37.83
626.225	38
626.416	37.74
626.607	37.89
626.798	38.13
626.988	38.04
627.179	38.05
627.37	37.59
627.56	38.16
627.751	38.22
627.942	38.38
628.132	38.4
628.323	38.42
628.514	38.77
628.704	38.6
628.895	38.58
629.085	38.76
629.276	38.38
629.466	38.9
629.657	38.43
629.847	38.47
630.038	38.74
630.228	38.94
630.419	39.33
630.609	39.3
630.8	39.32
630.99	39.29
631.181	39.58
631.371	39.87
631.561	39.71
631.752	39.99
631.942	40.4
632.132	39.9
632.323	40.12
632.513	39.76
632.703	39.29
632.893	39.46
633.084	39.56
633.274	39.31
633.464	39.16
633.654	39.46
633.844	39.04
634.034	38.83
634.225	39.03
634.415	38.73
634.605	38.65
634.795	38.8
634.985	39.09
635.175	39.02
635.365	39.07
635.555	39.35
635.745	38.98
635.935	39.7
636.125	39.89
636.315	39.86
636.505	39.82
636.695	39.99
636.885	40.11
637.075	39.98
637.265	40.03
637.455	40.14
637.644	40.03
637.834	40.21
638.024	39.87
638.214	40
638.404	40.18
638.593	40.32
638.783	40.26
638.973	40.49
639.163	40.21
639.352	39.81
639.542	39.77
639.732	40.13
639.921	40.27
640.111	40.58
640.301	40
640.49	39.91
640.68	39.93
640.87	40.05
641.059	40.27
641.249	40.86
641.438	41.1
641.628	41.27
641.817	41.71
642.007	41.77
642.196	42.03
642.386	42.4
642.575	42.58
642.764	42.79
642.954	42.56
643.143	42.36
643.333	41.95
643.522	42.26
643.711	42.02
643.901	41.16
644.09	41.38
644.279	41.23
644.469	41.13
644.658	40.71
644.847	40.41
645.036	40.93
645.226	41.35
645.415	41.36
645.604	41.31
645.793	41.15
645.982	40.96
646.171	40.55
646.361	39.92
646.55	40.29
646.739	41.17
646.928	40.94
647.117	40.51
647.306	40.09
647.495	39.98
647.684	40.16
647.873	40.63
648.062	40.91
648.251	41.09
648.44	41.29
648.629	40.85
648.818	40.27
649.007	40.72
649.196	40.7
649.384	40.2
649.573	40.27
649.762	40.09
649.951	40.22
650.14	40.41
650.328	40.37
650.517	40.53
650.706	40.99
650.895	41.37
651.083	41.87
651.272	42.23
651.461	42.5
651.65	42.68
651.838	42.71
652.027	42.35
652.216	42.36
652.404	42.01
652.593	42.43
652.781	42.26
652.97	42.11
653.158	41.29
653.347	41.22
653.535	41.67
653.724	41.38
653.912	41.95
654.101	41.79
654.289	41.85
654.478	42.5
654.666	42.16
654.855	42.13
655.043	42.07
655.231	42.33
655.42	42.41
655.608	42.57
655.796	43.23
655.985	42.99
656.173	43.22
656.361	42.89
656.55	42.41
656.738	42.61
656.926	42.69
657.114	42.69
657.302	42.98
657.491	42.92
657.679	42.54
657.867	42.46
658.055	42.13
658.243	42.3
658.431	42.77
658.619	42.77
658.807	42.84
658.996	42.98
659.184	43.12
659.372	43.07
659.56	42.9
659.748	43.12
659.936	43.14
660.124	43.26
660.311	43.3
660.499	43.14
660.687	43.14
660.875	42.84
661.063	42.69
661.251	42.52
661.439	42.77
661.627	43.08
661.814	42.97
662.002	42.46
662.19	42.64
662.378	42.33
662.565	42.57
662.753	43.16
662.941	43.59
663.129	43.57
663.316	43.77
663.504	43.5
663.692	43.48
663.879	43.53
664.067	43.66
664.254	43.42
664.442	43.83
664.63	44.01
664.817	44.24
665.005	43.97
665.192	44.75
665.38	44.65
665.567	44.24
665.755	44
665.942	43.7
666.13	43.92
666.317	43.91
666.504	43.47
666.692	43.46
666.879	43.17
667.067	43.35
667.254	43.14
667.441	43.05
667.629	43.56
667.816	43.32
668.003	43.8
668.19	44.07
668.378	44.6
668.565	44.68
668.752	44.16
668.939	44.08
669.127	43.97
669.314	43.57
669.501	43.82
669.688	44.04
669.875	44.43
670.062	44.43
670.249	44.18
670.436	43.73
670.623	43.97
670.81	43.73
670.997	43.48
671.184	43.52
671.371	43.84
671.558	43.28
671.745	42.91
671.932	42.75
672.119	42.55
672.306	42.88
672.493	42.88
672.68	43.01
672.867	44.08
673.054	44.15
673.24	44.13
673.427	43.91
673.614	44.04
673.801	44.76
673.988	45.55
674.174	45.78
674.361	45.09
674.548	45.07
674.734	44.72
674.921	43.62
675.108	43.93
675.294	43.83
675.481	43.8
675.668	43.57
675.854	42.94
676.041	42.63
676.227	42.72
676.414	43
676.601	43.23
676.787	43.16
676.974	43.52
677.16	43.23
677.347	43.89
677.533	43.69
677.719	44
677.906	43.94
678.092	44.09
678.279	43.53
678.465	43.91
678.651	43.86
678.838	44.01
679.024	44.03
679.21	43.44
679.397	42.68
679.583	42.99
679.769	43.02
679.955	43.02
680.142	42.75
680.328	43.18
680.514	42.71
680.7	42.74
680.886	42.76
681.073	42.64
681.259	43.38
681.445	44.06
681.631	44.08
681.817	44.29
682.003	44.14
682.189	44.11
682.375	44.1
682.561	45.02
682.747	44.42
682.933	44.53
683.119	44.49
683.305	44.37
683.491	44.12
683.677	44.6
683.863	44.58
684.049	45.13
684.235	45.27
684.42	45.4
684.606	44.39
684.792	45.62
684.978	45.47
685.164	45.57
685.349	45.7
685.535	45.73
685.721	45.09
685.907	44.65
686.092	44.25
686.278	44.37
686.464	44.4
686.649	45.06
686.835	44.77
687.021	45.79
687.206	46.05
687.392	46.11
687.577	46.49
687.763	46.91
687.948	47.15
688.134	47.05
688.319	46.51
688.505	46.5
688.69	46.12
688.876	45.88
689.061	45.31
689.247	45.7
689.432	45.74
689.618	45
689.803	44.63
689.988	45.01
690.174	45.37
690.359	45.88
690.544	45.9
690.73	46
690.915	46.14
691.1	45.46
691.285	45.32
691.471	45.09
691.656	44.94
691.841	44.96
692.026	44.59
692.211	44.42
692.396	44.58
692.582	45.15
692.767	44.83
692.952	44.91
693.137	45.55
693.322	45.4
693.507	45.86
693.692	46.51
693.877	46.59
694.062	46.85
694.247	47.07
694.432	47.46
694.617	46.46
694.802	46.75
694.987	46.93
695.172	47.19
695.357	46.97
695.541	46.62
695.726	46.82
695.911	47.2
696.096	46.98
696.281	47.27
696.466	47.1
696.65	47.95
696.835	47.9
697.02	46.81
697.204	46.76
697.389	46.74
697.574	46.9
697.759	46.9
697.943	46.42
698.128	46.78
698.312	46.73
698.497	46.2
698.682	45.74
698.866	45.89
699.051	46.54
699.235	46.5
699.42	46.64
699.604	46.59
699.789	46.49
699.973	46.28
700.158	46.11
700.342	45.96
700.527	46.28
700.711	46.78
700.895	46.81
701.08	47.03
701.264	46.77
701.448	46.34
701.633	46.06
701.817	46.02
702.001	46.88
702.186	46.94
702.37	46.44
702.554	46.25
702.738	46.26
702.923	46.34
703.107	45.77
703.291	46.21
703.475	46.77
703.659	46.24
703.843	45.73
704.027	45.97
704.212	45.31
704.396	47.02
704.58	47.24
704.764	46.16
704.948	45.78
705.132	46.14
705.316	45.61
705.5	46.16
705.684	47.07
705.868	48.22
706.052	48.01
706.235	49.23
706.419	48.11
706.603	47.77
706.787	47.75
706.971	47.73
707.155	47.07
707.339	47.37
707.522	47.01
707.706	47.48
707.89	46.7
708.074	46.38
708.257	45.48
708.441	45.9
708.625	46.29
708.808	46.35
708.992	47
709.176	47.56
709.359	47.15
709.543	46.68
709.727	46.14
709.91	46.71
710.094	46.81
710.277	47.43
710.461	46.88
710.644	47.36
710.828	48.26
711.011	47.35
711.195	47.28
711.378	47.91
711.562	47.86
711.745	47.62
711.928	46.66
712.112	46.07
712.295	45.91
712.478	46.11
712.662	46.2
712.845	45.55
713.028	45.65
713.212	45.9
713.395	45.69
713.578	46.39
713.761	47.32
713.945	47.84
714.128	48.54
714.311	48.2
714.494	47.77
714.677	47.33
714.86	47.41
715.043	48.3
715.227	48.59
715.41	48.44
715.593	47.92
715.776	47.68
715.959	47.35
716.142	47.44
716.325	47.87
716.508	48.31
716.691	48.34
716.874	48.77
717.057	48.3
717.239	47.83
717.422	48.2
717.605	47.82
717.788	47.36
717.971	48.6
718.154	48.48
718.337	48.8
718.519	48.48
718.702	48.52
718.885	47.09
719.068	47.23
719.25	47.71
719.433	47.56
719.616	48.52
719.798	49.17
719.981	48.55
720.164	47.81
720.346	47.75
720.529	47.82
720.712	47.34
720.894	48.99
721.077	48.34
721.259	48.69
721.442	49.11
721.624	49.56
721.807	49.6
721.989	48.96
722.172	49.04
722.354	48.57
722.537	49.14
722.719	49.1
722.901	48.49
723.084	48.76
723.266	47.99
723.448	47.86
723.631	46.15
723.813	45.72
723.995	45.92
724.178	46.66
724.36	46.37
724.542	45.69
724.724	46.65
724.907	47.54
725.089	48.56
725.271	49.25
725.453	48.34
725.635	49.18
725.817	49.11
725.999	49.6
726.181	50.06
726.364	51.09
726.546	51.23
726.728	51.25
726.91	50.53
727.092	49.66
727.274	49.75
727.456	50.94
727.638	50.43
727.819	50.81
728.001	50.5
728.183	49.78
728.365	49.25
728.547	49.89
728.729	49.85
728.911	50.75
729.093	51.78
729.274	50.46
729.456	50.43
729.638	51.24
729.82	51.05
730.001	50.72
730.183	50.79
730.365	50.18
730.546	49.79
730.728	49
730.91	47.84
731.091	47.03
731.273	47.41
731.455	47.39
731.636	47.15
731.818	47.38
731.999	47.66
732.181	48.11
732.362	48.51
732.544	48.68
732.725	48.8
732.907	49.35
733.088	49.89
733.27	50.92
733.451	50.01
733.633	50.7
733.814	50.84
733.995	51
734.177	51.62
734.358	51.45
734.539	50.57
734.721	50.77
734.902	50.52
735.083	51.28
735.264	49.59
735.446	51.25
735.627	50.13
735.808	49.08
735.989	49.78
736.17	49.08
736.351	50.18
736.533	50.99
736.714	50.78
736.895	50.36
737.076	48.35
737.257	49.63
737.438	47.9
737.619	48.76
737.8	48.58
737.981	48.39
738.162	48.8
738.343	47.67
738.524	47.95
738.705	48.85
738.886	49.11
739.067	49.78
739.247	48.77
739.428	48.17
739.609	47.1
739.79	49.22
739.971	48.98
740.151	48.6
740.332	48.85
740.513	48.8
740.694	47.87
740.874	47.88
741.055	47.96
741.236	48.79
741.417	49.89
741.597	50.35
741.778	48.78
741.958	48.16
742.139	47.9
742.32	48.15
742.5	48.62
742.681	49.85
742.861	50.1
743.042	50.17
743.222	49.95
743.403	50.23
743.583	52.11
743.764	52.77
743.944	53.7
744.124	53.63
744.305	53.42
744.485	52.65
744.666	52.45
744.846	52.59
745.026	53.21
745.207	53.19
745.387	53.44
745.567	51.61
745.747	50.28
745.928	48.62
746.108	48.26
746.288	47.96
746.468	48.57
746.648	48.16
746.829	48.15
747.009	48.22
747.189	48.25
747.369	47.4
747.549	48.01
747.729	49.83
747.909	50.64
748.089	50.47
748.269	51.37
748.449	51.01
748.629	51.03
748.809	50.46
748.989	49.53
749.169	49.32
749.349	49.81
749.529	49.56
749.709	48.25
749.889	48.65
750.068	49.14
750.248	48.59
750.428	48.95
750.608	48.83
750.788	50.08
750.967	50.22
751.147	50.45
751.327	51.51
751.507	51.42
751.686	52.68
751.866	52.73
752.046	53.3
752.225	53.58
752.405	52.8
752.585	52.33
752.764	52.31
752.944	52.01
753.123	52.22
753.303	51.62
753.482	51.44
753.662	49.8
753.841	50.26
754.021	48.77
754.2	49.29
754.38	49.83
754.559	49.98
754.739	49.66
754.918	49.89
755.097	49.01
755.277	47.76
755.456	46.58
755.635	48.08
755.815	47.4
755.994	48.77
756.173	47.05
756.352	46.99
756.532	47.5
756.711	46.43
756.89	46.63
757.069	48.36
757.248	47.98
757.427	49.16
757.607	47.87
757.786	48.46
757.965	47.91
758.144	48.7
758.323	48.94
758.502	49.69
758.681	50.01
758.86	50.82
759.039	49.63
759.218	50
759.397	50.29
759.576	50.36
759.755	49.63
759.934	50.13
760.113	50.53
760.291	51.07
760.47	50.91
760.649	50.96
760.828	50
761.007	49.62
761.186	49.57
761.364	49
761.543	49.42
761.722	50.18
761.901	48.7
762.079	48.8
762.258	48.21
762.437	47.67
762.615	48.05
762.794	47.62
762.972	48.21
763.151	48.03
763.33	47.85
763.508	47.89
763.687	47.21
763.865	48.57
764.044	47.33
764.222	46.8
764.401	46.57
764.579	46.26
764.758	46.37
764.936	46.96
765.114	47.9
765.293	48.32
765.471	48.19
765.65	48.3
765.828	48.48
766.006	49.71
766.184	49.26
766.363	49.29
766.541	49.33
766.719	49.16
766.898	48.87
767.076	47.97
767.254	47.65
767.432	48.04
767.61	47.98
767.788	46.82
767.967	46.41
768.145	46.76
768.323	46.71
768.501	46.7
768.679	47.53
768.857	46.89
769.035	48.66
769.213	50.37
769.391	50
769.569	50
769.747	49.98
769.925	49.3
770.103	50.25
770.281	49.75
770.459	50.13
770.636	48.92
770.814	49.13
770.992	49.04
771.17	49.34
771.348	49.51
771.525	48.71
771.703	49.77
771.881	50.63
772.059	51.01
772.236	50.83
772.414	50.4
772.592	52.16
772.769	50.65
772.947	47.73
773.125	46
773.302	47.03
773.48	49.34
773.657	49.38
773.835	49.78
774.013	50.86
774.19	52.73
774.368	52.09
774.545	51.32
774.723	53.38
774.9	56
775.077	55.46
775.255	55.24
775.432	54.51
775.61	53.98
775.787	54.01
775.964	51.38
776.142	51.35
776.319	53.22
776.496	54.7
776.674	54.07
776.851	54.71
777.028	55.88
777.205	54.3
777.382	55.85
777.56	56.34
777.737	60.97
777.914	62.82
778.091	62.11
778.268	58.99
778.445	58.97
778.622	59.77
778.8	56.85
778.977	58.33
779.154	63.32
779.331	61.95
779.508	61.92
779.685	58.05
779.862	58.67
780.038	57.38
780.215	62.04
780.392	60.89
780.569	60.8
780.746	61.74
780.923	59.75
781.1	53.47
781.277	52.83
781.453	52.21
781.63	50.87
781.807	50.12
781.984	50.73
782.16	49.11
782.337	49.54
782.514	49.02
782.691	50.53
782.867	50.86
783.044	54.14
783.221	56.28
783.397	56.48
783.574	57.56
783.75	56.8
783.927	58.12
784.103	56.87
784.28	57.1
784.456	56.21
784.633	56.73
784.809	55.88
784.986	51.47
785.162	51.17
785.339	48.41
785.515	46.93
785.692	48.39
785.868	47.12
786.044	48.79
786.221	48.63
786.397	50.74
786.573	49.11
786.749	50.21
786.926	53.23
787.102	52.85
787.278	54.72
787.454	57.66
787.631	58.8
787.807	59.7
787.983	59.56
788.159	59.62
788.335	59.29
788.511	60.11
788.687	60.13
788.863	61.38
789.039	62.12
789.216	62.23
789.392	60.47
789.568	57.14
789.744	55.92
789.919	55.24
790.095	53.28
790.271	52.14
790.447	51.03
790.623	51.57
790.799	51.34
790.975	49.83
791.151	51.48
791.327	51.07
791.502	52.32
791.678	54.42
791.854	56.22
792.03	56.24
792.205	57.15
792.381	56.67
792.557	53.85
792.733	53.1
792.908	53.79
793.084	54.37
793.259	54.36
793.435	54.52
793.611	54.76
793.786	52.33
793.962	51.94
794.137	51.74
794.313	52.4
794.488	54.46
794.664	55.39
794.839	54.08
795.015	53.05
795.19	51.68
795.366	53.07
795.541	51.74
795.716	50.52
795.892	51.45
796.067	52.21
796.242	54.16
796.418	55.87
796.593	54.83
796.768	55.62
796.944	55.43
797.119	56.21
797.294	56.45
797.469	58.89
797.644	59.28
797.82	61.69
797.995	61.13
798.17	58.46
798.345	57.37
798.52	55.8
798.695	54.84
798.87	51.29
799.045	51.52
799.22	52.69
799.395	51.78
799.57	52.78
799.745	51.74
799.92	50.33
800.095	52.98
800.27	51.61
800.445	52.51
800.62	51.29
800.795	52.45
800.97	54.69
801.145	51
801.319	48.07
801.494	47.06
801.669	50.04
801.844	50.47
802.018	48.38
802.193	49.68
802.368	52.53
802.543	53.05
802.717	60.78
802.892	58.66
803.067	61.02
803.241	63.37
803.416	62.31
803.59	62.81
803.765	63.58
803.94	65.51
804.114	63
804.289	62.39
804.463	63.09
804.638	59.34
804.812	58.71
804.986	58.75
805.161	58.19
805.335	60.08
805.51	57.11
805.684	57.73
805.858	56.94
806.033	57.71
806.207	54.92
806.381	57.27
806.556	55.73
806.73	57.19
806.904	57.55
807.078	57.47
807.253	57.51
807.427	54.49
807.601	53.4
807.775	55.08
807.949	56.85
808.123	57.59
808.298	58.11
808.472	59.75
808.646	60.74
808.82	57.51
808.994	55.8
809.168	54.71
809.342	60.08
809.516	61.98
809.69	61.11
809.864	62.01
810.038	64.38
810.212	63.22
810.385	59.35
810.559	58.62
810.733	58.47
810.907	59.22
811.081	57.37
811.255	56.75
811.428	55.09
811.602	52.88
811.776	50.12
811.95	47.02
812.123	45.23
812.297	45.49
812.471	45.04
812.644	48.6
812.818	50.37
812.992	56.45
813.165	53.2
813.339	54.18
813.512	56.43
813.686	56.54
813.86	58.65
814.033	58.16
814.207	59.31
814.38	60.77
814.554	60.87
814.727	61.68
814.9	62.32
815.074	62.78
815.247	60.89
815.421	56.01
815.594	60.56
815.767	62
815.941	61.66
816.114	67.27
816.287	65.86
816.46	61.58
816.634	58.65
816.807	58.19
816.98	59.46
817.153	60.51
817.327	66.08
817.5	62.2
817.673	62.77
817.846	64.15
818.019	60.23
818.192	62.53
818.365	64.75
818.538	68.75
818.711	67
818.884	64.52
819.057	63.1
819.23	61.49
819.403	61.3
819.576	59.17
819.749	58.62
819.922	59.02
820.095	58.57
820.268	59.15
820.441	57.9
820.614	57.2
820.786	57.22
820.959	60.09
821.132	57.01
821.305	54.53
821.477	53.57
821.65	51.46
821.823	50.93
821.996	50.13
822.168	48.74
822.341	47.76
822.514	47.41
822.686	46.9
822.859	45.24
823.031	45.55
823.204	45.57
823.376	45.05
823.549	45.62
823.722	45.38
823.894	45.24
824.067	45.27
824.239	45.44
824.411	45.18
824.584	45.82
824.756	46.02
824.929	45.93
825.101	46.29
825.273	46.96
825.446	46.57
825.618	46.43
825.79	46.34
825.963	46.07
826.135	45.96
826.307	46.74
826.479	46.75
826.652	47.11
826.824	48.29
826.996	48.26
827.168	47.96
827.34	48.02
827.512	48.02
827.684	48.48
827.856	49.51
828.029	49.6
828.201	48.24
828.373	48.68
828.545	48.99
828.717	48.7
828.889	47.98
829.061	48.99
829.232	50.2
829.404	50.76
829.576	50.05
829.748	50.18
829.92	51.9
830.092	53.42
830.264	50.2
830.436	49.39
830.607	48.48
830.779	51.18
830.951	51.33
831.123	51.12
831.294	51.29
831.466	50.5
831.638	51.76
831.809	48.67
831.981	48.71
832.153	53.02
832.324	53.46
832.496	54.7
832.667	53.48
832.839	57.15
833.011	57.17
833.182	59.53
833.354	57.97
833.525	56.94
833.697	55.44
833.868	53.91
834.039	52.89
834.211	53.35
834.382	53.6
834.554	52.98
834.725	51.09
834.896	49.68
835.068	47.49
835.239	49.96
835.41	51.95
835.581	53.36
835.753	55.6
835.924	55.85
836.095	55.66
836.266	54.72
836.438	53.98
836.609	53.12
836.78	54.24
836.951	56.54
837.122	55.56
837.293	53.86
837.464	55.57
837.635	54.79
837.806	55.19
837.977	56.42
838.148	59.11
838.319	61.76
838.49	63.3
838.661	61.15
838.832	63.41
839.003	63.7
839.174	63.3
839.345	66.73
839.516	66.19
839.687	70.6
839.857	66.55
840.028	64.9
840.199	64.36
840.37	67.3
840.54	71.57
840.711	65.74
840.882	64.28
841.053	64.83
841.223	60.34
841.394	63.13
841.564	65.28
841.735	73.67
841.906	71.73
842.076	70
842.247	67.19
842.417	65.3
842.588	67.27
842.758	74.87
842.929	73.27
843.099	69.7
843.27	64.27
843.44	63.61
843.611	58.23
843.781	62.95
843.951	65.1
844.122	61.13
844.292	59.75
844.462	64.11
844.633	60.88
844.803	62.37
844.973	68.64
845.144	71.93
845.314	67.81
845.484	71.83
845.654	66.97
845.824	74.76
845.995	75.14
846.165	79.74
846.335	75.65
846.505	76.6
846.675	77.28
846.845	74.08
847.015	88.83
847.185	90.78
847.355	84.83
847.525	85.22
847.695	82.28
847.865	83.89
848.035	83.32
848.205	78.6
848.375	91.2
848.545	87.34
848.715	89.66
848.884	79.29
849.054	71.65
849.224	72.54
849.394	76.98
849.564	79.32
849.733	78.98
849.903	74.18
850.073	73.69
850.243	68.56
850.412	83.94
850.582	81.06
850.752	77.65
850.921	82.16
851.091	91.61
851.26	108.34
851.43	91.07
851.599	90.68
851.769	95.03
851.939	104.67
852.108	95.3
852.278	79.9
852.447	92.18
852.616	92.93
852.786	93.43
852.955	82.73
853.125	64.53
853.294	70.65
853.463	72.81
853.633	75.25
853.802	87.26
853.971	100.39
854.141	107.08
854.31	101.34
854.479	102.85
854.648	122
854.818	120.87
854.987	128.66
855.156	117.46
855.325	127.02
855.494	133.93
855.663	128.79
855.832	118.3
856.001	104.99
856.171	98.28
856.34	105.56
856.509	104.38
856.678	113.27
856.847	111.78
857.016	115.95
857.185	114.52
857.353	107.15
857.522	100.59
857.691	104.37
857.86	116.35
858.029	108.18
858.198	98.85
858.367	99.74
858.535	86.85
858.704	88.97
858.873	93.3
859.042	100.99
859.21	113.64
859.379	104.56
859.548	95.45
859.717	86.17
859.885	96.74
860.054	84.24
860.222	72.08
860.391	80.74
860.56	81.08
860.728	73.74
860.897	64.76
861.065	57.23
861.234	57.28
861.402	58.18
861.571	51.13
861.739	49.59
861.908	58.09
862.076	70.95
862.244	76.08
862.413	78.86
862.581	89.24
862.749	86.68
862.918	78.14
863.086	74.46
863.254	87.6
863.423	101.76
863.591	88.87
863.759	85.66
863.927	68.2
864.096	60.53
864.264	51.69
864.432	49.05
864.6	50.42
864.768	53.65
864.936	61.9
865.104	60.56
865.272	63.75
865.44	76.12
865.608	79.55
865.776	93.35
865.944	93.91
866.112	99.74
866.28	102.36
866.448	91.49
866.616	120.34
866.784	97.73
866.952	99.1
867.12	112.3
867.288	106.2
867.455	120.32
867.623	106.05
867.791	109.65
867.959	120.07
868.127	117.08
868.294	115.86
868.462	83.49
868.63	108.27
868.797	103.89
868.965	79.11
869.133	79.74
869.3	72.34
869.468	101.11
869.636	77.37
869.803	70.59
869.971	71.37
870.138	76.42
870.306	79.59
870.473	82.4
870.641	78.7
870.808	80.69
870.975	79.24
871.143	75.21
871.31	57.61
871.478	61.08
871.645	62.11
871.812	73.08
871.98	79.85
872.147	73.86
872.314	60.25
872.482	56.2
872.649	57.33
872.816	58.59
872.983	67.53
873.15	77.36
873.318	88.72
873.485	100.79
873.652	94.81
873.819	92.98
873.986	106.56
874.153	122.22
874.32	144.44
874.487	169.26
874.654	192.44
874.821	197.21
874.988	172.91
875.155	176.97
875.322	140.22
875.489	139.54
875.656	129.76
875.823	104.15
875.99	82.84
876.157	72.37
876.324	64.46
876.49	63.25
876.657	66.44
876.824	70.29
876.991	77.91
877.157	81.48
877.324	83.81
877.491	83.52
877.658	85.55
877.824	90.31
877.991	88.68
878.157	89.04
878.324	94.03
878.491	91.45
878.657	96.79
878.824	90.11
878.99	84.63
879.157	82.32
879.323	76.27
879.49	79.79
879.656	76.64
879.823	86.63
879.989	88.38
880.156	87.67
880.322	85.07
880.488	75.37
880.655	72.72
880.821	71.98
880.987	73.42
881.154	75.14
881.32	69.76
881.486	71.79
881.652	69.23
881.819	64.18
881.985	60.82
882.151	61.37
882.317	60.22
882.483	61.41
882.649	62.99
882.816	60.6
882.982	60.96
883.148	59.06
883.314	54.58
883.48	53
883.646	52.21
883.812	54.37
883.978	53.73
884.144	54.51
884.31	54.76
884.476	53.77
884.642	54.25
884.807	52.43
884.973	51.12
885.139	54.72
885.305	54.78
885.471	55.87
885.637	53.96
885.802	55.29
885.968	55.71
886.134	56.92
886.3	57.93
886.465	58.63
886.631	62.32
886.797	69.78
886.962	70.66
887.128	74.11
887.293	78.83
887.459	75.28
887.625	77.29
887.79	78.06
887.956	78.1
888.121	78.61
888.287	80.12
888.452	82.26
888.618	77.11
888.783	73.28
