Data from CB_071_Reflection_2.txt Node
Date: Sat Nov 14 11:07:09 EST 2015
User: robert
Spectrometer: USB4E03001
Autoset integration time: false
Trigger mode: 4
Integration Time (sec): 1.000000E-1
Scans to average: 15
Electric dark correction enabled: true
Nonlinearity correction enabled: false
Boxcar width: 5
Stray light correction enabled: false
XAxis mode: Wavelengths
Stop averaging: false
Number of Pixels in Spectrum: 3648
>>>>>Begin Spectral Data<<<<<
177.566	-163.39
177.785	-225.55
178.005	-1009.56
178.225	-118.5
178.445	-136.48
178.665	-247.3
178.885	0.85
179.105	-59.98
179.324	-107.32
179.544	-147.58
179.764	-26.73
179.984	13.15
180.204	38.06
180.423	-12.34
180.643	62.41
180.863	-90.31
181.083	-954.44
181.302	-5719.84
181.522	794.66
181.742	1079.09
181.961	1547.91
182.181	241.2
182.401	228.61
182.621	409.95
182.84	1729.49
183.06	-5413.22
183.279	-662.22
183.499	-401.43
183.719	-486.16
183.938	-299.46
184.158	-209.8
184.377	-211.69
184.597	-123.17
184.816	-70.52
185.036	-115.3
185.256	-175.63
185.475	-393.17
185.695	-213.23
185.914	-156.56
186.134	-138.54
186.353	-105
186.572	-57.73
186.792	-65.15
187.011	575.63
187.231	-440.58
187.45	-162.78
187.67	-575.39
187.889	543.34
188.108	346.81
188.328	297.59
188.547	225.84
188.766	203.98
188.986	175.71
189.205	202.92
189.424	213.69
189.644	179.9
189.863	230.55
190.082	262.44
190.302	391.69
190.521	300.11
190.74	347.27
190.959	1217.89
191.178	1015.55
191.398	790.57
191.617	2006.18
191.836	7739.78
192.055	1495.82
192.274	385.62
192.494	510.48
192.713	14773.21
192.932	-1830.22
193.151	333250
193.37	551
193.589	-14500
193.808	-1276.61
194.027	-1818.72
194.246	3767.08
194.465	-2541.37
194.685	685.63
194.904	724.77
195.123	501.97
195.342	420.17
195.561	313.86
195.78	896.1
195.999	1926.15
196.218	1020.83
196.436	900.64
196.655	450.88
196.874	269.86
197.093	482.52
197.312	394.74
197.531	665.02
197.75	753.7
197.969	1959.88
198.188	355.21
198.407	223.22
198.625	239.05
198.844	269.02
199.063	389
199.282	793.4
199.501	-4145.7
199.719	-2210.74
199.938	916.73
200.157	683.3
200.376	-4535.93
200.594	-356.97
200.813	-961.33
201.032	-2306.7
201.251	-1198.01
201.469	-1375.52
201.688	-2528.01
201.907	3840.54
202.125	1210.15
202.344	4513.98
202.563	20750.72
202.781	1007.01
203	289.64
203.218	193.82
203.437	340.06
203.656	205.81
203.874	431.16
204.093	313.49
204.311	167.1
204.53	290.97
204.748	104.8
204.967	198.75
205.185	149.02
205.404	191.18
205.622	343.26
205.841	183.23
206.059	174.75
206.278	131.05
206.496	229.32
206.715	287.28
206.933	231.21
207.151	307.17
207.37	194.11
207.588	235.64
207.806	306.19
208.025	438.9
208.243	745.03
208.461	-54681.82
208.68	1842.61
208.898	645.82
209.116	522.8
209.335	350.53
209.553	323.5
209.771	233.25
209.989	231.37
210.208	166.65
210.426	144.79
210.644	123.96
210.862	107.05
211.081	107.16
211.299	100.94
211.517	108.92
211.735	105.88
211.953	105.83
212.171	122.07
212.39	115.85
212.608	135.31
212.826	134.33
213.044	124.59
213.262	132.43
213.48	135.72
213.698	181.78
213.916	99.58
214.134	125.65
214.352	180.49
214.57	154.19
214.788	143.3
215.006	153.14
215.224	268.58
215.442	828.36
215.66	1609.28
215.878	446.47
216.096	212.88
216.314	787.69
216.532	3234.77
216.75	-1034.01
216.968	-1265.18
217.185	-9150.44
217.403	1996.34
217.621	-120522.22
217.839	-672.48
218.057	-26525
218.275	-991.35
218.492	-166.8
218.71	-3165.95
218.928	1908.51
219.146	1019.25
219.363	601.34
219.581	805
219.799	-4201.25
220.017	407.16
220.234	473.6
220.452	429.67
220.67	537.14
220.887	255.11
221.105	345.83
221.323	216.68
221.54	162.3
221.758	142.45
221.976	123.24
222.193	97.57
222.411	121.41
222.629	129.48
222.846	117.57
223.064	110.9
223.281	129.76
223.499	125.87
223.716	122.1
223.934	121.37
224.151	111.11
224.369	112.29
224.586	125.85
224.804	141
225.021	136.26
225.239	150.47
225.456	160.92
225.674	137.21
225.891	143.15
226.108	134.18
226.326	115.84
226.543	123.05
226.76	109.27
226.978	92.81
227.195	77.65
227.413	64.25
227.63	57.66
227.847	46.62
228.064	38.17
228.282	35.43
228.499	34.56
228.716	35.7
228.934	34.04
229.151	32.31
229.368	31.41
229.585	30.86
229.802	31.53
230.02	31.25
230.237	32.45
230.454	34.58
230.671	35.66
230.888	37
231.105	39.61
231.323	38.56
231.54	42.59
231.757	44.05
231.974	47.53
232.191	49.41
232.408	46.91
232.625	46.21
232.842	40.58
233.059	34.33
233.276	27.35
233.493	23.38
233.71	27.35
233.927	23.63
234.144	16.9
234.361	18.73
234.578	16.88
234.795	17.19
235.012	16.57
235.229	16.55
235.446	22.41
235.663	24.08
235.879	25.58
236.096	25.61
236.313	29.19
236.53	21.31
236.747	24.02
236.964	22.73
237.181	30.48
237.397	38.54
237.614	49.22
237.831	52.8
238.048	56.14
238.264	52.29
238.481	46.34
238.698	50.92
238.915	55.68
239.131	50.69
239.348	49.8
239.565	48.95
239.781	46.28
239.998	41.99
240.215	39.67
240.431	36.68
240.648	37.15
240.865	35.9
241.081	30
241.298	27.75
241.514	26.36
241.731	23.96
241.947	21.9
242.164	20.83
242.38	17.66
242.597	16.69
242.814	16.92
243.03	19.54
243.246	21.13
243.463	21.79
243.679	22.94
243.896	22.14
244.112	23.64
244.329	25.21
244.545	25.51
244.762	26.94
244.978	26.52
245.194	23.92
245.411	20.53
245.627	20.21
245.843	21.77
246.06	20.39
246.276	20.32
246.492	20.92
246.709	19.31
246.925	18.42
247.141	19.01
247.357	19.05
247.574	19.71
247.79	19.65
248.006	18.33
248.222	17.69
248.439	17.75
248.655	17.92
248.871	16.98
249.087	17.23
249.303	18.74
249.519	18.1
249.736	18.6
249.952	19.94
250.168	23.4
250.384	25.18
250.6	23.64
250.816	26.21
251.032	24.99
251.248	26.21
251.464	27.79
251.68	25.01
251.896	23.11
252.112	23.87
252.328	21.97
252.544	18.52
252.76	18.33
252.976	19.4
253.192	18.62
253.408	19.4
253.624	18.39
253.84	19.56
254.056	19.81
254.272	23.03
254.487	20.76
254.703	19.4
254.919	18.69
255.135	18.66
255.351	20.22
255.567	18.58
255.782	24.23
255.998	24.69
256.214	19.16
256.43	18.62
256.646	18.69
256.861	20.14
257.077	20.61
257.293	21.56
257.508	21.26
257.724	19.54
257.94	18.48
258.155	14.93
258.371	13.74
258.587	15.26
258.802	17.42
259.018	16.3
259.234	15.29
259.449	15.04
259.665	14.91
259.88	15.33
260.096	15.66
260.312	15.31
260.527	14.7
260.743	14.55
260.958	14.58
261.174	14.16
261.389	15.13
261.605	15.23
261.82	14.77
262.036	14.72
262.251	13.79
262.466	12.71
262.682	12.26
262.897	13.51
263.113	14.8
263.328	12.26
263.543	12.38
263.759	11.66
263.974	10.98
264.189	11.55
264.405	9.63
264.62	10.35
264.835	9.09
265.051	10.75
265.266	9.94
265.481	11.9
265.696	15.98
265.912	13.88
266.127	13.07
266.342	13.17
266.557	13.5
266.773	13.78
266.988	13.35
267.203	15.01
267.418	14.1
267.633	14.27
267.848	12.27
268.064	9.7
268.279	11.07
268.494	10.25
268.709	11.15
268.924	12.12
269.139	12.09
269.354	12.5
269.569	11.68
269.784	12.28
269.999	12.74
270.214	13.37
270.429	14.89
270.644	14.49
270.859	14.34
271.074	13.77
271.289	14.17
271.504	14.81
271.719	14.19
271.934	13.28
272.149	13.36
272.363	14.04
272.578	12.42
272.793	11.18
273.008	11.81
273.223	11.39
273.438	10.18
273.653	10.34
273.867	10.3
274.082	11.67
274.297	13.31
274.512	15.14
274.726	13.77
274.941	15.33
275.156	17.09
275.371	16.58
275.585	18.27
275.8	20.94
276.015	19.12
276.229	19.42
276.444	18.87
276.659	17.28
276.873	15.98
277.088	17.94
277.302	17.97
277.517	15.58
277.732	14.78
277.946	14.52
278.161	13.54
278.375	12.7
278.59	11.03
278.804	10.56
279.019	12.96
279.233	10.85
279.448	7.95
279.662	7.53
279.877	9.14
280.091	6.4
280.306	5.88
280.52	4.52
280.735	6.79
280.949	8.78
281.163	8.79
281.378	7.04
281.592	8.74
281.806	9.85
282.021	9.97
282.235	9.99
282.449	12.56
282.664	11.97
282.878	13.94
283.092	12.8
283.307	11.24
283.521	9.75
283.735	10.21
283.949	9.52
284.164	9.72
284.378	8.92
284.592	9.83
284.806	9.13
285.02	10.15
285.234	8.02
285.449	8.64
285.663	11.21
285.877	11.11
286.091	10.53
286.305	11.45
286.519	11.74
286.733	12.78
286.947	12.76
287.161	12.74
287.375	12.08
287.589	13.98
287.803	15.05
288.017	13.21
288.231	15.09
288.445	15.85
288.659	15.9
288.873	16.37
289.087	16.55
289.301	15.66
289.515	15.59
289.729	15.2
289.943	14.4
290.157	14
290.371	13.79
290.584	12.56
290.798	12.66
291.012	11.8
291.226	10.94
291.44	11.11
291.654	10.91
291.867	11.37
292.081	12.76
292.295	13.79
292.509	14.3
292.722	13.83
292.936	14.13
293.15	14.46
293.364	15.06
293.577	15.13
293.791	14.47
294.005	13.5
294.218	14.1
294.432	13.39
294.645	13.18
294.859	11.75
295.073	12.51
295.286	12.95
295.5	12.53
295.713	11.89
295.927	12.15
296.14	12.02
296.354	12.67
296.568	11.5
296.781	11.59
296.994	11.07
297.208	11.33
297.421	11.2
297.635	11.8
297.848	12.18
298.062	12.36
298.275	12.07
298.489	12.4
298.702	13.22
298.915	13.1
299.129	13.38
299.342	13.8
299.555	13.56
299.769	14.77
299.982	13.67
300.195	13.56
300.409	13.52
300.622	13.64
300.835	13.4
301.048	12.93
301.262	14.12
301.475	13.77
301.688	14.38
301.901	14.71
302.115	13.51
302.328	14.08
302.541	14.56
302.754	15.28
302.967	15.75
303.18	17.03
303.393	16.48
303.607	16.75
303.82	18.12
304.033	18.63
304.246	18.51
304.459	18.45
304.672	19.63
304.885	19.95
305.098	19.97
305.311	20.23
305.524	19.19
305.737	20.3
305.95	20.53
306.163	20.27
306.376	18.57
306.589	18.73
306.802	20.19
307.015	19.3
307.228	18.76
307.44	18.65
307.653	19.25
307.866	18.67
308.079	18.95
308.292	17.72
308.505	18.4
308.718	19.74
308.93	20.55
309.143	20.28
309.356	20.76
309.569	20.5
309.781	19.93
309.994	20
310.207	20.07
310.42	18.77
310.632	18.7
310.845	17.05
311.058	15.59
311.27	15.4
311.483	14.96
311.696	14.29
311.908	14.1
312.121	14.36
312.333	15.27
312.546	15.24
312.759	14.46
312.971	14.42
313.184	14.76
313.396	16.04
313.609	14.91
313.821	15.33
314.034	15.64
314.246	14.23
314.459	14.91
314.671	13.1
314.884	13.27
315.096	15.09
315.309	15.94
315.521	17.05
315.733	16.92
315.946	17.54
316.158	17.2
316.371	17.76
316.583	18.42
316.795	17.28
317.008	17.42
317.22	17.46
317.432	18.26
317.644	19.03
317.857	17.87
318.069	17.02
318.281	17.44
318.494	17.23
318.706	17.65
318.918	19
319.13	18.97
319.342	18.28
319.555	18.21
319.767	17.74
319.979	16.3
320.191	15.77
320.403	16.39
320.615	16.73
320.827	17.02
321.039	16.56
321.252	17.2
321.464	19.56
321.676	20.01
321.888	20.35
322.1	20.13
322.312	20.31
322.524	21.72
322.736	21.11
322.948	20.51
323.16	20.5
323.372	20.42
323.584	20.19
323.796	18.89
324.007	18.03
324.219	19
324.431	18.99
324.643	21.19
324.855	21.59
325.067	21.99
325.279	21.3
325.491	21.88
325.702	21.79
325.914	21.29
326.126	21.41
326.338	20.73
326.55	20.42
326.761	20.63
326.973	20.26
327.185	19.21
327.396	19.81
327.608	20.6
327.82	20.12
328.032	21.74
328.243	21.53
328.455	21.95
328.666	23.5
328.878	23.23
329.09	23.6
329.301	21.27
329.513	21.68
329.725	22.38
329.936	23
330.148	22.24
330.359	21.93
330.571	22.96
330.782	22.94
330.994	24.18
331.205	25.29
331.417	26.05
331.628	27.23
331.84	27.9
332.051	28.5
332.262	29.32
332.474	29.49
332.685	29.06
332.897	28.82
333.108	29.61
333.319	28.14
333.531	27.52
333.742	27.01
333.953	27.02
334.165	26.82
334.376	27.25
334.587	26.88
334.799	26.9
335.01	25.49
335.221	25.78
335.432	24.77
335.644	24.63
335.855	25.3
336.066	25.41
336.277	26
336.488	26.68
336.7	25.44
336.911	25.87
337.122	26.64
337.333	27.46
337.544	27.25
337.755	27.86
337.966	28.42
338.177	27.14
338.388	26.64
338.599	25.63
338.811	24.02
339.022	23.27
339.233	22.84
339.444	22.06
339.655	21.11
339.866	20.79
340.076	20.06
340.287	19.87
340.498	20.48
340.709	20.43
340.92	21.26
341.131	21.79
341.342	23.24
341.553	21.98
341.764	22.97
341.975	23.93
342.185	23.72
342.396	24.34
342.607	24.37
342.818	25.09
343.029	24.78
343.239	24.93
343.45	24.32
343.661	23.23
343.872	23.73
344.082	23.16
344.293	22.63
344.504	23.03
344.714	22.41
344.925	22.99
345.136	22.14
345.346	20.97
345.557	20.7
345.768	21.76
345.978	21.97
346.189	21.45
346.399	21.26
346.61	20.93
346.821	21.39
347.031	21.86
347.242	21.27
347.452	20.16
347.663	21.37
347.873	22.29
348.084	22.19
348.294	21.79
348.504	22.08
348.715	22.62
348.925	22.7
349.136	20.76
349.346	19.96
349.557	20.07
349.767	21.83
349.977	22.97
350.188	21.57
350.398	21.2
350.608	20.69
350.819	21.62
351.029	20.97
351.239	22.18
351.449	22.49
351.66	22.39
351.87	21.99
352.08	21.15
352.29	20.44
352.501	20.69
352.711	20.22
352.921	21.12
353.131	20.19
353.341	20.67
353.552	19.1
353.762	18.89
353.972	19.56
354.182	19.84
354.392	20.22
354.602	20.25
354.812	20.01
355.022	19.74
355.232	19.67
355.442	20.09
355.652	19.75
355.862	20.39
356.072	21.64
356.282	21.24
356.492	20.88
356.702	20.77
356.912	20.71
357.122	21.61
357.332	21.9
357.542	21.61
357.752	21.33
357.962	21.2
358.171	21.58
358.381	21.9
358.591	22.11
358.801	22.59
359.011	22.55
359.221	22.26
359.43	21.69
359.64	21.69
359.85	21.49
360.06	21.73
360.269	21.92
360.479	21.79
360.689	21.54
360.899	22.11
361.108	21.8
361.318	21.35
361.528	21.39
361.737	21.24
361.947	21.76
362.156	21.61
362.366	21.34
362.576	21.41
362.785	20.97
362.995	20.32
363.204	19.64
363.414	20.04
363.623	20.28
363.833	20.36
364.042	19.94
364.252	19.24
364.461	19.35
364.671	19.36
364.88	19.15
365.09	20.02
365.299	20.68
365.509	21.18
365.718	20.26
365.927	20.23
366.137	19.97
366.346	20.62
366.555	20.77
366.765	21.14
366.974	20.97
367.183	19.86
367.393	18.32
367.602	17.46
367.811	17.04
368.021	17.8
368.23	17.81
368.439	17.84
368.648	16.83
368.857	17.05
369.067	16.63
369.276	16.34
369.485	17.61
369.694	19.08
369.903	19.38
370.112	19.29
370.321	18.43
370.531	17.92
370.74	17.83
370.949	18.31
371.158	18
371.367	17.8
371.576	17.62
371.785	17.01
371.994	16.52
372.203	16.13
372.412	15.96
372.621	16.32
372.83	17.08
373.039	17.19
373.248	16.6
373.457	16.41
373.666	15.83
373.874	15.85
374.083	15.79
374.292	15.62
374.501	15.76
374.71	15.99
374.919	15.51
375.128	14.89
375.336	15.3
375.545	16.01
375.754	15.64
375.963	16
376.171	16.08
376.38	15.79
376.589	15.42
376.798	14.59
377.006	14.36
377.215	14.56
377.424	14.22
377.632	13.15
377.841	12.97
378.05	12.95
378.258	12.94
378.467	12.85
378.675	12.76
378.884	12.98
379.093	13.52
379.301	13.62
379.51	13.55
379.718	13.52
379.927	14.1
380.135	13.88
380.344	13.8
380.552	13.94
380.761	13.74
380.969	13.74
381.177	13.17
381.386	14.23
381.594	13.8
381.803	13.24
382.011	13.46
382.219	12.87
382.428	12.7
382.636	12.65
382.845	11.97
383.053	11.92
383.261	11.96
383.469	12.57
383.678	11.61
383.886	11.45
384.094	12.11
384.302	12.01
384.511	12.07
384.719	11.99
384.927	12.25
385.135	12.46
385.343	12.25
385.552	12.44
385.76	11.89
385.968	11.79
386.176	11.76
386.384	10.98
386.592	10.72
386.8	11
387.008	11.13
387.216	11.02
387.424	11.04
387.633	11.21
387.841	11.23
388.049	11.6
388.257	11.78
388.465	11.27
388.672	11.42
388.88	11.47
389.088	10.84
389.296	10.51
389.504	10.3
389.712	10.6
389.92	10.5
390.128	10.34
390.336	9.72
390.544	9.09
390.751	9.56
390.959	9.53
391.167	9.12
391.375	9.75
391.583	9.79
391.79	9.46
391.998	9.08
392.206	9.25
392.414	8.91
392.621	9.17
392.829	9.26
393.037	8.97
393.244	8.84
393.452	9.33
393.66	8.87
393.867	8.89
394.075	9.18
394.283	9.33
394.49	9.06
394.698	9.07
394.905	8.82
395.113	8.94
395.32	8.54
395.528	8.42
395.735	8.08
395.943	8.13
396.15	8.06
396.358	7.75
396.565	7.51
396.773	7.29
396.98	7.47
397.188	7.16
397.395	7.22
397.602	7.74
397.81	8.01
398.017	8.05
398.225	8.2
398.432	8.2
398.639	8.32
398.847	8.33
399.054	8.57
399.261	8.33
399.468	8.35
399.676	8.24
399.883	7.84
400.09	7.92
400.297	7.94
400.505	7.8
400.712	7.96
400.919	8.2
401.126	8.17
401.333	8.09
401.54	8.08
401.748	8.48
401.955	8.27
402.162	8.47
402.369	8.27
402.576	7.82
402.783	7.56
402.99	7.14
403.197	6.71
403.404	6.52
403.611	6.43
403.818	6.36
404.025	6.25
404.232	6.31
404.439	6.26
404.646	6.15
404.853	6.44
405.06	6.41
405.267	6.56
405.474	6.58
405.681	7.01
405.887	6.95
406.094	7.19
406.301	7.16
406.508	7.33
406.715	7.74
406.922	7.58
407.128	7.6
407.335	7.48
407.542	7.44
407.749	7.32
407.955	7.14
408.162	6.88
408.369	6.64
408.575	6.97
408.782	7
408.989	6.29
409.195	6.36
409.402	6.31
409.609	6.3
409.815	6.14
410.022	6.26
410.228	6.1
410.435	6.51
410.642	6.64
410.848	6.3
411.055	6.18
411.261	6.4
411.468	6.62
411.674	6.61
411.881	6.73
412.087	6.72
412.294	6.62
412.5	6.8
412.706	6.63
412.913	6.49
413.119	6.36
413.326	6.2
413.532	6.31
413.738	6.15
413.945	5.58
414.151	5.74
414.357	5.75
414.564	6.03
414.77	5.91
414.976	5.9
415.182	5.99
415.389	5.92
415.595	5.74
415.801	5.55
416.007	5.69
416.214	5.8
416.42	5.56
416.626	5.39
416.832	5.25
417.038	5.14
417.244	5.02
417.45	4.86
417.657	4.9
417.863	4.94
418.069	4.93
418.275	4.82
418.481	5.02
418.687	5.05
418.893	5.12
419.099	5.06
419.305	5
419.511	5.04
419.717	5.02
419.923	4.97
420.129	4.95
420.335	5.08
420.541	4.97
420.746	4.92
420.952	4.94
421.158	4.98
421.364	4.89
421.57	4.95
421.776	4.94
421.982	4.98
422.187	4.99
422.393	4.91
422.599	4.85
422.805	4.74
423.01	4.72
423.216	4.71
423.422	4.82
423.628	4.97
423.833	4.8
424.039	4.74
424.245	4.69
424.45	4.78
424.656	4.79
424.862	4.64
425.067	4.61
425.273	4.61
425.478	4.57
425.684	4.33
425.889	4.38
426.095	4.52
426.301	4.55
426.506	4.52
426.712	4.51
426.917	4.55
427.123	4.5
427.328	4.74
427.533	4.69
427.739	4.7
427.944	4.81
428.15	4.61
428.355	4.47
428.561	4.75
428.766	4.76
428.971	4.59
429.177	4.57
429.382	4.69
429.587	4.77
429.793	5.09
429.998	4.88
430.203	4.78
430.408	4.95
430.614	5.05
430.819	4.76
431.024	4.66
431.229	4.88
431.434	5.04
431.64	5
431.845	4.91
432.05	4.78
432.255	4.93
432.46	4.94
432.665	4.64
432.87	4.44
433.076	4.22
433.281	4.39
433.486	4.22
433.691	4.07
433.896	4.29
434.101	4.12
434.306	3.99
434.511	3.94
434.716	4.03
434.921	4.13
435.126	4.3
435.331	4.45
435.535	4.45
435.74	4.49
435.945	4.41
436.15	4.21
436.355	4.56
436.56	4.54
436.765	4.63
436.97	4.44
437.174	4.38
437.379	4.46
437.584	4.66
437.789	4.59
437.993	4.52
438.198	4.75
438.403	4.7
438.608	4.63
438.812	4.67
439.017	4.49
439.222	4.61
439.426	4.62
439.631	4.5
439.836	4.41
440.04	4.48
440.245	4.44
440.45	4.39
440.654	4.4
440.859	4.31
441.063	4.29
441.268	4.43
441.472	4.4
441.677	4.31
441.881	4.17
442.086	4.12
442.29	3.9
442.495	3.96
442.699	3.93
442.904	3.88
443.108	4.05
443.312	4.02
443.517	4.05
443.721	3.97
443.925	4.22
444.13	4.33
444.334	4.35
444.538	4.5
444.743	4.45
444.947	4.48
445.151	4.64
445.356	4.48
445.56	4.51
445.764	4.42
445.968	4.52
446.173	4.41
446.377	4.45
446.581	4.42
446.785	4.29
446.989	4.35
447.193	4.38
447.398	4.33
447.602	4.21
447.806	4.16
448.01	4.09
448.214	4.03
448.418	3.95
448.622	3.92
448.826	3.9
449.03	3.98
449.234	3.92
449.438	3.93
449.642	3.7
449.846	3.93
450.05	3.99
450.254	4.15
450.458	4.12
450.662	4.33
450.866	4.3
451.069	4.33
451.273	4.42
451.477	4.52
451.681	4.5
451.885	4.7
452.089	4.63
452.292	4.48
452.496	4.4
452.7	4.47
452.904	4.35
453.107	4.42
453.311	4.38
453.515	4.43
453.719	4.22
453.922	4.16
454.126	4.13
454.33	4.05
454.533	4.1
454.737	4.16
454.94	4.1
455.144	4.24
455.348	4.19
455.551	4.22
455.755	4.03
455.958	4.11
456.162	4.06
456.365	3.97
456.569	3.86
456.772	3.96
456.976	3.99
457.179	4.01
457.383	3.92
457.586	3.98
457.79	4.01
457.993	4
458.196	4.05
458.4	4.19
458.603	4.07
458.807	4.1
459.01	4.03
459.213	3.9
459.417	3.9
459.62	3.8
459.823	3.81
460.026	3.65
460.23	3.64
460.433	3.58
460.636	3.49
460.839	3.58
461.042	3.55
461.246	3.56
461.449	3.66
461.652	3.57
461.855	3.66
462.058	3.57
462.261	3.69
462.464	3.6
462.668	3.74
462.871	3.87
463.074	3.91
463.277	4.01
463.48	3.95
463.683	4.15
463.886	4.25
464.089	4.29
464.292	4.16
464.495	4.2
464.698	4.33
464.901	4.23
465.104	4.03
465.306	3.81
465.509	3.79
465.712	4
465.915	3.83
466.118	3.66
466.321	3.72
466.524	3.87
466.726	3.85
466.929	3.85
467.132	3.75
467.335	3.9
467.538	3.92
467.74	3.98
467.943	3.8
468.146	3.65
468.348	3.72
468.551	3.53
468.754	3.48
468.956	3.52
469.159	3.38
469.362	3.54
469.564	3.42
469.767	3.74
469.969	3.8
470.172	3.81
470.375	4.03
470.577	4.04
470.78	4.2
470.982	4.18
471.185	4.3
471.387	4.53
471.59	4.47
471.792	4.33
471.995	4.28
472.197	4.39
472.399	4.59
472.602	4.51
472.804	4.55
473.007	4.44
473.209	4.5
473.411	4.4
473.614	4.43
473.816	4.38
474.018	4.51
474.22	4.48
474.423	4.36
474.625	4.12
474.827	4.14
475.03	4.21
475.232	4.16
475.434	4.16
475.636	4.08
475.838	4.03
476.04	4.1
476.243	4.16
476.445	4.05
476.647	4.02
476.849	4.18
477.051	4.05
477.253	4.17
477.455	4.24
477.657	4.19
477.859	4.09
478.061	4.01
478.263	3.94
478.465	3.71
478.667	3.67
478.869	3.46
479.071	3.45
479.273	3.51
479.475	3.33
479.677	3.39
479.879	3.38
480.081	3.49
480.283	3.49
480.485	3.37
480.686	3.68
480.888	3.78
481.09	3.84
481.292	3.77
481.494	3.9
481.695	3.88
481.897	3.79
482.099	3.87
482.301	3.78
482.502	3.75
482.704	3.82
482.906	3.69
483.107	3.53
483.309	3.51
483.511	3.42
483.712	3.44
483.914	3.47
484.115	3.45
484.317	3.33
484.519	3.35
484.72	3.34
484.922	3.3
485.123	3.24
485.325	3.36
485.526	3.44
485.728	3.5
485.929	3.44
486.131	3.34
486.332	3.3
486.534	3.43
486.735	3.4
486.936	3.43
487.138	3.39
487.339	3.43
487.541	3.35
487.742	3.33
487.943	3.37
488.144	3.39
488.346	3.44
488.547	3.5
488.748	3.45
488.95	3.52
489.151	3.54
489.352	3.63
489.553	3.67
489.755	3.75
489.956	3.68
490.157	3.65
490.358	3.5
490.559	3.41
490.76	3.42
490.961	3.41
491.163	3.46
491.364	3.43
491.565	3.39
491.766	3.41
491.967	3.39
492.168	3.41
492.369	3.35
492.57	3.44
492.771	3.55
492.972	3.53
493.173	3.59
493.374	3.62
493.575	3.65
493.776	3.62
493.976	3.61
494.177	3.68
494.378	3.76
494.579	4.03
494.78	3.9
494.981	3.81
495.182	3.91
495.382	3.89
495.583	3.76
495.784	3.69
495.985	3.84
496.185	3.89
496.386	3.95
496.587	3.96
496.788	3.85
496.988	3.78
497.189	3.98
497.39	3.94
497.59	3.99
497.791	3.91
497.992	4.13
498.192	4.05
498.393	4.12
498.593	4.07
498.794	4.09
498.994	4.19
499.195	4.36
499.395	4.19
499.596	4.17
499.796	4.13
499.997	4.35
500.197	4.2
500.398	4.35
500.598	4.18
500.799	4.16
500.999	4.13
501.199	4.07
501.4	4.07
501.6	4.16
501.801	4.28
502.001	4.5
502.201	4.33
502.402	4.32
502.602	4.15
502.802	4.3
503.002	4.38
503.203	4.41
503.403	4.49
503.603	4.6
503.803	4.71
504.003	4.78
504.204	4.61
504.404	4.82
504.604	4.99
504.804	5.36
505.004	5.33
505.204	5.35
505.404	5.41
505.604	5.42
505.804	5.43
506.005	5.45
506.205	5.27
506.405	5.36
506.605	5.36
506.805	5.37
507.005	5.26
507.204	5.25
507.404	5.21
507.604	5.31
507.804	5.26
508.004	5.23
508.204	5.13
508.404	5.16
508.604	5.09
508.804	5.02
509.003	5.06
509.203	4.92
509.403	4.97
509.603	5.13
509.803	5.03
510.002	5.13
510.202	5.29
510.402	5.45
510.602	5.53
510.801	5.53
511.001	5.64
511.201	5.63
511.4	5.72
511.6	5.91
511.8	5.93
511.999	6.15
512.199	6.02
512.398	6.09
512.598	6.19
512.797	6.49
512.997	6.7
513.197	6.77
513.396	6.92
513.596	7.11
513.795	7.17
513.994	7.11
514.194	7.08
514.393	7.34
514.593	7.36
514.792	7.46
514.992	7.4
515.191	7.34
515.39	7.53
515.59	7.57
515.789	7.66
515.988	7.75
516.188	7.85
516.387	7.97
516.586	8.18
516.786	8.2
516.985	8.35
517.184	8.55
517.383	8.73
517.582	8.67
517.782	8.62
517.981	8.77
518.18	8.64
518.379	8.95
518.578	8.98
518.777	9.01
518.976	9.13
519.176	9.21
519.375	9.13
519.574	9.29
519.773	9.35
519.972	9.63
520.171	9.62
520.37	9.78
520.569	9.54
520.768	9.74
520.967	9.75
521.166	9.89
521.365	9.87
521.564	10.16
521.762	10.27
521.961	10.48
522.16	10.51
522.359	10.69
522.558	10.77
522.757	11.09
522.956	10.84
523.154	10.93
523.353	11.08
523.552	11.15
523.751	11.08
523.949	10.99
524.148	11.01
524.347	11.1
524.546	11.19
524.744	11.46
524.943	11.45
525.142	11.62
525.34	11.76
525.539	11.73
525.737	11.85
525.936	11.98
526.135	12.13
526.333	12.3
526.532	12.22
526.73	12.19
526.929	12.18
527.127	12.28
527.326	12.42
527.524	12.55
527.723	12.71
527.921	12.78
528.12	12.84
528.318	12.86
528.516	12.91
528.715	13.04
528.913	13.11
529.112	13.2
529.31	13.25
529.508	13.25
529.707	13.27
529.905	13.33
530.103	13.41
530.301	13.35
530.5	13.46
530.698	13.47
530.896	13.6
531.094	13.7
531.293	13.75
531.491	13.85
531.689	14.05
531.887	14.21
532.085	14.23
532.283	14.23
532.481	14.47
532.68	14.62
532.878	14.72
533.076	14.75
533.274	14.82
533.472	14.88
533.67	14.96
533.868	15.1
534.066	15.07
534.264	15.15
534.462	15.22
534.66	15.3
534.858	15.37
535.056	15.53
535.253	15.56
535.451	15.7
535.649	15.87
535.847	16.02
536.045	16.08
536.243	16.29
536.441	16.41
536.638	16.62
536.836	16.65
537.034	16.79
537.232	16.72
537.43	16.84
537.627	16.93
537.825	17.05
538.023	17.07
538.22	17.1
538.418	17.15
538.616	17.27
538.813	17.17
539.011	17.4
539.209	17.45
539.406	17.61
539.604	17.85
539.801	17.89
539.999	17.93
540.196	18.06
540.394	18.18
540.591	18.12
540.789	18.19
540.986	18.27
541.184	18.27
541.381	18.37
541.579	18.42
541.776	18.42
541.974	18.48
542.171	18.51
542.368	18.49
542.566	18.48
542.763	18.63
542.96	18.67
543.158	18.81
543.355	18.94
543.552	18.94
543.75	19.07
543.947	19.11
544.144	19.38
544.341	19.5
544.539	19.71
544.736	19.92
544.933	19.96
545.13	20.06
545.327	20.05
545.524	20.01
545.722	20.13
545.919	20.15
546.116	20.21
546.313	19.95
546.51	20.09
546.707	20.06
546.904	20.07
547.101	20.24
547.298	20.47
547.495	20.61
547.692	20.69
547.889	20.64
548.086	20.73
548.283	20.89
548.48	21.11
548.677	21.12
548.874	21.33
549.07	21.48
549.267	21.49
549.464	21.38
549.661	21.54
549.858	21.66
550.055	21.99
550.251	21.99
550.448	22.24
550.645	22.16
550.842	22.26
551.038	22.13
551.235	22.13
551.432	22.36
551.628	22.28
551.825	22.15
552.022	22.36
552.218	22.18
552.415	22.42
552.612	22.42
552.808	22.63
553.005	22.71
553.201	22.98
553.398	23.12
553.594	23.15
553.791	23.47
553.987	23.77
554.184	23.67
554.38	23.9
554.577	24.02
554.773	24.16
554.97	24.38
555.166	24.51
555.362	24.48
555.559	24.51
555.755	24.59
555.952	24.54
556.148	24.77
556.344	25
556.541	25
556.737	25
556.933	25.14
557.129	25.03
557.326	25.1
557.522	25.12
557.718	25.46
557.914	25.6
558.11	25.6
558.307	25.33
558.503	25.3
558.699	25.6
558.895	25.68
559.091	25.73
559.287	26.16
559.483	26.43
559.679	26.54
559.876	26.4
560.072	26.22
560.268	26.41
560.464	26.56
560.66	26.76
560.856	26.94
561.052	26.93
561.247	26.72
561.443	26.55
561.639	26.56
561.835	26.83
562.031	27.06
562.227	27.29
562.423	27.42
562.619	27.62
562.815	27.78
563.01	27.82
563.206	27.89
563.402	28.03
563.598	28.09
563.793	28.01
563.989	28.06
564.185	27.94
564.381	27.93
564.576	28.11
564.772	27.87
564.968	27.91
565.163	27.77
565.359	27.86
565.555	27.97
565.75	28.09
565.946	28.02
566.141	28.04
566.337	28.05
566.532	28.23
566.728	28.07
566.923	28.3
567.119	28.21
567.314	28.41
567.51	28.54
567.705	28.6
567.901	28.6
568.096	28.65
568.292	28.85
568.487	29.08
568.682	29.05
568.878	29.38
569.073	29.43
569.268	29.45
569.464	29.54
569.659	29.53
569.854	29.72
570.05	29.8
570.245	30.27
570.44	30.15
570.635	30.07
570.831	30.05
571.026	29.98
571.221	30.28
571.416	30.5
571.611	30.29
571.806	30.34
572.002	30.34
572.197	30.26
572.392	29.97
572.587	30.05
572.782	30.14
572.977	30.26
573.172	30.39
573.367	30.07
573.562	30.09
573.757	30.37
573.952	30.3
574.147	30.13
574.342	30.4
574.537	30.43
574.732	30.33
574.927	30.44
575.121	30.56
575.316	30.52
575.511	30.67
575.706	30.63
575.901	30.36
576.096	30.49
576.29	30.71
576.485	30.69
576.68	30.78
576.875	30.96
577.069	30.72
577.264	30.67
577.459	30.8
577.654	31.1
577.848	31.08
578.043	31.57
578.238	31.81
578.432	31.81
578.627	31.71
578.821	31.82
579.016	31.99
579.21	32.4
579.405	32.48
579.6	32.3
579.794	32.21
579.989	32.43
580.183	32.64
580.378	32.58
580.572	33
580.766	33.22
580.961	33.39
581.155	33.26
581.35	33.41
581.544	33.38
581.738	33.69
581.933	33.75
582.127	33.84
582.321	33.46
582.516	33.38
582.71	32.89
582.904	32.84
583.099	32.76
583.293	32.87
583.487	32.84
583.681	33.2
583.875	33.16
584.07	33.24
584.264	33.34
584.458	33.3
584.652	33.57
584.846	33.72
585.04	33.63
585.234	33.75
585.428	33.89
585.623	33.8
585.817	33.55
586.011	33.42
586.205	33.42
586.399	33.47
586.593	33.64
586.787	33.57
586.981	33.6
587.174	34.11
587.368	34
587.562	33.96
587.756	33.97
587.95	34.1
588.144	34.29
588.338	34.23
588.532	34.01
588.725	34.34
588.919	34.49
589.113	34.74
589.307	34.66
589.501	34.75
589.694	35.05
589.888	35.1
590.082	35.06
590.275	34.95
590.469	35.02
590.663	35.16
590.856	34.71
591.05	34.74
591.244	34.51
591.437	34.48
591.631	34.55
591.824	34.12
592.018	34.15
592.212	34.11
592.405	34.33
592.599	34.22
592.792	34.35
592.986	34.44
593.179	34.24
593.372	34.52
593.566	34.25
593.759	34.41
593.953	34.4
594.146	34.4
594.339	34.65
594.533	34.71
594.726	34.63
594.92	34.52
595.113	34.51
595.306	34.61
595.499	34.62
595.693	35.04
595.886	35.05
596.079	35.31
596.272	35.44
596.466	35.28
596.659	35.28
596.852	35.74
597.045	35.74
597.238	35.67
597.431	35.63
597.624	35.45
597.818	35.37
598.011	35.23
598.204	35.11
598.397	35.17
598.59	35.26
598.783	35.22
598.976	34.93
599.169	35.08
599.362	35.2
599.555	35.21
599.748	35.3
599.941	35.07
600.134	35.23
600.326	35.24
600.519	35.35
600.712	35.39
600.905	35.36
601.098	35.38
601.291	35.23
601.483	35.35
601.676	35.37
601.869	35.44
602.062	35.75
602.255	35.79
602.447	35.9
602.64	35.61
602.833	35.46
603.025	35.44
603.218	35.53
603.411	35.67
603.603	35.66
603.796	35.9
603.989	35.72
604.181	35.58
604.374	35.43
604.566	35.61
604.759	35.71
604.951	35.69
605.144	35.71
605.336	35.84
605.529	35.87
605.721	35.89
605.914	35.87
606.106	36.14
606.299	36.4
606.491	36.68
606.683	36.56
606.876	36.41
607.068	36.62
607.26	36.6
607.453	36.34
607.645	36.12
607.837	36.36
608.03	36.43
608.222	36.28
608.414	36.18
608.606	36.06
608.799	36.17
608.991	36.13
609.183	36.09
609.375	36.36
609.567	36.51
609.759	36.82
609.952	36.65
610.144	36.53
610.336	36.66
610.528	36.6
610.72	36.61
610.912	36.4
611.104	36.78
611.296	36.79
611.488	36.83
611.68	36.89
611.872	36.63
612.064	36.98
612.256	37.18
612.448	37.33
612.64	37.32
612.832	37.4
613.023	37.59
613.215	37.43
613.407	37.17
613.599	37.12
613.791	37.15
613.983	37.17
614.174	36.85
614.366	36.51
614.558	36.36
614.75	36.62
614.941	36.45
615.133	36.52
615.325	36.44
615.516	37.16
615.708	37.02
615.9	37.03
616.091	37.09
616.283	37.14
616.475	37.07
616.666	37.21
616.858	37.11
617.049	36.96
617.241	36.97
617.432	37.06
617.624	36.75
617.815	36.54
618.007	36.61
618.198	36.61
618.39	36.72
618.581	37.06
618.773	36.9
618.964	36.89
619.155	37.04
619.347	37.02
619.538	36.99
619.729	36.87
619.921	37.3
620.112	37.57
620.303	37.54
620.494	37.48
620.686	37.63
620.877	38.02
621.068	37.92
621.259	38.26
621.451	38.3
621.642	38.22
621.833	38.36
622.024	37.89
622.215	37.51
622.406	37.63
622.597	37.32
622.788	37.04
622.98	36.85
623.171	36.94
623.362	36.69
623.553	36.78
623.744	36.94
623.935	36.79
624.126	37
624.317	37.24
624.508	37.06
624.698	37.1
624.889	37.07
625.08	37.28
625.271	37.45
625.462	37.61
625.653	37.47
625.844	37.39
626.034	37.38
626.225	37.58
626.416	37.23
626.607	37.61
626.798	37.96
626.988	38.07
627.179	37.78
627.37	37.63
627.56	37.8
627.751	38.22
627.942	38.39
628.132	38.58
628.323	38.46
628.514	38.65
628.704	38.23
628.895	38.21
629.085	38.21
629.276	38.26
629.466	38.45
629.657	38.18
629.847	37.95
630.038	38.13
630.228	38.21
630.419	38.27
630.609	38.34
630.8	38.91
630.99	39.08
631.181	39.47
631.371	39.63
631.561	39.26
631.752	39.34
631.942	39.4
632.132	39.08
632.323	39.03
632.513	38.88
632.703	38.67
632.893	38.65
633.084	38.36
633.274	38.12
633.464	37.71
633.654	38.19
633.844	37.9
634.034	37.82
634.225	37.78
634.415	37.67
634.605	37.95
634.795	38.09
634.985	37.88
635.175	38.02
635.365	37.99
635.555	38.33
635.745	37.85
635.935	38.4
636.125	38.31
636.315	38.78
636.505	38.78
636.695	38.62
636.885	38.53
637.075	38.51
637.265	38.71
637.455	38.81
637.644	38.92
637.834	39.09
638.024	38.77
638.214	38.8
638.404	38.57
638.593	38.58
638.783	38.41
638.973	38.41
639.163	38.28
639.352	37.82
639.542	37.89
639.732	37.9
639.921	38.08
640.111	38.33
640.301	38.48
640.49	38.46
640.68	38.72
640.87	39.17
641.059	39.27
641.249	39.49
641.438	39.94
641.628	39.83
641.817	40.43
642.007	40.68
642.196	40.39
642.386	40.27
642.575	40.78
642.764	40.53
642.954	40.45
643.143	40.4
643.333	40.38
643.522	40.01
643.711	39.71
643.901	39.19
644.09	39.16
644.279	39.78
644.469	39.71
644.658	39.39
644.847	39.46
645.036	39.24
645.226	39.37
645.415	39.47
645.604	39.38
645.793	39.56
645.982	39.33
646.171	38.93
646.361	38.48
646.55	38.85
646.739	38.86
646.928	38.94
647.117	39.25
647.306	39.15
647.495	39.01
647.684	39.32
647.873	39.38
648.062	39.67
648.251	39.97
648.44	39.84
648.629	39.37
648.818	39.46
649.007	39.3
649.196	39.36
649.384	39.19
649.573	39.26
649.762	39.18
649.951	39.23
650.14	39.17
650.328	38.9
650.517	38.91
650.706	39.15
650.895	39.08
651.083	39.76
651.272	39.87
651.461	40.32
651.65	40.38
651.838	40.22
652.027	40.25
652.216	40.06
652.404	40.27
652.593	40.62
652.781	40.68
652.97	40.84
653.158	40.18
653.347	39.68
653.535	39.39
653.724	39.46
653.912	40
654.101	39.91
654.289	40.08
654.478	40.23
654.666	39.9
654.855	39.82
655.043	39.41
655.231	39.6
655.42	39.84
655.608	40.3
655.796	40.36
655.985	39.88
656.173	39.69
656.361	39.34
656.55	39.1
656.738	39.31
656.926	39.57
657.114	39.59
657.302	39.56
657.491	39.45
657.679	39.3
657.867	39.31
658.055	39.44
658.243	39.85
658.431	40
658.619	39.92
658.807	40.21
658.996	39.84
659.184	39.96
659.372	39.83
659.56	39.76
659.748	39.52
659.936	39.54
660.124	39.63
660.311	39.46
660.499	39.45
660.687	39.4
660.875	39.08
661.063	39.21
661.251	39.21
661.439	39.49
661.627	39.66
661.814	39.87
662.002	39.54
662.19	39.65
662.378	39.47
662.565	39.38
662.753	39.75
662.941	40.19
663.129	39.95
663.316	40.01
663.504	39.98
663.692	39.87
663.879	40.01
664.067	40.27
664.254	40.02
664.442	40.48
664.63	41.05
664.817	41.1
665.005	40.09
665.192	40.75
665.38	41.07
665.567	40.54
665.755	40.93
665.942	40.79
666.13	41.08
666.317	40.93
666.504	40.43
666.692	40.43
666.879	40.15
667.067	40.65
667.254	40.64
667.441	40.28
667.629	41.03
667.816	40.64
668.003	40.8
668.19	41.02
668.378	41.58
668.565	41.93
668.752	41.4
668.939	41.51
669.127	41.74
669.314	41.23
669.501	41.41
669.688	41.09
669.875	41.37
670.062	41.34
670.249	40.86
670.436	40.69
670.623	40.37
670.81	40.99
670.997	41.2
671.184	41.1
671.371	41.62
671.558	41.01
671.745	41.26
671.932	41.41
672.119	41.13
672.306	41.36
672.493	41.62
672.68	41.97
672.867	42.25
673.054	42.28
673.24	42.34
673.427	41.94
673.614	42.27
673.801	42.27
673.988	42.17
674.174	42.53
674.361	42.3
674.548	41.75
674.734	41.83
674.921	40.75
675.108	40.41
675.294	40.02
675.481	40.14
675.668	40.54
675.854	40.81
676.041	40.66
676.227	40.36
676.414	40.93
676.601	41.04
676.787	40.81
676.974	41.61
677.16	41.46
677.347	42.23
677.533	42.34
677.719	42.41
677.906	41.93
678.092	41.99
678.279	42.18
678.465	41.54
678.651	41.44
678.838	41.66
679.024	41.2
679.21	41.2
679.397	40.99
679.583	41.07
679.769	40.5
679.955	40.45
680.142	40.48
680.328	40.76
680.514	41.01
680.7	40.82
680.886	40.73
681.073	40.75
681.259	40.89
681.445	41.09
681.631	41.11
681.817	41.28
682.003	41.62
682.189	41.38
682.375	41.28
682.561	41.66
682.747	41.62
682.933	41.36
683.119	41.24
683.305	41.49
683.491	40.8
683.677	41.24
683.863	41.31
684.049	40.85
684.235	41.11
684.42	40.87
684.606	40.07
684.792	40.68
684.978	40.7
685.164	40.9
685.349	41.19
685.535	41.52
685.721	40.74
685.907	40.85
686.092	41.15
686.278	41.16
686.464	41.35
686.649	42.15
686.835	42.2
687.021	43.33
687.206	43.44
687.392	42.77
687.577	42.95
687.763	43.49
687.948	43.69
688.134	43.21
688.319	43.07
688.505	43.26
688.69	43
688.876	42.47
689.061	41.32
689.247	41.49
689.432	41.49
689.618	40.97
689.803	40.36
689.988	40.13
690.174	40.72
690.359	40.34
690.544	40.74
690.73	40.44
690.915	40.76
691.1	40.37
691.285	40.74
691.471	41.29
691.656	41.89
691.841	41.9
692.026	42.01
692.211	41.64
692.396	41.88
692.582	41.52
692.767	41.69
692.952	41.97
693.137	42.39
693.322	41.62
693.507	41.04
693.692	40.91
693.877	41.57
694.062	41.43
694.247	42.38
694.432	42.44
694.617	41.58
694.802	41.62
694.987	41.43
695.172	41.64
695.357	41.89
695.541	41.86
695.726	42.11
695.911	41.92
696.096	41.88
696.281	41.02
696.466	41.6
696.65	42.02
696.835	42
697.02	41.77
697.204	42.49
697.389	42.54
697.574	42.64
697.759	42.29
697.943	42.09
698.128	42.31
698.312	42.5
698.497	42.19
698.682	42.1
698.866	41.83
699.051	42.11
699.235	41.62
699.42	41.77
699.604	41.52
699.789	41.43
699.973	41.27
700.158	40.86
700.342	40.49
700.527	40.44
700.711	40.77
700.895	40.86
701.08	40.72
701.264	40.89
701.448	40.22
701.633	40.68
701.817	41.06
702.001	41.73
702.186	42.13
702.37	42.09
702.554	41.96
702.738	41.94
702.923	42.23
703.107	42.23
703.291	42.15
703.475	42.92
703.659	43.03
703.843	42.63
704.027	42.06
704.212	41.55
704.396	42.81
704.58	42.81
704.764	42.25
704.948	41.71
705.132	41.93
705.316	41.93
705.5	42.27
705.684	41.75
705.868	42.32
706.052	42.57
706.235	43.12
706.419	43.08
706.603	43.52
706.787	43.33
706.971	43.7
707.155	43.11
707.339	42.82
707.522	42.36
707.706	42.35
707.89	41.78
708.074	41.82
708.257	41.06
708.441	40.35
708.625	40
708.808	40.31
708.992	40.74
709.176	41.36
709.359	41.6
709.543	41.53
709.727	42.63
709.91	42.76
710.094	42.64
710.277	43.49
710.461	43.74
710.644	44.38
710.828	45.24
711.011	44.34
711.195	44.17
711.378	44.44
711.562	43.56
711.745	42.45
711.928	42.61
712.112	42.42
712.295	41.9
712.478	42.31
712.662	42.83
712.845	42.19
713.028	42.49
713.212	42.61
713.395	41.66
713.578	42.66
713.761	43.36
713.945	43.18
714.128	43.89
714.311	44.3
714.494	43.34
714.677	42.15
714.86	41.49
715.043	42.1
715.227	41.7
715.41	42.58
715.593	42.66
715.776	42.57
715.959	42.23
716.142	41.74
716.325	41.78
716.508	42.66
716.691	42.77
716.874	43.16
717.057	42.7
717.239	43.09
717.422	42.68
717.605	42.86
717.788	42.05
717.971	43.63
718.154	43.65
718.337	43.61
718.519	42.86
718.702	43.77
718.885	43.1
719.068	43.03
719.25	42.81
719.433	43.6
719.616	43.39
719.798	44.44
719.981	43.2
720.164	43.35
720.346	43.1
720.529	43.17
720.712	42.06
720.894	43.33
721.077	43.49
721.259	43.12
721.442	43.54
721.624	44.51
721.807	43.95
721.989	44.03
722.172	43.96
722.354	44.37
722.537	44.48
722.719	44.42
722.901	44.29
723.084	44.24
723.266	44.21
723.448	43.62
723.631	42.03
723.813	43.08
723.995	43.12
724.178	43.76
724.36	43.44
724.542	42.95
724.724	43.82
724.907	43.79
725.089	44.68
725.271	46.24
725.453	45.73
725.635	45.56
725.817	45.84
725.999	46.56
726.181	46.35
726.364	47.06
726.546	47.43
726.728	46.66
726.91	46.42
727.092	45.38
727.274	44.64
727.456	44.33
727.638	44.39
727.819	44.21
728.001	44.01
728.183	43.48
728.365	43.08
728.547	43.39
728.729	44.13
728.911	45.42
729.093	46.12
729.274	44.5
729.456	45.27
729.638	45.97
729.82	45.16
730.001	44.62
730.183	45.27
730.365	44.62
730.546	44.36
730.728	44.18
730.91	42.79
731.091	42.86
731.273	44.37
731.455	44.65
731.636	45.13
731.818	46
731.999	45.59
732.181	44.57
732.362	44.82
732.544	45.21
732.725	44.67
732.907	44.85
733.088	44.59
733.27	45.28
733.451	44.23
733.633	43.92
733.814	43.77
733.995	44.59
734.177	45.49
734.358	45.63
734.539	45.3
734.721	45.99
734.902	45.79
735.083	46.4
735.264	45.22
735.446	45.94
735.627	45.69
735.808	45.21
735.989	45.55
736.17	46.02
736.351	46.37
736.533	46.91
736.714	46.39
736.895	46.46
737.076	45.81
737.257	45.89
737.438	45.69
737.619	46.18
737.8	44.81
737.981	44.62
738.162	43.81
738.343	43.91
738.524	43.54
738.705	44.18
738.886	44.79
739.067	44.98
739.247	45.63
739.428	45.52
739.609	45.46
739.79	47.93
739.971	48.21
740.151	48.67
740.332	47.93
740.513	48.32
740.694	48.02
740.874	47.08
741.055	47.01
741.236	46.63
741.417	46.43
741.597	45.09
741.778	44.21
741.958	43.07
742.139	42.48
742.32	42.04
742.5	42.34
742.681	42.88
742.861	44.01
743.042	43.68
743.222	43.05
743.403	43.08
743.583	44.77
743.764	45.45
743.944	45.17
744.124	45.29
744.305	46.03
744.485	46.04
744.666	44.92
744.846	45.22
745.026	45.32
745.207	46.5
745.387	47.11
745.567	46.62
745.747	45.35
745.928	45.86
746.108	45.99
746.288	46.53
746.468	46.37
746.648	47.43
746.829	47.26
747.009	47.62
747.189	47.32
747.369	46.76
747.549	45.71
747.729	46.33
747.909	46.25
748.089	46.71
748.269	46.26
748.449	45.87
748.629	45.71
748.809	45.43
748.989	45.09
749.169	46.21
749.349	46.4
749.529	47.5
749.709	46.75
749.889	47.19
750.068	46.27
750.248	46.3
750.428	46.66
750.608	45.74
750.788	45.31
750.967	44.94
751.147	43.38
751.327	44.34
751.507	43.99
751.686	44.2
751.866	43.7
752.046	43.76
752.225	44.2
752.405	43.77
752.585	44.28
752.764	44.51
752.944	44.21
753.123	44.13
753.303	43.13
753.482	42.96
753.662	42.99
753.841	43.11
754.021	42.92
754.2	43.34
754.38	42.57
754.559	42.95
754.739	43.7
754.918	44.77
755.097	44.77
755.277	44.76
755.456	43.54
755.635	43.96
755.815	44.89
755.994	45.91
756.173	43.95
756.352	44.43
756.532	43.74
756.711	41.98
756.89	41.53
757.069	42.33
757.248	42.1
757.427	43.3
757.607	43.14
757.786	41.53
757.965	39.68
758.144	39.66
758.323	41.1
758.502	41.85
758.681	42.81
758.86	42.92
759.039	41.87
759.218	41.21
759.397	41.69
759.576	41.12
759.755	41.87
759.934	43.21
760.113	44.4
760.291	43.65
760.47	43.83
760.649	43.69
760.828	43.82
761.007	43.35
761.186	44.42
761.364	43.42
761.543	43.71
761.722	44.25
761.901	43.92
762.079	44.54
762.258	43.78
762.437	42.84
762.615	42.17
762.794	42.14
762.972	43.3
763.151	42.42
763.33	42.71
763.508	43.28
763.687	43.5
763.865	44.17
764.044	43.73
764.222	43.98
764.401	44.34
764.579	44.73
764.758	44.18
764.936	44.17
765.114	44.91
765.293	45.04
765.471	43.96
765.65	43.3
765.828	42.04
766.006	42.46
766.184	42.8
766.363	43.08
766.541	42.37
766.719	42.54
766.898	43.1
767.076	43.14
767.254	43.62
767.432	43.89
767.61	43.69
767.788	45.01
767.967	44.29
768.145	43.47
768.323	43.16
768.501	43.72
768.679	45.07
768.857	43.89
769.035	44.2
769.213	44.88
769.391	44.84
769.569	44.9
769.747	44.63
769.925	43.32
770.103	43.93
770.281	42.89
770.459	42.89
770.636	41.92
770.814	40.95
770.992	41.71
771.17	41.54
771.348	42.72
771.525	42.74
771.703	42.49
771.881	45.51
772.059	45.85
772.236	46.25
772.414	47
772.592	46.74
772.769	49.15
772.947	47.62
773.125	45.8
773.302	47.44
773.48	48.37
773.657	49.24
773.835	47.54
774.013	47.9
774.19	49.51
774.368	49.31
774.545	50.96
774.723	48.81
774.9	50.04
775.077	49.19
775.255	46.55
775.432	45.11
775.61	43.49
775.787	44.04
775.964	43.68
776.142	41.74
776.319	41.85
776.496	41.9
776.674	44.29
776.851	44.09
777.028	46
777.205	46.82
777.382	47.75
777.56	49.22
777.737	52.32
777.914	52.69
778.091	53.88
778.268	53.22
778.445	52.63
778.622	51.54
778.8	50.56
778.977	51.25
779.154	53.74
779.331	54.5
779.508	53.6
779.685	49.48
779.862	49.35
780.038	48.66
780.215	52.13
780.392	52.7
780.569	52.5
780.746	51.95
780.923	49.59
781.1	46.39
781.277	43.27
781.453	43.26
781.63	44.16
781.807	44.17
781.984	44
782.16	42.29
782.337	41.56
782.514	42.38
782.691	44.81
782.867	47.14
783.044	49.42
783.221	52.93
783.397	54.85
783.574	55.86
783.75	55.1
783.927	56.63
784.103	57.51
784.28	57.38
784.456	57.73
784.633	57.12
784.809	57.16
784.986	53.16
785.162	54.42
785.339	52.56
785.515	51.05
785.692	50.63
785.868	51.06
786.044	50.82
786.221	51.03
786.397	51.97
786.573	49.91
786.749	49.48
786.926	52.26
787.102	50.26
787.278	50.59
787.454	50.85
787.631	51.61
787.807	50.71
787.983	50.98
788.159	50.47
788.335	49.15
788.511	50.68
788.687	50.1
788.863	49.28
789.039	50.56
789.216	49.46
789.392	50.66
789.568	48.58
789.744	49.74
789.919	48.14
790.095	48.56
790.271	48.55
790.447	47.84
790.623	47.91
790.799	47.92
790.975	46.17
791.151	47.02
791.327	45.53
791.502	47.97
791.678	46.94
791.854	49.02
792.03	47.92
792.205	47.54
792.381	46.62
792.557	45.42
792.733	46.49
792.908	47.73
793.084	46.68
793.259	47.42
793.435	45.87
793.611	46.77
793.786	45.36
793.962	45.88
794.137	46.3
794.313	48.05
794.488	50.92
794.664	50.19
794.839	48.78
795.015	49.67
795.19	48.4
795.366	51.97
795.541	51.6
795.716	51.21
795.892	49.96
796.067	50.51
796.242	49.81
796.418	49.52
796.593	50.7
796.768	50.56
796.944	51.76
797.119	53.21
797.294	52.75
797.469	52.94
797.644	50.85
797.82	51.6
797.995	49.4
798.17	49.03
798.345	46.26
798.52	45.52
798.695	47.12
798.87	46.42
799.045	47.36
799.22	44.54
799.395	43.54
799.57	45.71
799.745	46.5
799.92	47.91
800.095	48.09
800.27	50
800.445	49.13
800.62	45.94
800.795	45.29
800.97	45.61
801.145	47.37
801.319	44.54
801.494	42.5
801.669	44.16
801.844	43.53
802.018	44.06
802.193	42.75
802.368	43.33
802.543	46.35
802.717	47.97
802.892	46.17
803.067	47.14
803.241	49.47
803.416	49.42
803.59	51.98
803.765	51.01
803.94	51.53
804.114	50.65
804.289	54.08
804.463	53.94
804.638	52.76
804.812	52.37
804.986	50.3
805.161	50.07
805.335	53.63
805.51	50.7
805.684	51.35
805.858	50.51
806.033	50.17
806.207	46.25
806.381	47.99
806.556	48.16
806.73	49.53
806.904	50.9
807.078	52.78
807.253	51.46
807.427	49.89
807.601	51.19
807.775	53.28
807.949	56.13
808.123	56.33
808.298	56.29
808.472	54.53
808.646	53.5
808.82	51.04
808.994	46.95
809.168	46.35
809.342	50.27
809.516	52.42
809.69	51.82
809.864	49.86
810.038	50.39
810.212	47.24
810.385	45.7
810.559	45.22
810.733	48.45
810.907	52.9
811.081	54.25
811.255	51.54
811.428	46.75
811.602	45.35
811.776	49.14
811.95	49.37
812.123	50.76
812.297	55.38
812.471	55.51
812.644	52.5
812.818	52.77
812.992	52.11
813.165	51.35
813.339	52.75
813.512	55.04
813.686	49.64
813.86	50.81
814.033	49.35
814.207	47.92
814.38	49.85
814.554	51.85
814.727	49.96
814.9	53.88
815.074	49.21
815.247	49.26
815.421	45.1
815.594	46.21
815.767	44.19
815.941	44.08
816.114	45.86
816.287	42.17
816.46	41.49
816.634	42.02
816.807	39.28
816.98	44.65
817.153	44.7
817.327	46.09
817.5	47.34
817.673	49.12
817.846	52.36
818.019	52.88
818.192	56.52
818.365	54.34
818.538	54.72
818.711	53.16
818.884	47.92
819.057	48.56
819.23	47.95
819.403	48.47
819.576	48.27
819.749	48.88
819.922	49.02
820.095	47.34
820.268	46.95
820.441	46.43
820.614	49.87
820.786	52.43
820.959	52.68
821.132	52.13
821.305	50.32
821.477	48.48
821.65	46.59
821.823	45.83
821.996	45.66
822.168	46.09
822.341	45.35
822.514	43.76
822.686	43.48
822.859	42.81
823.031	42.05
823.204	42.45
823.376	42.92
823.549	42.72
823.722	42.13
823.894	42.89
824.067	42.5
824.239	42.68
824.411	42.33
824.584	42.21
824.756	42.49
824.929	42.88
825.101	42.89
825.273	42.91
825.446	43.19
825.618	43.71
825.79	43.25
825.963	43.46
826.135	43.73
826.307	44.82
826.479	44.71
826.652	45.17
826.824	46.21
826.996	46.03
827.168	46.15
827.34	46.25
827.512	46.48
827.684	45.86
827.856	46.03
828.029	45.49
828.201	44.21
828.373	45.58
828.545	45.07
828.717	45.21
828.889	44.61
829.061	45.35
829.232	45.49
829.404	46.26
829.576	46.41
829.748	48.06
829.92	49.43
830.092	52.5
830.264	50.33
830.436	50.05
830.607	49.5
830.779	50.49
830.951	49.31
831.123	50.06
831.294	49.69
831.466	50.31
831.638	49.02
831.809	48.16
831.981	47.36
832.153	50.28
832.324	50.69
832.496	51.5
832.667	53.77
832.839	55.88
833.011	53.78
833.182	51.94
833.354	48.21
833.525	47.67
833.697	47.41
833.868	45.07
834.039	43.8
834.211	44.42
834.382	44.03
834.554	42.18
834.725	42.98
834.896	42.65
835.068	43.89
835.239	46.15
835.41	48.56
835.581	48.2
835.753	49.75
835.924	49.88
836.095	48.74
836.266	48.32
836.438	49.74
836.609	46.65
836.78	47.84
836.951	46.54
837.122	44.29
837.293	42.06
837.464	41.32
837.635	42.1
837.806	41.56
837.977	43.67
838.148	45.81
838.319	43.9
838.49	46.01
838.661	46.15
838.832	50.41
839.003	52.56
839.174	49.92
839.345	57.26
839.516	54.28
839.687	56.22
839.857	51
840.028	51.46
840.199	54.32
840.37	54.11
840.54	56.68
840.711	52.13
840.882	51.62
841.053	52.6
841.223	47.16
841.394	51.43
841.564	54.75
841.735	61.89
841.906	60.05
842.076	59.33
842.247	58.59
842.417	60.33
842.588	61.68
842.758	68.04
842.929	66.54
843.099	74.33
843.27	68.48
843.44	65.64
843.611	66.79
843.781	68.34
843.951	66.5
844.122	70.9
844.292	60.35
844.462	63.78
844.633	61.92
844.803	59.89
844.973	53.13
845.144	57.49
845.314	56.99
845.484	59.08
845.654	58.27
845.824	60.64
845.995	53.8
846.165	62.86
846.335	63.12
846.505	59.5
846.675	74.16
846.845	78.38
847.015	84.93
847.185	87.88
847.355	82.55
847.525	74.58
847.695	75.99
847.865	89.87
848.035	86.84
848.205	79.06
848.375	92.92
848.545	87.25
848.715	78.29
848.884	68.07
849.054	66.89
849.224	70.03
849.394	72.9
849.564	73.32
849.733	75.05
849.903	72.62
850.073	68.98
850.243	61.27
850.412	64.05
850.582	63.67
850.752	63.72
850.921	63.39
851.091	65.45
851.26	83.66
851.43	71.67
851.599	69.43
851.769	62.8
851.939	76.48
852.108	73.64
852.278	69.36
852.447	79.35
852.616	84.71
852.786	81.97
852.955	79.48
853.125	70.67
853.294	80.56
853.463	77.7
853.633	80.03
853.802	88.39
853.971	113.06
854.141	115.3
854.31	112.34
854.479	112.94
854.648	126.17
854.818	107.17
854.987	95.84
855.156	75.9
855.325	66.57
855.494	87.74
855.663	72.41
855.832	64.94
856.001	65.01
856.171	49.37
856.34	57.23
856.509	67.13
856.678	86.96
856.847	83.01
857.016	103.68
857.185	118.91
857.353	106.91
857.522	112.22
857.691	92.75
857.86	92.58
858.029	103.95
858.198	104.25
858.367	100.24
858.535	82.88
858.704	92.58
858.873	96.7
859.042	92.83
859.21	110.51
859.379	93.76
859.548	104.73
859.717	110.5
859.885	116.25
860.054	106.69
860.222	89.44
860.391	89.02
860.56	93.01
860.728	92.34
860.897	96.24
861.065	86.05
861.234	91.65
861.402	79.64
861.571	72.89
861.739	68.76
861.908	71.42
862.076	85.49
862.244	93.8
862.413	89.17
862.581	92.34
862.749	86.55
862.918	81.55
863.086	86.34
863.254	91.86
863.423	96.44
863.591	85.24
863.759	86.16
863.927	73.94
864.096	63.31
864.264	74.55
864.432	62.72
864.6	66.5
864.768	73.61
864.936	66.61
865.104	75.95
865.272	82.97
865.44	100
865.608	95.44
865.776	104.26
865.944	113.62
866.112	109.19
866.28	113.45
866.448	101.24
866.616	106.19
866.784	108.38
866.952	107.45
867.12	110.86
867.288	98
867.455	121.29
867.623	111.64
867.791	102.29
867.959	108.85
868.127	118.13
868.294	111.16
868.462	97.75
868.63	93.93
868.797	93.46
868.965	67.23
869.133	86.57
869.3	78.22
869.468	93.91
869.636	79.65
869.803	79.74
869.971	73.99
870.138	72.46
870.306	67.52
870.473	65.51
870.641	59.39
870.808	56.6
870.975	47.04
871.143	36.99
871.31	32.61
871.478	23.75
871.645	19.13
871.812	26.54
871.98	30.24
872.147	25.26
872.314	37.49
872.482	39.84
872.649	53.33
872.816	53.96
872.983	62.68
873.15	69.48
873.318	81.99
873.485	89.34
873.652	72.23
873.819	76.03
873.986	98.94
874.153	107.54
874.32	128.85
874.487	145.45
874.654	167.76
874.821	176.91
874.988	174.88
875.155	181.66
875.322	138.77
875.489	172.78
875.656	166.89
875.823	151.37
875.99	107.85
876.157	84.29
876.324	75.31
876.49	71.35
876.657	72.7
876.824	68.13
876.991	69.63
877.157	69.91
877.324	65.35
877.491	66.91
877.658	63.65
877.824	71.88
877.991	71.83
878.157	71.91
878.324	70.92
878.491	67.23
878.657	63.45
878.824	66.49
878.99	64.1
879.157	69
879.323	64.2
879.49	69.92
879.656	71.21
879.823	72.86
879.989	66.25
880.156	70.35
880.322	63.76
880.488	65.34
880.655	56.3
880.821	65.18
880.987	63
881.154	65.96
881.32	61.83
881.486	60.76
881.652	60.73
881.819	63.8
881.985	60.99
882.151	60.71
882.317	56.27
882.483	58.98
882.649	55.51
882.816	52.11
882.982	52.24
883.148	50.22
883.314	47.99
883.48	46.79
883.646	46.55
883.812	47.23
883.978	48.52
884.144	50.56
884.31	50.7
884.476	50.21
884.642	49.52
884.807	47.47
884.973	47.01
885.139	48.03
885.305	48.04
885.471	46.06
885.637	45.4
885.802	44.94
885.968	44.05
886.134	41.48
886.3	44.28
886.465	46.76
886.631	48.18
886.797	52.12
886.962	53.78
887.128	60.37
887.293	68.77
887.459	65.63
887.625	67
887.79	71.78
887.956	73.36
888.121	69.6
888.287	73.15
888.452	77.98
888.618	75.5
888.783	73.8
