Data from CB_033_Reflection_00002.txt Node
Date: Wed Nov 11 22:01:58 EST 2015
User: robert
Spectrometer: USB4E03001
Autoset integration time: false
Trigger mode: 4
Integration Time (sec): 1.000000E-1
Scans to average: 15
Electric dark correction enabled: true
Nonlinearity correction enabled: false
Boxcar width: 5
Stray light correction enabled: false
XAxis mode: Wavelengths
Stop averaging: false
Number of Pixels in Spectrum: 3648
>>>>>Begin Spectral Data<<<<<
177.566	-70.8
177.785	-1157.24
178.005	88.88
178.225	-246.08
178.445	104.37
178.665	86.38
178.885	610.08
179.105	0.56
179.324	44.2
179.544	81.34
179.764	153.59
179.984	133.43
180.204	113.3
180.423	171.72
180.643	145.13
180.863	106.87
181.083	96.1
181.302	102.53
181.522	90.02
181.742	88.14
181.961	95.44
182.181	69.88
182.401	59.17
182.621	60.08
182.84	44.66
183.06	55.49
183.279	57.13
183.499	66.22
183.719	50.27
183.938	60.9
184.158	47.37
184.377	51.08
184.597	74.68
184.816	94.74
185.036	90.64
185.256	116.43
185.475	144.19
185.695	171.04
185.914	196.26
186.134	251.58
186.353	241.89
186.572	188.85
186.792	168.44
187.011	121.69
187.231	118.29
187.45	156.25
187.67	106.82
187.889	49.09
188.108	67.84
188.328	58.28
188.547	61.97
188.766	49.93
188.986	67.31
189.205	85.77
189.424	96.22
189.644	96.12
189.863	86.58
190.082	107.84
190.302	96.47
190.521	125.67
190.74	144.43
190.959	125.4
191.178	112.31
191.398	107.84
191.617	111.33
191.836	131.54
192.055	129.57
192.274	106.59
192.494	102.78
192.713	141.27
192.932	139.07
193.151	135.28
193.37	141.73
193.589	145.59
193.808	174.63
194.027	191.18
194.246	135.87
194.465	125.29
194.685	154.9
194.904	153.9
195.123	125.79
195.342	99.43
195.561	111.69
195.78	111.38
195.999	118.57
196.218	79.7
196.436	77.53
196.655	104.48
196.874	94.76
197.093	88.38
197.312	84.37
197.531	108.67
197.75	102.58
197.969	115.26
198.188	104.49
198.407	115.45
198.625	126.46
198.844	123.86
199.063	123.88
199.282	110.01
199.501	116.98
199.719	158.88
199.938	134.82
200.157	200.95
200.376	112.29
200.594	145.5
200.813	119.14
201.032	139.55
201.251	159.7
201.469	124.7
201.688	137.29
201.907	120.79
202.125	89.39
202.344	89.18
202.563	109.33
202.781	123.16
203	103.6
203.218	109.77
203.437	109.37
203.656	92.76
203.874	89.2
204.093	90.68
204.311	92.66
204.53	136.47
204.748	137.58
204.967	128.26
205.185	130.47
205.404	147.11
205.622	141.62
205.841	125.47
206.059	128.27
206.278	134.59
206.496	117.59
206.715	103.25
206.933	90.67
207.151	83.99
207.37	72.21
207.588	69.1
207.806	59.62
208.025	66.79
208.243	51.33
208.461	61.32
208.68	55.56
208.898	62.55
209.116	65.35
209.335	71.12
209.553	64.66
209.771	65.7
209.989	71.22
210.208	70
210.426	46.63
210.644	66.84
210.862	75.6
211.081	74.58
211.299	81.77
211.517	103.44
211.735	68.79
211.953	88.21
212.171	93.04
212.39	86.81
212.608	102.39
212.826	120.08
213.044	134.47
213.262	121.7
213.48	154.04
213.698	155.33
213.916	146.32
214.134	176.26
214.352	165.94
214.57	118.98
214.788	148.33
215.006	134.22
215.224	80.78
215.442	28.53
215.66	61.07
215.878	46.36
216.096	29.08
216.314	37.25
216.532	30.56
216.75	46.94
216.968	63.44
217.185	49.16
217.403	65.58
217.621	66.66
217.839	65.23
218.057	58.44
218.275	63.58
218.492	76.59
218.71	76.91
218.928	84.05
219.146	76.67
219.363	90.75
219.581	132.57
219.799	125.09
220.017	159.21
220.234	156
220.452	177.65
220.67	141.67
220.887	124.59
221.105	125.59
221.323	119.58
221.54	149.24
221.758	113.38
221.976	84.22
222.193	66.19
222.411	61.45
222.629	58.96
222.846	50.37
223.064	36.14
223.281	62.13
223.499	62.92
223.716	60.03
223.934	55.78
224.151	49.72
224.369	49.79
224.586	54.83
224.804	54.4
225.021	70.99
225.239	74.97
225.456	79.31
225.674	65.03
225.891	56.3
226.108	61.81
226.326	55.37
226.543	59.27
226.76	61.27
226.978	44.4
227.195	42.3
227.413	29.84
227.63	33.08
227.847	24.78
228.064	20.91
228.282	20.93
228.499	18.27
228.716	18.75
228.934	19.16
229.151	17.2
229.368	19.97
229.585	17.63
229.802	18.91
230.02	14.62
230.237	18.32
230.454	21.35
230.671	21.42
230.888	21.59
231.105	22.06
231.323	22.8
231.54	26.84
231.757	26.61
231.974	32.33
232.191	29.2
232.408	35.86
232.625	39.18
232.842	40.43
233.059	39.27
233.276	41.54
233.493	45.51
233.71	42.24
233.927	38.51
234.144	38.86
234.361	35.53
234.578	42.05
234.795	38.36
235.012	37.32
235.229	34.17
235.446	39.36
235.663	40.77
235.879	35.53
236.096	34.73
236.313	32.89
236.53	35.8
236.747	38.42
236.964	34.33
237.181	41.42
237.397	36.34
237.614	39.53
237.831	36.68
238.048	33.32
238.264	37.26
238.481	34.84
238.698	40.76
238.915	37.37
239.131	32.71
239.348	33.15
239.565	25.6
239.781	29.08
239.998	25.4
240.215	26.84
240.431	27.62
240.648	29.08
240.865	27.68
241.081	27.6
241.298	27.91
241.514	25.24
241.731	27.1
241.947	26.91
242.164	25.52
242.38	26.46
242.597	24.74
242.814	22.82
243.03	23.12
243.246	24.98
243.463	23.44
243.679	22.17
243.896	24.13
244.112	21.83
244.329	23
244.545	22.67
244.762	22.15
244.978	21.95
245.194	23.05
245.411	19.54
245.627	18.55
245.843	18.64
246.06	17.38
246.276	16.69
246.492	16.64
246.709	16
246.925	16.5
247.141	15.84
247.357	15.38
247.574	15.91
247.79	16.56
248.006	15.79
248.222	15.77
248.439	17.09
248.655	18.41
248.871	18.18
249.087	18.44
249.303	17.63
249.519	17.25
249.736	18.09
249.952	16.4
250.168	18.07
250.384	19.4
250.6	18.59
250.816	18.37
251.032	17.25
251.248	17.6
251.464	15.57
251.68	17.92
251.896	19.62
252.112	18.65
252.328	19.92
252.544	17.47
252.76	17.03
252.976	18.53
253.192	17.58
253.408	17.81
253.624	20.24
253.84	21.17
254.056	20.04
254.272	23.37
254.487	26.73
254.703	28.63
254.919	31.1
255.135	31.13
255.351	30.7
255.567	32.83
255.782	30.37
255.998	25.64
256.214	26.37
256.43	26.61
256.646	21.73
256.861	18.68
257.077	15.61
257.293	12.82
257.508	11.93
257.724	12.94
257.94	11.85
258.155	12.63
258.371	14.64
258.587	14.91
258.802	14.24
259.018	14.62
259.234	14.55
259.449	14.86
259.665	14.95
259.88	15.63
260.096	14.43
260.312	14.45
260.527	14.31
260.743	13.81
260.958	13.77
261.174	13.53
261.389	13.88
261.605	13.74
261.82	13.89
262.036	14.99
262.251	15.79
262.466	17.89
262.682	18.69
262.897	19.76
263.113	19.68
263.328	20.05
263.543	20.64
263.759	18.98
263.974	20.14
264.189	19.71
264.405	16.89
264.62	15.27
264.835	13.54
265.051	12.67
265.266	12.6
265.481	14.16
265.696	14.75
265.912	14.24
266.127	16.35
266.342	15.06
266.557	14.77
266.773	14.1
266.988	14.91
267.203	14.09
267.418	13.84
267.633	14.49
267.848	13.84
268.064	12.89
268.279	12.83
268.494	10.85
268.709	11.75
268.924	13.05
269.139	15.24
269.354	14.8
269.569	15.76
269.784	15.7
269.999	13.95
270.214	13.02
270.429	13.82
270.644	15.19
270.859	16.58
271.074	16.51
271.289	16.38
271.504	16.78
271.719	16.85
271.934	15.99
272.149	16.07
272.363	16.61
272.578	17.54
272.793	16.64
273.008	14.87
273.223	14.54
273.438	14.13
273.653	14.39
273.867	14.19
274.082	14.02
274.297	15.16
274.512	15.32
274.726	14.67
274.941	14.7
275.156	16.35
275.371	17.24
275.585	16.8
275.8	18.16
276.015	17.56
276.229	16.66
276.444	17.8
276.659	16.96
276.873	17.15
277.088	18.79
277.302	18.93
277.517	18.43
277.732	19.57
277.946	20.14
278.161	19.47
278.375	19.29
278.59	19.39
278.804	18.62
279.019	17.88
279.233	19.08
279.448	18.27
279.662	19.12
279.877	17.73
280.091	16.3
280.306	16.68
280.52	16.2
280.735	16.09
280.949	16.02
281.163	15.46
281.378	14.71
281.592	13.55
281.806	14.78
282.021	12.42
282.235	12.68
282.449	13.7
282.664	11.9
282.878	11.58
283.092	12.28
283.307	13.32
283.521	13.9
283.735	15.88
283.949	16.03
284.164	14.67
284.378	16.42
284.592	16.99
284.806	17.28
285.02	18.24
285.234	18.26
285.449	17.67
285.663	17.34
285.877	17.44
286.091	17.3
286.305	16.72
286.519	16.98
286.733	16.8
286.947	16.6
287.161	16.05
287.375	16.49
287.589	17.51
287.803	17.38
288.017	16.5
288.231	16.07
288.445	16.25
288.659	15.97
288.873	16.3
289.087	15.62
289.301	16.24
289.515	16.81
289.729	16.34
289.943	15.36
290.157	16.12
290.371	16.12
290.584	16.54
290.798	17.07
291.012	18.07
291.226	18.68
291.44	19.6
291.654	19.28
291.867	18.86
292.081	19.54
292.295	19.97
292.509	18.38
292.722	19.54
292.936	18.85
293.15	18.56
293.364	18.92
293.577	17.55
293.791	17.23
294.005	16.41
294.218	17.4
294.432	16.95
294.645	16.59
294.859	16.77
295.073	16.05
295.286	15.74
295.5	15.31
295.713	14.55
295.927	13.82
296.14	13.82
296.354	13.84
296.568	13.19
296.781	13.34
296.994	14.09
297.208	15.3
297.421	15.39
297.635	15.65
297.848	15.19
298.062	15.23
298.275	16.26
298.489	15.96
298.702	17.29
298.915	17.38
299.129	18.5
299.342	18.63
299.555	18.17
299.769	18.84
299.982	19.62
300.195	20.48
300.409	20.33
300.622	20.46
300.835	20.13
301.048	18.2
301.262	18.05
301.475	16.98
301.688	16.53
301.901	17.24
302.115	16.81
302.328	16.33
302.541	15.63
302.754	15.82
302.967	17.01
303.18	18.39
303.393	19.31
303.607	20.02
303.82	19.56
304.033	19.62
304.246	18.64
304.459	19.52
304.672	19.49
304.885	20.81
305.098	20.22
305.311	19.87
305.524	18.89
305.737	18.85
305.95	19.03
306.163	19.46
306.376	19.82
306.589	20.62
306.802	20.14
307.015	20.87
307.228	19.45
307.44	19.58
307.653	19.02
307.866	18.98
308.079	20.37
308.292	19.17
308.505	19.66
308.718	18.78
308.93	18.69
309.143	17.31
309.356	16.42
309.569	16.58
309.781	17.43
309.994	17.69
310.207	17.71
310.42	16.83
310.632	18.97
310.845	18.64
311.058	18.89
311.27	19.39
311.483	20.34
311.696	20.42
311.908	21.74
312.121	21.28
312.333	21
312.546	21.22
312.759	20.92
312.971	18.95
313.184	18.14
313.396	17.66
313.609	16.95
313.821	17.4
314.034	18.27
314.246	17.19
314.459	18.33
314.671	18.43
314.884	19.41
315.096	19.48
315.309	18.78
315.521	19.18
315.733	20.64
315.946	21.51
316.158	19.96
316.371	19.06
316.583	19.02
316.795	19.16
317.008	19.55
317.22	19.75
317.432	21.1
317.644	22.34
317.857	24.18
318.069	23.77
318.281	22.07
318.494	23.62
318.706	24.41
318.918	23.72
319.13	23.76
319.342	23.13
319.555	22.67
319.767	21.76
319.979	21.49
320.191	20.31
320.403	21.16
320.615	22.26
320.827	21.64
321.039	20.57
321.252	20.65
321.464	20.12
321.676	20.13
321.888	20.74
322.1	20.52
322.312	20.61
322.524	21.32
322.736	20.73
322.948	20.77
323.16	20.34
323.372	20.45
323.584	21.33
323.796	22.17
324.007	21.1
324.219	21.17
324.431	22.01
324.643	22.04
324.855	21.87
325.067	21.69
325.279	21.47
325.491	22.29
325.702	23.33
325.914	23.34
326.126	22.52
326.338	23.26
326.55	23.06
326.761	23.42
326.973	24.21
327.185	23.71
327.396	24.24
327.608	23.98
327.82	24.3
328.032	24.13
328.243	24.13
328.455	24.5
328.666	25.63
328.878	25.38
329.09	24.66
329.301	23.51
329.513	24.05
329.725	23.01
329.936	24.46
330.148	24.78
330.359	25.77
330.571	25.99
330.782	25.75
330.994	25.67
331.205	26.67
331.417	27.77
331.628	28.69
331.84	29.09
332.051	29.13
332.262	28.46
332.474	27.92
332.685	27.52
332.897	27.62
333.108	29.35
333.319	29.57
333.531	29.05
333.742	28.47
333.953	28.39
334.165	28.56
334.376	29.68
334.587	28.78
334.799	29.19
335.01	29.24
335.221	29.29
335.432	28.08
335.644	27.25
335.855	27.62
336.066	27.99
336.277	29.36
336.488	29.23
336.7	29.24
336.911	30.2
337.122	29.74
337.333	29.44
337.544	29.26
337.755	29.75
337.966	30.21
338.177	29.97
338.388	29.64
338.599	28.63
338.811	27.44
339.022	27.28
339.233	26.84
339.444	26.74
339.655	26.06
339.866	26.36
340.076	25.57
340.287	26.02
340.498	25.92
340.709	27.03
340.92	27.31
341.131	28.21
341.342	27.93
341.553	28.47
341.764	28.55
341.975	29
342.185	28.87
342.396	28.69
342.607	28.22
342.818	27.93
343.029	26.83
343.239	26.45
343.45	26.15
343.661	25.64
343.872	24.29
344.082	24.32
344.293	24.54
344.504	24.17
344.714	24.5
344.925	24.17
345.136	24.37
345.346	24.97
345.557	24.38
345.768	23.56
345.978	23.95
346.189	25.3
346.399	24.93
346.61	25.15
346.821	25.57
347.031	25.66
347.242	25.94
347.452	25.82
347.663	25.55
347.873	26.04
348.084	27.16
348.294	26.76
348.504	26.33
348.715	27.26
348.925	26.99
349.136	26.51
349.346	26.32
349.557	26.08
349.767	26.6
349.977	26.43
350.188	26.06
350.398	25.72
350.608	26.13
350.819	26.4
351.029	25.41
351.239	24.58
351.449	25.35
351.66	24.55
351.87	25.67
352.08	26.12
352.29	26.12
352.501	26.73
352.711	27.1
352.921	26.59
353.131	26.6
353.341	27.08
353.552	27.67
353.762	26.94
353.972	28.5
354.182	27.44
354.392	26.83
354.602	26.87
354.812	26.34
355.022	26.08
355.232	26.24
355.442	26.3
355.652	25.9
355.862	26.13
356.072	26.03
356.282	25.39
356.492	25.9
356.702	25.59
356.912	25.07
357.122	24.66
357.332	25.35
357.542	26.03
357.752	25.6
357.962	25.66
358.171	25.63
358.381	25.65
358.591	25.38
358.801	24.06
359.011	23.62
359.221	23.78
359.43	24.54
359.64	23.39
359.85	23.21
360.06	22.95
360.269	22.81
360.479	22.46
360.689	22.45
360.899	22.7
361.108	23.85
361.318	23.93
361.528	23.83
361.737	23.49
361.947	24.2
362.156	23.66
362.366	23.83
362.576	23.84
362.785	24.07
362.995	24.04
363.204	23.94
363.414	23.61
363.623	24.04
363.833	24.09
364.042	23.6
364.252	23.6
364.461	23.84
364.671	23.98
364.88	24.35
365.09	24.02
365.299	24.38
365.509	24.47
365.718	24.25
365.927	23.62
366.137	23.04
366.346	23.37
366.555	23.09
366.765	23.03
366.974	22.98
367.183	22.76
367.393	23.65
367.602	23.28
367.811	22.92
368.021	22.97
368.23	22.87
368.439	23.53
368.648	23.74
368.857	23.42
369.067	23.18
369.276	22.77
369.485	22.97
369.694	21.81
369.903	21.36
370.112	21.25
370.321	21.27
370.531	21.35
370.74	21.25
370.949	21.24
371.158	20.42
371.367	20.4
371.576	20.66
371.785	20.16
371.994	20.56
372.203	21.22
372.412	21.48
372.621	21.23
372.83	20.84
373.039	20.66
373.248	20.55
373.457	21.08
373.666	21
373.874	20.5
374.083	20.13
374.292	19.75
374.501	19.71
374.71	19.54
374.919	19.48
375.128	20.04
375.336	19.89
375.545	19.59
375.754	20.11
375.963	20.05
376.171	20.29
376.38	20.34
376.589	20
376.798	19.51
377.006	19.21
377.215	19.15
377.424	19.01
377.632	18.53
377.841	18.58
378.05	18.23
378.258	17.95
378.467	17.62
378.675	17.46
378.884	17.58
379.093	17.18
379.301	17.25
379.51	17.25
379.718	17.16
379.927	17.38
380.135	17.4
380.344	17.22
380.552	17.34
380.761	17.05
380.969	16.97
381.177	17.04
381.386	16.93
381.594	17.12
381.803	17.09
382.011	17.08
382.219	17.02
382.428	17.14
382.636	16.94
382.845	17.22
383.053	17.4
383.261	17.78
383.469	17.21
383.678	17.31
383.886	16.75
384.094	16.56
384.302	16.63
384.511	16.54
384.719	16.23
384.927	16.03
385.135	15.9
385.343	15.87
385.552	15.8
385.76	16.25
385.968	16.06
386.176	16.18
386.384	16.35
386.592	16.01
386.8	16.21
387.008	16.03
387.216	16.12
387.424	16.06
387.633	15.76
387.841	15.71
388.049	15.33
388.257	15.57
388.465	15.45
388.672	15.07
388.88	15.07
389.088	14.52
389.296	14.46
389.504	14
389.712	13.54
389.92	13.72
390.128	13.56
390.336	13.64
390.544	13.48
390.751	13.41
390.959	13.55
391.167	13.51
391.375	13.64
391.583	13.57
391.79	13.58
391.998	13.89
392.206	13.74
392.414	13.65
392.621	13.32
392.829	13.6
393.037	13.59
393.244	13.6
393.452	13.42
393.66	13.45
393.867	13.57
394.075	13.77
394.283	13.38
394.49	13.81
394.698	13.53
394.905	13.72
395.113	13.49
395.32	13.42
395.528	13.19
395.735	13.15
395.943	12.93
396.15	13.05
396.358	13.23
396.565	13.33
396.773	12.96
396.98	13.27
397.188	13
397.395	12.71
397.602	12.93
397.81	13.27
398.017	13.41
398.225	13.38
398.432	13.07
398.639	12.92
398.847	12.69
399.054	12.47
399.261	12.25
399.468	12.3
399.676	12.26
399.883	12.06
400.09	11.23
400.297	11.01
400.505	10.65
400.712	10.84
400.919	10.57
401.126	10.46
401.333	10.37
401.54	10.23
401.748	10.44
401.955	10.75
402.162	10.72
402.369	10.91
402.576	10.91
402.783	11.37
402.99	10.8
403.197	10.83
403.404	11.05
403.611	11.26
403.818	11.27
404.025	10.92
404.232	10.65
404.439	10.55
404.646	10.51
404.853	10.42
405.06	10.16
405.267	10.04
405.474	9.8
405.681	9.7
405.887	9.67
406.094	9.72
406.301	9.86
406.508	9.86
406.715	9.84
406.922	10.02
407.128	10.18
407.335	10.1
407.542	10.23
407.749	10.22
407.955	10.17
408.162	9.85
408.369	9.47
408.575	9.31
408.782	9.51
408.989	9.71
409.195	9.35
409.402	8.81
409.609	8.81
409.815	8.99
410.022	9.14
410.228	9.31
410.435	9.58
410.642	9.72
410.848	9.72
411.055	9.64
411.261	9.15
411.468	9.26
411.674	9.73
411.881	9.99
412.087	9.94
412.294	10.07
412.5	9.95
412.706	9.73
412.913	9.69
413.119	9.77
413.326	9.71
413.532	10.08
413.738	10.3
413.945	9.96
414.151	9.69
414.357	9.68
414.564	9.61
414.77	9.46
414.976	9.44
415.182	9.57
415.389	9.25
415.595	8.84
415.801	8.64
416.007	8.62
416.214	8.56
416.42	8.72
416.626	8.69
416.832	8.47
417.038	8.66
417.244	8.58
417.45	8.47
417.657	8.69
417.863	9.02
418.069	8.96
418.275	8.85
418.481	8.9
418.687	8.94
418.893	8.71
419.099	8.95
419.305	8.73
419.511	8.75
419.717	8.9
419.923	8.87
420.129	8.62
420.335	8.56
420.541	8.52
420.746	8.38
420.952	8.16
421.158	8.08
421.364	7.77
421.57	7.67
421.776	7.59
421.982	7.49
422.187	7.26
422.393	7.27
422.599	7.21
422.805	7.15
423.01	7.2
423.216	7.21
423.422	7.32
423.628	7.41
423.833	7.46
424.039	7.5
424.245	7.46
424.45	7.53
424.656	7.57
424.862	7.66
425.067	7.87
425.273	7.85
425.478	7.84
425.684	7.87
425.889	7.87
426.095	7.95
426.301	7.94
426.506	7.86
426.712	7.86
426.917	7.79
427.123	7.65
427.328	7.2
427.533	7.15
427.739	7.15
427.944	7.05
428.15	7.09
428.355	7.04
428.561	6.92
428.766	6.99
428.971	7.09
429.177	7.31
429.382	7.28
429.587	7.44
429.793	7.59
429.998	7.51
430.203	7.41
430.408	7.33
430.614	7.22
430.819	7.19
431.024	7.15
431.229	7.04
431.434	6.93
431.64	7.2
431.845	7.26
432.05	7.22
432.255	7.26
432.46	7.33
432.665	7.24
432.87	7.36
433.076	7.41
433.281	7.28
433.486	7.22
433.691	7.28
433.896	6.98
434.101	6.99
434.306	7.01
434.511	6.89
434.716	6.91
434.921	7.09
435.126	6.98
435.331	6.84
435.535	6.82
435.74	6.77
435.945	6.51
436.15	6.82
436.355	6.89
436.56	6.79
436.765	7.02
436.97	7.16
437.174	7.14
437.379	7.13
437.584	7.32
437.789	7.36
437.993	7.59
438.198	7.72
438.403	7.66
438.608	7.43
438.812	7.38
439.017	7.35
439.222	7.25
439.426	7.06
439.631	6.94
439.836	6.87
440.04	6.66
440.245	6.62
440.45	6.57
440.654	6.53
440.859	6.55
441.063	6.53
441.268	6.48
441.472	6.45
441.677	6.63
441.881	6.94
442.086	6.94
442.29	7.17
442.495	7.16
442.699	7.18
442.904	7.09
443.108	7.18
443.312	7.29
443.517	7.23
443.721	7.22
443.925	7.01
444.13	6.79
444.334	6.7
444.538	6.69
444.743	6.57
444.947	6.44
445.151	6.56
445.356	6.47
445.56	6.45
445.764	6.58
445.968	6.62
446.173	6.57
446.377	6.46
446.581	6.58
446.785	6.59
446.989	6.59
447.193	6.7
447.398	6.52
447.602	6.44
447.806	6.4
448.01	6.21
448.214	6.08
448.418	6.05
448.622	6.03
448.826	5.89
449.03	5.84
449.234	5.9
449.438	5.82
449.642	5.88
449.846	5.89
450.05	6.04
450.254	6.14
450.458	6.33
450.662	6.49
450.866	6.43
451.069	6.6
451.273	6.62
451.477	6.59
451.681	6.65
451.885	6.53
452.089	6.49
452.292	6.39
452.496	6.43
452.7	6.45
452.904	6.46
453.107	6.7
453.311	6.44
453.515	6.43
453.719	6.44
453.922	6.36
454.126	6.56
454.33	6.64
454.533	6.7
454.737	6.74
454.94	6.54
455.144	6.41
455.348	6.43
455.551	6.67
455.755	6.58
455.958	6.55
456.162	6.61
456.365	6.65
456.569	6.71
456.772	6.67
456.976	6.41
457.179	6.48
457.383	6.47
457.586	6.35
457.79	6.18
457.993	6.08
458.196	5.98
458.4	5.93
458.603	5.76
458.807	5.81
459.01	5.81
459.213	5.9
459.417	5.96
459.62	5.99
459.823	6.03
460.026	5.97
460.23	6.01
460.433	6
460.636	5.96
460.839	6.05
461.042	5.98
461.246	5.79
461.449	5.76
461.652	5.62
461.855	5.59
462.058	5.52
462.261	5.54
462.464	5.59
462.668	5.7
462.871	5.77
463.074	5.63
463.277	5.62
463.48	5.83
463.683	6.06
463.886	5.93
464.089	6.25
464.292	6.41
464.495	6.52
464.698	6.67
464.901	6.52
465.104	6.48
465.306	6.48
465.509	6.55
465.712	6.52
465.915	6.39
466.118	6.61
466.321	6.43
466.524	6.33
466.726	6.22
466.929	6.1
467.132	6.28
467.335	6.28
467.538	6.47
467.74	6.51
467.943	6.48
468.146	6.51
468.348	6.49
468.551	6.32
468.754	6.52
468.956	6.46
469.159	6.36
469.362	6.21
469.564	6.42
469.767	6.27
469.969	6.23
470.172	6.19
470.375	6.04
470.577	6.15
470.78	6.29
470.982	6.14
471.185	6.34
471.387	6.53
471.59	6.58
471.792	6.32
471.995	6.37
472.197	6.39
472.399	6.39
472.602	6.58
472.804	6.53
473.007	6.58
473.209	6.47
473.411	6.55
473.614	6.4
473.816	6.16
474.018	6.45
474.22	6.57
474.423	6.61
474.625	6.49
474.827	6.44
475.03	6.62
475.232	6.69
475.434	6.7
475.636	6.5
475.838	6.59
476.04	6.74
476.243	6.49
476.445	6.32
476.647	6.29
476.849	6.58
477.051	6.44
477.253	6.19
477.455	6.02
477.657	5.98
477.859	6.07
478.061	6.11
478.263	6.16
478.465	6.25
478.667	6.17
478.869	6.2
479.071	6.19
479.273	6.3
479.475	6.33
479.677	6.49
479.879	6.54
480.081	6.57
480.283	6.49
480.485	6.72
480.686	6.54
480.888	6.68
481.09	6.71
481.292	6.59
481.494	6.49
481.695	6.55
481.897	6.41
482.099	6.41
482.301	6.34
482.502	6.36
482.704	6.18
482.906	6.15
483.107	6.07
483.309	5.95
483.511	5.94
483.712	5.94
483.914	5.88
484.115	5.85
484.317	5.78
484.519	5.73
484.72	5.73
484.922	5.67
485.123	5.71
485.325	5.7
485.526	5.7
485.728	5.66
485.929	5.66
486.131	5.66
486.332	5.71
486.534	5.76
486.735	5.76
486.936	5.74
487.138	5.84
487.339	5.78
487.541	5.83
487.742	5.94
487.943	5.97
488.144	5.97
488.346	5.95
488.547	5.96
488.748	5.96
488.95	5.95
489.151	5.85
489.352	5.8
489.553	5.91
489.755	5.93
489.956	5.85
490.157	5.85
490.358	5.93
490.559	5.98
490.76	5.91
490.961	5.91
491.163	6
491.364	6.14
491.565	6.2
491.766	6.19
491.967	6.19
492.168	6.23
492.369	6.24
492.57	6.12
492.771	6.12
492.972	6.14
493.173	6.18
493.374	6.14
493.575	6.08
493.776	6.04
493.976	6.04
494.177	6
494.378	6.02
494.579	5.88
494.78	6.16
494.981	6.15
495.182	6.21
495.382	6.21
495.583	6.14
495.784	6.23
495.985	6.32
496.185	6.3
496.386	6.42
496.587	6.4
496.788	6.57
496.988	6.38
497.189	6.42
497.39	6.52
497.59	6.68
497.791	6.83
497.992	6.77
498.192	6.82
498.393	6.9
498.593	6.96
498.794	6.88
498.994	6.87
499.195	6.95
499.395	7.06
499.596	6.99
499.796	6.9
499.997	7.08
500.197	7.33
500.398	7.46
500.598	7.3
500.799	7.21
500.999	7.37
501.199	7.39
501.4	7.36
501.6	7.38
501.801	7.54
502.001	7.54
502.201	7.49
502.402	7.28
502.602	7.28
502.802	7.43
503.002	7.61
503.203	7.73
503.403	7.85
503.603	8.08
503.803	8.25
504.003	8.16
504.204	8.34
504.404	8.47
504.604	8.65
504.804	8.76
505.004	9.07
505.204	9.09
505.404	9.09
505.604	9.18
505.804	9.14
506.005	9.12
506.205	9.28
506.405	9.36
506.605	9.4
506.805	9.55
507.005	9.6
507.204	9.4
507.404	9.63
507.604	9.76
507.804	9.9
508.004	10.02
508.204	9.92
508.404	10.07
508.604	10.19
508.804	10.3
509.003	10.37
509.203	10.34
509.403	10.45
509.603	10.5
509.803	10.61
510.002	10.68
510.202	10.88
510.402	11.15
510.602	11.27
510.801	11.3
511.001	11.37
511.201	11.35
511.4	11.5
511.6	11.78
511.8	11.89
511.999	11.95
512.199	11.97
512.398	12.11
512.598	12.33
512.797	12.39
512.997	12.67
513.197	12.77
513.396	13.03
513.596	13.16
513.795	13.08
513.994	13.13
514.194	13.22
514.393	13.35
514.593	13.28
514.792	13.15
514.992	13.39
515.191	13.32
515.39	13.43
515.59	13.46
515.789	13.53
515.988	13.83
516.188	13.73
516.387	13.85
516.586	14.11
516.786	14.32
516.985	14.52
517.184	14.45
517.383	14.65
517.582	14.65
517.782	14.84
517.981	14.85
518.18	14.91
518.379	15.11
518.578	15.33
518.777	15.27
518.976	15.31
519.176	15.29
519.375	15.45
519.574	15.47
519.773	15.69
519.972	15.78
520.171	15.99
520.37	16.1
520.569	16.21
520.768	16.21
520.967	16.53
521.166	16.57
521.365	16.97
521.564	17.04
521.762	17.05
521.961	17.06
522.16	16.97
522.359	17.07
522.558	17.13
522.757	17.2
522.956	17.15
523.154	17.13
523.353	17.27
523.552	17.13
523.751	17.22
523.949	17.42
524.148	17.56
524.347	17.85
524.546	18.09
524.744	17.98
524.943	18.01
525.142	18.2
525.34	18.27
525.539	18.38
525.737	18.54
525.936	18.65
526.135	18.81
526.333	18.84
526.532	18.81
526.73	18.69
526.929	18.78
527.127	18.92
527.326	18.93
527.524	19.04
527.723	19.12
527.921	19.11
528.12	19.14
528.318	19.12
528.516	19.15
528.715	19.18
528.913	19.21
529.112	19.34
529.31	19.29
529.508	19.31
529.707	19.32
529.905	19.35
530.103	19.39
530.301	19.36
530.5	19.45
530.698	19.53
530.896	19.62
531.094	19.81
531.293	19.88
531.491	20.16
531.689	20.3
531.887	20.34
532.085	20.44
532.283	20.44
532.481	20.55
532.68	20.51
532.878	20.51
533.076	20.62
533.274	20.56
533.472	20.58
533.67	20.53
533.868	20.61
534.066	20.7
534.264	20.67
534.462	20.78
534.66	20.9
534.858	20.96
535.056	21.12
535.253	21.16
535.451	21.15
535.649	21.19
535.847	21.34
536.045	21.38
536.243	21.37
536.441	21.44
536.638	21.55
536.836	21.59
537.034	21.61
537.232	21.59
537.43	21.63
537.627	21.8
537.825	21.86
538.023	21.69
538.22	21.79
538.418	21.76
538.616	21.74
538.813	21.85
539.011	21.95
539.209	22.06
539.406	22.11
539.604	22.21
539.801	22.26
539.999	22.4
540.196	22.55
540.394	22.53
540.591	22.66
540.789	22.75
540.986	22.6
541.184	22.51
541.381	22.59
541.579	22.69
541.776	22.71
541.974	22.65
542.171	22.66
542.368	22.68
542.566	22.71
542.763	22.76
542.96	22.78
543.158	22.91
543.355	22.99
543.552	22.99
543.75	22.91
543.947	22.91
544.144	23.1
544.341	23.22
544.539	23.19
544.736	23.17
544.933	23.18
545.13	23.2
545.327	23.32
545.524	23.31
545.722	23.39
545.919	23.41
546.116	23.46
546.313	23.36
546.51	23.3
546.707	23.44
546.904	23.56
547.101	23.55
547.298	23.7
547.495	23.57
547.692	23.63
547.889	23.66
548.086	23.81
548.283	23.83
548.48	23.96
548.677	24.07
548.874	24.03
549.07	24.07
549.267	24.2
549.464	24.3
549.661	24.52
549.858	24.8
550.055	24.86
550.251	24.86
550.448	24.95
550.645	25.18
550.842	24.98
551.038	25.09
551.235	25.24
551.432	25.41
551.628	25.31
551.825	25.23
552.022	25.03
552.218	25.1
552.415	25.16
552.612	25.27
552.808	25.2
553.005	25.46
553.201	25.45
553.398	25.31
553.594	25.27
553.791	25.49
553.987	25.54
554.184	25.76
554.38	25.87
554.577	26.03
554.773	26.02
554.97	26.17
555.166	26.07
555.362	26.28
555.559	26.36
555.755	26.16
555.952	26.16
556.148	26.45
556.344	26.32
556.541	26.23
556.737	26.22
556.933	26.23
557.129	26.29
557.326	26.28
557.522	26.25
557.718	26.32
557.914	26.56
558.11	26.63
558.307	26.52
558.503	26.55
558.699	26.51
558.895	26.5
559.091	26.69
559.287	26.63
559.483	26.78
559.679	26.71
559.876	26.74
560.072	26.82
560.268	26.63
560.464	26.88
560.66	26.94
560.856	27.12
561.052	27.18
561.247	27.13
561.443	27.11
561.639	27.07
561.835	27.27
562.031	27.2
562.227	27.02
562.423	27.18
562.619	26.86
562.815	26.9
563.01	26.98
563.206	27.21
563.402	27.23
563.598	27.37
563.793	27.32
563.989	27.09
564.185	27.45
564.381	27.72
564.576	27.6
564.772	27.67
564.968	27.44
565.163	27.28
565.359	27.08
565.555	27.05
565.75	26.6
565.946	26.5
566.141	26.77
566.337	26.44
566.532	26.42
566.728	26.43
566.923	26.54
567.119	26.77
567.314	26.92
567.51	26.93
567.705	26.89
567.901	27.1
568.096	27.3
568.292	27.26
568.487	27.43
568.682	27.31
568.878	27.31
569.073	27.4
569.268	27.52
569.464	27.36
569.659	27.29
569.854	27.22
570.05	27.66
570.245	27.74
570.44	27.64
570.635	27.69
570.831	27.79
571.026	27.94
571.221	27.85
571.416	27.79
571.611	27.8
571.806	27.76
572.002	27.92
572.197	27.75
572.392	27.63
572.587	27.7
572.782	27.67
572.977	27.7
573.172	27.59
573.367	27.52
573.562	27.44
573.757	27.49
573.952	27.62
574.147	27.56
574.342	27.61
574.537	27.7
574.732	27.62
574.927	27.87
575.121	27.98
575.316	28
575.511	28.14
575.706	28.31
575.901	28.41
576.096	28.3
576.29	28.32
576.485	28.34
576.68	28.33
576.875	28.44
577.069	28.22
577.264	28.15
577.459	28.38
577.654	28.51
577.848	28.35
578.043	28.4
578.238	28.57
578.432	28.5
578.627	28.49
578.821	28.72
579.016	28.86
579.21	28.96
579.405	28.91
579.6	28.91
579.794	28.5
579.989	28.57
580.183	28.59
580.378	28.73
580.572	28.77
580.766	28.83
580.961	28.91
581.155	28.81
581.35	28.81
581.544	28.8
581.738	28.74
581.933	29.07
582.127	29.22
582.321	29.2
582.516	28.79
582.71	28.92
582.904	28.98
583.099	28.55
583.293	28.93
583.487	28.97
583.681	29.04
583.875	28.94
584.07	28.95
584.264	28.83
584.458	28.91
584.652	29.26
584.846	29.12
585.04	29.26
585.234	29.62
585.428	29.32
585.623	29.49
585.817	29.71
586.011	29.74
586.205	29.61
586.399	29.76
586.593	29.92
586.787	29.91
586.981	29.84
587.174	29.43
587.368	29.56
587.562	29.74
587.756	29.84
587.95	29.71
588.144	29.94
588.338	29.93
588.532	29.96
588.725	29.97
588.919	30.17
589.113	30.61
589.307	30.81
589.501	30.67
589.694	30.57
589.888	30.47
590.082	30.5
590.275	30.35
590.469	30.25
590.663	30.2
590.856	30.17
591.05	30.08
591.244	30.1
591.437	30.16
591.631	30.12
591.824	30.12
592.018	29.94
592.212	29.99
592.405	30.24
592.599	30.57
592.792	30.71
592.986	30.54
593.179	30.81
593.372	30.82
593.566	30.71
593.759	30.76
593.953	31.01
594.146	31.16
594.339	31.14
594.533	31.09
594.726	31.05
594.92	30.69
595.113	31.01
595.306	30.81
595.499	30.57
595.693	30.56
595.886	30.44
596.079	30.07
596.272	29.96
596.466	30.04
596.659	29.84
596.852	29.91
597.045	30.16
597.238	29.99
597.431	29.94
597.624	30
597.818	30.3
598.011	30.29
598.204	30.66
598.397	30.68
598.59	30.44
598.783	30.59
598.976	30.61
599.169	30.44
599.362	30.56
599.555	30.81
599.748	31
599.941	30.84
600.134	30.94
600.326	30.5
600.519	31.04
600.712	31.42
600.905	31.52
601.098	31.34
601.291	31.6
601.483	31.43
601.676	31.44
601.869	31.28
602.062	31.23
602.255	31.4
602.447	31.45
602.64	31.19
602.833	31.07
603.025	30.91
603.218	31.14
603.411	31.35
603.603	31.34
603.796	31.35
603.989	31.32
604.181	31.28
604.374	31.14
604.566	31.24
604.759	31.24
604.951	31.25
605.144	31.24
605.336	31.03
605.529	30.88
605.721	30.94
605.914	30.77
606.106	30.8
606.299	31.19
606.491	31.25
606.683	31.29
606.876	31.24
607.068	31.24
607.26	31.58
607.453	31.67
607.645	31.47
607.837	31.52
608.03	31.56
608.222	31.44
608.414	31.07
608.606	31
608.799	31.07
608.991	30.82
609.183	30.89
609.375	30.44
609.567	30.39
609.759	30.52
609.952	30.3
610.144	30.1
610.336	30.1
610.528	29.81
610.72	30.01
610.912	29.89
611.104	29.99
611.296	29.81
611.488	29.99
611.68	30.05
611.872	29.92
612.064	30.1
612.256	30.36
612.448	30.46
612.64	30.84
612.832	30.43
613.023	30.46
613.215	30.25
613.407	30.28
613.599	30.35
613.791	30.41
613.983	30.92
614.174	30.99
614.366	31.37
614.558	31.55
614.75	31.61
614.941	32.04
615.133	31.78
615.325	31.95
615.516	32.26
615.708	32.24
615.9	32.34
616.091	31.87
616.283	31.95
616.475	31.41
616.666	31.52
616.858	31.71
617.049	31.72
617.241	31.96
617.432	32.01
617.624	32.05
617.815	32.13
618.007	32.17
618.198	32.62
618.39	32.92
618.581	33.05
618.773	33.03
618.964	32.4
619.155	32.42
619.347	32.84
619.538	33.45
619.729	33.27
619.921	33.79
620.112	34.15
620.303	33.77
620.494	33.14
620.686	33.23
620.877	33.18
621.068	33.84
621.259	33.82
621.451	33.47
621.642	33.01
621.833	33.36
622.024	33.25
622.215	32.89
622.406	33.05
622.597	33.13
622.788	33.07
622.98	33.07
623.171	32.65
623.362	32.77
623.553	33.06
623.744	33.29
623.935	33.05
624.126	32.76
624.317	32.67
624.508	32.62
624.698	32.67
624.889	33.08
625.08	32.93
625.271	33.16
625.462	32.97
625.653	32.9
625.844	32.84
626.034	32.78
626.225	32.81
626.416	32.61
626.607	32.43
626.798	32.34
626.988	32.09
627.179	32.31
627.37	32.25
627.56	32.24
627.751	32.01
627.942	31.92
628.132	31.86
628.323	32.01
628.514	32.12
628.704	32.3
628.895	32.3
629.085	32.31
629.276	32.28
629.466	32.21
629.657	32.27
629.847	32.27
630.038	32.16
630.228	32.38
630.419	32
630.609	32.15
630.8	32.1
630.99	32.31
631.181	32.17
631.371	31.91
631.561	32.17
631.752	32.44
631.942	32.67
632.132	32.76
632.323	32.49
632.513	32.75
632.703	32.67
632.893	32.55
633.084	32.51
633.274	32.64
633.464	32.56
633.654	32.55
633.844	32.27
634.034	32.14
634.225	32.28
634.415	32.45
634.605	32.55
634.795	32.8
634.985	32.77
635.175	32.74
635.365	32.84
635.555	32.92
635.745	32.9
635.935	33.03
636.125	33.22
636.315	32.85
636.505	32.86
636.695	32.91
636.885	32.62
637.075	32.89
637.265	33.24
637.455	33.47
637.644	33.78
637.834	33.39
638.024	33.34
638.214	33.3
638.404	33.58
638.593	33.8
638.783	33.25
638.973	33.37
639.163	33.45
639.352	33.47
639.542	33.34
639.732	33.07
639.921	33.54
640.111	33.64
640.301	33.55
640.49	33.92
640.68	33.97
640.87	34.38
641.059	34.57
641.249	34.63
641.438	34.15
641.628	33.82
641.817	33.96
642.007	33.91
642.196	33.98
642.386	33.99
642.575	33.68
642.764	33.08
642.954	33.46
643.143	33.38
643.333	33.5
643.522	33.8
643.711	33.88
643.901	33.96
644.09	33.7
644.279	33.98
644.469	33.87
644.658	33.6
644.847	33.89
645.036	33.78
645.226	33.93
645.415	33.35
645.604	32.81
645.793	32.81
645.982	32.93
646.171	33.36
646.361	32.91
646.55	32.98
646.739	33.24
646.928	33.21
647.117	32.75
647.306	32.58
647.495	33.44
647.684	33.74
647.873	33.93
648.062	33.75
648.251	33.53
648.44	33.59
648.629	33.88
648.818	33.68
649.007	33.7
649.196	33.9
649.384	34.38
649.573	33.78
649.762	34.08
649.951	33.95
650.14	33.75
650.328	34.05
650.517	34.32
650.706	33.77
650.895	33.98
651.083	34.05
651.272	33.99
651.461	33.26
651.65	33.36
651.838	33.17
652.027	32.95
652.216	32.81
652.404	32.39
652.593	32.13
652.781	32.48
652.97	32.54
653.158	32.09
653.347	32.23
653.535	32.65
653.724	32.77
653.912	32.71
654.101	33.07
654.289	33.38
654.478	33.68
654.666	33.84
654.855	33.93
655.043	33.56
655.231	34.1
655.42	34.1
655.608	34.02
655.796	33.97
655.985	34.08
656.173	34.27
656.361	34.34
656.55	34.31
656.738	34.42
656.926	34.53
657.114	34.54
657.302	34.46
657.491	34.36
657.679	34.25
657.867	34.44
658.055	34.48
658.243	34.23
658.431	34.04
658.619	34.12
658.807	33.88
658.996	33.87
659.184	34.17
659.372	34.07
659.56	34.31
659.748	34.42
659.936	33.92
660.124	33.88
660.311	33.46
660.499	33.26
660.687	32.73
660.875	32.81
661.063	32.74
661.251	32.85
661.439	32.93
661.627	32.29
661.814	32.15
662.002	32.6
662.19	32.27
662.378	32.63
662.565	32.81
662.753	33.36
662.941	33.02
663.129	33.02
663.316	33.01
663.504	32.94
663.692	33.54
663.879	33.62
664.067	33.41
664.254	33.93
664.442	34.64
664.63	35.09
664.817	34.98
665.005	35.24
665.192	35.18
665.38	35.13
665.567	35.35
665.755	35.25
665.942	35.24
666.13	35.13
666.317	35.35
666.504	34.67
666.692	34.62
666.879	34.64
667.067	34.73
667.254	35.09
667.441	35.04
667.629	35
667.816	34.78
668.003	34.76
668.19	35.1
668.378	35.37
668.565	35.78
668.752	35.59
668.939	35.65
669.127	35.77
669.314	35.64
669.501	35.42
669.688	35.67
669.875	35.98
670.062	36.09
670.249	35.92
670.436	35.51
670.623	35.5
670.81	35.81
670.997	36.05
671.184	35.9
671.371	35.96
671.558	35.69
671.745	35.26
671.932	35.34
672.119	35.15
672.306	34.86
672.493	34.66
672.68	34.36
672.867	34.02
673.054	33.39
673.24	32.94
673.427	32.77
673.614	32.91
673.801	33.36
673.988	33.87
674.174	33.89
674.361	34.32
674.548	34.45
674.734	34.2
674.921	34.37
675.108	34.4
675.294	34.58
675.481	34.47
675.668	34.61
675.854	33.8
676.041	32.97
676.227	33.26
676.414	32.93
676.601	32.78
676.787	32.38
676.974	32.38
677.16	32.69
677.347	32.88
677.533	33.15
677.719	34.03
677.906	34.32
678.092	34.82
678.279	34.77
678.465	35.1
678.651	35.07
678.838	35.71
679.024	35.32
679.21	35.23
679.397	35.43
679.583	34.94
679.769	34.23
679.955	34.11
680.142	33.4
680.328	33.29
680.514	33.3
680.7	33.44
680.886	33.32
681.073	33.47
681.259	33.74
681.445	33.25
681.631	33.45
681.817	33.47
682.003	33.62
682.189	34.39
682.375	34.34
682.561	33.9
682.747	33.73
682.933	33.94
683.119	34.17
683.305	34.23
683.491	34.79
683.677	35.09
683.863	34.81
684.049	35.1
684.235	35.03
684.42	35.59
684.606	36.23
684.792	36.5
684.978	36.48
685.164	36.44
685.349	36.44
685.535	35.81
685.721	35.87
685.907	35.71
686.092	35.18
686.278	34.63
686.464	33.92
686.649	33.72
686.835	33.59
687.021	33.43
687.206	33.4
687.392	32.69
687.577	33
687.763	32.6
687.948	33.26
688.134	33.61
688.319	33.8
688.505	33.96
688.69	34.59
688.876	34.28
689.061	34.42
689.247	34.49
689.432	35.12
689.618	34.96
689.803	35.17
689.988	35.15
690.174	35.48
690.359	35.24
690.544	34.65
690.73	34.18
690.915	34.52
691.1	34.28
691.285	34.28
691.471	34.25
691.656	34.16
691.841	34.17
692.026	33.35
692.211	33.23
692.396	33.29
692.582	33.89
692.767	33.69
692.952	33.44
693.137	33.55
693.322	33.46
693.507	33.11
693.692	33.62
693.877	33.72
694.062	34.25
694.247	34.22
694.432	34.45
694.617	34.83
694.802	35.15
694.987	35.25
695.172	35.17
695.357	35.68
695.541	35.99
695.726	36.66
695.911	36.43
696.096	37.39
696.281	36.66
696.466	36.86
696.65	36.74
696.835	36.04
697.02	36.74
697.204	36.63
697.389	36.52
697.574	36.26
697.759	35.61
697.943	35.08
698.128	34.22
698.312	35.01
698.497	35.01
698.682	34.57
698.866	34.95
699.051	34.58
699.235	34.93
699.42	34.24
699.604	34.61
699.789	34.75
699.973	35.32
700.158	35.6
700.342	35.37
700.527	35.46
700.711	35.94
700.895	35.47
701.08	35.54
701.264	35.3
701.448	35.79
701.633	35.27
701.817	35.12
702.001	35.16
702.186	35.69
702.37	35.78
702.554	35.25
702.738	35.22
702.923	35.69
703.107	35.99
703.291	36.19
703.475	36.01
703.659	36.45
703.843	36.68
704.027	36.99
704.212	37.18
704.396	36.98
704.58	37.24
704.764	37.05
704.948	37.01
705.132	36.74
705.316	36.24
705.5	36.02
705.684	35.75
705.868	36
706.052	35.75
706.235	35.11
706.419	35.58
706.603	35.39
706.787	34.88
706.971	35.51
707.155	35.51
707.339	36.08
707.522	36.7
707.706	36.66
707.89	36.15
708.074	36.6
708.257	36.66
708.441	35.99
708.625	36.58
708.808	37.31
708.992	36.84
709.176	37.33
709.359	37.12
709.543	37.84
709.727	37.87
709.91	38.4
710.094	38.17
710.277	38.49
710.461	39.08
710.644	38.74
710.828	39.25
711.011	39.67
711.195	39.18
711.378	38.64
711.562	37.79
711.745	38.06
711.928	38.08
712.112	37.61
712.295	37.01
712.478	36.23
712.662	36.31
712.845	35.48
713.028	34.79
713.212	34.77
713.395	34.58
713.578	34.89
713.761	33.91
713.945	33.65
714.128	33.88
714.311	33.84
714.494	34.62
714.677	34.48
714.86	35.25
715.043	35.87
715.227	36.24
715.41	36.98
715.593	36.59
715.776	37.1
715.959	36.95
716.142	37
716.325	37.31
716.508	36.97
716.691	36.65
716.874	36.56
717.057	36.63
717.239	36.7
717.422	36.55
717.605	36.8
717.788	36.49
717.971	36.25
718.154	36.76
718.337	36.81
718.519	36.65
718.702	37.48
718.885	37.5
719.068	36.69
719.25	36.39
719.433	36.62
719.616	36.52
719.798	37.22
719.981	36.68
720.164	35.7
720.346	35.59
720.529	35.98
720.712	35.43
720.894	34.65
721.077	34.9
721.259	34.48
721.442	34.07
721.624	34.28
721.807	34.39
721.989	35.79
722.172	36.43
722.354	35.34
722.537	35.67
722.719	35.62
722.901	34.64
723.084	34.24
723.266	34.06
723.448	34.7
723.631	34.34
723.813	34.31
723.995	34.18
724.178	33.64
724.36	34.7
724.542	34.4
724.724	34.8
724.907	36.93
725.089	37.07
725.271	37.32
725.453	37.15
725.635	37.9
725.817	37.62
725.999	37.36
726.181	37.55
726.364	37.6
726.546	37.53
726.728	37.48
726.91	36.67
727.092	36.71
727.274	37.23
727.456	36.26
727.638	35.37
727.819	35.41
728.001	34.46
728.183	33.74
728.365	33.63
728.547	33.61
728.729	34.02
728.911	34.1
729.093	33.82
729.274	33.75
729.456	34.66
729.638	35.13
729.82	35.2
730.001	35.97
730.183	37.53
730.365	38.02
730.546	37.7
730.728	37.92
730.91	38.11
731.091	38.42
731.273	38.85
731.455	38.43
731.636	38.03
731.818	37.78
731.999	37.35
732.181	35.85
732.362	35.75
732.544	35.77
732.725	35.19
732.907	34.98
733.088	35.13
733.27	34.67
733.451	35.35
733.633	35.75
733.814	36.15
733.995	36.08
734.177	36.77
734.358	36.51
734.539	37.22
734.721	37.44
734.902	37.29
735.083	36.93
735.264	37.32
735.446	37.64
735.627	37.83
735.808	37.48
735.989	37.96
736.17	36.94
736.351	36.91
736.533	36.61
736.714	36.01
736.895	36.41
737.076	37.93
737.257	37.93
737.438	37.66
737.619	37.69
737.8	37.1
737.981	37.13
738.162	38.79
738.343	38.2
738.524	38.12
738.705	38.7
738.886	38.26
739.067	38.21
739.247	37.68
739.428	37.61
739.609	38.15
739.79	38.94
739.971	38.55
740.151	37.88
740.332	39.11
740.513	39.47
740.694	39.15
740.874	38.44
741.055	36.58
741.236	36.71
741.417	36.2
741.597	34.82
741.778	34.86
741.958	35.43
742.139	35.1
742.32	34.57
742.5	34.75
742.681	35.15
742.861	36.55
743.042	36.97
743.222	36.37
743.403	36.82
743.583	37.68
743.764	37.47
743.944	38.12
744.124	38.89
744.305	38.78
744.485	37.7
744.666	37.16
744.846	36.99
745.026	37.44
745.207	39.13
745.387	38.94
745.567	39.18
745.747	39.37
745.928	38.83
746.108	38.54
746.288	37.8
746.468	37.69
746.648	38.34
746.829	37.06
747.009	37.85
747.189	35.82
747.369	35.89
747.549	34.69
747.729	35.52
747.909	34.8
748.089	34.2
748.269	36.27
748.449	36.91
748.629	36.7
748.809	37.04
748.989	36.94
749.169	37.66
749.349	37.77
749.529	38
749.709	37.87
749.889	38.45
750.068	40
750.248	39.7
750.428	39.18
750.608	38.81
750.788	38.6
750.967	37.27
751.147	38
751.327	38.63
751.507	38.98
751.686	39.52
751.866	39.57
752.046	38.64
752.225	38.66
752.405	39.09
752.585	39.54
752.764	41.12
752.944	43.42
753.123	43.24
753.303	43.04
753.482	42.51
753.662	41.73
753.841	42.16
754.021	41.41
754.2	40.41
754.38	40.2
754.559	39.74
754.739	38.46
754.918	36.79
755.097	35.61
755.277	33.86
755.456	35.87
755.635	35.53
755.815	34.17
755.994	35.05
756.173	34.94
756.352	34.69
756.532	33.87
756.711	34.79
756.89	35.16
757.069	35.92
757.248	36.77
757.427	35
757.607	35.13
757.786	35.73
757.965	36.04
758.144	35.48
758.323	36.47
758.502	37.87
758.681	37.54
758.86	37.16
759.039	36.62
759.218	36.41
759.397	36.69
759.576	36.7
759.755	36.9
759.934	36.66
760.113	37.9
760.291	37.7
760.47	38.36
760.649	37.89
760.828	38.24
761.007	38.84
761.186	38.94
761.364	38.85
761.543	38.84
761.722	38.04
761.901	37.13
762.079	37.16
762.258	37.03
762.437	35.41
762.615	35.24
762.794	35.45
762.972	34.95
763.151	35.09
763.33	35.67
763.508	35.95
763.687	35.7
763.865	36.45
764.044	36.04
764.222	36.02
764.401	36.68
764.579	36.92
764.758	37.08
764.936	37.46
765.114	37.39
765.293	37.12
765.471	37.92
765.65	39.32
765.828	39.27
766.006	39.08
766.184	38.85
766.363	38.95
766.541	38.04
766.719	38.29
766.898	38.92
767.076	40.09
767.254	39.72
767.432	38.16
767.61	38.08
767.788	38.08
767.967	38.16
768.145	38.68
768.323	36.89
768.501	38.62
768.679	37.14
768.857	36.79
769.035	35.2
769.213	34.15
769.391	35.02
769.569	33.82
769.747	34.51
769.925	33.94
770.103	33.08
770.281	34.74
770.459	33.26
770.636	33.25
770.814	32.93
770.992	33.29
771.17	35.11
771.348	35.66
771.525	37.21
771.703	35.71
771.881	36.84
772.059	36.95
772.236	36.67
772.414	38.69
772.592	37.87
772.769	38.86
772.947	38.73
773.125	38.97
773.302	37.18
773.48	37.05
773.657	38.48
773.835	39.13
774.013	41.13
774.19	41.13
774.368	39.54
774.545	42.39
774.723	41.42
774.9	41.89
775.077	41.78
775.255	43.04
775.432	41.55
775.61	41.64
775.787	41.27
775.964	38.63
776.142	37.98
776.319	39.86
776.496	39.17
776.674	38.4
776.851	37.35
777.028	36.54
777.205	37.88
777.382	39.77
777.56	39.56
777.737	38.96
777.914	39.09
778.091	41.54
778.268	42.54
778.445	42.04
778.622	42.82
778.8	44.59
778.977	46.02
779.154	39.61
779.331	39.92
779.508	40
779.685	41.43
779.862	42.62
780.038	41.88
780.215	39.3
780.392	39.89
780.569	40.02
780.746	39.5
780.923	36.73
781.1	41.13
781.277	38.79
781.453	37.12
781.63	35.11
781.807	35.3
781.984	34.51
782.16	37.08
782.337	35.96
782.514	36.97
782.691	36.89
782.867	39.83
783.044	38.16
783.221	39.04
783.397	40.38
783.574	41.65
783.75	42.27
783.927	42.93
784.103	38.84
784.28	39.15
784.456	37.36
784.633	37.85
784.809	36.61
784.986	38.64
785.162	37.95
785.339	36.01
785.515	34.98
785.692	33.73
785.868	33.69
786.044	36.71
786.221	36.96
786.397	38.46
786.573	39.22
786.749	39.31
786.926	39.15
787.102	41.83
787.278	43.03
787.454	44.45
787.631	44.34
787.807	44.99
787.983	43.86
788.159	43.51
788.335	43.45
788.511	41.77
788.687	41.1
788.863	40.83
789.039	39.48
789.216	38.96
789.392	37.57
789.568	37.63
789.744	38.4
789.919	38.25
790.095	38.57
790.271	39.66
790.447	38.11
790.623	38.24
790.799	38.2
790.975	37.88
791.151	39.39
791.327	40.73
791.502	41.21
791.678	40.92
791.854	41.46
792.03	43.03
792.205	40.59
792.381	41.93
792.557	44.09
792.733	44.15
792.908	44.89
793.084	46.47
793.259	45.19
793.435	44.58
793.611	44.11
793.786	43.2
793.962	39.4
794.137	41.13
794.313	39.55
794.488	37.75
794.664	38.05
794.839	40.65
795.015	38.28
795.19	39.09
795.366	39.85
795.541	38.65
795.716	40.37
795.892	41.37
796.067	40.36
796.242	40.75
796.418	40.46
796.593	42.76
796.768	40.07
796.944	40.4
797.119	41.05
797.294	40.85
797.469	39.96
797.644	38.29
797.82	39.22
797.995	37.68
798.17	39.65
798.345	40.67
798.52	38.21
798.695	41.21
798.87	38.94
799.045	38.43
799.22	41.34
799.395	42.74
799.57	42.4
799.745	42.47
799.92	43.57
800.095	42.06
800.27	40.58
800.445	41.6
800.62	37.97
800.795	38.58
800.97	38.44
801.145	33.73
801.319	32.55
801.494	33.66
801.669	34.99
801.844	36.7
802.018	39.86
802.193	41.06
802.368	40.94
802.543	41.56
802.717	42.07
802.892	39.49
803.067	40.05
803.241	43.6
803.416	42.64
803.59	40.69
803.765	40.15
803.94	36.22
804.114	33.98
804.289	34.21
804.463	33.7
804.638	35.12
804.812	36.12
804.986	38.62
805.161	35.49
805.335	39
805.51	37.84
805.684	37.97
805.858	37.66
806.033	39.53
806.207	38.48
806.381	39.21
806.556	36.2
806.73	36.57
806.904	36.11
807.078	38.44
807.253	36.16
807.427	36.09
807.601	36.2
807.775	37.74
807.949	37.35
808.123	40.37
808.298	42.2
808.472	44.16
808.646	45.66
808.82	45.09
808.994	42.4
809.168	40.94
809.342	42.85
809.516	41.71
809.69	43.19
809.864	45.01
810.038	41.61
810.212	40.19
810.385	41.4
810.559	41.92
810.733	41.96
810.907	43.85
811.081	47.33
811.255	46.15
811.428	45.56
811.602	44.54
811.776	42.72
811.95	42.94
812.123	40.37
812.297	39.18
812.471	35.7
812.644	34.73
812.818	33.01
812.992	31.52
813.165	32.11
813.339	34.07
813.512	35.35
813.686	34.92
813.86	38.1
814.033	41.17
814.207	42.04
814.38	47.02
814.554	47.47
814.727	47.11
814.9	48.69
815.074	50.64
815.247	49.99
815.421	48.03
815.594	47.55
815.767	48.04
815.941	46.81
816.114	49.46
816.287	46.39
816.46	47.2
816.634	46.01
816.807	44.4
816.98	45.45
817.153	47.97
817.327	49.25
817.5	51.89
817.673	48.82
817.846	49.36
818.019	45.72
818.192	44.33
818.365	42.51
818.538	47.09
818.711	49.87
818.884	46.13
819.057	41.45
819.23	39.96
819.403	38.69
819.576	36.96
819.749	37.03
819.922	38.28
820.095	41.06
820.268	42.64
820.441	40.23
820.614	38.97
820.786	40.19
820.959	39.92
821.132	41.35
821.305	41.35
821.477	40.78
821.65	39.54
821.823	37.54
821.996	36.72
822.168	35.94
822.341	35.75
822.514	35.44
822.686	35.27
822.859	35.4
823.031	35.22
823.204	34.98
823.376	35.32
823.549	35.43
823.722	36.56
823.894	36.48
824.067	37.09
824.239	36.66
824.411	36.24
824.584	36.52
824.756	36.88
824.929	36.82
825.101	36.77
825.273	36.44
825.446	36.65
825.618	36.31
825.79	36.09
825.963	35.86
826.135	36.48
826.307	36.63
826.479	36.39
826.652	36.53
826.824	36.67
826.996	35.82
827.168	36.98
827.34	37.09
827.512	36.71
827.684	36.31
827.856	36.73
828.029	38.46
828.201	38.55
828.373	38.69
828.545	38.64
828.717	38.4
828.889	40.53
829.061	39.94
829.232	40.44
829.404	41.24
829.576	42.38
829.748	42.45
829.92	40.91
830.092	40.75
830.264	42.26
830.436	43.14
830.607	44.73
830.779	43.05
830.951	44.31
831.123	42.86
831.294	43.13
831.466	45.32
831.638	46.05
831.809	50.58
831.981	53.16
832.153	51.72
832.324	51.38
832.496	47.72
832.667	48.61
832.839	44.38
833.011	46.21
833.182	45.99
833.354	42.87
833.525	40.45
833.697	38.89
833.868	39.5
834.039	38.35
834.211	37.08
834.382	37.64
834.554	38
834.725	39.2
834.896	38.58
835.068	38.46
835.239	40.04
835.41	41.48
835.581	38.6
835.753	37.79
835.924	37.2
836.095	38.47
836.266	38.32
836.438	38.16
836.609	38.19
836.78	38.56
836.951	40.7
837.122	39.08
837.293	39.9
837.464	41.03
837.635	41.73
837.806	42.43
837.977	43.25
838.148	44.63
838.319	48.79
838.49	50.44
838.661	50.46
838.832	46.32
839.003	47.05
839.174	47.4
839.345	49.15
839.516	46.14
839.687	47.35
839.857	45.87
840.028	49.23
840.199	42.66
840.37	42.98
840.54	47.48
840.711	49.13
840.882	49.81
841.053	43.2
841.223	48.28
841.394	53.25
841.564	52.03
841.735	50.89
841.906	47.62
842.076	48.51
842.247	47.21
842.417	43.95
842.588	45.67
842.758	45.26
842.929	47.83
843.099	39.51
843.27	39.97
843.44	44.51
843.611	47.48
843.781	45.28
843.951	46.37
844.122	46.54
844.292	49.68
844.462	47.09
844.633	49.26
844.803	53.98
844.973	52.79
845.144	54.03
845.314	53.07
845.484	46.31
845.654	55.32
845.824	54.7
845.995	56.66
846.165	49.98
846.335	52.41
846.505	52.92
846.675	51.29
846.845	61.02
847.015	62.03
847.185	61.88
847.355	70.97
847.525	59.55
847.695	54.13
847.865	52.12
848.035	57.81
848.205	49.64
848.375	54.53
848.545	64.18
848.715	53.67
848.884	51.09
849.054	50.6
849.224	51.03
849.394	61.01
849.564	66.33
849.733	66.06
849.903	67.5
850.073	83.62
850.243	73.93
850.412	67.72
850.582	70.01
850.752	61.23
850.921	59.98
851.091	59.05
851.26	48.33
851.43	49.57
851.599	48.51
851.769	42.88
851.939	30.02
852.108	28.49
852.278	30.7
852.447	33.54
852.616	41.65
852.786	40.82
852.955	34.74
853.125	41.83
853.294	44.89
853.463	45.71
853.633	44.46
853.802	58.6
853.971	67.93
854.141	61.88
854.31	61.59
854.479	55.7
854.648	54.32
854.818	57.06
854.987	56.72
855.156	57.84
855.325	63.94
855.494	62.28
855.663	57.37
855.832	53.43
856.001	52.47
856.171	50.01
856.34	54.18
856.509	55.56
856.678	57.1
856.847	61.22
857.016	56.69
857.185	50.22
857.353	54
857.522	55.24
857.691	48.15
857.86	47.55
858.029	46.03
858.198	51.01
858.367	50.43
858.535	46.93
858.704	44.49
858.873	45.86
859.042	39.7
859.21	42.03
859.379	37.83
859.548	46.61
859.717	55.67
859.885	59.67
860.054	55.28
860.222	59.66
860.391	63.51
860.56	61.39
860.728	62.8
860.897	69.52
861.065	69.76
861.234	73.51
861.402	71.82
861.571	69.16
861.739	73.24
861.908	83.71
862.076	77.07
862.244	73.17
862.413	75.37
862.581	74.38
862.749	71.31
862.918	74.95
863.086	66.55
863.254	74.23
863.423	79.98
863.591	73.87
863.759	64.24
863.927	64.1
864.096	68.49
864.264	71.63
864.432	69.7
864.6	69.6
864.768	62.21
864.936	65.18
865.104	63.26
865.272	59.65
865.44	53.36
865.608	43.82
865.776	52.59
865.944	45.32
866.112	44.29
866.28	47.98
866.448	49.61
866.616	55.31
866.784	51.22
866.952	47.03
867.12	39.54
867.288	40.41
867.455	52.01
867.623	48.56
867.791	57.47
867.959	59.71
868.127	59.57
868.294	64.54
868.462	68.67
868.63	84.4
868.797	93.18
868.965	93.62
869.133	95.32
869.3	90.67
869.468	98.17
869.636	88.5
869.803	88.05
869.971	84.19
870.138	78.58
870.306	74.34
870.473	73.22
870.641	69.69
870.808	72.37
870.975	73.82
871.143	76.95
871.31	72.36
871.478	79.08
871.645	77.12
871.812	80.43
871.98	82.94
872.147	80.82
872.314	85.97
872.482	90.22
872.649	81.92
872.816	80.69
872.983	84.8
873.15	76.81
873.318	66.57
873.485	67.69
873.652	75.65
873.819	73.3
873.986	75.67
874.153	76.09
874.32	69.56
874.487	69.61
874.654	78.29
874.821	76.83
874.988	78.79
875.155	83.72
875.322	81.09
875.489	72.67
875.656	81.04
875.823	76.32
875.99	72.26
876.157	81.66
876.324	75.13
876.49	63.6
876.657	67
876.824	69.41
876.991	66.91
877.157	63.66
877.324	54.58
877.491	43.59
877.658	49.2
877.824	40.14
877.991	41.62
878.157	54.96
878.324	55.77
878.491	46.73
878.657	50.61
878.824	52.5
878.99	55.32
879.157	59.31
879.323	60.8
879.49	54.15
879.656	58.22
879.823	56.01
879.989	46.14
880.156	48.57
880.322	56.65
880.488	48.21
880.655	48.11
880.821	50.77
880.987	52.91
881.154	56.02
881.32	59.57
881.486	62.32
881.652	59.35
881.819	58.6
881.985	50.36
882.151	45.09
882.317	48.72
882.483	48
882.649	46.4
882.816	46.31
882.982	43.74
883.148	42.66
883.314	41.52
883.48	39.57
883.646	39.94
883.812	41.51
883.978	40.52
884.144	39.28
884.31	39.79
884.476	39.49
884.642	39.38
884.807	38.56
884.973	37.76
885.139	36.39
885.305	38.9
885.471	37.96
885.637	37.25
885.802	38.21
885.968	37.3
886.134	38.39
886.3	39.65
886.465	39.45
886.631	41.04
886.797	44.9
886.962	48.23
887.128	46.6
887.293	49.69
887.459	53.35
887.625	55.45
887.79	57.57
887.956	53.18
888.121	53.22
888.287	53.8
888.452	55.24
888.618	52.07
888.783	49.1
