Data from CB_012_Reflection_3.txt Node
Date: Wed Nov 11 18:53:02 EST 2015
User: robert
Spectrometer: USB4E03001
Autoset integration time: false
Trigger mode: 4
Integration Time (sec): 1.000000E-1
Scans to average: 15
Electric dark correction enabled: true
Nonlinearity correction enabled: false
Boxcar width: 5
Stray light correction enabled: false
XAxis mode: Wavelengths
Stop averaging: false
Number of Pixels in Spectrum: 3648
>>>>>Begin Spectral Data<<<<<
177.566	-2.53
177.785	-177.3
178.005	-49.68
178.225	-979.47
178.445	203.01
178.665	476.94
178.885	192.38
179.105	349.23
179.324	241.89
179.544	-148.13
179.764	-141.47
179.984	-96.99
180.204	250.64
180.423	-140.54
180.643	-444.56
180.863	1595.95
181.083	5034.71
181.302	946.72
181.522	-2014.67
181.742	-636.39
181.961	463.38
182.181	214.05
182.401	339.24
182.621	2245.1
182.84	356.14
183.06	425.16
183.279	468.89
183.499	1359.46
183.719	1143.63
183.938	782.58
184.158	1833.76
184.377	-2553.2
184.597	-499.54
184.816	-332.76
185.036	-801.11
185.256	-301.03
185.475	798.12
185.695	-11141.38
185.914	455.55
186.134	303.62
186.353	305.83
186.572	450.59
186.792	321.23
187.011	311.04
187.231	273.1
187.45	331.98
187.67	316.3
187.889	2586.08
188.108	690.58
188.328	1008.61
188.547	-637.6
188.766	-819.87
188.986	215.7
189.205	-6004.55
189.424	202.84
189.644	1725.62
189.863	163.75
190.082	160.68
190.302	119.15
190.521	69.06
190.74	52.33
190.959	68.26
191.178	109.12
191.398	106.37
191.617	92.68
191.836	96.08
192.055	98.55
192.274	96.09
192.494	89.55
192.713	92.64
192.932	102.98
193.151	118.96
193.37	129.65
193.589	86.24
193.808	100.97
194.027	103.49
194.246	151.15
194.465	172.23
194.685	169.43
194.904	169.89
195.123	354.32
195.342	1628.25
195.561	217.77
195.78	205.16
195.999	278.43
196.218	1405.21
196.436	-547.4
196.655	-2178.96
196.874	773.29
197.093	668.14
197.312	790.91
197.531	-315.51
197.75	-369.39
197.969	-112.46
198.188	-54.46
198.407	-7.35
198.625	-84.44
198.844	-129.67
199.063	-10.98
199.282	-38.4
199.501	-2.99
199.719	-101.94
199.938	-1775.39
200.157	235.62
200.376	198.71
200.594	400.43
200.813	-23682.86
201.032	1996.36
201.251	454.36
201.469	484.24
201.688	407.98
201.907	396.34
202.125	325.17
202.344	232.78
202.563	272.74
202.781	347.49
203	292.34
203.218	228.04
203.437	211.96
203.656	197.79
203.874	183.32
204.093	163
204.311	125.03
204.53	102.6
204.748	62.77
204.967	52.91
205.185	30.72
205.404	77.2
205.622	82.25
205.841	99.89
206.059	152.86
206.278	126.91
206.496	115.2
206.715	210.73
206.933	374.61
207.151	333.21
207.37	392.18
207.588	344.44
207.806	394.03
208.025	526.81
208.243	415.41
208.461	181.94
208.68	213.72
208.898	329.6
209.116	352.63
209.335	261.3
209.553	-511.63
209.771	257.25
209.989	-2326.52
210.208	-1615.28
210.426	-717.98
210.644	-318.76
210.862	-210.33
211.081	-202.52
211.299	-234.3
211.517	-432.15
211.735	-378.61
211.953	-757.64
212.171	-279.32
212.39	-1845.3
212.608	-5172.66
212.826	576.59
213.044	355.33
213.262	265.46
213.48	249.11
213.698	340.3
213.916	-1186.07
214.134	-372.76
214.352	-772.9
214.57	786.93
214.788	231.86
215.006	198.71
215.224	195.95
215.442	138.06
215.66	171.12
215.878	192.97
216.096	217.18
216.314	166.15
216.532	190.53
216.75	181.51
216.968	168.2
217.185	271.49
217.403	302.61
217.621	381.13
217.839	509.16
218.057	7973.87
218.275	-2977.16
218.492	-257.79
218.71	-215.27
218.928	-231.93
219.146	-128.4
219.363	-100.43
219.581	-180.42
219.799	-183.24
220.017	-149.35
220.234	-117.71
220.452	-153.22
220.67	-151.93
220.887	-316
221.105	-181.79
221.323	-191.59
221.54	-86.62
221.758	-44.95
221.976	-50.13
222.193	-63.45
222.411	-110.25
222.629	-132.34
222.846	-135.54
223.064	-129.31
223.281	-129.86
223.499	-160.42
223.716	-181
223.934	-783.49
224.151	-1299.55
224.369	-527.54
224.586	247525
224.804	-930.8
225.021	-407.04
225.239	-390.07
225.456	-301.83
225.674	-169.08
225.891	-63.97
226.108	-59.89
226.326	-39.59
226.543	-46.78
226.76	-69.19
226.978	-39.57
227.195	-36.14
227.413	-26.05
227.63	-21.04
227.847	-20.79
228.064	-18.95
228.282	-16.56
228.499	-7.73
228.716	-3.26
228.934	-3.93
229.151	-1.32
229.368	-1.78
229.585	-4.99
229.802	-3.4
230.02	-0.93
230.237	-4.1
230.454	-3.18
230.671	-3.2
230.888	-10.68
231.105	-15.78
231.323	-12.07
231.54	-16.73
231.757	-21.11
231.974	-16.75
232.191	-21.38
232.408	-28.82
232.625	-25.14
232.842	-29.91
233.059	-34.26
233.276	-24.81
233.493	-23.91
233.71	-26.54
233.927	-26.28
234.144	-16.87
234.361	-15.23
234.578	-20.16
234.795	-19.48
235.012	-20.7
235.229	-23.18
235.446	-21.89
235.663	-29.16
235.879	-22.31
236.096	-28.2
236.313	-36.2
236.53	-37.84
236.747	-33
236.964	-28.23
237.181	-32.64
237.397	-25.9
237.614	-24.5
237.831	-31.69
238.048	-25.52
238.264	-37.12
238.481	-29.4
238.698	-18.98
238.915	-25.39
239.131	-32.23
239.348	-35.16
239.565	-28.96
239.781	-29.8
239.998	-25.18
240.215	-22.16
240.431	-22.17
240.648	-17.22
240.865	-15.96
241.081	-15.1
241.298	-12.52
241.514	-7.9
241.731	-6.9
241.947	-5.99
242.164	-3.5
242.38	-4.85
242.597	-2.41
242.814	-1.52
243.03	-2.34
243.246	-0.67
243.463	0.16
243.679	0.77
243.896	-0.82
244.112	-0.53
244.329	-0.71
244.545	-1.1
244.762	1.59
244.978	0.85
245.194	-0.94
245.411	-0.39
245.627	-2.59
245.843	-2.89
246.06	-0.89
246.276	1.22
246.492	2.15
246.709	2.34
246.925	0.98
247.141	0.43
247.357	-0.06
247.574	-0.07
247.79	-0.1
248.006	-0.58
248.222	-0.55
248.439	-1.09
248.655	-1.25
248.871	-3.29
249.087	-3.14
249.303	-3.39
249.519	-3.65
249.736	-4.89
249.952	-5.11
250.168	-8
250.384	-6.77
250.6	-8.87
250.816	-10.69
251.032	-13.54
251.248	-11.91
251.464	-12.6
251.68	-12.77
251.896	-10.56
252.112	-10.32
252.328	-6.8
252.544	-4.63
252.76	-6.03
252.976	-4.27
253.192	-3.1
253.408	-3.5
253.624	-1.71
253.84	-3.29
254.056	-2.02
254.272	-5.76
254.487	-4.48
254.703	-7.19
254.919	-3.21
255.135	-5.77
255.351	-6.84
255.567	-10.89
255.782	-9.85
255.998	-10.73
256.214	-10.25
256.43	-8.22
256.646	-5.82
256.861	-9.03
257.077	-13.21
257.293	-19.84
257.508	-15.35
257.724	-14.93
257.94	-12.71
258.155	-12.3
258.371	-10.22
258.587	-9.16
258.802	-9.93
259.018	-9.43
259.234	-7.66
259.449	-6
259.665	-4.32
259.88	-3.31
260.096	-3.45
260.312	-3.11
260.527	-2.56
260.743	-3.11
260.958	-4.05
261.174	-3.78
261.389	-3.96
261.605	-3.97
261.82	-3.13
262.036	-3.74
262.251	-3.92
262.466	-2.9
262.682	-4.54
262.897	-4.3
263.113	-6.07
263.328	-3.48
263.543	-1.14
263.759	-1.45
263.974	-1.79
264.189	-2.84
264.405	-4.67
264.62	-7.51
264.835	-9.54
265.051	-8.11
265.266	-10.85
265.481	-7.08
265.696	-7.85
265.912	-9.59
266.127	-7.53
266.342	-8.05
266.557	-9.94
266.773	-9.02
266.988	-8.36
267.203	-9.38
267.418	-8.68
267.633	-7.02
267.848	-7.88
268.064	-8.51
268.279	-9.59
268.494	-10.94
268.709	-8.39
268.924	-8.54
269.139	-6.85
269.354	-6.31
269.569	-3.89
269.784	-3.75
269.999	-4.92
270.214	-5.48
270.429	-5.54
270.644	-4.75
270.859	-3.87
271.074	-4.98
271.289	-3.94
271.504	-3.58
271.719	-3.33
271.934	-3.09
272.149	-2.34
272.363	-2.01
272.578	-1.99
272.793	0.12
273.008	-1.39
273.223	-1.8
273.438	-1.17
273.653	-0.44
273.867	-0.78
274.082	-2.37
274.297	-2.14
274.512	-3.3
274.726	-2.43
274.941	-0.53
275.156	-2.62
275.371	-1.2
275.585	-1.4
275.8	-2.61
276.015	-4.79
276.229	-7.11
276.444	-4.2
276.659	-6.01
276.873	-7.08
277.088	-8.43
277.302	-11.83
277.517	-13.17
277.732	-14.39
277.946	-13.34
278.161	-12.94
278.375	-12
278.59	-11.15
278.804	-13.14
279.019	-12.39
279.233	-9.68
279.448	-8.64
279.662	-7.4
279.877	-6.57
280.091	-4.04
280.306	-4.91
280.52	-4.9
280.735	-5.22
280.949	-2.33
281.163	-1.07
281.378	-0.5
281.592	-0.79
281.806	-0.05
282.021	1.01
282.235	1.53
282.449	1.63
282.664	1.78
282.878	1.27
283.092	2.77
283.307	0.35
283.521	0.57
283.735	0.35
283.949	0.04
284.164	-0.25
284.378	0.54
284.592	0.96
284.806	-0.26
285.02	0.17
285.234	0.56
285.449	-0.5
285.663	0.33
285.877	0.37
286.091	0.42
286.305	-0.35
286.519	-0.02
286.733	-0.8
286.947	-1.27
287.161	-0.93
287.375	-1.75
287.589	-2.66
287.803	-2.69
288.017	-2.72
288.231	-3.65
288.445	-3.42
288.659	-3.97
288.873	-5.36
289.087	-5.31
289.301	-4.52
289.515	-4.43
289.729	-4.1
289.943	-3.55
290.157	-3.23
290.371	-3.97
290.584	-3.31
290.798	-3.81
291.012	-3.47
291.226	-1.75
291.44	-2.2
291.654	-2.73
291.867	-1.68
292.081	-1.2
292.295	-1.08
292.509	-1.1
292.722	-0.16
292.936	-1.41
293.15	-0.79
293.364	0.88
293.577	-0.55
293.791	0.6
294.005	0.22
294.218	-0.08
294.432	0.01
294.645	2.19
294.859	2.24
295.073	1.67
295.286	2.14
295.5	2.48
295.713	2.42
295.927	2.57
296.14	1.71
296.354	1.65
296.568	1.38
296.781	0.95
296.994	-1.25
297.208	-1.34
297.421	0.27
297.635	0.76
297.848	-0.04
298.062	0.42
298.275	0.47
298.489	0.67
298.702	1.24
298.915	2.38
299.129	2.63
299.342	3.79
299.555	3.89
299.769	3.15
299.982	2.96
300.195	4.58
300.409	3.58
300.622	2.75
300.835	2.81
301.048	3.15
301.262	1.85
301.475	2.2
301.688	2.14
301.901	2.5
302.115	2.54
302.328	3.04
302.541	1.7
302.754	1.94
302.967	1.68
303.18	1.14
303.393	2.33
303.607	1.99
303.82	1.08
304.033	1.56
304.246	0.9
304.459	-1.47
304.672	-0.81
304.885	0.1
305.098	0.07
305.311	1.38
305.524	1.4
305.737	-0.66
305.95	0.52
306.163	2.43
306.376	2.42
306.589	3.16
306.802	5.22
307.015	3.88
307.228	2.69
307.44	2.76
307.653	3.65
307.866	3.8
308.079	4.26
308.292	3.32
308.505	2.75
308.718	3.45
308.93	3.4
309.143	4.27
309.356	4.9
309.569	4.75
309.781	4.92
309.994	3.64
310.207	4.73
310.42	4.86
310.632	4.78
310.845	5.09
311.058	5.18
311.27	4.35
311.483	3.72
311.696	2.75
311.908	3.4
312.121	2.92
312.333	2.55
312.546	2.98
312.759	2.52
312.971	2.7
313.184	1.43
313.396	1.49
313.609	3.32
313.821	3.72
314.034	5.11
314.246	5.44
314.459	5.13
314.671	6.63
314.884	5.38
315.096	6.45
315.309	6.68
315.521	7.64
315.733	6.33
315.946	5.14
316.158	4.64
316.371	3.88
316.583	3.72
316.795	4.31
317.008	3.55
317.22	4.16
317.432	3.89
317.644	3.18
317.857	2
318.069	2.52
318.281	2.77
318.494	3.03
318.706	3
318.918	2.5
319.13	1.81
319.342	1.04
319.555	-0.56
319.767	-1.19
319.979	0.91
320.191	1.95
320.403	1.82
320.615	2.12
320.827	1.18
321.039	2.26
321.252	3.71
321.464	4.42
321.676	4.8
321.888	4.94
322.1	5.27
322.312	4.42
322.524	6.03
322.736	6.54
322.948	7.07
323.16	9.56
323.372	8.63
323.584	7.13
323.796	6.25
324.007	6.02
324.219	6.8
324.431	7.32
324.643	7.17
324.855	6
325.067	5.76
325.279	5.18
325.491	3.54
325.702	4.56
325.914	6.26
326.126	7.48
326.338	8.12
326.55	9.45
326.761	9.53
326.973	10.45
327.185	10.59
327.396	10.72
327.608	11.34
327.82	13.25
328.032	13.23
328.243	12.92
328.455	12.82
328.666	14.25
328.878	13.16
329.09	12.99
329.301	10.58
329.513	11.61
329.725	12.05
329.936	10.88
330.148	10.4
330.359	10.03
330.571	9.64
330.782	9.87
330.994	9.49
331.205	10.92
331.417	11.87
331.628	13.73
331.84	13.86
332.051	14.65
332.262	15.63
332.474	15.3
332.685	15.68
332.897	16.04
333.108	16.23
333.319	17.16
333.531	16.87
333.742	16.72
333.953	17.87
334.165	18.15
334.376	17.89
334.587	19.19
334.799	18.59
335.01	19.02
335.221	19.9
335.432	21.22
335.644	21.05
335.855	20.99
336.066	21.17
336.277	20.58
336.488	20.16
336.7	20.33
336.911	20.14
337.122	21.39
337.333	21.63
337.544	21.78
337.755	21.61
337.966	21.17
338.177	21.2
338.388	20.83
338.599	21.49
338.811	21.71
339.022	21.65
339.233	22.18
339.444	22.6
339.655	23.15
339.866	23.52
340.076	22.7
340.287	22.82
340.498	24.18
340.709	24.98
340.92	24.22
341.131	23.99
341.342	23.88
341.553	22.62
341.764	21.67
341.975	20.49
342.185	19.98
342.396	21.17
342.607	21.25
342.818	20.08
343.029	19.62
343.239	19.73
343.45	20.42
343.661	20.54
343.872	21.6
344.082	21.47
344.293	21.72
344.504	21.84
344.714	21.28
344.925	21.94
345.136	21.52
345.346	22.63
345.557	23.22
345.768	22.63
345.978	23.15
346.189	22.53
346.399	24.33
346.61	24.91
346.821	25.33
347.031	25.25
347.242	24.93
347.452	24.73
347.663	23.47
347.873	23.78
348.084	24.16
348.294	23.71
348.504	23.92
348.715	22.23
348.925	22.03
349.136	21.11
349.346	21.07
349.557	20.87
349.767	21.16
349.977	20.8
350.188	20.76
350.398	20.62
350.608	20.47
350.819	20.55
351.029	21.22
351.239	21.07
351.449	21.05
351.66	21.76
351.87	22.18
352.08	22.88
352.29	24.27
352.501	23.64
352.711	24.13
352.921	24.56
353.131	25.29
353.341	25.33
353.552	25.57
353.762	25.98
353.972	25.33
354.182	25.25
354.392	24.15
354.602	23.5
354.812	23.43
355.022	23.22
355.232	22.94
355.442	22.16
355.652	21.78
355.862	22.06
356.072	21.89
356.282	22.19
356.492	22.5
356.702	23.77
356.912	23.91
357.122	23.73
357.332	23.62
357.542	23.49
357.752	23.66
357.962	23.54
358.171	23.49
358.381	23.31
358.591	23.98
358.801	23.8
359.011	23.7
359.221	23.47
359.43	23.35
359.64	23.49
359.85	24.74
360.06	25.12
360.269	25.1
360.479	25.18
360.689	25.78
360.899	25.37
361.108	25.1
361.318	24.68
361.528	24.68
361.737	24.97
361.947	24.93
362.156	24.04
362.366	23.6
362.576	23.52
362.785	23.07
362.995	22.7
363.204	22.27
363.414	21.57
363.623	21.42
363.833	21.62
364.042	21.56
364.252	22.08
364.461	22.41
364.671	22.68
364.88	22.6
365.09	22.71
365.299	23.02
365.509	22.89
365.718	23.55
365.927	23.65
366.137	23.3
366.346	23.53
366.555	22.12
366.765	21.54
366.974	20.87
367.183	20.93
367.393	21.06
367.602	20.5
367.811	20.98
368.021	21.04
368.23	21.45
368.439	21.3
368.648	21.11
368.857	22.14
369.067	21.5
369.276	22.21
369.485	22.37
369.694	22.14
369.903	22.38
370.112	22.05
370.321	21.2
370.531	20.52
370.74	20.47
370.949	19.92
371.158	19.27
371.367	19.85
371.576	19.34
371.785	19.33
371.994	19.64
372.203	19.43
372.412	19.84
372.621	20.72
372.83	21.11
373.039	21.15
373.248	21.82
373.457	22.38
373.666	22.61
373.874	23.04
374.083	23.14
374.292	22.6
374.501	22.34
374.71	21.56
374.919	21.96
375.128	21.84
375.336	21.76
375.545	20.94
375.754	20.08
375.963	19.5
376.171	19.55
376.38	19.41
376.589	19.77
376.798	19.82
377.006	19.62
377.215	19.17
377.424	19.45
377.632	19.55
377.841	20.4
378.05	20.4
378.258	20.66
378.467	20.92
378.675	20.77
378.884	20.28
379.093	20.16
379.301	20.65
379.51	20.78
379.718	20.07
379.927	20.66
380.135	19.93
380.344	20.38
380.552	20.33
380.761	19.56
380.969	19.73
381.177	19.73
381.386	19.77
381.594	19.4
381.803	18.7
382.011	18.97
382.219	18.37
382.428	18.3
382.636	18.42
382.845	18.41
383.053	18.7
383.261	17.79
383.469	18.46
383.678	18.31
383.886	18.67
384.094	19.17
384.302	19.14
384.511	18.89
384.719	19.02
384.927	18.86
385.135	18.88
385.343	18.68
385.552	19.4
385.76	18.8
385.968	18.8
386.176	18.68
386.384	18.25
386.592	17.81
386.8	17.95
387.008	17.59
387.216	17.53
387.424	17.55
387.633	17.65
387.841	17.63
388.049	17.7
388.257	18.11
388.465	18
388.672	17.91
388.88	18.05
389.088	18.09
389.296	18.54
389.504	18.73
389.712	18.28
389.92	18.28
390.128	18.08
390.336	17.88
390.544	17.52
390.751	17.34
390.959	17.36
391.167	17.9
391.375	17.9
391.583	18.07
391.79	17.58
391.998	18.06
392.206	18
392.414	18
392.621	18.23
392.829	18.53
393.037	18.48
393.244	18.73
393.452	18.37
393.66	18.17
393.867	17.77
394.075	17.96
394.283	17.91
394.49	17.92
394.698	18.07
394.905	18.02
395.113	17.83
395.32	18.24
395.528	18.1
395.735	18.18
395.943	18.16
396.15	18.26
396.358	18.08
396.565	18.06
396.773	18.04
396.98	17.76
397.188	17.84
397.395	17.95
397.602	17.72
397.81	17.83
398.017	17.82
398.225	17.98
398.432	18.2
398.639	18.67
398.847	18.57
399.054	18.4
399.261	18.8
399.468	18.73
399.676	19
399.883	18.97
400.09	19.33
400.297	19.14
400.505	18.93
400.712	18.97
400.919	19.23
401.126	19.09
401.333	19.28
401.54	19.02
401.748	19.15
401.955	18.67
402.162	18.84
402.369	18.32
402.576	18.27
402.783	18.75
402.99	18.48
403.197	18.25
403.404	18.25
403.611	18.02
403.818	18.05
404.025	18.03
404.232	18.43
404.439	18.18
404.646	18.3
404.853	18.45
405.06	18.66
405.267	18.66
405.474	18.4
405.681	18.8
405.887	18.82
406.094	18.94
406.301	18.95
406.508	18.8
406.715	18.88
406.922	18.93
407.128	19.31
407.335	18.68
407.542	18.79
407.749	19.08
407.955	18.86
408.162	19.36
408.369	19.28
408.575	19.12
408.782	18.97
408.989	19.03
409.195	19.35
409.402	18.93
409.609	19.26
409.815	19.34
410.022	19.12
410.228	18.9
410.435	18.6
410.642	18.5
410.848	18.61
411.055	18.61
411.261	18.54
411.468	18.31
411.674	18.46
411.881	18.17
412.087	18.2
412.294	18.38
412.5	18.49
412.706	18.58
412.913	18.56
413.119	18.45
413.326	18.44
413.532	18.47
413.738	18.32
413.945	17.97
414.151	18.04
414.357	17.81
414.564	17.67
414.77	17.79
414.976	17.64
415.182	17.75
415.389	17.98
415.595	17.96
415.801	17.83
416.007	18.15
416.214	18.3
416.42	18.11
416.626	18.33
416.832	18.36
417.038	18.16
417.244	18.16
417.45	18.28
417.657	18.02
417.863	18.06
418.069	18.24
418.275	18.06
418.481	18.22
418.687	18.19
418.893	17.95
419.099	17.88
419.305	18.14
419.511	18.23
419.717	18.18
419.923	18.21
420.129	18.35
420.335	18.32
420.541	18.28
420.746	18.26
420.952	18.43
421.158	18.54
421.364	18.52
421.57	18.4
421.776	18.21
421.982	18.03
422.187	18.06
422.393	17.86
422.599	17.91
422.805	17.94
423.01	17.81
423.216	17.65
423.422	17.55
423.628	17.55
423.833	17.54
424.039	17.78
424.245	17.94
424.45	18
424.656	17.99
424.862	17.98
425.067	17.89
425.273	17.98
425.478	18.1
425.684	18.2
425.889	18.22
426.095	18.11
426.301	18.07
426.506	18.1
426.712	18.09
426.917	18.22
427.123	18.11
427.328	18.16
427.533	18.24
427.739	18.17
427.944	18.11
428.15	17.97
428.355	18.17
428.561	18.09
428.766	17.74
428.971	17.5
429.177	17.41
429.382	17.2
429.587	17.23
429.793	16.73
429.998	16.83
430.203	16.8
430.408	16.76
430.614	16.69
430.819	16.64
431.024	16.66
431.229	16.9
431.434	16.93
431.64	17.06
431.845	17.1
432.05	17.41
432.255	17.29
432.46	17.17
432.665	17.34
432.87	17.36
433.076	17.46
433.281	17.55
433.486	17.45
433.691	17.25
433.896	17.42
434.101	17.36
434.306	17.56
434.511	17.62
434.716	17.66
434.921	17.62
435.126	17.52
435.331	17.36
435.535	17.37
435.74	17.61
435.945	17.67
436.15	17.45
436.355	17.46
436.56	17.24
436.765	17.16
436.97	17.31
437.174	17.38
437.379	17.45
437.584	17.13
437.789	17.19
437.993	16.94
438.198	17.12
438.403	17.27
438.608	17.4
438.812	17.4
439.017	17.31
439.222	17.21
439.426	17.22
439.631	17.14
439.836	17.45
440.04	17.6
440.245	17.7
440.45	17.59
440.654	17.64
440.859	17.48
441.063	17.41
441.268	17.52
441.472	17.64
441.677	17.59
441.881	17.58
442.086	17.53
442.29	17.38
442.495	17.36
442.699	17.35
442.904	17.38
443.108	17.38
443.312	17.41
443.517	17.42
443.721	17.25
443.925	17.38
444.13	17.53
444.334	17.63
444.538	17.61
444.743	17.58
444.947	17.64
445.151	17.45
445.356	17.57
445.56	17.46
445.764	17.46
445.968	17.46
446.173	17.36
446.377	17.18
446.581	17.09
446.785	17.08
446.989	17.1
447.193	17.11
447.398	17.13
447.602	17.12
447.806	17.12
448.01	17.03
448.214	17.11
448.418	17.1
448.622	17.21
448.826	17.14
449.03	17.17
449.234	17.06
449.438	16.99
449.642	16.87
449.846	16.62
450.05	16.62
450.254	16.7
450.458	16.66
450.662	16.85
450.866	16.71
451.069	16.77
451.273	16.86
451.477	16.81
451.681	16.57
451.885	16.59
452.089	16.64
452.292	16.71
452.496	16.77
452.7	16.68
452.904	16.55
453.107	16.46
453.311	16.44
453.515	16.35
453.719	16.31
453.922	16.41
454.126	16.33
454.33	16.32
454.533	16.21
454.737	16.15
454.94	16.03
455.144	15.94
455.348	16.07
455.551	16.07
455.755	16.01
455.958	16.02
456.162	15.92
456.365	16.07
456.569	16.17
456.772	16.23
456.976	15.84
457.179	15.85
457.383	15.91
457.586	15.78
457.79	15.79
457.993	15.73
458.196	15.7
458.4	15.87
458.603	16.05
458.807	16.19
459.01	16.3
459.213	16.56
459.417	16.56
459.62	16.6
459.823	16.71
460.026	16.75
460.23	16.79
460.433	16.89
460.636	16.84
460.839	16.78
461.042	16.65
461.246	16.6
461.449	16.65
461.652	16.67
461.855	16.59
462.058	16.67
462.261	16.67
462.464	16.81
462.668	16.87
462.871	16.97
463.074	16.93
463.277	17.1
463.48	17.26
463.683	17.16
463.886	17.46
464.089	17.59
464.292	17.6
464.495	17.55
464.698	17.58
464.901	17.54
465.104	17.53
465.306	17.53
465.509	17.45
465.712	17.35
465.915	17.45
466.118	17.46
466.321	17.33
466.524	17.3
466.726	17.34
466.929	17.31
467.132	17.11
467.335	17.19
467.538	17.21
467.74	17.23
467.943	17.27
468.146	17.22
468.348	17.04
468.551	17.06
468.754	17.15
468.956	17.25
469.159	17.12
469.362	17.34
469.564	17.32
469.767	17.35
469.969	17.5
470.172	17.54
470.375	17.54
470.577	17.5
470.78	17.45
470.982	17.48
471.185	17.39
471.387	17.47
471.59	17.44
471.792	17.43
471.995	17.47
472.197	17.35
472.399	17.38
472.602	17.31
472.804	17.47
473.007	17.45
473.209	17.38
473.411	17.29
473.614	17.16
473.816	17.25
474.018	17.27
474.22	17.31
474.423	17.37
474.625	17.31
474.827	17.53
475.03	17.3
475.232	17.39
475.434	17.27
475.636	17.42
475.838	17.55
476.04	17.45
476.243	17.46
476.445	17.4
476.647	17.42
476.849	17.27
477.051	17.15
477.253	17.33
477.455	17.47
477.657	17.52
477.859	17.51
478.061	17.42
478.263	17.44
478.465	17.47
478.667	17.54
478.869	17.46
479.071	17.69
479.273	17.61
479.475	17.51
479.677	17.29
479.879	17.32
480.081	17.09
480.283	17.07
480.485	17.25
480.686	17.08
480.888	16.99
481.09	16.93
481.292	16.93
481.494	16.93
481.695	16.98
481.897	17.08
482.099	17.09
482.301	17.29
482.502	17.4
482.704	17.28
482.906	17.4
483.107	17.4
483.309	17.48
483.511	17.49
483.712	17.48
483.914	17.44
484.115	17.45
484.317	17.47
484.519	17.43
484.72	17.37
484.922	17.35
485.123	17.33
485.325	17.37
485.526	17.3
485.728	17.28
485.929	17.38
486.131	17.43
486.332	17.44
486.534	17.42
486.735	17.41
486.936	17.49
487.138	17.56
487.339	17.55
487.541	17.47
487.742	17.51
487.943	17.48
488.144	17.45
488.346	17.44
488.547	17.46
488.748	17.54
488.95	17.49
489.151	17.46
489.352	17.43
489.553	17.43
489.755	17.43
489.956	17.39
490.157	17.39
490.358	17.48
490.559	17.49
490.76	17.41
490.961	17.38
491.163	17.43
491.364	17.51
491.565	17.53
491.766	17.53
491.967	17.53
492.168	17.61
492.369	17.59
492.57	17.48
492.771	17.51
492.972	17.47
493.173	17.41
493.374	17.5
493.575	17.49
493.776	17.39
493.976	17.42
494.177	17.34
494.378	17.26
494.579	17.12
494.78	17.21
494.981	17.22
495.182	17.38
495.382	17.37
495.583	17.29
495.784	17.21
495.985	17.21
496.185	17.27
496.386	17.33
496.587	17.34
496.788	17.38
496.988	17.32
497.189	17.41
497.39	17.37
497.59	17.36
497.791	17.41
497.992	17.54
498.192	17.72
498.393	17.64
498.593	17.8
498.794	17.78
498.994	17.96
499.195	18.04
499.395	18.04
499.596	18.02
499.796	18.18
499.997	18.26
500.197	18.02
500.398	18.06
500.598	18.23
500.799	18.27
500.999	18.34
501.199	18.49
501.4	18.44
501.6	18.6
501.801	18.58
502.001	18.52
502.201	18.59
502.402	18.75
502.602	18.64
502.802	18.68
503.002	18.7
503.203	18.8
503.403	18.71
503.603	18.79
503.803	18.59
504.003	18.62
504.204	18.64
504.404	18.74
504.604	18.73
504.804	18.79
505.004	18.75
505.204	18.74
505.404	18.67
505.604	18.62
505.804	18.78
506.005	18.84
506.205	18.96
506.405	19.14
506.605	19.2
506.805	19.18
507.005	19.23
507.204	19.15
507.404	19.08
507.604	19.25
507.804	19.3
508.004	19.36
508.204	19.54
508.404	19.55
508.604	19.55
508.804	19.47
509.003	19.65
509.203	19.77
509.403	19.92
509.603	20.22
509.803	20.22
510.002	20.35
510.202	20.41
510.402	20.43
510.602	20.5
510.801	20.67
511.001	20.69
511.201	20.66
511.4	20.78
511.6	21.11
511.8	21.01
511.999	20.95
512.199	21.02
512.398	20.98
512.598	21.05
512.797	21.25
512.997	21.15
513.197	21.3
513.396	21.49
513.596	21.43
513.795	21.12
513.994	21.33
514.194	21.67
514.393	21.83
514.593	21.96
514.792	21.96
514.992	22.1
515.191	22.19
515.39	22.15
515.59	22.32
515.789	22.6
515.988	22.81
516.188	22.76
516.387	22.83
516.586	22.82
516.786	22.86
516.985	23.07
517.184	23.05
517.383	23.18
517.582	23.37
517.782	23.36
517.981	23.36
518.18	23.42
518.379	23.5
518.578	23.52
518.777	23.66
518.976	23.79
519.176	23.74
519.375	23.76
519.574	23.85
519.773	23.86
519.972	23.92
520.171	23.93
520.37	23.87
520.569	23.92
520.768	23.89
520.967	23.89
521.166	23.83
521.365	23.95
521.564	23.96
521.762	23.98
521.961	24.06
522.16	24.14
522.359	24.24
522.558	24.54
522.757	24.65
522.956	24.7
523.154	24.75
523.353	24.81
523.552	24.91
523.751	25.1
523.949	25.33
524.148	25.56
524.347	25.72
524.546	25.84
524.744	25.97
524.943	26.13
525.142	26.28
525.34	26.48
525.539	26.66
525.737	26.79
525.936	26.87
526.135	26.85
526.333	26.88
526.532	26.96
526.73	26.89
526.929	26.95
527.127	26.96
527.326	27.11
527.524	27.19
527.723	27.35
527.921	27.39
528.12	27.46
528.318	27.56
528.516	27.6
528.715	27.64
528.913	27.79
529.112	27.78
529.31	27.83
529.508	27.83
529.707	27.75
529.905	27.73
530.103	27.76
530.301	27.79
530.5	27.85
530.698	27.93
530.896	27.83
531.094	27.95
531.293	28.12
531.491	28.14
531.689	28.16
531.887	28.36
532.085	28.37
532.283	28.37
532.481	28.46
532.68	28.45
532.878	28.46
533.076	28.68
533.274	28.7
533.472	28.7
533.67	28.83
533.868	28.95
534.066	28.96
534.264	29.1
534.462	29.19
534.66	29.22
534.858	29.21
535.056	29.32
535.253	29.34
535.451	29.3
535.649	29.45
535.847	29.51
536.045	29.52
536.243	29.75
536.441	29.81
536.638	29.81
536.836	29.95
537.034	30.05
537.232	30.01
537.43	30.19
537.627	30.23
537.825	30.23
538.023	30.21
538.22	30.38
538.418	30.23
538.616	30.23
538.813	30.37
539.011	30.34
539.209	30.42
539.406	30.49
539.604	30.53
539.801	30.57
539.999	30.59
540.196	30.7
540.394	30.74
540.591	30.93
540.789	30.91
540.986	31.01
541.184	31.07
541.381	31.13
541.579	31.13
541.776	31.15
541.974	31.31
542.171	31.35
542.368	31.38
542.566	31.3
542.763	31.37
542.96	31.45
543.158	31.4
543.355	31.42
543.552	31.48
543.75	31.5
543.947	31.59
544.144	31.65
544.341	31.66
544.539	31.74
544.736	31.96
544.933	31.86
545.13	32.04
545.327	32.27
545.524	32.32
545.722	32.35
545.919	32.5
546.116	32.53
546.313	32.44
546.51	32.55
546.707	32.61
546.904	32.7
547.101	32.83
547.298	32.63
547.495	32.57
547.692	32.55
547.889	32.66
548.086	32.75
548.283	32.77
548.48	32.78
548.677	32.79
548.874	32.67
549.07	32.54
549.267	32.54
549.464	32.61
549.661	32.62
549.858	32.68
550.055	32.59
550.251	32.58
550.448	32.57
550.645	32.65
550.842	32.67
551.038	32.79
551.235	32.83
551.432	32.79
551.628	32.92
551.825	32.91
552.022	33.23
552.218	33.13
552.415	33.26
552.612	33.13
552.808	32.96
553.005	33.04
553.201	33.21
553.398	33.35
553.594	33.42
553.791	33.45
553.987	33.45
554.184	33.23
554.38	33.4
554.577	33.23
554.773	33.38
554.97	33.65
555.166	33.49
555.362	33.33
555.559	33.21
555.755	33.18
555.952	33.26
556.148	33.58
556.344	33.57
556.541	33.51
556.737	33.46
556.933	33.25
557.129	33.23
557.326	33.44
557.522	33.7
557.718	33.81
557.914	33.97
558.11	33.89
558.307	33.79
558.503	33.82
558.699	34
558.895	34.43
559.091	34.64
559.287	34.56
559.483	34.58
559.679	34.5
559.876	34.41
560.072	34.41
560.268	34.49
560.464	34.51
560.66	34.54
560.856	34.42
561.052	34.33
561.247	34.61
561.443	34.64
561.639	34.76
561.835	34.68
562.031	34.93
562.227	34.93
562.423	35.14
562.619	35.24
562.815	35.34
563.01	35.52
563.206	35.56
563.402	35.66
563.598	35.68
563.793	35.66
563.989	35.62
564.185	35.66
564.381	35.63
564.576	35.67
564.772	35.58
564.968	35.48
565.163	35.64
565.359	35.63
565.555	35.41
565.75	35.53
565.946	35.66
566.141	35.81
566.337	35.9
566.532	36.14
566.728	36.02
566.923	36
567.119	36.18
567.314	35.96
567.51	36.02
567.705	36.01
567.901	35.92
568.096	35.98
568.292	36.08
568.487	35.86
568.682	35.75
568.878	35.69
569.073	35.89
569.268	35.78
569.464	35.78
569.659	35.59
569.854	35.63
570.05	35.76
570.245	35.59
570.44	35.54
570.635	35.62
570.831	35.8
571.026	36.06
571.221	35.84
571.416	35.92
571.611	36.03
571.806	36.07
572.002	36.1
572.197	36.04
572.392	36.2
572.587	36.33
572.782	36.42
572.977	36.37
573.172	36.21
573.367	36.42
573.562	36.41
573.757	36.54
573.952	36.78
574.147	36.77
574.342	36.85
574.537	36.63
574.732	36.53
574.927	36.53
575.121	36.4
575.316	36.59
575.511	36.58
575.706	36.68
575.901	36.51
576.096	36.5
576.29	36.64
576.485	36.7
576.68	36.68
576.875	36.62
577.069	36.55
577.264	36.48
577.459	36.29
577.654	36.38
577.848	36.34
578.043	36.51
578.238	36.42
578.432	36.26
578.627	36.41
578.821	36.64
579.016	36.71
579.21	36.69
579.405	36.77
579.6	37
579.794	36.89
579.989	36.89
580.183	36.85
580.378	36.87
580.572	36.94
580.766	36.83
580.961	36.75
581.155	36.66
581.35	36.58
581.544	36.41
581.738	36.36
581.933	36.19
582.127	36.31
582.321	36.2
582.516	36.42
582.71	36.31
582.904	36.37
583.099	36.57
583.293	36.47
583.487	36.69
583.681	36.82
583.875	36.69
584.07	36.71
584.264	36.59
584.458	36.71
584.652	36.79
584.846	37.08
585.04	37.04
585.234	36.76
585.428	37.13
585.623	37.11
585.817	37.16
586.011	37.29
586.205	37.4
586.399	37.5
586.593	37.46
586.787	37.14
586.981	37.26
587.174	37.21
587.368	37.34
587.562	37.13
587.756	37.03
587.95	37.24
588.144	37.08
588.338	37.04
588.532	37.31
588.725	37.44
588.919	37.55
589.113	37.36
589.307	37.22
589.501	37.31
589.694	37.41
589.888	37.67
590.082	37.52
590.275	37.64
590.469	37.81
590.663	37.49
590.856	37.22
591.05	37.53
591.244	37.55
591.437	37.82
591.631	37.68
591.824	37.86
592.018	37.77
592.212	38.02
592.405	37.94
592.599	38.11
592.792	38.32
592.986	38.65
593.179	38.21
593.372	38.29
593.566	37.99
593.759	38.24
593.953	38.05
594.146	37.96
594.339	37.8
594.533	37.71
594.726	37.57
594.92	37.58
595.113	37.25
595.306	37.24
595.499	37.16
595.693	37.35
595.886	37.19
596.079	37.38
596.272	37.41
596.466	37.74
596.659	37.91
596.852	37.77
597.045	37.71
597.238	37.89
597.431	37.9
597.624	38.09
597.818	38.16
598.011	38.38
598.204	38.31
598.397	38.29
598.59	38.05
598.783	38.1
598.976	38.23
599.169	38.06
599.362	38.14
599.555	38.2
599.748	38.09
599.941	38.17
600.134	38.01
600.326	38.12
600.519	38.26
600.712	37.94
600.905	37.94
601.098	38.04
601.291	37.93
601.483	37.92
601.676	38.09
601.869	37.95
602.062	37.94
602.255	37.78
602.447	37.62
602.64	37.7
602.833	37.91
603.025	37.94
603.218	37.99
603.411	38.23
603.603	38.22
603.796	38.26
603.989	38.26
604.181	38.35
604.374	38.41
604.566	38.59
604.759	38.56
604.951	38.79
605.144	38.64
605.336	38.35
605.529	38.46
605.721	38.45
605.914	38.45
606.106	38.52
606.299	38.7
606.491	38.72
606.683	38.61
606.876	38.6
607.068	38.17
607.26	38.28
607.453	38.6
607.645	38.32
607.837	38.26
608.03	38.19
608.222	38.48
608.414	38.22
608.606	38.42
608.799	38.58
608.991	38.45
609.183	38.62
609.375	38.83
609.567	38.93
609.759	39.17
609.952	39.22
610.144	39.29
610.336	38.99
610.528	39.06
610.72	39.09
610.912	39.16
611.104	39.2
611.296	39.42
611.488	39.15
611.68	39.25
611.872	39.26
612.064	39.37
612.256	39.52
612.448	39.72
612.64	39.79
612.832	39.55
613.023	39.16
613.215	39.11
613.407	38.65
613.599	38.65
613.791	38.5
613.983	38.47
614.174	38.62
614.366	38.39
614.558	38.41
614.75	38.07
614.941	38.26
615.133	38.65
615.325	38.82
615.516	39.19
615.708	39.45
615.9	39.37
616.091	39.09
616.283	38.9
616.475	38.85
616.666	38.84
616.858	38.71
617.049	38.82
617.241	38.49
617.432	38.52
617.624	38.48
617.815	38.17
618.007	38.12
618.198	38.11
618.39	37.95
618.581	37.66
618.773	37.71
618.964	38.04
619.155	37.75
619.347	37.82
619.538	37.86
619.729	38.03
619.921	38.47
620.112	38.32
620.303	38.43
620.494	38.83
620.686	39.02
620.877	38.78
621.068	38.78
621.259	38.95
621.451	39.05
621.642	38.73
621.833	38.51
622.024	38.42
622.215	38.68
622.406	38.86
622.597	38.45
622.788	38.59
622.98	38.74
623.171	38.59
623.362	38.74
623.553	38.73
623.744	38.92
623.935	38.98
624.126	38.78
624.317	38.63
624.508	38.59
624.698	38.76
624.889	38.69
625.08	38.71
625.271	38.79
625.462	38.73
625.653	38.72
625.844	38.83
626.034	38.7
626.225	38.77
626.416	38.7
626.607	38.63
626.798	38.47
626.988	38.53
627.179	38.42
627.37	38.49
627.56	38.32
627.751	38.33
627.942	38.13
628.132	38.14
628.323	38.41
628.514	38.64
628.704	38.81
628.895	38.85
629.085	38.71
629.276	38.78
629.466	38.87
629.657	38.96
629.847	39.25
630.038	39.6
630.228	39.54
630.419	39.13
630.609	38.97
630.8	38.61
630.99	38.91
631.181	39.25
631.371	39.68
631.561	39.49
631.752	39.43
631.942	39.13
632.132	39.27
632.323	39.66
632.513	39.73
632.703	39.73
632.893	39.89
633.084	39.68
633.274	39.52
633.464	39.27
633.654	39.11
633.844	39.36
634.034	39.2
634.225	38.94
634.415	38.71
634.605	38.92
634.795	39.17
634.985	39.32
635.175	39.49
635.365	39.33
635.555	38.97
635.745	39.13
635.935	38.77
636.125	39.01
636.315	38.93
636.505	39.21
636.695	38.88
636.885	38.49
637.075	38.34
637.265	38.24
637.455	38.62
637.644	38.63
637.834	38.71
638.024	38.9
638.214	38.68
638.404	38.88
638.593	38.43
638.783	38.8
638.973	38.75
639.163	38.58
639.352	38.83
639.542	38.91
639.732	38.96
639.921	39.1
640.111	39.29
640.301	39.63
640.49	39.55
640.68	39.65
640.87	39.5
641.059	39.98
641.249	40.22
641.438	40.13
641.628	39.87
641.817	40.34
642.007	40.07
642.196	39.92
642.386	39.61
642.575	39.66
642.764	39.73
642.954	39.67
643.143	39.19
643.333	39.2
643.522	38.66
643.711	38.78
643.901	38.32
644.09	38.42
644.279	38.52
644.469	38.79
644.658	38.64
644.847	38.24
645.036	38.32
645.226	38.84
645.415	39.02
645.604	39.12
645.793	39.15
645.982	39.53
646.171	39.18
646.361	39.09
646.55	38.78
646.739	38.65
646.928	39.4
647.117	39.49
647.306	39.1
647.495	38.9
647.684	39.13
647.873	39.09
648.062	38.63
648.251	39.2
648.44	38.91
648.629	39.13
648.818	39.29
649.007	38.65
649.196	38.26
649.384	38.53
649.573	38.66
649.762	38.67
649.951	38.25
650.14	38.18
650.328	37.98
650.517	38.18
650.706	38.43
650.895	38.52
651.083	38.2
651.272	38.62
651.461	38.5
651.65	38.26
651.838	38.07
652.027	38.62
652.216	39.02
652.404	38.97
652.593	38.81
652.781	38.64
652.97	38.51
653.158	38.98
653.347	38.66
653.535	38.46
653.724	38.56
653.912	38.47
654.101	38.22
654.289	38.29
654.478	38.13
654.666	38.06
654.855	37.68
655.043	37.42
655.231	37.99
655.42	38.38
655.608	38.42
655.796	38.47
655.985	38.88
656.173	39.29
656.361	38.75
656.55	39.15
656.738	39.36
656.926	40.13
657.114	40.32
657.302	39.95
657.491	39.72
657.679	39.71
657.867	40.01
658.055	40.25
658.243	40.03
658.431	40.04
658.619	39.81
658.807	39.81
658.996	39.39
659.184	39.78
659.372	39.74
659.56	39.86
659.748	40.07
659.936	40.13
660.124	39.65
660.311	39.3
660.499	39.67
660.687	39.77
660.875	39.78
661.063	40.02
661.251	39.49
661.439	39.46
661.627	39.43
661.814	39.67
662.002	39.25
662.19	39.58
662.378	39.95
662.565	39.86
662.753	39.9
662.941	39.89
663.129	39.55
663.316	39.76
663.504	39.93
663.692	39.64
663.879	39.17
664.067	39.12
664.254	39.4
664.442	39.31
664.63	39.07
664.817	38.81
665.005	38.87
665.192	39.17
665.38	39.39
665.567	39.1
665.755	39.13
665.942	39.37
666.13	39.16
666.317	38.63
666.504	38.85
666.692	39.04
666.879	39.23
667.067	38.98
667.254	38.8
667.441	38.59
667.629	38.96
667.816	38.77
668.003	38.34
668.19	38.53
668.378	38.82
668.565	38.66
668.752	38.51
668.939	38.92
669.127	38.9
669.314	39.24
669.501	38.88
669.688	38.55
669.875	39.2
670.062	39.27
670.249	39.77
670.436	40.09
670.623	39.9
670.81	40.15
670.997	39.61
671.184	39.93
671.371	39.67
671.558	40.24
671.745	40.38
671.932	39.96
672.119	40.07
672.306	39.79
672.493	38.96
672.68	38.84
672.867	39.24
673.054	39.29
673.24	38.72
673.427	38.1
673.614	37.61
673.801	37.44
673.988	37.38
674.174	37.17
674.361	36.96
674.548	37.21
674.734	37.69
674.921	37.42
675.108	37.41
675.294	37.92
675.481	38.25
675.668	38.4
675.854	38.35
676.041	38.4
676.227	38.75
676.414	38.52
676.601	38.3
676.787	38.04
676.974	37.63
677.16	37.93
677.347	37.98
677.533	38.31
677.719	38.83
677.906	38.97
678.092	38.8
678.279	38.64
678.465	39.09
678.651	39.51
678.838	39.43
679.024	39.92
679.21	39.57
679.397	39.72
679.583	39.94
679.769	39.78
679.955	39.85
680.142	39.74
680.328	39.74
680.514	39.32
680.7	39.1
680.886	39.12
681.073	39.31
681.259	39.64
681.445	39.34
681.631	38.82
681.817	38.84
682.003	38.84
682.189	39.65
682.375	40.06
682.561	40.26
682.747	40.49
682.933	40.54
683.119	39.93
683.305	39.8
683.491	40.54
683.677	40.95
683.863	40.94
684.049	41
684.235	40.41
684.42	40.31
684.606	40.25
684.792	40.21
684.978	40.16
685.164	40.41
685.349	40.88
685.535	40.39
685.721	40.36
685.907	39.98
686.092	40.39
686.278	40.78
686.464	40.78
686.649	40.74
686.835	40.28
687.021	40.38
687.206	40.12
687.392	39.67
687.577	39.8
687.763	39.74
687.948	39.77
688.134	39.32
688.319	38.82
688.505	38.37
688.69	38.49
688.876	38.89
689.061	39.19
689.247	39.55
689.432	39.48
689.618	39.46
689.803	39.05
689.988	39.38
690.174	39.18
690.359	39.51
690.544	39.32
690.73	39.6
690.915	39.38
691.1	39.2
691.285	38.79
691.471	38.46
691.656	38.54
691.841	38.66
692.026	38.45
692.211	38.68
692.396	38.67
692.582	39.24
692.767	38.95
692.952	39.15
693.137	39.05
693.322	39.31
693.507	39.66
693.692	39.17
693.877	39.19
694.062	39.13
694.247	39.18
694.432	38.61
694.617	39.01
694.802	39.13
694.987	38.87
695.172	39.38
695.357	39.2
695.541	39.53
695.726	39.83
695.911	39.3
696.096	39.76
696.281	39.97
696.466	40.71
696.65	40.69
696.835	40.6
697.02	41
697.204	40.84
697.389	40.79
697.574	40.18
697.759	39.85
697.943	40.31
698.128	39.82
698.312	40.02
698.497	39.65
698.682	39.14
698.866	39.49
699.051	39.28
699.235	39.25
699.42	39.59
699.604	39.79
699.789	39.87
699.973	39.86
700.158	40.11
700.342	39.98
700.527	39.86
700.711	40.11
700.895	39.81
701.08	39.89
701.264	39.68
701.448	39.61
701.633	39.58
701.817	39.73
702.001	40.06
702.186	39.69
702.37	39.21
702.554	39.75
702.738	39.78
702.923	40.26
703.107	40.03
703.291	39.99
703.475	40.11
703.659	40.13
703.843	40.05
704.027	40.06
704.212	40.76
704.396	40.58
704.58	39.63
704.764	39.37
704.948	39.53
705.132	39.45
705.316	38.84
705.5	38.32
705.684	38.28
705.868	37.92
706.052	37.52
706.235	36.9
706.419	37.69
706.603	38.68
706.787	38.66
706.971	37.78
707.155	38.44
707.339	39.04
707.522	38.96
707.706	38.88
707.89	38.71
708.074	38.58
708.257	38.4
708.441	37.54
708.625	37.26
708.808	37.48
708.992	37.69
709.176	37.4
709.359	37.27
709.543	37.34
709.727	37.9
709.91	38.27
710.094	38.63
710.277	39.35
710.461	39.86
710.644	39.73
710.828	39.14
711.011	39.75
711.195	40.14
711.378	39.87
711.562	39.74
711.745	39.5
711.928	39.51
712.112	39.69
712.295	39.97
712.478	39.8
712.662	39.85
712.845	40.73
713.028	40.57
713.212	40.09
713.395	40.74
713.578	41.01
713.761	41.19
713.945	41.39
714.128	41.02
714.311	40.48
714.494	40.99
714.677	41.42
714.86	41.34
715.043	40.86
715.227	40.56
715.41	40.53
715.593	40.27
715.776	39.51
715.959	39.25
716.142	39.17
716.325	39.35
716.508	38.9
716.691	38.96
716.874	37.96
717.057	37.6
717.239	38.64
717.422	38.72
717.605	37.93
717.788	38.8
717.971	38.98
718.154	38.94
718.337	38.89
718.519	38.79
718.702	37.68
718.885	38.48
719.068	38.03
719.25	36.5
719.433	35.77
719.616	36.28
719.798	35.94
719.981	36.54
720.164	36.28
720.346	36.11
720.529	35.75
720.712	36.71
720.894	37.29
721.077	38.59
721.259	39.54
721.442	40.63
721.624	41.44
721.807	41.49
721.989	40.11
722.172	40.13
722.354	39.76
722.537	40.08
722.719	39.35
722.901	39.13
723.084	38.19
723.266	38.11
723.448	37.92
723.631	36.87
723.813	36.17
723.995	37.58
724.178	37.89
724.36	38.39
724.542	38.61
724.724	38.61
724.907	37.88
725.089	37.77
725.271	36.72
725.453	36.18
725.635	37.22
725.817	36.59
725.999	36.03
726.181	35.76
726.364	35.71
726.546	35.62
726.728	35.39
726.91	35.88
727.092	36.68
727.274	37.24
727.456	37.69
727.638	37.05
727.819	38.08
728.001	38.43
728.183	39.26
728.365	39.27
728.547	39.27
728.729	39.76
728.911	40.16
729.093	39.3
729.274	39.11
729.456	39.2
729.638	39.22
729.82	39.45
730.001	38.7
730.183	38.24
730.365	38.37
730.546	38.71
730.728	38.57
730.91	38.4
731.091	39.44
731.273	39.47
731.455	39.07
731.636	38.59
731.818	38.25
731.999	37.96
732.181	39.21
732.362	39.3
732.544	39.29
732.725	39.68
732.907	39.59
733.088	39.25
733.27	38.94
733.451	38.65
733.633	39.04
733.814	39.83
733.995	40.71
734.177	39.58
734.358	38.84
734.539	38.38
734.721	38.21
734.902	37.82
735.083	38.38
735.264	39.18
735.446	39.72
735.627	39.67
735.808	38.69
735.989	38.14
736.17	37.51
736.351	37.91
736.533	37.84
736.714	37.76
736.895	37.54
737.076	37.7
737.257	37.37
737.438	36.4
737.619	36.62
737.8	36.72
737.981	37.96
738.162	38.49
738.343	38.77
738.524	38.76
738.705	38.42
738.886	38.71
739.067	36.94
739.247	37.26
739.428	38.11
739.609	38.59
739.79	39.2
739.971	38.22
740.151	38.33
740.332	37.47
740.513	36.97
740.694	36.74
740.874	36.22
741.055	36.77
741.236	37.25
741.417	37.46
741.597	37.46
741.778	36.95
741.958	37.58
742.139	36.75
742.32	37.35
742.5	39.52
742.681	39.73
742.861	40.39
743.042	41.02
743.222	40.16
743.403	39.8
743.583	40.2
743.764	40.3
743.944	39.62
744.124	40.32
744.305	39.87
744.485	38.45
744.666	38.01
744.846	37.88
745.026	38.41
745.207	38.18
745.387	38.58
745.567	37.81
745.747	36.76
745.928	36.35
746.108	36.63
746.288	36.24
746.468	36.26
746.648	36.79
746.829	36.63
747.009	36.23
747.189	37.6
747.369	36.57
747.549	36.27
747.729	36.9
747.909	37.08
748.089	36.89
748.269	38
748.449	37.71
748.629	38.66
748.809	39.7
748.989	39.19
749.169	39.32
749.349	38.06
749.529	39.18
749.709	39.49
749.889	39.9
750.068	39.59
750.248	39.53
750.428	40.05
750.608	38.44
750.788	39.34
750.967	39.46
751.147	38.25
751.327	39.48
751.507	38.8
751.686	38.07
751.866	38.1
752.046	38.38
752.225	38.64
752.405	38.39
752.585	39.21
752.764	36.07
752.944	35.31
753.123	35.68
753.303	36.09
753.482	34.52
753.662	34.93
753.841	36.39
754.021	36.02
754.2	35.92
754.38	35.53
754.559	36.3
754.739	36.9
754.918	37.85
755.097	38.5
755.277	37.41
755.456	39.05
755.635	39.4
755.815	37.05
755.994	36.42
756.173	36
756.352	37.12
756.532	37.49
756.711	38.19
756.89	38.11
757.069	37.48
757.248	38.01
757.427	37.65
757.607	36.26
757.786	36.09
757.965	36.54
758.144	36.72
758.323	36.49
758.502	35.54
758.681	35.77
758.86	36.78
759.039	37.51
759.218	38.83
759.397	39.81
759.576	40.05
759.755	40.71
759.934	41.88
760.113	42.15
760.291	42.2
760.47	42.48
760.649	42.1
760.828	41.5
761.007	41.07
761.186	39.78
761.364	38.53
761.543	40.1
761.722	39.61
761.901	39.11
762.079	39.17
762.258	39.75
762.437	40.24
762.615	39.73
762.794	40.9
762.972	41.09
763.151	41.6
763.33	41.85
763.508	41.63
763.687	42.63
763.865	42.8
764.044	42.3
764.222	41.96
764.401	41.85
764.579	42.04
764.758	41.18
764.936	40.34
765.114	39.74
765.293	40.43
765.471	40.42
765.65	39.57
765.828	39.23
766.006	39.37
766.184	38.56
766.363	37.8
766.541	37.85
766.719	37.98
766.898	38.04
767.076	38.89
767.254	38.05
767.432	37.47
767.61	38.67
767.788	38.09
767.967	37.33
768.145	36.88
768.323	36.72
768.501	37.24
768.679	36.72
768.857	36.44
769.035	35.86
769.213	36.14
769.391	35.58
769.569	33.99
769.747	34.85
769.925	35.96
770.103	36.3
770.281	36.64
770.459	36.4
770.636	35.53
770.814	36.45
770.992	34.64
771.17	34.58
771.348	35.27
771.525	35.15
771.703	34.21
771.881	33.85
772.059	34.16
772.236	33.54
772.414	33.44
772.592	32.89
772.769	32.13
772.947	35.3
773.125	35.92
773.302	35.48
773.48	35.62
773.657	35.76
773.835	36.13
774.013	36.53
774.19	36.08
774.368	36.49
774.545	37.29
774.723	39.41
774.9	37.61
775.077	37.27
775.255	36.93
775.432	35.7
775.61	37.7
775.787	36.81
775.964	35.15
776.142	35.67
776.319	34.27
776.496	34.51
776.674	33.9
776.851	35.5
777.028	35.28
777.205	36.73
777.382	38.69
777.56	36.59
777.737	37.16
777.914	36.68
778.091	37.88
778.268	37.9
778.445	37.78
778.622	36.63
778.8	35.1
778.977	35.33
779.154	53.84
779.331	53.53
779.508	55.44
779.685	54.75
779.862	57.3
780.038	57.25
780.215	57.94
780.392	57.81
780.569	57.03
780.746	57.34
780.923	57.06
781.1	34.67
781.277	35.86
781.453	35.01
781.63	35.16
781.807	33.69
781.984	33.05
782.16	32.76
782.337	34.59
782.514	36.08
782.691	37.97
782.867	36.27
783.044	37.38
783.221	36.45
783.397	35.04
783.574	36.19
783.75	36.65
783.927	34.69
784.103	35.12
784.28	33.16
784.456	34.05
784.633	32.2
784.809	33.75
784.986	31.84
785.162	31.08
785.339	30.99
785.515	28.14
785.692	28.13
785.868	30.07
786.044	29.9
786.221	27.21
786.397	25.55
786.573	25.92
786.749	26.51
786.926	29.67
787.102	27.97
787.278	27.7
787.454	31.24
787.631	31.23
787.807	31.98
787.983	33.42
788.159	36.48
788.335	36.01
788.511	38.36
788.687	38.75
788.863	38.21
789.039	40.42
789.216	40.46
789.392	37.6
789.568	36.51
789.744	36.61
789.919	35.97
790.095	35.7
790.271	36.55
790.447	35.19
790.623	34.53
790.799	34.67
790.975	35.08
791.151	33.78
791.327	35.77
791.502	37.76
791.678	37.62
791.854	35.3
792.03	36.24
792.205	36.94
792.381	34.8
792.557	35.93
792.733	36.48
792.908	35.89
793.084	38.37
793.259	38.06
793.435	35.02
793.611	34.04
793.786	35.94
793.962	35.12
794.137	35.76
794.313	35.52
794.488	32.97
794.664	31.07
794.839	31.67
795.015	30.53
795.19	31.4
795.366	34.29
795.541	33.99
795.716	33.58
795.892	33.38
796.067	33.78
796.242	35.65
796.418	36.98
796.593	37.52
796.768	37.39
796.944	36.51
797.119	36.53
797.294	37.29
797.469	37.87
797.644	38.76
797.82	37.43
797.995	35.05
798.17	33.55
798.345	33.35
798.52	34.5
798.695	33.6
798.87	34.5
799.045	31.89
799.22	30.31
799.395	27.67
799.57	26.01
799.745	26.52
799.92	26.27
800.095	26.36
800.27	26.76
800.445	25.76
800.62	26.19
800.795	24.75
800.97	26.8
801.145	26.22
801.319	28.6
801.494	31
801.669	30.95
801.844	30.49
802.018	31.95
802.193	33.07
802.368	34.12
802.543	34.75
802.717	33.82
802.892	33.97
803.067	35.49
803.241	36.14
803.416	35.17
803.59	34.63
803.765	35.39
803.94	35.68
804.114	33.07
804.289	29.03
804.463	29.75
804.638	30.75
804.812	32.48
804.986	30.83
805.161	30.97
805.335	29.57
805.51	31.65
805.684	30.49
805.858	31.31
806.033	32.07
806.207	35.55
806.381	31.39
806.556	34.67
806.73	33.22
806.904	32.92
807.078	34.64
807.253	34.32
807.427	33.25
807.601	36.34
807.775	33.45
807.949	34.9
808.123	33.49
808.298	35.51
808.472	34.8
808.646	34.71
808.82	35.38
808.994	33.82
809.168	34.52
809.342	35.36
809.516	32.17
809.69	31.22
809.864	31.26
810.038	30.96
810.212	30.59
810.385	29.37
810.559	28.31
810.733	26.81
810.907	21.92
811.081	21.68
811.255	21.65
811.428	21.47
811.602	22.15
811.776	21.19
811.95	22.83
812.123	25.3
812.297	24.67
812.471	25.78
812.644	24.14
812.818	26.82
812.992	26.11
813.165	26.6
813.339	30.22
813.512	35.8
813.686	40.22
813.86	42.06
814.033	41.94
814.207	43.33
814.38	44.05
814.554	46.53
814.727	45.12
814.9	47.14
815.074	46.72
815.247	43.75
815.421	41.87
815.594	36.52
815.767	32.84
815.941	27.8
816.114	27.05
816.287	24.82
816.46	23.55
816.634	26.25
816.807	24.6
816.98	26.37
817.153	28.15
817.327	26.79
817.5	26.94
817.673	29.62
817.846	30.52
818.019	30.03
818.192	31.03
818.365	30.55
818.538	32.33
818.711	32.58
818.884	32.21
819.057	30.23
819.23	29.16
819.403	29.67
819.576	27.95
819.749	29.96
819.922	29.22
820.095	29.35
820.268	30.08
820.441	28.92
820.614	29.81
820.786	31.05
820.959	34.54
821.132	36.71
821.305	35.76
821.477	36.38
821.65	36.93
821.823	37.8
821.996	38.56
822.168	39.1
822.341	40.82
822.514	41.89
822.686	41.48
822.859	40.75
823.031	40.18
823.204	40.62
823.376	40.77
823.549	40.78
823.722	40.9
823.894	40.44
824.067	39.74
824.239	38.62
824.411	38.21
824.584	38.11
824.756	38.08
824.929	38.43
825.101	38.58
825.273	38.95
825.446	38.63
825.618	38.34
825.79	38.91
825.963	39.6
826.135	40.06
826.307	39.64
826.479	39.94
826.652	39.96
826.824	40.14
826.996	40.37
827.168	39.9
827.34	39.79
827.512	41.12
827.684	41.75
827.856	42.31
828.029	41.58
828.201	41.66
828.373	40.59
828.545	41.21
828.717	41.19
828.889	41.01
829.061	40.46
829.232	40.86
829.404	39.23
829.576	36.72
829.748	37.07
829.92	36.31
830.092	35.41
830.264	34.99
830.436	34.19
830.607	32.35
830.779	31.99
830.951	31.85
831.123	31.75
831.294	32.13
831.466	33.54
831.638	31.82
831.809	35.09
831.981	33.66
832.153	36.5
832.324	36.56
832.496	39.74
832.667	39.89
832.839	42.05
833.011	43.97
833.182	43.67
833.354	44.66
833.525	45.13
833.697	43.82
833.868	44.34
834.039	42.26
834.211	43.61
834.382	40.57
834.554	39.81
834.725	38.69
834.896	35.49
835.068	35.26
835.239	34.63
835.41	34.48
835.581	34.01
835.753	33.26
835.924	31.89
836.095	29.49
836.266	32.47
836.438	33.3
836.609	33.19
836.78	33.61
836.951	31.54
837.122	31.28
837.293	30.04
837.464	29.56
837.635	31.68
837.806	34.66
837.977	34.16
838.148	33.76
838.319	33.67
838.49	33.15
838.661	35.28
838.832	37.6
839.003	37.01
839.174	33.37
839.345	36.52
839.516	34.5
839.687	30.72
839.857	32.91
840.028	24.61
840.199	21.14
840.37	21.46
840.54	22.02
840.711	24.82
840.882	29.05
841.053	31.95
841.223	25.01
841.394	22.93
841.564	24.66
841.735	25.31
841.906	23.16
842.076	27.58
842.247	26.24
842.417	18.81
842.588	14.48
842.758	9.38
842.929	12.51
843.099	17.13
843.27	18.27
843.44	15.29
843.611	10.88
843.781	14.73
843.951	13.15
844.122	17.09
844.292	20.81
844.462	23.31
844.633	19.49
844.803	13.46
844.973	14.34
845.144	19.41
845.314	19.56
845.484	18.37
845.654	22.14
845.824	13.08
845.995	10.43
846.165	12.05
846.335	8.92
846.505	7.09
846.675	12.86
846.845	5.54
847.015	0.31
847.185	15.69
847.355	17.95
847.525	20.16
847.695	21.44
847.865	21.51
848.035	23.12
848.205	15.81
848.375	16.59
848.545	12.28
848.715	23.29
848.884	17.04
849.054	4.84
849.224	7.64
849.394	3.9
849.564	11.45
849.733	-0.43
849.903	1.74
850.073	0.39
850.243	1.71
850.412	-0.53
850.582	-11.04
850.752	-22.26
850.921	-11.14
851.091	-6.19
851.26	-9.16
851.43	-31.68
851.599	-8.03
851.769	-20.4
851.939	-11.73
852.108	-18.37
852.278	0.92
852.447	-13.74
852.616	2.83
852.786	6.71
852.955	2.28
853.125	2.34
853.294	9.18
853.463	7.85
853.633	4.75
853.802	6.38
853.971	16.25
854.141	4.06
854.31	24.09
854.479	27.78
854.648	22.45
854.818	19
854.987	22.07
855.156	15.12
855.325	19.49
855.494	17.01
855.663	16.99
855.832	5.93
856.001	-2.96
856.171	-9.53
856.34	-19.51
856.509	-25.2
856.678	-32.16
856.847	-45.16
857.016	-14.85
857.185	-6.33
857.353	9.65
857.522	-7.21
857.691	7.97
857.86	23.16
858.029	31.39
858.198	23.86
858.367	21.93
858.535	25.87
858.704	26.54
858.873	9.1
859.042	-31.65
859.21	-52.92
859.379	-41.06
859.548	-61.39
859.717	-61.67
859.885	-66.47
860.054	-46.67
860.222	-27.55
860.391	-24.26
860.56	-28.54
860.728	-16.89
860.897	17.04
861.065	7.67
861.234	8.75
861.402	13.44
861.571	11.39
861.739	22.04
861.908	17.8
862.076	-10.71
862.244	-3.03
862.413	2.34
862.581	-12.72
862.749	-34.87
862.918	-39.52
863.086	-59.65
863.254	-53.66
863.423	-90.69
863.591	-63.95
863.759	-92.74
863.927	-57.35
864.096	-64.91
864.264	-129.47
864.432	-100.91
864.6	-86.26
864.768	-61.28
864.936	-48.04
865.104	-35.93
865.272	-13
865.44	-38.78
865.608	-28.69
865.776	-47.75
865.944	-56.73
866.112	-45.68
866.28	-16.47
866.448	-12.75
866.616	-10.44
866.784	-1.04
866.952	-15.72
867.12	-30.46
867.288	-25.02
867.455	-26.14
867.623	-26.34
867.791	3.03
867.959	13.66
868.127	-10.43
868.294	-25.51
868.462	6.84
868.63	8.53
868.797	22.2
868.965	23
869.133	13.83
869.3	20.13
869.468	30.4
869.636	19.33
869.803	19.77
869.971	20.3
870.138	20.17
870.306	16.07
870.473	13.34
870.641	6.22
870.808	-1.9
870.975	-0.53
871.143	-3.97
871.31	-24.56
871.478	-33.68
871.645	-36.79
871.812	-31.39
871.98	-23.24
872.147	-35.18
872.314	-29.12
872.482	-25.27
872.649	-23.78
872.816	-9.16
872.983	-12.64
873.15	-5.21
873.318	-10.85
873.485	-23.4
873.652	-28.06
873.819	-20.68
873.986	-31.05
874.153	-30.62
874.32	-38.26
874.487	-35.19
874.654	-25.16
874.821	-31.25
874.988	-28.02
875.155	-5.63
875.322	2.52
875.489	3.79
875.656	-2.65
875.823	2.37
875.99	13.74
876.157	10.16
876.324	12.05
876.49	-5.28
876.657	-2.9
876.824	0.76
876.991	-10.34
877.157	2.71
877.324	12.59
877.491	17.93
877.658	34.02
877.824	30.06
877.991	35.74
878.157	25.91
878.324	44.59
878.491	38.16
878.657	43.47
878.824	65.92
878.99	36.98
879.157	6.96
879.323	16.37
879.49	10.42
879.656	8.58
879.823	16.61
879.989	24.26
880.156	11.1
880.322	14.81
880.488	14.29
880.655	16.54
880.821	23.11
880.987	28.82
881.154	23.5
881.32	32.11
881.486	31.05
881.652	31.59
881.819	30.82
881.985	34.46
882.151	38.23
882.317	39.44
882.483	37.57
882.649	35.11
882.816	35.15
882.982	36.24
883.148	31.7
883.314	32.57
883.48	32.51
883.646	33.14
883.812	33.21
883.978	31.59
884.144	30.24
884.31	30.46
884.476	32.42
884.642	32.69
884.807	32.41
884.973	32.06
885.139	31.87
885.305	31.07
885.471	31.14
885.637	32.79
885.802	31.85
885.968	29.59
886.134	30.06
886.3	28.49
886.465	27.8
886.631	27.81
886.797	29.65
886.962	29
887.128	29.6
887.293	25.99
887.459	20.88
887.625	19.8
887.79	25.09
887.956	22.14
888.121	19.49
888.287	16.98
888.452	14.5
888.618	7.57
888.783	1.65
