Data from CB_072_Reflection_1.txt Node
Date: Sat Nov 14 11:12:26 EST 2015
User: robert
Spectrometer: USB4E03001
Autoset integration time: false
Trigger mode: 4
Integration Time (sec): 1.000000E-1
Scans to average: 15
Electric dark correction enabled: true
Nonlinearity correction enabled: false
Boxcar width: 5
Stray light correction enabled: false
XAxis mode: Wavelengths
Stop averaging: false
Number of Pixels in Spectrum: 3648
>>>>>Begin Spectral Data<<<<<
177.566	-82.03
177.785	-139.31
178.005	-331.01
178.225	3.75
178.445	-51.79
178.665	-244.04
178.885	-78.94
179.105	-95.27
179.324	-151.17
179.544	-286.93
179.764	-52.59
179.984	-39.09
180.204	-45.63
180.423	-219.25
180.643	-96.48
180.863	-203.39
181.083	-1364.84
181.302	-6307.94
181.522	852.32
181.742	849.1
181.961	1131.67
182.181	186.27
182.401	152
182.621	246.45
182.84	897.2
183.06	-3104.07
183.279	-392.39
183.499	-246.12
183.719	-287.38
183.938	-147.42
184.158	-147.05
184.377	-130.32
184.597	-67.49
184.816	-42.22
185.036	-90.91
185.256	-143.28
185.475	-305.84
185.695	-248.27
185.914	-253.79
186.134	-197.56
186.353	-308.69
186.572	-187.58
186.792	-495.6
187.011	2760.5
187.231	-1305.84
187.45	-211.45
187.67	-600.58
187.889	382.23
188.108	194.77
188.328	170.02
188.547	137.36
188.766	84.81
188.986	122.26
189.205	111.08
189.424	130.82
189.644	130.55
189.863	184.99
190.082	249.65
190.302	335.2
190.521	281.95
190.74	289.92
190.959	1140.73
191.178	1083.83
191.398	673.36
191.617	2055.88
191.836	7900.54
192.055	1560.5
192.274	443.76
192.494	543.76
192.713	22573.21
192.932	-2183.21
193.151	408325
193.37	582.92
193.589	-14120.35
193.808	-1333.49
194.027	-2281.88
194.246	4342.01
194.465	-2912.15
194.685	613.69
194.904	630.96
195.123	390.72
195.342	296.99
195.561	250.63
195.78	893.42
195.999	2050.19
196.218	917.39
196.436	547.6
196.655	286.19
196.874	181.42
197.093	425.26
197.312	336.33
197.531	535.64
197.75	825.31
197.969	2176.13
198.188	354.36
198.407	230.02
198.625	237.98
198.844	281.58
199.063	372.99
199.282	712.45
199.501	-3135.16
199.719	-1730.02
199.938	825.1
200.157	443.52
200.376	-2796.11
200.594	-164.25
200.813	-568.04
201.032	-1890.77
201.251	-962.21
201.469	-1364.2
201.688	-2510.87
201.907	4326.04
202.125	1287.07
202.344	4691.79
202.563	25668.12
202.781	1241.89
203	424.35
203.218	329.69
203.437	505.08
203.656	378.21
203.874	954.6
204.093	903.2
204.311	600.76
204.53	1882.94
204.748	477.54
204.967	706.86
205.185	585.18
205.404	646.36
205.622	766.9
205.841	390.77
206.059	331.47
206.278	239.35
206.496	363.31
206.715	547.28
206.933	376.06
207.151	484.58
207.37	286.85
207.588	356.28
207.806	405.08
208.025	659.98
208.243	1028.85
208.461	-75481.82
208.68	2075.86
208.898	838.66
209.116	509.97
209.335	409.37
209.553	359.16
209.771	339.09
209.989	284.47
210.208	248.82
210.426	203.43
210.644	191.2
210.862	170.87
211.081	175.42
211.299	153.61
211.517	176.61
211.735	136.73
211.953	147.45
212.171	180.85
212.39	198.04
212.608	211.38
212.826	202.57
213.044	186.12
213.262	195.15
213.48	209.32
213.698	287.35
213.916	155.32
214.134	290.06
214.352	534.55
214.57	293.13
214.788	221.13
215.006	193.42
215.224	368.89
215.442	877.51
215.66	1762.06
215.878	484.95
216.096	192.05
216.314	697.58
216.532	3158.88
216.75	-748.44
216.968	-799.78
217.185	-7700.88
217.403	1884.55
217.621	-122111.11
217.839	-740.24
218.057	-24114.58
218.275	-654.95
218.492	-122.62
218.71	-2332.98
218.928	1394.52
219.146	905.6
219.363	578.63
219.581	636.98
219.799	-3006.54
220.017	339.44
220.234	407.33
220.452	459.72
220.67	754.27
220.887	291.89
221.105	530.5
221.323	318.3
221.54	225.03
221.758	225.61
221.976	199.71
222.193	146.44
222.411	149.04
222.629	146.49
222.846	110.13
223.064	93.64
223.281	113.21
223.499	113.56
223.716	96.89
223.934	83.07
224.151	74.79
224.369	105.01
224.586	131.69
224.804	127.72
225.021	137.6
225.239	149.42
225.456	142.67
225.674	132.74
225.891	113.77
226.108	104.53
226.326	95.78
226.543	94.07
226.76	61.88
226.978	50.25
227.195	57.6
227.413	48.48
227.63	54.74
227.847	56.33
228.064	50.56
228.282	52.25
228.499	53.62
228.716	51.4
228.934	50.3
229.151	51.78
229.368	49.05
229.585	43.9
229.802	41.89
230.02	38.76
230.237	37.02
230.454	35.2
230.671	33.71
230.888	34.31
231.105	38.43
231.323	39.11
231.54	37.86
231.757	39.42
231.974	43.76
232.191	45.53
232.408	44.01
232.625	46.95
232.842	44.01
233.059	40.64
233.276	39.23
233.493	29.28
233.71	25.98
233.927	25.83
234.144	25.1
234.361	26.35
234.578	26.09
234.795	20.58
235.012	20.56
235.229	18.16
235.446	27.92
235.663	23.61
235.879	25.55
236.096	33.85
236.313	37.92
236.53	34.27
236.747	36.24
236.964	31.89
237.181	44.53
237.397	38.99
237.614	53.36
237.831	49.44
238.048	56.36
238.264	55.46
238.481	56.91
238.698	54.85
238.915	57.69
239.131	48.11
239.348	48.85
239.565	41.53
239.781	47.3
239.998	37.33
240.215	33.6
240.431	29.33
240.648	32.24
240.865	24.85
241.081	24.35
241.298	22.22
241.514	26.57
241.731	23.93
241.947	24.06
242.164	22.87
242.38	20.02
242.597	20.24
242.814	20.41
243.03	21.54
243.246	24.29
243.463	24.13
243.679	25.83
243.896	23.41
244.112	24.12
244.329	25.12
244.545	27.03
244.762	32.57
244.978	34.01
245.194	31.39
245.411	28.31
245.627	25.59
245.843	26.56
246.06	26.31
246.276	24.1
246.492	24.59
246.709	22.93
246.925	20.4
247.141	19.67
247.357	19.02
247.574	19.79
247.79	18.93
248.006	18.16
248.222	17.86
248.439	15.66
248.655	16.63
248.871	15.8
249.087	16.56
249.303	17.3
249.519	17.72
249.736	18.19
249.952	17.81
250.168	22.36
250.384	23.69
250.6	21.55
250.816	24.33
251.032	23.9
251.248	24.4
251.464	24.73
251.68	24.06
251.896	21.19
252.112	19.61
252.328	20.16
252.544	18.47
252.76	17.31
252.976	14.93
253.192	15.56
253.408	15.05
253.624	14.88
253.84	14.08
254.056	13.65
254.272	13.79
254.487	14.46
254.703	11.35
254.919	9.51
255.135	11.36
255.351	18.83
255.567	16.82
255.782	17.9
255.998	16.93
256.214	16.28
256.43	19.13
256.646	21.23
256.861	20.82
257.077	21.24
257.293	21.28
257.508	19.42
257.724	17.19
257.94	17.66
258.155	17.68
258.371	17.34
258.587	16.2
258.802	15.85
259.018	15.14
259.234	14.85
259.449	15.01
259.665	14.82
259.88	15.23
260.096	15.19
260.312	14.72
260.527	14.23
260.743	14.19
260.958	15.13
261.174	15.12
261.389	16.37
261.605	16.03
261.82	15.94
262.036	15.82
262.251	15.2
262.466	14.85
262.682	15.64
262.897	16.82
263.113	15.36
263.328	13.7
263.543	13.94
263.759	12.83
263.974	13.56
264.189	15.01
264.405	16.35
264.62	17.75
264.835	18.13
265.051	19.8
265.266	18.8
265.481	22.02
265.696	24.36
265.912	23.57
266.127	23.57
266.342	22.36
266.557	21.12
266.773	19.74
266.988	19.27
267.203	18.56
267.418	16.61
267.633	17.31
267.848	17.05
268.064	13.7
268.279	13.28
268.494	11.76
268.709	11.7
268.924	13.69
269.139	13.53
269.354	15.03
269.569	15.41
269.784	16.94
269.999	16.1
270.214	15.88
270.429	15.76
270.644	15.35
270.859	15.39
271.074	16.15
271.289	16.18
271.504	15.7
271.719	14.52
271.934	14.58
272.149	13.83
272.363	14.34
272.578	14.54
272.793	15.52
273.008	15.76
273.223	14.9
273.438	14.1
273.653	13.3
273.867	13.15
274.082	14.37
274.297	16.4
274.512	17.09
274.726	16.6
274.941	16.06
275.156	18.21
275.371	18.65
275.585	20.57
275.8	22.59
276.015	21.85
276.229	23.07
276.444	22.99
276.659	19.66
276.873	18.07
277.088	19.95
277.302	20.8
277.517	17
277.732	16.44
277.946	16.51
278.161	16.47
278.375	16.69
278.59	16.11
278.804	15.04
279.019	17.76
279.233	18.98
279.448	16.01
279.662	14.71
279.877	16.24
280.091	14.2
280.306	12.65
280.52	10.91
280.735	10.88
280.949	11.85
281.163	11.79
281.378	10.02
281.592	10.1
281.806	10.67
282.021	10.3
282.235	10.91
282.449	13.49
282.664	13.96
282.878	15.12
283.092	14.52
283.307	12.95
283.521	11.22
283.735	12.59
283.949	12.34
284.164	13.06
284.378	12.46
284.592	11.18
284.806	10.84
285.02	11.04
285.234	9.7
285.449	9.73
285.663	10.65
285.877	12.05
286.091	10.56
286.305	11.39
286.519	12.14
286.733	13.47
286.947	14.88
287.161	14.84
287.375	13.99
287.589	15.06
287.803	17.03
288.017	16.23
288.231	16.2
288.445	17.65
288.659	16.87
288.873	16.39
289.087	16.39
289.301	16.64
289.515	15.97
289.729	17.5
289.943	18.86
290.157	18.15
290.371	19.75
290.584	20.32
290.798	20.54
291.012	21.1
291.226	20.57
291.44	19.88
291.654	19.06
291.867	20.97
292.081	20.09
292.295	19.16
292.509	18.45
292.722	17.31
292.936	15.71
293.15	14.3
293.364	13.18
293.577	13.64
293.791	14.82
294.005	14.06
294.218	13.95
294.432	13.85
294.645	12.53
294.859	12.31
295.073	13.02
295.286	12.93
295.5	13.24
295.713	13.87
295.927	13.04
296.14	12.03
296.354	11.77
296.568	10.32
296.781	10.83
296.994	11.77
297.208	11.19
297.421	11.28
297.635	12.15
297.848	11.57
298.062	10.69
298.275	10.8
298.489	11.73
298.702	12.46
298.915	12.23
299.129	12.34
299.342	12.26
299.555	13.51
299.769	12.35
299.982	12.01
300.195	13.26
300.409	13.44
300.622	13.61
300.835	12.1
301.048	12.78
301.262	13.45
301.475	13.82
301.688	13.83
301.901	12.92
302.115	13
302.328	11.83
302.541	11.68
302.754	12.83
302.967	12.82
303.18	14.64
303.393	15.03
303.607	14.66
303.82	14.66
304.033	14.79
304.246	15.96
304.459	16.75
304.672	18.88
304.885	19.21
305.098	19.04
305.311	19.58
305.524	17.84
305.737	16.54
305.95	17.6
306.163	16.98
306.376	16.27
306.589	16.09
306.802	16.19
307.015	15.94
307.228	15.93
307.44	15.17
307.653	14.79
307.866	15.86
308.079	16.66
308.292	15.35
308.505	16.46
308.718	17.2
308.93	17.93
309.143	17.45
309.356	17.64
309.569	16.69
309.781	16.84
309.994	17.61
310.207	18.1
310.42	18.24
310.632	18.72
310.845	17.9
311.058	17.11
311.27	16.13
311.483	16.9
311.696	16.07
311.908	16.39
312.121	16.29
312.333	17.12
312.546	16.41
312.759	15.78
312.971	15.86
313.184	16.28
313.396	16.26
313.609	16.11
313.821	17.24
314.034	18
314.246	17.18
314.459	17.75
314.671	16.1
314.884	16.68
315.096	17.42
315.309	18.22
315.521	19.42
315.733	18.97
315.946	19.59
316.158	18.33
316.371	18.84
316.583	18.37
316.795	18.39
317.008	18.97
317.22	19.05
317.432	18.51
317.644	17.82
317.857	16.92
318.069	17.73
318.281	17.99
318.494	17.82
318.706	17.62
318.918	18.95
319.13	18.74
319.342	17.66
319.555	16.45
319.767	17.56
319.979	17.22
320.191	16.43
320.403	17.55
320.615	19.49
320.827	20.74
321.039	20.22
321.252	22.09
321.464	22.07
321.676	23.12
321.888	24.35
322.1	23.09
322.312	23.01
322.524	23.74
322.736	22.31
322.948	21.47
323.16	20.25
323.372	21.08
323.584	19.96
323.796	19.76
324.007	19.11
324.219	20.36
324.431	21.22
324.643	22.4
324.855	23.47
325.067	23.54
325.279	23.43
325.491	24.54
325.702	24.38
325.914	24.15
326.126	25.09
326.338	24.37
326.55	23.67
326.761	24.17
326.973	23.78
327.185	22.48
327.396	24.59
327.608	24.49
327.82	24.3
328.032	25.74
328.243	26.89
328.455	27.6
328.666	30.12
328.878	30.2
329.09	29.13
329.301	29.28
329.513	29.93
329.725	30.05
329.936	30.21
330.148	29.24
330.359	28.81
330.571	29.15
330.782	28.07
330.994	27.89
331.205	28.9
331.417	31.06
331.628	31.3
331.84	32.28
332.051	31.58
332.262	31.81
332.474	31
332.685	30.78
332.897	30.28
333.108	31.58
333.319	30.82
333.531	30.53
333.742	29.14
333.953	29.69
334.165	29.44
334.376	30.02
334.587	30.46
334.799	31.37
335.01	31.02
335.221	30.27
335.432	29.49
335.644	30.65
335.855	30.1
336.066	30.08
336.277	30.09
336.488	30.05
336.7	29.12
336.911	28.54
337.122	29.49
337.333	29.91
337.544	30.49
337.755	31.42
337.966	29.97
338.177	29.82
338.388	30.03
338.599	30.18
338.811	29.23
339.022	28.99
339.233	29.06
339.444	27.49
339.655	26.36
339.866	26.08
340.076	25.35
340.287	25.54
340.498	26.23
340.709	26.72
340.92	26.23
341.131	27.24
341.342	27.79
341.553	27.49
341.764	29.67
341.975	30.62
342.185	30.86
342.396	31.18
342.607	31.66
342.818	30.68
343.029	30.13
343.239	29.89
343.45	29.45
343.661	29.56
343.872	28.88
344.082	27.84
344.293	27.51
344.504	27.28
344.714	26.61
344.925	27.09
345.136	27.45
345.346	27
345.557	26.89
345.768	26.49
345.978	26.6
346.189	27.56
346.399	26.82
346.61	26.28
346.821	27.02
347.031	27.53
347.242	26.63
347.452	26.18
347.663	27.02
347.873	27.05
348.084	27.79
348.294	27.21
348.504	27.23
348.715	28.3
348.925	28.6
349.136	27.44
349.346	26.72
349.557	26.86
349.767	28.37
349.977	28.18
350.188	27.98
350.398	27.99
350.608	27.76
350.819	27.86
351.029	26.87
351.239	28.18
351.449	28.36
351.66	28.51
351.87	28.56
352.08	27.87
352.29	27.53
352.501	27.76
352.711	26.57
352.921	27.45
353.131	26.54
353.341	26.86
353.552	25.29
353.762	25.09
353.972	25.22
354.182	26.39
354.392	25.75
354.602	25.92
354.812	26.34
355.022	26.29
355.232	26.51
355.442	26.92
355.652	27.29
355.862	27.59
356.072	28.43
356.282	27.4
356.492	25.95
356.702	26.55
356.912	26.01
357.122	26.2
357.332	26.68
357.542	25.65
357.752	25.75
357.962	25.44
358.171	25.13
358.381	24.73
358.591	25.8
358.801	26.07
359.011	25.05
359.221	25.4
359.43	25.13
359.64	24.69
359.85	24.95
360.06	24.83
360.269	24.5
360.479	24.93
360.689	25.13
360.899	24.96
361.108	24.91
361.318	25.19
361.528	25.03
361.737	24.45
361.947	24.51
362.156	24.27
362.366	24.05
362.576	24.58
362.785	24.32
362.995	24.01
363.204	23.65
363.414	23.97
363.623	24.2
363.833	24.82
364.042	25.65
364.252	25.91
364.461	25.95
364.671	26.27
364.88	26.29
365.09	26.81
365.299	26.91
365.509	27.42
365.718	26.82
365.927	26.94
366.137	26.25
366.346	26.21
366.555	25.94
366.765	26.02
366.974	25.7
367.183	23.92
367.393	22.75
367.602	22.28
367.811	22.09
368.021	22.45
368.23	22.23
368.439	21.93
368.648	20.78
368.857	20.91
369.067	21.01
369.276	21.02
369.485	22.73
369.694	23.96
369.903	24.49
370.112	24.1
370.321	23.42
370.531	23.11
370.74	23.15
370.949	23.33
371.158	22.72
371.367	22.29
371.576	21.64
371.785	21.16
371.994	20.75
372.203	20.49
372.412	20.14
372.621	20.9
372.83	20.87
373.039	21.63
373.248	21.57
373.457	22.06
373.666	21.8
373.874	22.28
374.083	22.43
374.292	21.78
374.501	21.61
374.71	22.17
374.919	21.15
375.128	20.6
375.336	20.29
375.545	20.3
375.754	20.12
375.963	20.15
376.171	19.38
376.38	19.14
376.589	18.97
376.798	18.44
377.006	18.17
377.215	18.62
377.424	19
377.632	17.92
377.841	17.86
378.05	17.87
378.258	17.73
378.467	17.81
378.675	17.46
378.884	17.8
379.093	17.88
379.301	17.79
379.51	17.37
379.718	17.57
379.927	18.03
380.135	18.12
380.344	17.16
380.552	17.79
380.761	17.79
380.969	17.42
381.177	16.77
381.386	17.92
381.594	17.56
381.803	17.33
382.011	16.84
382.219	16.42
382.428	15.91
382.636	16.66
382.845	15.66
383.053	15.49
383.261	15.77
383.469	15.99
383.678	15.21
383.886	15.5
384.094	15.75
384.302	15.63
384.511	15.67
384.719	15.78
384.927	15.43
385.135	15.65
385.343	15.36
385.552	15.68
385.76	15.43
385.968	14.76
386.176	14.64
386.384	14.1
386.592	14.23
386.8	14.26
387.008	14.22
387.216	14.29
387.424	14.47
387.633	15.24
387.841	14.95
388.049	15.25
388.257	15.88
388.465	15.44
388.672	15.79
388.88	15.51
389.088	15.08
389.296	14.81
389.504	14.61
389.712	14.59
389.92	14.25
390.128	13.99
390.336	13.76
390.544	13.04
390.751	13.34
390.959	13.12
391.167	12.88
391.375	13.39
391.583	13.52
391.79	13.28
391.998	13.25
392.206	13.09
392.414	12.93
392.621	12.83
392.829	12.89
393.037	12.75
393.244	12.83
393.452	13.13
393.66	12.83
393.867	12.83
394.075	12.92
394.283	12.61
394.49	12.48
394.698	12.66
394.905	12.68
395.113	12.64
395.32	12.45
395.528	12.41
395.735	12.18
395.943	12.43
396.15	12.02
396.358	11.84
396.565	12.04
396.773	11.96
396.98	12.05
397.188	11.84
397.395	12.17
397.602	12.34
397.81	11.78
398.017	11.73
398.225	11.53
398.432	11.7
398.639	11.75
398.847	11.36
399.054	11.44
399.261	11.39
399.468	11.4
399.676	11.23
399.883	10.73
400.09	11.15
400.297	11.29
400.505	11.03
400.712	11.2
400.919	11.41
401.126	11.47
401.333	11.3
401.54	11.11
401.748	11.36
401.955	11.25
402.162	11.36
402.369	11.39
402.576	11.12
402.783	10.92
402.99	10.64
403.197	10.3
403.404	10.16
403.611	10.14
403.818	10.07
404.025	9.81
404.232	9.99
404.439	9.93
404.646	9.67
404.853	9.45
405.06	9.47
405.267	9.67
405.474	9.7
405.681	10.14
405.887	10.09
406.094	10.29
406.301	10.41
406.508	10.33
406.715	10.68
406.922	10.57
407.128	10.99
407.335	10.84
407.542	10.8
407.749	10.84
407.955	10.38
408.162	10.18
408.369	9.98
408.575	10
408.782	9.79
408.989	9.35
409.195	9.48
409.402	9.45
409.609	9.79
409.815	9.6
410.022	9.76
410.228	10.05
410.435	10.26
410.642	10.39
410.848	10.05
411.055	9.96
411.261	10.12
411.468	10.2
411.674	9.91
411.881	9.72
412.087	9.83
412.294	9.75
412.5	9.67
412.706	9.66
412.913	9.56
413.119	9.62
413.326	9.86
413.532	9.94
413.738	10.02
413.945	9.83
414.151	10.19
414.357	9.9
414.564	9.96
414.77	9.86
414.976	9.9
415.182	9.99
415.389	9.95
415.595	9.68
415.801	9.66
416.007	9.57
416.214	9.75
416.42	9.39
416.626	9.2
416.832	9.04
417.038	9
417.244	9.12
417.45	8.82
417.657	8.84
417.863	8.81
418.069	8.76
418.275	8.59
418.481	8.52
418.687	8.49
418.893	8.58
419.099	8.58
419.305	8.46
419.511	8.27
419.717	8.34
419.923	8.25
420.129	8.26
420.335	8.19
420.541	8.36
420.746	8.22
420.952	8.32
421.158	8.4
421.364	8.25
421.57	8.18
421.776	8.17
421.982	8.19
422.187	8.21
422.393	8.08
422.599	8.06
422.805	7.91
423.01	8
423.216	7.9
423.422	7.89
423.628	7.98
423.833	8.04
424.039	8.16
424.245	8.2
424.45	8.13
424.656	8.21
424.862	8.16
425.067	8.18
425.273	8.23
425.478	8.17
425.684	8.13
425.889	8.2
426.095	8.21
426.301	8.12
426.506	7.98
426.712	8.13
426.917	8.31
427.123	8.28
427.328	8.19
427.533	8.1
427.739	8.33
427.944	8.38
428.15	8.36
428.355	8.48
428.561	8.54
428.766	8.69
428.971	8.57
429.177	8.39
429.382	8.44
429.587	8.56
429.793	8.67
429.998	8.5
430.203	8.5
430.408	8.6
430.614	8.34
430.819	8.33
431.024	7.91
431.229	8.13
431.434	8.24
431.64	8.32
431.845	8.35
432.05	8.47
432.255	8.31
432.46	8.26
432.665	7.86
432.87	7.9
433.076	7.78
433.281	8.08
433.486	7.84
433.691	7.75
433.896	7.76
434.101	7.76
434.306	7.67
434.511	7.9
434.716	7.93
434.921	8.33
435.126	8.47
435.331	8.38
435.535	8.24
435.74	8.2
435.945	8.13
436.15	8.09
436.355	8.15
436.56	7.98
436.765	7.92
436.97	7.66
437.174	7.59
437.379	7.61
437.584	7.61
437.789	7.59
437.993	7.65
438.198	7.86
438.403	7.79
438.608	7.78
438.812	7.8
439.017	7.62
439.222	7.86
439.426	7.75
439.631	7.59
439.836	7.68
440.04	7.73
440.245	7.84
440.45	7.72
440.654	7.78
440.859	7.74
441.063	7.77
441.268	7.94
441.472	7.76
441.677	7.72
441.881	7.74
442.086	7.75
442.29	7.56
442.495	7.52
442.699	7.57
442.904	7.42
443.108	7.38
443.312	7.41
443.517	7.36
443.721	7.39
443.925	7.38
444.13	7.37
444.334	7.34
444.538	7.64
444.743	7.65
444.947	7.63
445.151	7.78
445.356	7.73
445.56	7.79
445.764	7.75
445.968	7.84
446.173	7.78
446.377	7.78
446.581	7.75
446.785	7.74
446.989	7.7
447.193	7.59
447.398	7.52
447.602	7.34
447.806	7.36
448.01	7.35
448.214	7.42
448.418	7.25
448.622	7.27
448.826	7.37
449.03	7.33
449.234	7.24
449.438	7.41
449.642	7.41
449.846	7.8
450.05	7.76
450.254	7.66
450.458	7.45
450.662	7.95
450.866	7.87
451.069	7.68
451.273	7.61
451.477	7.73
451.681	7.61
451.885	7.51
452.089	7.47
452.292	7.21
452.496	7.22
452.7	7.4
452.904	7.2
453.107	7.39
453.311	7.38
453.515	7.38
453.719	7.53
453.922	7.6
454.126	7.84
454.33	7.58
454.533	7.7
454.737	7.81
454.94	7.67
455.144	7.81
455.348	7.67
455.551	7.83
455.755	7.67
455.958	7.54
456.162	7.62
456.365	7.69
456.569	7.67
456.772	7.7
456.976	7.79
457.179	7.8
457.383	7.74
457.586	7.69
457.79	7.64
457.993	7.65
458.196	7.58
458.4	7.44
458.603	7.17
458.807	7.16
459.01	7.28
459.213	7.11
459.417	7.14
459.62	7
459.823	6.99
460.026	6.94
460.23	7
460.433	6.95
460.636	6.97
460.839	7
461.042	7.05
461.246	6.93
461.449	7.07
461.652	7.05
461.855	7.08
462.058	7.14
462.261	7.21
462.464	7.1
462.668	7.08
462.871	7.29
463.074	7.21
463.277	7.29
463.48	7.17
463.683	7.17
463.886	7.08
464.089	7.08
464.292	6.86
464.495	6.87
464.698	6.9
464.901	6.96
465.104	6.76
465.306	6.72
465.509	6.72
465.712	7
465.915	6.86
466.118	6.88
466.321	6.97
466.524	6.95
466.726	7.03
466.929	7.19
467.132	7.04
467.335	7.23
467.538	7.22
467.74	7.12
467.943	6.95
468.146	6.9
468.348	6.81
468.551	6.67
468.754	6.84
468.956	6.7
469.159	6.58
469.362	6.89
469.564	6.73
469.767	6.91
469.969	6.99
470.172	7.05
470.375	7.23
470.577	7.48
470.78	7.49
470.982	7.42
471.185	7.41
471.387	7.5
471.59	7.24
471.792	7.23
471.995	7.24
472.197	7.12
472.399	7.39
472.602	7.38
472.804	7.2
473.007	7.07
473.209	7.19
473.411	7.32
473.614	7.34
473.816	7.51
474.018	7.48
474.22	7.34
474.423	7.51
474.625	7.13
474.827	7.17
475.03	7.12
475.232	7.23
475.434	7.2
475.636	6.98
475.838	6.9
476.04	6.86
476.243	6.82
476.445	6.98
476.647	7.01
476.849	7.15
477.051	7.02
477.253	7.22
477.455	7.29
477.657	7.27
477.859	7.44
478.061	7.46
478.263	7.31
478.465	7.33
478.667	7.1
478.869	6.93
479.071	7.01
479.273	6.96
479.475	6.88
479.677	6.8
479.879	6.72
480.081	6.56
480.283	6.42
480.485	6.51
480.686	6.61
480.888	6.78
481.09	6.76
481.292	6.61
481.494	6.72
481.695	6.76
481.897	6.8
482.099	6.78
482.301	6.78
482.502	6.77
482.704	6.81
482.906	6.67
483.107	6.58
483.309	6.59
483.511	6.57
483.712	6.52
483.914	6.47
484.115	6.44
484.317	6.47
484.519	6.45
484.72	6.47
484.922	6.4
485.123	6.39
485.325	6.38
485.526	6.42
485.728	6.42
485.929	6.42
486.131	6.35
486.332	6.39
486.534	6.36
486.735	6.41
486.936	6.41
487.138	6.32
487.339	6.4
487.541	6.43
487.742	6.48
487.943	6.5
488.144	6.51
488.346	6.61
488.547	6.65
488.748	6.7
488.95	6.64
489.151	6.69
489.352	6.81
489.553	6.76
489.755	6.79
489.956	6.73
490.157	6.7
490.358	6.67
490.559	6.59
490.76	6.56
490.961	6.45
491.163	6.67
491.364	6.64
491.565	6.66
491.766	6.71
491.967	6.7
492.168	6.69
492.369	6.67
492.57	6.72
492.771	6.84
492.972	6.79
493.173	6.93
493.374	6.92
493.575	6.99
493.776	6.96
493.976	7
494.177	7.19
494.378	7.29
494.579	7.54
494.78	7.58
494.981	7.62
495.182	7.69
495.382	7.7
495.583	7.55
495.784	7.53
495.985	7.68
496.185	7.57
496.386	7.47
496.587	7.49
496.788	7.35
496.988	7.14
497.189	7.18
497.39	7.21
497.59	7.2
497.791	7.12
497.992	7.11
498.192	7.12
498.393	7.24
498.593	7.25
498.794	7.28
498.994	7.44
499.195	7.67
499.395	7.62
499.596	7.6
499.796	7.61
499.997	7.89
500.197	7.93
500.398	7.96
500.598	7.8
500.799	7.88
500.999	7.79
501.199	7.52
501.4	7.53
501.6	7.43
501.801	7.46
502.001	7.63
502.201	7.42
502.402	7.48
502.602	7.45
502.802	7.72
503.002	7.63
503.203	7.69
503.403	7.91
503.603	7.9
503.803	8.05
504.003	8.06
504.204	7.93
504.404	8.12
504.604	8.18
504.804	8.44
505.004	8.35
505.204	8.42
505.404	8.45
505.604	8.46
505.804	8.52
506.005	8.53
506.205	8.58
506.405	8.68
506.605	8.69
506.805	8.66
507.005	8.44
507.204	8.52
507.404	8.59
507.604	8.68
507.804	8.68
508.004	8.8
508.204	8.75
508.404	8.88
508.604	8.75
508.804	8.71
509.003	8.72
509.203	8.73
509.403	8.77
509.603	8.74
509.803	8.72
510.002	8.84
510.202	8.87
510.402	9.1
510.602	9.11
510.801	9.25
511.001	9.34
511.201	9.46
511.4	9.56
511.6	9.63
511.8	9.88
511.999	10.03
512.199	9.93
512.398	9.97
512.598	9.96
512.797	10.1
512.997	10.14
513.197	10.12
513.396	10.27
513.596	10.39
513.795	10.53
513.994	10.44
514.194	10.46
514.393	10.6
514.593	10.7
514.792	10.77
514.992	10.76
515.191	10.94
515.39	11.2
515.59	11.16
515.789	11.27
515.988	11.3
516.188	11.33
516.387	11.49
516.586	11.68
516.786	11.63
516.985	11.67
517.184	11.75
517.383	11.86
517.582	11.81
517.782	11.8
517.981	11.85
518.18	11.9
518.379	12.11
518.578	12.06
518.777	12.2
518.976	12.4
519.176	12.54
519.375	12.57
519.574	12.68
519.773	12.92
519.972	13.09
520.171	13.32
520.37	13.41
520.569	13.58
520.768	13.85
520.967	13.84
521.166	13.87
521.365	13.87
521.564	14.05
521.762	14.14
521.961	14.1
522.16	14.2
522.359	14.17
522.558	14.26
522.757	14.11
522.956	14.03
523.154	14.13
523.353	14.28
523.552	14.46
523.751	14.46
523.949	14.56
524.148	14.67
524.347	14.88
524.546	14.96
524.744	15.17
524.943	15.21
525.142	15.24
525.34	15.35
525.539	15.39
525.737	15.55
525.936	15.64
526.135	15.73
526.333	15.84
526.532	15.75
526.73	15.85
526.929	15.94
527.127	16.19
527.326	16.34
527.524	16.41
527.723	16.45
527.921	16.48
528.12	16.57
528.318	16.59
528.516	16.7
528.715	16.83
528.913	16.84
529.112	16.9
529.31	16.9
529.508	16.96
529.707	17.05
529.905	17.21
530.103	17.25
530.301	17.31
530.5	17.44
530.698	17.48
530.896	17.56
531.094	17.75
531.293	17.77
531.491	17.98
531.689	18.04
531.887	18.13
532.085	18.15
532.283	18.19
532.481	18.28
532.68	18.36
532.878	18.45
533.076	18.49
533.274	18.53
533.472	18.47
533.67	18.47
533.868	18.65
534.066	18.71
534.264	18.76
534.462	18.85
534.66	18.94
534.858	18.94
535.056	19.16
535.253	19.32
535.451	19.43
535.649	19.68
535.847	19.79
536.045	19.84
536.243	20.05
536.441	20.08
536.638	20.24
536.836	20.36
537.034	20.63
537.232	20.53
537.43	20.46
537.627	20.55
537.825	20.78
538.023	20.86
538.22	20.99
538.418	20.98
538.616	21.18
538.813	21.21
539.011	21.23
539.209	21.21
539.406	21.41
539.604	21.78
539.801	21.84
539.999	21.87
540.196	21.97
540.394	22.01
540.591	22.04
540.789	22.15
540.986	22.21
541.184	22.34
541.381	22.43
541.579	22.45
541.776	22.41
541.974	22.45
542.171	22.5
542.368	22.52
542.566	22.52
542.763	22.58
542.96	22.61
543.158	22.76
543.355	22.83
543.552	22.86
543.75	22.97
543.947	23.12
544.144	23.37
544.341	23.42
544.539	23.57
544.736	23.77
544.933	23.87
545.13	23.91
545.327	23.85
545.524	23.96
545.722	24.01
545.919	24.02
546.116	23.98
546.313	23.83
546.51	23.98
546.707	24.03
546.904	24.03
547.101	24.11
547.298	24.36
547.495	24.5
547.692	24.55
547.889	24.49
548.086	24.67
548.283	24.98
548.48	25.2
548.677	25.3
548.874	25.44
549.07	25.59
549.267	25.75
549.464	25.66
549.661	25.74
549.858	25.91
550.055	26.32
550.251	26.4
550.448	26.32
550.645	26.3
550.842	26.35
551.038	26.61
551.235	26.74
551.432	27
551.628	27.13
551.825	27.38
552.022	27.38
552.218	27.4
552.415	27.42
552.612	27.53
552.808	27.72
553.005	27.75
553.201	27.53
553.398	27.65
553.594	27.69
553.791	27.81
553.987	27.91
554.184	28.01
554.38	28.03
554.577	28.09
554.773	28.29
554.97	28.15
555.166	28.4
555.362	28.64
555.559	28.77
555.755	28.79
555.952	28.7
556.148	28.95
556.344	28.96
556.541	29.16
556.737	29.11
556.933	29.14
557.129	29.26
557.326	29.35
557.522	29.39
557.718	29.41
557.914	29.4
558.11	29.67
558.307	29.35
558.503	29.62
558.699	29.61
558.895	29.87
559.091	30.03
559.287	30.48
559.483	30.32
559.679	30.31
559.876	30.08
560.072	30.04
560.268	30.1
560.464	30.35
560.66	30.33
560.856	30.42
561.052	30.47
561.247	30.45
561.443	30.42
561.639	30.69
561.835	31.03
562.031	31.36
562.227	31.52
562.423	31.53
562.619	31.7
562.815	31.85
563.01	32.18
563.206	32.4
563.402	32.31
563.598	32.33
563.793	32.41
563.989	32.4
564.185	32.3
564.381	32.42
564.576	32.7
564.772	32.51
564.968	32.4
565.163	32.15
565.359	32.02
565.555	32.16
565.75	32.14
565.946	32.18
566.141	32.22
566.337	32.17
566.532	32.33
566.728	32.24
566.923	32.46
567.119	32.67
567.314	32.83
567.51	32.93
567.705	32.98
567.901	33.21
568.096	33.05
568.292	33.2
568.487	33.36
568.682	33.27
568.878	33.39
569.073	33.55
569.268	33.55
569.464	33.76
569.659	33.9
569.854	33.85
570.05	33.73
570.245	34.17
570.44	34.23
570.635	34.52
570.831	34.73
571.026	34.89
571.221	35.02
571.416	35.05
571.611	34.82
571.806	34.76
572.002	34.89
572.197	34.86
572.392	34.75
572.587	34.69
572.782	34.69
572.977	34.6
573.172	34.65
573.367	34.5
573.562	34.67
573.757	34.86
573.952	34.76
574.147	34.79
574.342	35.03
574.537	35.05
574.732	34.89
574.927	35.02
575.121	35.2
575.316	35.1
575.511	35.15
575.706	35.07
575.901	35.12
576.096	35.48
576.29	35.53
576.485	35.69
576.68	35.86
576.875	35.97
577.069	35.87
577.264	35.71
577.459	36.11
577.654	36.42
577.848	36.55
578.043	36.74
578.238	36.89
578.432	36.99
578.627	36.77
578.821	36.96
579.016	37.26
579.21	37.45
579.405	37.57
579.6	37.2
579.794	37.19
579.989	37.09
580.183	37.3
580.378	37.03
580.572	37.24
580.766	37.39
580.961	37.25
581.155	37.11
581.35	37.11
581.544	37.2
581.738	37.46
581.933	37.11
582.127	37.54
582.321	37.21
582.516	37.21
582.71	37.03
582.904	36.97
583.099	37.16
583.293	37.37
583.487	37.41
583.681	37.59
583.875	37.51
584.07	37.94
584.264	37.76
584.458	37.8
584.652	37.87
584.846	38.27
585.04	38.4
585.234	38.28
585.428	38.38
585.623	38.36
585.817	38.33
586.011	38.26
586.205	37.96
586.399	37.83
586.593	38.2
586.787	38.62
586.981	38.25
587.174	38.56
587.368	38.67
587.562	38.62
587.756	38.61
587.95	38.6
588.144	38.82
588.338	38.83
588.532	38.99
588.725	38.96
588.919	38.9
589.113	38.89
589.307	38.76
589.501	38.6
589.694	38.76
589.888	38.75
590.082	38.74
590.275	38.58
590.469	39.03
590.663	39.28
590.856	39.05
591.05	38.83
591.244	39.14
591.437	39.47
591.631	39.58
591.824	39.58
592.018	39.73
592.212	40.02
592.405	40.41
592.599	40.36
592.792	40.1
592.986	40.37
593.179	40.59
593.372	40.49
593.566	39.92
593.759	40.11
593.953	40.2
594.146	40.21
594.339	40.26
594.533	40.14
594.726	39.75
594.92	39.68
595.113	39.49
595.306	39.32
595.499	39.27
595.693	39.57
595.886	39.58
596.079	39.65
596.272	39.66
596.466	39.45
596.659	39.43
596.852	39.65
597.045	39.87
597.238	40.06
597.431	40.4
597.624	40.51
597.818	40.52
598.011	40.57
598.204	40.44
598.397	40.68
598.59	40.85
598.783	40.91
598.976	41.11
599.169	40.98
599.362	40.87
599.555	40.69
599.748	40.73
599.941	40.77
600.134	40.76
600.326	40.78
600.519	40.74
600.712	41.02
600.905	41.22
601.098	41.3
601.291	41.52
601.483	41.74
601.676	41.63
601.869	41.52
602.062	41.38
602.255	41.2
602.447	41.21
602.64	40.97
602.833	40.55
603.025	40.34
603.218	40.11
603.411	39.9
603.603	39.68
603.796	39.96
603.989	40.14
604.181	40.23
604.374	40.36
604.566	40.45
604.759	40.46
604.951	40.51
605.144	40.56
605.336	40.75
605.529	40.88
605.721	40.92
605.914	40.66
606.106	40.78
606.299	40.85
606.491	40.92
606.683	41
606.876	40.98
607.068	40.95
607.26	40.97
607.453	40.69
607.645	40.61
607.837	40.89
608.03	41.19
608.222	40.91
608.414	40.89
608.606	40.74
608.799	40.87
608.991	41.05
609.183	41.21
609.375	41.37
609.567	41.33
609.759	41.5
609.952	41.33
610.144	41.34
610.336	41.54
610.528	41.38
610.72	41.41
610.912	41.29
611.104	41.41
611.296	41.42
611.488	41.45
611.68	41.86
611.872	41.67
612.064	42.04
612.256	42.04
612.448	42.06
612.64	42.4
612.832	42.63
613.023	42.64
613.215	42.56
613.407	42.28
613.599	42.29
613.791	42.1
613.983	42.31
614.174	42.03
614.366	42.11
614.558	41.89
614.75	41.95
614.941	41.89
615.133	42.12
615.325	42.26
615.516	42.59
615.708	42.33
615.9	42.37
616.091	42.36
616.283	42.37
616.475	42.27
616.666	42.26
616.858	42.42
617.049	41.99
617.241	41.95
617.432	41.9
617.624	41.98
617.815	41.92
618.007	41.95
618.198	42.09
618.39	42.27
618.581	42.36
618.773	42.37
618.964	42.15
619.155	42.34
619.347	42.04
619.538	41.89
619.729	41.54
619.921	42.02
620.112	42.1
620.303	42.03
620.494	41.74
620.686	41.66
620.877	41.86
621.068	41.93
621.259	42
621.451	42.49
621.642	42.47
621.833	42.86
622.024	42.67
622.215	42.48
622.406	42.33
622.597	42.36
622.788	42.32
622.98	41.97
623.171	41.86
623.362	42.09
623.553	41.93
623.744	41.93
623.935	41.81
624.126	41.87
624.317	42.34
624.508	42.37
624.698	42.36
624.889	42.4
625.08	42.86
625.271	43.06
625.462	42.88
625.653	42.68
625.844	42.97
626.034	42.78
626.225	42.69
626.416	42.36
626.607	42.49
626.798	42.39
626.988	42.25
627.179	42.16
627.37	42.14
627.56	42.4
627.751	42.46
627.942	42.36
628.132	42.58
628.323	42.52
628.514	42.63
628.704	42.54
628.895	42.66
629.085	42.77
629.276	42.59
629.466	42.49
629.657	42.29
629.847	42.37
630.038	42.71
630.228	42.77
630.419	43.05
630.609	43.13
630.8	43.11
630.99	43.36
631.181	43.66
631.371	44.13
631.561	44.04
631.752	44.2
631.942	44.26
632.132	43.84
632.323	44.01
632.513	43.95
632.703	43.74
632.893	43.73
633.084	43.76
633.274	43.68
633.464	43.3
633.654	43.51
633.844	43.4
634.034	43.42
634.225	43.12
634.415	43.1
634.605	42.96
634.795	42.9
634.985	43.23
635.175	43.23
635.365	43.28
635.555	43.22
635.745	43.13
635.935	43.46
636.125	43.13
636.315	43.68
636.505	43.33
636.695	43.21
636.885	43.3
637.075	43.25
637.265	43.27
637.455	43.3
637.644	43.29
637.834	43.35
638.024	42.81
638.214	43.03
638.404	42.83
638.593	43.1
638.783	43.49
638.973	43.49
639.163	43.37
639.352	43.28
639.542	43.24
639.732	43.41
639.921	43.38
640.111	44.1
640.301	44.12
640.49	44.07
640.68	44.34
640.87	44.5
641.059	44.54
641.249	44.85
641.438	44.87
641.628	45.09
641.817	45.25
642.007	45.27
642.196	45.06
642.386	45.23
642.575	45.64
642.764	45.38
642.954	44.87
643.143	45.12
643.333	44.92
643.522	44.64
643.711	43.94
643.901	44.07
644.09	44.13
644.279	44.07
644.469	44
644.658	43.4
644.847	43.14
645.036	43.7
645.226	43.91
645.415	43.83
645.604	44.04
645.793	44.38
645.982	44.13
646.171	44.09
646.361	43.96
646.55	44.18
646.739	44.53
646.928	45.03
647.117	44.95
647.306	44.91
647.495	44.84
647.684	44.93
647.873	45.37
648.062	45.5
648.251	45.68
648.44	45.73
648.629	44.8
648.818	44.61
649.007	44.3
649.196	44.2
649.384	43.83
649.573	43.75
649.762	43.59
649.951	43.25
650.14	43.27
650.328	42.93
650.517	42.86
650.706	43.68
650.895	43.66
651.083	44.48
651.272	44.67
651.461	44.73
651.65	44.55
651.838	44.96
652.027	45.01
652.216	44.85
652.404	44.93
652.593	44.97
652.781	45.02
652.97	45.41
653.158	44.7
653.347	44.39
653.535	44.19
653.724	44.61
653.912	44.54
654.101	44.21
654.289	44.61
654.478	45.17
654.666	44.87
654.855	44.89
655.043	44.87
655.231	44.89
655.42	45.27
655.608	45.55
655.796	45.48
655.985	45.41
656.173	45.68
656.361	45.34
656.55	44.76
656.738	45.42
656.926	45.56
657.114	45.29
657.302	45.21
657.491	44.58
657.679	44.54
657.867	44.48
658.055	44.92
658.243	44.92
658.431	45.08
658.619	45.09
658.807	45.02
658.996	44.79
659.184	45.03
659.372	45.11
659.56	45.13
659.748	45.38
659.936	45.8
660.124	45.46
660.311	45.32
660.499	45.11
660.687	44.95
660.875	44.78
661.063	44.77
661.251	44.71
661.439	44.95
661.627	45.21
661.814	44.98
662.002	44.43
662.19	44.11
662.378	44.14
662.565	44.6
662.753	45.29
662.941	45.62
663.129	45.66
663.316	45.71
663.504	45.35
663.692	45
663.879	44.86
664.067	44.93
664.254	45.53
664.442	45.97
664.63	46.16
664.817	46.3
665.005	45.85
665.192	46.31
665.38	46.51
665.567	46.49
665.755	46.93
665.942	47.13
666.13	47.16
666.317	46.71
666.504	46.7
666.692	46.27
666.879	45.68
667.067	46.42
667.254	45.99
667.441	45.41
667.629	45.89
667.816	46.02
668.003	46.44
668.19	47.03
668.378	47.53
668.565	47.45
668.752	47.21
668.939	47.05
669.127	46.24
669.314	46.07
669.501	46.49
669.688	46.72
669.875	46.6
670.062	46.43
670.249	46.25
670.436	45.86
670.623	45.81
670.81	46.31
670.997	46.48
671.184	46.89
671.371	47.62
671.558	47.28
671.745	46.9
671.932	46.61
672.119	46.21
672.306	46.49
672.493	46.51
672.68	47.03
672.867	47.66
673.054	47.92
673.24	47.85
673.427	47.27
673.614	47.63
673.801	47.68
673.988	48.13
674.174	48.93
674.361	48.27
674.548	48.06
674.734	47.16
674.921	45.8
675.108	45.6
675.294	45.4
675.481	45.54
675.668	45.42
675.854	45.52
676.041	45.23
676.227	44.88
676.414	45.42
676.601	45.62
676.787	45.73
676.974	46.44
677.16	46.51
677.347	46.86
677.533	47.26
677.719	47.17
677.906	46.88
678.092	47.55
678.279	47.16
678.465	46.97
678.651	47.33
678.838	47.44
679.024	47.22
679.21	46.43
679.397	46
679.583	45.53
679.769	45.43
679.955	45.55
680.142	44.93
680.328	45.34
680.514	45.09
680.7	44.71
680.886	44.88
681.073	44.92
681.259	46.03
681.445	46
681.631	45.97
681.817	46.09
682.003	46.08
682.189	46.31
682.375	46.02
682.561	46.17
682.747	45.91
682.933	45.82
683.119	45.43
683.305	44.98
683.491	45.29
683.677	46
683.863	46.09
684.049	46.26
684.235	46.49
684.42	46.52
684.606	46.37
684.792	46.88
684.978	47.17
685.164	47.5
685.349	48.01
685.535	48.64
685.721	47.95
685.907	47.79
686.092	46.93
686.278	46.89
686.464	47.09
686.649	47.68
686.835	47.73
687.021	48.17
687.206	48.19
687.392	48.37
687.577	48.07
687.763	48.45
687.948	49
688.134	49.34
688.319	49.47
688.505	49.74
688.69	49.23
688.876	49.08
689.061	48.17
689.247	48.28
689.432	47.76
689.618	47.42
689.803	47.03
689.988	46.41
690.174	46.73
690.359	46.54
690.544	46.23
690.73	46.56
690.915	46.66
691.1	46.38
691.285	46.44
691.471	46.33
691.656	46.07
691.841	46.07
692.026	46.49
692.211	46.14
692.396	45.74
692.582	46.25
692.767	45.95
692.952	45.82
693.137	46.76
693.322	46.46
693.507	46.75
693.692	47.08
693.877	47.36
694.062	47.34
694.247	48.21
694.432	48.51
694.617	47.93
694.802	47.49
694.987	47.61
695.172	47.02
695.357	47.22
695.541	46.96
695.726	47.27
695.911	47.51
696.096	47.78
696.281	46.95
696.466	47.42
696.65	47.69
696.835	47.98
697.02	47.64
697.204	48.21
697.389	47.92
697.574	47.85
697.759	47.48
697.943	47.04
698.128	46.82
698.312	47.24
698.497	46.69
698.682	46.64
698.866	46.6
699.051	47.06
699.235	46.75
699.42	47.01
699.604	47.28
699.789	47.68
699.973	47.93
700.158	47.58
700.342	47.43
700.527	47.78
700.711	47.8
700.895	48.06
701.08	48.15
701.264	48.35
701.448	48.29
701.633	47.91
701.817	47.4
702.001	47.88
702.186	48.5
702.37	48.14
702.554	48.1
702.738	48.26
702.923	48.09
703.107	47.74
703.291	48.42
703.475	48.14
703.659	48.16
703.843	48.37
704.027	48.1
704.212	47.37
704.396	48.64
704.58	48.3
704.764	48.11
704.948	47.69
705.132	48.05
705.316	47.46
705.5	48.16
705.684	48.13
705.868	48.04
706.052	47.8
706.235	49.35
706.419	48.78
706.603	49
706.787	48.34
706.971	49.49
707.155	48.7
707.339	48.4
707.522	48.02
707.706	47.88
707.89	48.45
708.074	49.36
708.257	48.44
708.441	48.24
708.625	48.55
708.808	48.78
708.992	48.54
709.176	48.92
709.359	49.09
709.543	49
709.727	49.15
709.91	48.77
710.094	47.84
710.277	48.1
710.461	47.97
710.644	48.34
710.828	49.04
711.011	48.49
711.195	48.18
711.378	47.75
711.562	47.64
711.745	47.83
711.928	47.12
712.112	47.2
712.295	46.98
712.478	46.73
712.662	46.67
712.845	46.12
713.028	46.16
713.212	46.94
713.395	47.12
713.578	47.64
713.761	48.21
713.945	48.73
714.128	48.64
714.311	48.5
714.494	48.68
714.677	48.09
714.86	48.13
715.043	48.24
715.227	47.55
715.41	48.07
715.593	48.09
715.776	47.6
715.959	47.73
716.142	47.81
716.325	47.76
716.508	47.99
716.691	48.32
716.874	48.36
717.057	48.03
717.239	48.59
717.422	48.2
717.605	47.98
717.788	48.12
717.971	48.65
718.154	48.94
718.337	49.77
718.519	49.68
718.702	49.31
718.885	49.09
719.068	49.92
719.25	50.21
719.433	50.71
719.616	51.24
719.798	51.77
719.981	51.47
720.164	50.58
720.346	50.28
720.529	50.73
720.712	50.98
720.894	52.08
721.077	51.25
721.259	50.25
721.442	50.92
721.624	50.31
721.807	49.45
721.989	49.37
722.172	49.73
722.354	49.91
722.537	49.69
722.719	49.66
722.901	49.75
723.084	49.67
723.266	49.86
723.448	49.06
723.631	48.86
723.813	49.52
723.995	48.91
724.178	49.81
724.36	49.87
724.542	49.71
724.724	49.79
724.907	49.16
725.089	50.19
725.271	51
725.453	51.29
725.635	51.34
725.817	51.16
725.999	52.53
726.181	52.4
726.364	51.34
726.546	51.88
726.728	52.43
726.91	51.21
727.092	51.04
727.274	50.95
727.456	50.03
727.638	49.93
727.819	49.81
728.001	49.67
728.183	49.46
728.365	50.21
728.547	49.51
728.729	49.82
728.911	51.43
729.093	51.58
729.274	50.18
729.456	50.62
729.638	50.98
729.82	50.8
730.001	49.7
730.183	49.09
730.365	48.54
730.546	48.42
730.728	48.12
730.91	47.3
731.091	47.73
731.273	48.69
731.455	48.73
731.636	49.01
731.818	49.22
731.999	49.72
732.181	49.52
732.362	49.54
732.544	50.27
732.725	49.23
732.907	49.08
733.088	48.29
733.27	48.67
733.451	48.23
733.633	48.48
733.814	49.28
733.995	48.94
734.177	50.16
734.358	50.2
734.539	50.23
734.721	51.3
734.902	51.59
735.083	52.71
735.264	51.63
735.446	52.07
735.627	51.89
735.808	51.15
735.989	51.99
736.17	51.28
736.351	51.42
736.533	50.89
736.714	50.77
736.895	50.84
737.076	49.53
737.257	50.4
737.438	50.17
737.619	49.55
737.8	48.43
737.981	48.1
738.162	47.99
738.343	47.52
738.524	47.95
738.705	48.03
738.886	48.11
739.067	48.32
739.247	47.73
739.428	47.66
739.609	48.37
739.79	49.69
739.971	49.5
740.151	49.84
740.332	50.12
740.513	49.67
740.694	49.32
740.874	49.17
741.055	48.54
741.236	48.64
741.417	49.24
741.597	49.04
741.778	49.08
741.958	48.82
742.139	48.81
742.32	48.76
742.5	49.28
742.681	50.28
742.861	50.85
743.042	51.08
743.222	51.27
743.403	50.37
743.583	50.37
743.764	50.84
743.944	52.12
744.124	52.81
744.305	52.82
744.485	52.06
744.666	50.76
744.846	51.37
745.026	52.6
745.207	53.43
745.387	54.53
745.567	54.78
745.747	53.33
745.928	51.66
746.108	51.31
746.288	51.68
746.468	52.79
746.648	53.06
746.829	52.58
747.009	51.51
747.189	50.87
747.369	50.45
747.549	50.16
747.729	49.69
747.909	50.3
748.089	50.23
748.269	50.08
748.449	50.14
748.629	50.45
748.809	49.93
748.989	50.81
749.169	50.81
749.349	51.72
749.529	52.1
749.709	53.4
749.889	52.96
750.068	51.93
750.248	52.05
750.428	51.83
750.608	51.01
750.788	51.62
750.967	50.67
751.147	50.44
751.327	49.63
751.507	49.03
751.686	47.92
751.866	49.01
752.046	49.73
752.225	49.88
752.405	49.58
752.585	50.05
752.764	49.81
752.944	48.98
753.123	50.74
753.303	50.37
753.482	49.86
753.662	51.14
753.841	51.28
754.021	51.17
754.2	51.37
754.38	51.46
754.559	52.04
754.739	52.31
754.918	54.13
755.097	52.43
755.277	51.93
755.456	51.77
755.635	51.82
755.815	51.58
755.994	51.7
756.173	50.46
756.352	49.9
756.532	50.19
756.711	49.92
756.89	49.09
757.069	49.79
757.248	49.95
757.427	50.45
757.607	50.51
757.786	49.8
757.965	49.67
758.144	50.17
758.323	50.34
758.502	49.66
758.681	49.31
758.86	50.26
759.039	49.58
759.218	48.91
759.397	49.15
759.576	48.06
759.755	48.45
759.934	47.67
760.113	48.37
760.291	48.28
760.47	49.05
760.649	48.86
760.828	48.1
761.007	47.65
761.186	49.06
761.364	48.31
761.543	48.98
761.722	48.96
761.901	48.94
762.079	49.8
762.258	49.53
762.437	48.34
762.615	48.58
762.794	49.04
762.972	49.84
763.151	48.72
763.33	49.31
763.508	49.59
763.687	49.41
763.865	50.28
764.044	48.91
764.222	48.5
764.401	47.88
764.579	47.71
764.758	47.11
764.936	47.02
765.114	48.13
765.293	47.96
765.471	47.04
765.65	47.32
765.828	46.98
766.006	47.84
766.184	49.17
766.363	51.29
766.541	51.17
766.719	50.97
766.898	51.11
767.076	51.11
767.254	50.99
767.432	51.64
767.61	50.51
767.788	50.9
767.967	50.84
768.145	49.84
768.323	49.22
768.501	49.05
768.679	49.5
768.857	49.93
769.035	50.77
769.213	52.04
769.391	52.57
769.569	54.04
769.747	53.96
769.925	53.35
770.103	54.05
770.281	53.34
770.459	53.95
770.636	54.72
770.814	54.75
770.992	52.87
771.17	52.98
771.348	52.65
771.525	52.27
771.703	52.75
771.881	54.09
772.059	55.94
772.236	56.12
772.414	56.76
772.592	56.06
772.769	54.94
772.947	55.26
773.125	52.95
773.302	53.09
773.48	53.78
773.657	53.22
773.835	52.02
774.013	51.34
774.19	51.59
774.368	51.32
774.545	52.07
774.723	52.07
774.9	52.23
775.077	52.62
775.255	51.14
775.432	50.9
775.61	50.18
775.787	50.21
775.964	48.58
776.142	48.9
776.319	48.47
776.496	49.44
776.674	50.96
776.851	53.44
777.028	56.47
777.205	57.45
777.382	57.4
777.56	58.51
777.737	62.72
777.914	63.7
778.091	61.58
778.268	62.52
778.445	61.91
778.622	60.42
778.8	59.76
778.977	58.67
779.154	62.66
779.331	62.52
779.508	61.34
779.685	57.74
779.862	58.41
780.038	59.7
780.215	59.72
780.392	60.18
780.569	60.12
780.746	57.69
780.923	54.48
781.1	49.81
781.277	48.25
781.453	49.36
781.63	47.79
781.807	48.62
781.984	48.01
782.16	47.17
782.337	46.85
782.514	47.6
782.691	48.54
782.867	50.49
783.044	52.72
783.221	53.66
783.397	53.9
783.574	55.22
783.75	52.98
783.927	55.51
784.103	56.67
784.28	54.45
784.456	54.87
784.633	56.23
784.809	59.35
784.986	56.59
785.162	57.91
785.339	55.66
785.515	56.05
785.692	56.68
785.868	55.05
786.044	55.1
786.221	56.44
786.397	57.37
786.573	56.27
786.749	52.97
786.926	54.38
787.102	54.12
787.278	54.18
787.454	54.4
787.631	55.38
787.807	55.48
787.983	55.76
788.159	55.41
788.335	55.18
788.511	56.62
788.687	56.82
788.863	58.32
789.039	58.38
789.216	59.5
789.392	59.7
789.568	57.28
789.744	57.92
789.919	57.09
790.095	58.61
790.271	58.73
790.447	56.43
790.623	57.27
790.799	55.76
790.975	54.12
791.151	53.49
791.327	53.12
791.502	54.61
791.678	54.15
791.854	55.32
792.03	53.91
792.205	53.99
792.381	53.1
792.557	50.23
792.733	48.47
792.908	49.46
793.084	51.83
793.259	51.8
793.435	50.99
793.611	53.59
793.786	53.51
793.962	51.72
794.137	49.81
794.313	50.81
794.488	54.98
794.664	56.07
794.839	58.31
795.015	56.93
795.19	56.95
795.366	56.52
795.541	54.51
795.716	51.74
795.892	52.07
796.067	52.51
796.242	54.89
796.418	53.84
796.593	54.66
796.768	53.13
796.944	53.21
797.119	53.22
797.294	55.9
797.469	56.87
797.644	56.01
797.82	58.59
797.995	59.54
798.17	58.92
798.345	56.14
798.52	55.73
798.695	54.78
798.87	53.14
799.045	54.32
799.22	52.01
799.395	50.79
799.57	52.35
799.745	52.17
799.92	51.34
800.095	50.61
800.27	52.29
800.445	52.97
800.62	53.44
800.795	55.55
800.97	56.84
801.145	61.06
801.319	61.53
801.494	63.63
801.669	62.81
801.844	63.56
802.018	61.82
802.193	61.7
802.368	59.65
802.543	61.99
802.717	64.97
802.892	61.89
803.067	59.16
803.241	58.77
803.416	59.28
803.59	60.3
803.765	58.82
803.94	62.42
804.114	63
804.289	64.42
804.463	61.6
804.638	53.54
804.812	54.55
804.986	53.59
805.161	52.72
805.335	53.65
805.51	53.71
805.684	54.19
805.858	52.75
806.033	51.96
806.207	51.87
806.381	53.74
806.556	56.26
806.73	54.82
806.904	55.05
807.078	57.16
807.253	56.1
807.427	56.08
807.601	55.3
807.775	55.79
807.949	55.72
808.123	54.26
808.298	54.03
808.472	56.59
808.646	57.4
808.82	57.49
808.994	52.41
809.168	51.67
809.342	53.59
809.516	56.97
809.69	56.75
809.864	59.67
810.038	62.42
810.212	61.65
810.385	61.5
810.559	62.37
810.733	62.28
810.907	65.07
811.081	65.22
811.255	64.63
811.428	61.08
811.602	61.29
811.776	59.31
811.95	60.02
812.123	58.26
812.297	56.22
812.471	56.86
812.644	59.03
812.818	60.78
812.992	62.82
813.165	61.83
813.339	63.69
813.512	63.23
813.686	62.68
813.86	60.1
814.033	63.23
814.207	64.28
814.38	61.42
814.554	63.58
814.727	65.55
814.9	65.71
815.074	64.61
815.247	60.68
815.421	58.25
815.594	58.5
815.767	59.16
815.941	56.22
816.114	60.42
816.287	61.3
816.46	58.04
816.634	58.03
816.807	59.95
816.98	58.96
817.153	62.63
817.327	66.85
817.5	66.89
817.673	69.43
817.846	70.69
818.019	68.69
818.192	69.99
818.365	66.69
818.538	66.55
818.711	61.42
818.884	58.02
819.057	58.57
819.23	55.81
819.403	56.24
819.576	54.12
819.749	54.24
819.922	51.06
820.095	50.55
820.268	51.48
820.441	51.03
820.614	53.35
820.786	52.85
820.959	53.28
821.132	51.91
821.305	49.72
821.477	48.67
821.65	47.88
821.823	49.29
821.996	49.28
822.168	49.75
822.341	48.94
822.514	48.46
822.686	49.58
822.859	48.33
823.031	48.15
823.204	48.37
823.376	48.25
823.549	48.51
823.722	48.28
823.894	48.22
824.067	47.78
824.239	48.03
824.411	47.36
824.584	47.52
824.756	48.08
824.929	48.14
825.101	48.13
825.273	48.89
825.446	48.33
825.618	48.54
825.79	48.71
825.963	48.88
826.135	49.29
826.307	50.71
826.479	50.55
826.652	50.88
826.824	52.25
826.996	51.63
827.168	51.61
827.34	52.89
827.512	52.51
827.684	52.29
827.856	51.98
828.029	50.96
828.201	50.47
828.373	50.8
828.545	50.84
828.717	50.29
828.889	51.73
829.061	51.94
829.232	51.8
829.404	51.95
829.576	52.07
829.748	52.23
829.92	54.2
830.092	54.28
830.264	52.89
830.436	51.29
830.607	51.22
830.779	51.66
830.951	50.34
831.123	49.98
831.294	49.55
831.466	50.07
831.638	51.03
831.809	49.75
831.981	49.52
832.153	48.66
832.324	49.15
832.496	49.3
832.667	51.81
832.839	54.72
833.011	54.92
833.182	54.83
833.354	53.78
833.525	53.37
833.697	52.01
833.868	51.19
834.039	54.89
834.211	56.83
834.382	57.25
834.554	54.92
834.725	52.87
834.896	51.99
835.068	52.5
835.239	52.74
835.41	54.53
835.581	55.73
835.753	56.97
835.924	56.06
836.095	53.67
836.266	54.71
836.438	52.64
836.609	53.83
836.78	54.5
836.951	55.3
837.122	55.08
837.293	53.8
837.464	52.25
837.635	52.73
837.806	51.33
837.977	53.97
838.148	51.99
838.319	55.45
838.49	57.26
838.661	57.06
838.832	58.59
839.003	57.24
839.174	57.88
839.345	60.44
839.516	56.79
839.687	61.72
839.857	56.16
840.028	55.48
840.199	56
840.37	54.32
840.54	56.5
840.711	55.82
840.882	60.44
841.053	60.11
841.223	61.57
841.394	69.59
841.564	66.92
841.735	77.14
841.906	80.68
842.076	82.91
842.247	81.98
842.417	81.29
842.588	79.02
842.758	79.89
842.929	84.34
843.099	82.72
843.27	75.94
843.44	76.67
843.611	75.36
843.781	75.62
843.951	74.59
844.122	74.23
844.292	72.59
844.462	75.32
844.633	75.15
844.803	67.33
844.973	67.42
845.144	73.6
845.314	69.45
845.484	69.09
845.654	67.88
845.824	67.3
845.995	63.67
846.165	72.24
846.335	72.73
846.505	68.02
846.675	79.13
846.845	81.29
847.015	86.22
847.185	94.97
847.355	92.04
847.525	90.25
847.695	101.21
847.865	125.37
848.035	115.75
848.205	115.46
848.375	122.41
848.545	125.03
848.715	114.32
848.884	96.17
849.054	88.81
849.224	82.06
849.394	88.54
849.564	80.07
849.733	79.79
849.903	72.08
850.073	67.76
850.243	67.16
850.412	65.19
850.582	71.41
850.752	76.43
850.921	76.9
851.091	97.97
851.26	103.57
851.43	102.8
851.599	93.16
851.769	95.46
851.939	92.96
852.108	87.66
852.278	80.71
852.447	82.63
852.616	77.54
852.786	73.6
852.955	65.02
853.125	53.91
853.294	55.67
853.463	61.5
853.633	59.88
853.802	72.23
853.971	85.23
854.141	87.89
854.31	73.76
854.479	75.05
854.648	105.61
854.818	102.22
854.987	97.06
855.156	98.31
855.325	88.58
855.494	102.62
855.663	95.98
855.832	96.6
856.001	94.99
856.171	98.04
856.34	101.78
856.509	94.74
856.678	96.59
856.847	105.35
857.016	105.78
857.185	116.03
857.353	117.91
857.522	111.74
857.691	100.54
857.86	101.48
858.029	105.08
858.198	104.76
858.367	100.84
858.535	94.81
858.704	102.82
858.873	96.98
859.042	86.94
859.21	85.68
859.379	82.48
859.548	79.9
859.717	79.6
859.885	79.71
860.054	75.21
860.222	73.11
860.391	72.18
860.56	74.06
860.728	78.05
860.897	79.03
861.065	73.93
861.234	74.02
861.402	73.38
861.571	68.04
861.739	68.53
861.908	67.63
862.076	71.3
862.244	70.46
862.413	66.98
862.581	73.39
862.749	79.2
862.918	78.98
863.086	78.82
863.254	84.17
863.423	95.75
863.591	93.66
863.759	94.56
863.927	97.38
864.096	101.24
864.264	92.37
864.432	83.91
864.6	94.61
864.768	102.1
864.936	115.51
865.104	114.01
865.272	99.72
865.44	105.94
865.608	112.62
865.776	111.65
865.944	117.82
866.112	121
866.28	124.07
866.448	108.86
866.616	115.44
866.784	94.12
866.952	90.27
867.12	101.95
867.288	99.11
867.455	98.23
867.623	102.42
867.791	109.24
867.959	117.2
868.127	102.68
868.294	89.53
868.462	72.27
868.63	90.27
868.797	84.2
868.965	75.72
869.133	72.16
869.3	70.76
869.468	79.81
869.636	64.13
869.803	62.43
869.971	63.09
870.138	70.86
870.306	76.74
870.473	67.31
870.641	67.31
870.808	66.3
870.975	63.1
871.143	60.57
871.31	53.28
871.478	50.19
871.645	49.49
871.812	63.49
871.98	65.23
872.147	56.67
872.314	57.64
872.482	61.92
872.649	67.54
872.816	70.46
872.983	74.89
873.15	79.12
873.318	89.04
873.485	106.91
873.652	89.9
873.819	92.71
873.986	105.82
874.153	122.61
874.32	130.54
874.487	137.28
874.654	172.14
874.821	188.6
874.988	186.46
875.155	217.06
875.322	151.87
875.489	184.04
875.656	175.52
875.823	156.99
875.99	120.83
876.157	101.71
876.324	99.53
876.49	84.91
876.657	89.71
876.824	89.78
876.991	78.22
877.157	83.24
877.324	80.25
877.491	80.38
877.658	82.07
877.824	86.6
877.991	84.17
878.157	86.54
878.324	89.84
878.491	84.15
878.657	81.71
878.824	85.11
878.99	82.26
879.157	81.02
879.323	74.9
879.49	71.39
879.656	75.63
879.823	86.08
879.989	82.43
880.156	86.71
880.322	79.35
880.488	75.3
880.655	67.94
880.821	66.69
880.987	68.91
881.154	66.8
881.32	66.69
881.486	65.7
881.652	63.99
881.819	59.84
881.985	56.18
882.151	59.16
882.317	56.96
882.483	56.81
882.649	55.38
882.816	53.63
882.982	54.66
883.148	52.09
883.314	50.63
883.48	49.18
883.646	49.94
883.812	50.53
883.978	50.31
884.144	51.56
884.31	53.03
884.476	52.18
884.642	52.36
884.807	53.53
884.973	54.75
885.139	55
885.305	53.61
885.471	53.36
885.637	51.83
885.802	51.2
885.968	51.04
886.134	50.61
886.3	54.35
886.465	53.29
886.631	52.17
886.797	55.55
886.962	56.5
887.128	60.77
887.293	65.16
887.459	67.06
887.625	67.7
887.79	72.09
887.956	68.67
888.121	69
888.287	73.43
888.452	74.71
888.618	68.48
888.783	69.21
