Data from CB_036_Reflection_21-35-11-958.txt Node
Date: Wed Nov 11 21:35:11 EST 2015
User: robert
Spectrometer: USB4E03001
Autoset integration time: false
Trigger mode: 4
Integration Time (sec): 1.000000E-1
Scans to average: 15
Electric dark correction enabled: true
Nonlinearity correction enabled: false
Boxcar width: 5
Stray light correction enabled: false
XAxis mode: Wavelengths
Stop averaging: false
Number of Pixels in Spectrum: 3648
>>>>>Begin Spectral Data<<<<<
177.566	-114.69
177.785	-729.61
178.005	76.16
178.225	68.94
178.445	84.71
178.665	88.44
178.885	695.1
179.105	-49.16
179.324	-5.86
179.544	29.9
179.764	53.81
179.984	58.39
180.204	74.49
180.423	126.83
180.643	118.19
180.863	99.79
181.083	99.9
181.302	100.1
181.522	80.12
181.742	81.3
181.961	121.81
182.181	123.46
182.401	110.45
182.621	107.88
182.84	88.26
183.06	81.44
183.279	79.96
183.499	93.19
183.719	91.23
183.938	98.7
184.158	104.85
184.377	88.07
184.597	87.72
184.816	113.84
185.036	110.58
185.256	117.27
185.475	129.5
185.695	143.21
185.914	110.89
186.134	149.91
186.353	154.35
186.572	99.13
186.792	96.18
187.011	88.71
187.231	50.14
187.45	74.11
187.67	58.16
187.889	51.85
188.108	66.38
188.328	65.14
188.547	56.86
188.766	69.17
188.986	93.67
189.205	72.06
189.424	65.97
189.644	78.1
189.863	56.95
190.082	67.96
190.302	66.17
190.521	74.19
190.74	71.91
190.959	65.57
191.178	55.57
191.398	56.27
191.617	65.67
191.836	66.72
192.055	51.09
192.274	45.01
192.494	47.8
192.713	62.88
192.932	62.04
193.151	66.26
193.37	81.84
193.589	101.82
193.808	94.95
194.027	88.24
194.246	82.46
194.465	101.02
194.685	107.25
194.904	89.95
195.123	70.78
195.342	72.41
195.561	81.77
195.78	65.87
195.999	55.36
196.218	56.46
196.436	46.58
196.655	70.51
196.874	45.26
197.093	70.66
197.312	73.62
197.531	80.05
197.75	69.48
197.969	52.32
198.188	59.55
198.407	47.79
198.625	57.29
198.844	76.88
199.063	72.3
199.282	67.86
199.501	67.27
199.719	53.85
199.938	68.97
200.157	107.02
200.376	109.49
200.594	162.14
200.813	137.76
201.032	149.61
201.251	196.19
201.469	134.54
201.688	143.13
201.907	94.86
202.125	89
202.344	81.83
202.563	74.38
202.781	70.86
203	37.98
203.218	32.15
203.437	41.09
203.656	36.49
203.874	31.06
204.093	22.32
204.311	36.32
204.53	49.05
204.748	58.22
204.967	61.8
205.185	59.67
205.404	85.21
205.622	76.92
205.841	72.67
206.059	62.73
206.278	97.57
206.496	94.59
206.715	76.9
206.933	77.09
207.151	76.47
207.37	73.29
207.588	74.23
207.806	67.11
208.025	67.25
208.243	59.65
208.461	67.26
208.68	51.73
208.898	64.96
209.116	59.78
209.335	56.8
209.553	42.93
209.771	50.73
209.989	55.01
210.208	52.69
210.426	75.49
210.644	70.02
210.862	81.94
211.081	94.64
211.299	110.71
211.517	147.29
211.735	109.95
211.953	128.77
212.171	130.57
212.39	122.18
212.608	130.12
212.826	104.6
213.044	120.81
213.262	104.94
213.48	94.63
213.698	88.34
213.916	58.57
214.134	62.9
214.352	39.56
214.57	46.89
214.788	24.03
215.006	-30.95
215.224	-3.02
215.442	-38.48
215.66	-21.67
215.878	34.87
216.096	31.82
216.314	21.41
216.532	27.41
216.75	46.42
216.968	44.05
217.185	49.31
217.403	55.69
217.621	57.3
217.839	56.4
218.057	58.54
218.275	65.58
218.492	75.04
218.71	78.61
218.928	80.27
219.146	77.78
219.363	81.34
219.581	105.5
219.799	108.01
220.017	108.24
220.234	98.69
220.452	83.14
220.67	57.84
220.887	24.96
221.105	23.24
221.323	14.58
221.54	7.82
221.758	18.24
221.976	18.42
222.193	24.65
222.411	26.55
222.629	20.2
222.846	14.93
223.064	18.79
223.281	37.09
223.499	37.88
223.716	39.01
223.934	41.84
224.151	34.03
224.369	21.02
224.586	22.35
224.804	17.82
225.021	22.45
225.239	26.21
225.456	20.36
225.674	13.02
225.891	21.08
226.108	25.34
226.326	11.17
226.543	13.7
226.76	22.14
226.978	6.59
227.195	7.93
227.413	14.67
227.63	20.52
227.847	20.97
228.064	23.24
228.282	17.16
228.499	13.75
228.716	16.08
228.934	14.91
229.151	14.17
229.368	14.64
229.585	16.63
229.802	14.69
230.02	10.89
230.237	11.39
230.454	10.11
230.671	10.39
230.888	7.37
231.105	10.09
231.323	13.24
231.54	15.36
231.757	15.37
231.974	13.89
232.191	13.86
232.408	19.29
232.625	15.7
232.842	16.26
233.059	19.19
233.276	24.45
233.493	21.28
233.71	23.45
233.927	21.12
234.144	21.38
234.361	21.41
234.578	20.24
234.795	19.95
235.012	24.04
235.229	29.41
235.446	30.97
235.663	31.9
235.879	29.41
236.096	24.97
236.313	25.79
236.53	31.88
236.747	32.31
236.964	35.75
237.181	34.29
237.397	30.48
237.614	27.73
237.831	25.06
238.048	26.73
238.264	26.57
238.481	27.35
238.698	29.48
238.915	26.52
239.131	25.8
239.348	27.97
239.565	27.2
239.781	27.72
239.998	24.87
240.215	24.27
240.431	24.17
240.648	26.69
240.865	25.24
241.081	24.37
241.298	23.02
241.514	21.07
241.731	19.86
241.947	17.81
242.164	17.92
242.38	17.76
242.597	18.15
242.814	17.35
243.03	17.48
243.246	17
243.463	16.23
243.679	16.42
243.896	18.03
244.112	18.47
244.329	21.63
244.545	21.03
244.762	21.22
244.978	22.1
245.194	22.7
245.411	20.48
245.627	21.88
245.843	21.09
246.06	19.06
246.276	18.18
246.492	16.53
246.709	15.1
246.925	15.29
247.141	15.44
247.357	14.23
247.574	13.66
247.79	13.83
248.006	12.91
248.222	13.33
248.439	14.16
248.655	14.93
248.871	14.64
249.087	14.6
249.303	15.33
249.519	13.89
249.736	14.22
249.952	14.37
250.168	15.77
250.384	15.7
250.6	16.89
250.816	17.83
251.032	14.85
251.248	17.78
251.464	16.49
251.68	16.98
251.896	18.24
252.112	17.93
252.328	15.83
252.544	15.44
252.76	16.05
252.976	13.48
253.192	12.78
253.408	14.93
253.624	13.45
253.84	14.2
254.056	13.36
254.272	15.57
254.487	16.49
254.703	19.3
254.919	19.48
255.135	19.26
255.351	21.2
255.567	23.1
255.782	21.16
255.998	21.84
256.214	21.13
256.43	21.71
256.646	19.62
256.861	17.61
257.077	17.87
257.293	16.16
257.508	17.34
257.724	18.03
257.94	15.64
258.155	14.15
258.371	12.87
258.587	13.52
258.802	11.54
259.018	11.45
259.234	11.06
259.449	10.85
259.665	10.77
259.88	10.12
260.096	9.7
260.312	9.41
260.527	9.93
260.743	10.26
260.958	9.61
261.174	9.4
261.389	9.36
261.605	10.18
261.82	10.11
262.036	9.84
262.251	11.21
262.466	12.4
262.682	13
262.897	13.74
263.113	13.51
263.328	13.64
263.543	14.39
263.759	13.96
263.974	14.86
264.189	15.37
264.405	16.14
264.62	13.62
264.835	12.74
265.051	12.31
265.266	11.04
265.481	11.13
265.696	13.7
265.912	13.41
266.127	13.71
266.342	12.19
266.557	12.39
266.773	12.15
266.988	12.5
267.203	9.95
267.418	10.43
267.633	10.1
267.848	11.41
268.064	9.54
268.279	11.02
268.494	10.63
268.709	11.63
268.924	10.31
269.139	10.89
269.354	11.8
269.569	12.46
269.784	15.03
269.999	14.31
270.214	13.16
270.429	13.78
270.644	12.88
270.859	14.74
271.074	14.19
271.289	15.84
271.504	15.79
271.719	15.25
271.934	15.27
272.149	12.71
272.363	14.44
272.578	13.92
272.793	13.94
273.008	13.68
273.223	12.07
273.438	11.28
273.653	11.41
273.867	10.86
274.082	10.24
274.297	10.75
274.512	11.41
274.726	9.15
274.941	9.71
275.156	10.02
275.371	10.26
275.585	10.72
275.8	11.81
276.015	11.25
276.229	10.91
276.444	11.08
276.659	11.11
276.873	12.08
277.088	14.47
277.302	14.19
277.517	14.6
277.732	15.09
277.946	14.68
278.161	15.55
278.375	15.17
278.59	15.95
278.804	15.93
279.019	15.85
279.233	14.47
279.448	12.22
279.662	12.75
279.877	11.04
280.091	10.4
280.306	11.2
280.52	9.74
280.735	9.69
280.949	8.73
281.163	9.61
281.378	8.48
281.592	7.96
281.806	9.38
282.021	9.25
282.235	9.39
282.449	9.79
282.664	9.21
282.878	9.16
283.092	9.68
283.307	11.55
283.521	10.99
283.735	11.64
283.949	13.16
284.164	12.88
284.378	12.2
284.592	12.49
284.806	12.73
285.02	13.31
285.234	14.05
285.449	13.34
285.663	12.45
285.877	12.39
286.091	12.85
286.305	11.29
286.519	10.86
286.733	10.87
286.947	10.42
287.161	9.66
287.375	9.92
287.589	9.63
287.803	9.84
288.017	9.38
288.231	9.94
288.445	10.32
288.659	11.27
288.873	12.11
289.087	11.97
289.301	12.91
289.515	14.12
289.729	13.19
289.943	13.19
290.157	13.21
290.371	13.11
290.584	13.39
290.798	13.25
291.012	13.02
291.226	13.48
291.44	13.49
291.654	13.67
291.867	12.67
292.081	12.26
292.295	12.23
292.509	12.37
292.722	12.86
292.936	11.36
293.15	10.6
293.364	11.2
293.577	10.12
293.791	10.8
294.005	9.53
294.218	10.15
294.432	11.33
294.645	11.23
294.859	10.11
295.073	9.71
295.286	10.74
295.5	11.55
295.713	11.31
295.927	11.24
296.14	11.22
296.354	11.98
296.568	11.38
296.781	11.52
296.994	11.49
297.208	12.9
297.421	12.9
297.635	12.65
297.848	12.56
298.062	12.96
298.275	13.7
298.489	14.23
298.702	14.39
298.915	14.8
299.129	15.61
299.342	15.81
299.555	15.53
299.769	15.58
299.982	15.58
300.195	15.24
300.409	15.53
300.622	15.63
300.835	14.6
301.048	13.67
301.262	14.06
301.475	12.22
301.688	13.21
301.901	12.81
302.115	12.81
302.328	13.46
302.541	13.3
302.754	11.72
302.967	11.39
303.18	13
303.393	13.79
303.607	13.11
303.82	13.68
304.033	12.74
304.246	11.86
304.459	13.33
304.672	12.83
304.885	14.5
305.098	15.37
305.311	15.4
305.524	14.46
305.737	14.45
305.95	14.45
306.163	14.41
306.376	14.31
306.589	14.67
306.802	13.46
307.015	14.19
307.228	12.77
307.44	13.09
307.653	14.37
307.866	14.12
308.079	13.87
308.292	14.03
308.505	13.93
308.718	15.26
308.93	15.85
309.143	16.42
309.356	16.19
309.569	16.17
309.781	16.44
309.994	15.06
310.207	14.87
310.42	14.93
310.632	16.05
310.845	16.16
311.058	15.4
311.27	15.2
311.483	14.45
311.696	14.25
311.908	14.75
312.121	14.72
312.333	14.21
312.546	14.46
312.759	14.79
312.971	13.6
313.184	13.61
313.396	12.79
313.609	13.34
313.821	14.49
314.034	15.11
314.246	15.48
314.459	15.77
314.671	16.98
314.884	17.29
315.096	17.19
315.309	16.83
315.521	16.59
315.733	16.72
315.946	15.21
316.158	14.9
316.371	14.89
316.583	13.39
316.795	12.14
317.008	11.54
317.22	12.28
317.432	12.75
317.644	14.47
317.857	15.52
318.069	16.37
318.281	16.28
318.494	16.86
318.706	16.49
318.918	17.63
319.13	18.99
319.342	19.31
319.555	18.08
319.767	17.88
319.979	17.94
320.191	16.72
320.403	17.98
320.615	19.65
320.827	18.44
321.039	18.34
321.252	18.62
321.464	18.17
321.676	17.87
321.888	19.26
322.1	18.81
322.312	18.14
322.524	17.97
322.736	17.46
322.948	17.29
323.16	17.31
323.372	16.79
323.584	16.6
323.796	15.81
324.007	16.18
324.219	15.93
324.431	15.63
324.643	15.77
324.855	18.07
325.067	17.41
325.279	17.69
325.491	19.04
325.702	19.32
325.914	20.02
326.126	21.25
326.338	20.89
326.55	20.7
326.761	22.16
326.973	22.39
327.185	21.73
327.396	22.3
327.608	22.15
327.82	21.77
328.032	22.85
328.243	22.36
328.455	22.65
328.666	24.14
328.878	24.47
329.09	23.58
329.301	22.49
329.513	21.56
329.725	21.87
329.936	22.59
330.148	22.44
330.359	21.95
330.571	23.12
330.782	22.88
330.994	22.5
331.205	23.46
331.417	23.4
331.628	24.5
331.84	25.46
332.051	24.68
332.262	23.3
332.474	24.4
332.685	24.75
332.897	23.4
333.108	23.93
333.319	23.95
333.531	23.48
333.742	24.63
333.953	25.09
334.165	24.85
334.376	25.46
334.587	26.69
334.799	25.85
335.01	26.19
335.221	26.59
335.432	27.15
335.644	27.58
335.855	27.59
336.066	27.89
336.277	28.28
336.488	28.86
336.7	28.58
336.911	28.17
337.122	28.39
337.333	28.18
337.544	28.73
337.755	28.6
337.966	28
338.177	27.95
338.388	27.2
338.599	26.92
338.811	25.87
339.022	26.08
339.233	26.09
339.444	25.89
339.655	26.27
339.866	25.64
340.076	24.88
340.287	24.85
340.498	25.48
340.709	25.29
340.92	25.01
341.131	26.02
341.342	26.24
341.553	26.68
341.764	26.61
341.975	27.07
342.185	27.02
342.396	26.58
342.607	26.88
342.818	26.42
343.029	26.39
343.239	27.16
343.45	26.57
343.661	26.13
343.872	25.57
344.082	25.49
344.293	24.76
344.504	24.71
344.714	25.74
344.925	25.72
345.136	25.34
345.346	26.11
345.557	25.18
345.768	24.67
345.978	24.5
346.189	25.62
346.399	26.01
346.61	26
346.821	25.92
347.031	25.35
347.242	25.58
347.452	25.83
347.663	25.6
347.873	26.13
348.084	26.75
348.294	27.13
348.504	26.46
348.715	26.09
348.925	25.79
349.136	25.29
349.346	24.28
349.557	23.48
349.767	24.17
349.977	23.42
350.188	22.78
350.398	22.7
350.608	22.39
350.819	22.53
351.029	22.13
351.239	22.56
351.449	23.63
351.66	22.96
351.87	23.88
352.08	23.77
352.29	24.3
352.501	25.15
352.711	24.93
352.921	24.72
353.131	24.68
353.341	25.26
353.552	24.96
353.762	24.14
353.972	25.75
354.182	23.98
354.392	23.42
354.602	22.52
354.812	21.43
355.022	21.73
355.232	22.32
355.442	22.29
355.652	22.2
355.862	22.37
356.072	22.45
356.282	22.31
356.492	23.85
356.702	24.01
356.912	24.41
357.122	24.6
357.332	24.71
357.542	24.62
357.752	24.3
357.962	24.11
358.171	24.08
358.381	24.35
358.591	23.8
358.801	23.14
359.011	22.36
359.221	22.8
359.43	23.19
359.64	22.8
359.85	22.49
360.06	22
360.269	21.98
360.479	22.19
360.689	21.83
360.899	22.1
361.108	22.51
361.318	22.62
361.528	22.37
361.737	21.93
361.947	21.93
362.156	21.73
362.366	22.46
362.576	22.55
362.785	22.48
362.995	22.67
363.204	22.6
363.414	22.12
363.623	22.5
363.833	22.21
364.042	21.94
364.252	22.55
364.461	22.73
364.671	22.24
364.88	22.3
365.09	21.76
365.299	21.15
365.509	21.07
365.718	21.65
365.927	21.09
366.137	20.95
366.346	21.75
366.555	21.59
366.765	21.11
366.974	21.53
367.183	21.2
367.393	21.3
367.602	21.6
367.811	21.93
368.021	20.93
368.23	20.91
368.439	21.29
368.648	21.4
368.857	20.51
369.067	20.27
369.276	19.85
369.485	19.83
369.694	19.78
369.903	19.99
370.112	19.56
370.321	20.13
370.531	20.36
370.74	20.28
370.949	19.4
371.158	19.07
371.367	19.68
371.576	19.43
371.785	19.32
371.994	19.36
372.203	18.9
372.412	19.14
372.621	19.12
372.83	18.79
373.039	18.89
373.248	19.21
373.457	19.81
373.666	19.59
373.874	19.49
374.083	18.92
374.292	18.59
374.501	18.82
374.71	18.41
374.919	17.89
375.128	18.32
375.336	17.88
375.545	17.61
375.754	17.24
375.963	17.16
376.171	17.41
376.38	17.5
376.589	17.59
376.798	17
377.006	16.71
377.215	16.78
377.424	16.28
377.632	16.05
377.841	15.9
378.05	15.84
378.258	15.65
378.467	15.07
378.675	15.31
378.884	14.73
379.093	14.83
379.301	14.89
379.51	14.75
379.718	15.03
379.927	14.96
380.135	14.84
380.344	14.79
380.552	14.5
380.761	14.85
380.969	14.54
381.177	14.91
381.386	14.91
381.594	14.55
381.803	14.12
382.011	13.68
382.219	13.54
382.428	13.4
382.636	13.33
382.845	13.74
383.053	13.42
383.261	13.65
383.469	13.13
383.678	13.03
383.886	13.07
384.094	13.3
384.302	13.71
384.511	13.76
384.719	13.8
384.927	13.93
385.135	13.89
385.343	14.46
385.552	14.35
385.76	14.61
385.968	14.73
386.176	14.98
386.384	14.77
386.592	14.62
386.8	14.82
387.008	14.93
387.216	14.49
387.424	14.13
387.633	13.14
387.841	13.09
388.049	12.63
388.257	12.37
388.465	12.02
388.672	12.32
388.88	12.14
389.088	11.8
389.296	11.32
389.504	11.15
389.712	11.16
389.92	11.47
390.128	11
390.336	11.24
390.544	11.31
390.751	11.09
390.959	11.1
391.167	10.8
391.375	10.75
391.583	10.88
391.79	10.89
391.998	11.1
392.206	11.06
392.414	11.19
392.621	10.88
392.829	10.84
393.037	10.84
393.244	10.52
393.452	10.72
393.66	10.67
393.867	10.8
394.075	11.18
394.283	11.11
394.49	11.18
394.698	11.26
394.905	11.57
395.113	11.26
395.32	11.41
395.528	11.58
395.735	11.16
395.943	10.97
396.15	10.75
396.358	10.37
396.565	10.3
396.773	10
396.98	9.83
397.188	9.79
397.395	9.83
397.602	9.74
397.81	9.81
398.017	9.99
398.225	9.83
398.432	9.94
398.639	10.01
398.847	9.62
399.054	9.63
399.261	9.31
399.468	9.05
399.676	9.03
399.883	9.01
400.09	8.37
400.297	8.35
400.505	8.39
400.712	8.32
400.919	8.12
401.126	8.29
401.333	7.91
401.54	8.04
401.748	7.98
401.955	8.22
402.162	7.94
402.369	8.33
402.576	8.16
402.783	8.32
402.99	7.91
403.197	7.71
403.404	7.49
403.611	7.91
403.818	8.03
404.025	8.04
404.232	7.87
404.439	7.99
404.646	7.45
404.853	7.43
405.06	7.45
405.267	7.49
405.474	7.4
405.681	7.51
405.887	7.77
406.094	7.85
406.301	7.91
406.508	7.89
406.715	7.86
406.922	8.49
407.128	8.81
407.335	8.52
407.542	8.38
407.749	8.49
407.955	8.33
408.162	7.75
408.369	7.37
408.575	7.39
408.782	7.43
408.989	7.88
409.195	7.37
409.402	6.92
409.609	7.17
409.815	7.33
410.022	7.37
410.228	7.52
410.435	7.57
410.642	7.77
410.848	7.41
411.055	7.39
411.261	7.08
411.468	7.38
411.674	7.55
411.881	7.28
412.087	7.33
412.294	7.52
412.5	7.71
412.706	7.61
412.913	7.34
413.119	7.78
413.326	7.62
413.532	7.43
413.738	7.27
413.945	6.9
414.151	7.18
414.357	7.07
414.564	6.89
414.77	6.69
414.976	6.75
415.182	6.92
415.389	6.44
415.595	6.46
415.801	6.35
416.007	6.38
416.214	6.28
416.42	6.13
416.626	6.21
416.832	6.36
417.038	6.48
417.244	6.34
417.45	6.36
417.657	6.64
417.863	6.55
418.069	6.51
418.275	6.32
418.481	6.49
418.687	6.69
418.893	6.54
419.099	6.73
419.305	6.45
419.511	6.55
419.717	6.69
419.923	6.52
420.129	6.41
420.335	6.46
420.541	6.56
420.746	6.49
420.952	6.17
421.158	6.05
421.364	5.67
421.57	5.61
421.776	5.59
421.982	5.34
422.187	5.38
422.393	5.46
422.599	5.43
422.805	5.33
423.01	5.35
423.216	5.39
423.422	5.63
423.628	5.69
423.833	5.67
424.039	5.67
424.245	5.77
424.45	5.77
424.656	5.73
424.862	5.68
425.067	5.78
425.273	5.83
425.478	5.95
425.684	5.86
425.889	5.83
426.095	5.9
426.301	5.82
426.506	5.78
426.712	5.73
426.917	5.68
427.123	5.67
427.328	5.48
427.533	5.3
427.739	5.21
427.944	5.25
428.15	5.39
428.355	5.51
428.561	5.52
428.766	5.51
428.971	5.66
429.177	5.72
429.382	5.52
429.587	5.71
429.793	5.68
429.998	5.49
430.203	5.16
430.408	5.04
430.614	5.09
430.819	4.96
431.024	5.03
431.229	4.89
431.434	4.92
431.64	5.37
431.845	5.3
432.05	5.6
432.255	5.77
432.46	5.86
432.665	5.83
432.87	5.8
433.076	5.94
433.281	5.74
433.486	5.43
433.691	5.36
433.896	5.09
434.101	5.25
434.306	5.1
434.511	4.96
434.716	5.05
434.921	5.11
435.126	5.06
435.331	5.02
435.535	5
435.74	5.4
435.945	5.16
436.15	5.46
436.355	5.41
436.56	5.34
436.765	5.25
436.97	5.52
437.174	5.41
437.379	5.54
437.584	5.54
437.789	5.73
437.993	5.73
438.198	5.99
438.403	5.69
438.608	5.5
438.812	5.64
439.017	6.03
439.222	5.94
439.426	5.92
439.631	5.66
439.836	5.63
440.04	5.38
440.245	5.22
440.45	5.25
440.654	5.4
440.859	5.45
441.063	5.38
441.268	5.16
441.472	5.1
441.677	5.19
441.881	5.44
442.086	5.43
442.29	5.63
442.495	5.74
442.699	5.66
442.904	5.41
443.108	5.47
443.312	5.48
443.517	5.54
443.721	5.31
443.925	5.27
444.13	5.08
444.334	5.05
444.538	5.01
444.743	4.83
444.947	4.86
445.151	5.06
445.356	4.97
445.56	4.98
445.764	4.98
445.968	5.07
446.173	4.99
446.377	4.95
446.581	5.03
446.785	5.11
446.989	5.11
447.193	5.16
447.398	5.04
447.602	4.99
447.806	4.92
448.01	5
448.214	4.93
448.418	5.01
448.622	5.01
448.826	4.84
449.03	4.77
449.234	4.91
449.438	4.88
449.642	4.93
449.846	5.02
450.05	5.22
450.254	4.99
450.458	5.11
450.662	5.06
450.866	4.97
451.069	4.93
451.273	4.67
451.477	4.47
451.681	4.5
451.885	4.49
452.089	4.34
452.292	4.03
452.496	4
452.7	3.96
452.904	3.87
453.107	4.05
453.311	4.17
453.515	4.27
453.719	4.44
453.922	4.28
454.126	4.34
454.33	4.43
454.533	4.66
454.737	4.84
454.94	4.84
455.144	4.87
455.348	4.73
455.551	4.84
455.755	4.65
455.958	4.61
456.162	4.77
456.365	4.78
456.569	4.87
456.772	4.85
456.976	4.55
457.179	4.69
457.383	4.8
457.586	4.8
457.79	4.6
457.993	4.64
458.196	4.68
458.4	4.57
458.603	4.59
458.807	4.66
459.01	4.7
459.213	4.81
459.417	4.68
459.62	4.66
459.823	4.61
460.026	4.68
460.23	4.8
460.433	4.76
460.636	4.73
460.839	4.71
461.042	4.67
461.246	4.6
461.449	4.51
461.652	4.58
461.855	4.55
462.058	4.67
462.261	4.7
462.464	4.71
462.668	4.71
462.871	4.72
463.074	4.59
463.277	4.53
463.48	4.52
463.683	4.8
463.886	4.79
464.089	4.98
464.292	5.09
464.495	4.92
464.698	5.01
464.901	4.98
465.104	5.07
465.306	5.13
465.509	5.16
465.712	5.18
465.915	5.22
466.118	5.26
466.321	5.24
466.524	5.03
466.726	4.96
466.929	4.88
467.132	4.88
467.335	4.97
467.538	5.26
467.74	5.3
467.943	5.23
468.146	5.02
468.348	5.01
468.551	4.86
468.754	5.03
468.956	5.06
469.159	4.95
469.362	4.89
469.564	4.99
469.767	4.61
469.969	4.64
470.172	4.59
470.375	4.71
470.577	4.79
470.78	4.79
470.982	4.68
471.185	4.96
471.387	5.08
471.59	5
471.792	4.86
471.995	5.01
472.197	5.14
472.399	5.01
472.602	5.04
472.804	5.05
473.007	5.14
473.209	5.05
473.411	4.86
473.614	4.72
473.816	4.85
474.018	4.96
474.22	4.98
474.423	4.84
474.625	5.02
474.827	4.98
475.03	4.89
475.232	4.72
475.434	4.86
475.636	4.85
475.838	5.01
476.04	4.92
476.243	4.85
476.445	4.7
476.647	4.71
476.849	4.97
477.051	4.87
477.253	4.79
477.455	4.8
477.657	4.72
477.859	4.8
478.061	4.86
478.263	4.88
478.465	4.86
478.667	4.86
478.869	4.74
479.071	4.48
479.273	4.62
479.475	4.65
479.677	4.87
479.879	4.81
480.081	4.86
480.283	4.78
480.485	5.03
480.686	4.84
480.888	4.82
481.09	4.88
481.292	5.02
481.494	4.93
481.695	4.92
481.897	4.68
482.099	4.7
482.301	4.67
482.502	4.67
482.704	4.6
482.906	4.68
483.107	4.7
483.309	4.62
483.511	4.56
483.712	4.56
483.914	4.56
484.115	4.58
484.317	4.55
484.519	4.53
484.72	4.55
484.922	4.51
485.123	4.51
485.325	4.48
485.526	4.55
485.728	4.55
485.929	4.59
486.131	4.6
486.332	4.67
486.534	4.73
486.735	4.69
486.936	4.66
487.138	4.66
487.339	4.6
487.541	4.61
487.742	4.57
487.943	4.55
488.144	4.51
488.346	4.44
488.547	4.42
488.748	4.36
488.95	4.39
489.151	4.34
489.352	4.32
489.553	4.38
489.755	4.34
489.956	4.27
490.157	4.35
490.358	4.32
490.559	4.34
490.76	4.33
490.961	4.41
491.163	4.48
491.364	4.52
491.565	4.58
491.766	4.67
491.967	4.75
492.168	4.84
492.369	4.79
492.57	4.78
492.771	4.86
492.972	4.82
493.173	4.81
493.374	4.82
493.575	4.82
493.776	4.73
493.976	4.62
494.177	4.65
494.378	4.63
494.579	4.65
494.78	4.82
494.981	4.69
495.182	4.69
495.382	4.79
495.583	4.77
495.784	4.76
495.985	4.89
496.185	4.92
496.386	4.99
496.587	4.99
496.788	4.93
496.988	4.82
497.189	4.9
497.39	5.07
497.59	5.08
497.791	5.06
497.992	5.24
498.192	5.25
498.393	5.12
498.593	5.11
498.794	5.15
498.994	5.16
499.195	5.34
499.395	5.44
499.596	5.46
499.796	5.34
499.997	5.54
500.197	5.49
500.398	5.71
500.598	5.87
500.799	5.73
500.999	5.83
501.199	5.87
501.4	5.75
501.6	5.74
501.801	5.72
502.001	5.77
502.201	5.7
502.402	5.6
502.602	5.45
502.802	5.5
503.002	5.65
503.203	5.59
503.403	5.67
503.603	5.81
503.803	6
504.003	5.95
504.204	5.97
504.404	6
504.604	6.14
504.804	6.21
505.004	6.25
505.204	6.46
505.404	6.42
505.604	6.62
505.804	6.67
506.005	6.59
506.205	6.66
506.405	6.95
506.605	6.97
506.805	7.15
507.005	7.3
507.204	7.33
507.404	7.34
507.604	7.41
507.804	7.43
508.004	7.34
508.204	7.42
508.404	7.59
508.604	7.45
508.804	7.56
509.003	7.67
509.203	7.62
509.403	7.82
509.603	7.84
509.803	8.01
510.002	7.95
510.202	8.1
510.402	8.24
510.602	8.32
510.801	8.41
511.001	8.36
511.201	8.34
511.4	8.35
511.6	8.47
511.8	8.6
511.999	8.71
512.199	8.8
512.398	8.99
512.598	9.15
512.797	9.24
512.997	9.55
513.197	9.73
513.396	9.72
513.596	9.83
513.795	9.85
513.994	9.97
514.194	9.92
514.393	10.09
514.593	10.16
514.792	10.11
514.992	10.19
515.191	10.1
515.39	10.27
515.59	10.55
515.789	10.58
515.988	10.72
516.188	10.75
516.387	10.85
516.586	11.06
516.786	11.18
516.985	11.37
517.184	11.46
517.383	11.75
517.582	11.76
517.782	11.73
517.981	11.87
518.18	11.81
518.379	11.92
518.578	12.07
518.777	12.09
518.976	12.13
519.176	12.12
519.375	12.17
519.574	12.22
519.773	12.42
519.972	12.53
520.171	12.68
520.37	12.92
520.569	13.04
520.768	13.11
520.967	13.29
521.166	13.44
521.365	13.66
521.564	13.96
521.762	14
521.961	14.17
522.16	14.29
522.359	14.29
522.558	14.44
522.757	14.44
522.956	14.65
523.154	14.78
523.353	14.85
523.552	15.11
523.751	15.24
523.949	15.4
524.148	15.35
524.347	15.53
524.546	15.82
524.744	15.86
524.943	15.98
525.142	16.12
525.34	16.21
525.539	16.29
525.737	16.25
525.936	16.35
526.135	16.57
526.333	16.69
526.532	16.73
526.73	16.77
526.929	16.87
527.127	17.06
527.326	17.13
527.524	17.25
527.723	17.38
527.921	17.52
528.12	17.49
528.318	17.5
528.516	17.59
528.715	17.76
528.913	17.85
529.112	18
529.31	17.96
529.508	18.02
529.707	18.1
529.905	18.2
530.103	18.23
530.301	18.33
530.5	18.48
530.698	18.7
530.896	18.83
531.094	18.94
531.293	19
531.491	19.34
531.689	19.57
531.887	19.57
532.085	19.81
532.283	19.91
532.481	20.1
532.68	20.14
532.878	20.09
533.076	20.1
533.274	20.2
533.472	20.31
533.67	20.34
533.868	20.4
534.066	20.62
534.264	20.61
534.462	20.68
534.66	20.78
534.858	20.81
535.056	21.02
535.253	21.07
535.451	21.07
535.649	21.14
535.847	21.25
536.045	21.34
536.243	21.34
536.441	21.4
536.638	21.57
536.836	21.74
537.034	21.77
537.232	21.82
537.43	22
537.627	22.15
537.825	22.32
538.023	22.35
538.22	22.35
538.418	22.38
538.616	22.39
538.813	22.68
539.011	22.79
539.209	23.04
539.406	23.19
539.604	23.34
539.801	23.55
539.999	23.61
540.196	23.81
540.394	23.94
540.591	24.03
540.789	24.14
540.986	24
541.184	23.9
541.381	23.9
541.579	23.99
541.776	23.95
541.974	23.9
542.171	23.85
542.368	23.94
542.566	24.04
542.763	24.17
542.96	24.19
543.158	24.35
543.355	24.54
543.552	24.72
543.75	24.75
543.947	24.77
544.144	25.02
544.341	25.19
544.539	25.11
544.736	25.06
544.933	25.07
545.13	25.28
545.327	25.31
545.524	25.26
545.722	25.23
545.919	25.26
546.116	25.41
546.313	25.38
546.51	25.46
546.707	25.67
546.904	25.87
547.101	26
547.298	26.11
547.495	26.14
547.692	26.19
547.889	26.28
548.086	26.42
548.283	26.55
548.48	26.63
548.677	26.69
548.874	26.6
549.07	26.65
549.267	26.68
549.464	26.83
549.661	26.9
549.858	27.23
550.055	27.36
550.251	27.47
550.448	27.53
550.645	27.85
550.842	27.89
551.038	28.31
551.235	28.31
551.432	28.35
551.628	28.47
551.825	28.59
552.022	28.53
552.218	28.49
552.415	28.52
552.612	28.5
552.808	28.47
553.005	28.7
553.201	28.42
553.398	28.49
553.594	28.63
553.791	28.52
553.987	28.58
554.184	28.57
554.38	28.57
554.577	28.65
554.773	28.94
554.97	28.98
555.166	28.93
555.362	29.27
555.559	29.53
555.755	29.38
555.952	29.57
556.148	29.83
556.344	29.96
556.541	30.19
556.737	30.17
556.933	30.05
557.129	30.18
557.326	30.26
557.522	30.25
557.718	30.07
557.914	30.32
558.11	30.36
558.307	30.2
558.503	30.37
558.699	30.56
558.895	30.56
559.091	30.77
559.287	30.74
559.483	30.78
559.679	30.9
559.876	30.85
560.072	30.86
560.268	30.87
560.464	30.85
560.66	30.74
560.856	30.68
561.052	30.93
561.247	30.98
561.443	31.17
561.639	31.21
561.835	31.38
562.031	31.73
562.227	31.69
562.423	31.42
562.619	31.44
562.815	31.49
563.01	31.41
563.206	31.34
563.402	31.49
563.598	31.48
563.793	31.4
563.989	31.24
564.185	30.95
564.381	30.88
564.576	31.16
564.772	31.37
564.968	31.41
565.163	31.52
565.359	31.47
565.555	31.43
565.75	31.18
565.946	31.34
566.141	31.33
566.337	31.44
566.532	31.72
566.728	31.65
566.923	31.57
567.119	31.79
567.314	31.98
567.51	31.98
567.705	31.99
567.901	32.18
568.096	32.32
568.292	32.34
568.487	32.34
568.682	32.28
568.878	32.35
569.073	32.48
569.268	32.43
569.464	32.24
569.659	32.4
569.854	32.31
570.05	32.47
570.245	32.49
570.44	32.62
570.635	32.75
570.831	32.99
571.026	33.12
571.221	33.11
571.416	32.94
571.611	32.92
571.806	33.08
572.002	33.08
572.197	33.03
572.392	32.97
572.587	32.93
572.782	32.85
572.977	32.69
573.172	32.72
573.367	32.69
573.562	32.77
573.757	32.92
573.952	32.72
574.147	32.93
574.342	32.97
574.537	33.02
574.732	33.03
574.927	33.27
575.121	33.36
575.316	33.29
575.511	33.31
575.706	33.31
575.901	33.37
576.096	33.39
576.29	33.33
576.485	33.32
576.68	33.33
576.875	33.33
577.069	33.39
577.264	33.38
577.459	33.48
577.654	33.62
577.848	33.49
578.043	33.48
578.238	33.55
578.432	33.47
578.627	33.46
578.821	33.52
579.016	33.76
579.21	33.45
579.405	33.49
579.6	33.41
579.794	33.52
579.989	33.7
580.183	33.71
580.378	33.87
580.572	33.8
580.766	33.84
580.961	34.11
581.155	33.86
581.35	33.98
581.544	33.71
581.738	33.94
581.933	33.89
582.127	34.12
582.321	33.83
582.516	33.63
582.71	33.88
582.904	33.88
583.099	33.61
583.293	33.9
583.487	34.04
583.681	34.29
583.875	34.15
584.07	34.22
584.264	34.3
584.458	34.45
584.652	34.56
584.846	34.08
585.04	34.29
585.234	34.19
585.428	33.83
585.623	33.87
585.817	33.9
586.011	33.84
586.205	33.64
586.399	33.68
586.593	33.87
586.787	33.94
586.981	34
587.174	33.9
587.368	34.06
587.562	34.17
587.756	34.1
587.95	34.11
588.144	34.33
588.338	34.39
588.532	34.27
588.725	34.24
588.919	34.35
589.113	34.81
589.307	34.75
589.501	34.71
589.694	34.89
589.888	34.8
590.082	34.83
590.275	34.77
590.469	34.81
590.663	34.74
590.856	34.93
591.05	34.74
591.244	34.79
591.437	34.9
591.631	35.11
591.824	35.07
592.018	35.07
592.212	35.09
592.405	35.1
592.599	35.42
592.792	35.32
592.986	35.43
593.179	35.64
593.372	35.71
593.566	35.6
593.759	35.43
593.953	35.66
594.146	35.56
594.339	35.44
594.533	35.43
594.726	35.22
594.92	35.22
595.113	35.03
595.306	34.82
595.499	34.8
595.693	34.93
595.886	35.06
596.079	34.66
596.272	34.76
596.466	34.82
596.659	35.04
596.852	35.02
597.045	35.07
597.238	34.92
597.431	34.94
597.624	34.88
597.818	35.07
598.011	34.91
598.204	35.15
598.397	35.34
598.59	35.32
598.783	35.25
598.976	35.38
599.169	35.54
599.362	35.93
599.555	36.19
599.748	36.17
599.941	36.12
600.134	36.22
600.326	36.3
600.519	36.35
600.712	36.39
600.905	36.09
601.098	36.01
601.291	35.89
601.483	35.95
601.676	35.7
601.869	35.64
602.062	35.47
602.255	35.61
602.447	35.49
602.64	35.75
602.833	35.85
603.025	36.02
603.218	35.86
603.411	35.97
603.603	35.75
603.796	35.81
603.989	36
604.181	35.94
604.374	35.96
604.566	35.84
604.759	35.82
604.951	35.9
605.144	35.71
605.336	35.81
605.529	35.74
605.721	35.78
605.914	35.8
606.106	35.56
606.299	35.82
606.491	35.86
606.683	36.06
606.876	35.91
607.068	36.05
607.26	36.47
607.453	36.3
607.645	36.24
607.837	36.38
608.03	36.46
608.222	36.58
608.414	36.3
608.606	36.02
608.799	36.18
608.991	36.04
609.183	35.83
609.375	35.49
609.567	35.52
609.759	35.63
609.952	35.45
610.144	35.46
610.336	35.36
610.528	35.33
610.72	35.28
610.912	35.21
611.104	35.1
611.296	35.01
611.488	34.82
611.68	34.98
611.872	34.97
612.064	34.73
612.256	34.51
612.448	34.51
612.64	34.57
612.832	34.63
613.023	34.27
613.215	34.31
613.407	34.42
613.599	34.81
613.791	34.64
613.983	35.03
614.174	35.39
614.366	35.7
614.558	35.9
614.75	35.81
614.941	36.1
615.133	36.12
615.325	36.3
615.516	36.34
615.708	36.34
615.9	36.36
616.091	36.22
616.283	36.4
616.475	36.43
616.666	36.45
616.858	36.58
617.049	36.63
617.241	36.83
617.432	37.04
617.624	36.95
617.815	36.96
618.007	37.18
618.198	37.1
618.39	36.79
618.581	36.68
618.773	36.85
618.964	36.8
619.155	36.43
619.347	36.44
619.538	36.48
619.729	36.64
619.921	36.55
620.112	36.62
620.303	36.46
620.494	36.61
620.686	36.85
620.877	36.67
621.068	36.95
621.259	37.17
621.451	37.33
621.642	37.4
621.833	37.48
622.024	37.84
622.215	37.67
622.406	37.72
622.597	37.59
622.788	37.09
622.98	37.47
623.171	37.06
623.362	37.13
623.553	37.06
623.744	36.82
623.935	36.83
624.126	36.36
624.317	36.31
624.508	36.45
624.698	36.45
624.889	36.98
625.08	36.69
625.271	36.9
625.462	36.86
625.653	36.77
625.844	36.82
626.034	36.83
626.225	37.12
626.416	37
626.607	36.98
626.798	36.82
626.988	36.65
627.179	36.55
627.37	36.65
627.56	36.59
627.751	36.46
627.942	36.51
628.132	36.35
628.323	36.25
628.514	36.38
628.704	36.13
628.895	36.6
629.085	36.58
629.276	36.77
629.466	36.52
629.657	36.89
629.847	36.95
630.038	36.91
630.228	36.73
630.419	36.56
630.609	36.66
630.8	36.96
630.99	36.76
631.181	36.65
631.371	36.59
631.561	36.86
631.752	36.47
631.942	36.69
632.132	36.57
632.323	36.76
632.513	37.27
632.703	37.29
632.893	37.28
633.084	37.28
633.274	37.1
633.464	36.78
633.654	36.65
633.844	36.48
634.034	36.6
634.225	36.69
634.415	36.84
634.605	36.79
634.795	36.98
634.985	37
635.175	37.23
635.365	37.44
635.555	37.76
635.745	37.85
635.935	37.99
636.125	38.04
636.315	37.74
636.505	37.59
636.695	37.45
636.885	37.28
637.075	37.21
637.265	37.01
637.455	37.26
637.644	37.36
637.834	37.2
638.024	37.33
638.214	37.18
638.404	37.56
638.593	37.47
638.783	37.28
638.973	37.24
639.163	37.17
639.352	37.18
639.542	37.18
639.732	36.88
639.921	37.36
640.111	37.55
640.301	37.54
640.49	37.77
640.68	38.33
640.87	38.78
641.059	39.1
641.249	39.19
641.438	38.76
641.628	38.58
641.817	38.71
642.007	38.46
642.196	38.37
642.386	38.15
642.575	37.99
642.764	37.49
642.954	37.78
643.143	37.82
643.333	38.37
643.522	39.22
643.711	39.22
643.901	39.31
644.09	39.4
644.279	39.38
644.469	39.47
644.658	38.96
644.847	39.13
645.036	38.78
645.226	38.2
645.415	37.4
645.604	37.03
645.793	36.67
645.982	36.88
646.171	36.95
646.361	36.87
646.55	37.16
646.739	37.66
646.928	37.82
647.117	37.39
647.306	37.77
647.495	38.47
647.684	38.01
647.873	38.36
648.062	38.06
648.251	37.88
648.44	38.04
648.629	38.07
648.818	37.79
649.007	37.49
649.196	37.83
649.384	37.83
649.573	37.27
649.762	37.49
649.951	37.48
650.14	37.2
650.328	37.16
650.517	37.09
650.706	36.94
650.895	37.27
651.083	37.49
651.272	37.39
651.461	37.18
651.65	37.55
651.838	37.73
652.027	37.85
652.216	38.25
652.404	38.46
652.593	38.18
652.781	38.7
652.97	38.57
653.158	38.46
653.347	38.48
653.535	38.54
653.724	38.41
653.912	38.18
654.101	38.27
654.289	38.01
654.478	38.36
654.666	38.51
654.855	37.93
655.043	37.49
655.231	37.46
655.42	37.39
655.608	37.76
655.796	37.78
655.985	38.18
656.173	38.1
656.361	38
656.55	37.37
656.738	37.53
656.926	37.52
657.114	37.87
657.302	37.76
657.491	37.95
657.679	37.69
657.867	37.73
658.055	37.52
658.243	37.61
658.431	37.7
658.619	37.92
658.807	37.89
658.996	37.72
659.184	37.38
659.372	37.27
659.56	37.44
659.748	37.6
659.936	37.45
660.124	37.53
660.311	37.49
660.499	37.48
660.687	36.82
660.875	36.79
661.063	37.16
661.251	37.71
661.439	37.97
661.627	37.62
661.814	37.65
662.002	37.76
662.19	37.92
662.378	37.65
662.565	37.69
662.753	38.21
662.941	37.55
663.129	37.4
663.316	37.42
663.504	37.19
663.692	37.11
663.879	36.69
664.067	36.73
664.254	36.54
664.442	37
664.63	37.32
664.817	37.6
665.005	38.05
665.192	38.04
665.38	37.89
665.567	38.25
665.755	38.24
665.942	38.99
666.13	38.88
666.317	38.85
666.504	38.36
666.692	38.25
666.879	37.89
667.067	38.28
667.254	38.36
667.441	38.32
667.629	38.33
667.816	38.39
668.003	37.88
668.19	37.76
668.378	38.31
668.565	38.5
668.752	38.36
668.939	38.9
669.127	38.65
669.314	38.88
669.501	38.72
669.688	38.58
669.875	38.77
670.062	38.79
670.249	39.09
670.436	38.52
670.623	38.65
670.81	38.71
670.997	38.51
671.184	38.46
671.371	38.23
671.558	38.14
671.745	38.12
671.932	38.26
672.119	38.13
672.306	37.93
672.493	38.12
672.68	37.9
672.867	37.86
673.054	37.8
673.24	37.63
673.427	37.42
673.614	37.59
673.801	37.78
673.988	38.36
674.174	38.16
674.361	37.95
674.548	37.97
674.734	38.35
674.921	38.24
675.108	38.01
675.294	38.41
675.481	38.33
675.668	38.41
675.854	38.15
676.041	37.7
676.227	38.09
676.414	38.36
676.601	38.35
676.787	37.94
676.974	37.89
677.16	38.65
677.347	38.63
677.533	39.34
677.719	39.69
677.906	39.74
678.092	39.58
678.279	39.66
678.465	39.6
678.651	39.74
678.838	39.83
679.024	40.21
679.21	39.69
679.397	39.37
679.583	38.96
679.769	38.69
679.955	38.93
680.142	38.84
680.328	38.64
680.514	38.64
680.7	38.51
680.886	38.56
681.073	38.2
681.259	38.47
681.445	38.64
681.631	38.26
681.817	38.09
682.003	38.06
682.189	37.8
682.375	37.98
682.561	37.86
682.747	37.68
682.933	37.76
683.119	37.92
683.305	37.42
683.491	37.93
683.677	38.28
683.863	38.31
684.049	38.32
684.235	38.79
684.42	39.02
684.606	39.25
684.792	39.23
684.978	39.1
685.164	39.55
685.349	40.08
685.535	39.52
685.721	40.06
685.907	40.25
686.092	40.12
686.278	39.57
686.464	39.36
686.649	39.38
686.835	39.39
687.021	39.26
687.206	39.03
687.392	38.14
687.577	38.02
687.763	37.45
687.948	37.52
688.134	37.66
688.319	37.37
688.505	37.04
688.69	37.39
688.876	37.13
689.061	37.32
689.247	37.27
689.432	37.99
689.618	38.13
689.803	38.53
689.988	38.75
690.174	38.31
690.359	38.81
690.544	38.78
690.73	38.44
690.915	38.85
691.1	38.63
691.285	38.64
691.471	39.26
691.656	39.98
691.841	39.8
692.026	39.08
692.211	39.42
692.396	39.42
692.582	39.89
692.767	39.85
692.952	39.75
693.137	40.37
693.322	40.04
693.507	39.36
693.692	38.49
693.877	37.77
694.062	37.96
694.247	37.93
694.432	37.84
694.617	37.99
694.802	38.22
694.987	38.28
695.172	37.78
695.357	38.45
695.541	38.68
695.726	39.71
695.911	40.3
696.096	40.73
696.281	40.23
696.466	40.42
696.65	40.3
696.835	40.25
697.02	40.72
697.204	40.66
697.389	40.5
697.574	40.77
697.759	40.02
697.943	39.75
698.128	39.57
698.312	40.29
698.497	40.28
698.682	39.6
698.866	39.15
699.051	38.51
699.235	38.51
699.42	37.95
699.604	37.63
699.789	37.55
699.973	37.91
700.158	37.92
700.342	37.36
700.527	37.25
700.711	37.78
700.895	38.02
701.08	38.32
701.264	38.93
701.448	38.8
701.633	38.66
701.817	38.5
702.001	38.79
702.186	39.18
702.37	39.11
702.554	38.72
702.738	38.76
702.923	38.47
703.107	38.6
703.291	37.84
703.475	38.24
703.659	38.66
703.843	39.12
704.027	38.72
704.212	38.51
704.396	39.06
704.58	39.64
704.764	39.14
704.948	39.57
705.132	39.73
705.316	40.22
705.5	40.78
705.684	39.94
705.868	40.31
706.052	40.2
706.235	39.82
706.419	40.51
706.603	40.53
706.787	40.37
706.971	40.71
707.155	40.61
707.339	40.29
707.522	40.08
707.706	40.37
707.89	40.18
708.074	40.34
708.257	41.08
708.441	39.95
708.625	39.55
708.808	40.26
708.992	40.16
709.176	40.42
709.359	40.32
709.543	40.41
709.727	40.36
709.91	40.66
710.094	40.42
710.277	40.67
710.461	40.55
710.644	40.89
710.828	41.03
711.011	41.14
711.195	40.37
711.378	40.7
711.562	40.34
711.745	40.32
711.928	40.04
712.112	40.11
712.295	38.86
712.478	39.04
712.662	39.01
712.845	38.52
713.028	38.38
713.212	38.6
713.395	37.87
713.578	38.65
713.761	38.18
713.945	37.91
714.128	38.05
714.311	38.31
714.494	38.55
714.677	38.41
714.86	38.98
715.043	38.84
715.227	39.52
715.41	39.15
715.593	38.16
715.776	38.3
715.959	38.74
716.142	38.73
716.325	38.33
716.508	38.27
716.691	38.32
716.874	37.44
717.057	37.01
717.239	37.1
717.422	37.56
717.605	38.46
717.788	37.78
717.971	36.88
718.154	37.01
718.337	37.48
718.519	37.15
718.702	36.62
718.885	37.83
719.068	37.83
719.25	36.81
719.433	37.69
719.616	37.48
719.798	38.47
719.981	38.52
720.164	37.93
720.346	38.42
720.529	39.26
720.712	39.82
720.894	38.74
721.077	38.93
721.259	39.13
721.442	39.2
721.624	39.08
721.807	39.18
721.989	40.41
722.172	40.38
722.354	39.78
722.537	40.63
722.719	40.78
722.901	39.85
723.084	39.9
723.266	39.77
723.448	38.58
723.631	38.88
723.813	39.44
723.995	38.92
724.178	38.31
724.36	39.01
724.542	37.85
724.724	37.61
724.907	39.07
725.089	39.51
725.271	40.8
725.453	41.01
725.635	40.89
725.817	40.7
725.999	40.64
726.181	41.57
726.364	40.99
726.546	40.81
726.728	41.7
726.91	41.83
727.092	40.92
727.274	39.92
727.456	40.61
727.638	41.01
727.819	40.8
728.001	40.42
728.183	40.19
728.365	40.2
728.547	40.68
728.729	40.03
728.911	39.7
729.093	39.98
729.274	40.18
729.456	39.43
729.638	39.02
729.82	39.1
730.001	39.36
730.183	39.31
730.365	40.22
730.546	40.06
730.728	40.7
730.91	41.19
731.091	41.8
731.273	41.51
731.455	42.23
731.636	41.81
731.818	42.47
731.999	42.5
732.181	42.49
732.362	42.09
732.544	41.37
732.725	41.14
732.907	41.59
733.088	40.63
733.27	41.01
733.451	40.7
733.633	41.12
733.814	40.79
733.995	40.93
734.177	40.97
734.358	40.31
734.539	41.34
734.721	40.97
734.902	39.52
735.083	39.93
735.264	39.8
735.446	40.38
735.627	40.43
735.808	39.57
735.989	39.18
736.17	39.38
736.351	40.24
736.533	39.33
736.714	39.72
736.895	40.71
737.076	41.38
737.257	42.42
737.438	42.47
737.619	42.24
737.8	41.6
737.981	42.3
738.162	42.42
738.343	42.27
738.524	42.81
738.705	42.59
738.886	42.51
739.067	43.01
739.247	42.08
739.428	41.05
739.609	42.34
739.79	43.72
739.971	43.35
740.151	43.51
740.332	43.37
740.513	42.88
740.694	42.8
740.874	43.01
741.055	42.17
741.236	42.4
741.417	42.26
741.597	40.98
741.778	41.06
741.958	41.31
742.139	40.9
742.32	40.93
742.5	41.25
742.681	40.65
742.861	40.31
743.042	40.11
743.222	39.58
743.403	40.63
743.583	41.3
743.764	40.11
743.944	40.08
744.124	41.09
744.305	41.07
744.485	40.4
744.666	41.19
744.846	40.84
745.026	41.35
745.207	41.84
745.387	41.8
745.567	42.31
745.747	42.82
745.928	42.8
746.108	41.52
746.288	40.86
746.468	40.82
746.648	41.17
746.829	40.84
747.009	39.48
747.189	39
747.369	38.4
747.549	37.06
747.729	38.31
747.909	37.95
748.089	38.56
748.269	39.65
748.449	40.02
748.629	40.54
748.809	40.49
748.989	41.05
749.169	40.22
749.349	40.32
749.529	40.34
749.709	39.66
749.889	39.5
750.068	40.39
750.248	40.17
750.428	39.46
750.608	38.1
750.788	38.41
750.967	38.31
751.147	39.71
751.327	40.54
751.507	40
751.686	40.78
751.866	41.38
752.046	40.23
752.225	39.68
752.405	40.45
752.585	41.15
752.764	42.05
752.944	42.82
753.123	42.46
753.303	42.14
753.482	42.93
753.662	42.29
753.841	42.32
754.021	41.4
754.2	41.58
754.38	42.11
754.559	41.42
754.739	41.12
754.918	40.63
755.097	41.14
755.277	40.01
755.456	40.98
755.635	40.57
755.815	39.75
755.994	39.95
756.173	39.23
756.352	38.89
756.532	38.57
756.711	39.26
756.89	39.18
757.069	38.46
757.248	38.71
757.427	37.73
757.607	37.85
757.786	38
757.965	39.8
758.144	40.71
758.323	40.02
758.502	40.65
758.681	40.58
758.86	40.44
759.039	40.28
759.218	40.63
759.397	40.67
759.576	40.45
759.755	40.66
759.934	39.33
760.113	39.17
760.291	39.1
760.47	39.06
760.649	37.85
760.828	37.78
761.007	38.85
761.186	37.59
761.364	36.36
761.543	36.94
761.722	37.49
761.901	37.72
762.079	37.9
762.258	38.71
762.437	39.03
762.615	39.03
762.794	39.69
762.972	39.06
763.151	39.55
763.33	40.58
763.508	40.6
763.687	40.04
763.865	40.23
764.044	40.5
764.222	40.86
764.401	41.11
764.579	41.63
764.758	41.17
764.936	41.41
765.114	42.33
765.293	42.36
765.471	42.53
765.65	42.82
765.828	42.71
766.006	42.04
766.184	41.64
766.363	40.61
766.541	39.66
766.719	41.02
766.898	41.89
767.076	42.15
767.254	41.93
767.432	41.58
767.61	42.06
767.788	41.61
767.967	42.15
768.145	41.91
768.323	41.4
768.501	42.7
768.679	40.92
768.857	39.62
769.035	38.23
769.213	38.59
769.391	38.69
769.569	37
769.747	37.14
769.925	36.17
770.103	35.7
770.281	37.18
770.459	35.71
770.636	36.1
770.814	35.85
770.992	37.8
771.17	38.46
771.348	38.03
771.525	39.36
771.703	39.59
771.881	41.31
772.059	41.75
772.236	42.18
772.414	44.82
772.592	44.26
772.769	45.27
772.947	44.41
773.125	43.63
773.302	44.41
773.48	44.1
773.657	44.37
773.835	42.43
774.013	42.29
774.19	40.93
774.368	38.23
774.545	40.63
774.723	40.21
774.9	38.77
775.077	39.57
775.255	38.81
775.432	38.78
775.61	38.35
775.787	40.12
775.964	40
776.142	40.37
776.319	41.05
776.496	38.31
776.674	37.15
776.851	38.29
777.028	36.2
777.205	36.8
777.382	36.81
777.56	36.6
777.737	35.94
777.914	35.73
778.091	36.46
778.268	37.07
778.445	38.29
778.622	39.69
778.8	39.42
778.977	39.83
779.154	34.85
779.331	35.6
779.508	37.13
779.685	37.74
779.862	38.41
780.038	39.75
780.215	38.5
780.392	39.35
780.569	37.57
780.746	37.8
780.923	38.3
781.1	43.57
781.277	43.35
781.453	41.35
781.63	40.08
781.807	42.3
781.984	40.61
782.16	41.34
782.337	40.22
782.514	40.91
782.691	40.86
782.867	40.02
783.044	40.63
783.221	40.75
783.397	41.22
783.574	41.14
783.75	38.14
783.927	41.36
784.103	42.14
784.28	42.54
784.456	41.16
784.633	42.58
784.809	42.95
784.986	43.63
785.162	42.1
785.339	41.55
785.515	42.6
785.692	44.58
785.868	42.97
786.044	43.27
786.221	43.53
786.397	47.97
786.573	46.74
786.749	46.19
786.926	43.45
787.102	44.8
787.278	43.09
787.454	44.05
787.631	42.8
787.807	40.13
787.983	39.79
788.159	40.63
788.335	38.63
788.511	38.38
788.687	39.32
788.863	41.56
789.039	41.03
789.216	43.55
789.392	42.6
789.568	41.83
789.744	44.23
789.919	43.53
790.095	42.24
790.271	42.73
790.447	42.02
790.623	42.23
790.799	40.05
790.975	39.45
791.151	41.49
791.327	40.87
791.502	42.33
791.678	41.88
791.854	43.89
792.03	46.35
792.205	43.54
792.381	44.81
792.557	46.2
792.733	46.01
792.908	45.55
793.084	44.17
793.259	44.58
793.435	42.06
793.611	42.16
793.786	42.65
793.962	39
794.137	40.24
794.313	37.88
794.488	36.28
794.664	37.37
794.839	40.39
795.015	40.12
795.19	42.29
795.366	43.81
795.541	42.24
795.716	41.22
795.892	39.88
796.067	40.66
796.242	42.78
796.418	41.95
796.593	43.26
796.768	41.73
796.944	42.08
797.119	39.09
797.294	39.07
797.469	39.1
797.644	37.42
797.82	39.24
797.995	38.26
798.17	38.18
798.345	39.72
798.52	38.27
798.695	38.68
798.87	36.88
799.045	37.97
799.22	38.67
799.395	40.15
799.57	39.1
799.745	39.28
799.92	41.39
800.095	42.49
800.27	41.53
800.445	41.63
800.62	42.54
800.795	44.32
800.97	45.81
801.145	46.14
801.319	47.38
801.494	48.13
801.669	48.39
801.844	48.07
802.018	47.88
802.193	48.32
802.368	50.06
802.543	48.55
802.717	49.08
802.892	46.91
803.067	46.04
803.241	43.35
803.416	43.49
803.59	43.62
803.765	42.37
803.94	40.39
804.114	39.59
804.289	40.12
804.463	40.67
804.638	39.31
804.812	40.24
804.986	39.78
805.161	39.44
805.335	40.59
805.51	39.24
805.684	41.41
805.858	42.58
806.033	44.79
806.207	42.24
806.381	41.74
806.556	40.52
806.73	39.96
806.904	39.93
807.078	42.16
807.253	40.12
807.427	39.14
807.601	37.49
807.775	37.27
807.949	35.7
808.123	37.47
808.298	38.18
808.472	39.8
808.646	39.29
808.82	40.5
808.994	38.41
809.168	42.52
809.342	47.62
809.516	47.73
809.69	46.63
809.864	48.72
810.038	49.04
810.212	49.2
810.385	49.03
810.559	48.18
810.733	47.08
810.907	49.08
811.081	46.18
811.255	41.31
811.428	41.63
811.602	43.23
811.776	41.67
811.95	39.94
812.123	41.36
812.297	40.41
812.471	44.97
812.644	44.91
812.818	45.98
812.992	47.04
813.165	47.9
813.339	46.77
813.512	46.94
813.686	45.46
813.86	43.76
814.033	44.26
814.207	47.31
814.38	47.21
814.554	48.99
814.727	47.05
814.9	47.44
815.074	47.84
815.247	48.95
815.421	50.89
815.594	50.74
815.767	56.06
815.941	52.54
816.114	49.64
816.287	46.55
816.46	46.61
816.634	46.91
816.807	46.63
816.98	46.67
817.153	45.96
817.327	44.07
817.5	46.45
817.673	43.09
817.846	45.56
818.019	48.12
818.192	53.13
818.365	51.61
818.538	51.22
818.711	50.14
818.884	53.7
819.057	52.25
819.23	49.82
819.403	50.14
819.576	47.79
819.749	47.24
819.922	44.65
820.095	41.35
820.268	42.49
820.441	42.69
820.614	42.56
820.786	41.94
820.959	43.06
821.132	42.56
821.305	41.12
821.477	42.48
821.65	41.05
821.823	40.22
821.996	40.32
822.168	39.37
822.341	38.79
822.514	38.26
822.686	38.2
822.859	38.45
823.031	39.83
823.204	39.7
823.376	39.1
823.549	39.76
823.722	40.09
823.894	39.59
824.067	40.26
824.239	40.3
824.411	40.51
824.584	40.58
824.756	40.56
824.929	39.89
825.101	39.29
825.273	39.12
825.446	38.2
825.618	38.21
825.79	38.39
825.963	37.14
826.135	37.35
826.307	37.82
826.479	36.93
826.652	36.06
826.824	36.62
826.996	37.2
827.168	37.87
827.34	38.92
827.512	38.49
827.684	39.05
827.856	40.19
828.029	40.68
828.201	40.5
828.373	41.01
828.545	41.56
828.717	40.42
828.889	41.5
829.061	42.31
829.232	42.25
829.404	43.13
829.576	42.38
829.748	42.19
829.92	42.16
830.092	41.93
830.264	41.74
830.436	42.75
830.607	42.9
830.779	43.26
830.951	42.62
831.123	42.74
831.294	42.9
831.466	45.14
831.638	46.27
831.809	47.74
831.981	49
832.153	50.14
832.324	51.23
832.496	50.05
832.667	49.96
832.839	48.17
833.011	48.47
833.182	48.36
833.354	46.14
833.525	43.4
833.697	41.59
833.868	40.05
834.039	40.12
834.211	35.59
834.382	36.85
834.554	35.47
834.725	36.34
834.896	34.63
835.068	35.07
835.239	36.14
835.41	37.12
835.581	37.09
835.753	37.18
835.924	36.33
836.095	39.44
836.266	37.34
836.438	37.41
836.609	37.42
836.78	39.51
836.951	40.18
837.122	41.8
837.293	44.54
837.464	45.44
837.635	44.3
837.806	45.62
837.977	44.58
838.148	46.75
838.319	49.73
838.49	51.76
838.661	50.99
838.832	50.29
839.003	47.86
839.174	45.96
839.345	44.78
839.516	49.79
839.687	50.64
839.857	47.77
840.028	51.05
840.199	49.07
840.37	49.72
840.54	51.61
840.711	50.41
840.882	51.23
841.053	49.29
841.223	52.08
841.394	52.36
841.564	52.12
841.735	52.93
841.906	50.23
842.076	45.95
842.247	46.56
842.417	43.7
842.588	41.89
842.758	38.69
842.929	34.69
843.099	26.01
843.27	23.43
843.44	21.66
843.611	29.02
843.781	30.37
843.951	31.21
844.122	29.19
844.292	34.62
844.462	34.97
844.633	37.13
844.803	39.73
844.973	44.25
845.144	44.36
845.314	40.3
845.484	32.71
845.654	32.78
845.824	38.03
845.995	36.51
846.165	36.72
846.335	35.57
846.505	35.07
846.675	39.93
846.845	49.66
847.015	50.98
847.185	58
847.355	65.07
847.525	66.14
847.695	63.66
847.865	61.2
848.035	61.42
848.205	62.53
848.375	72.69
848.545	73.93
848.715	59.23
848.884	58.7
849.054	58.56
849.224	58.54
849.394	55.29
849.564	55
849.733	50.67
849.903	52.43
850.073	50.85
850.243	42.46
850.412	39.81
850.582	42.78
850.752	40.13
850.921	39.88
851.091	35.58
851.26	34.53
851.43	32.31
851.599	29.94
851.769	27.52
851.939	35.33
852.108	32.47
852.278	34.62
852.447	39.02
852.616	38.55
852.786	41.09
852.955	42.32
853.125	46.47
853.294	50.36
853.463	47.48
853.633	44.61
853.802	42.32
853.971	54.36
854.141	41.29
854.31	42.92
854.479	44.77
854.648	39.55
854.818	45.41
854.987	44.02
855.156	41.35
855.325	55.41
855.494	56.93
855.663	56.63
855.832	47.61
856.001	52.47
856.171	53.16
856.34	50.95
856.509	53.68
856.678	50.57
856.847	55.08
857.016	57.57
857.185	47.84
857.353	47.75
857.522	42.59
857.691	40.11
857.86	45.53
858.029	40.14
858.198	46.28
858.367	48.69
858.535	51.51
858.704	49.5
858.873	52.03
859.042	57.98
859.21	61.68
859.379	64.7
859.548	74.22
859.717	70.25
859.885	72.31
860.054	67.87
860.222	63.8
860.391	63.95
860.56	59.6
860.728	57.39
860.897	62.62
861.065	62.48
861.234	67.25
861.402	63.88
861.571	64.99
861.739	65.19
861.908	71.67
862.076	72.23
862.244	74.4
862.413	78.87
862.581	79.89
862.749	66.43
862.918	62.05
863.086	56.08
863.254	69.71
863.423	76.12
863.591	72.21
863.759	65.47
863.927	63.18
864.096	63.3
864.264	60
864.432	55.33
864.6	59.83
864.768	51.88
864.936	45.31
865.104	36.55
865.272	29.13
865.44	22.82
865.608	28
865.776	32.64
865.944	25.9
866.112	29.07
866.28	37.44
866.448	39.51
866.616	40.75
866.784	48.33
866.952	50.62
867.12	49.82
867.288	48.02
867.455	54.12
867.623	55.54
867.791	60.33
867.959	63
868.127	56.09
868.294	53.16
868.462	63.43
868.63	63.93
868.797	71.59
868.965	69.44
869.133	69.74
869.3	61.41
869.468	55.18
869.636	49.55
869.803	45.57
869.971	55.03
870.138	57.97
870.306	51.81
870.473	52.87
870.641	46.16
870.808	43.51
870.975	45.45
871.143	45.65
871.31	51.1
871.478	48.92
871.645	60.28
871.812	53.23
871.98	50.49
872.147	65.91
872.314	66.47
872.482	68.71
872.649	63.83
872.816	71.48
872.983	74.66
873.15	68.39
873.318	70.44
873.485	59.48
873.652	65.39
873.819	65.71
873.986	58.32
874.153	60.21
874.32	60.09
874.487	65.51
874.654	58.21
874.821	69.62
874.988	66.54
875.155	64.44
875.322	65.78
875.489	56.42
875.656	60.68
875.823	68.34
875.99	67.17
876.157	65.02
876.324	57.01
876.49	56.86
876.657	43.32
876.824	47.87
876.991	50.29
877.157	52.67
877.324	57.65
877.491	55.61
877.658	47.55
877.824	50.95
877.991	57.87
878.157	65.02
878.324	69.47
878.491	67.7
878.657	63.56
878.824	62.57
878.99	66.57
879.157	68.34
879.323	59.57
879.49	60.31
879.656	55.09
879.823	48.76
879.989	38.66
880.156	37.79
880.322	39.01
880.488	34.62
880.655	42
880.821	37.39
880.987	34.44
881.154	38.98
881.32	39.65
881.486	39.43
881.652	40.34
881.819	43.47
881.985	39.56
882.151	36.43
882.317	40.94
882.483	38.36
882.649	39.45
882.816	42.3
882.982	40.6
883.148	38.87
883.314	39.87
883.48	39.45
883.646	40.36
883.812	42.48
883.978	42.72
884.144	41.59
884.31	41.3
884.476	40.5
884.642	39.76
884.807	42.44
884.973	43.71
885.139	42.85
885.305	43.2
885.471	41.92
885.637	41.76
885.802	43.93
885.968	44.09
886.134	46.36
886.3	47.17
886.465	45.7
886.631	42.57
886.797	43.21
886.962	44.53
887.128	45.73
887.293	47.58
887.459	48.44
887.625	46.85
887.79	49.87
887.956	47.51
888.121	49.96
888.287	51.63
888.452	52.77
888.618	52.69
888.783	51.23
