Data from CB_069_Reflection_1.txt Node
Date: Sat Nov 14 10:57:41 EST 2015
User: robert
Spectrometer: USB4E03001
Autoset integration time: false
Trigger mode: 4
Integration Time (sec): 1.000000E-1
Scans to average: 15
Electric dark correction enabled: true
Nonlinearity correction enabled: false
Boxcar width: 5
Stray light correction enabled: false
XAxis mode: Wavelengths
Stop averaging: false
Number of Pixels in Spectrum: 3648
>>>>>Begin Spectral Data<<<<<
177.566	-112.43
177.785	-88.94
178.005	-694.06
178.225	-60.32
178.445	1.3
178.665	-110.66
178.885	122.22
179.105	-39.93
179.324	-61.36
179.544	-182.59
179.764	-53.74
179.984	-68.47
180.204	-76.66
180.423	-362.62
180.643	-175.81
180.863	-300.05
181.083	-1452.74
181.302	-8111.11
181.522	964.72
181.742	1012.39
181.961	1362.06
182.181	216.22
182.401	163.55
182.621	261.25
182.84	1005.95
183.06	-3014.92
183.279	-314.8
183.499	-179.02
183.719	-233.61
183.938	-118.84
184.158	-78.94
184.377	-39.08
184.597	-21.32
184.816	-12.74
185.036	-10.14
185.256	-39.41
185.475	-125.85
185.695	-97.66
185.914	-64.19
186.134	-41.58
186.353	-91.64
186.572	-65.17
186.792	-214.85
187.011	858.4
187.231	151.3
187.45	-69.55
187.67	-75.97
187.889	204.72
188.108	103.98
188.328	122.82
188.547	81.72
188.766	47.73
188.986	40.5
189.205	53.62
189.424	50.59
189.644	77.39
189.863	83.74
190.082	111.45
190.302	147.27
190.521	93.33
190.74	113.22
190.959	348.47
191.178	367.59
191.398	324.94
191.617	879.71
191.836	2643.01
192.055	416.72
192.274	132.32
192.494	247.83
192.713	5087.5
192.932	-806.86
193.151	126475
193.37	244.48
193.589	-6363.72
193.808	-581.38
194.027	-871.62
194.246	2114.99
194.465	-1114.96
194.685	180.22
194.904	39.36
195.123	82.07
195.342	30.76
195.561	63.57
195.78	201.37
195.999	181.49
196.218	-168.37
196.436	-474.36
196.655	-145.35
196.874	-31.79
197.093	74.28
197.312	60.45
197.531	29.05
197.75	25.52
197.969	-666.14
198.188	-57.06
198.407	-0.74
198.625	64.87
198.844	165.33
199.063	172.38
199.282	156.29
199.501	837.11
199.719	74.55
199.938	-101.55
200.157	-60.82
200.376	-576.65
200.594	39.44
200.813	71.81
201.032	398.21
201.251	204.61
201.469	209.14
201.688	-190.94
201.907	1073.71
202.125	279.33
202.344	1474.47
202.563	9894.2
202.781	490.04
203	162.96
203.218	137.18
203.437	238.38
203.656	205.19
203.874	491.81
204.093	480.33
204.311	355.75
204.53	990.34
204.748	245
204.967	329.29
205.185	232.28
205.404	282.2
205.622	342.45
205.841	195.84
206.059	125.98
206.278	141.57
206.496	165.78
206.715	176.99
206.933	159.47
207.151	247.29
207.37	172.28
207.588	199
207.806	261.86
208.025	345.34
208.243	513.62
208.461	-34931.82
208.68	523.35
208.898	369.42
209.116	244.34
209.335	172.78
209.553	200.47
209.771	177.92
209.989	194.95
210.208	125.11
210.426	121.36
210.644	125.06
210.862	118.36
211.081	126.28
211.299	105.26
211.517	116.5
211.735	91.91
211.953	76.76
212.171	78.69
212.39	60.18
212.608	70.16
212.826	78.51
213.044	80.42
213.262	66.14
213.48	60.06
213.698	44.97
213.916	44.53
214.134	61.37
214.352	56.46
214.57	35.93
214.788	7.89
215.006	8.96
215.224	-61.38
215.442	-422.79
215.66	-642.89
215.878	-170.33
216.096	-30.63
216.314	-174.83
216.532	-464.72
216.75	476.56
216.968	383.13
217.185	2494.69
217.403	310.83
217.621	5755.56
217.839	139.89
218.057	2108.33
218.275	217.69
218.492	98.13
218.71	-38.87
218.928	390.48
219.146	449.77
219.363	216.66
219.581	293.83
219.799	-814.64
220.017	197.81
220.234	240.64
220.452	285.96
220.67	494.11
220.887	238.36
221.105	345.3
221.323	182.43
221.54	134.83
221.758	153.61
221.976	139.78
222.193	101.31
222.411	98.76
222.629	119.57
222.846	100.63
223.064	91.22
223.281	86.21
223.499	98.45
223.716	83.94
223.934	75.74
224.151	65.22
224.369	57.23
224.586	84.4
224.804	86.13
225.021	70.9
225.239	79.21
225.456	76.09
225.674	78.27
225.891	63.8
226.108	68.44
226.326	67.46
226.543	65.01
226.76	48.78
226.978	33.87
227.195	34.9
227.413	28.09
227.63	34.88
227.847	35.56
228.064	34
228.282	31.79
228.499	33.19
228.716	28.53
228.934	27.78
229.151	28.84
229.368	27.82
229.585	26.02
229.802	26.96
230.02	22.17
230.237	22.89
230.454	20.86
230.671	22.26
230.888	22.17
231.105	23.08
231.323	20.75
231.54	28.02
231.757	33.72
231.974	36.96
232.191	35.53
232.408	34.65
232.625	34.18
232.842	32.85
233.059	30.46
233.276	25.69
233.493	27.49
233.71	29.87
233.927	23.72
234.144	21.01
234.361	21.61
234.578	24.71
234.795	20.15
235.012	18.7
235.229	17.77
235.446	17.45
235.663	21.51
235.879	20.45
236.096	25.47
236.313	27.54
236.53	21.23
236.747	24.45
236.964	19.78
237.181	33.64
237.397	26.36
237.614	34.49
237.831	42.07
238.048	40.19
238.264	36.13
238.481	35.66
238.698	34.15
238.915	40.4
239.131	33.41
239.348	31.5
239.565	25.41
239.781	27.85
239.998	22.78
240.215	20.92
240.431	21.15
240.648	26.11
240.865	19.39
241.081	18.07
241.298	16.21
241.514	16.9
241.731	18.11
241.947	18.91
242.164	18.72
242.38	16.91
242.597	15.02
242.814	14.9
243.03	14.7
243.246	16.75
243.463	17.25
243.679	17.09
243.896	18.11
244.112	17.18
244.329	17.72
244.545	18.41
244.762	17.78
244.978	15.12
245.194	12.61
245.411	11.81
245.627	10.78
245.843	11.88
246.06	12.79
246.276	10.4
246.492	11.76
246.709	10.51
246.925	10.93
247.141	13.14
247.357	14.02
247.574	14.59
247.79	13.39
248.006	13.59
248.222	14.03
248.439	13.61
248.655	14.55
248.871	13.57
249.087	14.84
249.303	14.6
249.519	12.48
249.736	13.19
249.952	12.97
250.168	18.07
250.384	18.14
250.6	15.56
250.816	16.7
251.032	15.72
251.248	17.94
251.464	16.08
251.68	16.89
251.896	15.63
252.112	15.71
252.328	13.15
252.544	10.78
252.76	10.58
252.976	11.34
253.192	10.33
253.408	9.74
253.624	8.45
253.84	10.25
254.056	8.76
254.272	10.39
254.487	7.71
254.703	6.06
254.919	4.08
255.135	8.91
255.351	10.07
255.567	7.67
255.782	10.49
255.998	11.89
256.214	9.45
256.43	7.19
256.646	8.51
256.861	10.8
257.077	13.75
257.293	12.41
257.508	9.23
257.724	9.24
257.94	9.15
258.155	9.34
258.371	7.82
258.587	7.24
258.802	8.97
259.018	8.96
259.234	8.5
259.449	9.27
259.665	9.36
259.88	9.75
260.096	9.71
260.312	10.12
260.527	9.92
260.743	10.25
260.958	11.43
261.174	12.18
261.389	13.14
261.605	13.55
261.82	12.89
262.036	12.99
262.251	13.27
262.466	13.06
262.682	12.84
262.897	14.2
263.113	15.08
263.328	12.84
263.543	11.84
263.759	11.34
263.974	10.05
264.189	9.98
264.405	9.62
264.62	8.52
264.835	7.54
265.051	9.32
265.266	6.56
265.481	9.24
265.696	13.74
265.912	11.36
266.127	7.95
266.342	7.62
266.557	7.99
266.773	9.29
266.988	9.06
267.203	10.29
267.418	9.74
267.633	10.8
267.848	9.25
268.064	4.91
268.279	7.2
268.494	7.34
268.709	8
268.924	9.4
269.139	7.59
269.354	7.27
269.569	5.49
269.784	4.33
269.999	4.11
270.214	3.52
270.429	4.3
270.644	3.48
270.859	3.05
271.074	3.48
271.289	4.41
271.504	6.08
271.719	6.93
271.934	9.41
272.149	9.54
272.363	10.96
272.578	10.02
272.793	10.59
273.008	9.94
273.223	10.65
273.438	9.68
273.653	9.39
273.867	8.94
274.082	9.44
274.297	8.76
274.512	10.74
274.726	8.46
274.941	8.77
275.156	11.26
275.371	12.2
275.585	13.69
275.8	15.77
276.015	14.03
276.229	15.44
276.444	14.35
276.659	12.94
276.873	10.42
277.088	13.25
277.302	15.38
277.517	11.7
277.732	10.87
277.946	9.78
278.161	9.22
278.375	8.36
278.59	6.81
278.804	6.57
279.019	8.67
279.233	8.57
279.448	5.38
279.662	4.04
279.877	6.34
280.091	5.2
280.306	5.46
280.52	4.43
280.735	5.27
280.949	8.65
281.163	9.25
281.378	8.09
281.592	10.42
281.806	10.99
282.021	10.27
282.235	10.37
282.449	11.98
282.664	12.38
282.878	13.67
283.092	12.8
283.307	8.94
283.521	7.91
283.735	8.07
283.949	7.07
284.164	7.59
284.378	7.3
284.592	6
284.806	7.28
285.02	7.06
285.234	5.1
285.449	5.65
285.663	8.02
285.877	8.12
286.091	8.57
286.305	8.56
286.519	9.38
286.733	9.66
286.947	10.95
287.161	9.64
287.375	9.75
287.589	12.24
287.803	12.65
288.017	11.18
288.231	11.43
288.445	10.89
288.659	10.85
288.873	10.33
289.087	11.19
289.301	11.71
289.515	10.17
289.729	10.35
289.943	9.73
290.157	10.59
290.371	11.42
290.584	11.49
290.798	12.3
291.012	12.13
291.226	10.92
291.44	10.85
291.654	10.03
291.867	11.28
292.081	10.5
292.295	9.52
292.509	9.91
292.722	8.67
292.936	7.71
293.15	6.38
293.364	5.77
293.577	7.28
293.791	8.13
294.005	6.33
294.218	7.58
294.432	7.27
294.645	8.7
294.859	7.98
295.073	10.27
295.286	10.93
295.5	10.71
295.713	10.91
295.927	10.13
296.14	9.11
296.354	9.42
296.568	8.93
296.781	9.86
296.994	9.75
297.208	9.25
297.421	9.13
297.635	10.28
297.848	10.35
298.062	10.05
298.275	10.36
298.489	10.98
298.702	11.68
298.915	11.57
299.129	11.03
299.342	10.61
299.555	11.69
299.769	11.05
299.982	10.72
300.195	11.38
300.409	12.59
300.622	12.84
300.835	11.47
301.048	12.43
301.262	12.44
301.475	13.76
301.688	13.35
301.901	12.2
302.115	11.48
302.328	11.09
302.541	11.74
302.754	11.52
302.967	12.77
303.18	14.47
303.393	13.42
303.607	14.13
303.82	13.37
304.033	14.52
304.246	16.46
304.459	16.94
304.672	16.47
304.885	15.85
305.098	15.64
305.311	15.51
305.524	14.38
305.737	13.92
305.95	13.9
306.163	13.85
306.376	12.64
306.589	11.63
306.802	12.23
307.015	13.32
307.228	13.38
307.44	13.56
307.653	13.02
307.866	14.07
308.079	15.6
308.292	14.19
308.505	15.58
308.718	16.29
308.93	17.79
309.143	17.44
309.356	16.79
309.569	16.89
309.781	16.77
309.994	16.55
310.207	15.29
310.42	14.09
310.632	15.16
310.845	14.29
311.058	14.68
311.27	13.1
311.483	12.9
311.696	12.95
311.908	12.5
312.121	12.73
312.333	13.55
312.546	13.24
312.759	13.32
312.971	12.83
313.184	12.94
313.396	12.28
313.609	12.1
313.821	12.69
314.034	12.6
314.246	11.86
314.459	12.44
314.671	11.68
314.884	12.66
315.096	13.9
315.309	15.27
315.521	15.21
315.733	15.42
315.946	15.99
316.158	15.93
316.371	16.94
316.583	17.44
316.795	16.25
317.008	16.61
317.22	17.16
317.432	16.74
317.644	16.57
317.857	17.55
318.069	16.67
318.281	17.15
318.494	16.23
318.706	16.59
318.918	17.99
319.13	17.82
319.342	17.29
319.555	16.89
319.767	17.63
319.979	16.8
320.191	15.61
320.403	16.68
320.615	16.38
320.827	16.14
321.039	14.77
321.252	14.75
321.464	15.63
321.676	15.73
321.888	16.74
322.1	16.25
322.312	15.91
322.524	17.18
322.736	16.27
322.948	16.28
323.16	17.31
323.372	18.32
323.584	18.57
323.796	18.92
324.007	18.38
324.219	18.58
324.431	19.22
324.643	20.59
324.855	21.19
325.067	21.7
325.279	22.11
325.491	23.13
325.702	23.71
325.914	23.46
326.126	23.6
326.338	23.19
326.55	22.75
326.761	22.44
326.973	22.35
327.185	21.87
327.396	23.91
327.608	25
327.82	23.76
328.032	24.16
328.243	24.67
328.455	25.52
328.666	27.68
328.878	28.76
329.09	30.09
329.301	30.72
329.513	30.91
329.725	30.81
329.936	31
330.148	32.6
330.359	32.9
330.571	34.12
330.782	33.7
330.994	33.82
331.205	34.29
331.417	34.27
331.628	34.19
331.84	35.97
332.051	35.75
332.262	35.66
332.474	35.43
332.685	35.91
332.897	35.16
333.108	36.12
333.319	36.29
333.531	36.37
333.742	35.71
333.953	35.5
334.165	35.19
334.376	35.98
334.587	36.15
334.799	36.2
335.01	35.41
335.221	36.28
335.432	34.84
335.644	34.47
335.855	35.49
336.066	36.18
336.277	36.16
336.488	35.38
336.7	34.39
336.911	35.03
337.122	35.71
337.333	35.92
337.544	35.14
337.755	36.67
337.966	37.14
338.177	36.38
338.388	36.67
338.599	37.35
338.811	37.96
339.022	38.58
339.233	37.99
339.444	37.73
339.655	36.79
339.866	37.95
340.076	37.14
340.287	37.05
340.498	37.11
340.709	36.98
340.92	37.01
341.131	36.81
341.342	37.44
341.553	37.11
341.764	37.64
341.975	38.65
342.185	38.32
342.396	38.81
342.607	38.9
342.818	38.9
343.029	38.38
343.239	38.3
343.45	37.56
343.661	36.19
343.872	36.51
344.082	36.2
344.293	35.83
344.504	36.07
344.714	35.59
344.925	35.44
345.136	34.77
345.346	33.41
345.557	32.91
345.768	33.58
345.978	34.16
346.189	33.87
346.399	33.12
346.61	33.08
346.821	33.04
347.031	34.21
347.242	34.09
347.452	34.28
347.663	35.95
347.873	35.91
348.084	35.82
348.294	35.1
348.504	35.16
348.715	35.82
348.925	36.64
349.136	35.23
349.346	34.26
349.557	34.13
349.767	34.89
349.977	34.58
350.188	34.66
350.398	35.36
350.608	35.63
350.819	36.32
351.029	35.02
351.239	35.54
351.449	36.24
351.66	36.25
351.87	36.26
352.08	36.17
352.29	36.48
352.501	36.45
352.711	35.15
352.921	35.12
353.131	34.17
353.341	35.27
353.552	33.74
353.762	33.6
353.972	33.51
354.182	33.75
354.392	32.16
354.602	32.26
354.812	33
355.022	33.37
355.232	33.69
355.442	33.61
355.652	33.73
355.862	33.98
356.072	34.36
356.282	34.08
356.492	34.41
356.702	35.54
356.912	35.09
357.122	35.02
357.332	35.05
357.542	34.36
357.752	34.4
357.962	34.01
358.171	34.01
358.381	33.5
358.591	33.31
358.801	32.8
359.011	32.45
359.221	32.53
359.43	31.47
359.64	30.66
359.85	30.78
360.06	30.99
360.269	30.61
360.479	30.87
360.689	31.74
360.899	31.83
361.108	31.75
361.318	31.44
361.528	31.17
361.737	31.7
361.947	32.3
362.156	32.78
362.366	32.15
362.576	32.4
362.785	31.96
362.995	31.71
363.204	31.97
363.414	32.06
363.623	32.05
363.833	32.33
364.042	32.16
364.252	32.01
364.461	31.1
364.671	31.15
364.88	31.06
365.09	31.78
365.299	31.26
365.509	31.01
365.718	30.27
365.927	30.31
366.137	30.05
366.346	29.83
366.555	29.71
366.765	30.35
366.974	30.94
367.183	30.85
367.393	29.76
367.602	29.42
367.811	29.35
368.021	30.02
368.23	30
368.439	29.47
368.648	29.39
368.857	28.72
369.067	27.76
369.276	27.8
369.485	27.41
369.694	27.94
369.903	27.97
370.112	27.73
370.321	27.16
370.531	26.85
370.74	27.64
370.949	27.72
371.158	28.07
371.367	28.16
371.576	27.26
371.785	27.13
371.994	27.23
372.203	27.03
372.412	26.78
372.621	26.87
372.83	26.7
373.039	26.12
373.248	25.58
373.457	25.23
373.666	25.06
373.874	25.05
374.083	25.27
374.292	24.82
374.501	24.87
374.71	24.64
374.919	24.49
375.128	24.55
375.336	24.66
375.545	24.91
375.754	24.63
375.963	24.76
376.171	24.54
376.38	23.93
376.589	23.18
376.798	22.49
377.006	22.78
377.215	23.04
377.424	23.08
377.632	22.31
377.841	22.35
378.05	22.5
378.258	22.31
378.467	22.55
378.675	22.44
378.884	23.13
379.093	23.43
379.301	23.08
379.51	22.5
379.718	22.03
379.927	22.62
380.135	22.31
380.344	21.97
380.552	21.95
380.761	21.91
380.969	21.78
381.177	21.13
381.386	22.04
381.594	21.88
381.803	21.43
382.011	21.47
382.219	20.8
382.428	20.67
382.636	20.39
382.845	20.01
383.053	19.32
383.261	19.45
383.469	19.65
383.678	18.4
383.886	18.38
384.094	18.85
384.302	19.46
384.511	19.96
384.719	19.74
384.927	20
385.135	20.16
385.343	20.25
385.552	20.12
385.76	19.77
385.968	19.42
386.176	19.19
386.384	18.61
386.592	17.61
386.8	17.46
387.008	17.55
387.216	17.51
387.424	17.44
387.633	17.07
387.841	17.14
388.049	17.42
388.257	17.85
388.465	17.82
388.672	17.88
388.88	18.19
389.088	17.58
389.296	17.09
389.504	16.63
389.712	16.4
389.92	16.58
390.128	16.5
390.336	16.03
390.544	15.91
390.751	15.71
390.959	15.5
391.167	15.24
391.375	15.58
391.583	15.57
391.79	15.56
391.998	15.89
392.206	15.89
392.414	15.7
392.621	15.71
392.829	15.59
393.037	15.61
393.244	15.55
393.452	15.7
393.66	15.55
393.867	15.46
394.075	15.33
394.283	14.73
394.49	14.59
394.698	14.43
394.905	14.32
395.113	14.1
395.32	13.87
395.528	13.77
395.735	13.56
395.943	13.2
396.15	13.39
396.358	13.24
396.565	13.21
396.773	12.91
396.98	12.89
397.188	12.73
397.395	12.82
397.602	13.07
397.81	13.09
398.017	12.83
398.225	13.01
398.432	12.64
398.639	12.85
398.847	12.63
399.054	12.97
399.261	13.17
399.468	13.19
399.676	13.38
399.883	13.28
400.09	13.22
400.297	13.48
400.505	13.41
400.712	13.56
400.919	13.6
401.126	13.69
401.333	13.26
401.54	13.04
401.748	13.04
401.955	12.52
402.162	12.16
402.369	12.15
402.576	11.95
402.783	11.52
402.99	11.46
403.197	11.04
403.404	11.08
403.611	11.37
403.818	11.4
404.025	11.04
404.232	11.4
404.439	11.44
404.646	11.5
404.853	11.45
405.06	11.4
405.267	11.52
405.474	11.69
405.681	11.75
405.887	11.49
406.094	11.78
406.301	12.09
406.508	12.05
406.715	12.25
406.922	12.08
407.128	12.47
407.335	12.79
407.542	12.48
407.749	12.48
407.955	12.34
408.162	12.42
408.369	11.81
408.575	11.89
408.782	11.91
408.989	11.24
409.195	11.26
409.402	11.03
409.609	10.88
409.815	10.88
410.022	11.04
410.228	11.12
410.435	11.36
410.642	11.67
410.848	11.61
411.055	11.67
411.261	11.72
411.468	11.95
411.674	11.8
411.881	11.97
412.087	12.15
412.294	12.08
412.5	11.97
412.706	11.76
412.913	11.61
413.119	11.21
413.326	10.7
413.532	11.02
413.738	10.73
413.945	10.31
414.151	10.32
414.357	10.08
414.564	10.14
414.77	10.27
414.976	10.2
415.182	10.23
415.389	10.42
415.595	10.34
415.801	10.29
416.007	10.56
416.214	10.58
416.42	10.29
416.626	10.2
416.832	10.02
417.038	9.89
417.244	10
417.45	9.78
417.657	9.86
417.863	9.68
418.069	9.81
418.275	9.56
418.481	9.6
418.687	9.72
418.893	9.95
419.099	9.99
419.305	9.86
419.511	9.82
419.717	9.77
419.923	9.81
420.129	9.96
420.335	9.98
420.541	9.93
420.746	9.79
420.952	9.79
421.158	9.67
421.364	9.6
421.57	9.57
421.776	9.63
421.982	9.81
422.187	9.69
422.393	9.61
422.599	9.48
422.805	9.49
423.01	9.71
423.216	9.68
423.422	9.75
423.628	9.77
423.833	9.83
424.039	9.7
424.245	9.6
424.45	9.56
424.656	9.55
424.862	9.55
425.067	9.44
425.273	9.36
425.478	9.33
425.684	9.21
425.889	9.3
426.095	9.26
426.301	9.23
426.506	9.11
426.712	9.07
426.917	9.15
427.123	9.03
427.328	9.27
427.533	9.25
427.739	9.3
427.944	9.34
428.15	9.11
428.355	9.07
428.561	9.11
428.766	9.12
428.971	9.06
429.177	9.2
429.382	9.16
429.587	8.98
429.793	9.06
429.998	8.91
430.203	8.74
430.408	8.74
430.614	8.84
430.819	8.78
431.024	8.88
431.229	8.98
431.434	8.97
431.64	9
431.845	8.97
432.05	8.93
432.255	8.86
432.46	8.91
432.665	8.86
432.87	8.79
433.076	8.87
433.281	8.91
433.486	8.89
433.691	8.76
433.896	8.84
434.101	8.77
434.306	8.59
434.511	8.73
434.716	8.61
434.921	8.83
435.126	8.88
435.331	8.81
435.535	8.7
435.74	8.65
435.945	8.47
436.15	8.35
436.355	8.71
436.56	8.76
436.765	8.85
436.97	8.92
437.174	8.69
437.379	8.69
437.584	8.8
437.789	8.67
437.993	8.74
438.198	8.93
438.403	9.09
438.608	8.91
438.812	9.05
439.017	8.77
439.222	8.79
439.426	8.88
439.631	8.86
439.836	8.84
440.04	8.89
440.245	8.91
440.45	8.95
440.654	8.96
440.859	8.76
441.063	8.79
441.268	8.93
441.472	8.85
441.677	8.82
441.881	8.7
442.086	8.65
442.29	8.79
442.495	8.67
442.699	8.67
442.904	8.5
443.108	8.72
443.312	8.68
443.517	8.69
443.721	8.78
443.925	8.77
444.13	8.81
444.334	8.6
444.538	8.51
444.743	8.56
444.947	8.35
445.151	8.51
445.356	8.57
445.56	8.56
445.764	8.45
445.968	8.41
446.173	8.31
446.377	8.35
446.581	8.51
446.785	8.45
446.989	8.45
447.193	8.56
447.398	8.59
447.602	8.4
447.806	8.4
448.01	8.4
448.214	8.44
448.418	8.41
448.622	8.4
448.826	8.46
449.03	8.5
449.234	8.5
449.438	8.59
449.642	8.45
449.846	8.59
450.05	8.4
450.254	8.4
450.458	8.27
450.662	8.56
450.866	8.45
451.069	8.25
451.273	8.24
451.477	8.27
451.681	8.18
451.885	8.07
452.089	8.16
452.292	8.09
452.496	8.03
452.7	8.18
452.904	8.03
453.107	8.23
453.311	8.13
453.515	8.13
453.719	8.06
453.922	7.98
454.126	8.12
454.33	7.76
454.533	7.76
454.737	7.84
454.94	7.82
455.144	7.9
455.348	7.79
455.551	8.02
455.755	7.98
455.958	8.1
456.162	8.34
456.365	8.24
456.569	8.43
456.772	8.34
456.976	8.59
457.179	8.61
457.383	8.59
457.586	8.59
457.79	8.55
457.993	8.62
458.196	8.49
458.4	8.37
458.603	8.38
458.807	8.3
459.01	8.64
459.213	8.43
459.417	8.45
459.62	8.3
459.823	8.31
460.026	8.16
460.23	8.11
460.433	8.01
460.636	7.94
460.839	7.94
461.042	7.94
461.246	7.92
461.449	7.96
461.652	7.88
461.855	7.92
462.058	7.84
462.261	8.06
462.464	7.96
462.668	8.12
462.871	8.33
463.074	8.16
463.277	8.19
463.48	8.02
463.683	8.03
463.886	8.07
464.089	8.08
464.292	8.02
464.495	8.01
464.698	8.1
464.901	8
465.104	7.68
465.306	7.67
465.509	7.67
465.712	7.81
465.915	7.92
466.118	7.79
466.321	7.9
466.524	7.86
466.726	7.89
466.929	7.85
467.132	7.99
467.335	8.15
467.538	8.24
467.74	8.14
467.943	8.02
468.146	7.81
468.348	7.9
468.551	7.76
468.754	7.84
468.956	7.89
469.159	7.86
469.362	7.93
469.564	8.02
469.767	8.1
469.969	8.25
470.172	8.34
470.375	8.51
470.577	8.54
470.78	8.53
470.982	8.47
471.185	8.31
471.387	8.4
471.59	8.25
471.792	8.19
471.995	8.16
472.197	8.29
472.399	8.23
472.602	8.2
472.804	8.22
473.007	8.26
473.209	8.49
473.411	8.62
473.614	8.74
473.816	8.69
474.018	8.55
474.22	8.59
474.423	8.37
474.625	8.36
474.827	8.34
475.03	8.33
475.232	8.56
475.434	8.59
475.636	8.46
475.838	8.34
476.04	8.35
476.243	8.42
476.445	8.42
476.647	8.56
476.849	8.64
477.051	8.63
477.253	8.85
477.455	8.64
477.657	8.51
477.859	8.37
478.061	8.31
478.263	8.36
478.465	8.22
478.667	8.11
478.869	8.11
479.071	8.04
479.273	7.92
479.475	7.7
479.677	7.75
479.879	7.65
480.081	7.74
480.283	7.8
480.485	7.73
480.686	8.04
480.888	8.18
481.09	8.21
481.292	8.21
481.494	8.32
481.695	8.27
481.897	8.25
482.099	8.27
482.301	8.26
482.502	8.17
482.704	8.25
482.906	8.08
483.107	8.04
483.309	7.96
483.511	7.94
483.712	7.94
483.914	7.97
484.115	7.9
484.317	7.88
484.519	7.88
484.72	7.89
484.922	7.86
485.123	7.85
485.325	7.83
485.526	7.84
485.728	7.8
485.929	7.76
486.131	7.65
486.332	7.67
486.534	7.7
486.735	7.66
486.936	7.65
487.138	7.59
487.339	7.65
487.541	7.62
487.742	7.66
487.943	7.72
488.144	7.69
488.346	7.76
488.547	7.76
488.748	7.75
488.95	7.76
489.151	7.82
489.352	7.93
489.553	7.89
489.755	7.91
489.956	7.86
490.157	7.86
490.358	7.87
490.559	7.86
490.76	7.93
490.961	7.86
491.163	7.93
491.364	7.95
491.565	7.93
491.766	7.98
491.967	8.06
492.168	8.1
492.369	8.06
492.57	8.14
492.771	8.14
492.972	8.13
493.173	8.29
493.374	8.39
493.575	8.37
493.776	8.38
493.976	8.37
494.177	8.32
494.378	8.32
494.579	8.51
494.78	8.46
494.981	8.5
495.182	8.65
495.382	8.54
495.583	8.35
495.784	8.39
495.985	8.58
496.185	8.61
496.386	8.7
496.587	8.68
496.788	8.59
496.988	8.47
497.189	8.48
497.39	8.38
497.59	8.38
497.791	8.35
497.992	8.33
498.192	8.15
498.393	8.2
498.593	8.19
498.794	8.15
498.994	8.27
499.195	8.42
499.395	8.52
499.596	8.57
499.796	8.65
499.997	8.92
500.197	9.01
500.398	9.1
500.598	8.91
500.799	9.04
500.999	9.17
501.199	9
501.4	9.12
501.6	9.09
501.801	9.07
502.001	9.16
502.201	8.96
502.402	8.79
502.602	8.77
502.802	9.01
503.002	8.99
503.203	9.09
503.403	9.16
503.603	9.12
503.803	9.23
504.003	9.52
504.204	9.56
504.404	9.89
504.604	10.09
504.804	10.4
505.004	10.46
505.204	10.51
505.404	10.48
505.604	10.7
505.804	10.8
506.005	10.85
506.205	10.47
506.405	10.61
506.605	10.5
506.805	10.55
507.005	10.41
507.204	10.48
507.404	10.43
507.604	10.64
507.804	10.57
508.004	10.72
508.204	10.63
508.404	10.76
508.604	10.72
508.804	10.77
509.003	10.82
509.203	10.9
509.403	10.98
509.603	11.06
509.803	11
510.002	11.05
510.202	11.07
510.402	11.36
510.602	11.54
510.801	11.65
511.001	11.8
511.201	11.86
511.4	11.87
511.6	11.9
511.8	12.14
511.999	12.44
512.199	12.52
512.398	12.52
512.598	12.55
512.797	12.82
512.997	12.88
513.197	12.91
513.396	13.07
513.596	13.37
513.795	13.5
513.994	13.52
514.194	13.47
514.393	13.55
514.593	13.84
514.792	14.03
514.992	14.05
515.191	14.23
515.39	14.3
515.59	14.33
515.789	14.32
515.988	14.42
516.188	14.52
516.387	14.81
516.586	15.21
516.786	15.29
516.985	15.34
517.184	15.52
517.383	15.67
517.582	15.75
517.782	15.91
517.981	15.95
518.18	16.05
518.379	16.29
518.578	16.24
518.777	16.27
518.976	16.4
519.176	16.48
519.375	16.5
519.574	16.58
519.773	16.8
519.972	17.02
520.171	17.37
520.37	17.46
520.569	17.53
520.768	17.8
520.967	17.81
521.166	17.98
521.365	18.2
521.564	18.41
521.762	18.77
521.961	18.95
522.16	18.98
522.359	18.96
522.558	19.17
522.757	19.19
522.956	19.12
523.154	19.3
523.353	19.53
523.552	19.71
523.751	19.76
523.949	19.73
524.148	19.79
524.347	20.08
524.546	20.2
524.744	20.57
524.943	20.82
525.142	21.04
525.34	21.22
525.539	21.28
525.737	21.46
525.936	21.71
526.135	21.86
526.333	22.07
526.532	22.06
526.73	22.18
526.929	22.25
527.127	22.44
527.326	22.69
527.524	22.83
527.723	22.99
527.921	23.03
528.12	23.02
528.318	23.15
528.516	23.26
528.715	23.41
528.913	23.51
529.112	23.57
529.31	23.55
529.508	23.6
529.707	23.64
529.905	23.71
530.103	23.81
530.301	23.98
530.5	24.02
530.698	24.07
530.896	24.26
531.094	24.47
531.293	24.62
531.491	24.86
531.689	24.99
531.887	25.17
532.085	25.24
532.283	25.35
532.481	25.47
532.68	25.7
532.878	25.84
533.076	25.88
533.274	25.87
533.472	25.94
533.67	26.01
533.868	26.06
534.066	26.12
534.264	26.2
534.462	26.25
534.66	26.33
534.858	26.36
535.056	26.5
535.253	26.64
535.451	26.82
535.649	27
535.847	27.18
536.045	27.27
536.243	27.55
536.441	27.66
536.638	27.87
536.836	28.01
537.034	28.12
537.232	28.1
537.43	28.08
537.627	28.18
537.825	28.13
538.023	28.2
538.22	28.4
538.418	28.45
538.616	28.66
538.813	28.65
539.011	28.87
539.209	28.94
539.406	29.14
539.604	29.32
539.801	29.41
539.999	29.56
540.196	29.59
540.394	29.61
540.591	29.61
540.789	29.7
540.986	29.79
541.184	29.89
541.381	30.02
541.579	30.04
541.776	30.12
541.974	30.15
542.171	30.14
542.368	30.16
542.566	30.23
542.763	30.24
542.96	30.24
543.158	30.32
543.355	30.27
543.552	30.25
543.75	30.42
543.947	30.41
544.144	30.51
544.341	30.69
544.539	30.91
544.736	31.01
544.933	31.15
545.13	31.21
545.327	31.35
545.524	31.45
545.722	31.59
545.919	31.49
546.116	31.67
546.313	31.59
546.51	31.75
546.707	31.78
546.904	31.83
547.101	31.82
547.298	32.03
547.495	32.04
547.692	32.08
547.889	31.95
548.086	32.03
548.283	32.14
548.48	32.29
548.677	32.34
548.874	32.27
549.07	32.39
549.267	32.63
549.464	32.54
549.661	32.52
549.858	32.61
550.055	33.01
550.251	33.13
550.448	32.97
550.645	33.03
550.842	32.94
551.038	32.88
551.235	33.01
551.432	33
551.628	33.16
551.825	33.48
552.022	33.5
552.218	33.35
552.415	33.63
552.612	33.78
552.808	33.98
553.005	34.18
553.201	34.37
553.398	34.49
553.594	34.6
553.791	34.68
553.987	34.56
554.184	34.65
554.38	34.67
554.577	34.69
554.773	34.87
554.97	34.79
555.166	34.79
555.362	34.85
555.559	34.75
555.755	34.91
555.952	34.9
556.148	35.24
556.344	35.3
556.541	35.37
556.737	35.37
556.933	35.3
557.129	35.38
557.326	35.47
557.522	35.55
557.718	35.71
557.914	35.55
558.11	35.49
558.307	35.11
558.503	35.18
558.699	35.42
558.895	35.5
559.091	35.56
559.287	35.6
559.483	35.69
559.679	35.54
559.876	35.4
560.072	35.46
560.268	35.71
560.464	35.82
560.66	35.95
560.856	35.99
561.052	36.01
561.247	35.92
561.443	36.1
561.639	36.05
561.835	36.34
562.031	36.39
562.227	36.49
562.423	36.47
562.619	36.68
562.815	36.47
563.01	36.5
563.206	36.51
563.402	36.59
563.598	36.69
563.793	36.54
563.989	36.64
564.185	36.7
564.381	36.74
564.576	36.85
564.772	36.6
564.968	36.71
565.163	36.76
565.359	36.72
565.555	36.71
565.75	36.64
565.946	36.85
566.141	36.98
566.337	37.01
566.532	37.17
566.728	37.14
566.923	37.37
567.119	37.48
567.314	37.47
567.51	37.61
567.705	37.78
567.901	37.99
568.096	37.9
568.292	38.08
568.487	38.2
568.682	38.24
568.878	38.38
569.073	38.41
569.268	38.29
569.464	38.52
569.659	38.51
569.854	38.56
570.05	38.21
570.245	38.53
570.44	38.26
570.635	38.27
570.831	38.18
571.026	38.16
571.221	38.32
571.416	38.41
571.611	38.18
571.806	38.17
572.002	38.23
572.197	38.32
572.392	38.16
572.587	38.37
572.782	38.35
572.977	38.4
573.172	38.34
573.367	38.1
573.562	38.34
573.757	38.52
573.952	38.47
574.147	38.37
574.342	38.58
574.537	38.79
574.732	38.49
574.927	38.64
575.121	38.62
575.316	38.59
575.511	38.74
575.706	38.53
575.901	38.5
576.096	38.81
576.29	38.9
576.485	38.84
576.68	38.8
576.875	38.91
577.069	38.93
577.264	39.06
577.459	39.23
577.654	39.17
577.848	39.29
578.043	39.37
578.238	39.35
578.432	39.25
578.627	39.4
578.821	39.31
579.016	39.49
579.21	39.58
579.405	39.38
579.6	39.28
579.794	39.84
579.989	39.86
580.183	39.8
580.378	39.49
580.572	39.89
580.766	39.83
580.961	39.62
581.155	39.54
581.35	39.42
581.544	39.71
581.738	40.18
581.933	39.64
582.127	40.01
582.321	40
582.516	40.33
582.71	39.98
582.904	40.18
583.099	40.43
583.293	40.36
583.487	40.48
583.681	40.55
583.875	40.34
584.07	40.55
584.264	40.54
584.458	40.74
584.652	40.63
584.846	40.93
585.04	40.7
585.234	40.86
585.428	40.95
585.623	41.16
585.817	40.98
586.011	40.82
586.205	41.05
586.399	40.99
586.593	41
586.787	41.22
586.981	41.13
587.174	41.12
587.368	41.12
587.562	40.98
587.756	40.8
587.95	40.96
588.144	41.11
588.338	41.07
588.532	40.94
588.725	41.06
588.919	40.92
589.113	40.81
589.307	41.15
589.501	41.02
589.694	41.4
589.888	41.35
590.082	41.24
590.275	41.2
590.469	41.05
590.663	41.31
590.856	41.06
591.05	41.14
591.244	41.36
591.437	41.52
591.631	41.65
591.824	41.28
592.018	41.39
592.212	41.55
592.405	41.63
592.599	41.79
592.792	41.52
592.986	41.59
593.179	41.57
593.372	41.54
593.566	41.25
593.759	41.38
593.953	41.66
594.146	41.75
594.339	42.02
594.533	42.07
594.726	41.81
594.92	41.98
595.113	41.74
595.306	41.76
595.499	41.74
595.693	41.81
595.886	41.93
596.079	42.01
596.272	42.07
596.466	41.87
596.659	41.87
596.852	42.17
597.045	42.08
597.238	42.3
597.431	42.35
597.624	42.52
597.818	42.47
598.011	42.37
598.204	42.41
598.397	42.24
598.59	42.19
598.783	42.26
598.976	42.34
599.169	42.4
599.362	42.42
599.555	42.34
599.748	42.15
599.941	42.17
600.134	42.23
600.326	42.1
600.519	42.28
600.712	42.57
600.905	42.75
601.098	42.53
601.291	42.66
601.483	42.8
601.676	42.75
601.869	42.8
602.062	42.71
602.255	42.81
602.447	42.69
602.64	42.87
602.833	42.67
603.025	42.47
603.218	42.5
603.411	42.32
603.603	42.38
603.796	42.75
603.989	42.67
604.181	42.68
604.374	42.65
604.566	42.81
604.759	42.65
604.951	42.61
605.144	42.67
605.336	42.81
605.529	42.81
605.721	42.88
605.914	42.76
606.106	42.92
606.299	43.09
606.491	43.22
606.683	43.37
606.876	43.41
607.068	43.64
607.26	43.71
607.453	43.6
607.645	43.63
607.837	43.52
608.03	43.29
608.222	43.23
608.414	43.21
608.606	43.04
608.799	43.11
608.991	43.04
609.183	43.04
609.375	43.14
609.567	43.07
609.759	43.36
609.952	43.38
610.144	43.77
610.336	43.95
610.528	44.06
610.72	44.39
610.912	44.26
611.104	44.63
611.296	44.49
611.488	44.35
611.68	44.86
611.872	44.77
612.064	44.98
612.256	44.67
612.448	44.62
612.64	44.45
612.832	44.12
613.023	44.25
613.215	44.04
613.407	44.16
613.599	44.13
613.791	43.9
613.983	43.86
614.174	43.53
614.366	43.81
614.558	43.75
614.75	44.17
614.941	43.99
615.133	43.88
615.325	44.04
615.516	44.28
615.708	44.57
615.9	44.41
616.091	44.62
616.283	44.76
616.475	44.49
616.666	44.33
616.858	44.38
617.049	44.35
617.241	44.38
617.432	43.9
617.624	43.9
617.815	43.79
618.007	43.68
618.198	43.59
618.39	43.92
618.581	44.16
618.773	44.14
618.964	44.05
619.155	44.31
619.347	44.25
619.538	44.65
619.729	44.75
619.921	44.72
620.112	45.07
620.303	44.91
620.494	44.78
620.686	44.55
620.877	45.03
621.068	44.6
621.259	44.58
621.451	44.64
621.642	44.32
621.833	44.27
622.024	43.9
622.215	43.76
622.406	43.76
622.597	43.42
622.788	43.16
622.98	42.99
623.171	43.12
623.362	43.32
623.553	43.53
623.744	43.64
623.935	43.41
624.126	43.93
624.317	44.05
624.508	43.86
624.698	44.07
624.889	44.65
625.08	44.79
625.271	45
625.462	45
625.653	44.65
625.844	44.75
626.034	44.72
626.225	44.63
626.416	44.19
626.607	44.45
626.798	44.57
626.988	44.42
627.179	44.31
627.37	44.07
627.56	44
627.751	44.24
627.942	44.31
628.132	44.41
628.323	44.07
628.514	44.45
628.704	44.38
628.895	44.23
629.085	44
629.276	43.89
629.466	44.21
629.657	44.3
629.847	44.16
630.038	44.33
630.228	44.4
630.419	44.99
630.609	44.9
630.8	45.06
630.99	45.33
631.181	45.88
631.371	46.08
631.561	45.86
631.752	45.55
631.942	45.94
632.132	45.53
632.323	45.42
632.513	45.37
632.703	45.33
632.893	45.42
633.084	45.07
633.274	44.85
633.464	44.5
633.654	44.6
633.844	44.58
634.034	44.06
634.225	43.83
634.415	43.81
634.605	43.58
634.795	43.6
634.985	43.63
635.175	43.92
635.365	44.17
635.555	44.35
635.745	44.25
635.935	44.57
636.125	44.69
636.315	45.35
636.505	45.38
636.695	45.5
636.885	45.67
637.075	45.64
637.265	45.5
637.455	45.22
637.644	45.45
637.834	45.63
638.024	45.67
638.214	46.17
638.404	46.23
638.593	46.36
638.783	46.09
638.973	46.04
639.163	46.13
639.352	45.88
639.542	45.57
639.732	45.61
639.921	45.74
640.111	45.57
640.301	45.23
640.49	45.13
640.68	45.44
640.87	45.71
641.059	45.66
641.249	45.53
641.438	45.6
641.628	46.07
641.817	46.21
642.007	45.83
642.196	45.92
642.386	45.89
642.575	45.82
642.764	45.22
642.954	45.26
643.143	45.52
643.333	45.57
643.522	45.45
643.711	44.95
643.901	44.64
644.09	44.63
644.279	44.84
644.469	44.71
644.658	44.64
644.847	44.75
645.036	44.98
645.226	44.72
645.415	44.49
645.604	44.89
645.793	45.23
645.982	44.78
646.171	44.81
646.361	44.47
646.55	45.07
646.739	44.98
646.928	45.24
647.117	45.01
647.306	44.86
647.495	45
647.684	44.97
647.873	44.84
648.062	45.21
648.251	45.31
648.44	45.3
648.629	44.74
648.818	44.71
649.007	44.72
649.196	44.75
649.384	44.89
649.573	44.98
649.762	44.96
649.951	45.15
650.14	45.27
650.328	45.12
650.517	45.29
650.706	45.59
650.895	45.79
651.083	46.27
651.272	46.58
651.461	46.57
651.65	46.55
651.838	46.72
652.027	46.55
652.216	46.35
652.404	46.22
652.593	46.02
652.781	46.06
652.97	45.94
653.158	45.25
653.347	44.97
653.535	44.61
653.724	44.48
653.912	44.78
654.101	44.84
654.289	45.41
654.478	45.46
654.666	45.64
654.855	45.68
655.043	45.43
655.231	45.66
655.42	45.72
655.608	46.36
655.796	46.54
655.985	46.19
656.173	45.84
656.361	45.78
656.55	45.53
656.738	45.79
656.926	45.59
657.114	45.87
657.302	45.92
657.491	45.79
657.679	45.7
657.867	45.53
658.055	45.49
658.243	45.82
658.431	45.51
658.619	46.18
658.807	46.01
658.996	45.77
659.184	45.77
659.372	45.92
659.56	45.85
659.748	45.68
659.936	45.81
660.124	45.8
660.311	45.72
660.499	45.69
660.687	45.19
660.875	45.31
661.063	45.63
661.251	45.45
661.439	45.23
661.627	45.72
661.814	45.93
662.002	45.69
662.19	46
662.378	46.01
662.565	46.21
662.753	46.63
662.941	46.69
663.129	46.48
663.316	47
663.504	46.38
663.692	45.84
663.879	45.39
664.067	45.46
664.254	45.14
664.442	45.44
664.63	45.38
664.817	45.77
665.005	45.24
665.192	45.41
665.38	44.8
665.567	45.49
665.755	45.48
665.942	45.64
666.13	45.89
666.317	45.94
666.504	45.92
666.692	46.24
666.879	45.68
667.067	46
667.254	46.43
667.441	46.78
667.629	46.81
667.816	46.87
668.003	47.21
668.19	47.47
668.378	47.54
668.565	47.31
668.752	46.9
668.939	46.86
669.127	47.01
669.314	46.45
669.501	46.8
669.688	46.75
669.875	46.91
670.062	46.89
670.249	46.44
670.436	46.06
670.623	46.08
670.81	46.24
670.997	46.7
671.184	46.57
671.371	47.26
671.558	46.74
671.745	46.7
671.932	46.12
672.119	46.23
672.306	46.23
672.493	46.55
672.68	47.18
672.867	47.48
673.054	47.21
673.24	47.08
673.427	46.85
673.614	46.55
673.801	46.99
673.988	47.92
674.174	47.75
674.361	47.79
674.548	47.53
674.734	47.09
674.921	46.68
675.108	46.82
675.294	47.08
675.481	46.7
675.668	47.23
675.854	47
676.041	46.43
676.227	46.45
676.414	46.81
676.601	47.4
676.787	47.41
676.974	47.46
677.16	47.32
677.347	47.51
677.533	47.71
677.719	48.09
677.906	47.77
678.092	48.09
678.279	47.87
678.465	47.55
678.651	47.13
678.838	46.91
679.024	46.69
679.21	46.19
679.397	45.86
679.583	45.99
679.769	45.18
679.955	45.08
680.142	44.84
680.328	45.15
680.514	45.11
680.7	45.26
680.886	45.48
681.073	45.66
681.259	46.28
681.445	46.35
681.631	46.09
681.817	46.71
682.003	47.04
682.189	47.12
682.375	47.23
682.561	47.54
682.747	47.6
682.933	47.61
683.119	47.85
683.305	48.04
683.491	48.14
683.677	48.66
683.863	48.51
684.049	48.85
684.235	49.06
684.42	48.53
684.606	48.06
684.792	48.35
684.978	48.02
685.164	47.76
685.349	47.35
685.535	47.71
685.721	47.19
685.907	46.74
686.092	46.49
686.278	46.76
686.464	47.12
686.649	47.77
686.835	47.41
687.021	47.96
687.206	48.11
687.392	48.44
687.577	48.34
687.763	48.23
687.948	48.88
688.134	48.29
688.319	47.78
688.505	47.58
688.69	47.51
688.876	47.42
689.061	46.82
689.247	47.21
689.432	47.18
689.618	46.71
689.803	47
689.988	46.55
690.174	47.49
690.359	47.4
690.544	47.82
690.73	47.76
690.915	47.82
691.1	47.82
691.285	47.89
691.471	47.56
691.656	47.85
691.841	47.91
692.026	47.99
692.211	47.56
692.396	47.71
692.582	48.04
692.767	47.62
692.952	48.09
693.137	48.36
693.322	48.12
693.507	48.29
693.692	47.75
693.877	47.97
694.062	47.98
694.247	48.13
694.432	48.37
694.617	47.65
694.802	47.57
694.987	47.03
695.172	47.32
695.357	47.24
695.541	47.16
695.726	48.27
695.911	48.39
696.096	48.58
696.281	48.71
696.466	48.7
696.65	48.83
696.835	49.27
697.02	48.92
697.204	49.49
697.389	49.26
697.574	49.05
697.759	48.31
697.943	47.87
698.128	47.86
698.312	47.99
698.497	47.73
698.682	47.71
698.866	47.78
699.051	48.17
699.235	47.71
699.42	47.65
699.604	47.64
699.789	47.85
699.973	47.6
700.158	47.49
700.342	46.8
700.527	46.81
700.711	46.96
700.895	47.16
701.08	46.99
701.264	47.18
701.448	47.27
701.633	47.29
701.817	47.57
702.001	48.54
702.186	48.52
702.37	48.87
702.554	49.18
702.738	48.97
702.923	48.42
703.107	48.4
703.291	48.41
703.475	48.72
703.659	48.88
703.843	48.46
704.027	47.98
704.212	47.96
704.396	48.25
704.58	48.27
704.764	47.7
704.948	47.93
705.132	47.86
705.316	47.47
705.5	47.37
705.684	47.6
705.868	47.75
706.052	47.83
706.235	48.48
706.419	48.57
706.603	48.71
706.787	48.77
706.971	48.07
707.155	48.02
707.339	48.1
707.522	47.88
707.706	47.56
707.89	47.18
708.074	47.2
708.257	47.01
708.441	47.72
708.625	47.37
708.808	47.96
708.992	48.76
709.176	49.1
709.359	49.04
709.543	49.24
709.727	49.55
709.91	49.77
710.094	49.32
710.277	49.65
710.461	49.43
710.644	50.04
710.828	50.4
711.011	49.81
711.195	49.44
711.378	49.88
711.562	49.96
711.745	49.73
711.928	49.21
712.112	49.16
712.295	48.74
712.478	48.21
712.662	48.26
712.845	47.57
713.028	47.79
713.212	48.01
713.395	47.14
713.578	47.02
713.761	47.3
713.945	47.73
714.128	48.06
714.311	47.96
714.494	47.68
714.677	47.3
714.86	47.12
715.043	47.26
715.227	47.37
715.41	48.06
715.593	47.83
715.776	48.07
715.959	48.02
716.142	47.61
716.325	48.06
716.508	48.6
716.691	48.45
716.874	48.85
717.057	48.6
717.239	48.31
717.422	48.12
717.605	48.02
717.788	47.55
717.971	48.65
718.154	49.72
718.337	49.13
718.519	48.89
718.702	49.26
718.885	48.49
719.068	48.57
719.25	48.98
719.433	48.55
719.616	48.64
719.798	48.81
719.981	48.53
720.164	46.83
720.346	47.27
720.529	47.29
720.712	46.86
720.894	48.49
721.077	48.18
721.259	47.79
721.442	48.53
721.624	49.34
721.807	48.98
721.989	48.4
722.172	49.38
722.354	49.35
722.537	48.74
722.719	48.6
722.901	48.35
723.084	48.27
723.266	48.53
723.448	48.78
723.631	47.38
723.813	48.19
723.995	47.74
724.178	47.81
724.36	47.39
724.542	48.28
724.724	48.78
724.907	48.24
725.089	48.77
725.271	49.21
725.453	48.11
725.635	49.21
725.817	49.22
725.999	50.49
726.181	50.7
726.364	50.77
726.546	49.97
726.728	49.91
726.91	49.56
727.092	49.84
727.274	49.19
727.456	49.33
727.638	48.91
727.819	49.14
728.001	48.57
728.183	47.29
728.365	47.61
728.547	48.3
728.729	47.96
728.911	48.93
729.093	48.45
729.274	48.39
729.456	48.67
729.638	49.08
729.82	48.24
730.001	47.49
730.183	48.48
730.365	47.88
730.546	47.64
730.728	47.71
730.91	47.68
731.091	47.69
731.273	47.66
731.455	48.08
731.636	48.61
731.818	49.8
731.999	50.41
732.181	50.5
732.362	51
732.544	51.43
732.725	50.82
732.907	50.35
733.088	50.51
733.27	51.36
733.451	50.95
733.633	49.89
733.814	48.72
733.995	48.37
734.177	48.94
734.358	48.9
734.539	48.13
734.721	48.8
734.902	48.75
735.083	49.86
735.264	48.61
735.446	49.72
735.627	50.04
735.808	50.82
735.989	50.52
736.17	50.48
736.351	50.69
736.533	51.41
736.714	51.4
736.895	50.09
737.076	48.69
737.257	48.97
737.438	47.76
737.619	48
737.8	47.27
737.981	48.8
738.162	48.17
738.343	48.22
738.524	47.77
738.705	47.86
738.886	48.59
739.067	48.99
739.247	49.6
739.428	48.9
739.609	48.35
739.79	48.92
739.971	48.14
740.151	48.69
740.332	48.22
740.513	48.58
740.694	48.81
740.874	48.16
741.055	48.15
741.236	48.08
741.417	48.77
741.597	49.39
741.778	49.13
741.958	48.55
742.139	46.91
742.32	46.4
742.5	45.97
742.681	45.81
742.861	47.54
743.042	47.18
743.222	46.99
743.403	47.37
743.583	47.24
743.764	47.39
743.944	48.59
744.124	50.27
744.305	50.72
744.485	50.87
744.666	51.34
744.846	50.54
745.026	51.28
745.207	51.63
745.387	51.38
745.567	51.77
745.747	51.47
745.928	49.47
746.108	49.43
746.288	48.9
746.468	49.68
746.648	49.7
746.829	50.17
747.009	48.99
747.189	48.49
747.369	48.04
747.549	47.06
747.729	47.64
747.909	48.39
748.089	47.72
748.269	48.03
748.449	47.76
748.629	47.15
748.809	47.13
748.989	47.58
749.169	46.82
749.349	46.66
749.529	46.95
749.709	46.41
749.889	46.69
750.068	46.86
750.248	47.03
750.428	47.62
750.608	47.62
750.788	48.61
750.967	49.05
751.147	49.2
751.327	49.75
751.507	49.97
751.686	49.27
751.866	50.29
752.046	50.56
752.225	50.58
752.405	49.86
752.585	48.51
752.764	47.49
752.944	46.97
753.123	47.79
753.303	47.53
753.482	47.68
753.662	48.52
753.841	47.47
754.021	47.55
754.2	47.4
754.38	46.51
754.559	48.26
754.739	49.42
754.918	49.69
755.097	49.18
755.277	48.54
755.456	48.86
755.635	49.54
755.815	49.43
755.994	48.79
756.173	48.9
756.352	49.25
756.532	48.7
756.711	46.8
756.89	46.54
757.069	47.49
757.248	47.55
757.427	45.85
757.607	44.34
757.786	44.71
757.965	43.88
758.144	43.9
758.323	44
758.502	44.64
758.681	45.06
758.86	46.13
759.039	46.42
759.218	46.68
759.397	47.96
759.576	47.91
759.755	48.04
759.934	49.16
760.113	49.76
760.291	50.54
760.47	50.85
760.649	51.24
760.828	50.25
761.007	48.87
761.186	49.23
761.364	48.55
761.543	49.9
761.722	50.33
761.901	49.46
762.079	49.22
762.258	49.25
762.437	48.42
762.615	48.03
762.794	48.45
762.972	49.19
763.151	49.26
763.33	48.96
763.508	48.51
763.687	48.29
763.865	49.13
764.044	48.46
764.222	47.72
764.401	47.86
764.579	48.28
764.758	47.61
764.936	47.78
765.114	47.13
765.293	47.51
765.471	47.4
765.65	46.76
765.828	46.8
766.006	48.02
766.184	47.92
766.363	47.49
766.541	46.73
766.719	46.97
766.898	46.9
767.076	47.84
767.254	47.68
767.432	47.7
767.61	48.21
767.788	48.05
767.967	47.14
768.145	47.9
768.323	48.1
768.501	49.1
768.679	50.43
768.857	50.01
769.035	50.62
769.213	51.5
769.391	50.84
769.569	50.51
769.747	51.09
769.925	49.87
770.103	49.4
770.281	49.3
770.459	48.74
770.636	47.67
770.814	48.06
770.992	47.34
771.17	45.94
771.348	46.29
771.525	46.74
771.703	47.34
771.881	48.57
772.059	50.88
772.236	50.24
772.414	49.99
772.592	50.56
772.769	49.74
772.947	50.44
773.125	50.69
773.302	53.05
773.48	52.5
773.657	50.68
773.835	49.74
774.013	47.83
774.19	48.86
774.368	47.4
774.545	46.33
774.723	45.61
774.9	45.91
775.077	45.19
775.255	44.19
775.432	44.13
775.61	43.73
775.787	43.42
775.964	42.14
776.142	42.91
776.319	44.75
776.496	46.81
776.674	47.89
776.851	47.9
777.028	49.03
777.205	49.26
777.382	50.77
777.56	51.04
777.737	55
777.914	56.45
778.091	56.75
778.268	56.04
778.445	54.07
778.622	53.69
778.8	53.09
778.977	53.81
779.154	56.58
779.331	54.57
779.508	55.39
779.685	53.23
779.862	54.45
780.038	54.01
780.215	57.72
780.392	59.28
780.569	60.47
780.746	59.85
780.923	59.59
781.1	57.51
781.277	57.21
781.453	55.21
781.63	55.5
781.807	54.46
781.984	52.44
782.16	49.13
782.337	48.75
782.514	49
782.691	49.44
782.867	50
783.044	49.81
783.221	50.87
783.397	52.15
783.574	52.24
783.75	52.42
783.927	55.71
784.103	55.94
784.28	54.79
784.456	53.22
784.633	52.74
784.809	53.95
784.986	51.54
785.162	52.92
785.339	50.73
785.515	48.03
785.692	47.23
785.868	44.73
786.044	45.44
786.221	46.87
786.397	47.91
786.573	47.08
786.749	46.04
786.926	46.85
787.102	46.13
787.278	49.04
787.454	52.21
787.631	52.57
787.807	50.73
787.983	49.43
788.159	49.58
788.335	49.32
788.511	50.37
788.687	47.98
788.863	47.75
789.039	46.11
789.216	44.68
789.392	43.64
789.568	41.99
789.744	44.82
789.919	44.15
790.095	41.38
790.271	41.74
790.447	41.7
790.623	42.11
790.799	40.84
790.975	42.07
791.151	42.63
791.327	41.42
791.502	43.3
791.678	43.29
791.854	44.78
792.03	46.44
792.205	46.87
792.381	48.13
792.557	47.92
792.733	47.22
792.908	47.96
793.084	48.12
793.259	49.14
793.435	47.32
793.611	47.83
793.786	48.43
793.962	47.57
794.137	45.3
794.313	44.18
794.488	47.26
794.664	48.97
794.839	47.58
795.015	46.05
795.19	44.91
795.366	46.35
795.541	46.62
795.716	42.74
795.892	42.87
796.067	43.79
796.242	44.22
796.418	42.5
796.593	42.76
796.768	42.75
796.944	43.89
797.119	43.03
797.294	43.08
797.469	41.96
797.644	44.11
797.82	45.38
797.995	45.46
798.17	44.33
798.345	43.51
798.52	43.77
798.695	44.59
798.87	43.51
799.045	46.87
799.22	46.51
799.395	45.78
799.57	46.49
799.745	46.91
799.92	44.91
800.095	43.61
800.27	44.59
800.445	44.25
800.62	42.8
800.795	42.37
800.97	42.82
801.145	42.38
801.319	40.15
801.494	42.28
801.669	43.72
801.844	46.79
802.018	49.76
802.193	47.59
802.368	47.16
802.543	48.01
802.717	52.83
802.892	50.37
803.067	51.04
803.241	55.07
803.416	52.01
803.59	51.92
803.765	51.09
803.94	51.87
804.114	51.66
804.289	53.85
804.463	52.67
804.638	48.02
804.812	48.78
804.986	48.44
805.161	47.53
805.335	48.27
805.51	44.71
805.684	42.7
805.858	40.1
806.033	42.43
806.207	38.84
806.381	43.85
806.556	46.38
806.73	47.58
806.904	48.77
807.078	47.54
807.253	46.36
807.427	46.62
807.601	47.82
807.775	48.94
807.949	50.54
808.123	52.71
808.298	52.24
808.472	49.17
808.646	48.05
808.82	45.88
808.994	45.17
809.168	44.81
809.342	48.26
809.516	49.88
809.69	50.31
809.864	48.61
810.038	47.74
810.212	45.38
810.385	47.69
810.559	48.45
810.733	48.26
810.907	51.45
811.081	53.46
811.255	49.31
811.428	46.63
811.602	42.32
811.776	42.91
811.95	43.1
812.123	41.47
812.297	42.58
812.471	40.25
812.644	40.34
812.818	42.27
812.992	41.89
813.165	43.45
813.339	45.16
813.512	48.64
813.686	50.13
813.86	50.72
814.033	51.22
814.207	48.49
814.38	50.21
814.554	52.58
814.727	49.95
814.9	52.4
815.074	51.93
815.247	49.55
815.421	49.75
815.594	50.27
815.767	51.11
815.941	49.19
816.114	53.87
816.287	53.61
816.46	53.88
816.634	55
816.807	53.54
816.98	53.34
817.153	55.43
817.327	58.09
817.5	55.89
817.673	57.19
817.846	59.03
818.019	60.2
818.192	61.72
818.365	56.28
818.538	55.95
818.711	52.92
818.884	51.15
819.057	49.51
819.23	47.31
819.403	48.2
819.576	47.38
819.749	47.93
819.922	44.9
820.095	42.67
820.268	45.27
820.441	46.41
820.614	49.46
820.786	49.85
820.959	51.15
821.132	50.09
821.305	47.4
821.477	46.57
821.65	46.76
821.823	47.62
821.996	48.27
822.168	48.49
822.341	47.74
822.514	47.65
822.686	47.72
822.859	47.41
823.031	47.71
823.204	48.29
823.376	48.15
823.549	48.27
823.722	48.28
823.894	48.51
824.067	48.24
824.239	48.3
824.411	47.88
824.584	48.35
824.756	48.27
824.929	48.24
825.101	48.14
825.273	48.54
825.446	47.74
825.618	46.77
825.79	46.66
825.963	47.02
826.135	47.04
826.307	47.68
826.479	46.48
826.652	46.93
826.824	47.17
826.996	47.1
827.168	47.56
827.34	47.76
827.512	49.17
827.684	48.24
827.856	48.25
828.029	46.83
828.201	45.64
828.373	47.42
828.545	46.99
828.717	46.6
828.889	46.3
829.061	46.58
829.232	47.18
829.404	45.73
829.576	46.63
829.748	45.65
829.92	48.22
830.092	49.97
830.264	47.47
830.436	49.54
830.607	49.68
830.779	50.04
830.951	48.08
831.123	46.96
831.294	47.65
831.466	47.32
831.638	48.2
831.809	45.72
831.981	44.66
832.153	45.81
832.324	37.7
832.496	37.9
832.667	41.64
832.839	45.55
833.011	47.15
833.182	45.62
833.354	43
833.525	44.81
833.697	44.85
833.868	45.47
834.039	46.82
834.211	49.75
834.382	49.01
834.554	45.94
834.725	44.36
834.896	43.35
835.068	42.73
835.239	44
835.41	44.18
835.581	44.64
835.753	44.37
835.924	44.1
836.095	44.13
836.266	46.61
836.438	48.02
836.609	46.02
836.78	45.8
836.951	49.02
837.122	48.75
837.293	47.09
837.464	47.07
837.635	49.04
837.806	47.21
837.977	48.28
838.148	46.03
838.319	43.6
838.49	47.58
838.661	47.33
838.832	45.97
839.003	46.73
839.174	48.63
839.345	52.82
839.516	48.66
839.687	48.91
839.857	48
840.028	50.57
840.199	53.09
840.37	51.23
840.54	54.2
840.711	53.76
840.882	56.31
841.053	54.21
841.223	51.69
841.394	56.37
841.564	62.58
841.735	62.69
841.906	60.69
842.076	59.99
842.247	60.54
842.417	54.09
842.588	51.2
842.758	49.4
842.929	49.51
843.099	51.56
843.27	46.84
843.44	44.78
843.611	43.86
843.781	42.06
843.951	43.01
844.122	40.53
844.292	41.73
844.462	48.38
844.633	50.92
844.803	48.69
844.973	49.51
845.144	53.15
845.314	50.43
845.484	49.29
845.654	50.39
845.824	48.25
845.995	44.57
846.165	54.27
846.335	46.89
846.505	40.9
846.675	45.79
846.845	39.57
847.015	37.97
847.185	40.95
847.355	46.41
847.525	38.84
847.695	47.26
847.865	54.57
848.035	45.37
848.205	53.93
848.375	56.33
848.545	55.21
848.715	55.97
848.884	46.79
849.054	42.32
849.224	44.4
849.394	47.27
849.564	39.99
849.733	43.63
849.903	40.69
850.073	38.93
850.243	42.31
850.412	38.56
850.582	37.61
850.752	45.12
850.921	36.21
851.091	36.2
851.26	34.14
851.43	34.29
851.599	33.75
851.769	33.78
851.939	35.33
852.108	21.76
852.278	29.03
852.447	26.25
852.616	19.72
852.786	24.91
852.955	28.01
853.125	32.66
853.294	39.33
853.463	37.44
853.633	32.44
853.802	36.51
853.971	56.28
854.141	59.31
854.31	62.51
854.479	60.13
854.648	86.58
854.818	78.21
854.987	67.86
855.156	50.24
855.325	50.34
855.494	52.02
855.663	49.89
855.832	45.07
856.001	38.97
856.171	32.37
856.34	34.06
856.509	24.99
856.678	20.23
856.847	31.85
857.016	38.79
857.185	40.47
857.353	53.45
857.522	45.46
857.691	36.69
857.86	41.08
858.029	49.31
858.198	54.84
858.367	61.65
858.535	52.98
858.704	68.52
858.873	85.48
859.042	82.66
859.21	84.78
859.379	73.74
859.548	61.45
859.717	66.18
859.885	63.7
860.054	63.08
860.222	52.68
860.391	53.97
860.56	45.54
860.728	41.04
860.897	38.39
861.065	32.85
861.234	42.54
861.402	47.58
861.571	45.72
861.739	49.69
861.908	55.29
862.076	68.66
862.244	72.78
862.413	69.16
862.581	67.76
862.749	66.46
862.918	67.15
863.086	62.71
863.254	80.14
863.423	80.71
863.591	60.77
863.759	59.41
863.927	38.74
864.096	33.06
864.264	33.34
864.432	46.15
864.6	52.87
864.768	50.71
864.936	53.4
865.104	53.96
865.272	55.34
865.44	65.41
865.608	54.57
865.776	64.9
865.944	71.62
866.112	76.01
866.28	71.65
866.448	66.21
866.616	67.87
866.784	69.7
866.952	57.01
867.12	64.88
867.288	62.95
867.455	71.59
867.623	62.75
867.791	63.71
867.959	74.34
868.127	72.63
868.294	54.18
868.462	56.86
868.63	49.42
868.797	60.05
868.965	45.49
869.133	42.94
869.3	37.8
869.468	52.3
869.636	46.34
869.803	40.28
869.971	33.29
870.138	48.16
870.306	49.66
870.473	51.23
870.641	42.93
870.808	46.84
870.975	47.74
871.143	51.64
871.31	43.87
871.478	33.05
871.645	31.7
871.812	48.65
871.98	38.18
872.147	28.04
872.314	20.1
872.482	21.7
872.649	22.18
872.816	28.41
872.983	31.39
873.15	33.3
873.318	44.75
873.485	49.15
873.652	37.66
873.819	36.26
873.986	45.32
874.153	59.88
874.32	64.32
874.487	64.47
874.654	72.83
874.821	71.18
874.988	70.62
875.155	64.71
875.322	71.87
875.489	74
875.656	64.64
875.823	53.83
875.99	46.89
876.157	55.16
876.324	52.03
876.49	51.17
876.657	52.91
876.824	62.46
876.991	56.91
877.157	50.48
877.324	56.64
877.491	67.47
877.658	63.98
877.824	62.31
877.991	63.59
878.157	63.37
878.324	61.61
878.491	58.1
878.657	50.29
878.824	54.1
878.99	53.54
879.157	53.37
879.323	46.79
879.49	48
879.656	49.49
879.823	51.34
879.989	57.69
880.156	58.61
880.322	61.83
880.488	54.93
880.655	52.58
880.821	55.37
880.987	61.96
881.154	64.43
881.32	64.91
881.486	64.46
881.652	61.1
881.819	58.02
881.985	54.35
882.151	54
882.317	52.98
882.483	56.43
882.649	54.35
882.816	50.96
882.982	51.18
883.148	50.1
883.314	50.66
883.48	50.2
883.646	50.25
883.812	50.62
883.978	50.83
884.144	50.62
884.31	49.72
884.476	49.05
884.642	49.05
884.807	48.11
884.973	47.04
885.139	46.89
885.305	45.38
885.471	43.53
885.637	45.38
885.802	42.93
885.968	44.65
886.134	46.23
886.3	48.08
886.465	49.99
886.631	52.41
886.797	57.36
886.962	55.5
887.128	60.32
887.293	65.96
887.459	60.18
887.625	64.68
887.79	65.09
887.956	58.47
888.121	57.05
888.287	52.03
888.452	45.71
888.618	39.54
888.783	46.22
