Data from CB_018_Reflection_3.txt Node
Date: Wed Nov 11 19:59:40 EST 2015
User: robert
Spectrometer: USB4E03001
Autoset integration time: false
Trigger mode: 4
Integration Time (sec): 1.000000E-1
Scans to average: 15
Electric dark correction enabled: true
Nonlinearity correction enabled: false
Boxcar width: 5
Stray light correction enabled: false
XAxis mode: Wavelengths
Stop averaging: false
Number of Pixels in Spectrum: 3648
>>>>>Begin Spectral Data<<<<<
177.566	-69.59
177.785	-104.82
178.005	651.39
178.225	-205.15
178.445	-57.52
178.665	156.99
178.885	102.44
179.105	2347.83
179.324	250.89
179.544	243.91
179.764	-193.88
179.984	-303
180.204	8975
180.423	333.11
180.643	-1626.52
180.863	2728.09
181.083	406.23
181.302	1060.21
181.522	1073.44
181.742	-2438.03
181.961	-566.85
182.181	-4309.18
182.401	2978.23
182.621	-361.57
182.84	-240.45
183.06	-97.13
183.279	-287.5
183.499	-70.65
183.719	-56.48
183.938	-116.57
184.158	-84.69
184.377	11.61
184.597	-52.82
184.816	-24.03
185.036	-52.17
185.256	-37.39
185.475	-27.14
185.695	21.17
185.914	-37.04
186.134	-431.43
186.353	-418.03
186.572	-98.88
186.792	102.52
187.011	380.79
187.231	663.9
187.45	381.77
187.67	243.44
187.889	205.78
188.108	204.83
188.328	256.16
188.547	531.12
188.766	744.57
188.986	3580
189.205	4597.75
189.424	1326.89
189.644	513.31
189.863	423.46
190.082	1549.89
190.302	235.41
190.521	379.51
190.74	234.4
190.959	166.79
191.178	157.45
191.398	186.15
191.617	180.16
191.836	320.89
192.055	106.67
192.274	287.17
192.494	463.43
192.713	1033.37
192.932	1377.72
193.151	-156.23
193.37	-133.2
193.589	-143.46
193.808	-193.68
194.027	-207.29
194.246	-402.52
194.465	-165.29
194.685	-433.51
194.904	520.64
195.123	-101.54
195.342	-37.87
195.561	-185.34
195.78	-3813.59
195.999	-254.53
196.218	-276.48
196.436	-935.28
196.655	1734.33
196.874	873.19
197.093	1656.54
197.312	-656.12
197.531	2005.56
197.75	673.93
197.969	738.95
198.188	1197.97
198.407	559.36
198.625	515.8
198.844	725.08
199.063	-2023.97
199.282	-934.86
199.501	-506.14
199.719	-618.76
199.938	-625.45
200.157	4218.18
200.376	-260.42
200.594	-562.41
200.813	-265.19
201.032	391.4
201.251	245.84
201.469	363.34
201.688	255.4
201.907	811.93
202.125	552.87
202.344	1518.38
202.563	520.5
202.781	655.14
203	444.08
203.218	224.74
203.437	595.06
203.656	1042.92
203.874	748.58
204.093	2012.01
204.311	1092.52
204.53	404.89
204.748	530.11
204.967	985.69
205.185	14512.38
205.404	-490.11
205.622	-151.72
205.841	-99.68
206.059	-90.43
206.278	-63.3
206.496	-83.81
206.715	-226.66
206.933	-53.25
207.151	-144.65
207.37	-60.65
207.588	-163.52
207.806	-102.14
208.025	-201.4
208.243	284.88
208.461	167.74
208.68	126.4
208.898	-1186.44
209.116	-51.67
209.335	-575.68
209.553	-18.07
209.771	-236.81
209.989	203.75
210.208	52.19
210.426	34.63
210.644	176.66
210.862	322.11
211.081	131.36
211.299	103.84
211.517	43.36
211.735	131.32
211.953	47.98
212.171	71.31
212.39	-555.15
212.608	1.81
212.826	-12.8
213.044	75.72
213.262	74.07
213.48	22.15
213.698	-1.02
213.916	-81.97
214.134	-176.26
214.352	-217.06
214.57	-96.39
214.788	-152.44
215.006	-277.82
215.224	209.72
215.442	744.86
215.66	467.58
215.878	394.3
216.096	220.25
216.314	303.61
216.532	451.96
216.75	501.48
216.968	201.58
217.185	156.91
217.403	141.09
217.621	359.76
217.839	113.64
218.057	223.14
218.275	550.23
218.492	-1229.04
218.71	447.09
218.928	261.1
219.146	374.17
219.363	2137.25
219.581	-1219.25
219.799	-294.16
220.017	-477.44
220.234	-332.61
220.452	-342.1
220.67	-574.1
220.887	3725.15
221.105	-616.38
221.323	-138.68
221.54	-136.04
221.758	-484.56
221.976	-149.37
222.193	-171.09
222.411	-137.88
222.629	-107.08
222.846	-234.16
223.064	-161.84
223.281	-72.81
223.499	-63.46
223.716	-124.17
223.934	-133.32
224.151	-89.16
224.369	-130.38
224.586	-98.69
224.804	-115.9
225.021	-131.35
225.239	-113.59
225.456	-112.48
225.674	-101.56
225.891	-112.18
226.108	-105.76
226.326	-92.2
226.543	-57.74
226.76	-25.59
226.978	-32.53
227.195	-15.8
227.413	5.8
227.63	3.08
227.847	3.66
228.064	3.27
228.282	7.01
228.499	7.91
228.716	9.71
228.934	9.94
229.151	6.2
229.368	8.12
229.585	7.78
229.802	2.66
230.02	1.69
230.237	2.02
230.454	3.42
230.671	-1.14
230.888	1.59
231.105	5.71
231.323	5.39
231.54	8.22
231.757	8.43
231.974	6.63
232.191	3.53
232.408	1.21
232.625	0.64
232.842	-1.24
233.059	0.3
233.276	-5.38
233.493	-9.89
233.71	-13.1
233.927	-7.97
234.144	-17.03
234.361	-14.36
234.578	-10.58
234.795	-9.63
235.012	-9.15
235.229	-17.33
235.446	-21.7
235.663	-25.3
235.879	-24.79
236.096	-14.62
236.313	-22.58
236.53	-17.87
236.747	-13.98
236.964	-17.13
237.181	-14.99
237.397	-13.54
237.614	-9.27
237.831	-3.85
238.048	-4.16
238.264	-8.19
238.481	-13.6
238.698	-13.32
238.915	-7.61
239.131	-12.74
239.348	-9.67
239.565	-3.23
239.781	-6.28
239.998	-6.48
240.215	-1.34
240.431	-0.32
240.648	0.84
240.865	0.94
241.081	-2.5
241.298	-2.69
241.514	0.62
241.731	1.94
241.947	-2.59
242.164	-1.36
242.38	-0.52
242.597	-2.34
242.814	-0.34
243.03	0.06
243.246	1.19
243.463	4.12
243.679	3.07
243.896	1.46
244.112	1.86
244.329	6.93
244.545	6.19
244.762	6.24
244.978	9.14
245.194	10.32
245.411	8.83
245.627	6.27
245.843	6.61
246.06	7.17
246.276	8.12
246.492	6.8
246.709	6.21
246.925	6.9
247.141	7.64
247.357	6.89
247.574	5.84
247.79	6.76
248.006	6.92
248.222	7.56
248.439	7.19
248.655	7.15
248.871	7.82
249.087	6.7
249.303	6.84
249.519	6.91
249.736	6.3
249.952	7.34
250.168	6.9
250.384	5.58
250.6	2.69
250.816	2.98
251.032	3.73
251.248	4.9
251.464	6.97
251.68	7.5
251.896	6.25
252.112	7.71
252.328	6.77
252.544	6.53
252.76	8.45
252.976	11.58
253.192	12.08
253.408	9.72
253.624	7.75
253.84	6.1
254.056	3.36
254.272	5.36
254.487	2.45
254.703	-0.5
254.919	0.35
255.135	-2.47
255.351	-11.28
255.567	-9.6
255.782	-3.41
255.998	-3.02
256.214	-4.66
256.43	-2.97
256.646	-4.64
256.861	-3.51
257.077	1.26
257.293	-3.27
257.508	-2.08
257.724	1.01
257.94	2.08
258.155	3.93
258.371	3.36
258.587	5.65
258.802	4.72
259.018	5
259.234	4.93
259.449	4.75
259.665	5.88
259.88	6.32
260.096	7.38
260.312	7.58
260.527	5.64
260.743	6.45
260.958	5.75
261.174	6.18
261.389	5.08
261.605	5.48
261.82	4.72
262.036	5.25
262.251	4.54
262.466	4.07
262.682	1.95
262.897	2.33
263.113	3.24
263.328	3.77
263.543	3.27
263.759	4.92
263.974	2.77
264.189	2.22
264.405	2.4
264.62	1.59
264.835	1.51
265.051	1.26
265.266	2.47
265.481	1.91
265.696	0.43
265.912	1.87
266.127	1.04
266.342	2.06
266.557	2.86
266.773	0.52
266.988	1.57
267.203	-2.01
267.418	-1.98
267.633	-2.63
267.848	-3.37
268.064	-2.7
268.279	-3.08
268.494	-3.28
268.709	-2.63
268.924	-3.41
269.139	-2.12
269.354	-2.31
269.569	-0.46
269.784	1.3
269.999	3.03
270.214	5.02
270.429	4.1
270.644	3.99
270.859	3.81
271.074	4.11
271.289	6.53
271.504	7.17
271.719	7.06
271.934	7.16
272.149	6.61
272.363	5.52
272.578	3.78
272.793	3.92
273.008	3.58
273.223	4.42
273.438	2.33
273.653	0.93
273.867	0.26
274.082	-0.17
274.297	-0.09
274.512	0.13
274.726	0.66
274.941	0.92
275.156	2.79
275.371	4.49
275.585	3.63
275.8	5.2
276.015	5.65
276.229	5.79
276.444	7.02
276.659	6.8
276.873	4.86
277.088	4.28
277.302	3.57
277.517	2.7
277.732	-0.55
277.946	0.3
278.161	-0.41
278.375	-2.04
278.59	-2.18
278.804	-4.31
279.019	-5.58
279.233	-3.38
279.448	-1.57
279.662	-1.29
279.877	-1.15
280.091	0.94
280.306	1.82
280.52	4.17
280.735	4.87
280.949	5
281.163	5.65
281.378	6.59
281.592	6.26
281.806	4.88
282.021	5.73
282.235	4.81
282.449	4.29
282.664	5.03
282.878	5.55
283.092	5.04
283.307	4.54
283.521	3.76
283.735	3.64
283.949	2.97
284.164	3.42
284.378	3.88
284.592	5.14
284.806	4.65
285.02	4.59
285.234	3.38
285.449	3.67
285.663	3.85
285.877	4.44
286.091	4.92
286.305	5.31
286.519	5.19
286.733	5.56
286.947	5.31
287.161	6.8
287.375	5.44
287.589	4.56
287.803	4.11
288.017	4.48
288.231	5.49
288.445	5.97
288.659	4.63
288.873	4.9
289.087	4.56
289.301	4.59
289.515	4.38
289.729	5.6
289.943	7.02
290.157	8.49
290.371	7.95
290.584	7.66
290.798	6.63
291.012	7.52
291.226	6.96
291.44	6.26
291.654	5.64
291.867	5.45
292.081	4.32
292.295	3.1
292.509	2.25
292.722	2.86
292.936	2.5
293.15	1.84
293.364	1.44
293.577	2.39
293.791	2.2
294.005	3.49
294.218	4.14
294.432	4.75
294.645	5.66
294.859	6.65
295.073	7.41
295.286	8.34
295.5	9.84
295.713	10.69
295.927	10.84
296.14	11.63
296.354	11.39
296.568	11.31
296.781	11.64
296.994	11.41
297.208	11.82
297.421	11.1
297.635	10.77
297.848	10.3
298.062	10.3
298.275	10.67
298.489	10.62
298.702	11.62
298.915	11.21
299.129	10.82
299.342	11.99
299.555	11.6
299.769	12.18
299.982	12.51
300.195	12.55
300.409	12.77
300.622	11.9
300.835	12.36
301.048	11.73
301.262	10.46
301.475	11.63
301.688	11
301.901	10.62
302.115	10.67
302.328	10.55
302.541	12.82
302.754	13.48
302.967	14.84
303.18	13.82
303.393	13.22
303.607	14.97
303.82	14.94
304.033	14.69
304.246	15.61
304.459	15.65
304.672	15.63
304.885	14.5
305.098	14.67
305.311	14.62
305.524	16.27
305.737	16.64
305.95	16.75
306.163	16.46
306.376	16.33
306.589	14.13
306.802	14.62
307.015	14.49
307.228	14.43
307.44	14.33
307.653	13.39
307.866	11.59
308.079	11.3
308.292	10.45
308.505	9.85
308.718	10.04
308.93	10.38
309.143	9.25
309.356	9.89
309.569	9.6
309.781	9.64
309.994	10.17
310.207	10.88
310.42	12.03
310.632	12.7
310.845	12.5
311.058	13.16
311.27	14.05
311.483	14.5
311.696	14.18
311.908	13.91
312.121	13.85
312.333	13.8
312.546	13.9
312.759	13.11
312.971	13.89
313.184	15.01
313.396	13.71
313.609	14.2
313.821	14.41
314.034	13.84
314.246	13.69
314.459	12.85
314.671	13.27
314.884	13.97
315.096	13.72
315.309	12.55
315.521	11.8
315.733	11.83
315.946	11.67
316.158	10.76
316.371	12.48
316.583	12.64
316.795	13.81
317.008	14.56
317.22	12.65
317.432	12.69
317.644	12.72
317.857	13.39
318.069	14.95
318.281	14.31
318.494	13.8
318.706	13.27
318.918	12.64
319.13	12.11
319.342	11.71
319.555	12.5
319.767	11.74
319.979	12.74
320.191	11.26
320.403	10.24
320.615	10.4
320.827	11.27
321.039	11.04
321.252	12.02
321.464	12.42
321.676	11.8
321.888	12.01
322.1	12.42
322.312	12.3
322.524	13.97
322.736	14.36
322.948	14.62
323.16	14.87
323.372	16.22
323.584	16.79
323.796	16.55
324.007	16.96
324.219	17.23
324.431	18.34
324.643	17.45
324.855	16.92
325.067	17.27
325.279	16.72
325.491	17.22
325.702	16
325.914	15.6
326.126	15.27
326.338	14.84
326.55	14.91
326.761	14.15
326.973	14.95
327.185	16.09
327.396	16.04
327.608	16.19
327.82	15.77
328.032	14.62
328.243	13.64
328.455	14.2
328.666	14.1
328.878	14.21
329.09	14.4
329.301	14.16
329.513	12.31
329.725	12.82
329.936	12.17
330.148	12.83
330.359	14.13
330.571	15.29
330.782	15.09
330.994	15.06
331.205	14.78
331.417	16.41
331.628	15.27
331.84	16.18
332.051	15.36
332.262	16.23
332.474	15.73
332.685	14.56
332.897	14.39
333.108	14.07
333.319	14.87
333.531	15.34
333.742	14.65
333.953	15.53
334.165	15.89
334.376	16.1
334.587	14.83
334.799	14.08
335.01	15.15
335.221	16.08
335.432	16.85
335.644	15.47
335.855	14.93
336.066	15.73
336.277	14.52
336.488	13.94
336.7	14.18
336.911	15.59
337.122	15.7
337.333	15.68
337.544	14.88
337.755	14.03
337.966	15.15
338.177	14.69
338.388	13.97
338.599	15.33
338.811	15.49
339.022	15.94
339.233	15.45
339.444	15.86
339.655	15.58
339.866	14.97
340.076	15.27
340.287	15.09
340.498	16.03
340.709	14.65
340.92	15.27
341.131	14.79
341.342	13.86
341.553	14.21
341.764	14.52
341.975	13.98
342.185	15.01
342.396	15.63
342.607	15.57
342.818	15.25
343.029	17.27
343.239	16.33
343.45	17.54
343.661	18.13
343.872	18.06
344.082	18.19
344.293	19.06
344.504	18.7
344.714	18.1
344.925	18.32
345.136	18.02
345.346	16.81
345.557	17.38
345.768	15.89
345.978	15.8
346.189	15.91
346.399	16.37
346.61	16.11
346.821	16
347.031	15.7
347.242	15.21
347.452	15.56
347.663	15.67
347.873	15.43
348.084	16.66
348.294	16.47
348.504	16.04
348.715	15.41
348.925	15.59
349.136	15.97
349.346	16.29
349.557	16.24
349.767	16.34
349.977	16.8
350.188	16.1
350.398	15.78
350.608	15.66
350.819	15.16
351.029	15.23
351.239	14.83
351.449	14.06
351.66	14.73
351.87	15.28
352.08	14.7
352.29	14.12
352.501	14.16
352.711	13.52
352.921	13.56
353.131	14.43
353.341	13.71
353.552	14.53
353.762	15.55
353.972	14.91
354.182	13.87
354.392	13.65
354.602	13.89
354.812	14.48
355.022	15.09
355.232	15.2
355.442	14.59
355.652	14.68
355.862	14.65
356.072	14.83
356.282	14.98
356.492	15.35
356.702	16.13
356.912	15.82
357.122	15.54
357.332	15.62
357.542	15.34
357.752	15.67
357.962	16.3
358.171	15.64
358.381	15.28
358.591	14.94
358.801	15.54
359.011	15.5
359.221	15.16
359.43	14.67
359.64	15.01
359.85	15.06
360.06	14.83
360.269	14.57
360.479	14.71
360.689	14.15
360.899	14.41
361.108	13.43
361.318	12.95
361.528	13.63
361.737	14.07
361.947	13.71
362.156	14.09
362.366	13.91
362.576	13.9
362.785	13.37
362.995	14.01
363.204	13.86
363.414	14.15
363.623	14.54
363.833	13.69
364.042	13.52
364.252	13.94
364.461	13.31
364.671	13.42
364.88	13.23
365.09	13.99
365.299	13.3
365.509	13.17
365.718	13.4
365.927	13.18
366.137	13.54
366.346	13.97
366.555	13.3
366.765	13.16
366.974	13.62
367.183	12.76
367.393	12.76
367.602	12.84
367.811	12.46
368.021	12.72
368.23	12.23
368.439	12.07
368.648	11.61
368.857	11.14
369.067	11.18
369.276	11.17
369.485	12.14
369.694	11.5
369.903	10.75
370.112	10.81
370.321	10.57
370.531	11.51
370.74	12.04
370.949	12.6
371.158	12.9
371.367	12.87
371.576	12.75
371.785	12.1
371.994	12.2
372.203	13.29
372.412	13.25
372.621	12.98
372.83	12.32
373.039	12.15
373.248	11.66
373.457	11.43
373.666	11.3
373.874	11.37
374.083	11.76
374.292	11.72
374.501	11.5
374.71	11.58
374.919	11.8
375.128	11.35
375.336	11.82
375.545	11.9
375.754	11.85
375.963	12.15
376.171	11.64
376.38	11.76
376.589	11.22
376.798	10.48
377.006	10.97
377.215	10.76
377.424	10.79
377.632	9.78
377.841	9.32
378.05	9.12
378.258	8.46
378.467	8.82
378.675	8.24
378.884	8.84
379.093	9.1
379.301	8.54
379.51	8.61
379.718	8.9
379.927	9.48
380.135	9.54
380.344	9.91
380.552	10.57
380.761	10.12
380.969	10.65
381.177	10.14
381.386	10.33
381.594	10.2
381.803	9.71
382.011	9.88
382.219	9.56
382.428	9.39
382.636	9.25
382.845	8.74
383.053	8.76
383.261	8.27
383.469	8.63
383.678	8.69
383.886	8.31
384.094	8.3
384.302	8.19
384.511	7.96
384.719	8.31
384.927	7.98
385.135	7.97
385.343	8.01
385.552	7.7
385.76	7.55
385.968	7.16
386.176	7.36
386.384	7.9
386.592	7.51
386.8	7.55
387.008	7.28
387.216	7.3
387.424	7.46
387.633	7.04
387.841	7.41
388.049	7.49
388.257	7.62
388.465	8.22
388.672	7.7
388.88	7.62
389.088	7.88
389.296	7.97
389.504	7.86
389.712	7.73
389.92	7.97
390.128	7.78
390.336	7.55
390.544	7.27
390.751	6.6
390.959	6.39
391.167	6.64
391.375	6.53
391.583	6.24
391.79	6.51
391.998	6.65
392.206	6.91
392.414	7.16
392.621	7.13
392.829	7.35
393.037	7.32
393.244	7.54
393.452	6.96
393.66	6.84
393.867	6.99
394.075	6.71
394.283	6.16
394.49	5.93
394.698	5.99
394.905	6.12
395.113	6.19
395.32	6.23
395.528	6.02
395.735	6.13
395.943	6.06
396.15	5.91
396.358	5.98
396.565	6.03
396.773	5.66
396.98	5.62
397.188	5.41
397.395	5.37
397.602	5.33
397.81	5.47
398.017	5.56
398.225	5.79
398.432	6.07
398.639	6.12
398.847	6.25
399.054	6.34
399.261	5.91
399.468	5.79
399.676	5.7
399.883	6.08
400.09	5.91
400.297	6.41
400.505	6.13
400.712	5.88
400.919	5.99
401.126	6.15
401.333	6.19
401.54	6.22
401.748	6.23
401.955	5.92
402.162	5.78
402.369	5.86
402.576	5.71
402.783	5.86
402.99	5.66
403.197	5.6
403.404	5.49
403.611	5.65
403.818	5.46
404.025	5.63
404.232	5.58
404.439	5.48
404.646	5.46
404.853	5.4
405.06	5.1
405.267	5.49
405.474	5.48
405.681	5.32
405.887	5.18
406.094	5.26
406.301	5.42
406.508	5.36
406.715	5.65
406.922	5.87
407.128	5.35
407.335	5.35
407.542	4.75
407.749	4.59
407.955	4.75
408.162	4.65
408.369	4.67
408.575	4.24
408.782	4.23
408.989	3.92
409.195	3.75
409.402	4.49
409.609	4.61
409.815	4.8
410.022	4.87
410.228	5.05
410.435	5.15
410.642	5.5
410.848	5.45
411.055	5.54
411.261	5.6
411.468	5.68
411.674	5.44
411.881	5.44
412.087	5.42
412.294	5.38
412.5	5.2
412.706	5.15
412.913	4.84
413.119	5.07
413.326	5.08
413.532	4.96
413.738	5
413.945	4.73
414.151	4.78
414.357	4.89
414.564	4.9
414.77	4.85
414.976	4.86
415.182	4.74
415.389	5.02
415.595	4.99
415.801	5.07
416.007	4.69
416.214	5.21
416.42	5.24
416.626	5.27
416.832	5.32
417.038	5.36
417.244	5.5
417.45	5.54
417.657	5.39
417.863	5.35
418.069	5.24
418.275	5.48
418.481	5.44
418.687	5.29
418.893	5.28
419.099	5.29
419.305	5.37
419.511	5.16
419.717	5.2
419.923	5.13
420.129	5.18
420.335	5.23
420.541	5.09
420.746	4.88
420.952	4.99
421.158	4.9
421.364	4.79
421.57	4.82
421.776	4.9
421.982	4.86
422.187	4.87
422.393	4.79
422.599	4.79
422.805	4.97
423.01	4.85
423.216	4.82
423.422	4.72
423.628	4.79
423.833	4.6
424.039	4.47
424.245	4.43
424.45	4.34
424.656	4.45
424.862	4.32
425.067	4.09
425.273	4.29
425.478	4.27
425.684	4.43
425.889	4.26
426.095	4.36
426.301	4.39
426.506	4.39
426.712	4.34
426.917	4.15
427.123	4.15
427.328	4.13
427.533	4.12
427.739	3.97
427.944	3.78
428.15	3.9
428.355	3.76
428.561	3.75
428.766	3.78
428.971	3.94
429.177	4.06
429.382	3.95
429.587	4.02
429.793	3.75
429.998	3.77
430.203	3.85
430.408	3.84
430.614	3.95
430.819	3.93
431.024	4.04
431.229	3.8
431.434	3.88
431.64	4.1
431.845	4.16
432.05	4.26
432.255	4.49
432.46	4.6
432.665	4.63
432.87	4.7
433.076	4.95
433.281	4.88
433.486	5.04
433.691	5.08
433.896	4.88
434.101	4.74
434.306	4.91
434.511	4.91
434.716	4.79
434.921	4.65
435.126	4.44
435.331	4.1
435.535	3.97
435.74	3.78
435.945	3.68
436.15	3.81
436.355	3.98
436.56	3.95
436.765	3.76
436.97	3.88
437.174	3.91
437.379	4.09
437.584	4.2
437.789	4.32
437.993	4.4
438.198	4.37
438.403	4.54
438.608	4.4
438.812	4.34
439.017	4.32
439.222	4.29
439.426	4.34
439.631	4.31
439.836	4.47
440.04	4.63
440.245	4.86
440.45	4.81
440.654	4.42
440.859	4.43
441.063	4.24
441.268	4.34
441.472	4.28
441.677	4.2
441.881	4.05
442.086	4.12
442.29	3.91
442.495	3.75
442.699	3.82
442.904	3.82
443.108	3.85
443.312	3.99
443.517	3.8
443.721	3.92
443.925	3.97
444.13	4.02
444.334	3.59
444.538	3.64
444.743	3.48
444.947	3.33
445.151	3.65
445.356	3.63
445.56	3.47
445.764	3.68
445.968	3.51
446.173	3.55
446.377	3.62
446.581	3.73
446.785	3.79
446.989	3.8
447.193	3.85
447.398	3.83
447.602	3.87
447.806	4.03
448.01	4.02
448.214	4.19
448.418	4.17
448.622	4.12
448.826	4.25
449.03	4.18
449.234	4.18
449.438	4.13
449.642	4.19
449.846	4.16
450.05	4.21
450.254	4.07
450.458	4.11
450.662	4.1
450.866	4.21
451.069	3.93
451.273	3.94
451.477	3.92
451.681	3.98
451.885	3.94
452.089	3.93
452.292	3.82
452.496	3.81
452.7	3.81
452.904	3.81
453.107	3.75
453.311	3.81
453.515	3.83
453.719	3.97
453.922	4.14
454.126	4
454.33	4.07
454.533	4.02
454.737	4
454.94	3.85
455.144	3.55
455.348	3.45
455.551	3.57
455.755	3.52
455.958	3.28
456.162	3.04
456.365	3.01
456.569	3.12
456.772	3.27
456.976	3.31
457.179	3.36
457.383	3.67
457.586	3.73
457.79	3.69
457.993	3.47
458.196	3.73
458.4	3.9
458.603	3.87
458.807	3.72
459.01	3.7
459.213	3.72
459.417	3.78
459.62	3.71
459.823	3.63
460.026	3.62
460.23	3.74
460.433	3.64
460.636	3.62
460.839	3.77
461.042	3.74
461.246	3.83
461.449	3.79
461.652	3.74
461.855	4.01
462.058	4.14
462.261	4.23
462.464	4.39
462.668	4.24
462.871	4.28
463.074	4.35
463.277	4.37
463.48	4.17
463.683	4.18
463.886	4.19
464.089	3.84
464.292	3.62
464.495	3.61
464.698	3.52
464.901	3.69
465.104	3.7
465.306	3.55
465.509	3.53
465.712	3.71
465.915	3.78
466.118	3.76
466.321	3.88
466.524	4.12
466.726	4.17
466.929	4.19
467.132	4.09
467.335	3.99
467.538	3.89
467.74	3.94
467.943	3.77
468.146	3.79
468.348	3.9
468.551	3.86
468.754	3.76
468.956	3.83
469.159	3.78
469.362	3.83
469.564	3.95
469.767	4.14
469.969	4.15
470.172	4.12
470.375	3.85
470.577	3.73
470.78	3.89
470.982	4.02
471.185	3.84
471.387	3.96
471.59	3.96
471.792	3.98
471.995	3.86
472.197	3.82
472.399	4.05
472.602	4.22
472.804	4.23
473.007	4.2
473.209	4.2
473.411	4.23
473.614	4.14
473.816	4.33
474.018	4.05
474.22	4.1
474.423	4.14
474.625	3.96
474.827	3.86
475.03	3.85
475.232	3.74
475.434	3.64
475.636	3.53
475.838	3.55
476.04	3.51
476.243	3.79
476.445	3.87
476.647	3.85
476.849	4.02
477.051	3.89
477.253	3.98
477.455	3.99
477.657	3.98
477.859	4.16
478.061	4.18
478.263	4.05
478.465	3.85
478.667	3.73
478.869	3.49
479.071	3.31
479.273	3.46
479.475	3.24
479.677	3.21
479.879	3.18
480.081	3.09
480.283	3.12
480.485	3.3
480.686	3.38
480.888	3.38
481.09	3.66
481.292	3.67
481.494	3.7
481.695	3.85
481.897	3.93
482.099	3.94
482.301	4.05
482.502	4.05
482.704	4.07
482.906	4.12
483.107	4.14
483.309	4.14
483.511	4.16
483.712	4.18
483.914	4.19
484.115	4.19
484.317	4.21
484.519	4.19
484.72	4.2
484.922	4.14
485.123	4.07
485.325	4.04
485.526	4.04
485.728	4.01
485.929	3.97
486.131	3.96
486.332	3.94
486.534	3.95
486.735	3.94
486.936	3.93
487.138	4.01
487.339	4.07
487.541	4.04
487.742	4
487.943	4.06
488.144	4.01
488.346	3.99
488.547	3.89
488.748	3.91
488.95	3.91
489.151	3.88
489.352	3.84
489.553	3.77
489.755	3.78
489.956	3.84
490.157	3.76
490.358	3.79
490.559	3.81
490.76	3.94
490.961	3.96
491.163	3.84
491.364	3.75
491.565	3.65
491.766	3.74
491.967	3.8
492.168	3.79
492.369	3.87
492.57	3.9
492.771	3.85
492.972	3.81
493.173	3.68
493.374	3.69
493.575	3.81
493.776	3.93
493.976	3.93
494.177	3.88
494.378	3.9
494.579	3.79
494.78	3.81
494.981	3.84
495.182	3.79
495.382	3.81
495.583	3.97
495.784	3.77
495.985	3.83
496.185	3.69
496.386	3.84
496.587	3.9
496.788	3.96
496.988	4.03
497.189	3.97
497.39	3.98
497.59	4.05
497.791	3.82
497.992	3.97
498.192	3.86
498.393	3.92
498.593	3.78
498.794	3.72
498.994	3.68
499.195	3.59
499.395	3.69
499.596	3.98
499.796	3.87
499.997	3.93
500.197	3.87
500.398	3.98
500.598	4.05
500.799	4.22
500.999	4.12
501.199	4.04
501.4	4.08
501.6	4.05
501.801	3.75
502.001	3.9
502.201	4.28
502.402	4.44
502.602	4.34
502.802	4.34
503.002	4.3
503.203	4.4
503.403	4.47
503.603	4.41
503.803	4.52
504.003	4.74
504.204	4.72
504.404	4.66
504.604	4.6
504.804	4.77
505.004	4.92
505.204	4.86
505.404	4.99
505.604	5
505.804	5.01
506.005	4.96
506.205	4.89
506.405	5.15
506.605	4.99
506.805	5
507.005	5.02
507.204	4.9
507.404	4.87
507.604	4.95
507.804	5.06
508.004	5.26
508.204	5.27
508.404	5.3
508.604	5.15
508.804	5.25
509.003	5.44
509.203	5.47
509.403	5.57
509.603	5.75
509.803	5.6
510.002	5.65
510.202	5.78
510.402	5.93
510.602	6.08
510.801	6.07
511.001	6.24
511.201	6.2
511.4	6.17
511.6	6.22
511.8	6.45
511.999	6.48
512.199	6.53
512.398	6.49
512.598	6.64
512.797	6.6
512.997	6.63
513.197	6.58
513.396	6.79
513.596	6.87
513.795	6.81
513.994	6.63
514.194	6.74
514.393	7.04
514.593	7.13
514.792	7.02
514.992	7.16
515.191	7.57
515.39	7.76
515.59	7.66
515.789	7.75
515.988	7.8
516.188	8.08
516.387	8.4
516.586	8.37
516.786	8.44
516.985	8.62
517.184	8.8
517.383	8.82
517.582	8.76
517.782	8.93
517.981	9.11
518.18	9.39
518.379	9.25
518.578	9.23
518.777	9.26
518.976	9.38
519.176	9.44
519.375	9.41
519.574	9.44
519.773	9.52
519.972	9.58
520.171	9.51
520.37	9.5
520.569	9.67
520.768	9.73
520.967	9.83
521.166	9.76
521.365	9.84
521.564	9.88
521.762	9.99
521.961	10.14
522.16	10.21
522.359	10.32
522.558	10.48
522.757	10.52
522.956	10.59
523.154	10.65
523.353	10.75
523.552	10.84
523.751	11.03
523.949	11.18
524.148	11.23
524.347	11.38
524.546	11.59
524.744	11.72
524.943	11.93
525.142	12.1
525.34	12.22
525.539	12.36
525.737	12.33
525.936	12.35
526.135	12.36
526.333	12.36
526.532	12.53
526.73	12.65
526.929	12.72
527.127	12.82
527.326	12.9
527.524	12.97
527.723	13.07
527.921	13.25
528.12	13.33
528.318	13.42
528.516	13.5
528.715	13.5
528.913	13.57
529.112	13.65
529.31	13.66
529.508	13.73
529.707	13.74
529.905	13.8
530.103	13.83
530.301	13.95
530.5	14.1
530.698	14.22
530.896	14.33
531.094	14.33
531.293	14.33
531.491	14.46
531.689	14.48
531.887	14.63
532.085	14.76
532.283	14.88
532.481	14.89
532.68	14.85
532.878	14.94
533.076	14.94
533.274	15.02
533.472	15.09
533.67	15.08
533.868	15.15
534.066	15.14
534.264	15.12
534.462	15.13
534.66	15.19
534.858	15.18
535.056	15.25
535.253	15.32
535.451	15.46
535.649	15.5
535.847	15.74
536.045	15.79
536.243	15.95
536.441	16.08
536.638	16.16
536.836	16.18
537.034	16.43
537.232	16.46
537.43	16.61
537.627	16.63
537.825	16.65
538.023	16.58
538.22	16.56
538.418	16.55
538.616	16.52
538.813	16.51
539.011	16.53
539.209	16.4
539.406	16.62
539.604	16.77
539.801	16.76
539.999	16.92
540.196	16.97
540.394	17.18
540.591	17.31
540.789	17.44
540.986	17.59
541.184	17.65
541.381	17.72
541.579	17.7
541.776	17.63
541.974	17.71
542.171	17.7
542.368	17.81
542.566	17.75
542.763	17.76
542.96	17.79
543.158	17.8
543.355	17.9
543.552	17.93
543.75	17.97
543.947	18.02
544.144	18.05
544.341	17.99
544.539	18.03
544.736	18.17
544.933	18.27
545.13	18.33
545.327	18.21
545.524	18.15
545.722	18.25
545.919	18.31
546.116	18.39
546.313	18.52
546.51	18.8
546.707	18.83
546.904	18.89
547.101	18.85
547.298	18.91
547.495	19.09
547.692	19.14
547.889	19.12
548.086	19.26
548.283	19.29
548.48	19.14
548.677	19.17
548.874	18.98
549.07	18.97
549.267	19.03
549.464	19.11
549.661	19.19
549.858	19.43
550.055	19.58
550.251	19.64
550.448	19.71
550.645	20.09
550.842	20.2
551.038	20.31
551.235	20.59
551.432	20.46
551.628	20.44
551.825	20.45
552.022	20.45
552.218	20.3
552.415	20.21
552.612	20.3
552.808	20.34
553.005	20.38
553.201	20.68
553.398	20.37
553.594	20.53
553.791	20.55
553.987	20.53
554.184	20.59
554.38	20.62
554.577	20.72
554.773	20.54
554.97	20.53
555.166	20.67
555.362	20.65
555.559	20.68
555.755	20.66
555.952	20.57
556.148	20.58
556.344	20.66
556.541	20.86
556.737	20.88
556.933	21.16
557.129	21.22
557.326	20.9
557.522	20.92
557.718	21.2
557.914	21.41
558.11	21.47
558.307	21.64
558.503	21.79
558.699	21.7
558.895	21.76
559.091	21.69
559.287	21.66
559.483	21.83
559.679	21.83
559.876	21.96
560.072	22.05
560.268	22.3
560.464	22.43
560.66	22.14
560.856	22.53
561.052	22.45
561.247	22.62
561.443	22.79
561.639	22.94
561.835	23.05
562.031	22.93
562.227	22.94
562.423	22.92
562.619	22.97
562.815	23.11
563.01	22.89
563.206	23.34
563.402	23.37
563.598	23.18
563.793	23.21
563.989	23.31
564.185	23.49
564.381	23.45
564.576	23.58
564.772	23.4
564.968	23.61
565.163	23.86
565.359	23.49
565.555	23.66
565.75	24.06
565.946	23.98
566.141	23.97
566.337	23.96
566.532	24.11
566.728	24.15
566.923	24.45
567.119	24.43
567.314	24.29
567.51	24.35
567.705	24.18
567.901	23.95
568.096	24.16
568.292	24.15
568.487	24.21
568.682	24.16
568.878	24.06
569.073	23.96
569.268	23.84
569.464	24
569.659	24.03
569.854	24.23
570.05	24.22
570.245	24.25
570.44	24.3
570.635	24.36
570.831	24.32
571.026	24.37
571.221	24.49
571.416	24.76
571.611	24.68
571.806	24.83
572.002	24.85
572.197	25.04
572.392	25
572.587	25.18
572.782	25.14
572.977	25.44
573.172	25.61
573.367	25.58
573.562	25.56
573.757	25.67
573.952	25.68
574.147	25.75
574.342	25.91
574.537	25.87
574.732	25.86
574.927	25.89
575.121	25.67
575.316	25.64
575.511	25.71
575.706	25.71
575.901	25.61
576.096	25.43
576.29	25.46
576.485	25.12
576.68	25.32
576.875	25.1
577.069	25.15
577.264	25.33
577.459	25.47
577.654	25.24
577.848	25.46
578.043	25.74
578.238	26.12
578.432	25.89
578.627	26.1
578.821	25.9
579.016	26.1
579.21	26.05
579.405	25.85
579.6	25.47
579.794	25.69
579.989	25.35
580.183	25.21
580.378	25.11
580.572	25.23
580.766	25.16
580.961	25.33
581.155	25.08
581.35	25.2
581.544	25.33
581.738	25.59
581.933	25.69
582.127	25.87
582.321	26.15
582.516	26.5
582.71	26.53
582.904	26.45
583.099	26.73
583.293	26.88
583.487	26.83
583.681	26.49
583.875	26.67
584.07	26.76
584.264	26.64
584.458	26.37
584.652	26.12
584.846	26.23
585.04	26.43
585.234	26.09
585.428	26.13
585.623	26.39
585.817	26.81
586.011	26.8
586.205	26.59
586.399	26.64
586.593	26.69
586.787	26.79
586.981	26.7
587.174	26.43
587.368	26.34
587.562	26.38
587.756	26.24
587.95	26.42
588.144	26.43
588.338	26.21
588.532	26.34
588.725	26.22
588.919	26.05
589.113	26.42
589.307	26.65
589.501	26.61
589.694	26.72
589.888	26.73
590.082	26.66
590.275	26.63
590.469	27.08
590.663	27.03
590.856	27.47
591.05	27.67
591.244	27.43
591.437	27.24
591.631	27.65
591.824	27.6
592.018	27.56
592.212	27.55
592.405	27.39
592.599	27.55
592.792	27.73
592.986	27.5
593.179	27.57
593.372	27.5
593.566	27.97
593.759	27.99
593.953	27.94
594.146	27.96
594.339	28.06
594.533	28.47
594.726	28.32
594.92	28.13
595.113	28.3
595.306	28.17
595.499	28.34
595.693	28.15
595.886	28.03
596.079	28.2
596.272	28.43
596.466	28.44
596.659	28.28
596.852	28.23
597.045	28.39
597.238	28.33
597.431	28.45
597.624	28.53
597.818	28.59
598.011	28.59
598.204	28.83
598.397	28.59
598.59	28.49
598.783	28.6
598.976	28.77
599.169	28.81
599.362	28.76
599.555	28.64
599.748	28.53
599.941	28.63
600.134	28.74
600.326	28.39
600.519	28.6
600.712	28.69
600.905	28.44
601.098	28.3
601.291	28.23
601.483	28.27
601.676	28.19
601.869	28.48
602.062	28.51
602.255	28.42
602.447	28.41
602.64	28.82
602.833	28.91
603.025	28.86
603.218	29.03
603.411	29.1
603.603	29.27
603.796	29.42
603.989	29.38
604.181	29.31
604.374	29.5
604.566	29.69
604.759	29.39
604.951	29.37
605.144	29.33
605.336	29.4
605.529	29.34
605.721	29.35
605.914	29.29
606.106	29.11
606.299	29.32
606.491	29.1
606.683	29.02
606.876	29.09
607.068	29.28
607.26	29.7
607.453	29.6
607.645	29.76
607.837	29.5
608.03	29.33
608.222	29.25
608.414	29.06
608.606	29.12
608.799	29.3
608.991	29.28
609.183	29.14
609.375	28.96
609.567	28.85
609.759	28.51
609.952	28.63
610.144	29.09
610.336	29.19
610.528	29.31
610.72	29.27
610.912	28.99
611.104	29.15
611.296	29.03
611.488	29.07
611.68	29.24
611.872	29.62
612.064	29.64
612.256	29.63
612.448	29.53
612.64	29.38
612.832	29.42
613.023	29.53
613.215	29.12
613.407	29.03
613.599	29.23
613.791	28.91
613.983	28.49
614.174	28.71
614.366	28.22
614.558	28.39
614.75	28.61
614.941	28.87
615.133	28.9
615.325	29.2
615.516	29.68
615.708	29.74
615.9	30.01
616.091	30.07
616.283	29.77
616.475	29.97
616.666	29.95
616.858	29.95
617.049	29.72
617.241	29.87
617.432	29.9
617.624	29.66
617.815	29.39
618.007	29.51
618.198	29.72
618.39	29.75
618.581	29.86
618.773	30.05
618.964	29.79
619.155	30.03
619.347	30.01
619.538	30.03
619.729	29.96
619.921	30.04
620.112	30.12
620.303	29.93
620.494	29.98
620.686	29.94
620.877	29.97
621.068	30.22
621.259	30.22
621.451	30.22
621.642	30.06
621.833	30.19
622.024	29.79
622.215	29.49
622.406	29.6
622.597	29.57
622.788	29.63
622.98	29.39
623.171	29.53
623.362	29.5
623.553	29.6
623.744	29.48
623.935	29.86
624.126	30.36
624.317	30.36
624.508	30.15
624.698	29.98
624.889	29.92
625.08	29.93
625.271	30.04
625.462	29.96
625.653	29.89
625.844	29.94
626.034	29.38
626.225	29.47
626.416	29.59
626.607	29.92
626.798	30.07
626.988	30.19
627.179	30.49
627.37	30.13
627.56	30.46
627.751	30.62
627.942	30.68
628.132	31.09
628.323	31.12
628.514	31.24
628.704	31.15
628.895	31.24
629.085	31.03
629.276	30.98
629.466	31.21
629.657	30.83
629.847	30.65
630.038	30.65
630.228	30.44
630.419	30.47
630.609	30.6
630.8	30.64
630.99	30.6
631.181	30.72
631.371	30.42
631.561	30.28
631.752	30.47
631.942	30.23
632.132	30.44
632.323	30.51
632.513	30.44
632.703	30.19
632.893	30.32
633.084	30.36
633.274	30.04
633.464	30.43
633.654	30.56
633.844	30.43
634.034	30.59
634.225	30.48
634.415	30.65
634.605	30.36
634.795	30.49
634.985	30.43
635.175	30.38
635.365	30.87
635.555	30.98
635.745	30.59
635.935	30.67
636.125	30.4
636.315	30.2
636.505	30.05
636.695	30.25
636.885	30.17
637.075	30
637.265	30.03
637.455	29.78
637.644	29.42
637.834	29.97
638.024	30.06
638.214	30.55
638.404	30.61
638.593	30.47
638.783	30.37
638.973	30.41
639.163	30.57
639.352	30.84
639.542	30.97
639.732	31.16
639.921	31.1
640.111	30.84
640.301	30.9
640.49	31.2
640.68	30.87
640.87	30.98
641.059	30.83
641.249	30.76
641.438	30.7
641.628	30.56
641.817	30.24
642.007	30.31
642.196	30.75
642.386	30.92
642.575	30.95
642.764	31.51
642.954	31.4
643.143	31.35
643.333	31.01
643.522	31.02
643.711	31.02
643.901	30.93
644.09	30.52
644.279	30.02
644.469	29.76
644.658	29.86
644.847	29.85
645.036	29.63
645.226	29.58
645.415	30.47
645.604	30.51
645.793	30.71
645.982	31.13
646.171	31.3
646.361	31.16
646.55	31.11
646.739	30.73
646.928	30.75
647.117	31.14
647.306	31.01
647.495	30.86
647.684	30.72
647.873	30.52
648.062	30.59
648.251	30.8
648.44	31.3
648.629	31.06
648.818	31.17
649.007	30.97
649.196	30.8
649.384	31.41
649.573	31.04
649.762	30.59
649.951	30.68
650.14	30.73
650.328	30.75
650.517	30.63
650.706	30.5
650.895	30.82
651.083	31.19
651.272	31.62
651.461	31.36
651.65	31.04
651.838	31.36
652.027	32.07
652.216	31.96
652.404	31.83
652.593	32.03
652.781	32.75
652.97	32.64
653.158	32.41
653.347	32.16
653.535	31.95
653.724	32.65
653.912	32.83
654.101	32.64
654.289	32.52
654.478	32.58
654.666	32.04
654.855	31.85
655.043	31.84
655.231	31.59
655.42	31.31
655.608	31.65
655.796	30.98
655.985	31.36
656.173	31.13
656.361	31.16
656.55	31.22
656.738	31.33
656.926	31.38
657.114	31.47
657.302	31.92
657.491	31.98
657.679	32.17
657.867	32.71
658.055	32.01
658.243	31.79
658.431	31.64
658.619	31.49
658.807	32.06
658.996	31.81
659.184	31.47
659.372	31.29
659.56	31.63
659.748	31.63
659.936	31.78
660.124	31.92
660.311	31.92
660.499	31.83
660.687	31.98
660.875	31.62
661.063	31.93
661.251	32.34
661.439	32.46
661.627	32.22
661.814	31.68
662.002	31.4
662.19	31.72
662.378	31.79
662.565	32.31
662.753	32.42
662.941	32.53
663.129	32.19
663.316	32.2
663.504	32.38
663.692	32.54
663.879	32.97
664.067	33.22
664.254	33.08
664.442	33.13
664.63	32.77
664.817	32.5
665.005	32.59
665.192	33.17
665.38	32.88
665.567	32.68
665.755	32.27
665.942	31.76
666.13	31.43
666.317	31.67
666.504	30.88
666.692	31.43
666.879	31.21
667.067	30.98
667.254	30.65
667.441	30.86
667.629	30.49
667.816	30.78
668.003	31.04
668.19	30.89
668.378	30.36
668.565	31.04
668.752	30.74
668.939	31.32
669.127	31.54
669.314	31.03
669.501	30.85
669.688	31.46
669.875	31.34
670.062	32.02
670.249	31.99
670.436	32.28
670.623	32.11
670.81	32.27
670.997	31.83
671.184	31.71
671.371	32.12
671.558	32.59
671.745	32.56
671.932	32.87
672.119	32.43
672.306	33.1
672.493	32.77
672.68	32.49
672.867	32.58
673.054	32.33
673.24	32.52
673.427	32.88
673.614	32.53
673.801	32.83
673.988	32.61
674.174	32.56
674.361	32.17
674.548	32.59
674.734	33.4
674.921	33.65
675.108	33.79
675.294	33.5
675.481	33.01
675.668	32.7
675.854	32.39
676.041	32.45
676.227	32.33
676.414	32.11
676.601	32.09
676.787	32.05
676.974	31.52
677.16	31.54
677.347	31.05
677.533	30.77
677.719	30.96
677.906	31.02
678.092	31.06
678.279	31.13
678.465	31.44
678.651	31.82
678.838	31.57
679.024	31.16
679.21	31.26
679.397	31.87
679.583	32.17
679.769	32.12
679.955	31.9
680.142	32.29
680.328	32.34
680.514	32.5
680.7	32.38
680.886	32.09
681.073	32.48
681.259	32.63
681.445	32.62
681.631	32.71
681.817	32.75
682.003	32.68
682.189	32.3
682.375	32.06
682.561	31.98
682.747	32.03
682.933	32.18
683.119	32.07
683.305	32
683.491	31.9
683.677	31.64
683.863	31.65
684.049	31.47
684.235	31.5
684.42	32.12
684.606	31.88
684.792	31.96
684.978	32.5
685.164	32.51
685.349	32.14
685.535	32.44
685.721	32.56
685.907	32.35
686.092	33.35
686.278	33.5
686.464	32.99
686.649	33.24
686.835	32.94
687.021	32.34
687.206	32.45
687.392	33.31
687.577	32.66
687.763	32.61
687.948	33.41
688.134	32.78
688.319	32.84
688.505	33.02
688.69	32.73
688.876	31.96
689.061	32.06
689.247	32.4
689.432	32.08
689.618	32.4
689.803	32.37
689.988	31.9
690.174	31.53
690.359	31.49
690.544	31.4
690.73	31.57
690.915	32.2
691.1	32.13
691.285	31.82
691.471	31.85
691.656	31.76
691.841	32.42
692.026	31.86
692.211	32.25
692.396	32.58
692.582	32.37
692.767	31.92
692.952	31.47
693.137	31.86
693.322	31.63
693.507	31.22
693.692	31.31
693.877	31.27
694.062	31.98
694.247	31.76
694.432	31.74
694.617	31.53
694.802	32.3
694.987	32.16
695.172	31.96
695.357	32.16
695.541	32.09
695.726	32.27
695.911	32.29
696.096	32.43
696.281	31.96
696.466	31.95
696.65	32.15
696.835	32.15
697.02	32.79
697.204	32.8
697.389	32.92
697.574	32.99
697.759	32.94
697.943	32.59
698.128	32.13
698.312	32.54
698.497	32.45
698.682	32.55
698.866	32.27
699.051	32.34
699.235	32.22
699.42	31.84
699.604	32.16
699.789	32.23
699.973	31.97
700.158	32.3
700.342	32.41
700.527	32.12
700.711	32.42
700.895	32.3
701.08	32.31
701.264	32.83
701.448	33.02
701.633	32.54
701.817	32.77
702.001	33.51
702.186	33.1
702.37	33.07
702.554	33.11
702.738	32.93
702.923	33.73
703.107	34.14
703.291	33.98
703.475	34.29
703.659	34.67
703.843	34.28
704.027	32.8
704.212	33.05
704.396	32.94
704.58	33.26
704.764	32.26
704.948	31.5
705.132	30.55
705.316	30.59
705.5	30.84
705.684	30.9
705.868	31.36
706.052	32.92
706.235	33.36
706.419	33.11
706.603	32.41
706.787	33.23
706.971	33.64
707.155	33.75
707.339	33.32
707.522	33.17
707.706	32.14
707.89	31.57
708.074	31.42
708.257	31.33
708.441	31.92
708.625	31.74
708.808	32.58
708.992	32.23
709.176	32.61
709.359	32.36
709.543	32.3
709.727	32.96
709.91	33.32
710.094	33.08
710.277	32.56
710.461	32.46
710.644	32.02
710.828	31.19
711.011	31.31
711.195	31.68
711.378	31.69
711.562	31.3
711.745	31.19
711.928	31.38
712.112	31.05
712.295	31.25
712.478	31.19
712.662	32.22
712.845	31.95
713.028	31.85
713.212	30.73
713.395	31.09
713.578	32.06
713.761	32.51
713.945	31.97
714.128	32.14
714.311	32.03
714.494	32.15
714.677	32.05
714.86	32.73
715.043	32.81
715.227	33.14
715.41	33.55
715.593	32.9
715.776	32.99
715.959	32.76
716.142	33.38
716.325	33.59
716.508	33.12
716.691	33.34
716.874	32.72
717.057	32.46
717.239	33.19
717.422	32.67
717.605	32.11
717.788	31.95
717.971	32.47
718.154	31.89
718.337	31.76
718.519	32.23
718.702	31.97
718.885	32.04
719.068	32.2
719.25	32.04
719.433	31.09
719.616	31.55
719.798	31.13
719.981	31.45
720.164	30.94
720.346	30.36
720.529	30.66
720.712	31.15
720.894	32.09
721.077	32.85
721.259	32.2
721.442	33.01
721.624	32.78
721.807	32.79
721.989	32.58
722.172	33.19
722.354	32.94
722.537	32.9
722.719	31.54
722.901	30.81
723.084	30.28
723.266	30.52
723.448	31.24
723.631	31.67
723.813	31.73
723.995	30.59
724.178	30.63
724.36	31.9
724.542	32.33
724.724	32.41
724.907	31.92
725.089	31.03
725.271	31.02
725.453	30.54
725.635	30.99
725.817	31.48
725.999	32.14
726.181	32.04
726.364	32.3
726.546	30.99
726.728	32.21
726.91	32.82
727.092	34.07
727.274	34.28
727.456	34.35
727.638	33.47
727.819	32.89
728.001	32.69
728.183	32.99
728.365	32.15
728.547	32.62
728.729	31.77
728.911	31.89
729.093	31.8
729.274	31.22
729.456	31.67
729.638	31.64
729.82	32.32
730.001	32.95
730.183	33.19
730.365	33.12
730.546	32.83
730.728	32.81
730.91	32.47
731.091	32.3
731.273	33.47
731.455	32.47
731.636	33.13
731.818	31.99
731.999	31.74
732.181	30.93
732.362	31.42
732.544	31.3
732.725	32.15
732.907	32.62
733.088	31.79
733.27	30.07
733.451	30.99
733.633	30.97
733.814	32.04
733.995	32.02
734.177	32.26
734.358	32.02
734.539	32.04
734.721	31.71
734.902	31.45
735.083	32.18
735.264	33.12
735.446	32.94
735.627	32.89
735.808	32.99
735.989	32.21
736.17	32.26
736.351	31.95
736.533	32.28
736.714	32.81
736.895	32.36
737.076	32.2
737.257	32.8
737.438	32.16
737.619	31.72
737.8	31.16
737.981	31.51
738.162	31.01
738.343	30.97
738.524	30.48
738.705	30.29
738.886	30.16
739.067	29.65
739.247	29.21
739.428	29.74
739.609	29.83
739.79	30.11
739.971	30.82
740.151	31.38
740.332	31.81
740.513	33.1
740.694	32.67
740.874	33.25
741.055	33.65
741.236	33.74
741.417	33.96
741.597	33.84
741.778	33.89
741.958	33.7
742.139	33.42
742.32	34.05
742.5	33.44
742.681	33.74
742.861	34.35
743.042	34.24
743.222	33.2
743.403	32.74
743.583	33.14
743.764	32.39
743.944	32.36
744.124	32.77
744.305	31.72
744.485	31.3
744.666	30.7
744.846	30
745.026	30.76
745.207	31.23
745.387	32.13
745.567	31.02
745.747	32.34
745.928	31.94
746.108	31.79
746.288	32.46
746.468	32.55
746.648	32.98
746.829	33.79
747.009	33.66
747.189	33.7
747.369	32.75
747.549	33.4
747.729	33.12
747.909	32.63
748.089	33.19
748.269	33.01
748.449	33.64
748.629	33.47
748.809	32.38
748.989	30.9
749.169	30.76
749.349	30.06
749.529	30.18
749.709	29.41
749.889	29.83
750.068	29.87
750.248	30.24
750.428	29.42
750.608	28.92
750.788	28.89
750.967	28.77
751.147	28.86
751.327	28.95
751.507	29.28
751.686	28.96
751.866	28.78
752.046	27.98
752.225	27.23
752.405	28.9
752.585	29.03
752.764	29.75
752.944	30.9
753.123	31.16
753.303	32.05
753.482	31.33
753.662	31.63
753.841	32.5
754.021	31.64
754.2	31.46
754.38	30.49
754.559	30.5
754.739	29.66
754.918	29.26
755.097	28.99
755.277	28.15
755.456	28.88
755.635	30.19
755.815	29.16
755.994	30.18
756.173	30.05
756.352	29.87
756.532	29.98
756.711	31.17
756.89	32.11
757.069	33.85
757.248	33.89
757.427	33.52
757.607	32.93
757.786	33.9
757.965	33.47
758.144	33.94
758.323	33
758.502	32.55
758.681	31.82
758.86	32.45
759.039	30.83
759.218	31.35
759.397	32.25
759.576	31.42
759.755	30.34
759.934	30.64
760.113	29.68
760.291	30.86
760.47	31.94
760.649	31.33
760.828	29.84
761.007	29.65
761.186	29.63
761.364	28.44
761.543	29.49
761.722	29.18
761.901	29.44
762.079	30.46
762.258	30.91
762.437	30.17
762.615	30.05
762.794	30.63
762.972	30.8
763.151	30.69
763.33	30.48
763.508	30.19
763.687	30.91
763.865	31.2
764.044	31.85
764.222	31.09
764.401	31.29
764.579	32.47
764.758	32.34
764.936	32.95
765.114	33.64
765.293	34.21
765.471	34.05
765.65	33.45
765.828	33.49
766.006	33.21
766.184	33.28
766.363	34.01
766.541	32.3
766.719	32.52
766.898	32.62
767.076	31.96
767.254	31.89
767.432	31.55
767.61	33.13
767.788	31.67
767.967	30.3
768.145	31.59
768.323	29.79
768.501	30.73
768.679	31.32
768.857	29.76
769.035	30.09
769.213	29.88
769.391	31.09
769.569	29.99
769.747	31.63
769.925	32.31
770.103	30.98
770.281	32.07
770.459	32.09
770.636	32.24
770.814	32.73
770.992	33.42
771.17	33.46
771.348	32.64
771.525	32.12
771.703	31.33
771.881	32.95
772.059	33.84
772.236	34.18
772.414	34.6
772.592	33.18
772.769	32.77
772.947	31.83
773.125	32.5
773.302	31.31
773.48	32.56
773.657	32.01
773.835	30.97
774.013	29.31
774.19	30.27
774.368	30.16
774.545	30.13
774.723	32.66
774.9	31.79
775.077	32.66
775.255	35.09
775.432	33.79
775.61	33.82
775.787	31.68
775.964	31.87
776.142	31.12
776.319	31.4
776.496	31.73
776.674	29.57
776.851	31.3
777.028	28.91
777.205	27.36
777.382	28.24
777.56	30.54
777.737	32.29
777.914	35.81
778.091	33.35
778.268	34.37
778.445	34.63
778.622	35.29
778.8	33.8
778.977	34.58
779.154	40.13
779.331	39.29
779.508	37.87
779.685	37.15
779.862	34.28
780.038	37.6
780.215	37.7
780.392	37.5
780.569	37.21
780.746	36.28
780.923	36.94
781.1	31.39
781.277	30.86
781.453	29.78
781.63	30.21
781.807	28.77
781.984	26.25
782.16	25.37
782.337	24.09
782.514	23.79
782.691	23.83
782.867	22.38
783.044	21.64
783.221	22.68
783.397	23.47
783.574	22.58
783.75	23.24
783.927	22.81
784.103	22.79
784.28	22.54
784.456	23.06
784.633	23.33
784.809	21.84
784.986	22.56
785.162	23.62
785.339	24.43
785.515	27.24
785.692	27.2
785.868	27.22
786.044	26.17
786.221	26.95
786.397	27.93
786.573	27.36
786.749	30.78
786.926	31.77
787.102	31.03
787.278	31.55
787.454	30.62
787.631	31.12
787.807	33.1
787.983	31.32
788.159	31.02
788.335	28.9
788.511	30.22
788.687	28.83
788.863	29.01
789.039	28.03
789.216	25.28
789.392	24.74
789.568	23.68
789.744	22.79
789.919	26.17
790.095	25.41
790.271	25.03
790.447	24.26
790.623	25.2
790.799	23.88
790.975	24.56
791.151	28.06
791.327	29.93
791.502	30.33
791.678	30.69
791.854	29.83
792.03	30.53
792.205	30.22
792.381	29.69
792.557	28.37
792.733	31.13
792.908	31.62
793.084	30.65
793.259	26.04
793.435	26.41
793.611	26.65
793.786	25.61
793.962	26.06
794.137	25.92
794.313	27.13
794.488	26.22
794.664	21.79
794.839	18.97
795.015	18.68
795.19	20.93
795.366	22.48
795.541	22.8
795.716	22.02
795.892	22.12
796.067	23.02
796.242	23.55
796.418	24.96
796.593	26.13
796.768	30.84
796.944	30.3
797.119	29.42
797.294	30.01
797.469	26.57
797.644	27.5
797.82	28.48
797.995	28.5
798.17	28.14
798.345	27.03
798.52	27.21
798.695	23.5
798.87	22.33
799.045	23.6
799.22	22.63
799.395	24.4
799.57	25.41
799.745	23.29
799.92	23.57
800.095	24.88
800.27	26.88
800.445	26.96
800.62	30.97
800.795	31.84
800.97	29.54
801.145	27.54
801.319	25.96
801.494	25.14
801.669	26.05
801.844	28.63
802.018	25.73
802.193	26.11
802.368	28.43
802.543	23.93
802.717	25.79
802.892	28.49
803.067	28.69
803.241	32.79
803.416	32.46
803.59	32.08
803.765	29.33
803.94	30.06
804.114	29.37
804.289	27.41
804.463	30.02
804.638	29.84
804.812	27
804.986	30.01
805.161	26.45
805.335	25.43
805.51	25.6
805.684	26.43
805.858	27.32
806.033	26.8
806.207	28.18
806.381	28.69
806.556	26.04
806.73	26.39
806.904	24.07
807.078	24.81
807.253	24.12
807.427	25.1
807.601	22.94
807.775	23.19
807.949	23.06
808.123	17.6
808.298	18.03
808.472	19.88
808.646	22.86
808.82	21.78
808.994	25.5
809.168	26.41
809.342	22.86
809.516	21.42
809.69	24.33
809.864	25.21
810.038	30.48
810.212	27.87
810.385	24.44
810.559	26.63
810.733	30.78
810.907	30.75
811.081	32.21
811.255	35.5
811.428	38.97
811.602	34.72
811.776	31.94
811.95	31.26
812.123	34.43
812.297	35.95
812.471	27.48
812.644	25.69
812.818	23.75
812.992	21.4
813.165	19.87
813.339	19.53
813.512	23.17
813.686	26.14
813.86	27.78
814.033	27.72
814.207	26.84
814.38	30.53
814.554	28.32
814.727	29.6
814.9	31.53
815.074	29.32
815.247	27.74
815.421	24.23
815.594	20.57
815.767	17.37
815.941	12.63
816.114	12.46
816.287	16.18
816.46	18.27
816.634	18.33
816.807	18.1
816.98	18.31
817.153	20.93
817.327	21.12
817.5	23.27
817.673	22.23
817.846	18.02
818.019	20.35
818.192	18.87
818.365	16.8
818.538	17.4
818.711	17.61
818.884	21.75
819.057	18.05
819.23	19.98
819.403	21.04
819.576	22.71
819.749	28.33
819.922	30.4
820.095	32.09
820.268	35.77
820.441	34.46
820.614	33.81
820.786	33.76
820.959	37.01
821.132	37.03
821.305	36.59
821.477	36.64
821.65	35.5
821.823	34.89
821.996	34.64
822.168	32.87
822.341	32.42
822.514	32.66
822.686	32.27
822.859	31.77
823.031	31.51
823.204	31.2
823.376	31.34
823.549	31.37
823.722	30.86
823.894	30.23
824.067	30.64
824.239	29.72
824.411	29.51
824.584	29.52
824.756	29.54
824.929	28.74
825.101	29.57
825.273	29.1
825.446	29.04
825.618	30
825.79	30.46
825.963	30.3
826.135	32.3
826.307	32.75
826.479	32.09
826.652	32.35
826.824	33.06
826.996	31.15
827.168	30.48
827.34	31.08
827.512	30.14
827.684	27.88
827.856	26.97
828.029	25.7
828.201	24.98
828.373	25.4
828.545	24.77
828.717	25.54
828.889	26
829.061	27.02
829.232	25.88
829.404	25.77
829.576	27.95
829.748	28.63
829.92	28.57
830.092	31.01
830.264	30.94
830.436	30.64
830.607	30.41
830.779	32.73
830.951	32.81
831.123	33.87
831.294	36.32
831.466	36.63
831.638	37.31
831.809	38.75
831.981	37.3
832.153	35.81
832.324	34.39
832.496	32.62
832.667	29.75
832.839	27.02
833.011	26.97
833.182	23.98
833.354	23.62
833.525	24.65
833.697	22.8
833.868	20.52
834.039	21.67
834.211	21.68
834.382	21.84
834.554	25.27
834.725	25.54
834.896	25.78
835.068	25.47
835.239	24.76
835.41	25.3
835.581	27.22
835.753	29.47
835.924	28.92
836.095	29.11
836.266	28.87
836.438	26.05
836.609	26.53
836.78	25.24
836.951	25.84
837.122	25.61
837.293	25.68
837.464	22.31
837.635	21.35
837.806	24.16
837.977	24.3
838.148	23.65
838.319	23.26
838.49	23.18
838.661	23.92
838.832	23
839.003	24.87
839.174	25.21
839.345	29.93
839.516	29.49
839.687	25.73
839.857	24.46
840.028	25.8
840.199	24.34
840.37	21.07
840.54	21.91
840.711	24.48
840.882	22.92
841.053	21.26
841.223	16.99
841.394	14.54
841.564	18.96
841.735	26.7
841.906	28.8
842.076	27.96
842.247	32.27
842.417	35.73
842.588	31.25
842.758	33.49
842.929	31.84
843.099	31.81
843.27	29.58
843.44	28.19
843.611	17.54
843.781	12.95
843.951	18.46
844.122	9.16
844.292	1.93
844.462	12.36
844.633	9.76
844.803	17.65
844.973	15.23
845.144	23.85
845.314	12.55
845.484	21.31
845.654	16.57
845.824	17.21
845.995	26.17
846.165	26.01
846.335	13.94
846.505	11.1
846.675	8.14
846.845	19.89
847.015	16.6
847.185	18.75
847.355	12.59
847.525	7.09
847.695	0.35
847.865	-9.04
848.035	-15.74
848.205	-2.84
848.375	1.14
848.545	-7.52
848.715	-18.41
848.884	-19.59
849.054	-17.03
849.224	-9.9
849.394	-1.26
849.564	6.17
849.733	16.01
849.903	13.63
850.073	8.28
850.243	7.57
850.412	6.4
850.582	-2.97
850.752	10.46
850.921	3.65
851.091	-3.15
851.26	4.3
851.43	-9.97
851.599	-25.56
851.769	-24.63
851.939	-17.09
852.108	-25.35
852.278	-20.3
852.447	-3.16
852.616	-9.9
852.786	-1.67
852.955	6.3
853.125	-1.25
853.294	-1.16
853.463	10.04
853.633	13.04
853.802	4.31
853.971	3.65
854.141	-11.23
854.31	-21.25
854.479	-12.42
854.648	-17.73
854.818	-19.79
854.987	-1.9
855.156	14.72
855.325	19.28
855.494	22.09
855.663	21.26
855.832	36.24
856.001	36.22
856.171	33.33
856.34	20.02
856.509	34.9
856.678	31.23
856.847	24.3
857.016	20.5
857.185	10.57
857.353	20.3
857.522	29.81
857.691	33.4
857.86	41.32
858.029	44.21
858.198	51.07
858.367	36.72
858.535	35.05
858.704	29.13
858.873	39.05
859.042	43.44
859.21	36.49
859.379	39.9
859.548	37.59
859.717	33.78
859.885	24.71
860.054	19.93
860.222	20.01
860.391	30.39
860.56	23.43
860.728	0.16
860.897	-7.09
861.065	4.15
861.234	-11.5
861.402	-28.47
861.571	-21.25
861.739	-4.13
861.908	-12.87
862.076	1.01
862.244	1.96
862.413	10.67
862.581	20.38
862.749	15.99
862.918	14.28
863.086	9.71
863.254	8.1
863.423	-2.27
863.591	-10.13
863.759	1.15
863.927	-2.12
864.096	1.46
864.264	6.65
864.432	9.73
864.6	17.6
864.768	14.07
864.936	20.9
865.104	17.92
865.272	35.48
865.44	41.92
865.608	44.89
865.776	31.81
865.944	29.54
866.112	32.22
866.28	15.47
866.448	12.36
866.616	13.25
866.784	14.25
866.952	14.06
867.12	20.2
867.288	19.44
867.455	9.36
867.623	7.2
867.791	-28.74
867.959	-33.78
868.127	26.74
868.294	21.89
868.462	6.53
868.63	20.86
868.797	37.98
868.965	11.96
869.133	10.51
869.3	3.84
869.468	10.79
869.636	10.74
869.803	10.06
869.971	-3.42
870.138	9.48
870.306	8.14
870.473	2.41
870.641	-11.94
870.808	-8.19
870.975	-2.95
871.143	-1.5
871.31	-2.55
871.478	-4.41
871.645	-4.67
871.812	-24.91
871.98	-28.18
872.147	-22.46
872.314	-10.78
872.482	-2.88
872.649	0.18
872.816	-3.95
872.983	0.05
873.15	-5.69
873.318	-8.31
873.485	-24.72
873.652	-0.67
873.819	-17.95
873.986	-5.36
874.153	-19.45
874.32	-9.16
874.487	0.43
874.654	-1.07
874.821	-18.93
874.988	2.14
875.155	7.19
875.322	28.23
875.489	15.27
875.656	26.54
875.823	18.52
875.99	22.55
876.157	22.83
876.324	17.16
876.49	18.7
876.657	30.82
876.824	21.89
876.991	28.62
877.157	13.41
877.324	8.28
877.491	-2.86
877.658	7.89
877.824	6.21
877.991	4.06
878.157	-6.95
878.324	2.46
878.491	9.54
878.657	14.55
878.824	9.59
878.99	24.06
879.157	28.2
879.323	34.14
879.49	28.86
879.656	29.7
879.823	27.4
879.989	40.01
880.156	35.52
880.322	27
880.488	26.24
880.655	24.53
880.821	20.98
880.987	26.74
881.154	29.22
881.32	21.71
881.486	19.85
881.652	20.74
881.819	14.77
881.985	20.01
882.151	17.79
882.317	21.14
882.483	21.11
882.649	22.37
882.816	23.04
882.982	22.87
883.148	24.58
883.314	25.25
883.48	27.92
883.646	28.89
883.812	29.32
883.978	30.33
884.144	30.09
884.31	30.47
884.476	31.26
884.642	30.58
884.807	30.39
884.973	30.39
885.139	29.92
885.305	28.32
885.471	28.56
885.637	26.65
885.802	27.61
885.968	23.26
886.134	23.01
886.3	21.17
886.465	21.43
886.631	21.34
886.797	24.87
886.962	28.04
887.128	26.8
887.293	26.39
887.459	23.38
887.625	27.42
887.79	33.49
887.956	32.01
888.121	33.63
888.287	34.54
888.452	35.1
888.618	31.43
888.783	24.09
