Data from CB_076_Reflection_2.txt Node
Date: Sat Nov 14 11:31:21 EST 2015
User: robert
Spectrometer: USB4E03001
Autoset integration time: false
Trigger mode: 4
Integration Time (sec): 1.000000E-1
Scans to average: 15
Electric dark correction enabled: true
Nonlinearity correction enabled: false
Boxcar width: 5
Stray light correction enabled: false
XAxis mode: Wavelengths
Stop averaging: false
Number of Pixels in Spectrum: 3648
>>>>>Begin Spectral Data<<<<<
177.566	-311.44
177.785	-437.67
178.005	-1213.44
178.225	-196.18
178.445	-99.02
178.665	-376.29
178.885	10.58
179.105	-174.34
179.324	-249.79
179.544	-485.96
179.764	-161.59
179.984	-224.02
180.204	-240.13
180.423	-737.26
180.643	-349.22
180.863	-577.08
181.083	-2986.58
181.302	-14973.81
181.522	1774.8
181.742	1853.83
181.961	2237.01
182.181	321.92
182.401	255.8
182.621	408.83
182.84	1762.22
183.06	-6435.25
183.279	-857.02
183.499	-561.04
183.719	-707.9
183.938	-456.87
184.158	-334.48
184.377	-288.36
184.597	-182.65
184.816	-116.16
185.036	-233.22
185.256	-299.59
185.475	-648.96
185.695	-424.5
185.914	-418.43
186.134	-347.71
186.353	-373.7
186.572	-340.74
186.792	-940
187.011	4901.26
187.231	-3449.68
187.45	-484.86
187.67	-1797.09
187.889	886.82
188.108	463.93
188.328	344.98
188.547	251.92
188.766	233.84
188.986	211.38
189.205	238.78
189.424	264.57
189.644	223.94
189.863	324.02
190.082	373.29
190.302	516.08
190.521	388.73
190.74	455.84
190.959	1897.28
191.178	1555.43
191.398	1244.62
191.617	3193.24
191.836	11730.11
192.055	2180
192.274	565.85
192.494	834.25
192.713	32182.14
192.932	-3073.14
193.151	566900
193.37	794.46
193.589	-19492.04
193.808	-1693.32
194.027	-2817.15
194.246	5970.76
194.465	-4003.7
194.685	1061.48
194.904	1091.97
195.123	735.79
195.342	630.17
195.561	467.42
195.78	1380.41
195.999	3483.97
196.218	1623.48
196.436	1051.12
196.655	466.61
196.874	277.4
197.093	455.92
197.312	453.13
197.531	792.51
197.75	1028.31
197.969	3023.09
198.188	535.03
198.407	335.15
198.625	381.27
198.844	477.67
199.063	627.62
199.282	1339.5
199.501	-8091.02
199.719	-3900.8
199.938	1563.13
200.157	1071.44
200.376	-6322.16
200.594	-543.53
200.813	-1333.14
201.032	-3407.29
201.251	-1641.61
201.469	-2142.11
201.688	-3746.46
201.907	5811.06
202.125	1625.05
202.344	6153.5
202.563	33259.42
202.781	1701.03
203	544.33
203.218	437.75
203.437	709.07
203.656	529.04
203.874	1193.8
204.093	999.47
204.311	675.24
204.53	2138.9
204.748	546.55
204.967	736.54
205.185	574.31
205.404	551.08
205.622	669.7
205.841	393.84
206.059	358.04
206.278	313.95
206.496	499.93
206.715	745.26
206.933	535.46
207.151	581.11
207.37	379.13
207.588	500.51
207.806	632
208.025	903.64
208.243	1489.71
208.461	-104845.45
208.68	2984.7
208.898	1378.41
209.116	781.89
209.335	567.8
209.553	593.38
209.771	458.13
209.989	393.95
210.208	317
210.426	298.9
210.644	219.98
210.862	211.81
211.081	216.21
211.299	182.19
211.517	228.44
211.735	192.17
211.953	172.64
212.171	222.02
212.39	245.3
212.608	273.59
212.826	236.74
213.044	252.38
213.262	238.32
213.48	240.34
213.698	358.53
213.916	199.67
214.134	350.79
214.352	704.2
214.57	414.8
214.788	302.14
215.006	240.65
215.224	543.73
215.442	1493.13
215.66	3013.61
215.878	847.01
216.096	299.26
216.314	1011.57
216.532	4554.31
216.75	-1577.57
216.968	-2086.94
217.185	-18284.07
217.403	3933.76
217.621	-249355.56
217.839	-1471.02
218.057	-49137.5
218.275	-1895.09
218.492	-410.16
218.71	-6420.91
218.928	3516.02
219.146	1874.54
219.363	971.07
219.581	1129.01
219.799	-6116.51
220.017	594.06
220.234	725.03
220.452	713.77
220.67	949.57
220.887	360.82
221.105	583.41
221.323	338.41
221.54	230.21
221.758	229.18
221.976	191.61
222.193	138.2
222.411	140.34
222.629	152.56
222.846	148.58
223.064	130.55
223.281	147.16
223.499	142.01
223.716	132.38
223.934	120.88
224.151	123.83
224.369	148.67
224.586	173.42
224.804	191.95
225.021	177.39
225.239	176.32
225.456	173.16
225.674	153.99
225.891	151.11
226.108	134.91
226.326	138.87
226.543	138.71
226.76	112.77
226.978	92.56
227.195	91.98
227.413	80.14
227.63	71.8
227.847	64.54
228.064	58.11
228.282	55.83
228.499	55.6
228.716	51.34
228.934	48.92
229.151	49.89
229.368	48.22
229.585	44.93
229.802	43.66
230.02	44.74
230.237	48.72
230.454	56.14
230.671	58.95
230.888	62.99
231.105	65.15
231.323	68.2
231.54	68.05
231.757	70.75
231.974	76.66
232.191	81.65
232.408	81.33
232.625	82.83
232.842	66.77
233.059	63.09
233.276	56.34
233.493	55.8
233.71	48.6
233.927	47.27
234.144	46.48
234.361	44.92
234.578	42.89
234.795	41.95
235.012	40.43
235.229	40.51
235.446	46.78
235.663	47.23
235.879	45.34
236.096	50.6
236.313	58.26
236.53	53.06
236.747	47.41
236.964	48.92
237.181	53.34
237.397	51.89
237.614	67.21
237.831	62.92
238.048	66.08
238.264	65.88
238.481	60.79
238.698	56.96
238.915	58.55
239.131	60.14
239.348	60.54
239.565	54.89
239.781	56.67
239.998	45.47
240.215	44.86
240.431	43.72
240.648	41.69
240.865	38.39
241.081	34.12
241.298	32.97
241.514	32.29
241.731	27.99
241.947	24.7
242.164	21.4
242.38	19.8
242.597	16.48
242.814	14.9
243.03	17.17
243.246	19.01
243.463	20.11
243.679	21.96
243.896	22.32
244.112	22.26
244.329	26.35
244.545	30.48
244.762	31.53
244.978	33.15
245.194	31.97
245.411	30.06
245.627	28.16
245.843	28.37
246.06	24.69
246.276	23.18
246.492	23.64
246.709	22.95
246.925	22.35
247.141	23.07
247.357	23.43
247.574	24.72
247.79	23.69
248.006	22.68
248.222	22.98
248.439	23.54
248.655	23.75
248.871	24.39
249.087	24.73
249.303	25.94
249.519	25.94
249.736	27.52
249.952	27.47
250.168	34.2
250.384	38.43
250.6	37.83
250.816	39.6
251.032	40.22
251.248	39.14
251.464	39.2
251.68	33.58
251.896	32.34
252.112	30.17
252.328	28.89
252.544	28.44
252.76	26.1
252.976	25.81
253.192	23.77
253.408	24.58
253.624	22.67
253.84	22.96
254.056	25.86
254.272	26.57
254.487	28.23
254.703	27.48
254.919	23.96
255.135	27.8
255.351	28.11
255.567	27.25
255.782	25.27
255.998	29.24
256.214	26.26
256.43	27.59
256.646	28.69
256.861	29.37
257.077	30.09
257.293	27.19
257.508	25.75
257.724	24.86
257.94	24.51
258.155	25.22
258.371	22.91
258.587	23.45
258.802	21.73
259.018	19.45
259.234	18.09
259.449	17.25
259.665	16.84
259.88	16.44
260.096	16.9
260.312	16.55
260.527	15.59
260.743	15.89
260.958	16.02
261.174	16.89
261.389	18.4
261.605	18.3
261.82	18.22
262.036	18.8
262.251	19
262.466	18.27
262.682	19.3
262.897	19.33
263.113	18.68
263.328	17.74
263.543	19.03
263.759	17.52
263.974	19.38
264.189	20.39
264.405	20.58
264.62	21.52
264.835	22.2
265.051	22.73
265.266	25.31
265.481	26.81
265.696	28.09
265.912	26
266.127	24.62
266.342	21.8
266.557	21.37
266.773	22.19
266.988	21.36
267.203	20.05
267.418	18.06
267.633	17.18
267.848	15.24
268.064	12.14
268.279	11.05
268.494	11.47
268.709	11.81
268.924	14.25
269.139	10.94
269.354	11.53
269.569	11.39
269.784	13.96
269.999	14.57
270.214	16.19
270.429	18.46
270.644	19.51
270.859	19.57
271.074	20.17
271.289	19.11
271.504	20.46
271.719	20.76
271.934	21.89
272.149	20.89
272.363	20.81
272.578	19.76
272.793	18.77
273.008	17.39
273.223	16.58
273.438	16.23
273.653	16.33
273.867	16.47
274.082	16
274.297	16.43
274.512	17.77
274.726	17.11
274.941	17.86
275.156	20.25
275.371	22.33
275.585	24.57
275.8	24.86
276.015	23.57
276.229	24.14
276.444	24.38
276.659	24.67
276.873	23.09
277.088	26.03
277.302	27.84
277.517	24.18
277.732	22.39
277.946	21.1
278.161	22.05
278.375	22.08
278.59	21.51
278.804	21.13
279.019	21.36
279.233	21.59
279.448	17.32
279.662	14.96
279.877	17.65
280.091	16.98
280.306	16.88
280.52	14.9
280.735	16.08
280.949	17.09
281.163	18.42
281.378	16.75
281.592	17.05
281.806	17.68
282.021	18.4
282.235	17.36
282.449	18.3
282.664	18.07
282.878	18.87
283.092	17.87
283.307	18.02
283.521	16.06
283.735	16.03
283.949	15.98
284.164	16.1
284.378	14.53
284.592	14.14
284.806	14.79
285.02	13.78
285.234	11.66
285.449	11.84
285.663	11.5
285.877	12.01
286.091	12.45
286.305	12.91
286.519	13.38
286.733	13.87
286.947	15.74
287.161	15
287.375	15.03
287.589	17.08
287.803	18.08
288.017	17.36
288.231	17.91
288.445	17.73
288.659	17.17
288.873	17.29
289.087	18.2
289.301	17.32
289.515	16.74
289.729	17.5
289.943	18.75
290.157	19.09
290.371	19.45
290.584	19.2
290.798	19.3
291.012	19.7
291.226	19.76
291.44	19.98
291.654	19.17
291.867	19.03
292.081	19.84
292.295	19.38
292.509	18.69
292.722	18.94
292.936	18.36
293.15	18.85
293.364	18.61
293.577	18.95
293.791	19.03
294.005	19.19
294.218	21.26
294.432	20.6
294.645	20.56
294.859	19.47
295.073	19.92
295.286	20
295.5	18.61
295.713	18.53
295.927	17.99
296.14	16.72
296.354	16.65
296.568	15.36
296.781	15.36
296.994	15.05
297.208	14.79
297.421	14.04
297.635	13.81
297.848	14.71
298.062	14.05
298.275	14
298.489	14.9
298.702	15.8
298.915	15.68
299.129	15.97
299.342	15.88
299.555	17.68
299.769	17.44
299.982	17.96
300.195	18.45
300.409	19.6
300.622	19.86
300.835	19.42
301.048	18.89
301.262	20.27
301.475	22.47
301.688	23.69
301.901	23.52
302.115	24.67
302.328	24.53
302.541	24.29
302.754	25
302.967	25.53
303.18	27.53
303.393	26.78
303.607	26.86
303.82	25.34
304.033	24.76
304.246	24.49
304.459	24.55
304.672	24.7
304.885	25.03
305.098	24.13
305.311	24.32
305.524	23.05
305.737	24.37
305.95	25.31
306.163	25.15
306.376	25.02
306.589	25.29
306.802	25.23
307.015	26.88
307.228	26.56
307.44	26.25
307.653	25.5
307.866	25.61
308.079	25.17
308.292	23.14
308.505	24.04
308.718	24.7
308.93	25.45
309.143	25.81
309.356	25.11
309.569	24.33
309.781	24.44
309.994	24.91
310.207	24.79
310.42	24.1
310.632	24.31
310.845	23.95
311.058	23.5
311.27	23.1
311.483	22.54
311.696	22.27
311.908	22.22
312.121	22.07
312.333	23.01
312.546	22.61
312.759	22.27
312.971	23.08
313.184	24.04
313.396	24.13
313.609	23.5
313.821	24.21
314.034	23.94
314.246	24.45
314.459	25.09
314.671	23.48
314.884	23.44
315.096	24.2
315.309	23.99
315.521	23.52
315.733	23.09
315.946	22.65
316.158	21.64
316.371	22.08
316.583	21.5
316.795	21.02
317.008	21.46
317.22	22.52
317.432	24.01
317.644	24.69
317.857	24.6
318.069	24.97
318.281	26.02
318.494	26.5
318.706	27.89
318.918	29.79
319.13	30.22
319.342	30
319.555	29.63
319.767	28.87
319.979	27.94
320.191	27.35
320.403	28.67
320.615	30.16
320.827	30.18
321.039	29.51
321.252	28.63
321.464	29.73
321.676	29.72
321.888	29.58
322.1	29.12
322.312	28.87
322.524	28.64
322.736	26.71
322.948	25.15
323.16	25.36
323.372	25.31
323.584	24.92
323.796	22.33
324.007	22.88
324.219	23.44
324.431	24.44
324.643	25.24
324.855	26.6
325.067	26.82
325.279	26.98
325.491	28.4
325.702	28.58
325.914	29.41
326.126	31.92
326.338	31.4
326.55	31.67
326.761	31.84
326.973	32.55
327.185	32.63
327.396	34.61
327.608	36.41
327.82	36.36
328.032	37.54
328.243	38.06
328.455	39.18
328.666	40.28
328.878	41.46
329.09	42.5
329.301	42.1
329.513	41.44
329.725	40.51
329.936	40.37
330.148	40.18
330.359	40.43
330.571	42.18
330.782	41.23
330.994	43.11
331.205	43.1
331.417	42.4
331.628	43.95
331.84	46.14
332.051	47.79
332.262	48.41
332.474	47.23
332.685	47.26
332.897	47.11
333.108	47.45
333.319	45.45
333.531	45.92
333.742	47.14
333.953	46.87
334.165	46.18
334.376	46.77
334.587	46.92
334.799	47.54
335.01	47.13
335.221	46.38
335.432	45.87
335.644	46.37
335.855	46.48
336.066	47.28
336.277	47.12
336.488	47.93
336.7	47.19
336.911	47.99
337.122	49.11
337.333	50.04
337.544	50.56
337.755	52.67
337.966	53.22
338.177	53.13
338.388	52.59
338.599	53.26
338.811	52.82
339.022	52.66
339.233	52.44
339.444	51.81
339.655	49.97
339.866	50.24
340.076	48.49
340.287	48.48
340.498	48.77
340.709	48.16
340.92	48.28
341.131	48.42
341.342	48.77
341.553	47.87
341.764	48.01
341.975	49.51
342.185	49.03
342.396	49.83
342.607	49.74
342.818	49.67
343.029	49.7
343.239	49.42
343.45	49.36
343.661	49.1
343.872	48.58
344.082	48.3
344.293	47.04
344.504	46.65
344.714	45.86
344.925	46.93
345.136	46.58
345.346	44.76
345.557	44.05
345.768	43.78
345.978	44.14
346.189	43.91
346.399	44.12
346.61	45.19
346.821	45.39
347.031	47.02
347.242	45.79
347.452	45.44
347.663	46.95
347.873	47.13
348.084	46.43
348.294	44.92
348.504	45.44
348.715	46.26
348.925	45.56
349.136	44.54
349.346	42.78
349.557	42.72
349.767	43.77
349.977	44.03
350.188	44.06
350.398	45.1
350.608	45.93
350.819	46.56
351.029	45.91
351.239	46.99
351.449	47.95
351.66	48.05
351.87	48.98
352.08	48.27
352.29	48.12
352.501	48.35
352.711	47.6
352.921	48.31
353.131	46.93
353.341	46.7
353.552	45.65
353.762	44.77
353.972	45.17
354.182	44.69
354.392	44.37
354.602	44.68
354.812	44.8
355.022	44.74
355.232	44.29
355.442	45.08
355.652	44.59
355.862	44.19
356.072	45.37
356.282	44.54
356.492	43.91
356.702	43.42
356.912	43.37
357.122	43.85
357.332	44.37
357.542	44
357.752	43.78
357.962	44.02
358.171	44.11
358.381	43.94
358.591	43.79
358.801	44.01
359.011	44.08
359.221	44.23
359.43	43.76
359.64	42.81
359.85	42.55
360.06	42.57
360.269	42.22
360.479	42.37
360.689	42.08
360.899	42.1
361.108	42.13
361.318	41.77
361.528	40.85
361.737	40.19
361.947	40.47
362.156	40.47
362.366	39.72
362.576	39.75
362.785	39.27
362.995	38.96
363.204	38.9
363.414	38.69
363.623	38.87
363.833	39.79
364.042	40.26
364.252	40.1
364.461	40.08
364.671	40.62
364.88	40.42
365.09	41.18
365.299	41.54
365.509	41.23
365.718	41
365.927	41.48
366.137	40.75
366.346	40.3
366.555	40.3
366.765	40.44
366.974	40.56
367.183	39.87
367.393	39.11
367.602	37.94
367.811	37.96
368.021	38.25
368.23	37.44
368.439	37.18
368.648	36.76
368.857	36.75
369.067	36.06
369.276	35.68
369.485	36.67
369.694	37.15
369.903	37.41
370.112	37.91
370.321	36.88
370.531	36.41
370.74	36.09
370.949	36.4
371.158	36.09
371.367	36.23
371.576	35.27
371.785	35.05
371.994	34.89
372.203	35.02
372.412	34.25
372.621	34.96
372.83	35.18
373.039	35.44
373.248	34.8
373.457	34.8
373.666	34.37
373.874	34.7
374.083	34.04
374.292	33.79
374.501	33.39
374.71	33.23
374.919	32.74
375.128	32.47
375.336	32.44
375.545	32.9
375.754	32.66
375.963	32.16
376.171	31.93
376.38	31.91
376.589	31.53
376.798	30.92
377.006	31.33
377.215	31.45
377.424	31.52
377.632	30.47
377.841	30.36
378.05	30.35
378.258	30.82
378.467	31.03
378.675	30.87
378.884	31.02
379.093	31.48
379.301	31.35
379.51	30.99
379.718	30.92
379.927	31.75
380.135	31.23
380.344	30.78
380.552	30.36
380.761	30.03
380.969	30.22
381.177	29.44
381.386	29.78
381.594	29.21
381.803	28.62
382.011	28.35
382.219	27.56
382.428	27.52
382.636	27.62
382.845	27.17
383.053	27.13
383.261	26.55
383.469	26.89
383.678	26.91
383.886	26.76
384.094	26.9
384.302	26.89
384.511	26.93
384.719	26.72
384.927	26.44
385.135	27.27
385.343	26.63
385.552	26.91
385.76	26.92
385.968	25.89
386.176	25.7
386.384	25.17
386.592	24.92
386.8	24.96
387.008	25.2
387.216	25.41
387.424	24.99
387.633	24.99
387.841	24.8
388.049	24.83
388.257	25.01
388.465	24.81
388.672	25.36
388.88	25.71
389.088	25
389.296	24.17
389.504	23.82
389.712	23.69
389.92	23.78
390.128	23.76
390.336	23.19
390.544	22.9
390.751	23.06
390.959	22.9
391.167	22.52
391.375	23.16
391.583	23.48
391.79	23.35
391.998	23.51
392.206	23.47
392.414	22.88
392.621	22.87
392.829	23.29
393.037	23.12
393.244	22.68
393.452	22.82
393.66	22.58
393.867	22.45
394.075	22.07
394.283	21.52
394.49	21.43
394.698	21.85
394.905	21.9
395.113	21.84
395.32	21.79
395.528	21.93
395.735	21.55
395.943	21.32
396.15	21.56
396.358	21.59
396.565	21.75
396.773	21.67
396.98	21.57
397.188	21.4
397.395	21.17
397.602	21.25
397.81	21.08
398.017	21.16
398.225	21.38
398.432	21.04
398.639	21.03
398.847	20.6
399.054	20.61
399.261	20.37
399.468	20.39
399.676	20.4
399.883	19.85
400.09	19.93
400.297	19.99
400.505	19.69
400.712	19.84
400.919	20.09
401.126	20.14
401.333	19.97
401.54	19.9
401.748	19.7
401.955	19.34
402.162	19.6
402.369	19.59
402.576	19.43
402.783	18.78
402.99	18.71
403.197	18.04
403.404	18.16
403.611	18.07
403.818	18.1
404.025	18.07
404.232	18.26
404.439	18.33
404.646	18.04
404.853	17.82
405.06	17.91
405.267	17.81
405.474	18.28
405.681	18.55
405.887	18.56
406.094	18.58
406.301	18.43
406.508	18.58
406.715	18.7
406.922	18.91
407.128	19.08
407.335	19.25
407.542	19.02
407.749	18.65
407.955	18.05
408.162	18.02
408.369	17.77
408.575	17.79
408.782	17.64
408.989	17.16
409.195	17.03
409.402	17
409.609	16.98
409.815	16.88
410.022	17.21
410.228	17.7
410.435	17.86
410.642	18.12
410.848	18.11
411.055	17.88
411.261	18
411.468	18.24
411.674	18.1
411.881	18.32
412.087	18.61
412.294	18.26
412.5	18.11
412.706	17.6
412.913	17.39
413.119	17.41
413.326	17.21
413.532	17.09
413.738	16.76
413.945	16.42
414.151	16.39
414.357	16.26
414.564	16.33
414.77	16.11
414.976	16.35
415.182	16.71
415.389	16.42
415.595	16.24
415.801	16.24
416.007	16.27
416.214	16.26
416.42	16.11
416.626	16
416.832	16.21
417.038	16.06
417.244	16.24
417.45	15.99
417.657	16.1
417.863	16.02
418.069	16.09
418.275	16
418.481	16.05
418.687	16.03
418.893	15.99
419.099	15.71
419.305	15.66
419.511	15.45
419.717	15.37
419.923	15.26
420.129	15.26
420.335	15.25
420.541	15.2
420.746	15.15
420.952	15.14
421.158	15.03
421.364	15.02
421.57	15.07
421.776	15.02
421.982	15.01
422.187	15.02
422.393	14.98
422.599	14.94
422.805	14.83
423.01	14.81
423.216	14.8
423.422	15
423.628	15
423.833	14.81
424.039	14.73
424.245	14.71
424.45	14.65
424.656	14.65
424.862	14.45
425.067	14.43
425.273	14.47
425.478	14.49
425.684	14.24
425.889	14.43
426.095	14.48
426.301	14.47
426.506	14.19
426.712	14.27
426.917	14.33
427.123	14.36
427.328	14.3
427.533	14.32
427.739	14.23
427.944	14.37
428.15	13.9
428.355	13.83
428.561	14.16
428.766	14.34
428.971	14.25
429.177	14.24
429.382	14.29
429.587	14.41
429.793	14.44
429.998	14.45
430.203	14.38
430.408	14.64
430.614	14.79
430.819	14.38
431.024	14.37
431.229	14.49
431.434	14.59
431.64	14.72
431.845	14.92
432.05	14.95
432.255	14.78
432.46	14.81
432.665	14.67
432.87	14.56
433.076	14.62
433.281	14.75
433.486	14.76
433.691	14.69
433.896	14.5
434.101	14.21
434.306	13.98
434.511	14.07
434.716	13.78
434.921	13.8
435.126	13.92
435.331	13.91
435.535	13.76
435.74	13.65
435.945	13.51
436.15	13.6
436.355	13.95
436.56	14.07
436.765	14.12
436.97	14.11
437.174	14.09
437.379	14.01
437.584	14.07
437.789	14.01
437.993	13.94
438.198	14
438.403	13.97
438.608	13.78
438.812	13.68
439.017	13.45
439.222	13.65
439.426	13.66
439.631	13.49
439.836	13.56
440.04	13.48
440.245	13.58
440.45	13.62
440.654	13.62
440.859	13.47
441.063	13.56
441.268	13.62
441.472	13.63
441.677	13.62
441.881	13.57
442.086	13.5
442.29	13.59
442.495	13.62
442.699	13.52
442.904	13.47
443.108	13.73
443.312	13.68
443.517	13.74
443.721	13.7
443.925	13.76
444.13	13.92
444.334	13.78
444.538	13.78
444.743	13.69
444.947	13.71
445.151	13.81
445.356	13.71
445.56	13.61
445.764	13.54
445.968	13.43
446.173	13.24
446.377	13.19
446.581	13.16
446.785	13.11
446.989	13.02
447.193	12.91
447.398	12.94
447.602	12.82
447.806	12.92
448.01	12.95
448.214	13.02
448.418	13.12
448.622	13.12
448.826	13.15
449.03	13.2
449.234	13.34
449.438	13.38
449.642	13.22
449.846	13.43
450.05	13.49
450.254	13.24
450.458	13.09
450.662	13.14
450.866	13.12
451.069	13.12
451.273	13.03
451.477	13.01
451.681	13.11
451.885	13.12
452.089	13.09
452.292	12.8
452.496	12.98
452.7	13.21
452.904	13.28
453.107	13.32
453.311	13.18
453.515	13.24
453.719	13.17
453.922	13.2
454.126	13.22
454.33	13.1
454.533	13.16
454.737	13.22
454.94	13.07
455.144	12.98
455.348	13.07
455.551	13.27
455.755	13.42
455.958	13.66
456.162	13.42
456.365	13.39
456.569	13.19
456.772	13.3
456.976	13.4
457.179	13.43
457.383	13.24
457.586	13.23
457.79	13.18
457.993	13.07
458.196	12.88
458.4	13.03
458.603	12.92
458.807	12.94
459.01	12.95
459.213	12.89
459.417	12.89
459.62	12.93
459.823	12.86
460.026	12.77
460.23	12.63
460.433	12.51
460.636	12.54
460.839	12.65
461.042	12.59
461.246	12.53
461.449	12.57
461.652	12.56
461.855	12.62
462.058	12.65
462.261	12.91
462.464	12.94
462.668	13.06
462.871	13.12
463.074	13
463.277	13.03
463.48	13.06
463.683	13.17
463.886	13.11
464.089	13.21
464.292	13.04
464.495	12.75
464.698	12.77
464.901	12.83
465.104	12.76
465.306	12.74
465.509	12.8
465.712	12.96
465.915	12.78
466.118	12.74
466.321	12.65
466.524	12.66
466.726	12.91
466.929	13.03
467.132	12.94
467.335	13.01
467.538	13
467.74	13.06
467.943	12.85
468.146	12.93
468.348	13.05
468.551	13.11
468.754	13.18
468.956	13.19
469.159	13.07
469.362	13.25
469.564	13.21
469.767	13.38
469.969	13.59
470.172	13.62
470.375	13.65
470.577	13.72
470.78	13.64
470.982	13.67
471.185	13.6
471.387	13.79
471.59	13.72
471.792	13.7
471.995	13.73
472.197	13.51
472.399	13.61
472.602	13.42
472.804	13.24
473.007	13.33
473.209	13.39
473.411	13.44
473.614	13.58
473.816	13.49
474.018	13.41
474.22	13.39
474.423	13.54
474.625	13.53
474.827	13.77
475.03	13.76
475.232	13.73
475.434	13.78
475.636	13.61
475.838	13.55
476.04	13.53
476.243	13.6
476.445	13.49
476.647	13.58
476.849	13.61
477.051	13.41
477.253	13.64
477.455	13.63
477.657	13.56
477.859	13.57
478.061	13.34
478.263	13.41
478.465	13.25
478.667	13.3
478.869	13.04
479.071	13.09
479.273	13.08
479.475	12.99
479.677	12.97
479.879	12.97
480.081	13.02
480.283	13.1
480.485	13.01
480.686	13.3
480.888	13.3
481.09	13.38
481.292	13.25
481.494	13.29
481.695	13.17
481.897	13.09
482.099	13.08
482.301	13.11
482.502	12.99
482.704	13.03
482.906	12.88
483.107	12.86
483.309	12.79
483.511	12.74
483.712	12.73
483.914	12.69
484.115	12.68
484.317	12.67
484.519	12.61
484.72	12.63
484.922	12.57
485.123	12.54
485.325	12.56
485.526	12.6
485.728	12.61
485.929	12.57
486.131	12.56
486.332	12.58
486.534	12.63
486.735	12.64
486.936	12.69
487.138	12.73
487.339	12.76
487.541	12.7
487.742	12.69
487.943	12.72
488.144	12.73
488.346	12.8
488.547	12.83
488.748	12.74
488.95	12.72
489.151	12.65
489.352	12.72
489.553	12.75
489.755	12.79
489.956	12.78
490.157	12.82
490.358	12.85
490.559	12.83
490.76	12.89
490.961	12.92
491.163	13.03
491.364	13.12
491.565	12.96
491.766	13.01
491.967	12.98
492.168	13.03
492.369	12.96
492.57	12.99
492.771	13.05
492.972	13.01
493.173	13.08
493.374	13.11
493.575	13.13
493.776	13.22
493.976	13.3
494.177	13.42
494.378	13.52
494.579	13.71
494.78	13.92
494.981	14.06
495.182	14.25
495.382	14.25
495.583	14.32
495.784	14.34
495.985	14.52
496.185	14.48
496.386	14.41
496.587	14.47
496.788	14.5
496.988	14.38
497.189	14.39
497.39	14.26
497.59	14.22
497.791	13.98
497.992	14.03
498.192	14.07
498.393	14.06
498.593	14.22
498.794	14.2
498.994	14.4
499.195	14.25
499.395	14.25
499.596	14.36
499.796	14.37
499.997	14.6
500.197	14.66
500.398	14.68
500.598	14.62
500.799	14.63
500.999	14.73
501.199	14.57
501.4	14.81
501.6	14.77
501.801	14.87
502.001	15.13
502.201	15.12
502.402	15.08
502.602	15.15
502.802	15.43
503.002	15.59
503.203	15.69
503.403	15.67
503.603	15.71
503.803	15.9
504.003	16.01
504.204	15.96
504.404	16.32
504.604	16.52
504.804	16.76
505.004	16.76
505.204	16.67
505.404	16.6
505.604	16.82
505.804	16.83
506.005	16.82
506.205	16.71
506.405	16.91
506.605	17.01
506.805	17.22
507.005	17.21
507.204	17.28
507.404	17.28
507.604	17.55
507.804	17.71
508.004	17.9
508.204	17.98
508.404	18.2
508.604	18.22
508.804	18.15
509.003	18.09
509.203	18
509.403	18.09
509.603	18.34
509.803	18.33
510.002	18.46
510.202	18.69
510.402	18.9
510.602	18.89
510.801	19.09
511.001	19.26
511.201	19.31
511.4	19.5
511.6	19.69
511.8	19.74
511.999	19.96
512.199	19.91
512.398	19.96
512.598	19.96
512.797	20.38
512.997	20.49
513.197	20.51
513.396	20.93
513.596	21.12
513.795	21.36
513.994	21.45
514.194	21.5
514.393	21.63
514.593	21.79
514.792	22.11
514.992	22.17
515.191	22.46
515.39	22.69
515.59	22.55
515.789	22.77
515.988	22.92
516.188	23.13
516.387	23.36
516.586	23.74
516.786	23.96
516.985	24.09
517.184	24.35
517.383	24.42
517.582	24.5
517.782	24.64
517.981	24.77
518.18	24.81
518.379	25.1
518.578	25.21
518.777	25.25
518.976	25.45
519.176	25.67
519.375	25.7
519.574	25.81
519.773	26.08
519.972	26.27
520.171	26.5
520.37	26.62
520.569	26.71
520.768	26.99
520.967	27.17
521.166	27.21
521.365	27.25
521.564	27.43
521.762	27.79
521.961	27.88
522.16	28.08
522.359	28.17
522.558	28.32
522.757	28.48
522.956	28.57
523.154	28.78
523.353	29
523.552	29.23
523.751	29.37
523.949	29.36
524.148	29.51
524.347	29.75
524.546	30.01
524.744	30.34
524.943	30.46
525.142	30.65
525.34	30.85
525.539	30.98
525.737	31.07
525.936	31.27
526.135	31.37
526.333	31.56
526.532	31.59
526.73	31.72
526.929	31.82
527.127	32.08
527.326	32.22
527.524	32.27
527.723	32.32
527.921	32.48
528.12	32.55
528.318	32.61
528.516	32.73
528.715	32.82
528.913	32.83
529.112	32.92
529.31	32.89
529.508	32.9
529.707	33.05
529.905	33.13
530.103	33.2
530.301	33.28
530.5	33.48
530.698	33.51
530.896	33.65
531.094	33.88
531.293	34.03
531.491	34.25
531.689	34.57
531.887	34.62
532.085	34.88
532.283	34.95
532.481	35.08
532.68	35.17
532.878	35.33
533.076	35.45
533.274	35.45
533.472	35.5
533.67	35.51
533.868	35.5
534.066	35.64
534.264	35.6
534.462	35.69
534.66	35.78
534.858	35.84
535.056	36.03
535.253	36.13
535.451	36.22
535.649	36.39
535.847	36.67
536.045	36.77
536.243	36.89
536.441	37.21
536.638	37.32
536.836	37.33
537.034	37.47
537.232	37.46
537.43	37.45
537.627	37.55
537.825	37.68
538.023	37.5
538.22	37.69
538.418	37.74
538.616	37.76
538.813	37.86
539.011	38.13
539.209	38.2
539.406	38.36
539.604	38.6
539.801	38.76
539.999	38.73
540.196	38.93
540.394	38.86
540.591	38.86
540.789	38.8
540.986	38.81
541.184	38.88
541.381	38.9
541.579	38.88
541.776	38.9
541.974	38.88
542.171	38.84
542.368	38.9
542.566	38.9
542.763	38.87
542.96	38.97
543.158	39.07
543.355	39.03
543.552	39.06
543.75	39.16
543.947	39.14
544.144	39.22
544.341	39.46
544.539	39.54
544.736	39.67
544.933	39.78
545.13	39.67
545.327	39.65
545.524	39.66
545.722	39.77
545.919	39.7
546.116	39.77
546.313	39.67
546.51	39.68
546.707	39.66
546.904	39.56
547.101	39.5
547.298	39.77
547.495	39.84
547.692	39.9
547.889	39.84
548.086	39.87
548.283	40.13
548.48	40.43
548.677	40.3
548.874	40.35
549.07	40.48
549.267	40.67
549.464	40.49
549.661	40.44
549.858	40.6
550.055	40.89
550.251	41.01
550.448	40.85
550.645	40.76
550.842	41.03
551.038	40.94
551.235	41.13
551.432	41.32
551.628	41.5
551.825	41.64
552.022	41.78
552.218	41.54
552.415	41.47
552.612	41.55
552.808	41.49
553.005	41.34
553.201	41.26
553.398	41.36
553.594	41.39
553.791	41.41
553.987	41.47
554.184	41.28
554.38	41.43
554.577	41.6
554.773	41.63
554.97	41.74
555.166	41.99
555.362	42.1
555.559	42.08
555.755	42.21
555.952	42.22
556.148	42.27
556.344	42.25
556.541	42.24
556.737	42.28
556.933	42.31
557.129	42.38
557.326	42.31
557.522	42.59
557.718	42.62
557.914	42.27
558.11	42.35
558.307	42.22
558.503	42.32
558.699	42.45
558.895	42.48
559.091	42.46
559.287	42.7
559.483	42.84
559.679	42.74
559.876	42.58
560.072	42.81
560.268	42.9
560.464	42.91
560.66	42.84
560.856	42.94
561.052	43.04
561.247	42.97
561.443	42.63
561.639	42.46
561.835	42.7
562.031	42.72
562.227	42.65
562.423	42.55
562.619	42.68
562.815	42.83
563.01	43.14
563.206	43.13
563.402	43.02
563.598	43.2
563.793	43.44
563.989	43.31
564.185	43.36
564.381	43.32
564.576	43.58
564.772	43.49
564.968	43.46
565.163	43.09
565.359	42.86
565.555	43.05
565.75	43.04
565.946	42.76
566.141	42.86
566.337	42.9
566.532	43.22
566.728	43.07
566.923	42.94
567.119	42.96
567.314	43.08
567.51	43.19
567.705	43.11
567.901	43.25
568.096	43.34
568.292	43.41
568.487	43.56
568.682	43.43
568.878	43.42
569.073	43.58
569.268	43.64
569.464	43.55
569.659	43.66
569.854	43.81
570.05	43.63
570.245	44.11
570.44	44.01
570.635	43.97
570.831	43.83
571.026	43.87
571.221	44.2
571.416	44.14
571.611	43.92
571.806	43.9
572.002	43.89
572.197	43.91
572.392	43.49
572.587	43.47
572.782	43.35
572.977	43.42
573.172	43.32
573.367	43.06
573.562	43.19
573.757	43.34
573.952	43.22
574.147	43.1
574.342	43.11
574.537	43.25
574.732	43.12
574.927	43.26
575.121	43.28
575.316	43.37
575.511	43.25
575.706	43.11
575.901	43.21
576.096	43.29
576.29	43.41
576.485	43.57
576.68	43.48
576.875	43.59
577.069	43.61
577.264	43.58
577.459	43.74
577.654	44.07
577.848	44.09
578.043	44.18
578.238	44.49
578.432	44.15
578.627	43.89
578.821	44.19
579.016	44.36
579.21	44.56
579.405	44.49
579.6	44.43
579.794	44.59
579.989	44.58
580.183	44.82
580.378	44.51
580.572	45.09
580.766	45.21
580.961	44.91
581.155	44.73
581.35	44.51
581.544	44.72
581.738	44.79
581.933	44.44
582.127	44.85
582.321	44.42
582.516	44.49
582.71	44.22
582.904	44.22
583.099	44.34
583.293	44.57
583.487	44.49
583.681	44.83
583.875	44.95
584.07	45.25
584.264	45.01
584.458	45.14
584.652	45.26
584.846	45.45
585.04	45.56
585.234	45.5
585.428	45.21
585.623	45.47
585.817	45.17
586.011	44.79
586.205	44.51
586.399	44.55
586.593	44.46
586.787	44.57
586.981	44.43
587.174	44.52
587.368	44.81
587.562	45.02
587.756	44.86
587.95	44.83
588.144	45.13
588.338	45.25
588.532	45.19
588.725	45.53
588.919	45.52
589.113	45.71
589.307	45.74
589.501	45.52
589.694	45.75
589.888	45.85
590.082	45.9
590.275	45.73
590.469	45.99
590.663	46.08
590.856	45.77
591.05	45.74
591.244	45.32
591.437	45.64
591.631	45.7
591.824	45.36
592.018	45.33
592.212	45.56
592.405	45.53
592.599	45.3
592.792	45.06
592.986	45
593.179	44.87
593.372	45.28
593.566	44.71
593.759	44.63
593.953	44.86
594.146	44.86
594.339	45
594.533	45.11
594.726	44.97
594.92	45.26
595.113	45.36
595.306	45.24
595.499	45.26
595.693	45.69
595.886	45.95
596.079	45.99
596.272	46.09
596.466	45.62
596.659	45.67
596.852	46
597.045	45.83
597.238	45.78
597.431	45.79
597.624	45.97
597.818	45.7
598.011	45.62
598.204	45.52
598.397	45.43
598.59	45.61
598.783	45.59
598.976	45.52
599.169	45.64
599.362	45.8
599.555	46.03
599.748	45.89
599.941	46.16
600.134	46.29
600.326	46.53
600.519	46.72
600.712	46.97
600.905	47.01
601.098	46.91
601.291	46.75
601.483	46.9
601.676	46.6
601.869	46.54
602.062	46.32
602.255	46.29
602.447	46
602.64	45.99
602.833	45.58
603.025	45.67
603.218	45.48
603.411	45.65
603.603	45.55
603.796	45.81
603.989	45.53
604.181	45.63
604.374	45.63
604.566	45.87
604.759	45.68
604.951	45.72
605.144	45.67
605.336	46.02
605.529	46.08
605.721	46.13
605.914	46.15
606.106	46.42
606.299	46.49
606.491	46.57
606.683	46.36
606.876	46.47
607.068	46.85
607.26	46.97
607.453	46.7
607.645	46.58
607.837	46.68
608.03	46.76
608.222	46.59
608.414	46.65
608.606	46.52
608.799	46.91
608.991	47.16
609.183	47.01
609.375	47.1
609.567	47.33
609.759	47.64
609.952	47.6
610.144	47.68
610.336	47.92
610.528	47.95
610.72	48.08
610.912	48.08
611.104	48.14
611.296	48.3
611.488	48.32
611.68	48.41
611.872	48
612.064	48.32
612.256	48.33
612.448	48.43
612.64	48.34
612.832	48.37
613.023	48.3
613.215	48.26
613.407	47.83
613.599	47.73
613.791	47.75
613.983	47.83
614.174	47.36
614.366	47.35
614.558	47.23
614.75	47.53
614.941	47.42
615.133	47.26
615.325	47.19
615.516	47.76
615.708	47.68
615.9	47.5
616.091	47.42
616.283	47.62
616.475	47.38
616.666	47.34
616.858	47.47
617.049	47.3
617.241	47.39
617.432	47.06
617.624	47.14
617.815	46.9
618.007	47.13
618.198	47.42
618.39	47.29
618.581	47.48
618.773	47.34
618.964	46.75
619.155	46.75
619.347	46.52
619.538	46.79
619.729	46.37
619.921	46.5
620.112	46.35
620.303	46.24
620.494	46.26
620.686	46.26
620.877	46.42
621.068	46.63
621.259	46.45
621.451	46.6
621.642	46.38
621.833	46.66
622.024	46.81
622.215	46.69
622.406	46.7
622.597	46.62
622.788	46.54
622.98	46.78
623.171	46.44
623.362	47.03
623.553	47.37
623.744	47.58
623.935	47.34
624.126	47.06
624.317	47.15
624.508	47.21
624.698	47.11
624.889	47.19
625.08	47.43
625.271	47.97
625.462	47.81
625.653	47.42
625.844	47.32
626.034	47.33
626.225	47.63
626.416	47.34
626.607	47.35
626.798	47.61
626.988	47.33
627.179	47.29
627.37	46.87
627.56	46.92
627.751	47.22
627.942	47.49
628.132	47.64
628.323	47.39
628.514	47.68
628.704	47.56
628.895	47.59
629.085	47.67
629.276	47.43
629.466	47.73
629.657	47.6
629.847	47.23
630.038	47.43
630.228	47.12
630.419	47.57
630.609	47.73
630.8	47.84
630.99	47.83
631.181	48.23
631.371	48.27
631.561	48.13
631.752	48.21
631.942	48.43
632.132	48.05
632.323	48.28
632.513	48.08
632.703	47.6
632.893	47.71
633.084	47.41
633.274	47.3
633.464	47.11
633.654	47.17
633.844	47.13
634.034	47
634.225	46.87
634.415	46.83
634.605	46.85
634.795	47.03
634.985	47.09
635.175	47.39
635.365	47.48
635.555	47.62
635.745	47.48
635.935	47.83
636.125	47.96
636.315	48.38
636.505	48.17
636.695	48.12
636.885	48.12
637.075	48.27
637.265	48.01
637.455	48.27
637.644	48.26
637.834	48.43
638.024	48.05
638.214	48.09
638.404	47.55
638.593	47.77
638.783	47.56
638.973	47.84
639.163	47.59
639.352	47.61
639.542	47.06
639.732	47.18
639.921	47.05
640.111	47.55
640.301	47.52
640.49	47.9
640.68	48.21
640.87	48.28
641.059	48.02
641.249	48.14
641.438	47.96
641.628	48.26
641.817	48.28
642.007	48.52
642.196	48.22
642.386	48.36
642.575	48.44
642.764	48.03
642.954	48.06
643.143	48.08
643.333	48.25
643.522	48.68
643.711	48.05
643.901	47.8
644.09	47.93
644.279	48.13
644.469	47.84
644.658	47.82
644.847	47.85
645.036	48.27
645.226	48.41
645.415	48.05
645.604	47.88
645.793	48.25
645.982	48.16
646.171	47.93
646.361	47.55
646.55	48
646.739	47.84
646.928	47.98
647.117	47.72
647.306	47.64
647.495	47.52
647.684	47.42
647.873	47.7
648.062	47.65
648.251	47.55
648.44	48.02
648.629	47.8
648.818	48.01
649.007	47.92
649.196	47.83
649.384	47.37
649.573	47.65
649.762	47.58
649.951	47.33
650.14	48.01
650.328	48.32
650.517	47.67
650.706	47.97
650.895	48.01
651.083	48.49
651.272	48.69
651.461	49.22
651.65	49.37
651.838	49.5
652.027	49.51
652.216	49.29
652.404	48.67
652.593	49.22
652.781	48.88
652.97	48.79
653.158	48.38
653.347	48.17
653.535	47.76
653.724	47.54
653.912	47.81
654.101	47.69
654.289	47.82
654.478	48.67
654.666	48.05
654.855	48.1
655.043	47.78
655.231	47.84
655.42	48.41
655.608	49.07
655.796	49.5
655.985	49.59
656.173	49.64
656.361	49.29
656.55	48.7
656.738	49.36
656.926	49.41
657.114	49.85
657.302	50.28
657.491	50.02
657.679	49.69
657.867	49.54
658.055	49.13
658.243	49.19
658.431	49.33
658.619	49.61
658.807	49.55
658.996	48.99
659.184	48.62
659.372	48.24
659.56	48.11
659.748	47.73
659.936	47.54
660.124	47.38
660.311	47.48
660.499	47.4
660.687	47.13
660.875	46.87
661.063	47.39
661.251	47.71
661.439	47.99
661.627	48.32
661.814	48.9
662.002	48.56
662.19	49.11
662.378	49.09
662.565	49.35
662.753	49.63
662.941	50.21
663.129	49.7
663.316	49.73
663.504	49.44
663.692	48.92
663.879	48.92
664.067	48.83
664.254	48.55
664.442	48.45
664.63	48.5
664.817	48.67
665.005	48.39
665.192	49.4
665.38	49.42
665.567	49.24
665.755	49.45
665.942	49.23
666.13	49.95
666.317	50.12
666.504	50.17
666.692	49.89
666.879	50.02
667.067	50.11
667.254	49.66
667.441	49.67
667.629	49.82
667.816	49.81
668.003	49.94
668.19	49.98
668.378	50.31
668.565	50.51
668.752	50.62
668.939	50.44
669.127	50.11
669.314	49.92
669.501	50.19
669.688	50.31
669.875	50.49
670.062	50.8
670.249	50.56
670.436	50.33
670.623	50.25
670.81	49.88
670.997	49.57
671.184	49.49
671.371	50.22
671.558	49.35
671.745	49.32
671.932	48.84
672.119	48.76
672.306	48.85
672.493	48.61
672.68	48.71
672.867	49.6
673.054	49.63
673.24	49.71
673.427	48.87
673.614	49.21
673.801	49.54
673.988	50.01
674.174	50.19
674.361	50.1
674.548	49.79
674.734	49.35
674.921	48.36
675.108	48.7
675.294	48.47
675.481	48.23
675.668	48.26
675.854	47.92
676.041	48
676.227	47.65
676.414	48.03
676.601	48.88
676.787	48.92
676.974	49.58
677.16	49.62
677.347	50.58
677.533	51.16
677.719	51.45
677.906	51.53
678.092	51.58
678.279	51.28
678.465	50.96
678.651	50.62
678.838	50.74
679.024	50.33
679.21	50.04
679.397	49.53
679.583	49.26
679.769	48.58
679.955	48.49
680.142	48.39
680.328	48.74
680.514	48.69
680.7	48.72
680.886	48.82
681.073	48.87
681.259	48.95
681.445	48.59
681.631	48.67
681.817	49.03
682.003	48.81
682.189	48.36
682.375	48.25
682.561	48.49
682.747	48.1
682.933	48.45
683.119	48.36
683.305	48.57
683.491	48.88
683.677	49.41
683.863	49.91
684.049	50.35
684.235	50.93
684.42	50.79
684.606	50.21
684.792	51.24
684.978	51.17
685.164	50.93
685.349	50.71
685.535	50.75
685.721	50
685.907	49.7
686.092	49.51
686.278	49.32
686.464	49.35
686.649	49.96
686.835	49.12
687.021	49.05
687.206	49.62
687.392	49.66
687.577	49.76
687.763	50.04
687.948	50.31
688.134	50.14
688.319	50.66
688.505	50.82
688.69	50.62
688.876	50.78
689.061	50.54
689.247	50.1
689.432	49.95
689.618	49.54
689.803	49.67
689.988	49.77
690.174	50.27
690.359	49.83
690.544	50.07
690.73	49.98
690.915	50.24
691.1	49.83
691.285	50.46
691.471	50.43
691.656	50.34
691.841	50.19
692.026	49.72
692.211	49.25
692.396	49.14
692.582	49.3
692.767	49.61
692.952	49.85
693.137	49.9
693.322	49.78
693.507	50.28
693.692	50.59
693.877	50.49
694.062	50.66
694.247	51.3
694.432	51.2
694.617	51.14
694.802	51.3
694.987	51.16
695.172	51.56
695.357	51.3
695.541	51.05
695.726	51.65
695.911	52.26
696.096	51.98
696.281	51.85
696.466	51.67
696.65	51.52
696.835	51.06
697.02	50.03
697.204	50.12
697.389	50.28
697.574	50.12
697.759	49.44
697.943	49.01
698.128	49.25
698.312	48.87
698.497	48.59
698.682	48.56
698.866	48.88
699.051	49.55
699.235	49.44
699.42	49.39
699.604	49.39
699.789	49.41
699.973	49.4
700.158	49
700.342	49.36
700.527	50.15
700.711	50.12
700.895	49.95
701.08	49.85
701.264	49.89
701.448	49.58
701.633	50.05
701.817	50.9
702.001	51.59
702.186	52.14
702.37	51.91
702.554	51.94
702.738	52.17
702.923	52.55
703.107	51.7
703.291	52.23
703.475	52.18
703.659	51.83
703.843	50.8
704.027	49.91
704.212	49.62
704.396	50.41
704.58	50.1
704.764	49.77
704.948	49.12
705.132	49.89
705.316	49.6
705.5	50.05
705.684	50.17
705.868	50.95
706.052	51.32
706.235	52.09
706.419	51.31
706.603	51.28
706.787	50.55
706.971	50.48
707.155	50.5
707.339	49.83
707.522	50.57
707.706	50.43
707.89	50.52
708.074	50.8
708.257	50.38
708.441	50.67
708.625	50.49
708.808	51.44
708.992	51.63
709.176	51.82
709.359	52.72
709.543	52.19
709.727	52.85
709.91	52.25
710.094	51.63
710.277	52.41
710.461	52.75
710.644	53.41
710.828	53.47
711.011	53.07
711.195	52.71
711.378	52.36
711.562	51.63
711.745	51.06
711.928	51.03
712.112	51.25
712.295	50.29
712.478	49.63
712.662	50.08
712.845	49.96
713.028	49.97
713.212	50.92
713.395	50.58
713.578	50.79
713.761	50.97
713.945	51.22
714.128	52.32
714.311	52.4
714.494	51.96
714.677	50.98
714.86	50.65
715.043	51.19
715.227	50.46
715.41	50.68
715.593	51.27
715.776	51.21
715.959	51
716.142	50.2
716.325	50.22
716.508	50.72
716.691	50.71
716.874	50.81
717.057	50.66
717.239	50.99
717.422	50.91
717.605	50.5
717.788	50.6
717.971	51.87
718.154	52
718.337	52.41
718.519	52.24
718.702	53.13
718.885	52.42
719.068	52.92
719.25	53.6
719.433	54.2
719.616	54.67
719.798	54.68
719.981	53.58
720.164	53.56
720.346	52.57
720.529	53.38
720.712	52.38
720.894	53.68
721.077	52.47
721.259	52.27
721.442	52.12
721.624	52.59
721.807	52.28
721.989	52.13
722.172	51.83
722.354	53.33
722.537	52.9
722.719	53.34
722.901	54.26
723.084	54.69
723.266	53.73
723.448	53.7
723.631	53.28
723.813	53.64
723.995	53.32
724.178	53.97
724.36	52.86
724.542	52.71
724.724	52.75
724.907	52.48
725.089	53.3
725.271	53.5
725.453	53.41
725.635	53.2
725.817	53.01
725.999	54.38
726.181	54.22
726.364	55.25
726.546	55.69
726.728	55.42
726.91	54.72
727.092	54.2
727.274	54.52
727.456	54.95
727.638	54.66
727.819	55.01
728.001	53.91
728.183	53.99
728.365	53.87
728.547	53.48
728.729	54.55
728.911	55.29
729.093	56.07
729.274	54.82
729.456	54.54
729.638	54.27
729.82	54.32
730.001	54.92
730.183	54.45
730.365	53.64
730.546	53.82
730.728	52.83
730.91	51.88
731.091	51.36
731.273	52.14
731.455	52.47
731.636	53.48
731.818	53.07
731.999	52.55
732.181	52.84
732.362	52.44
732.544	52.84
732.725	52.28
732.907	52.2
733.088	51.74
733.27	52.93
733.451	52.27
733.633	51.21
733.814	51.97
733.995	52.16
734.177	52.62
734.358	53.4
734.539	52.67
734.721	53.36
734.902	54.13
735.083	54.86
735.264	54.02
735.446	55.5
735.627	56.09
735.808	54.92
735.989	55.06
736.17	54.74
736.351	55.08
736.533	55.79
736.714	55.8
736.895	54.59
737.076	53.51
737.257	54.07
737.438	52.38
737.619	53.8
737.8	54.22
737.981	54.33
738.162	54.38
738.343	54.39
738.524	53.26
738.705	55.41
738.886	55.79
739.067	57.16
739.247	56.24
739.428	56.79
739.609	55.02
739.79	56.23
739.971	55.88
740.151	56.07
740.332	55.58
740.513	57.25
740.694	54.86
740.874	54.33
741.055	53.22
741.236	54.18
741.417	53.89
741.597	54.22
741.778	53.7
741.958	53.45
742.139	52.97
742.32	52.29
742.5	51.95
742.681	52.86
742.861	54.14
743.042	54.02
743.222	53.75
743.403	55.25
743.583	55.62
743.764	56.3
743.944	57.93
744.124	58.81
744.305	60.7
744.485	59.12
744.666	59.19
744.846	59.2
745.026	60.81
745.207	60.45
745.387	59.82
745.567	58.84
745.747	57.75
745.928	56.38
746.108	56.1
746.288	55.09
746.468	57.09
746.648	57.52
746.829	57.22
747.009	56.93
747.189	57.17
747.369	57.18
747.549	57.77
747.729	58.68
747.909	58.73
748.089	58.64
748.269	58.39
748.449	57.66
748.629	57.94
748.809	57.84
748.989	57.82
749.169	56.88
749.349	56.71
749.529	57.87
749.709	57.15
749.889	57.38
750.068	57.09
750.248	57.56
750.428	57.76
750.608	57.2
750.788	58.02
750.967	56.77
751.147	56.41
751.327	56.75
751.507	56.49
751.686	56.12
751.866	57.12
752.046	57.29
752.225	56.67
752.405	56.69
752.585	55.91
752.764	55.19
752.944	54.99
753.123	56.47
753.303	55.52
753.482	54.69
753.662	55.88
753.841	54.04
754.021	54.08
754.2	54.46
754.38	55.08
754.559	55.78
754.739	56.04
754.918	57.44
755.097	56.18
755.277	54.19
755.456	54.82
755.635	54.72
755.815	55.6
755.994	55.63
756.173	54.56
756.352	52.85
756.532	52.59
756.711	51.33
756.89	50.28
757.069	51.15
757.248	52.73
757.427	51.73
757.607	49.77
757.786	49.94
757.965	49.07
758.144	50.16
758.323	52.11
758.502	51.83
758.681	52.62
758.86	53.52
759.039	51.98
759.218	52.72
759.397	53.43
759.576	53.63
759.755	53.09
759.934	53.34
760.113	53.06
760.291	52.06
760.47	52.41
760.649	53.58
760.828	53.17
761.007	53.31
761.186	53.5
761.364	52.67
761.543	52.9
761.722	53.06
761.901	52.55
762.079	52.51
762.258	51.77
762.437	51.45
762.615	50.29
762.794	50.29
762.972	51.06
763.151	49.45
763.33	49.54
763.508	49.94
763.687	50.32
763.865	51.29
764.044	51.37
764.222	51.33
764.401	51.26
764.579	51.3
764.758	50.88
764.936	51.43
765.114	52.87
765.293	54.23
765.471	54.22
765.65	53.8
765.828	53.65
766.006	53.75
766.184	54.59
766.363	54.97
766.541	55.51
766.719	55.46
766.898	55.11
767.076	55.44
767.254	54.4
767.432	55.37
767.61	55.28
767.788	54.5
767.967	53.81
768.145	53.16
768.323	52.74
768.501	52.1
768.679	53.22
768.857	53.69
769.035	55.06
769.213	56.3
769.391	56.58
769.569	57.82
769.747	59.1
769.925	58.77
770.103	59.61
770.281	59.11
770.459	60.05
770.636	59.78
770.814	59.09
770.992	57.02
771.17	55.99
771.348	53.79
771.525	54.09
771.703	53.66
771.881	54.5
772.059	55.55
772.236	55.69
772.414	55.27
772.592	55.96
772.769	56.09
772.947	55.92
773.125	56.91
773.302	59.8
773.48	59.64
773.657	59.03
773.835	57.55
774.013	56.11
774.19	58.13
774.368	58.46
774.545	58.89
774.723	60.61
774.9	61.58
775.077	59.7
775.255	58.44
775.432	59.22
775.61	58.99
775.787	60.59
775.964	61.56
776.142	58.7
776.319	57.82
776.496	56.95
776.674	54.06
776.851	55.01
777.028	57.01
777.205	56.68
777.382	56.65
777.56	59.03
777.737	63.22
777.914	62.19
778.091	64.87
778.268	63.31
778.445	65.26
778.622	66.13
778.8	64.58
778.977	65.02
779.154	69.44
779.331	66.7
779.508	62.44
779.685	59.49
779.862	61.4
780.038	61.1
780.215	64.79
780.392	62.6
780.569	64.21
780.746	65.73
780.923	65.08
781.1	60.36
781.277	59.61
781.453	60.53
781.63	58.49
781.807	58.1
781.984	58.69
782.16	57.6
782.337	60.74
782.514	59.58
782.691	58.5
782.867	58.76
783.044	60.59
783.221	63.64
783.397	65.69
783.574	67.11
783.75	65.91
783.927	65.26
784.103	65.94
784.28	63.29
784.456	63.72
784.633	65.46
784.809	66.36
784.986	61.78
785.162	62.67
785.339	61.83
785.515	60.84
785.692	61.07
785.868	61.01
786.044	60.7
786.221	61.73
786.397	64.24
786.573	62.27
786.749	60.39
786.926	62.73
787.102	61.69
787.278	61.66
787.454	63.61
787.631	63.4
787.807	62.13
787.983	62.99
788.159	62.35
788.335	60.43
788.511	62.38
788.687	62.54
788.863	63.74
789.039	62.71
789.216	61.83
789.392	60.83
789.568	60.72
789.744	62.09
789.919	60.04
790.095	58.1
790.271	57.65
790.447	56.67
790.623	55.75
790.799	54.64
790.975	55.26
791.151	57.85
791.327	58.28
791.502	57.84
791.678	58.28
791.854	60.65
792.03	61.11
792.205	61.89
792.381	59.98
792.557	60.53
792.733	61.82
792.908	62.6
793.084	59.46
793.259	57.96
793.435	59.26
793.611	58.11
793.786	56.63
793.962	56.8
794.137	57.22
794.313	58.48
794.488	60.77
794.664	60.86
794.839	59.66
795.015	59.91
795.19	59.49
795.366	60.18
795.541	61.8
795.716	60.75
795.892	62.96
796.067	63.38
796.242	63.46
796.418	61.93
796.593	60.26
796.768	59.95
796.944	62.31
797.119	61.62
797.294	62.55
797.469	62.86
797.644	62.01
797.82	61.92
797.995	59.21
798.17	58.1
798.345	56.77
798.52	58.05
798.695	57.84
798.87	54.74
799.045	57.32
799.22	53.41
799.395	53.95
799.57	56.37
799.745	55.56
799.92	56.33
800.095	56.17
800.27	56.84
800.445	57.4
800.62	57.57
800.795	59.41
800.97	60.15
801.145	61.72
801.319	58.57
801.494	56.44
801.669	58.83
801.844	59.97
802.018	59.9
802.193	61.12
802.368	59.44
802.543	61.2
802.717	65.19
802.892	66.6
803.067	67.18
803.241	68.1
803.416	67.63
803.59	68.29
803.765	67.18
803.94	70.78
804.114	66.6
804.289	67.72
804.463	65.05
804.638	60.37
804.812	56.23
804.986	55.28
805.161	55.78
805.335	59.57
805.51	56.05
805.684	55.75
805.858	53.68
806.033	56.43
806.207	55.18
806.381	59.71
806.556	62.02
806.73	65.86
806.904	65.75
807.078	67.49
807.253	65.8
807.427	65.42
807.601	65.79
807.775	66.9
807.949	69.77
808.123	69.48
808.298	66.95
808.472	64.48
808.646	61.97
808.82	60.28
808.994	57.69
809.168	56.66
809.342	58.09
809.516	59.39
809.69	60.44
809.864	56.89
810.038	59.15
810.212	59.76
810.385	62.29
810.559	62.46
810.733	62.81
810.907	64.62
811.081	64.2
811.255	65.91
811.428	66.28
811.602	64.01
811.776	67.98
811.95	67.03
812.123	65.35
812.297	62.45
812.471	65.15
812.644	66.88
812.818	63.54
812.992	65.83
813.165	63.78
813.339	63.44
813.512	61.46
813.686	60.8
813.86	58.14
814.033	59.51
814.207	61.46
814.38	59.7
814.554	61.72
814.727	65.26
814.9	64.42
815.074	63.91
815.247	60.59
815.421	59.47
815.594	58.11
815.767	61.15
815.941	55.84
816.114	57.52
816.287	58.11
816.46	57.21
816.634	56.98
816.807	59.72
816.98	59.74
817.153	64.48
817.327	69.52
817.5	69.68
817.673	70.82
817.846	73.63
818.019	75.57
818.192	77.32
818.365	75.33
818.538	75.68
818.711	73.38
818.884	70.33
819.057	69.03
819.23	65.59
819.403	65.29
819.576	64.19
819.749	65.59
819.922	63.3
820.095	62.4
820.268	61.9
820.441	61.4
820.614	61.35
820.786	61.94
820.959	61.24
821.132	58.9
821.305	55.81
821.477	54.28
821.65	53.15
821.823	52.75
821.996	52.6
822.168	52.76
822.341	52.11
822.514	51.88
822.686	51.65
822.859	50.74
823.031	50.93
823.204	51.68
823.376	51.42
823.549	51.68
823.722	51.24
823.894	50.94
824.067	50.93
824.239	50.03
824.411	49.08
824.584	49.44
824.756	49.83
824.929	50.46
825.101	49.91
825.273	50.68
825.446	50.97
825.618	50.96
825.79	50.49
825.963	49.9
826.135	51.04
826.307	52.33
826.479	51.69
826.652	51.94
826.824	52.08
826.996	52.51
827.168	51.83
827.34	51.52
827.512	52.17
827.684	52.8
827.856	53.51
828.029	52.52
828.201	51.74
828.373	52.19
828.545	50.87
828.717	51.09
828.889	51.33
829.061	53.26
829.232	52.95
829.404	52.25
829.576	51.69
829.748	52.16
829.92	55.25
830.092	56.73
830.264	57.31
830.436	58.29
830.607	57.65
830.779	58.87
830.951	56.95
831.123	58.61
831.294	59.55
831.466	61.52
831.638	61.26
831.809	59.04
831.981	58.47
832.153	58.64
832.324	59.76
832.496	58.73
832.667	61.88
832.839	65.71
833.011	62.16
833.182	63.21
833.354	58.88
833.525	59.69
833.697	57.22
833.868	56.79
834.039	57.12
834.211	57.16
834.382	58.33
834.554	55.49
834.725	54.15
834.896	54.06
835.068	54.73
835.239	57.58
835.41	58.76
835.581	60.28
835.753	60.9
835.924	61.35
836.095	61.53
836.266	62.49
836.438	62.8
836.609	62.41
836.78	62.74
836.951	62.87
837.122	63.22
837.293	61.6
837.464	63.75
837.635	64.33
837.806	61.15
837.977	61.86
838.148	63.2
838.319	62.44
838.49	61.94
838.661	63.25
838.832	64.79
839.003	63.65
839.174	63.59
839.345	65.33
839.516	65.7
839.687	72.46
839.857	72.14
840.028	75.22
840.199	76.67
840.37	81.51
840.54	85.74
840.711	82.62
840.882	85.35
841.053	83.75
841.223	81.35
841.394	85.91
841.564	88.06
841.735	92.02
841.906	87
842.076	87.62
842.247	83.29
842.417	78.58
842.588	78.41
842.758	77.35
842.929	77.68
843.099	80.92
843.27	78.62
843.44	79.28
843.611	77.91
843.781	77.04
843.951	82.41
844.122	81.2
844.292	76.49
844.462	78.65
844.633	76.92
844.803	77.75
844.973	74.87
845.144	73.67
845.314	68.4
845.484	76.11
845.654	73.93
845.824	70.58
845.995	70.84
846.165	78.93
846.335	80.07
846.505	84.2
846.675	90.18
846.845	87.54
847.015	101.72
847.185	110.54
847.355	92.58
847.525	102.68
847.695	109.27
847.865	123.31
848.035	117
848.205	105.42
848.375	97.46
848.545	95.63
848.715	97.41
848.884	84.57
849.054	82.29
849.224	82.5
849.394	79.96
849.564	78.41
849.733	78.33
849.903	78.93
850.073	79.54
850.243	87.37
850.412	96.72
850.582	95.42
850.752	98.26
850.921	92.25
851.091	105.99
851.26	109.28
851.43	99.64
851.599	97.66
851.769	94.7
851.939	107.39
852.108	98.67
852.278	97.16
852.447	113.69
852.616	121.2
852.786	112.72
852.955	108.84
853.125	100.82
853.294	110.3
853.463	110.36
853.633	118.33
853.802	130.05
853.971	162.28
854.141	153.95
854.31	146.19
854.479	136.98
854.648	174.08
854.818	157.52
854.987	170.38
855.156	164.74
855.325	172.92
855.494	180.03
855.663	156.03
855.832	139.05
856.001	128.28
856.171	129.24
856.34	142.36
856.509	142.05
856.678	166.54
856.847	159.44
857.016	145.53
857.185	126.58
857.353	118.84
857.522	129.82
857.691	114.44
857.86	117.72
858.029	118.42
858.198	120
858.367	126.66
858.535	113.72
858.704	122.71
858.873	132.39
859.042	133.98
859.21	150.25
859.379	129.95
859.548	134.28
859.717	136.78
859.885	124.9
860.054	114.24
860.222	99.05
860.391	97.96
860.56	101.67
860.728	99.95
860.897	102.71
861.065	96.49
861.234	94.74
861.402	94.04
861.571	92.1
861.739	94.73
861.908	98.03
862.076	104.36
862.244	103.36
862.413	100.24
862.581	105.18
862.749	99.12
862.918	91.74
863.086	97.81
863.254	101.37
863.423	106.72
863.591	94.57
863.759	89.35
863.927	85.69
864.096	89.69
864.264	82.12
864.432	77.45
864.6	93.1
864.768	99.32
864.936	97.43
865.104	102.19
865.272	101.01
865.44	114.84
865.608	112.08
865.776	113.1
865.944	114.36
866.112	120.4
866.28	124.57
866.448	117.47
866.616	134.35
866.784	128.11
866.952	112.84
867.12	125.93
867.288	129.91
867.455	142.87
867.623	139.65
867.791	148.98
867.959	155.57
868.127	146.26
868.294	115.63
868.462	91.51
868.63	97.95
868.797	118.7
868.965	89.96
869.133	80.21
869.3	85.01
869.468	107.23
869.636	90.1
869.803	86.68
869.971	86.5
870.138	97.62
870.306	100.68
870.473	103.17
870.641	99.74
870.808	102.07
870.975	104.68
871.143	95.08
871.31	83.44
871.478	79.77
871.645	78.12
871.812	90.2
871.98	93.64
872.147	86.91
872.314	74.76
872.482	63.81
872.649	61.54
872.816	70.3
872.983	83.02
873.15	91.23
873.318	96.65
873.485	114.75
873.652	100.98
873.819	104.45
873.986	121.29
874.153	133.37
874.32	170.71
874.487	204.89
874.654	218.27
874.821	212.7
874.988	184.93
875.155	203.38
875.322	157.02
875.489	193.07
875.656	175.72
875.823	154.12
875.99	129.39
876.157	95.33
876.324	91.09
876.49	86.44
876.657	91.2
876.824	91.01
876.991	84.65
877.157	85.56
877.324	84.42
877.491	88.5
877.658	86.13
877.824	90.36
877.991	90.35
878.157	90.34
878.324	92.23
878.491	88.92
878.657	87.68
878.824	96.37
878.99	91.56
879.157	91.84
879.323	89.76
879.49	92.81
879.656	93.36
879.823	104.51
879.989	101.65
880.156	98.53
880.322	99.33
880.488	103.81
880.655	94.71
880.821	100.27
880.987	100.43
881.154	96.95
881.32	100.58
881.486	93.89
881.652	82.96
881.819	79.92
881.985	79.27
882.151	76.54
882.317	70.99
882.483	70.81
882.649	67.87
882.816	64.28
882.982	64.29
883.148	58.76
883.314	56.47
883.48	56.62
883.646	56.6
883.812	56.67
883.978	57.52
884.144	59.34
884.31	59.9
884.476	58.65
884.642	57.78
884.807	57.06
884.973	57.88
885.139	59.02
885.305	58.99
885.471	56.48
885.637	56.88
885.802	54.86
885.968	55.02
886.134	55.44
886.3	57.21
886.465	59.14
886.631	60.88
886.797	64.01
886.962	68.28
887.128	71.98
887.293	79.6
887.459	75.48
887.625	79.99
887.79	85.52
887.956	85.12
888.121	85.9
888.287	89.79
888.452	91.28
888.618	92.07
888.783	86.61
