Data from CB_048_Reflection_1.txt Node
Date: Wed Nov 11 22:29:02 EST 2015
User: robert
Spectrometer: USB4E03001
Autoset integration time: false
Trigger mode: 4
Integration Time (sec): 1.000000E-1
Scans to average: 15
Electric dark correction enabled: true
Nonlinearity correction enabled: false
Boxcar width: 5
Stray light correction enabled: false
XAxis mode: Wavelengths
Stop averaging: false
Number of Pixels in Spectrum: 3648
>>>>>Begin Spectral Data<<<<<
177.566	-122.9
177.785	-1354.61
178.005	262.47
178.225	833.79
178.445	2.76
178.665	41.92
178.885	200.27
179.105	4.72
179.324	153.03
179.544	137.79
179.764	163.86
179.984	121.08
180.204	121.08
180.423	195.72
180.643	147.99
180.863	142.79
181.083	145.27
181.302	136.63
181.522	132.83
181.742	114.95
181.961	139.13
182.181	130.28
182.401	133.52
182.621	144.64
182.84	123.71
183.06	129.8
183.279	122.08
183.499	125.55
183.719	156.07
183.938	174.82
184.158	192.03
184.377	157.86
184.597	169.53
184.816	211.27
185.036	160.55
185.256	164.97
185.475	169.35
185.695	200.37
185.914	216.7
186.134	207.38
186.353	161.55
186.572	129.5
186.792	163.95
187.011	158.57
187.231	131.52
187.45	159.91
187.67	144.95
187.889	106.6
188.108	87.17
188.328	90.16
188.547	67.15
188.766	100.75
188.986	110.65
189.205	72.28
189.424	69.95
189.644	54.28
189.863	72.36
190.082	93.36
190.302	103.86
190.521	117.4
190.74	110.27
190.959	127.77
191.178	105.33
191.398	96.3
191.617	119.34
191.836	120.32
192.055	109.4
192.274	114.93
192.494	99.27
192.713	120.37
192.932	137.53
193.151	148.33
193.37	140.96
193.589	137.86
193.808	148.39
194.027	139.1
194.246	130.86
194.465	142.61
194.685	134.44
194.904	139.04
195.123	109.96
195.342	83.06
195.561	97.98
195.78	106.37
195.999	126.02
196.218	131.73
196.436	110.88
196.655	147.38
196.874	152.16
197.093	125.54
197.312	108.8
197.531	115.92
197.75	99.85
197.969	115.98
198.188	98.82
198.407	106.17
198.625	91.69
198.844	108.86
199.063	89.56
199.282	82.15
199.501	98.61
199.719	103.63
199.938	125.79
200.157	223.39
200.376	125.47
200.594	177.87
200.813	128.15
201.032	148.9
201.251	227.05
201.469	219.49
201.688	221.55
201.907	174.19
202.125	130.16
202.344	116.4
202.563	135.13
202.781	135.74
203	126.22
203.218	124.56
203.437	138.37
203.656	100.22
203.874	89.92
204.093	76.37
204.311	83.2
204.53	117.52
204.748	130.31
204.967	108.75
205.185	114.58
205.404	118.63
205.622	139.72
205.841	108.06
206.059	97.18
206.278	108.16
206.496	113.5
206.715	94.67
206.933	93.32
207.151	91.81
207.37	82.87
207.588	82.68
207.806	70.2
208.025	69.06
208.243	74.19
208.461	87.22
208.68	86.81
208.898	87.64
209.116	99.59
209.335	106.32
209.553	93.66
209.771	106.31
209.989	107.39
210.208	136.91
210.426	142.39
210.644	155.09
210.862	178.19
211.081	163.71
211.299	200.49
211.517	165.31
211.735	146.66
211.953	176.02
212.171	176.75
212.39	150.74
212.608	143.59
212.826	134.16
213.044	137.64
213.262	130.15
213.48	149.78
213.698	147.12
213.916	196.84
214.134	182.07
214.352	193.35
214.57	135.02
214.788	230.26
215.006	269.62
215.224	233.27
215.442	216.15
215.66	243.47
215.878	131.69
216.096	100.51
216.314	95.67
216.532	111.38
216.75	118.48
216.968	134.7
217.185	99.98
217.403	96.66
217.621	101.94
217.839	94.88
218.057	92.22
218.275	109.33
218.492	115.61
218.71	103.86
218.928	104.23
219.146	94.35
219.363	97.24
219.581	111.36
219.799	115.57
220.017	109.09
220.234	113.63
220.452	134.81
220.67	96.26
220.887	93.94
221.105	109.69
221.323	119.68
221.54	122.97
221.758	115.58
221.976	83.68
222.193	71.59
222.411	71.23
222.629	72.78
222.846	67.49
223.064	77.41
223.281	90.36
223.499	92.87
223.716	85.59
223.934	89.49
224.151	70.79
224.369	84.8
224.586	96.09
224.804	98.33
225.021	99.97
225.239	105.5
225.456	85.1
225.674	74.57
225.891	71.86
226.108	74.26
226.326	64.41
226.543	76.85
226.76	71.44
226.978	51.17
227.195	36.29
227.413	38.62
227.63	35.66
227.847	35.92
228.064	29.11
228.282	22.71
228.499	18.24
228.716	16.27
228.934	15.64
229.151	11.93
229.368	12.64
229.585	14.84
229.802	14.14
230.02	11.85
230.237	11.78
230.454	16.02
230.671	17.96
230.888	20.15
231.105	23.43
231.323	26.15
231.54	31.5
231.757	33.57
231.974	34.81
232.191	34.32
232.408	37.23
232.625	38.97
232.842	34.76
233.059	33.44
233.276	35.66
233.493	35.26
233.71	36.01
233.927	33.69
234.144	35.32
234.361	38.89
234.578	41.83
234.795	38.78
235.012	38.29
235.229	43.71
235.446	45.3
235.663	41.4
235.879	38.56
236.096	34.94
236.313	34.19
236.53	36.42
236.747	34.67
236.964	31.68
237.181	36.71
237.397	31.73
237.614	26.56
237.831	25.11
238.048	26.58
238.264	27.67
238.481	23.57
238.698	28.11
238.915	27.13
239.131	26.06
239.348	23.72
239.565	21.27
239.781	23.83
239.998	26.24
240.215	25.58
240.431	26.57
240.648	27.83
240.865	30.29
241.081	28.3
241.298	26.85
241.514	25.3
241.731	28.61
241.947	25.43
242.164	24.9
242.38	22.8
242.597	23.87
242.814	22.47
243.03	20.46
243.246	19.61
243.463	18.96
243.679	18.3
243.896	20.41
244.112	18.02
244.329	19.9
244.545	18.93
244.762	19.43
244.978	17.75
245.194	16.92
245.411	17.97
245.627	17.28
245.843	17.46
246.06	16.3
246.276	13.77
246.492	11.72
246.709	11.35
246.925	11.79
247.141	11.77
247.357	11.62
247.574	12.06
247.79	11.68
248.006	12.19
248.222	12.11
248.439	12.51
248.655	13.51
248.871	14.37
249.087	14.15
249.303	14.28
249.519	14.19
249.736	14.41
249.952	14.03
250.168	15.35
250.384	16.03
250.6	16.02
250.816	16.75
251.032	15.46
251.248	18.7
251.464	18.95
251.68	19.33
251.896	20.07
252.112	19.63
252.328	19.73
252.544	19.57
252.76	18.92
252.976	19.37
253.192	19.52
253.408	20.5
253.624	21.36
253.84	20.99
254.056	20.96
254.272	23.17
254.487	22.82
254.703	24.25
254.919	23.86
255.135	23.97
255.351	22.39
255.567	22.42
255.782	21.46
255.998	19.31
256.214	19.01
256.43	20.93
256.646	19.92
256.861	21.76
257.077	20.12
257.293	18.6
257.508	18.96
257.724	19.26
257.94	18.99
258.155	17.63
258.371	16.62
258.587	18.01
258.802	17.04
259.018	15.51
259.234	13.6
259.449	13.57
259.665	13.11
259.88	12.78
260.096	11.82
260.312	11.02
260.527	11.33
260.743	11.01
260.958	10.34
261.174	10.16
261.389	10.49
261.605	11.62
261.82	12.19
262.036	13.21
262.251	13.99
262.466	15.63
262.682	16.91
262.897	17.47
263.113	18.85
263.328	19.92
263.543	19.54
263.759	19.26
263.974	19.16
264.189	19.41
264.405	17.98
264.62	16.95
264.835	16.77
265.051	18.05
265.266	18.76
265.481	18.54
265.696	18.5
265.912	18.12
266.127	18.7
266.342	19.09
266.557	17.87
266.773	18.81
266.988	17.81
267.203	16.35
267.418	14.45
267.633	14.09
267.848	12.66
268.064	11.05
268.279	10.77
268.494	10.06
268.709	9.58
268.924	10.79
269.139	10.91
269.354	12.73
269.569	13.37
269.784	14.62
269.999	13.8
270.214	14.03
270.429	14.59
270.644	14.85
270.859	14.67
271.074	14.22
271.289	14.22
271.504	14.91
271.719	13.58
271.934	14.12
272.149	13.22
272.363	13.79
272.578	14.11
272.793	14.63
273.008	13.86
273.223	12.76
273.438	12.74
273.653	13.12
273.867	13
274.082	14.09
274.297	14.01
274.512	14.34
274.726	13.4
274.941	13.23
275.156	13.15
275.371	13.36
275.585	14.58
275.8	15.44
276.015	13.49
276.229	12.15
276.444	11.51
276.659	11.52
276.873	12.14
277.088	14.49
277.302	16.6
277.517	16.69
277.732	19.58
277.946	20.08
278.161	20.62
278.375	21.14
278.59	22.63
278.804	21.63
279.019	21.32
279.233	20.5
279.448	18.38
279.662	16.96
279.877	15.04
280.091	12.97
280.306	13.45
280.52	10.24
280.735	10.88
280.949	9.56
281.163	10.44
281.378	9.79
281.592	9.41
281.806	10.29
282.021	8.63
282.235	10.05
282.449	9.58
282.664	9.15
282.878	9.77
283.092	9.07
283.307	10.59
283.521	10.01
283.735	11.15
283.949	12.11
284.164	11.55
284.378	12.55
284.592	12.95
284.806	13.87
285.02	13.96
285.234	14.86
285.449	15.44
285.663	14.22
285.877	14.33
286.091	13.97
286.305	13.25
286.519	13.11
286.733	13.75
286.947	12.96
287.161	12.01
287.375	11.74
287.589	11.4
287.803	10.84
288.017	10.23
288.231	10.99
288.445	11.3
288.659	11.34
288.873	11.64
289.087	11.35
289.301	11.89
289.515	13.46
289.729	13.26
289.943	13.86
290.157	13.78
290.371	13.69
290.584	13.09
290.798	13
291.012	13.93
291.226	14.39
291.44	14.32
291.654	13.95
291.867	13.35
292.081	13.5
292.295	13.18
292.509	13.47
292.722	14.87
292.936	14.6
293.15	14.77
293.364	14.6
293.577	14.08
293.791	14.52
294.005	13.63
294.218	13.21
294.432	14.05
294.645	14.3
294.859	14.27
295.073	13.05
295.286	13.14
295.5	11.96
295.713	12.16
295.927	11.8
296.14	11.15
296.354	12.55
296.568	12.27
296.781	12.3
296.994	12.42
297.208	12.58
297.421	12.58
297.635	12.84
297.848	13
298.062	12.98
298.275	13.16
298.489	13.81
298.702	13.65
298.915	14.1
299.129	14.85
299.342	14.66
299.555	15.4
299.769	15.93
299.982	15.65
300.195	16.53
300.409	15.95
300.622	16.66
300.835	16.48
301.048	15.61
301.262	15.54
301.475	14.95
301.688	15.93
301.901	15.44
302.115	16.04
302.328	15.85
302.541	16.18
302.754	16.43
302.967	16.44
303.18	16.83
303.393	17.19
303.607	17.21
303.82	16.66
304.033	15.28
304.246	14.57
304.459	14.21
304.672	15.21
304.885	15.92
305.098	15.52
305.311	15.95
305.524	14.77
305.737	15
305.95	15.4
306.163	15.55
306.376	15.33
306.589	15.73
306.802	15.44
307.015	16.18
307.228	15.59
307.44	16.67
307.653	16.5
307.866	17.42
308.079	17.22
308.292	16.48
308.505	15.95
308.718	16.42
308.93	17.42
309.143	16.91
309.356	15.74
309.569	14.71
309.781	14.27
309.994	13.89
310.207	13.67
310.42	13.86
310.632	15.07
310.845	15.33
311.058	15.87
311.27	15.04
311.483	15.15
311.696	15.47
311.908	15.84
312.121	15.31
312.333	14.88
312.546	15.12
312.759	15.55
312.971	14.97
313.184	15.42
313.396	14.94
313.609	15.64
313.821	16.43
314.034	16.03
314.246	16.5
314.459	18.56
314.671	19.99
314.884	19.78
315.096	19.88
315.309	18.43
315.521	17.49
315.733	17.22
315.946	15.95
316.158	15.54
316.371	16.56
316.583	16.13
316.795	14.98
317.008	14.44
317.22	14.78
317.432	14.82
317.644	15.78
317.857	16.98
318.069	16.85
318.281	16.78
318.494	17.91
318.706	17.98
318.918	18.81
319.13	20.14
319.342	19.82
319.555	19.13
319.767	18.99
319.979	19.12
320.191	18.09
320.403	19.44
320.615	20.1
320.827	19.52
321.039	17.94
321.252	17.65
321.464	16.26
321.676	15.9
321.888	16.62
322.1	16.58
322.312	16.66
322.524	17.7
322.736	16.98
322.948	17.76
323.16	17.04
323.372	17.16
323.584	16.82
323.796	17.48
324.007	17.6
324.219	18.27
324.431	18.28
324.643	18.59
324.855	18.96
325.067	18.28
325.279	18.97
325.491	20.02
325.702	20.51
325.914	20.99
326.126	20.53
326.338	19.68
326.55	19.38
326.761	19.69
326.973	19.22
327.185	19.01
327.396	19.21
327.608	17.22
327.82	17.1
328.032	17.18
328.243	17.43
328.455	17.9
328.666	18.85
328.878	18.23
329.09	17.47
329.301	18.36
329.513	17.14
329.725	17.12
329.936	18.55
330.148	17.8
330.359	17.51
330.571	16.37
330.782	15.73
330.994	16.34
331.205	17.54
331.417	18.75
331.628	17.95
331.84	18.76
332.051	19.46
332.262	19.11
332.474	19.72
332.685	20.57
332.897	21.46
333.108	22.68
333.319	22.91
333.531	22.67
333.742	22.65
333.953	22.26
334.165	22.66
334.376	23.12
334.587	23.47
334.799	24.2
335.01	25.11
335.221	24.82
335.432	24.33
335.644	23.79
335.855	23.71
336.066	22.89
336.277	24.1
336.488	24.03
336.7	23.4
336.911	22.42
337.122	21.81
337.333	20.28
337.544	21.17
337.755	21.18
337.966	21.34
338.177	20.67
338.388	20.29
338.599	20.27
338.811	19.68
339.022	19.45
339.233	21.02
339.444	21.17
339.655	21.89
339.866	21.62
340.076	20.87
340.287	20.85
340.498	20.51
340.709	20.91
340.92	21.05
341.131	21.57
341.342	21.92
341.553	21.36
341.764	21.05
341.975	20.7
342.185	20.31
342.396	20.98
342.607	21.31
342.818	21.76
343.029	21.3
343.239	21.03
343.45	20.27
343.661	19.84
343.872	19.19
344.082	18.88
344.293	18.81
344.504	19.03
344.714	18.82
344.925	18.15
345.136	18.36
345.346	19.14
345.557	17.93
345.768	17.88
345.978	18.72
346.189	20.12
346.399	19.96
346.61	20.43
346.821	20.45
347.031	20.67
347.242	21.26
347.452	21.57
347.663	22.09
347.873	23.22
348.084	23.73
348.294	23.42
348.504	22.2
348.715	23.12
348.925	22.87
349.136	22.39
349.346	21.69
349.557	21.73
349.767	21.42
349.977	20.42
350.188	20.33
350.398	20
350.608	19.72
350.819	20.07
351.029	19.3
351.239	18.36
351.449	18.64
351.66	17.8
351.87	17.98
352.08	18.06
352.29	18.18
352.501	19.06
352.711	19.11
352.921	19.06
353.131	18.83
353.341	19.01
353.552	19.63
353.762	18.91
353.972	20.43
354.182	19.48
354.392	19.58
354.602	20
354.812	18.65
355.022	18.78
355.232	19.06
355.442	19.27
355.652	19.73
355.862	19.42
356.072	19.43
356.282	19.22
356.492	19.66
356.702	19.23
356.912	18.85
357.122	18.6
357.332	18.84
357.542	18.41
357.752	18.36
357.962	16.92
358.171	17.42
358.381	17.7
358.591	17.19
358.801	16.9
359.011	16.79
359.221	17.07
359.43	18.01
359.64	17.07
359.85	17.22
360.06	16.77
360.269	17.74
360.479	17.65
360.689	17.56
360.899	17.4
361.108	17.5
361.318	17.7
361.528	17.29
361.737	16.47
361.947	17
362.156	16.67
362.366	16.84
362.576	16.68
362.785	16.63
362.995	16.74
363.204	16.97
363.414	16.96
363.623	17.01
363.833	17.02
364.042	16.88
364.252	16.94
364.461	17.06
364.671	17.29
364.88	17.71
365.09	17.49
365.299	17.52
365.509	17.32
365.718	17.33
365.927	17.03
366.137	16.91
366.346	17.23
366.555	17.08
366.765	17.11
366.974	17.23
367.183	16.6
367.393	17.02
367.602	16.85
367.811	17.19
368.021	16.8
368.23	16.78
368.439	17.04
368.648	17.18
368.857	16.97
369.067	16.8
369.276	16.36
369.485	16.26
369.694	15.85
369.903	15.77
370.112	15.21
370.321	15.39
370.531	15.18
370.74	15.12
370.949	14.97
371.158	14.76
371.367	14.9
371.576	14.84
371.785	14.85
371.994	15.02
372.203	14.9
372.412	15.34
372.621	14.97
372.83	14.3
373.039	14.24
373.248	14.01
373.457	14.32
373.666	14.18
373.874	13.91
374.083	13.29
374.292	12.78
374.501	13
374.71	12.86
374.919	13.21
375.128	13.99
375.336	13.76
375.545	13.98
375.754	14.47
375.963	14.24
376.171	14.32
376.38	14.65
376.589	14.58
376.798	14.08
377.006	13.92
377.215	13.95
377.424	13.82
377.632	13.97
377.841	13.79
378.05	13.05
378.258	13.23
378.467	12.84
378.675	13.47
378.884	13.91
379.093	13.95
379.301	13.83
379.51	13.78
379.718	14.13
379.927	14.38
380.135	14.15
380.344	14.02
380.552	13.7
380.761	13.63
380.969	12.88
381.177	12.5
381.386	12.82
381.594	12.96
381.803	12.75
382.011	12.03
382.219	11.56
382.428	12.02
382.636	12.3
382.845	12.87
383.053	13.15
383.261	13.3
383.469	13.45
383.678	13.15
383.886	12.74
384.094	12.8
384.302	13.5
384.511	13.28
384.719	13.04
384.927	13.16
385.135	12.91
385.343	13.17
385.552	13.38
385.76	13.29
385.968	12.72
386.176	12.99
386.384	12.49
386.592	12.12
386.8	12.32
387.008	12.12
387.216	11.96
387.424	11.9
387.633	11.52
387.841	11.33
388.049	10.9
388.257	11.32
388.465	11.2
388.672	11.48
388.88	11.3
389.088	11.25
389.296	11.19
389.504	10.78
389.712	10.85
389.92	10.4
390.128	10.15
390.336	10.09
390.544	10.14
390.751	10.07
390.959	10.37
391.167	10.2
391.375	10.32
391.583	10.28
391.79	10.25
391.998	10.1
392.206	10.57
392.414	10.59
392.621	10.7
392.829	10.81
393.037	10.89
393.244	10.53
393.452	10.57
393.66	10.2
393.867	10.37
394.075	10.48
394.283	10.22
394.49	10.15
394.698	10.32
394.905	10.58
395.113	10.41
395.32	10.07
395.528	10.21
395.735	10.55
395.943	10.65
396.15	10.45
396.358	10.44
396.565	10.54
396.773	10.6
396.98	10.77
397.188	10.6
397.395	10.62
397.602	10.96
397.81	11.04
398.017	10.41
398.225	10.18
398.432	10.29
398.639	10.49
398.847	10.33
399.054	9.92
399.261	9.5
399.468	9.58
399.676	9.39
399.883	9.36
400.09	9.06
400.297	9.28
400.505	9.23
400.712	9.49
400.919	9.43
401.126	9.48
401.333	9.89
401.54	9.87
401.748	9.82
401.955	9.99
402.162	9.91
402.369	9.9
402.576	9.9
402.783	10.19
402.99	9.64
403.197	9.15
403.404	9.39
403.611	9.48
403.818	9.37
404.025	9.31
404.232	9.5
404.439	9.35
404.646	9
404.853	8.98
405.06	8.83
405.267	8.79
405.474	8.99
405.681	8.85
405.887	8.69
406.094	8.81
406.301	8.73
406.508	8.49
406.715	8.4
406.922	8.7
407.128	9.11
407.335	9.02
407.542	9.21
407.749	9.27
407.955	9.21
408.162	9.01
408.369	8.98
408.575	9.05
408.782	8.89
408.989	9.12
409.195	9.12
409.402	8.42
409.609	8.43
409.815	8.45
410.022	8.28
410.228	8.41
410.435	8.47
410.642	8.53
410.848	8.31
411.055	8.7
411.261	8.67
411.468	8.73
411.674	9.01
411.881	8.95
412.087	8.8
412.294	8.92
412.5	8.79
412.706	8.75
412.913	8.55
413.119	8.58
413.326	7.99
413.532	7.83
413.738	7.9
413.945	7.69
414.151	7.66
414.357	7.63
414.564	7.77
414.77	7.68
414.976	7.9
415.182	8.09
415.389	7.88
415.595	8.02
415.801	8.13
416.007	7.72
416.214	7.66
416.42	7.81
416.626	7.73
416.832	7.49
417.038	7.8
417.244	7.47
417.45	7.07
417.657	7.24
417.863	7.2
418.069	7
418.275	7.13
418.481	7.13
418.687	7.17
418.893	7.3
419.099	7.42
419.305	7.05
419.511	7.12
419.717	7.44
419.923	7.31
420.129	7.36
420.335	7.47
420.541	7.58
420.746	7.45
420.952	7.28
421.158	7.15
421.364	6.99
421.57	7.06
421.776	7.02
421.982	6.87
422.187	6.9
422.393	6.64
422.599	6.63
422.805	6.52
423.01	6.79
423.216	6.78
423.422	6.99
423.628	7
423.833	7.04
424.039	7.07
424.245	7.12
424.45	7.24
424.656	7.42
424.862	7.3
425.067	7.45
425.273	7.4
425.478	7.43
425.684	7.3
425.889	7.38
426.095	7.49
426.301	7.41
426.506	7.41
426.712	7.25
426.917	7.35
427.123	7.34
427.328	7.1
427.533	6.77
427.739	6.96
427.944	7.01
428.15	6.99
428.355	6.78
428.561	6.95
428.766	6.94
428.971	7.17
429.177	7.08
429.382	7.18
429.587	7.26
429.793	7.55
429.998	7.36
430.203	7.27
430.408	7.24
430.614	7.56
430.819	7.54
431.024	7.64
431.229	7.51
431.434	7.49
431.64	7.65
431.845	7.74
432.05	7.82
432.255	7.82
432.46	7.81
432.665	7.77
432.87	7.73
433.076	7.75
433.281	7.62
433.486	7.52
433.691	7.48
433.896	7.39
434.101	7.19
434.306	7.2
434.511	7.19
434.716	7.11
434.921	7.13
435.126	6.89
435.331	6.72
435.535	6.62
435.74	6.57
435.945	6.64
436.15	6.82
436.355	7
436.56	6.78
436.765	6.65
436.97	6.82
437.174	6.93
437.379	6.93
437.584	7.03
437.789	7.21
437.993	7.34
438.198	7.38
438.403	7.23
438.608	7.13
438.812	7.12
439.017	7.33
439.222	7.29
439.426	7.15
439.631	7.13
439.836	7.17
440.04	6.93
440.245	6.85
440.45	6.67
440.654	6.66
440.859	6.61
441.063	6.6
441.268	6.58
441.472	6.61
441.677	6.64
441.881	6.82
442.086	6.7
442.29	6.82
442.495	6.87
442.699	7.08
442.904	6.95
443.108	7.06
443.312	7.15
443.517	7.15
443.721	7.11
443.925	6.97
444.13	6.65
444.334	6.61
444.538	6.59
444.743	6.38
444.947	6.13
445.151	6.07
445.356	6.07
445.56	6.04
445.764	6.1
445.968	6.03
446.173	6.12
446.377	6.21
446.581	6.21
446.785	6.21
446.989	6.22
447.193	6.39
447.398	6.52
447.602	6.39
447.806	6.26
448.01	6.14
448.214	6.25
448.418	6.21
448.622	6.2
448.826	6.32
449.03	6.36
449.234	6.57
449.438	6.58
449.642	6.54
449.846	6.67
450.05	7.13
450.254	7.06
450.458	7.05
450.662	7.17
450.866	7.03
451.069	6.85
451.273	6.71
451.477	6.65
451.681	6.67
451.885	6.71
452.089	6.53
452.292	6.33
452.496	6.44
452.7	6.51
452.904	6.35
453.107	6.59
453.311	6.83
453.515	7
453.719	7.14
453.922	7.09
454.126	7.06
454.33	7.29
454.533	7.34
454.737	7.4
454.94	7.17
455.144	7.33
455.348	7.35
455.551	7.22
455.755	7.11
455.958	7.09
456.162	7.07
456.365	7.09
456.569	7.08
456.772	7.14
456.976	7.01
457.179	7.04
457.383	7.01
457.586	6.84
457.79	6.76
457.993	6.7
458.196	6.53
458.4	6.5
458.603	6.47
458.807	6.53
459.01	6.42
459.213	6.42
459.417	6.47
459.62	6.48
459.823	6.35
460.026	6.35
460.23	6.35
460.433	6.36
460.636	6.35
460.839	6.43
461.042	6.47
461.246	6.46
461.449	6.4
461.652	6.4
461.855	6.36
462.058	6.58
462.261	6.61
462.464	6.58
462.668	6.55
462.871	6.51
463.074	6.41
463.277	6.29
463.48	6.19
463.683	6.3
463.886	6.17
464.089	6.32
464.292	6.3
464.495	6.18
464.698	6.31
464.901	6.34
465.104	6.43
465.306	6.34
465.509	6.42
465.712	6.52
465.915	6.51
466.118	6.68
466.321	6.61
466.524	6.63
466.726	6.76
466.929	6.67
467.132	6.68
467.335	6.65
467.538	6.8
467.74	6.84
467.943	6.79
468.146	6.8
468.348	6.76
468.551	6.46
468.754	6.59
468.956	6.63
469.159	6.73
469.362	6.73
469.564	6.89
469.767	6.83
469.969	6.86
470.172	6.75
470.375	6.66
470.577	6.64
470.78	6.93
470.982	6.72
471.185	6.69
471.387	6.66
471.59	6.87
471.792	6.76
471.995	6.55
472.197	6.51
472.399	6.48
472.602	6.56
472.804	6.58
473.007	6.56
473.209	6.52
473.411	6.41
473.614	6.39
473.816	6.1
474.018	6.16
474.22	6.41
474.423	6.33
474.625	6.4
474.827	6.5
475.03	6.57
475.232	6.49
475.434	6.53
475.636	6.4
475.838	6.36
476.04	6.26
476.243	6.09
476.445	5.92
476.647	5.96
476.849	6.16
477.051	6.07
477.253	5.97
477.455	6.01
477.657	5.91
477.859	6.07
478.061	6.26
478.263	6.38
478.465	6.41
478.667	6.45
478.869	6.28
479.071	6.28
479.273	6.29
479.475	6.43
479.677	6.44
479.879	6.59
480.081	6.52
480.283	6.38
480.485	6.49
480.686	6.34
480.888	6.59
481.09	6.76
481.292	6.75
481.494	6.76
481.695	6.69
481.897	6.67
482.099	6.54
482.301	6.48
482.502	6.39
482.704	6.33
482.906	6.34
483.107	6.19
483.309	6.08
483.511	5.97
483.712	5.93
483.914	5.84
484.115	5.79
484.317	5.73
484.519	5.71
484.72	5.76
484.922	5.63
485.123	5.68
485.325	5.64
485.526	5.68
485.728	5.71
485.929	5.72
486.131	5.76
486.332	5.77
486.534	5.83
486.735	5.83
486.936	5.8
487.138	5.86
487.339	5.81
487.541	5.85
487.742	5.85
487.943	5.79
488.144	5.74
488.346	5.67
488.547	5.69
488.748	5.68
488.95	5.7
489.151	5.59
489.352	5.65
489.553	5.65
489.755	5.63
489.956	5.52
490.157	5.55
490.358	5.6
490.559	5.64
490.76	5.64
490.961	5.61
491.163	5.63
491.364	5.71
491.565	5.71
491.766	5.74
491.967	5.74
492.168	5.75
492.369	5.71
492.57	5.63
492.771	5.67
492.972	5.7
493.173	5.76
493.374	5.83
493.575	5.95
493.776	5.91
493.976	5.89
494.177	5.88
494.378	6.04
494.579	6.27
494.78	6.38
494.981	6.31
495.182	6.17
495.382	6.31
495.583	6.19
495.784	5.99
495.985	6.08
496.185	5.91
496.386	5.84
496.587	5.76
496.788	5.63
496.988	5.55
497.189	5.51
497.39	5.68
497.59	5.58
497.791	5.63
497.992	5.68
498.192	5.71
498.393	5.8
498.593	5.99
498.794	5.88
498.994	5.92
499.195	5.99
499.395	6.22
499.596	6.12
499.796	6.11
499.997	6.21
500.197	6.37
500.398	6.37
500.598	6.31
500.799	6.16
500.999	6.21
501.199	6.22
501.4	6.21
501.6	6.15
501.801	6.13
502.001	6.17
502.201	6.09
502.402	5.92
502.602	5.84
502.802	5.79
503.002	5.85
503.203	5.98
503.403	5.93
503.603	6.02
503.803	6.14
504.003	6.31
504.204	6.51
504.404	6.72
504.604	6.75
504.804	6.9
505.004	7.14
505.204	7.21
505.404	7.17
505.604	7.2
505.804	7.34
506.005	7.23
506.205	7.19
506.405	7.13
506.605	6.97
506.805	7.06
507.005	7.15
507.204	7.16
507.404	7.34
507.604	7.36
507.804	7.4
508.004	7.32
508.204	7.41
508.404	7.42
508.604	7.49
508.804	7.6
509.003	7.77
509.203	7.71
509.403	7.66
509.603	7.66
509.803	7.72
510.002	7.8
510.202	7.91
510.402	8
510.602	8.06
510.801	7.92
511.001	7.84
511.201	7.76
511.4	7.81
511.6	7.94
511.8	7.92
511.999	7.93
512.199	7.88
512.398	7.93
512.598	7.93
512.797	7.95
512.997	8.26
513.197	8.38
513.396	8.41
513.596	8.31
513.795	8.32
513.994	8.45
514.194	8.41
514.393	8.46
514.593	8.4
514.792	8.46
514.992	8.57
515.191	8.3
515.39	8.23
515.59	8.43
515.789	8.55
515.988	8.43
516.188	8.34
516.387	8.52
516.586	8.72
516.786	8.83
516.985	8.9
517.184	8.76
517.383	8.89
517.582	9
517.782	8.86
517.981	8.84
518.18	8.94
518.379	9.05
518.578	9.04
518.777	8.95
518.976	8.91
519.176	8.83
519.375	9.02
519.574	9.18
519.773	9.19
519.972	9.27
520.171	9.36
520.37	9.52
520.569	9.5
520.768	9.49
520.967	9.69
521.166	9.68
521.365	9.81
521.564	9.81
521.762	9.68
521.961	9.83
522.16	9.82
522.359	9.81
522.558	9.77
522.757	9.73
522.956	9.75
523.154	9.6
523.353	9.69
523.552	9.78
523.751	9.83
523.949	9.87
524.148	9.69
524.347	9.82
524.546	10.02
524.744	9.98
524.943	10.11
525.142	10.12
525.34	10.14
525.539	10.18
525.737	10.1
525.936	10.11
526.135	10.3
526.333	10.47
526.532	10.42
526.73	10.27
526.929	10.39
527.127	10.39
527.326	10.42
527.524	10.57
527.723	10.63
527.921	10.69
528.12	10.69
528.318	10.58
528.516	10.52
528.715	10.61
528.913	10.7
529.112	10.7
529.31	10.72
529.508	10.75
529.707	10.76
529.905	10.8
530.103	10.79
530.301	10.79
530.5	10.87
530.698	10.95
530.896	11.02
531.094	11.08
531.293	11.25
531.491	11.33
531.689	11.55
531.887	11.52
532.085	11.66
532.283	11.7
532.481	11.76
532.68	11.72
532.878	11.78
533.076	11.69
533.274	11.69
533.472	11.6
533.67	11.65
533.868	11.65
534.066	11.72
534.264	11.67
534.462	11.79
534.66	11.85
534.858	12.02
535.056	12.11
535.253	12.3
535.451	12.32
535.649	12.38
535.847	12.45
536.045	12.57
536.243	12.65
536.441	12.68
536.638	12.68
536.836	12.73
537.034	12.7
537.232	12.73
537.43	12.75
537.627	12.93
537.825	13.08
538.023	13.07
538.22	12.96
538.418	13.02
538.616	12.95
538.813	13.11
539.011	13.22
539.209	13.57
539.406	13.66
539.604	13.81
539.801	13.87
539.999	13.84
540.196	14.02
540.394	14.05
540.591	14.15
540.789	14.33
540.986	14.26
541.184	14.23
541.381	14.17
541.579	14.17
541.776	14.04
541.974	14.03
542.171	14.09
542.368	14.09
542.566	14.25
542.763	14.32
542.96	14.35
543.158	14.47
543.355	14.59
543.552	14.63
543.75	14.83
543.947	15.05
544.144	15.18
544.341	15.26
544.539	15.35
544.736	15.34
544.933	15.36
545.13	15.44
545.327	15.49
545.524	15.57
545.722	15.63
545.919	15.52
546.116	15.55
546.313	15.62
546.51	15.85
546.707	15.93
546.904	16.01
547.101	16.09
547.298	16.19
547.495	16.24
547.692	16.24
547.889	16.33
548.086	16.66
548.283	16.78
548.48	16.94
548.677	16.96
548.874	17.07
549.07	17.29
549.267	17.44
549.464	17.43
549.661	17.77
549.858	18.08
550.055	18.31
550.251	18.28
550.448	18.26
550.645	18.45
550.842	18.47
551.038	18.39
551.235	18.36
551.432	18.6
551.628	18.72
551.825	18.6
552.022	18.7
552.218	18.64
552.415	18.67
552.612	18.85
552.808	18.93
553.005	19.2
553.201	19.5
553.398	19.61
553.594	19.51
553.791	19.76
553.987	19.89
554.184	19.87
554.38	20.11
554.577	20.28
554.773	20.45
554.97	20.45
555.166	20.36
555.362	20.57
555.559	20.72
555.755	20.8
555.952	20.84
556.148	21.04
556.344	21.2
556.541	21.09
556.737	21.05
556.933	21.1
557.129	21.41
557.326	21.46
557.522	21.39
557.718	21.51
557.914	21.55
558.11	21.66
558.307	21.76
558.503	21.88
558.699	21.97
558.895	22.01
559.091	22.04
559.287	22
559.483	22.15
559.679	22.31
559.876	22.46
560.072	22.59
560.268	22.58
560.464	22.56
560.66	22.65
560.856	22.8
561.052	22.72
561.247	22.58
561.443	22.45
561.639	22.47
561.835	22.45
562.031	22.4
562.227	22.47
562.423	22.42
562.619	22.42
562.815	22.36
563.01	22.37
563.206	22.75
563.402	23.04
563.598	23.2
563.793	23.16
563.989	23.11
564.185	23.15
564.381	23.39
564.576	23.55
564.772	23.61
564.968	23.55
565.163	23.71
565.359	23.66
565.555	23.81
565.75	23.79
565.946	23.94
566.141	24.14
566.337	24.28
566.532	24.32
566.728	24.38
566.923	24.56
567.119	24.87
567.314	25.01
567.51	25.06
567.705	25.13
567.901	25.19
568.096	25.16
568.292	25.19
568.487	25.2
568.682	25.21
568.878	25.53
569.073	25.51
569.268	25.48
569.464	25.47
569.659	25.5
569.854	25.38
570.05	25.69
570.245	25.98
570.44	25.85
570.635	25.77
570.831	26.01
571.026	25.89
571.221	26
571.416	26.03
571.611	25.91
571.806	26.06
572.002	26.22
572.197	26.23
572.392	26.17
572.587	26.47
572.782	26.77
572.977	26.62
573.172	26.63
573.367	26.51
573.562	26.44
573.757	26.73
573.952	26.74
574.147	26.72
574.342	26.81
574.537	26.76
574.732	26.76
574.927	26.74
575.121	26.8
575.316	27.03
575.511	27.37
575.706	27.58
575.901	27.59
576.096	27.52
576.29	27.69
576.485	27.76
576.68	27.9
576.875	27.87
577.069	27.92
577.264	27.98
577.459	28.04
577.654	27.82
577.848	27.74
578.043	27.9
578.238	28.2
578.432	28.33
578.627	28.04
578.821	28.31
579.016	28.66
579.21	28.61
579.405	28.73
579.6	28.67
579.794	28.79
579.989	29.06
580.183	28.79
580.378	28.86
580.572	28.58
580.766	29.04
580.961	29.24
581.155	29
581.35	28.95
581.544	28.85
581.738	28.89
581.933	29.14
582.127	29.2
582.321	29.49
582.516	29.21
582.71	29.34
582.904	29.14
583.099	28.93
583.293	29.17
583.487	29.4
583.681	29.45
583.875	29.35
584.07	29.19
584.264	29.28
584.458	29.21
584.652	29.58
584.846	29.61
585.04	29.79
585.234	29.67
585.428	29.35
585.623	29.49
585.817	29.8
586.011	29.96
586.205	30.12
586.399	30.29
586.593	30.37
586.787	30.14
586.981	30.08
587.174	30.02
587.368	30.24
587.562	30.62
587.756	30.43
587.95	30.22
588.144	30.47
588.338	30.41
588.532	30.16
588.725	30.17
588.919	30.3
589.113	30.82
589.307	30.83
589.501	30.95
589.694	30.77
589.888	30.84
590.082	31.07
590.275	31.01
590.469	30.91
590.663	30.89
590.856	31.08
591.05	31.03
591.244	31.16
591.437	31.37
591.631	31.34
591.824	31.51
592.018	31.63
592.212	31.39
592.405	31.29
592.599	31.69
592.792	31.76
592.986	31.5
593.179	31.69
593.372	31.39
593.566	31.28
593.759	31.04
593.953	31
594.146	30.78
594.339	30.98
594.533	30.9
594.726	30.62
594.92	30.47
595.113	30.75
595.306	30.64
595.499	30.66
595.693	30.66
595.886	30.87
596.079	31.05
596.272	31.17
596.466	31.04
596.659	31.12
596.852	31.28
597.045	31.58
597.238	31.44
597.431	31.42
597.624	31.43
597.818	31.53
598.011	31.42
598.204	31.43
598.397	31.53
598.59	31.63
598.783	31.85
598.976	31.73
599.169	31.5
599.362	31.74
599.555	32.04
599.748	32.13
599.941	32.31
600.134	32.49
600.326	32.32
600.519	32.5
600.712	32.59
600.905	32.47
601.098	32.68
601.291	32.83
601.483	32.81
601.676	32.78
601.869	32.76
602.062	32.71
602.255	32.86
602.447	32.77
602.64	32.59
602.833	32.73
603.025	32.75
603.218	32.85
603.411	32.84
603.603	32.95
603.796	32.92
603.989	32.94
604.181	32.79
604.374	32.72
604.566	32.77
604.759	32.88
604.951	32.89
605.144	32.79
605.336	32.53
605.529	32.49
605.721	32.29
605.914	32.19
606.106	32.08
606.299	32.34
606.491	32.3
606.683	32.48
606.876	32.32
607.068	32.18
607.26	32.39
607.453	32.55
607.645	32.55
607.837	32.65
608.03	32.7
608.222	32.91
608.414	32.67
608.606	32.54
608.799	32.61
608.991	32.75
609.183	32.94
609.375	32.91
609.567	33.09
609.759	33.34
609.952	33.54
610.144	33.81
610.336	33.84
610.528	34
610.72	34.37
610.912	34.63
611.104	34.76
611.296	34.73
611.488	34.83
611.68	34.92
611.872	35.03
612.064	35.2
612.256	35.16
612.448	34.99
612.64	35.03
612.832	34.84
613.023	34.59
613.215	34.22
613.407	34.32
613.599	34.29
613.791	34.05
613.983	34.13
614.174	33.73
614.366	33.85
614.558	34.08
614.75	34.01
614.941	34.08
615.133	33.88
615.325	34.22
615.516	34.11
615.708	34.18
615.9	34.39
616.091	34.14
616.283	34.38
616.475	34.31
616.666	34.45
616.858	34.27
617.049	34.43
617.241	34.32
617.432	34.5
617.624	34.54
617.815	34.39
618.007	34.43
618.198	34.52
618.39	34.14
618.581	33.97
618.773	33.67
618.964	33.86
619.155	33.57
619.347	33.69
619.538	33.75
619.729	33.74
619.921	33.88
620.112	34.04
620.303	34.07
620.494	34.33
620.686	34.4
620.877	34.57
621.068	34.83
621.259	34.98
621.451	35.11
621.642	34.97
621.833	35.43
622.024	35.57
622.215	35.41
622.406	35.8
622.597	35.71
622.788	35.86
622.98	35.88
623.171	35.69
623.362	35.7
623.553	35.85
623.744	35.82
623.935	35.3
624.126	34.9
624.317	34.92
624.508	34.64
624.698	34.73
624.889	34.89
625.08	34.81
625.271	34.85
625.462	34.81
625.653	34.78
625.844	34.74
626.034	34.76
626.225	34.98
626.416	35.03
626.607	35.08
626.798	35.14
626.988	35
627.179	35.18
627.37	34.93
627.56	34.93
627.751	34.63
627.942	34.64
628.132	34.65
628.323	34.62
628.514	34.32
628.704	34.24
628.895	34.17
629.085	34.26
629.276	34.12
629.466	34.33
629.657	34.6
629.847	35.1
630.038	35.2
630.228	35.49
630.419	35.55
630.609	35.91
630.8	35.78
630.99	35.84
631.181	35.47
631.371	35.42
631.561	35.52
631.752	35.33
631.942	35.19
632.132	35.15
632.323	34.9
632.513	35.22
632.703	35.37
632.893	35.7
633.084	35.49
633.274	35.98
633.464	36.02
633.654	35.78
633.844	35.62
634.034	35.63
634.225	35.64
634.415	35.53
634.605	35.41
634.795	35.38
634.985	35.33
635.175	35.55
635.365	35.33
635.555	35.3
635.745	35.65
635.935	35.87
636.125	35.9
636.315	35.94
636.505	35.99
636.695	35.94
636.885	35.61
637.075	35.67
637.265	35.32
637.455	35.23
637.644	35.05
637.834	34.72
638.024	34.64
638.214	34.45
638.404	34.42
638.593	34.84
638.783	34.62
638.973	34.66
639.163	34.43
639.352	34.65
639.542	34.85
639.732	35.31
639.921	35.49
640.111	35.42
640.301	35.68
640.49	36.07
640.68	36
640.87	36.17
641.059	36.18
641.249	36.18
641.438	36.58
641.628	36.41
641.817	36.17
642.007	36.46
642.196	36.95
642.386	36.24
642.575	35.95
642.764	35.56
642.954	35.93
643.143	35.93
643.333	36.35
643.522	36.12
643.711	35.92
643.901	36.07
644.09	35.93
644.279	35.73
644.469	36.15
644.658	36.07
644.847	36.31
645.036	36.12
645.226	36.77
645.415	36.11
645.604	36.15
645.793	36.54
645.982	36.69
646.171	36.85
646.361	36.59
646.55	36.83
646.739	37.08
646.928	37.08
647.117	36.48
647.306	35.96
647.495	36.42
647.684	36.12
647.873	36.1
648.062	36.06
648.251	35.8
648.44	36.32
648.629	36.44
648.818	36.19
649.007	35.91
649.196	36.77
649.384	37.08
649.573	37.08
649.762	37.29
649.951	37.11
650.14	37.2
650.328	37.41
650.517	37.06
650.706	36.87
650.895	37.04
651.083	36.91
651.272	36.44
651.461	35.81
651.65	35.74
651.838	35.86
652.027	36.26
652.216	35.95
652.404	35.79
652.593	35.77
652.781	36.11
652.97	35.8
653.158	35.91
653.347	35.92
653.535	36.17
653.724	36.41
653.912	36.53
654.101	36.12
654.289	35.95
654.478	36.14
654.666	35.76
654.855	35.46
655.043	35.85
655.231	36.11
655.42	36.62
655.608	37.13
655.796	36.61
655.985	36.44
656.173	36.99
656.361	37.56
656.55	37.39
656.738	37.91
656.926	37.68
657.114	37.68
657.302	37.82
657.491	37.74
657.679	37.68
657.867	37.84
658.055	37.91
658.243	37.54
658.431	37.33
658.619	37.36
658.807	37.33
658.996	37.13
659.184	37.03
659.372	36.86
659.56	36.53
659.748	36.08
659.936	35.91
660.124	36
660.311	35.81
660.499	35.38
660.687	35.16
660.875	34.98
661.063	35.37
661.251	35.5
661.439	35.71
661.627	35.86
661.814	36.22
662.002	36.76
662.19	36.53
662.378	36.56
662.565	37.09
662.753	37.17
662.941	37.33
663.129	36.97
663.316	36.88
663.504	36.21
663.692	36.22
663.879	36.4
664.067	35.81
664.254	35.96
664.442	36.58
664.63	36.39
664.817	36.63
665.005	36.77
665.192	37.23
665.38	37.39
665.567	37.97
665.755	38.13
665.942	38.26
666.13	38.44
666.317	38.83
666.504	38.68
666.692	39.24
666.879	39.15
667.067	39.19
667.254	39.09
667.441	38.82
667.629	39.07
667.816	38.78
668.003	38.42
668.19	38.55
668.378	38.49
668.565	38.44
668.752	37.92
668.939	37.83
669.127	37.45
669.314	37.91
669.501	37.56
669.688	37.37
669.875	37.74
670.062	37.93
670.249	37.77
670.436	37.79
670.623	37.7
670.81	37.89
670.997	38.46
671.184	38.44
671.371	37.87
671.558	38.38
671.745	38.65
671.932	38.41
672.119	38.06
672.306	37.72
672.493	37.15
672.68	37.24
672.867	36.91
673.054	36.45
673.24	36.6
673.427	37.08
673.614	36.97
673.801	37.24
673.988	37.61
674.174	38.07
674.361	38.8
674.548	39.33
674.734	39.05
674.921	39.56
675.108	39.53
675.294	39.91
675.481	39.66
675.668	39.59
675.854	39.13
676.041	38.48
676.227	38.32
676.414	37.83
676.601	37.7
676.787	37.65
676.974	37.88
677.16	38
677.347	38.17
677.533	38.32
677.719	38.77
677.906	38.95
678.092	39.53
678.279	39.74
678.465	39.97
678.651	40
678.838	40.12
679.024	39.39
679.21	38.91
679.397	38.74
679.583	38.26
679.769	38.12
679.955	37.65
680.142	37.33
680.328	36.76
680.514	36.85
680.7	37.23
680.886	37.55
681.073	37.82
681.259	38.21
681.445	37.67
681.631	37.84
681.817	37.43
682.003	37.89
682.189	37.59
682.375	37.87
682.561	37.6
682.747	36.89
682.933	36.14
683.119	36.02
683.305	35.76
683.491	36.26
683.677	36.45
683.863	36.82
684.049	36.73
684.235	37.13
684.42	37.41
684.606	37.68
684.792	38
684.978	38.58
685.164	38.37
685.349	38.41
685.535	38.24
685.721	38.42
685.907	38.04
686.092	37.64
686.278	37.04
686.464	36.53
686.649	36.25
686.835	36.36
687.021	36.34
687.206	37.16
687.392	37.44
687.577	37.62
687.763	37.84
687.948	38.37
688.134	38.34
688.319	38.9
688.505	39.28
688.69	39.82
688.876	39.38
689.061	39.58
689.247	38.99
689.432	38.71
689.618	38.8
689.803	38.31
689.988	38.3
690.174	38.72
690.359	38.51
690.544	38.06
690.73	37.69
690.915	38.26
691.1	37.64
691.285	38.17
691.471	38.49
691.656	38.42
691.841	38.38
692.026	38.14
692.211	38.2
692.396	38.59
692.582	39.27
692.767	39.35
692.952	38.98
693.137	39.26
693.322	38.92
693.507	38.72
693.692	38.41
693.877	38.6
694.062	38.58
694.247	38.43
694.432	38.41
694.617	38.06
694.802	38.3
694.987	38.06
695.172	38.49
695.357	38.71
695.541	38.66
695.726	39.62
695.911	39.53
696.096	39.41
696.281	38.88
696.466	38.69
696.65	38.95
696.835	38.7
697.02	38.83
697.204	38.63
697.389	38.68
697.574	39.4
697.759	38.35
697.943	38.33
698.128	38.53
698.312	38.77
698.497	38.82
698.682	38.8
698.866	38.73
699.051	38.5
699.235	38.37
699.42	37.86
699.604	37.67
699.789	37.69
699.973	37.95
700.158	38.21
700.342	38.35
700.527	38.32
700.711	38.53
700.895	39.05
701.08	39.2
701.264	39.71
701.448	40.22
701.633	39.92
701.817	40.33
702.001	40.16
702.186	39.73
702.37	39.65
702.554	39.27
702.738	39.13
702.923	38.33
703.107	38.85
703.291	38.05
703.475	37.92
703.659	37.99
703.843	38.52
704.027	38.29
704.212	38.96
704.396	39.29
704.58	39.87
704.764	39.29
704.948	39.47
705.132	39.27
705.316	38.98
705.5	38.88
705.684	39.01
705.868	38.75
706.052	39.19
706.235	38.25
706.419	38.08
706.603	37.57
706.787	37.72
706.971	38.09
707.155	38.5
707.339	39.5
707.522	39.7
707.706	40.06
707.89	39.97
708.074	39.96
708.257	40.41
708.441	40.71
708.625	41.68
708.808	42.45
708.992	42.42
709.176	42.14
709.359	41.88
709.543	41.88
709.727	41.13
709.91	41.48
710.094	41.21
710.277	41.41
710.461	41.14
710.644	40.73
710.828	40.47
711.011	40.58
711.195	39.94
711.378	39.87
711.562	40.15
711.745	40.86
711.928	40.45
712.112	40.32
712.295	39.46
712.478	39.28
712.662	39.27
712.845	38.99
713.028	38.76
713.212	38.98
713.395	38.69
713.578	38.97
713.761	38.82
713.945	39.03
714.128	40.04
714.311	40.76
714.494	40.42
714.677	40.14
714.86	40.66
715.043	41.07
715.227	41.44
715.41	41.41
715.593	40.75
715.776	40.12
715.959	39.77
716.142	39.14
716.325	38.95
716.508	39.69
716.691	40.19
716.874	40.07
717.057	39.32
717.239	39.61
717.422	39.68
717.605	39.82
717.788	39.48
717.971	39.48
718.154	39.38
718.337	39.65
718.519	38.79
718.702	37.99
718.885	37.8
719.068	38.01
719.25	37.65
719.433	38.15
719.616	37.99
719.798	38.48
719.981	38.74
720.164	39.18
720.346	39.03
720.529	39.96
720.712	39.85
720.894	39.34
721.077	39.88
721.259	40.27
721.442	40.21
721.624	40.09
721.807	40.76
721.989	41.71
722.172	41.49
722.354	41.13
722.537	41.18
722.719	42.39
722.901	41.75
723.084	41.53
723.266	41.26
723.448	41.58
723.631	41.84
723.813	42.35
723.995	41.4
724.178	40.94
724.36	41.56
724.542	41.38
724.724	41.47
724.907	42.4
725.089	41.71
725.271	41.89
725.453	41.86
725.635	41.89
725.817	40.67
725.999	40.35
726.181	40.53
726.364	40.53
726.546	40.79
726.728	40.62
726.91	40.48
727.092	40.09
727.274	39.84
727.456	39.34
727.638	39.3
727.819	39.53
728.001	39.57
728.183	39.22
728.365	39.5
728.547	39.49
728.729	39.98
728.911	40.46
729.093	41.35
729.274	41.87
729.456	42.34
729.638	42.93
729.82	42.85
730.001	43.38
730.183	44.33
730.365	44.45
730.546	43.76
730.728	43.23
730.91	43.18
731.091	43.3
731.273	43.22
731.455	42.96
731.636	42.58
731.818	43.11
731.999	42.26
732.181	41.17
732.362	41.28
732.544	41.8
732.725	41.79
732.907	41.74
733.088	42.2
733.27	41.66
733.451	41.82
733.633	41.74
733.814	42.13
733.995	42.2
734.177	42.85
734.358	41.71
734.539	42.02
734.721	41.95
734.902	41.08
735.083	40.51
735.264	40.49
735.446	40.02
735.627	39.63
735.808	38.78
735.989	39.87
736.17	39.09
736.351	39.97
736.533	39.65
736.714	39.63
736.895	40.36
737.076	40.73
737.257	40.88
737.438	40.89
737.619	40.72
737.8	40.72
737.981	40.51
738.162	41.17
738.343	40.34
738.524	39.95
738.705	40.17
738.886	39.79
739.067	40.16
739.247	40.63
739.428	41.24
739.609	42.28
739.79	42.81
739.971	43.89
740.151	44.43
740.332	45.18
740.513	45.58
740.694	44.8
740.874	45.12
741.055	43.8
741.236	44.33
741.417	43.81
741.597	43.57
741.778	43.86
741.958	42.24
742.139	41.92
742.32	41.94
742.5	41.82
742.681	43.25
742.861	42.82
743.042	43.72
743.222	42.12
743.403	41.74
743.583	42.7
743.764	41.57
743.944	41.92
744.124	42.37
744.305	42.61
744.485	42.46
744.666	40.55
744.846	41.35
745.026	42
745.207	43.39
745.387	42.72
745.567	41.87
745.747	41.69
745.928	42.01
746.108	41.48
746.288	40.3
746.468	40.2
746.648	42.57
746.829	41.63
747.009	41.52
747.189	42.04
747.369	42.9
747.549	43.16
747.729	44.46
747.909	42.97
748.089	42.66
748.269	42.77
748.449	42.65
748.629	42.44
748.809	41.8
748.989	39.85
749.169	38.52
749.349	38.42
749.529	38.65
749.709	37.38
749.889	38.24
750.068	38.88
750.248	39.16
750.428	39.8
750.608	38.33
750.788	39.21
750.967	39.58
751.147	39.28
751.327	39.93
751.507	39.15
751.686	40.58
751.866	41.47
752.046	40.93
752.225	41.21
752.405	41.09
752.585	41.96
752.764	42.62
752.944	44.57
753.123	46.43
753.303	46.65
753.482	47.05
753.662	45.34
753.841	44.53
754.021	44.35
754.2	43.45
754.38	43.7
754.559	42.81
754.739	41.31
754.918	39.68
755.097	39.82
755.277	39.03
755.456	39.52
755.635	39.31
755.815	39.73
755.994	40.17
756.173	41.09
756.352	41.01
756.532	40.89
756.711	41.72
756.89	42.51
757.069	41.89
757.248	41.94
757.427	41.56
757.607	43.37
757.786	43.46
757.965	42.92
758.144	43.49
758.323	43.37
758.502	44.11
758.681	44.68
758.86	44.64
759.039	43.97
759.218	44.45
759.397	44.39
759.576	43.52
759.755	43.13
759.934	42.92
760.113	42.92
760.291	42.6
760.47	42.03
760.649	40.97
760.828	41.39
761.007	41.53
761.186	41.02
761.364	41.11
761.543	40.5
761.722	40.69
761.901	41.03
762.079	40.45
762.258	40.63
762.437	40.57
762.615	40.84
762.794	40.56
762.972	40.05
763.151	40.17
763.33	39.45
763.508	39.91
763.687	39.56
763.865	39.46
764.044	38.97
764.222	39.11
764.401	39.14
764.579	39.12
764.758	38.33
764.936	38.21
765.114	38.14
765.293	38.17
765.471	38.46
765.65	38.87
765.828	38.85
766.006	39.05
766.184	38.5
766.363	38.76
766.541	38.85
766.719	39.42
766.898	40.02
767.076	40.86
767.254	41.88
767.432	41.93
767.61	41.98
767.788	42.88
767.967	43.81
768.145	44.08
768.323	42.65
768.501	43.51
768.679	43.73
768.857	43.83
769.035	43.95
769.213	44.27
769.391	44.7
769.569	42.54
769.747	42.54
769.925	42.08
770.103	41.67
770.281	45.11
770.459	44.32
770.636	45.28
770.814	45.72
770.992	45.62
771.17	44.7
771.348	43.24
771.525	46.22
771.703	44.8
771.881	44.26
772.059	45.39
772.236	44.45
772.414	45.49
772.592	44.15
772.769	44.76
772.947	44.8
773.125	44.73
773.302	47.04
773.48	46.03
773.657	46.61
773.835	46.71
774.013	47.37
774.19	46.92
774.368	45.92
774.545	46.98
774.723	44.81
774.9	44.64
775.077	46.5
775.255	45.49
775.432	44.53
775.61	45.05
775.787	45.77
775.964	44.3
776.142	45.14
776.319	44.95
776.496	43.47
776.674	43.77
776.851	43.48
777.028	42.43
777.205	43.64
777.382	44.81
777.56	45.18
777.737	44.29
777.914	45.11
778.091	44.42
778.268	45.89
778.445	47.14
778.622	45.67
778.8	47.11
778.977	46.41
779.154	45.46
779.331	45.05
779.508	43.82
779.685	45.02
779.862	45.26
780.038	45.45
780.215	45
780.392	44.45
780.569	45.8
780.746	44.96
780.923	44.62
781.1	45.5
781.277	44.91
781.453	45.28
781.63	43.16
781.807	43.67
781.984	42.51
782.16	41.96
782.337	42.09
782.514	42.65
782.691	41.21
782.867	42.12
783.044	40.64
783.221	42.45
783.397	42.74
783.574	43.43
783.75	42.16
783.927	43.97
784.103	44.51
784.28	43.95
784.456	43.85
784.633	44.48
784.809	44.78
784.986	44.3
785.162	41.57
785.339	41.88
785.515	45.19
785.692	45.03
785.868	44.78
786.044	42.95
786.221	42.57
786.397	43.38
786.573	43.24
786.749	41.91
786.926	43.96
787.102	47.64
787.278	46.32
787.454	43.29
787.631	44.32
787.807	42.98
787.983	44.5
788.159	44.93
788.335	44.21
788.511	43.21
788.687	43.85
788.863	42.42
789.039	39.94
789.216	39.35
789.392	40.04
789.568	39.87
789.744	41.11
789.919	40.17
790.095	41.44
790.271	43.92
790.447	43.64
790.623	42.8
790.799	43.31
790.975	46.13
791.151	47.36
791.327	47.04
791.502	47.98
791.678	47.73
791.854	48.11
792.03	47.98
792.205	45.75
792.381	48.43
792.557	48.64
792.733	47.61
792.908	45.24
793.084	46.33
793.259	49.15
793.435	48.18
793.611	47.54
793.786	49.26
793.962	48.48
794.137	49.29
794.313	45.51
794.488	46.03
794.664	46.95
794.839	49.38
795.015	48.57
795.19	46.82
795.366	46.64
795.541	45.14
795.716	42.47
795.892	43.2
796.067	43.33
796.242	45.13
796.418	41.66
796.593	41.87
796.768	39.37
796.944	41.34
797.119	40.32
797.294	40.91
797.469	42.17
797.644	45.32
797.82	45.08
797.995	44.5
798.17	45.63
798.345	50.63
798.52	51
798.695	52.39
798.87	48.23
799.045	49.72
799.22	49.55
799.395	52.92
799.57	49.52
799.745	51.15
799.92	51.39
800.095	51.71
800.27	50.26
800.445	51.47
800.62	49.37
800.795	52.31
800.97	51.18
801.145	50.49
801.319	49.15
801.494	50.48
801.669	51.14
801.844	50.2
802.018	50.28
802.193	50.47
802.368	50.43
802.543	52.01
802.717	52.87
802.892	53.01
803.067	52.97
803.241	53.63
803.416	55.53
803.59	51.08
803.765	53.46
803.94	51.54
804.114	50.74
804.289	51.74
804.463	53.98
804.638	53.21
804.812	52.34
804.986	55.64
805.161	52.85
805.335	54.34
805.51	55.59
805.684	52.71
805.858	53.93
806.033	56.83
806.207	55.32
806.381	53.42
806.556	51.64
806.73	51.57
806.904	48.86
807.078	49.89
807.253	46.72
807.427	44.1
807.601	47.03
807.775	47.54
807.949	45.3
808.123	45.38
808.298	44.64
808.472	46.66
808.646	46.99
808.82	49.2
808.994	47.88
809.168	49.33
809.342	55.58
809.516	56.09
809.69	55.24
809.864	54.13
810.038	53.23
810.212	56.22
810.385	54.59
810.559	57.11
810.733	56.58
810.907	57.79
811.081	58.53
811.255	56.82
811.428	54.92
811.602	55.83
811.776	54.32
811.95	57.76
812.123	56
812.297	56.1
812.471	55.08
812.644	52.98
812.818	52.75
812.992	49.58
813.165	47.25
813.339	47.39
813.512	48
813.686	49.51
813.86	49.02
814.033	52.47
814.207	55.28
814.38	56.85
814.554	58.02
814.727	57.61
814.9	57.7
815.074	60.03
815.247	59.53
815.421	57.85
815.594	60.1
815.767	56.41
815.941	51.93
816.114	49.94
816.287	49.83
816.46	46.64
816.634	49.2
816.807	51.96
816.98	51.47
817.153	49.78
817.327	51.42
817.5	50.21
817.673	50.47
817.846	52.58
818.019	52.18
818.192	51.59
818.365	53.96
818.538	54.39
818.711	54.24
818.884	52.64
819.057	54.11
819.23	54.95
819.403	54.45
819.576	53.8
819.749	51.55
819.922	48.55
820.095	45.99
820.268	46.66
820.441	43.84
820.614	44.94
820.786	44.37
820.959	44.22
821.132	42.59
821.305	41.53
821.477	41.27
821.65	41.33
821.823	42.45
821.996	42.54
822.168	42.05
822.341	41.61
822.514	40.88
822.686	40.94
822.859	40.66
823.031	41.13
823.204	41.38
823.376	41.62
823.549	41.52
823.722	41.13
823.894	40.65
824.067	40.37
824.239	40.79
824.411	40.32
824.584	40.61
824.756	40.85
824.929	40.61
825.101	40.07
825.273	39.9
825.446	40.42
825.618	41
825.79	41.28
825.963	41.84
826.135	42.07
826.307	41.64
826.479	41.53
826.652	40.91
826.824	40.19
826.996	40.65
827.168	40.46
827.34	41.19
827.512	40.08
827.684	40.46
827.856	39.51
828.029	40.06
828.201	40.26
828.373	40.55
828.545	41.16
828.717	42.23
828.889	42.78
829.061	43.9
829.232	42.85
829.404	44.37
829.576	44.75
829.748	46
829.92	45.49
830.092	46.19
830.264	46.94
830.436	48.14
830.607	48.45
830.779	48.19
830.951	48.32
831.123	48.25
831.294	47.98
831.466	49.12
831.638	49.2
831.809	50.21
831.981	51.65
832.153	50.41
832.324	51.93
832.496	51.73
832.667	52.7
832.839	51.15
833.011	52.59
833.182	52.67
833.354	49.57
833.525	49.87
833.697	49.2
833.868	49.08
834.039	48.12
834.211	45.03
834.382	43.56
834.554	43.2
834.725	43.22
834.896	41.78
835.068	42.14
835.239	43.69
835.41	43.75
835.581	43.98
835.753	44.23
835.924	44.82
836.095	44.78
836.266	45.08
836.438	44.6
836.609	43.7
836.78	43.16
836.951	42.74
837.122	41.19
837.293	42.67
837.464	41.86
837.635	40.75
837.806	39.79
837.977	42.21
838.148	41.31
838.319	43.73
838.49	45.21
838.661	46.1
838.832	45.61
839.003	47.15
839.174	41.6
839.345	42.71
839.516	43.36
839.687	46.37
839.857	40.84
840.028	44.35
840.199	43.29
840.37	45.67
840.54	48.38
840.711	50.08
840.882	49.93
841.053	53.13
841.223	50.87
841.394	52.61
841.564	48.92
841.735	53.28
841.906	55.29
842.076	52.54
842.247	51.07
842.417	51.79
842.588	57.34
842.758	60.51
842.929	58.84
843.099	59.31
843.27	59.31
843.44	63.78
843.611	66.4
843.781	63.33
843.951	66.8
844.122	69.27
844.292	69.1
844.462	65.32
844.633	67.4
844.803	70.41
844.973	73.76
845.144	73.64
845.314	68.16
845.484	67.45
845.654	69.14
845.824	72.52
845.995	71.37
846.165	68.62
846.335	66.35
846.505	66.42
846.675	63.22
846.845	68.21
847.015	70.07
847.185	76.3
847.355	76.92
847.525	78.37
847.695	70.33
847.865	72.11
848.035	77.94
848.205	77.43
848.375	78.92
848.545	81.41
848.715	74.56
848.884	68.8
849.054	71.93
849.224	73.86
849.394	75.22
849.564	79.91
849.733	80.9
849.903	76.4
850.073	77.11
850.243	71.82
850.412	67.13
850.582	70.08
850.752	67.78
850.921	60.42
851.091	51.7
851.26	52.99
851.43	51.26
851.599	44.71
851.769	43.06
851.939	44.57
852.108	44.01
852.278	50.09
852.447	46.69
852.616	50.07
852.786	57.14
852.955	64.91
853.125	67.01
853.294	70.15
853.463	75.26
853.633	74.22
853.802	74.72
853.971	78.94
854.141	70.12
854.31	72.39
854.479	75.29
854.648	70.69
854.818	72.98
854.987	71.51
855.156	67.96
855.325	66.72
855.494	63.47
855.663	69.37
855.832	72.64
856.001	79.84
856.171	77.01
856.34	75.22
856.509	73.84
856.678	64.23
856.847	64.31
857.016	64.33
857.185	65.88
857.353	69.8
857.522	60.23
857.691	51.27
857.86	48.9
858.029	54.52
858.198	58.04
858.367	60.58
858.535	69.72
858.704	69.26
858.873	67.24
859.042	72.68
859.21	82.91
859.379	86.63
859.548	94.02
859.717	94.34
859.885	94.72
860.054	89.89
860.222	88.23
860.391	88.34
860.56	90.06
860.728	94.81
860.897	89.12
861.065	91.38
861.234	90.12
861.402	85.67
861.571	82.64
861.739	89.73
861.908	94.43
862.076	93.16
862.244	96
862.413	94.13
862.581	85.53
862.749	91.43
862.918	84.97
863.086	81.91
863.254	85.1
863.423	90.13
863.591	66.8
863.759	68.07
863.927	69.72
864.096	66.84
864.264	63.9
864.432	61.57
864.6	61.52
864.768	51.82
864.936	51.84
865.104	52.97
865.272	52.25
865.44	60.41
865.608	51.23
865.776	52.23
865.944	50.52
866.112	49.25
866.28	59.08
866.448	57.55
866.616	59.76
866.784	58.76
866.952	57.34
867.12	54.48
867.288	52.39
867.455	56.83
867.623	57.41
867.791	63.8
867.959	73.1
868.127	65.78
868.294	71.53
868.462	87.78
868.63	109
868.797	105.79
868.965	100.96
869.133	97.43
869.3	87.42
869.468	85.08
869.636	72.53
869.803	60.41
869.971	66.59
870.138	55.72
870.306	51.3
870.473	45.76
870.641	43.55
870.808	45.55
870.975	53.63
871.143	60.86
871.31	76.77
871.478	91.45
871.645	102.52
871.812	110.31
871.98	138.83
872.147	150.62
872.314	140.7
872.482	149.14
872.649	119.81
872.816	113.28
872.983	118.05
873.15	91.85
873.318	69.92
873.485	67.53
873.652	58.55
873.819	44.38
873.986	45.04
874.153	49.55
874.32	56.09
874.487	63.84
874.654	64.67
874.821	73.31
874.988	80.13
875.155	89.76
875.322	86.12
875.489	91.47
875.656	104.2
875.823	107.28
875.99	106.34
876.157	110.52
876.324	105.35
876.49	103.25
876.657	99.93
876.824	92.05
876.991	97.22
877.157	106.44
877.324	111.93
877.491	96.06
877.658	89.92
877.824	91.15
877.991	85.79
878.157	87.91
878.324	90.87
878.491	88.16
878.657	91.2
878.824	93.92
878.99	98.58
879.157	94.97
879.323	87.76
879.49	85.08
879.656	83.51
879.823	76.36
879.989	75.01
880.156	70.9
880.322	69.13
880.488	60.82
880.655	53.35
880.821	48.71
880.987	45.88
881.154	51.7
881.32	53.79
881.486	55.64
881.652	54.4
881.819	49.14
881.985	48.1
882.151	45.52
882.317	46.45
882.483	47.2
882.649	48.64
882.816	49.99
882.982	48.58
883.148	46.09
883.314	45.69
883.48	45.53
883.646	46.43
883.812	47.47
883.978	46.93
884.144	47.87
884.31	49.21
884.476	48.46
884.642	47.01
884.807	47.04
884.973	47.34
885.139	47.29
885.305	46.4
885.471	46.15
885.637	45.33
885.802	48.58
885.968	47.42
886.134	45.49
886.3	46.37
886.465	48.18
886.631	47.17
886.797	49.17
886.962	48.66
887.128	49.52
887.293	49.28
887.459	50.55
887.625	46.7
887.79	50.61
887.956	52.2
888.121	50.38
888.287	47.95
888.452	50.31
888.618	50.13
888.783	48.92
