Data from CB_041_Reflection_21-55-42-342.txt Node
Date: Wed Nov 11 21:55:42 EST 2015
User: robert
Spectrometer: USB4E03001
Autoset integration time: false
Trigger mode: 4
Integration Time (sec): 1.000000E-1
Scans to average: 15
Electric dark correction enabled: true
Nonlinearity correction enabled: false
Boxcar width: 5
Stray light correction enabled: false
XAxis mode: Wavelengths
Stop averaging: false
Number of Pixels in Spectrum: 3648
>>>>>Begin Spectral Data<<<<<
177.566	212.32
177.785	1009.21
178.005	-106.48
178.225	-323.89
178.445	99.63
178.665	116.01
178.885	591.55
179.105	-81.89
179.324	19.82
179.544	70.38
179.764	141.22
179.984	146.44
180.204	138.31
180.423	180.81
180.643	134.7
180.863	115.59
181.083	116.58
181.302	106.75
181.522	86.77
181.742	79.5
181.961	91
182.181	96.55
182.401	102.13
182.621	112.43
182.84	104.62
183.06	107.05
183.279	98.4
183.499	94.43
183.719	93.01
183.938	119.14
184.158	119.93
184.377	116.55
184.597	102.16
184.816	112.82
185.036	93.64
185.256	86
185.475	84.08
185.695	71.63
185.914	102.34
186.134	99.82
186.353	73.22
186.572	39.35
186.792	6.64
187.011	6.45
187.231	-1.62
187.45	-29.12
187.67	-45.71
187.889	-22.54
188.108	11.03
188.328	3.43
188.547	5.52
188.766	1.8
188.986	13.56
189.205	17.4
189.424	19.76
189.644	15.53
189.863	-1.9
190.082	22.29
190.302	15.45
190.521	20.65
190.74	22.64
190.959	19.74
191.178	37.03
191.398	29.74
191.617	31.71
191.836	32.89
192.055	26.81
192.274	33.13
192.494	14.91
192.713	25.57
192.932	43.18
193.151	37.48
193.37	44.92
193.589	30.61
193.808	38.97
194.027	52.35
194.246	55.12
194.465	68.73
194.685	82.79
194.904	81.16
195.123	80.69
195.342	57.83
195.561	82.03
195.78	90.75
195.999	124.64
196.218	89.74
196.436	86.03
196.655	105.39
196.874	114.94
197.093	105.95
197.312	97.6
197.531	97
197.75	97.33
197.969	83.5
198.188	69.14
198.407	65.86
198.625	80.82
198.844	75.65
199.063	63.34
199.282	57.37
199.501	66.69
199.719	69.96
199.938	83.49
200.157	117.33
200.376	94.9
200.594	139.23
200.813	112.35
201.032	139.43
201.251	177.64
201.469	171.99
201.688	179.81
201.907	142.22
202.125	110.73
202.344	115.03
202.563	137.98
202.781	132.53
203	124.91
203.218	133.73
203.437	113.24
203.656	91.72
203.874	84.64
204.093	81.23
204.311	80.1
204.53	101.24
204.748	82.05
204.967	58.93
205.185	71.25
205.404	67.48
205.622	60.27
205.841	73.71
206.059	71.86
206.278	77.17
206.496	60.59
206.715	63.06
206.933	72.85
207.151	69.23
207.37	79.73
207.588	71.03
207.806	65.44
208.025	70.41
208.243	61.67
208.461	76.7
208.68	71.57
208.898	79.19
209.116	66.21
209.335	61.02
209.553	51.96
209.771	41.34
209.989	53.13
210.208	47.09
210.426	44.42
210.644	42.14
210.862	33.35
211.081	46.72
211.299	65.24
211.517	84.13
211.735	80
211.953	111.95
212.171	109.22
212.39	100.96
212.608	99.82
212.826	89.25
213.044	108.97
213.262	91.08
213.48	97.86
213.698	93.81
213.916	103.03
214.134	108.28
214.352	109.52
214.57	82.11
214.788	70.9
215.006	90.55
215.224	52.7
215.442	-20.15
215.66	19.47
215.878	46.84
216.096	46.73
216.314	42.22
216.532	45.16
216.75	43.96
216.968	37.06
217.185	39.43
217.403	45.55
217.621	45.69
217.839	55.88
218.057	46.67
218.275	49.29
218.492	53.13
218.71	52.24
218.928	47.85
219.146	44.61
219.363	51.82
219.581	71.35
219.799	51.96
220.017	77.08
220.234	58.76
220.452	80.2
220.67	63.72
220.887	50.45
221.105	62.63
221.323	66.55
221.54	72.95
221.758	58.29
221.976	42.89
222.193	51.57
222.411	36.63
222.629	45
222.846	35.1
223.064	26.56
223.281	31.61
223.499	36.34
223.716	35.88
223.934	41.12
224.151	36.66
224.369	33.61
224.586	34.9
224.804	53.37
225.021	50.35
225.239	60.58
225.456	65.54
225.674	54.82
225.891	49.22
226.108	50.59
226.326	38.26
226.543	46.8
226.76	58.79
226.978	39.59
227.195	38.9
227.413	34.85
227.63	33.22
227.847	30.58
228.064	30.1
228.282	25.68
228.499	22.85
228.716	23.02
228.934	21.29
229.151	14.48
229.368	15.29
229.585	14.56
229.802	13.56
230.02	9.79
230.237	8.49
230.454	9.5
230.671	9.65
230.888	10.37
231.105	11.13
231.323	15.69
231.54	20.51
231.757	22.86
231.974	24.8
232.191	25.41
232.408	32.14
232.625	33.07
232.842	32.04
233.059	31.18
233.276	30.93
233.493	32.31
233.71	27.15
233.927	27.76
234.144	27.01
234.361	22.7
234.578	24.52
234.795	21.75
235.012	21.82
235.229	17.9
235.446	22.89
235.663	24.15
235.879	23.75
236.096	23.78
236.313	20.56
236.53	19.92
236.747	24.91
236.964	21.94
237.181	24.14
237.397	21.85
237.614	25.69
237.831	21.56
238.048	22.17
238.264	17.74
238.481	17.25
238.698	23.18
238.915	26.04
239.131	19.47
239.348	22.11
239.565	20.7
239.781	22.79
239.998	25.41
240.215	23.45
240.431	24.37
240.648	25.57
240.865	24.74
241.081	23.51
241.298	23.01
241.514	22.96
241.731	23.65
241.947	22.41
242.164	21.77
242.38	19.92
242.597	18.77
242.814	17.63
243.03	18.22
243.246	17.67
243.463	16.52
243.679	15.67
243.896	19.17
244.112	16.84
244.329	19.8
244.545	18.57
244.762	18.29
244.978	20.09
245.194	20.48
245.411	19.12
245.627	19.2
245.843	19.75
246.06	19.04
246.276	16.12
246.492	15.3
246.709	13.46
246.925	14.93
247.141	14.98
247.357	13.07
247.574	12.81
247.79	13.62
248.006	14.02
248.222	13.93
248.439	14.07
248.655	14.35
248.871	14.43
249.087	14.68
249.303	15.09
249.519	15.59
249.736	17.81
249.952	18.86
250.168	17.86
250.384	17.43
250.6	18.46
250.816	19.3
251.032	18.77
251.248	19.99
251.464	17.95
251.68	17.37
251.896	16.32
252.112	16.29
252.328	14.4
252.544	15.14
252.76	15.66
252.976	14.29
253.192	12.61
253.408	12.44
253.624	13.55
253.84	14.58
254.056	14.09
254.272	18.68
254.487	18.92
254.703	22.2
254.919	21.44
255.135	21.77
255.351	22.86
255.567	25.66
255.782	25.36
255.998	21.89
256.214	20.94
256.43	22.46
256.646	19.36
256.861	18.18
257.077	13.88
257.293	13.52
257.508	12.03
257.724	12.29
257.94	11.23
258.155	10.84
258.371	11.53
258.587	12.85
258.802	11.59
259.018	10.84
259.234	10.86
259.449	11.69
259.665	11.2
259.88	11.06
260.096	10.21
260.312	10.25
260.527	10.64
260.743	10.25
260.958	9.73
261.174	9.88
261.389	9.9
261.605	9.81
261.82	10.61
262.036	11.84
262.251	13.73
262.466	15.39
262.682	14.03
262.897	13.92
263.113	14.64
263.328	14.01
263.543	11.83
263.759	11.11
263.974	14.63
264.189	13.63
264.405	12.29
264.62	8.11
264.835	5.95
265.051	6.84
265.266	7.16
265.481	8.22
265.696	9.42
265.912	12.65
266.127	14.32
266.342	12.73
266.557	12.89
266.773	12.44
266.988	13.76
267.203	12.64
267.418	13.23
267.633	13.18
267.848	12.27
268.064	11.17
268.279	10.56
268.494	8.83
268.709	7.35
268.924	7.97
269.139	8.57
269.354	7.6
269.569	9.6
269.784	9.61
269.999	9.23
270.214	9.77
270.429	11.11
270.644	10.22
270.859	11.42
271.074	12.38
271.289	12.99
271.504	13.89
271.719	14.36
271.934	13.38
272.149	13.15
272.363	13.66
272.578	13.59
272.793	13.14
273.008	13.31
273.223	13.26
273.438	12.65
273.653	12.38
273.867	11.77
274.082	11.98
274.297	12.56
274.512	12.46
274.726	10.68
274.941	11.21
275.156	11.76
275.371	10.8
275.585	10.02
275.8	11.22
276.015	9.35
276.229	8.98
276.444	9.21
276.659	9.36
276.873	11.03
277.088	13.23
277.302	12.65
277.517	12.85
277.732	14.7
277.946	14.7
278.161	14.87
278.375	14.81
278.59	15.14
278.804	14.42
279.019	14.48
279.233	12.96
279.448	12.38
279.662	11.64
279.877	11.02
280.091	10.52
280.306	10.82
280.52	9.95
280.735	12.04
280.949	11.59
281.163	11.94
281.378	11.45
281.592	10.99
281.806	11.3
282.021	11.08
282.235	11.63
282.449	11.21
282.664	11.6
282.878	10.81
283.092	9.56
283.307	10.32
283.521	9.93
283.735	10.78
283.949	11.18
284.164	10.99
284.378	11.74
284.592	11.21
284.806	11.59
285.02	11.1
285.234	12.24
285.449	12.86
285.663	12.9
285.877	13.58
286.091	13.64
286.305	13
286.519	12.78
286.733	12.45
286.947	12.47
287.161	11.54
287.375	12.77
287.589	12.5
287.803	11.65
288.017	9.53
288.231	9.93
288.445	10.5
288.659	10.46
288.873	11.4
289.087	11.8
289.301	12.43
289.515	13.96
289.729	13.05
289.943	11.94
290.157	12.52
290.371	13.47
290.584	13.13
290.798	12.41
291.012	13.94
291.226	14.01
291.44	13.73
291.654	13.2
291.867	11.87
292.081	11.81
292.295	13.32
292.509	13.03
292.722	13
292.936	12.33
293.15	11.58
293.364	11.1
293.577	10.74
293.791	11.39
294.005	10.16
294.218	11.68
294.432	11.65
294.645	11.04
294.859	10.76
295.073	10.39
295.286	10.25
295.5	10.99
295.713	10.6
295.927	10.44
296.14	10.28
296.354	11.04
296.568	10.35
296.781	10.37
296.994	10.49
297.208	11.56
297.421	11.34
297.635	11.15
297.848	10.98
298.062	11.47
298.275	11.42
298.489	11.71
298.702	12.3
298.915	12.51
299.129	14.24
299.342	14.65
299.555	14.65
299.769	15.89
299.982	16.24
300.195	16.44
300.409	16.18
300.622	16.53
300.835	16.24
301.048	15.74
301.262	15.85
301.475	13.47
301.688	13.13
301.901	12.51
302.115	12.3
302.328	13.43
302.541	12.87
302.754	13.14
302.967	12.76
303.18	13.4
303.393	12.61
303.607	12.77
303.82	12.51
304.033	11.71
304.246	10.9
304.459	11.39
304.672	11.18
304.885	12.42
305.098	11.58
305.311	11.78
305.524	11.42
305.737	13.72
305.95	12.86
306.163	14.35
306.376	15.38
306.589	16.24
306.802	16.65
307.015	17.04
307.228	16.69
307.44	18.06
307.653	18.66
307.866	18.17
308.079	16.55
308.292	17
308.505	16.1
308.718	16.23
308.93	15.77
309.143	14.54
309.356	13.87
309.569	13.72
309.781	13.16
309.994	11.79
310.207	12.12
310.42	12.49
310.632	13.46
310.845	14.13
311.058	14.46
311.27	14.58
311.483	15.1
311.696	14.62
311.908	15.19
312.121	14.81
312.333	15.52
312.546	15.56
312.759	15.94
312.971	14.66
313.184	13.3
313.396	12.62
313.609	13.9
313.821	13.52
314.034	14.02
314.246	13.04
314.459	13.58
314.671	12.94
314.884	13.52
315.096	13.64
315.309	14.17
315.521	14.47
315.733	14.16
315.946	12.86
316.158	13.37
316.371	12.36
316.583	12.44
316.795	12.79
317.008	13.43
317.22	12.74
317.432	12.86
317.644	12.86
317.857	14.29
318.069	15.22
318.281	14.64
318.494	14.46
318.706	15.64
318.918	16.53
319.13	16.5
319.342	16.77
319.555	16.59
319.767	15.66
319.979	15.38
320.191	14.77
320.403	15.7
320.615	16.53
320.827	16.8
321.039	16
321.252	14.78
321.464	14.85
321.676	14.59
321.888	15.04
322.1	15.64
322.312	15.57
322.524	16.51
322.736	15.72
322.948	15.01
323.16	14.06
323.372	14.45
323.584	14.85
323.796	14.67
324.007	14.97
324.219	15.87
324.431	15.83
324.643	16.75
324.855	15.77
325.067	15.49
325.279	16.32
325.491	17.83
325.702	18.98
325.914	19.38
326.126	18.96
326.338	18.25
326.55	17.55
326.761	17.45
326.973	16.88
327.185	16.62
327.396	17.02
327.608	16.66
327.82	16.98
328.032	16.72
328.243	17.44
328.455	18.94
328.666	20.24
328.878	20.5
329.09	19.96
329.301	19.87
329.513	19.52
329.725	18.5
329.936	19.57
330.148	17.68
330.359	17.32
330.571	16.48
330.782	15.77
330.994	16.04
331.205	15.85
331.417	17
331.628	17.94
331.84	18.72
332.051	19.54
332.262	19.25
332.474	21.26
332.685	21.72
332.897	21.81
333.108	23.42
333.319	22.86
333.531	23.38
333.742	23.82
333.953	23.7
334.165	23.28
334.376	23.53
334.587	22.64
334.799	22.46
335.01	22.37
335.221	22.31
335.432	20.95
335.644	21.07
335.855	20.78
336.066	20.11
336.277	19.98
336.488	20.39
336.7	19.94
336.911	20.2
337.122	19.98
337.333	20.35
337.544	21.07
337.755	21.14
337.966	20.86
338.177	21.09
338.388	20.49
338.599	20.98
338.811	20.88
339.022	20.81
339.233	20.47
339.444	20.18
339.655	18.8
339.866	18.47
340.076	18.68
340.287	19.74
340.498	19.35
340.709	20.01
340.92	20.07
341.131	20.46
341.342	21.3
341.553	21.83
341.764	21.04
341.975	21.84
342.185	21.72
342.396	20.86
342.607	20.24
342.818	19.48
343.029	19.18
343.239	18.87
343.45	19.09
343.661	18.06
343.872	17.94
344.082	18.03
344.293	18.54
344.504	18.23
344.714	19.44
344.925	19.04
345.136	20.13
345.346	21.09
345.557	20.8
345.768	20.16
345.978	20.84
346.189	21.43
346.399	22.22
346.61	21.81
346.821	22.36
347.031	21.65
347.242	21.71
347.452	21.8
347.663	21.27
347.873	21.51
348.084	22.12
348.294	21.89
348.504	20.94
348.715	21
348.925	20.7
349.136	19.99
349.346	20.24
349.557	20.32
349.767	19.76
349.977	19.78
350.188	19.64
350.398	19.09
350.608	19.31
350.819	19.42
351.029	18.64
351.239	18.51
351.449	19.38
351.66	18.52
351.87	19.02
352.08	19.26
352.29	19.34
352.501	19.77
352.711	20.16
352.921	19.61
353.131	19.98
353.341	20.25
353.552	20.6
353.762	19.53
353.972	20.41
354.182	19.31
354.392	18.97
354.602	18.13
354.812	17.32
355.022	17.22
355.232	17.61
355.442	18.01
355.652	18.54
355.862	18.52
356.072	18.67
356.282	18.67
356.492	19.67
356.702	19.93
356.912	20.43
357.122	20.56
357.332	20.96
357.542	21.26
357.752	20.36
357.962	19.97
358.171	20.02
358.381	19.81
358.591	19.14
358.801	18.73
359.011	18.02
359.221	18
359.43	18.58
359.64	17.26
359.85	17.16
360.06	17.49
360.269	17.77
360.479	17.62
360.689	17.83
360.899	17.84
361.108	18.02
361.318	18.32
361.528	18.48
361.737	17.57
361.947	18.64
362.156	18.01
362.366	18.14
362.576	17.77
362.785	17.73
362.995	17.75
363.204	18.15
363.414	17.91
363.623	18.05
363.833	17.73
364.042	18.04
364.252	18.13
364.461	18.37
364.671	18.55
364.88	18.7
365.09	18.62
365.299	18.28
365.509	18.18
365.718	18.42
365.927	18.34
366.137	18.16
366.346	18.54
366.555	18.34
366.765	18.11
366.974	18.06
367.183	17.89
367.393	17.58
367.602	18.42
367.811	18.08
368.021	17.41
368.23	17.02
368.439	17.09
368.648	16.91
368.857	16.23
369.067	16.25
369.276	15.53
369.485	15.61
369.694	15.68
369.903	14.97
370.112	14.96
370.321	16.02
370.531	15.99
370.74	16.33
370.949	16.26
371.158	16.09
371.367	16.31
371.576	16.93
371.785	16.45
371.994	16.73
372.203	17.28
372.412	17.44
372.621	16.43
372.83	16.15
373.039	15.58
373.248	15.4
373.457	15.67
373.666	15.13
373.874	14.61
374.083	14.81
374.292	14.38
374.501	14.43
374.71	13.72
374.919	14.17
375.128	14.44
375.336	14.52
375.545	14.19
375.754	14.38
375.963	14.67
376.171	14.49
376.38	14.31
376.589	14.68
376.798	13.92
377.006	13.67
377.215	13.44
377.424	13.64
377.632	13.63
377.841	13.74
378.05	13.4
378.258	13.19
378.467	13.25
378.675	13.19
378.884	12.68
379.093	12.42
379.301	12.95
379.51	13.01
379.718	13.21
379.927	13.07
380.135	13.26
380.344	12.69
380.552	12.77
380.761	12.69
380.969	12.68
381.177	12.76
381.386	12.79
381.594	12.66
381.803	12.25
382.011	11.33
382.219	11.43
382.428	11.43
382.636	11.64
382.845	11.77
383.053	11.68
383.261	11.38
383.469	11.44
383.678	11.2
383.886	11.14
384.094	11.16
384.302	11.76
384.511	11.98
384.719	11.62
384.927	11.78
385.135	11.5
385.343	11.47
385.552	11.85
385.76	11.8
385.968	12.04
386.176	12.27
386.384	12.43
386.592	12.54
386.8	12.26
387.008	12.51
387.216	12.3
387.424	12.2
387.633	11.89
387.841	11.66
388.049	11.31
388.257	11.54
388.465	11.08
388.672	10.89
388.88	10.61
389.088	10.49
389.296	10.22
389.504	10.42
389.712	10.53
389.92	10.69
390.128	10.47
390.336	10.67
390.544	10.3
390.751	10.06
390.959	10.03
391.167	9.87
391.375	9.92
391.583	10.06
391.79	9.78
391.998	9.84
392.206	9.71
392.414	9.64
392.621	9.21
392.829	9.44
393.037	9.85
393.244	9.77
393.452	9.65
393.66	9.4
393.867	9.15
394.075	9.31
394.283	9.06
394.49	9.31
394.698	9.52
394.905	9.83
395.113	9.6
395.32	9.28
395.528	9.26
395.735	9.44
395.943	9.38
396.15	9.35
396.358	9.22
396.565	9.36
396.773	9.2
396.98	9.27
397.188	9.11
397.395	9.13
397.602	9.25
397.81	9.46
398.017	9.18
398.225	9.02
398.432	8.91
398.639	9.07
398.847	8.9
399.054	8.73
399.261	8.19
399.468	8.43
399.676	8.43
399.883	7.91
400.09	7.23
400.297	7.23
400.505	6.96
400.712	6.96
400.919	6.7
401.126	6.94
401.333	6.87
401.54	7.24
401.748	7.25
401.955	7.34
402.162	7.93
402.369	8.36
402.576	8.37
402.783	8.79
402.99	8.49
403.197	8.1
403.404	7.87
403.611	8.29
403.818	8.14
404.025	7.75
404.232	7.5
404.439	7.45
404.646	7.07
404.853	7.09
405.06	7.04
405.267	7.13
405.474	7.13
405.681	6.88
405.887	6.73
406.094	6.5
406.301	6.83
406.508	6.78
406.715	6.65
406.922	7.3
407.128	7.5
407.335	7.46
407.542	7.53
407.749	7.82
407.955	8.02
408.162	7.69
408.369	7.41
408.575	7.18
408.782	7.43
408.989	7.26
409.195	6.66
409.402	6.33
409.609	6.35
409.815	6.45
410.022	6.53
410.228	6.57
410.435	6.82
410.642	7.18
410.848	7.03
411.055	7.01
411.261	7.06
411.468	7.26
411.674	7.51
411.881	7.41
412.087	7.55
412.294	7.35
412.5	7.35
412.706	7.18
412.913	7.17
413.119	7.53
413.326	7.27
413.532	7.28
413.738	7.37
413.945	6.83
414.151	6.98
414.357	6.73
414.564	6.85
414.77	6.61
414.976	6.74
415.182	6.53
415.389	6.36
415.595	6.32
415.801	6.32
416.007	6.14
416.214	6.22
416.42	6.26
416.626	6.38
416.832	6.37
417.038	6.61
417.244	6.4
417.45	6.62
417.657	6.5
417.863	6.59
418.069	6.58
418.275	6.76
418.481	6.75
418.687	6.68
418.893	6.5
419.099	6.64
419.305	6.46
419.511	6.49
419.717	6.48
419.923	6.43
420.129	6.38
420.335	6.5
420.541	6.38
420.746	6.33
420.952	6.23
421.158	6.19
421.364	5.94
421.57	5.85
421.776	5.87
421.982	5.79
422.187	5.87
422.393	5.83
422.599	5.66
422.805	5.58
423.01	5.61
423.216	5.47
423.422	5.45
423.628	5.52
423.833	5.45
424.039	5.48
424.245	5.62
424.45	5.62
424.656	5.62
424.862	5.59
425.067	5.69
425.273	5.75
425.478	5.93
425.684	6.03
425.889	6.04
426.095	6.36
426.301	6.24
426.506	6.27
426.712	6.21
426.917	6.23
427.123	6.24
427.328	6.12
427.533	6.06
427.739	6.17
427.944	6.17
428.15	6.22
428.355	6.07
428.561	6.28
428.766	6.17
428.971	6.21
429.177	6.41
429.382	6.63
429.587	6.48
429.793	6.37
429.998	6.26
430.203	5.97
430.408	5.8
430.614	5.98
430.819	5.9
431.024	5.92
431.229	6.1
431.434	5.67
431.64	5.62
431.845	5.88
432.05	6.1
432.255	6.09
432.46	6.21
432.665	6.06
432.87	5.88
433.076	6.04
433.281	5.86
433.486	5.58
433.691	5.77
433.896	5.67
434.101	5.66
434.306	5.66
434.511	5.46
434.716	5.51
434.921	5.84
435.126	5.75
435.331	5.46
435.535	5.42
435.74	5.64
435.945	5.44
436.15	5.51
436.355	5.36
436.56	5.34
436.765	5.17
436.97	5.26
437.174	5.13
437.379	5.27
437.584	5.2
437.789	5.37
437.993	5.31
438.198	5.49
438.403	5.49
438.608	5.57
438.812	5.6
439.017	5.84
439.222	5.74
439.426	5.66
439.631	5.64
439.836	5.93
440.04	5.75
440.245	5.74
440.45	5.56
440.654	5.54
440.859	5.54
441.063	5.33
441.268	5.37
441.472	5.37
441.677	5.55
441.881	5.6
442.086	5.43
442.29	5.52
442.495	5.55
442.699	5.77
442.904	5.71
443.108	5.74
443.312	5.99
443.517	5.99
443.721	6.09
443.925	5.89
444.13	5.71
444.334	5.71
444.538	5.75
444.743	5.6
444.947	5.35
445.151	5.36
445.356	5.23
445.56	5.2
445.764	5.22
445.968	5.17
446.173	5.23
446.377	5.29
446.581	5.26
446.785	5.27
446.989	5.23
447.193	5.47
447.398	5.48
447.602	5.4
447.806	5.31
448.01	5.41
448.214	5.41
448.418	5.4
448.622	5.31
448.826	5.34
449.03	5.36
449.234	5.44
449.438	5.41
449.642	5.37
449.846	5.54
450.05	5.78
450.254	5.51
450.458	5.61
450.662	5.62
450.866	5.58
451.069	5.58
451.273	5.37
451.477	5.16
451.681	4.96
451.885	4.99
452.089	4.93
452.292	4.73
452.496	4.76
452.7	4.66
452.904	4.63
453.107	4.95
453.311	4.98
453.515	5.1
453.719	5.46
453.922	5.58
454.126	5.57
454.33	5.63
454.533	5.67
454.737	5.83
454.94	6.03
455.144	5.9
455.348	5.66
455.551	5.69
455.755	5.59
455.958	5.54
456.162	5.6
456.365	5.8
456.569	5.82
456.772	5.97
456.976	5.77
457.179	5.71
457.383	5.82
457.586	5.82
457.79	5.76
457.993	5.65
458.196	5.52
458.4	5.32
458.603	5.13
458.807	5.15
459.01	5.08
459.213	5.18
459.417	5.07
459.62	5.11
459.823	5.12
460.026	5.08
460.23	5.18
460.433	5.12
460.636	5.26
460.839	5.27
461.042	5.19
461.246	5.16
461.449	5.07
461.652	5.07
461.855	4.94
462.058	4.95
462.261	5.04
462.464	5.1
462.668	5.17
462.871	4.93
463.074	4.79
463.277	4.86
463.48	4.91
463.683	4.95
463.886	4.92
464.089	5.29
464.292	5.36
464.495	5.21
464.698	5.3
464.901	5.28
465.104	5.51
465.306	5.53
465.509	5.43
465.712	5.43
465.915	5.51
466.118	5.63
466.321	5.34
466.524	5.35
466.726	5.27
466.929	5.12
467.132	5.15
467.335	5.12
467.538	5.31
467.74	5.51
467.943	5.36
468.146	5.31
468.348	5.33
468.551	5.37
468.754	5.45
468.956	5.35
469.159	5.34
469.362	5.19
469.564	5.28
469.767	5.13
469.969	5.13
470.172	4.97
470.375	4.93
470.577	4.75
470.78	4.73
470.982	4.71
471.185	4.82
471.387	4.99
471.59	5.06
471.792	4.73
471.995	4.76
472.197	4.65
472.399	4.67
472.602	4.78
472.804	5.05
473.007	5.18
473.209	5.05
473.411	5.18
473.614	4.97
473.816	4.88
474.018	5.26
474.22	5.42
474.423	5.4
474.625	5.6
474.827	5.62
475.03	5.55
475.232	5.59
475.434	5.52
475.636	5.44
475.838	5.6
476.04	5.67
476.243	5.41
476.445	5.28
476.647	5.44
476.849	5.66
477.051	5.51
477.253	5.34
477.455	5.22
477.657	5.13
477.859	5.3
478.061	5.38
478.263	5.41
478.465	5.49
478.667	5.4
478.869	5.18
479.071	4.97
479.273	5.1
479.475	5.16
479.677	5.22
479.879	5.33
480.081	5.23
480.283	5.11
480.485	5.24
480.686	5.14
480.888	5.22
481.09	5.38
481.292	5.45
481.494	5.34
481.695	5.28
481.897	5.26
482.099	5.21
482.301	5.25
482.502	5.21
482.704	5.13
482.906	5.17
483.107	5.15
483.309	5.04
483.511	5
483.712	4.98
483.914	4.98
484.115	4.97
484.317	4.93
484.519	4.88
484.72	4.9
484.922	4.84
485.123	4.83
485.325	4.78
485.526	4.79
485.728	4.76
485.929	4.76
486.131	4.76
486.332	4.79
486.534	4.85
486.735	4.84
486.936	4.81
487.138	4.87
487.339	4.86
487.541	4.92
487.742	4.92
487.943	4.97
488.144	4.98
488.346	4.95
488.547	4.89
488.748	4.83
488.95	4.84
489.151	4.77
489.352	4.83
489.553	4.84
489.755	4.84
489.956	4.89
490.157	4.81
490.358	4.85
490.559	4.87
490.76	4.88
490.961	4.95
491.163	5.02
491.364	5.12
491.565	5.11
491.766	5.13
491.967	5.12
492.168	5.09
492.369	5.14
492.57	5.05
492.771	5.08
492.972	5.11
493.173	5.11
493.374	5.04
493.575	4.99
493.776	4.93
493.976	5
494.177	5.04
494.378	5.16
494.579	5.17
494.78	5.25
494.981	5.1
495.182	5.05
495.382	5.17
495.583	5.3
495.784	5.31
495.985	5.38
496.185	5.39
496.386	5.37
496.587	5.28
496.788	5.16
496.988	5.22
497.189	5.32
497.39	5.42
497.59	5.42
497.791	5.41
497.992	5.57
498.192	5.59
498.393	5.41
498.593	5.52
498.794	5.49
498.994	5.53
499.195	5.42
499.395	5.55
499.596	5.52
499.796	5.41
499.997	5.65
500.197	5.64
500.398	5.63
500.598	5.73
500.799	5.55
500.999	5.67
501.199	5.79
501.4	6.01
501.6	5.94
501.801	5.88
502.001	6.07
502.201	5.85
502.402	5.7
502.602	5.79
502.802	5.85
503.002	5.99
503.203	5.77
503.403	5.75
503.603	5.85
503.803	6.18
504.003	6.21
504.204	6.26
504.404	6.48
504.604	6.58
504.804	6.65
505.004	6.79
505.204	6.91
505.404	7.2
505.604	7.26
505.804	7.27
506.005	7.16
506.205	7.34
506.405	7.29
506.605	7.1
506.805	7.22
507.005	7.16
507.204	7.1
507.404	7.25
507.604	7.18
507.804	7.45
508.004	7.42
508.204	7.45
508.404	7.44
508.604	7.48
508.804	7.58
509.003	7.67
509.203	7.84
509.403	7.95
509.603	7.93
509.803	8.06
510.002	8.02
510.202	8.06
510.402	8.15
510.602	8.22
510.801	8.27
511.001	8.46
511.201	8.46
511.4	8.42
511.6	8.53
511.8	8.52
511.999	8.67
512.199	8.74
512.398	8.93
512.598	9.06
512.797	9.19
512.997	9.38
513.197	9.34
513.396	9.4
513.596	9.45
513.795	9.59
513.994	9.89
514.194	9.92
514.393	9.9
514.593	9.96
514.792	9.99
514.992	10.09
515.191	10.24
515.39	10.43
515.59	10.66
515.789	10.82
515.988	10.91
516.188	10.78
516.387	10.91
516.586	11.17
516.786	11.14
516.985	11.29
517.184	11.35
517.383	11.48
517.582	11.58
517.782	11.57
517.981	11.64
518.18	11.63
518.379	11.7
518.578	11.86
518.777	11.73
518.976	11.96
519.176	11.95
519.375	12.13
519.574	12.03
519.773	12.09
519.972	12.22
520.171	12.32
520.37	12.46
520.569	12.55
520.768	12.58
520.967	12.93
521.166	12.88
521.365	13.03
521.564	13.14
521.762	13.35
521.961	13.47
522.16	13.43
522.359	13.41
522.558	13.51
522.757	13.64
522.956	13.68
523.154	13.75
523.353	13.95
523.552	14.14
523.751	14.16
523.949	14.49
524.148	14.49
524.347	14.64
524.546	14.92
524.744	15.03
524.943	15.2
525.142	15.44
525.34	15.52
525.539	15.72
525.737	15.81
525.936	15.95
526.135	16.03
526.333	16.25
526.532	16.35
526.73	16.44
526.929	16.62
527.127	16.72
527.326	16.76
527.524	16.88
527.723	17.03
527.921	17.12
528.12	17.14
528.318	17.21
528.516	17.26
528.715	17.4
528.913	17.48
529.112	17.58
529.31	17.62
529.508	17.68
529.707	17.76
529.905	17.75
530.103	17.85
530.301	17.89
530.5	17.99
530.698	18.17
530.896	18.32
531.094	18.45
531.293	18.55
531.491	18.81
531.689	19.03
531.887	19.17
532.085	19.35
532.283	19.42
532.481	19.69
532.68	19.72
532.878	19.72
533.076	19.81
533.274	19.85
533.472	19.97
533.67	19.95
533.868	20.03
534.066	20.2
534.264	20.29
534.462	20.43
534.66	20.5
534.858	20.59
535.056	20.83
535.253	20.96
535.451	21.07
535.649	21.04
535.847	21.21
536.045	21.37
536.243	21.36
536.441	21.52
536.638	21.66
536.836	21.77
537.034	21.88
537.232	21.86
537.43	21.92
537.627	22.12
537.825	22.38
538.023	22.47
538.22	22.52
538.418	22.78
538.616	22.72
538.813	22.91
539.011	22.99
539.209	23.14
539.406	23.25
539.604	23.38
539.801	23.48
539.999	23.52
540.196	23.85
540.394	23.91
540.591	23.98
540.789	24.19
540.986	24.08
541.184	24.1
541.381	24.19
541.579	24.3
541.776	24.34
541.974	24.39
542.171	24.43
542.368	24.37
542.566	24.45
542.763	24.48
542.96	24.41
543.158	24.58
543.355	24.66
543.552	24.78
543.75	24.85
543.947	24.8
544.144	24.92
544.341	25.12
544.539	25.12
544.736	25.16
544.933	25.24
545.13	25.48
545.327	25.56
545.524	25.65
545.722	25.61
545.919	25.61
546.116	25.72
546.313	25.94
546.51	25.9
546.707	26.04
546.904	26.09
547.101	26.1
547.298	26.07
547.495	26.15
547.692	26.14
547.889	26.21
548.086	26.32
548.283	26.56
548.48	26.51
548.677	26.7
548.874	26.73
549.07	26.92
549.267	27
549.464	27.24
549.661	27.32
549.858	27.66
550.055	27.79
550.251	27.88
550.448	27.8
550.645	27.82
550.842	27.5
551.038	27.69
551.235	27.84
551.432	27.96
551.628	27.95
551.825	27.94
552.022	27.97
552.218	27.95
552.415	28.09
552.612	28.43
552.808	28.42
553.005	28.79
553.201	28.93
553.398	28.75
553.594	28.85
553.791	28.9
553.987	29.17
554.184	29.15
554.38	29.39
554.577	29.42
554.773	29.56
554.97	29.74
555.166	29.62
555.362	29.62
555.559	30
555.755	30.01
555.952	30.09
556.148	30.3
556.344	30.35
556.541	30.11
556.737	29.98
556.933	29.94
557.129	30.16
557.326	30.35
557.522	30.24
557.718	30.08
557.914	30.36
558.11	30.45
558.307	30.15
558.503	30.28
558.699	30.56
558.895	30.88
559.091	30.83
559.287	30.7
559.483	30.76
559.679	31
559.876	31.3
560.072	31.08
560.268	31.03
560.464	31.19
560.66	31.18
560.856	31.38
561.052	31.34
561.247	31.32
561.443	31.27
561.639	31.43
561.835	31.59
562.031	31.48
562.227	31.6
562.423	31.49
562.619	31.3
562.815	31.49
563.01	31.33
563.206	31.56
563.402	31.63
563.598	31.79
563.793	31.52
563.989	31.4
564.185	31.48
564.381	31.54
564.576	31.82
564.772	32.01
564.968	31.88
565.163	31.91
565.359	31.68
565.555	31.85
565.75	31.83
565.946	32.03
566.141	31.95
566.337	31.58
566.532	31.8
566.728	31.59
566.923	31.54
567.119	31.61
567.314	31.76
567.51	31.68
567.705	31.47
567.901	31.34
568.096	31.47
568.292	31.67
568.487	31.82
568.682	31.74
568.878	32
569.073	32.21
569.268	32.34
569.464	32.2
569.659	32.39
569.854	32.57
570.05	32.73
570.245	32.66
570.44	32.52
570.635	32.8
570.831	32.96
571.026	33.19
571.221	33.28
571.416	33.21
571.611	33.4
571.806	33.46
572.002	33.36
572.197	33.43
572.392	33.35
572.587	33.54
572.782	33.49
572.977	33.28
573.172	33.12
573.367	33.05
573.562	32.99
573.757	32.95
573.952	33
574.147	33.08
574.342	33.24
574.537	33.36
574.732	33.53
574.927	33.71
575.121	33.85
575.316	33.9
575.511	33.91
575.706	34.12
575.901	34.03
576.096	33.95
576.29	33.93
576.485	33.89
576.68	33.81
576.875	33.75
577.069	33.63
577.264	33.72
577.459	33.95
577.654	34.05
577.848	34.07
578.043	34.3
578.238	34.41
578.432	34.49
578.627	34.38
578.821	34.57
579.016	34.55
579.21	34.51
579.405	34.19
579.6	33.96
579.794	33.92
579.989	33.88
580.183	33.69
580.378	33.84
580.572	34.08
580.766	34.28
580.961	34.57
581.155	34.43
581.35	34.49
581.544	34.67
581.738	34.39
581.933	34.72
582.127	34.82
582.321	34.64
582.516	34.33
582.71	34.09
582.904	34
583.099	33.52
583.293	33.83
583.487	33.85
583.681	33.81
583.875	34.15
584.07	33.87
584.264	33.79
584.458	34.17
584.652	34.45
584.846	34.41
585.04	34.66
585.234	34.76
585.428	34.69
585.623	34.82
585.817	35.08
586.011	35.08
586.205	35.12
586.399	35.32
586.593	35.54
586.787	35.25
586.981	35.17
587.174	34.92
587.368	35.3
587.562	35.34
587.756	35.32
587.95	35.11
588.144	35.22
588.338	35.02
588.532	35
588.725	34.89
588.919	35.29
589.113	35.64
589.307	35.7
589.501	35.59
589.694	35.41
589.888	35.42
590.082	35.59
590.275	35.57
590.469	35.63
590.663	35.26
590.856	35.33
591.05	35.19
591.244	35.18
591.437	35.34
591.631	35.41
591.824	35.41
592.018	35.37
592.212	35.34
592.405	35.24
592.599	35.51
592.792	35.84
592.986	35.77
593.179	35.98
593.372	36.14
593.566	35.9
593.759	35.81
593.953	36.12
594.146	36.23
594.339	36.18
594.533	36.14
594.726	35.98
594.92	35.83
595.113	35.84
595.306	35.65
595.499	35.38
595.693	35.42
595.886	35.48
596.079	35.23
596.272	35.1
596.466	35.05
596.659	35.16
596.852	35.22
597.045	35.34
597.238	35.25
597.431	35.02
597.624	35.26
597.818	35.49
598.011	35.43
598.204	35.63
598.397	35.76
598.59	35.91
598.783	36.06
598.976	36.24
599.169	36.31
599.362	36.57
599.555	37.16
599.748	36.99
599.941	36.77
600.134	36.81
600.326	36.62
600.519	36.64
600.712	36.51
600.905	36.2
601.098	35.94
601.291	35.92
601.483	35.71
601.676	35.48
601.869	35.5
602.062	35.72
602.255	35.51
602.447	35.62
602.64	35.82
602.833	35.79
603.025	35.92
603.218	36.16
603.411	36.16
603.603	36.23
603.796	36.25
603.989	36.54
604.181	36.42
604.374	36.64
604.566	36.66
604.759	36.76
604.951	36.91
605.144	37
605.336	36.88
605.529	36.86
605.721	36.92
605.914	37.1
606.106	36.89
606.299	36.96
606.491	36.92
606.683	36.9
606.876	36.72
607.068	36.84
607.26	37.09
607.453	37.06
607.645	37.12
607.837	37.11
608.03	36.98
608.222	37.09
608.414	37
608.606	36.94
608.799	36.81
608.991	36.81
609.183	36.77
609.375	36.46
609.567	36.43
609.759	36.48
609.952	36.61
610.144	36.55
610.336	36.38
610.528	36.26
610.72	36.29
610.912	36.51
611.104	36.26
611.296	35.99
611.488	36.07
611.68	36.2
611.872	35.92
612.064	35.63
612.256	35.78
612.448	35.91
612.64	35.98
612.832	35.92
613.023	35.64
613.215	35.81
613.407	36.19
613.599	36.12
613.791	35.9
613.983	36.49
614.174	36.55
614.366	36.71
614.558	36.68
614.75	37.08
614.941	37.23
615.133	37.35
615.325	37.31
615.516	37.33
615.708	37.15
615.9	37.32
616.091	36.99
616.283	37.35
616.475	37.16
616.666	37.28
616.858	37.01
617.049	37.28
617.241	37.46
617.432	37.67
617.624	37.81
617.815	38.06
618.007	38.06
618.198	38.26
618.39	38.02
618.581	37.93
618.773	38
618.964	38.07
619.155	37.91
619.347	37.94
619.538	38.14
619.729	38.04
619.921	38.13
620.112	38.54
620.303	38.06
620.494	38.09
620.686	38.03
620.877	38.17
621.068	38.23
621.259	38.14
621.451	38.09
621.642	37.82
621.833	38.08
622.024	38
622.215	37.92
622.406	38.2
622.597	38.09
622.788	38.12
622.98	37.98
623.171	37.87
623.362	37.9
623.553	37.8
623.744	37.85
623.935	37.65
624.126	37.72
624.317	37.41
624.508	37.5
624.698	37.68
624.889	38.02
625.08	37.76
625.271	38.04
625.462	37.96
625.653	38.25
625.844	38.35
626.034	38.22
626.225	38.38
626.416	38.47
626.607	38.5
626.798	38.13
626.988	37.87
627.179	37.96
627.37	37.74
627.56	37.71
627.751	37.46
627.942	37.39
628.132	37.37
628.323	37.13
628.514	37.16
628.704	37.22
628.895	37.32
629.085	37.54
629.276	37.54
629.466	37.49
629.657	37.83
629.847	38.28
630.038	38.24
630.228	38.44
630.419	38.6
630.609	38.47
630.8	38.61
630.99	38.81
631.181	38.75
631.371	38.97
631.561	39.23
631.752	39.01
631.942	38.49
632.132	38.49
632.323	38.2
632.513	38.4
632.703	38.22
632.893	37.86
633.084	38.18
633.274	38.06
633.464	37.84
633.654	37.8
633.844	37.81
634.034	37.9
634.225	37.9
634.415	38
634.605	37.87
634.795	38.18
634.985	38.29
635.175	38.1
635.365	38.16
635.555	38.41
635.745	38.34
635.935	38.53
636.125	38.59
636.315	38.9
636.505	39
636.695	38.97
636.885	38.95
637.075	38.92
637.265	38.94
637.455	38.9
637.644	38.38
637.834	38.34
638.024	38.11
638.214	38.44
638.404	38.27
638.593	38.2
638.783	38.12
638.973	38.28
639.163	38.29
639.352	38.11
639.542	38.37
639.732	38.68
639.921	39.12
640.111	39.24
640.301	38.81
640.49	38.61
640.68	38.74
640.87	38.72
641.059	38.77
641.249	38.72
641.438	38.46
641.628	38.15
641.817	38.24
642.007	38
642.196	37.96
642.386	37.86
642.575	38.05
642.764	37.9
642.954	38.4
643.143	38.27
643.333	38.82
643.522	39.17
643.711	39.17
643.901	39.27
644.09	39.22
644.279	39.26
644.469	39.57
644.658	39.7
644.847	40.49
645.036	40.32
645.226	40.3
645.415	39.98
645.604	39.99
645.793	39.76
645.982	39.72
646.171	39.71
646.361	39.36
646.55	39.51
646.739	39.52
646.928	38.9
647.117	38.61
647.306	38.61
647.495	38.63
647.684	38.64
647.873	38.91
648.062	38.97
648.251	38.95
648.44	39.36
648.629	39.41
648.818	38.88
649.007	38.65
649.196	38.57
649.384	38.58
649.573	38.4
649.762	38.52
649.951	38.66
650.14	38.61
650.328	38.39
650.517	38.5
650.706	38.2
650.895	38.72
651.083	38.62
651.272	38.52
651.461	38.75
651.65	38.87
651.838	38.69
652.027	38.68
652.216	38.71
652.404	39.33
652.593	39.4
652.781	39.5
652.97	39.15
653.158	39.29
653.347	39.72
653.535	39.83
653.724	40.08
653.912	40.41
654.101	40.65
654.289	40.51
654.478	40.38
654.666	39.91
654.855	40.06
655.043	40.23
655.231	40.12
655.42	40.15
655.608	40.11
655.796	39.72
655.985	39.49
656.173	39.44
656.361	39.58
656.55	39.21
656.738	39.74
656.926	39.62
657.114	39.72
657.302	39.85
657.491	39.78
657.679	39.53
657.867	39.59
658.055	39.94
658.243	39.71
658.431	39.42
658.619	39.52
658.807	39.31
658.996	39.35
659.184	39.2
659.372	39.22
659.56	38.91
659.748	38.73
659.936	38.71
660.124	38.12
660.311	38.25
660.499	38.24
660.687	37.97
660.875	37.76
661.063	37.74
661.251	37.5
661.439	37.73
661.627	37.95
661.814	38.59
662.002	39.1
662.19	39.38
662.378	39.4
662.565	39.7
662.753	40.22
662.941	39.83
663.129	39.56
663.316	40.1
663.504	39.87
663.692	39.79
663.879	39
664.067	38.39
664.254	38.53
664.442	38.58
664.63	38.76
664.817	38.83
665.005	39.73
665.192	40.3
665.38	40.38
665.567	40.31
665.755	40.61
665.942	41.02
666.13	41.13
666.317	41.05
666.504	40.79
666.692	40.69
666.879	40.43
667.067	40.25
667.254	39.95
667.441	39.92
667.629	39.83
667.816	39.84
668.003	39.96
668.19	39.83
668.378	40.1
668.565	40.45
668.752	40.68
668.939	40.57
669.127	40.23
669.314	40.34
669.501	40.03
669.688	40.37
669.875	40.5
670.062	40.67
670.249	41.01
670.436	40.7
670.623	40.52
670.81	40.04
670.997	40.25
671.184	40.46
671.371	40.21
671.558	40.1
671.745	39.98
671.932	39.43
672.119	39.1
672.306	38.66
672.493	38.77
672.68	38.17
672.867	38.45
673.054	38.25
673.24	38
673.427	38.1
673.614	38.19
673.801	39.03
673.988	39.6
674.174	39.54
674.361	39.82
674.548	39.76
674.734	40.37
674.921	40.39
675.108	40.32
675.294	40.42
675.481	40.05
675.668	40.31
675.854	39.36
676.041	38.78
676.227	38.58
676.414	38.72
676.601	38.86
676.787	38.4
676.974	38.06
677.16	38.43
677.347	38.69
677.533	39.15
677.719	39.41
677.906	39.41
678.092	39.4
678.279	39.73
678.465	39.52
678.651	39.71
678.838	40.06
679.024	40.07
679.21	39.61
679.397	39.4
679.583	38.93
679.769	38.56
679.955	38.53
680.142	38.7
680.328	38.82
680.514	38.86
680.7	39.02
680.886	39.1
681.073	38.94
681.259	39.27
681.445	39.32
681.631	39.77
681.817	39.82
682.003	39.93
682.189	39.68
682.375	39.41
682.561	39.2
682.747	38.44
682.933	38.31
683.119	38.96
683.305	39.05
683.491	39.52
683.677	39.53
683.863	39.36
684.049	39.41
684.235	40.15
684.42	40.07
684.606	40.14
684.792	40.92
684.978	41.12
685.164	40.55
685.349	40.71
685.535	40.08
685.721	40.23
685.907	40.1
686.092	39.88
686.278	39.7
686.464	39.77
686.649	40.13
686.835	39.82
687.021	39.54
687.206	39.68
687.392	39.49
687.577	40.04
687.763	39.79
687.948	40.69
688.134	40.62
688.319	40.23
688.505	40.07
688.69	40.43
688.876	40.27
689.061	40.47
689.247	40.25
689.432	40.3
689.618	39.89
689.803	40.17
689.988	39.92
690.174	40.16
690.359	40.6
690.544	40.44
690.73	40.07
690.915	40.26
691.1	40.04
691.285	40.58
691.471	40.75
691.656	41.17
691.841	40.73
692.026	40.07
692.211	40.24
692.396	39.85
692.582	40.58
692.767	40.31
692.952	40.21
693.137	40.37
693.322	39.77
693.507	39
693.692	38.39
693.877	38.6
694.062	39.16
694.247	38.56
694.432	38.73
694.617	38.65
694.802	38.92
694.987	38.93
695.172	38.7
695.357	39.55
695.541	39.94
695.726	41.18
695.911	41.3
696.096	41.21
696.281	41.36
696.466	41.43
696.65	40.96
696.835	40.74
697.02	40.77
697.204	41.28
697.389	40.87
697.574	40.97
697.759	39.75
697.943	39.53
698.128	39.55
698.312	39.87
698.497	39.39
698.682	39.83
698.866	39.8
699.051	40.03
699.235	39.54
699.42	39.38
699.604	39.52
699.789	39.85
699.973	40.17
700.158	40.25
700.342	40.09
700.527	40.27
700.711	40.04
700.895	40.23
701.08	39.79
701.264	40.39
701.448	41.02
701.633	41
701.817	40.95
702.001	40.52
702.186	40.28
702.37	40.47
702.554	40.79
702.738	40.67
702.923	40.63
703.107	40.91
703.291	40.87
703.475	40.13
703.659	39.73
703.843	40.09
704.027	40.55
704.212	40.23
704.396	40.1
704.58	40.22
704.764	40.36
704.948	40.22
705.132	40.03
705.316	39.55
705.5	39.91
705.684	39.88
705.868	39.95
706.052	39.71
706.235	39.77
706.419	40.17
706.603	39.53
706.787	39.13
706.971	39.54
707.155	39.25
707.339	38.81
707.522	39
707.706	39.54
707.89	39.29
708.074	39.66
708.257	40.41
708.441	40.19
708.625	40.66
708.808	41.35
708.992	41.33
709.176	42.11
709.359	42.55
709.543	42.29
709.727	41.57
709.91	41.56
710.094	41.85
710.277	42.17
710.461	42.35
710.644	42.25
710.828	41.79
711.011	42.28
711.195	42.07
711.378	42.63
711.562	43.12
711.745	43.76
711.928	43.54
712.112	42.58
712.295	42.07
712.478	41.66
712.662	41.5
712.845	41.55
713.028	41.35
713.212	41.16
713.395	40.36
713.578	39.82
713.761	39.21
713.945	39.51
714.128	40
714.311	39.85
714.494	40
714.677	39.79
714.86	40.59
715.043	40.1
715.227	40.09
715.41	40.16
715.593	40.32
715.776	40
715.959	39.82
716.142	40.38
716.325	40.17
716.508	39.77
716.691	40.81
716.874	39.86
717.057	39.9
717.239	40.72
717.422	40.89
717.605	40.02
717.788	40.05
717.971	40.12
718.154	39.65
718.337	39.33
718.519	39.82
718.702	38.56
718.885	39.24
719.068	38.93
719.25	37.85
719.433	38.33
719.616	39.27
719.798	39
719.981	39.05
720.164	38.59
720.346	39.16
720.529	39.35
720.712	39.55
720.894	38.49
721.077	37.99
721.259	38.36
721.442	38.14
721.624	37.95
721.807	38.54
721.989	39.57
722.172	39.01
722.354	38.23
722.537	38.12
722.719	38.64
722.901	38.39
723.084	38.63
723.266	38.26
723.448	37.85
723.631	37.79
723.813	38.21
723.995	36.91
724.178	38.26
724.36	38.98
724.542	39.37
724.724	39.47
724.907	41.03
725.089	41.1
725.271	41.28
725.453	41.5
725.635	41.96
725.817	42.46
725.999	43.07
726.181	41.72
726.364	41.98
726.546	41.98
726.728	42.65
726.91	41.86
727.092	41.59
727.274	40.98
727.456	40.68
727.638	40.46
727.819	39.89
728.001	38.92
728.183	39.66
728.365	39.14
728.547	38.77
728.729	38.53
728.911	39.08
729.093	39.42
729.274	40.4
729.456	40.27
729.638	40.28
729.82	39.97
730.001	40.59
730.183	40.34
730.365	41.06
730.546	41.03
730.728	40.39
730.91	40.91
731.091	41.29
731.273	41.42
731.455	42.3
731.636	41.65
731.818	41.84
731.999	42.05
732.181	41.85
732.362	41.3
732.544	41
732.725	41.19
732.907	39.93
733.088	39.92
733.27	38.94
733.451	38.41
733.633	38.6
733.814	39.25
733.995	38.98
734.177	39.58
734.358	39.92
734.539	40.37
734.721	39.9
734.902	39.92
735.083	39.2
735.264	40.03
735.446	40.52
735.627	41
735.808	40.43
735.989	40.51
736.17	40.63
736.351	40.6
736.533	41.01
736.714	41.58
736.895	42.55
737.076	43.6
737.257	43.5
737.438	43.4
737.619	43.78
737.8	43.41
737.981	42.43
738.162	41.93
738.343	41.98
738.524	41.76
738.705	41.46
738.886	41.14
739.067	41.32
739.247	41.12
739.428	40.7
739.609	41.27
739.79	42.29
739.971	43.15
740.151	43.12
740.332	43.26
740.513	43.09
740.694	42.36
740.874	42.43
741.055	41.37
741.236	41.69
741.417	41.63
741.597	40.67
741.778	40.3
741.958	39.28
742.139	39.31
742.32	39.11
742.5	38.48
742.681	39.93
742.861	39.13
743.042	39.55
743.222	39.11
743.403	39.11
743.583	39.52
743.764	38.55
743.944	40.75
744.124	40.96
744.305	40.51
744.485	40.91
744.666	40.38
744.846	40.93
745.026	40.51
745.207	42.06
745.387	41.76
745.567	41.7
745.747	42.45
745.928	42.2
746.108	42.19
746.288	42.42
746.468	43.69
746.648	43.57
746.829	43.2
747.009	44.69
747.189	43.97
747.369	43.89
747.549	43.37
747.729	43.37
747.909	42.53
748.089	41.71
748.269	41.38
748.449	39.86
748.629	40.94
748.809	39.85
748.989	38.47
749.169	36.98
749.349	37.14
749.529	37.25
749.709	37.18
749.889	36.63
750.068	38.04
750.248	38.8
750.428	38.35
750.608	36.6
750.788	37.87
750.967	38.01
751.147	38.89
751.327	39.68
751.507	38.93
751.686	39.81
751.866	40.73
752.046	39.64
752.225	39.72
752.405	40.55
752.585	41.38
752.764	42.04
752.944	42.69
753.123	43.3
753.303	42.87
753.482	44.36
753.662	43.58
753.841	43.46
754.021	43.83
754.2	43.8
754.38	44.55
754.559	44.53
754.739	42.89
754.918	42.91
755.097	42.59
755.277	42.84
755.456	43.33
755.635	43.09
755.815	42.57
755.994	42.31
756.173	41.39
756.352	41.43
756.532	40.91
756.711	42.38
756.89	42.28
757.069	41.94
757.248	41.33
757.427	39.52
757.607	40.71
757.786	41.13
757.965	41.28
758.144	42.97
758.323	42.08
758.502	42.86
758.681	42.6
758.86	42.37
759.039	42.49
759.218	43.4
759.397	44.12
759.576	43.65
759.755	43.69
759.934	43.52
760.113	43.97
760.291	43.6
760.47	44.21
760.649	44.02
760.828	43.89
761.007	42.96
761.186	41.81
761.364	40.86
761.543	40.19
761.722	40.24
761.901	39.79
762.079	38.36
762.258	38.33
762.437	36.84
762.615	36.77
762.794	37.23
762.972	38.14
763.151	38.55
763.33	39.24
763.508	39.21
763.687	38.85
763.865	40.36
764.044	40.65
764.222	41.37
764.401	41.38
764.579	42.19
764.758	42.16
764.936	41.44
765.114	42.04
765.293	41.79
765.471	42.52
765.65	43.51
765.828	42.65
766.006	41.74
766.184	41.56
766.363	41.83
766.541	40.38
766.719	40.72
766.898	42.09
767.076	42.12
767.254	42.77
767.432	43.12
767.61	41.9
767.788	42.86
767.967	43.64
768.145	42.59
768.323	42.78
768.501	43.65
768.679	42.72
768.857	41.3
769.035	41.04
769.213	41.54
769.391	41.14
769.569	40.4
769.747	38.88
769.925	38.5
770.103	39.98
770.281	39.87
770.459	39.32
770.636	41.03
770.814	41.57
770.992	40.78
771.17	38.74
771.348	38.14
771.525	39.7
771.703	39.93
771.881	40.65
772.059	41.52
772.236	41.69
772.414	42.54
772.592	41
772.769	41.32
772.947	41.91
773.125	43.36
773.302	43.21
773.48	42
773.657	42.56
773.835	41.05
774.013	40.01
774.19	42.18
774.368	41.89
774.545	41.75
774.723	42.59
774.9	43.75
775.077	44.99
775.255	46.38
775.432	46.59
775.61	46.58
775.787	47.75
775.964	47.23
776.142	44.29
776.319	43.16
776.496	42.26
776.674	39.69
776.851	38.87
777.028	35.39
777.205	33.87
777.382	35.32
777.56	35.08
777.737	34.87
777.914	34.5
778.091	36.92
778.268	36.63
778.445	38.1
778.622	39.47
778.8	39.17
778.977	40
779.154	34.66
779.331	34.82
779.508	32.72
779.685	34.98
779.862	33.97
780.038	32.98
780.215	33.35
780.392	33.71
780.569	32.63
780.746	32.53
780.923	33.66
781.1	40.08
781.277	37.89
781.453	37.57
781.63	35.08
781.807	36.42
781.984	36.79
782.16	38.68
782.337	39.65
782.514	40.99
782.691	39.84
782.867	39.64
783.044	37.29
783.221	38.94
783.397	41.24
783.574	42.58
783.75	42.82
783.927	43.84
784.103	43.8
784.28	43.27
784.456	42.5
784.633	44.22
784.809	43.23
784.986	43.75
785.162	44.93
785.339	45.11
785.515	43.3
785.692	43.65
785.868	42.84
786.044	42.64
786.221	39.57
786.397	40.27
786.573	39.58
786.749	38.27
786.926	37.78
787.102	38.07
787.278	38.22
787.454	39.11
787.631	38.25
787.807	37.4
787.983	36.24
788.159	38.13
788.335	37.62
788.511	38.81
788.687	39.04
788.863	40.61
789.039	38.13
789.216	36.94
789.392	37.07
789.568	38.43
789.744	39.25
789.919	38.64
790.095	37.6
790.271	37.99
790.447	35.35
790.623	37.62
790.799	37.48
790.975	39.08
791.151	42.16
791.327	44.11
791.502	42.78
791.678	42.95
791.854	44.3
792.03	44.98
792.205	45.29
792.381	47.32
792.557	49.19
792.733	48.86
792.908	47.83
793.084	46.03
793.259	43.92
793.435	44.17
793.611	42.48
793.786	44.15
793.962	45.26
794.137	44.12
794.313	43.31
794.488	38.39
794.664	39.5
794.839	42.56
795.015	42.21
795.19	42.79
795.366	43.22
795.541	42.66
795.716	39.94
795.892	39.76
796.067	40.28
796.242	40.8
796.418	39.29
796.593	38.51
796.768	37.39
796.944	37.49
797.119	36.9
797.294	38.76
797.469	39.51
797.644	40.4
797.82	39.67
797.995	38.73
798.17	39.84
798.345	45.34
798.52	45.53
798.695	44.98
798.87	44.24
799.045	43.33
799.22	43.29
799.395	45.02
799.57	42.74
799.745	42.32
799.92	44.72
800.095	45.44
800.27	43.56
800.445	43.53
800.62	42.88
800.795	42.36
800.97	43.38
801.145	39.08
801.319	38.97
801.494	39.95
801.669	40
801.844	39.63
802.018	39.31
802.193	37.56
802.368	38.83
802.543	37.92
802.717	39.23
802.892	38.58
803.067	41.76
803.241	42.18
803.416	43.29
803.59	42.88
803.765	43.69
803.94	41.33
804.114	39.98
804.289	39.95
804.463	42.1
804.638	42.84
804.812	41.46
804.986	42.29
805.161	40.65
805.335	42.5
805.51	46.03
805.684	44.65
805.858	46.71
806.033	49.63
806.207	50.63
806.381	50.65
806.556	50.15
806.73	50.13
806.904	49.43
807.078	50.31
807.253	49.72
807.427	46.36
807.601	46.33
807.775	43.75
807.949	42.36
808.123	39.02
808.298	37.63
808.472	39.3
808.646	40.67
808.82	42.11
808.994	41.3
809.168	41.41
809.342	44.88
809.516	44.98
809.69	45.6
809.864	45.06
810.038	43.94
810.212	41.38
810.385	40.39
810.559	40.28
810.733	37.68
810.907	39.13
811.081	37.42
811.255	34.98
811.428	35.16
811.602	35.18
811.776	36.17
811.95	38.94
812.123	43.11
812.297	39.48
812.471	40.73
812.644	43.29
812.818	42.69
812.992	43.82
813.165	43.86
813.339	42
813.512	42.82
813.686	44.07
813.86	46.28
814.033	44.71
814.207	48.86
814.38	49.6
814.554	49.43
814.727	49.82
814.9	51.21
815.074	52.6
815.247	53.79
815.421	54
815.594	54.75
815.767	53.99
815.941	51.06
816.114	50
816.287	46.84
816.46	44.58
816.634	41.51
816.807	39.65
816.98	39.33
817.153	40.97
817.327	40.87
817.5	37.46
817.673	34.79
817.846	37.42
818.019	34.6
818.192	38.75
818.365	39.34
818.538	42.08
818.711	41.82
818.884	40.58
819.057	40.26
819.23	40.22
819.403	43.52
819.576	44.63
819.749	45.1
819.922	45.12
820.095	41.47
820.268	42.1
820.441	42.39
820.614	42.46
820.786	43.04
820.959	43.24
821.132	43.47
821.305	42.52
821.477	42.62
821.65	42.13
821.823	41.65
821.996	41.98
822.168	41.61
822.341	40.37
822.514	39.75
822.686	40.12
822.859	40.16
823.031	40.17
823.204	40.47
823.376	39.93
823.549	39.85
823.722	39.8
823.894	39.39
824.067	39.92
824.239	40.23
824.411	40.8
824.584	41.1
824.756	41.08
824.929	41.07
825.101	40.69
825.273	41.09
825.446	40.74
825.618	40.95
825.79	41.27
825.963	40.9
826.135	41.19
826.307	39.82
826.479	39.45
826.652	38.21
826.824	37.51
826.996	37.47
827.168	38.25
827.34	39.61
827.512	39.23
827.684	39.54
827.856	39.39
828.029	39.84
828.201	40.45
828.373	39.02
828.545	40.39
828.717	42.22
828.889	42.57
829.061	41.7
829.232	41.17
829.404	43.53
829.576	44.61
829.748	44.57
829.92	44
830.092	45.69
830.264	46.89
830.436	46.7
830.607	46.22
830.779	46.92
830.951	48.92
831.123	48.75
831.294	47.41
831.466	47.14
831.638	48.18
831.809	50.19
831.981	49.09
832.153	50.24
832.324	51.63
832.496	52.37
832.667	52.75
832.839	49.63
833.011	50.25
833.182	49.87
833.354	47.93
833.525	47.93
833.697	48.32
833.868	48.09
834.039	47.23
834.211	44.68
834.382	43.48
834.554	44.16
834.725	45.71
834.896	44
835.068	44.48
835.239	44.58
835.41	44.86
835.581	44.17
835.753	44.35
835.924	43.7
836.095	44.98
836.266	45.1
836.438	42.81
836.609	41.73
836.78	42.58
836.951	42.12
837.122	42.49
837.293	42.5
837.464	40.14
837.635	40.35
837.806	40.13
837.977	39.16
838.148	38.53
838.319	40.13
838.49	39.89
838.661	42.61
838.832	42.09
839.003	39.92
839.174	37.8
839.345	37.62
839.516	34.31
839.687	35.73
839.857	35.89
840.028	37.15
840.199	37.72
840.37	41.31
840.54	40.61
840.711	40.2
840.882	41.59
841.053	38.25
841.223	42.91
841.394	46.2
841.564	41.55
841.735	44.3
841.906	42.66
842.076	39.07
842.247	38.14
842.417	34.07
842.588	35.33
842.758	38.57
842.929	43.22
843.099	37.31
843.27	40.38
843.44	45.25
843.611	45.2
843.781	46.08
843.951	49.09
844.122	50.94
844.292	55.63
844.462	55.48
844.633	54.28
844.803	51.13
844.973	55.41
845.144	53.24
845.314	49.18
845.484	46.28
845.654	44.88
845.824	46.67
845.995	45.4
846.165	41.55
846.335	41
846.505	41.42
846.675	42.64
846.845	40.95
847.015	48.06
847.185	53.07
847.355	59.27
847.525	59.6
847.695	54.53
847.865	49.96
848.035	56.87
848.205	54.34
848.375	55.78
848.545	64.36
848.715	64.49
848.884	55.35
849.054	57.12
849.224	51.07
849.394	52.63
849.564	49.6
849.733	47.75
849.903	42.36
850.073	47.16
850.243	35.81
850.412	29.74
850.582	32.14
850.752	28.42
850.921	29.45
851.091	29.44
851.26	31.5
851.43	35.57
851.599	32.83
851.769	34.95
851.939	34.03
852.108	41.36
852.278	41.69
852.447	42.54
852.616	46.99
852.786	48.41
852.955	49.99
853.125	52.24
853.294	52.25
853.463	54.49
853.633	51.46
853.802	56.02
853.971	57.24
854.141	56.7
854.31	47.58
854.479	48.13
854.648	41.91
854.818	45.11
854.987	42.68
855.156	39.69
855.325	45.79
855.494	44.14
855.663	39.5
855.832	41.58
856.001	46.46
856.171	47.16
856.34	46.57
856.509	53.3
856.678	52
856.847	55.16
857.016	56.58
857.185	49.86
857.353	60.17
857.522	54.44
857.691	47.38
857.86	40.46
858.029	46.23
858.198	48.04
858.367	50.58
858.535	44.17
858.704	39.7
858.873	47.42
859.042	57.14
859.21	46.51
859.379	50.14
859.548	58.55
859.717	57.14
859.885	57.48
860.054	56.61
860.222	49.41
860.391	52.72
860.56	56.49
860.728	54.09
860.897	50.48
861.065	52.54
861.234	58.15
861.402	51.71
861.571	56.15
861.739	55.83
861.908	52.68
862.076	51.57
862.244	54.36
862.413	52.88
862.581	56.04
862.749	54.71
862.918	49.44
863.086	46.01
863.254	54.83
863.423	56.48
863.591	51.23
863.759	47.6
863.927	45.6
864.096	48.49
864.264	40.65
864.432	34.07
864.6	37.48
864.768	36.53
864.936	35.26
865.104	28.92
865.272	23.47
865.44	18.86
865.608	22.59
865.776	30.3
865.944	19.71
866.112	24.87
866.28	30.13
866.448	33.73
866.616	38.79
866.784	42.25
866.952	45.13
867.12	41.56
867.288	40.03
867.455	41.39
867.623	41.63
867.791	49.9
867.959	56.14
868.127	49.96
868.294	53.72
868.462	59.51
868.63	68.04
868.797	72.56
868.965	73.25
869.133	75.83
869.3	76.65
869.468	76.32
869.636	75.03
869.803	74.27
869.971	84.42
870.138	75.99
870.306	68.65
870.473	65.14
870.641	62.31
870.808	60.35
870.975	62.15
871.143	68.71
871.31	62.51
871.478	69.57
871.645	73.76
871.812	68.45
871.98	81.03
872.147	83.16
872.314	73.25
872.482	74.14
872.649	65.88
872.816	70.41
872.983	65.34
873.15	74.69
873.318	62.38
873.485	53.27
873.652	59.46
873.819	48.37
873.986	56.33
874.153	56.99
874.32	55.26
874.487	53.16
874.654	52.43
874.821	52.46
874.988	46.73
875.155	48
875.322	46.05
875.489	41.57
875.656	42.27
875.823	32.88
875.99	37.48
876.157	41.61
876.324	46.09
876.49	47.16
876.657	53.66
876.824	52.98
876.991	48.49
877.157	55.72
877.324	62.69
877.491	60.84
877.658	61.05
877.824	56.08
877.991	61.54
878.157	63.06
878.324	59.61
878.491	52.84
878.657	55.81
878.824	61.18
878.99	61.96
879.157	58.83
879.323	53.75
879.49	53.4
879.656	50.34
879.823	43.99
879.989	43.29
880.156	39.61
880.322	43.45
880.488	40.74
880.655	41.87
880.821	39.92
880.987	36.01
881.154	41.69
881.32	48.18
881.486	47.56
881.652	50.49
881.819	50.85
881.985	49.22
882.151	48.37
882.317	48.65
882.483	47.05
882.649	46.9
882.816	47.75
882.982	46.31
883.148	42.55
883.314	41.9
883.48	39.63
883.646	40.27
883.812	40.69
883.978	39.36
884.144	39.24
884.31	38.35
884.476	39.27
884.642	38.68
884.807	39.13
884.973	37.88
885.139	38.32
885.305	39.94
885.471	38.33
885.637	39.43
885.802	40.57
885.968	41.23
886.134	42.7
886.3	42.08
886.465	42.63
886.631	41.44
886.797	46.62
886.962	49.07
887.128	48.95
887.293	50.91
887.459	54.83
887.625	54.98
887.79	54.81
887.956	54.88
888.121	54.86
888.287	56.89
888.452	60.23
888.618	58
888.783	56.13
