Data from CB_041_Reflection_21-55-54-340.txt Node
Date: Wed Nov 11 21:55:54 EST 2015
User: robert
Spectrometer: USB4E03001
Autoset integration time: false
Trigger mode: 4
Integration Time (sec): 1.000000E-1
Scans to average: 15
Electric dark correction enabled: true
Nonlinearity correction enabled: false
Boxcar width: 5
Stray light correction enabled: false
XAxis mode: Wavelengths
Stop averaging: false
Number of Pixels in Spectrum: 3648
>>>>>Begin Spectral Data<<<<<
177.566	85.68
177.785	-190.13
178.005	129.83
178.225	-25.94
178.445	71.39
178.665	31.76
178.885	-95.91
179.105	-31.38
179.324	-38.03
179.544	12.74
179.764	27.26
179.984	32.31
180.204	35.91
180.423	38.14
180.643	51.49
180.863	45.51
181.083	44.17
181.302	30.42
181.522	35.95
181.742	55.11
181.961	59.98
182.181	65.31
182.401	68.77
182.621	58.49
182.84	52
183.06	61.37
183.279	70.46
183.499	68.96
183.719	71.61
183.938	93.66
184.158	78.02
184.377	60.09
184.597	50.9
184.816	55.67
185.036	47.49
185.256	43.91
185.475	42.81
185.695	-16.33
185.914	-51.66
186.134	14.81
186.353	-28.86
186.572	-18.88
186.792	-19.91
187.011	3.6
187.231	4.38
187.45	9.23
187.67	-5.89
187.889	-33.06
188.108	19.99
188.328	17.44
188.547	-9.89
188.766	-5.95
188.986	-27.71
189.205	-28.06
189.424	-36.71
189.644	-65.69
189.863	-46.59
190.082	-20.49
190.302	-27.01
190.521	-36.96
190.74	-33.95
190.959	-14.8
191.178	-15.79
191.398	-9.59
191.617	8.97
191.836	4.83
192.055	11.54
192.274	9.82
192.494	2.49
192.713	19.97
192.932	28.83
193.151	36.83
193.37	46.4
193.589	69.43
193.808	73.07
194.027	58.17
194.246	65.21
194.465	71.57
194.685	59.96
194.904	29.34
195.123	41.91
195.342	14.96
195.561	-2.21
195.78	-24.44
195.999	-30.13
196.218	-33.53
196.436	-26.31
196.655	-20.68
196.874	-33.96
197.093	-2.15
197.312	52.39
197.531	30.56
197.75	51.2
197.969	73.42
198.188	47.63
198.407	39.14
198.625	60.7
198.844	48.56
199.063	20.45
199.282	13.02
199.501	6.78
199.719	-42.62
199.938	-20.31
200.157	-87.76
200.376	-17.26
200.594	46.99
200.813	46.94
201.032	15.67
201.251	44.49
201.469	71.42
201.688	55.46
201.907	53.57
202.125	55.76
202.344	54
202.563	72.37
202.781	38.28
203	19.35
203.218	26.69
203.437	31.86
203.656	34.73
203.874	27.65
204.093	32.92
204.311	34.69
204.53	22.94
204.748	32.81
204.967	23.54
205.185	38.64
205.404	52.58
205.622	30.44
205.841	44.44
206.059	20.68
206.278	37.43
206.496	45.81
206.715	48.26
206.933	55.91
207.151	50.37
207.37	52.08
207.588	46.77
207.806	30.87
208.025	50.5
208.243	44.89
208.461	58.53
208.68	46.9
208.898	36.93
209.116	15.4
209.335	7.55
209.553	-5.6
209.771	-18.43
209.989	-15.92
210.208	1.99
210.426	-36.07
210.644	-32.32
210.862	-17.07
211.081	12.1
211.299	37.82
211.517	80.41
211.735	73.13
211.953	97.19
212.171	103.14
212.39	116.61
212.608	109.07
212.826	122.17
213.044	120.47
213.262	94.16
213.48	87.65
213.698	67.52
213.916	46.96
214.134	43.61
214.352	-8.51
214.57	32.17
214.788	24.65
215.006	-31.59
215.224	-46.94
215.442	-77.31
215.66	-109.78
215.878	-15.7
216.096	-10.94
216.314	-11.03
216.532	-17.84
216.75	20.07
216.968	12.7
217.185	11.71
217.403	25.32
217.621	29.24
217.839	33.39
218.057	31.81
218.275	32.83
218.492	40.78
218.71	42.43
218.928	56.3
219.146	50.66
219.363	53.9
219.581	75.85
219.799	67.04
220.017	61.88
220.234	27.61
220.452	22.82
220.67	24.11
220.887	15.46
221.105	-2.31
221.323	-35.46
221.54	-32.4
221.758	-9.34
221.976	-14.15
222.193	1.56
222.411	-12.71
222.629	2.42
222.846	9.88
223.064	-5.06
223.281	9.4
223.499	23.01
223.716	26.83
223.934	31.93
224.151	26.53
224.369	23.22
224.586	22.22
224.804	40.76
225.021	37.88
225.239	39.27
225.456	54.39
225.674	45.64
225.891	38.77
226.108	44.95
226.326	33.76
226.543	32.41
226.76	38.74
226.978	28.34
227.195	24.57
227.413	19.69
227.63	19.85
227.847	11.52
228.064	7.07
228.282	8.5
228.499	3.01
228.716	4.68
228.934	4.76
229.151	1.9
229.368	3.52
229.585	3.98
229.802	5.24
230.02	2.15
230.237	4.34
230.454	7.39
230.671	2.97
230.888	5.49
231.105	2.65
231.323	2.49
231.54	9.6
231.757	6.46
231.974	9.03
232.191	4.63
232.408	5.78
232.625	5.63
232.842	3.26
233.059	8.92
233.276	10.04
233.493	13.67
233.71	15.1
233.927	6.15
234.144	8.55
234.361	5.62
234.578	8.47
234.795	13.37
235.012	13.1
235.229	13.61
235.446	14.25
235.663	12.02
235.879	13.28
236.096	16.67
236.313	21.08
236.53	21.4
236.747	29.21
236.964	29.2
237.181	26.51
237.397	24.1
237.614	23.92
237.831	21.74
238.048	24.23
238.264	21.68
238.481	16.07
238.698	14.97
238.915	17.58
239.131	10.24
239.348	10.24
239.565	5.88
239.781	8.63
239.998	9.94
240.215	12.43
240.431	10.65
240.648	14.44
240.865	12.26
241.081	13.89
241.298	12.85
241.514	11.61
241.731	13.58
241.947	13.81
242.164	13.19
242.38	12.03
242.597	11.15
242.814	10.6
243.03	10.56
243.246	12.98
243.463	12.17
243.679	10.96
243.896	14.49
244.112	13.85
244.329	18.53
244.545	17.75
244.762	19.21
244.978	19.17
245.194	20.24
245.411	17.08
245.627	14.24
245.843	14.7
246.06	14.69
246.276	12.03
246.492	10.58
246.709	9.78
246.925	11.44
247.141	11.72
247.357	11.05
247.574	10.71
247.79	11.25
248.006	12.04
248.222	12.2
248.439	12.44
248.655	13.19
248.871	13.93
249.087	12.89
249.303	12.61
249.519	11.65
249.736	11.13
249.952	11.5
250.168	11.24
250.384	9.95
250.6	7.87
250.816	9.91
251.032	8.86
251.248	10.64
251.464	9.4
251.68	10.32
251.896	10.08
252.112	10.13
252.328	8.88
252.544	8.92
252.76	9.65
252.976	9.44
253.192	7.14
253.408	8.08
253.624	6.5
253.84	8.4
254.056	5.6
254.272	9.13
254.487	8.84
254.703	9.26
254.919	10.17
255.135	8.06
255.351	10.98
255.567	13.76
255.782	13.53
255.998	14.12
256.214	12.31
256.43	14.86
256.646	10.69
256.861	13.14
257.077	13.23
257.293	11.92
257.508	13.1
257.724	13.57
257.94	12.2
258.155	11.29
258.371	9.59
258.587	10.96
258.802	11.28
259.018	12.69
259.234	11.11
259.449	11.44
259.665	10.88
259.88	10.44
260.096	9.6
260.312	9.45
260.527	9.98
260.743	10.37
260.958	9.87
261.174	8.97
261.389	8.09
261.605	8.7
261.82	8.07
262.036	9.27
262.251	9.99
262.466	10.63
262.682	10.15
262.897	9.74
263.113	9.61
263.328	8.99
263.543	8.27
263.759	6.17
263.974	7.73
264.189	8.88
264.405	7.08
264.62	6.3
264.835	4.84
265.051	4.83
265.266	4.28
265.481	5.08
265.696	6.76
265.912	7.18
266.127	9.99
266.342	8.85
266.557	8.99
266.773	9.54
266.988	10.57
267.203	10.32
267.418	11.39
267.633	12.1
267.848	12.55
268.064	10.68
268.279	12.33
268.494	10.92
268.709	11.21
268.924	11.6
269.139	12.05
269.354	11.76
269.569	10.76
269.784	11.29
269.999	10.63
270.214	9.68
270.429	11.09
270.644	9.59
270.859	10.84
271.074	10.97
271.289	10.66
271.504	11.27
271.719	10.35
271.934	11.42
272.149	10.75
272.363	11.78
272.578	13.45
272.793	14.04
273.008	13.81
273.223	12.65
273.438	12.44
273.653	13.03
273.867	12.5
274.082	13.67
274.297	13.41
274.512	13.2
274.726	11.06
274.941	10.06
275.156	8.98
275.371	9.57
275.585	9.64
275.8	9.95
276.015	8.95
276.229	8.08
276.444	6.87
276.659	7.99
276.873	8.38
277.088	10.41
277.302	10.77
277.517	10.84
277.732	12.18
277.946	12.93
278.161	14.36
278.375	13.43
278.59	13.35
278.804	13.89
279.019	14.1
279.233	14.18
279.448	13.51
279.662	11.51
279.877	11.91
280.091	10.79
280.306	11.01
280.52	8.86
280.735	10.16
280.949	10.9
281.163	10.84
281.378	8.1
281.592	7.55
281.806	8.61
282.021	7.74
282.235	7.33
282.449	6.75
282.664	6.33
282.878	6.62
283.092	7.51
283.307	8.8
283.521	8.53
283.735	10.69
283.949	10.99
284.164	9.93
284.378	11.52
284.592	11.12
284.806	11.95
285.02	11.45
285.234	11.46
285.449	10.58
285.663	9.67
285.877	10.11
286.091	10.37
286.305	10.22
286.519	10.12
286.733	9.38
286.947	10.03
287.161	9.19
287.375	10.22
287.589	10.42
287.803	9.24
288.017	8.63
288.231	8.58
288.445	7.65
288.659	8
288.873	8.42
289.087	8.69
289.301	8.36
289.515	9.92
289.729	9.62
289.943	8.85
290.157	10.09
290.371	10.24
290.584	10.41
290.798	10.88
291.012	11.62
291.226	11.73
291.44	11.51
291.654	11.5
291.867	9.77
292.081	8.64
292.295	8.53
292.509	7.61
292.722	7.15
292.936	6.56
293.15	6.9
293.364	6.43
293.577	5.79
293.791	6.06
294.005	4.96
294.218	6.8
294.432	8.32
294.645	8.92
294.859	8.92
295.073	9.43
295.286	9.82
295.5	9.59
295.713	9.05
295.927	8.7
296.14	10.08
296.354	11.75
296.568	10.89
296.781	10.74
296.994	11.55
297.208	12.36
297.421	11.92
297.635	12.15
297.848	11.54
298.062	11.3
298.275	12.64
298.489	11.95
298.702	11.95
298.915	12.02
299.129	12.73
299.342	12
299.555	12.44
299.769	13.08
299.982	12.5
300.195	13.71
300.409	13.52
300.622	12.74
300.835	12.37
301.048	11.23
301.262	10.61
301.475	9.84
301.688	11.5
301.901	10.32
302.115	10.51
302.328	10.29
302.541	9.38
302.754	9.28
302.967	8.79
303.18	10.25
303.393	11.25
303.607	12.87
303.82	12.85
304.033	11.11
304.246	11.32
304.459	11.09
304.672	10.76
304.885	11.2
305.098	12.24
305.311	12.91
305.524	11.15
305.737	11.12
305.95	10.86
306.163	10.23
306.376	11.1
306.589	11.65
306.802	12.21
307.015	13.63
307.228	14.26
307.44	14.11
307.653	14.4
307.866	15.55
308.079	14.49
308.292	14.35
308.505	14.89
308.718	14.7
308.93	15.11
309.143	14.31
309.356	13.54
309.569	13.33
309.781	13.95
309.994	14.33
310.207	13.81
310.42	13.69
310.632	13.9
310.845	14.15
311.058	13.58
311.27	13.41
311.483	13.69
311.696	13.38
311.908	13.42
312.121	13.13
312.333	11.91
312.546	11.62
312.759	12.14
312.971	11.4
313.184	10.99
313.396	10.6
313.609	11.72
313.821	12.46
314.034	13.9
314.246	13.92
314.459	13.53
314.671	14.43
314.884	15.2
315.096	15.37
315.309	15.12
315.521	15.64
315.733	16.34
315.946	13.95
316.158	12.63
316.371	10.97
316.583	10.61
316.795	9.88
317.008	9.82
317.22	9.14
317.432	8.89
317.644	9.45
317.857	9.21
318.069	8.94
318.281	8.74
318.494	10.27
318.706	11.9
318.918	11.4
319.13	12.22
319.342	11.98
319.555	12.03
319.767	12.55
319.979	13.7
320.191	13.14
320.403	14.4
320.615	14.37
320.827	13.07
321.039	12.73
321.252	12.56
321.464	12.17
321.676	11.74
321.888	12.74
322.1	12.28
322.312	11.34
322.524	11.99
322.736	11.26
322.948	12.14
323.16	12.55
323.372	12.79
323.584	13.4
323.796	14.29
324.007	14.38
324.219	14.54
324.431	13.34
324.643	13.48
324.855	13.85
325.067	14.06
325.279	14.93
325.491	15.73
325.702	15.72
325.914	16.14
326.126	15.69
326.338	14.94
326.55	14.41
326.761	15.9
326.973	15.86
327.185	15.62
327.396	15.75
327.608	15.22
327.82	15.96
328.032	16.08
328.243	15.99
328.455	16.24
328.666	16.98
328.878	16.58
329.09	16.37
329.301	16.11
329.513	16.21
329.725	16.41
329.936	16.6
330.148	15.23
330.359	14.02
330.571	13.41
330.782	14.31
330.994	14.97
331.205	16.43
331.417	15.81
331.628	16.73
331.84	17.25
332.051	17.4
332.262	17.09
332.474	17.99
332.685	19.38
332.897	20.71
333.108	21.08
333.319	22.03
333.531	21.85
333.742	23.61
333.953	23.23
334.165	22.54
334.376	23.52
334.587	23.93
334.799	24
335.01	23.59
335.221	23.41
335.432	22.6
335.644	21.84
335.855	21.48
336.066	20.54
336.277	21.18
336.488	21.36
336.7	20.37
336.911	20.16
337.122	20.13
337.333	20.44
337.544	19.92
337.755	20.47
337.966	20.72
338.177	20.9
338.388	20.29
338.599	20.38
338.811	20.56
339.022	20.92
339.233	21.04
339.444	20.68
339.655	20.79
339.866	21.68
340.076	20.89
340.287	20.98
340.498	21.32
340.709	22.64
340.92	22.4
341.131	22.12
341.342	21.77
341.553	21.91
341.764	21.07
341.975	20.49
342.185	19.96
342.396	20.04
342.607	20.29
342.818	19.79
343.029	19.16
343.239	19.04
343.45	19.07
343.661	18.94
343.872	19.16
344.082	19.82
344.293	20.41
344.504	20.44
344.714	20.98
344.925	20.85
345.136	21.21
345.346	21.95
345.557	21.76
345.768	22.05
345.978	21.89
346.189	22.08
346.399	22.35
346.61	22.32
346.821	22.94
347.031	22.64
347.242	22.72
347.452	22.81
347.663	22.92
347.873	23.1
348.084	23.36
348.294	23.35
348.504	22.58
348.715	22.6
348.925	22.44
349.136	21.69
349.346	21.6
349.557	21.38
349.767	21.49
349.977	20.86
350.188	20.83
350.398	19.43
350.608	19.6
350.819	19.47
351.029	18.77
351.239	18.59
351.449	18.8
351.66	18.18
351.87	18.42
352.08	18.44
352.29	18.4
352.501	19.35
352.711	21.29
352.921	20.85
353.131	21.7
353.341	22.13
353.552	22.5
353.762	21.51
353.972	22.37
354.182	21.4
354.392	20.86
354.602	21.09
354.812	19.52
355.022	18.79
355.232	18.98
355.442	18.92
355.652	18.38
355.862	17.81
356.072	18.6
356.282	18.01
356.492	18.95
356.702	18.66
356.912	18.53
357.122	19.19
357.332	19.52
357.542	20.32
357.752	19.74
357.962	19.89
358.171	20.09
358.381	19.96
358.591	20
358.801	19.14
359.011	18.88
359.221	19.22
359.43	19.87
359.64	19.4
359.85	18.71
360.06	18.79
360.269	19.25
360.479	19.18
360.689	19.19
360.899	19.89
361.108	20.63
361.318	20.66
361.528	20.64
361.737	19.53
361.947	19.99
362.156	20.04
362.366	19.95
362.576	19.2
362.785	19.4
362.995	19.53
363.204	19.12
363.414	18.27
363.623	18.77
363.833	18.06
364.042	18.15
364.252	18.34
364.461	18.65
364.671	18.84
364.88	19.95
365.09	19.51
365.299	19.48
365.509	19.19
365.718	19.7
365.927	19.25
366.137	19.25
366.346	19.4
366.555	18.65
366.765	18.21
366.974	18.21
367.183	17.37
367.393	17.81
367.602	17.87
367.811	17.97
368.021	17.94
368.23	17.83
368.439	17.81
368.648	18.02
368.857	18.05
369.067	17.96
369.276	18.09
369.485	18.64
369.694	18.82
369.903	18.62
370.112	18.41
370.321	18.43
370.531	18.64
370.74	18.9
370.949	18.27
371.158	18.03
371.367	18.03
371.576	18.07
371.785	17.42
371.994	17.13
372.203	17.18
372.412	17.33
372.621	16.93
372.83	16.3
373.039	16.21
373.248	16.59
373.457	16.46
373.666	16.43
373.874	15.73
374.083	15.83
374.292	15.13
374.501	14.79
374.71	15.04
374.919	15.35
375.128	16.13
375.336	16.05
375.545	15.95
375.754	16.01
375.963	15.39
376.171	15.45
376.38	15.32
376.589	15.33
376.798	14.93
377.006	14.24
377.215	14.3
377.424	13.83
377.632	13.69
377.841	13.6
378.05	13.32
378.258	14.12
378.467	13.58
378.675	13.62
378.884	14.08
379.093	13.86
379.301	13.98
379.51	13.81
379.718	13.95
379.927	13.94
380.135	13.87
380.344	13.85
380.552	13.36
380.761	13.72
380.969	13.46
381.177	13.11
381.386	13.01
381.594	12.75
381.803	12.51
382.011	12.26
382.219	12.11
382.428	12.28
382.636	12.01
382.845	12.04
383.053	12.12
383.261	11.78
383.469	11.54
383.678	11.68
383.886	11.51
384.094	11.33
384.302	11.74
384.511	11.57
384.719	11.07
384.927	11.43
385.135	11.43
385.343	11.49
385.552	11.88
385.76	11.93
385.968	11.61
386.176	12.03
386.384	12.03
386.592	11.71
386.8	11.9
387.008	12.3
387.216	12.2
387.424	12.21
387.633	11.99
387.841	11.8
388.049	11.26
388.257	11.47
388.465	11.44
388.672	11.03
388.88	10.91
389.088	10.67
389.296	10.17
389.504	9.84
389.712	9.77
389.92	9.67
390.128	9.41
390.336	9.84
390.544	9.78
390.751	9.49
390.959	9.8
391.167	9.81
391.375	9.68
391.583	9.79
391.79	9.8
391.998	9.71
392.206	9.96
392.414	10.11
392.621	9.85
392.829	10.17
393.037	10.02
393.244	9.81
393.452	9.86
393.66	9.73
393.867	9.93
394.075	10.08
394.283	9.7
394.49	9.56
394.698	9.53
394.905	9.81
395.113	9.55
395.32	9.48
395.528	9.83
395.735	9.47
395.943	9.59
396.15	9.37
396.358	8.99
396.565	9.37
396.773	8.98
396.98	9.2
397.188	9.02
397.395	9.13
397.602	9.47
397.81	9.39
398.017	9.22
398.225	9.03
398.432	8.98
398.639	9.21
398.847	8.91
399.054	9.23
399.261	8.7
399.468	8.98
399.676	8.79
399.883	8.56
400.09	8.07
400.297	8.25
400.505	8.09
400.712	8.16
400.919	8.09
401.126	8.11
401.333	7.97
401.54	8
401.748	8.03
401.955	8.38
402.162	8.57
402.369	8.7
402.576	8.67
402.783	9.23
402.99	8.87
403.197	8.78
403.404	8.7
403.611	8.9
403.818	8.85
404.025	8.68
404.232	8.28
404.439	7.9
404.646	7.83
404.853	7.62
405.06	7.44
405.267	7.74
405.474	7.67
405.681	7.45
405.887	7.28
406.094	7.6
406.301	7.53
406.508	7.63
406.715	7.65
406.922	8.22
407.128	8.7
407.335	8.27
407.542	7.98
407.749	8.21
407.955	8.41
408.162	8.07
408.369	7.67
408.575	7.68
408.782	7.77
408.989	8.25
409.195	7.72
409.402	7.28
409.609	7.53
409.815	7.49
410.022	7.27
410.228	7.2
410.435	7.32
410.642	7.46
410.848	7.16
411.055	7.33
411.261	6.98
411.468	7.08
411.674	7.23
411.881	7.17
412.087	7.21
412.294	7.37
412.5	7.56
412.706	7.65
412.913	7.3
413.119	7.33
413.326	6.9
413.532	6.89
413.738	6.8
413.945	6.36
414.151	6.38
414.357	6.14
414.564	5.9
414.77	5.93
414.976	6.01
415.182	6.48
415.389	6.5
415.595	6.3
415.801	6.37
416.007	6.48
416.214	6.43
416.42	6.55
416.626	6.84
416.832	6.85
417.038	6.91
417.244	6.8
417.45	6.59
417.657	6.54
417.863	6.74
418.069	6.55
418.275	6.52
418.481	6.82
418.687	6.85
418.893	6.75
419.099	6.98
419.305	6.61
419.511	6.65
419.717	6.77
419.923	6.7
420.129	6.65
420.335	6.76
420.541	6.64
420.746	6.48
420.952	6.26
421.158	6.19
421.364	5.94
421.57	6.04
421.776	5.98
421.982	5.78
422.187	5.88
422.393	5.79
422.599	5.68
422.805	5.54
423.01	5.72
423.216	5.7
423.422	5.79
423.628	5.83
423.833	5.8
424.039	5.79
424.245	5.89
424.45	5.88
424.656	5.99
424.862	5.91
425.067	6.18
425.273	6.01
425.478	6.18
425.684	6.13
425.889	6.06
426.095	6.2
426.301	6.2
426.506	6.19
426.712	6.13
426.917	5.95
427.123	6.04
427.328	5.68
427.533	5.63
427.739	5.36
427.944	5.43
428.15	5.43
428.355	5.41
428.561	5.38
428.766	5.29
428.971	5.25
429.177	5.34
429.382	5.27
429.587	5.48
429.793	5.72
429.998	5.76
430.203	5.53
430.408	5.56
430.614	5.66
430.819	5.47
431.024	5.6
431.229	5.85
431.434	5.74
431.64	6.02
431.845	6.01
432.05	5.97
432.255	5.93
432.46	5.89
432.665	5.89
432.87	5.75
433.076	5.96
433.281	6.03
433.486	5.76
433.691	5.79
433.896	5.52
434.101	5.44
434.306	5.39
434.511	5.48
434.716	5.55
434.921	5.69
435.126	5.72
435.331	5.36
435.535	5
435.74	5.02
435.945	4.95
436.15	5.2
436.355	5.31
436.56	5.26
436.765	5.12
436.97	5.12
437.174	5.03
437.379	5.1
437.584	5.36
437.789	5.67
437.993	5.78
438.198	5.92
438.403	5.9
438.608	5.74
438.812	5.73
439.017	5.98
439.222	6.23
439.426	6.15
439.631	5.98
439.836	6.1
440.04	5.95
440.245	5.88
440.45	5.83
440.654	5.77
440.859	5.83
441.063	5.8
441.268	5.61
441.472	5.42
441.677	5.59
441.881	5.77
442.086	5.6
442.29	5.64
442.495	5.6
442.699	5.6
442.904	5.48
443.108	5.52
443.312	5.66
443.517	5.74
443.721	5.75
443.925	5.48
444.13	5.27
444.334	5.38
444.538	5.3
444.743	5.27
444.947	5.19
445.151	5.26
445.356	5.27
445.56	5.18
445.764	5.32
445.968	5.3
446.173	5.29
446.377	5.31
446.581	5.29
446.785	5.34
446.989	5.27
447.193	5.38
447.398	5.21
447.602	5.09
447.806	5.02
448.01	5.01
448.214	4.97
448.418	5.05
448.622	4.98
448.826	4.88
449.03	4.89
449.234	5.08
449.438	5.07
449.642	5.19
449.846	5.23
450.05	5.31
450.254	4.99
450.458	5.1
450.662	5.12
450.866	5.19
451.069	5.26
451.273	5.14
451.477	4.92
451.681	4.78
451.885	4.79
452.089	4.77
452.292	4.76
452.496	4.87
452.7	4.96
452.904	4.96
453.107	5.05
453.311	5.05
453.515	5.16
453.719	5.3
453.922	5.33
454.126	5.42
454.33	5.53
454.533	5.54
454.737	5.71
454.94	5.73
455.144	5.65
455.348	5.49
455.551	5.48
455.755	5.37
455.958	5.48
456.162	5.38
456.365	5.6
456.569	5.68
456.772	5.56
456.976	5.28
457.179	5.1
457.383	5.05
457.586	5.1
457.79	4.96
457.993	4.89
458.196	4.75
458.4	4.74
458.603	4.52
458.807	4.59
459.01	4.8
459.213	4.89
459.417	4.82
459.62	4.97
459.823	4.89
460.026	4.97
460.23	5.03
460.433	5.06
460.636	5.18
460.839	5.35
461.042	5.24
461.246	5.13
461.449	5.22
461.652	5.26
461.855	5.16
462.058	5.41
462.261	5.35
462.464	5.5
462.668	5.56
462.871	5.64
463.074	5.34
463.277	5.43
463.48	5.49
463.683	5.39
463.886	5.49
464.089	5.75
464.292	5.46
464.495	5.58
464.698	5.67
464.901	5.51
465.104	5.28
465.306	5.27
465.509	5.24
465.712	5.19
465.915	5.31
466.118	5.29
466.321	5.18
466.524	5.4
466.726	5.39
466.929	5.25
467.132	5.22
467.335	5.41
467.538	5.67
467.74	5.84
467.943	5.76
468.146	5.59
468.348	5.61
468.551	5.33
468.754	5.32
468.956	5.39
469.159	5.27
469.362	5.3
469.564	5.25
469.767	5.19
469.969	5.03
470.172	4.97
470.375	5.02
470.577	5.19
470.78	5.31
470.982	5.3
471.185	5.32
471.387	5.34
471.59	5.38
471.792	5.27
471.995	5.1
472.197	5.24
472.399	5.29
472.602	5.33
472.804	5.28
473.007	5.33
473.209	5.38
473.411	5.3
473.614	5.26
473.816	5.13
474.018	5.32
474.22	5.42
474.423	5.26
474.625	5.24
474.827	5.44
475.03	5.25
475.232	5.21
475.434	5.01
475.636	4.87
475.838	4.9
476.04	4.85
476.243	4.74
476.445	4.58
476.647	4.6
476.849	4.78
477.051	4.53
477.253	4.66
477.455	4.58
477.657	4.46
477.859	4.63
478.061	4.8
478.263	4.85
478.465	5.01
478.667	5.1
478.869	5.03
479.071	5.12
479.273	5.27
479.475	5.18
479.677	5.36
479.879	5.57
480.081	5.6
480.283	5.48
480.485	5.68
480.686	5.52
480.888	5.59
481.09	5.63
481.292	5.6
481.494	5.52
481.695	5.49
481.897	5.36
482.099	5.38
482.301	5.27
482.502	5.23
482.704	5.22
482.906	5.17
483.107	5.08
483.309	5.05
483.511	5.02
483.712	5.03
483.914	4.99
484.115	5
484.317	4.96
484.519	4.93
484.72	4.98
484.922	4.9
485.123	4.92
485.325	4.93
485.526	4.95
485.728	4.93
485.929	4.9
486.131	4.98
486.332	5
486.534	5.05
486.735	4.97
486.936	4.93
487.138	4.97
487.339	4.93
487.541	4.97
487.742	4.96
487.943	4.94
488.144	4.96
488.346	4.9
488.547	4.86
488.748	4.78
488.95	4.87
489.151	4.79
489.352	4.78
489.553	4.82
489.755	4.79
489.956	4.79
490.157	4.8
490.358	4.86
490.559	4.84
490.76	4.8
490.961	4.85
491.163	4.89
491.364	4.97
491.565	4.97
491.766	5.04
491.967	5.09
492.168	5.14
492.369	5.1
492.57	5
492.771	5.1
492.972	5.2
493.173	5.19
493.374	5.15
493.575	5.18
493.776	5.13
493.976	5.07
494.177	4.96
494.378	4.97
494.579	5.05
494.78	5.05
494.981	4.85
495.182	4.75
495.382	4.9
495.583	4.93
495.784	4.99
495.985	5.23
496.185	5.22
496.386	5.31
496.587	5.17
496.788	5.15
496.988	5.05
497.189	5.21
497.39	5.4
497.59	5.31
497.791	5.34
497.992	5.34
498.192	5.27
498.393	5.07
498.593	5.31
498.794	5.44
498.994	5.49
499.195	5.69
499.395	5.68
499.596	5.51
499.796	5.46
499.997	5.68
500.197	5.74
500.398	5.73
500.598	5.9
500.799	5.62
500.999	5.55
501.199	5.53
501.4	5.37
501.6	5.37
501.801	5.5
502.001	5.69
502.201	5.56
502.402	5.41
502.602	5.44
502.802	5.56
503.002	5.72
503.203	5.69
503.403	5.69
503.603	5.9
503.803	6.14
504.003	6.04
504.204	6.14
504.404	6.27
504.604	6.47
504.804	6.68
505.004	6.72
505.204	6.69
505.404	6.85
505.604	6.89
505.804	7.02
506.005	6.92
506.205	7.1
506.405	7.09
506.605	7.03
506.805	6.99
507.005	6.94
507.204	7.11
507.404	7.26
507.604	7.21
507.804	7.42
508.004	7.42
508.204	7.32
508.404	7.34
508.604	7.43
508.804	7.54
509.003	7.82
509.203	7.82
509.403	7.88
509.603	7.91
509.803	7.92
510.002	7.9
510.202	8.05
510.402	8.3
510.602	8.43
510.801	8.32
511.001	8.44
511.201	8.31
511.4	8.41
511.6	8.51
511.8	8.51
511.999	8.65
512.199	8.75
512.398	8.78
512.598	8.79
512.797	8.8
512.997	9.02
513.197	9.03
513.396	9.1
513.596	9.21
513.795	9.18
513.994	9.35
514.194	9.4
514.393	9.46
514.593	9.54
514.792	9.72
514.992	9.79
515.191	9.87
515.39	9.94
515.59	10.11
515.789	10.25
515.988	10.38
516.188	10.37
516.387	10.61
516.586	10.83
516.786	10.83
516.985	11.03
517.184	11.26
517.383	11.38
517.582	11.51
517.782	11.69
517.981	11.75
518.18	11.85
518.379	11.97
518.578	12.12
518.777	12.16
518.976	12.32
519.176	12.28
519.375	12.39
519.574	12.47
519.773	12.69
519.972	12.77
520.171	12.9
520.37	13.02
520.569	13.23
520.768	13.25
520.967	13.52
521.166	13.52
521.365	13.74
521.564	13.92
521.762	14.09
521.961	14.13
522.16	14.21
522.359	14.18
522.558	14.23
522.757	14.2
522.956	14.35
523.154	14.31
523.353	14.69
523.552	14.84
523.751	14.81
523.949	14.98
524.148	14.98
524.347	15.11
524.546	15.37
524.744	15.5
524.943	15.66
525.142	15.76
525.34	15.86
525.539	15.89
525.737	15.97
525.936	16.18
526.135	16.29
526.333	16.46
526.532	16.56
526.73	16.71
526.929	16.87
527.127	17.1
527.326	17.36
527.524	17.55
527.723	17.72
527.921	17.77
528.12	17.85
528.318	17.87
528.516	17.91
528.715	17.95
528.913	17.98
529.112	18.06
529.31	18.05
529.508	18.03
529.707	17.98
529.905	17.96
530.103	18.01
530.301	17.99
530.5	18.1
530.698	18.25
530.896	18.46
531.094	18.67
531.293	18.76
531.491	18.96
531.689	19.18
531.887	19.42
532.085	19.73
532.283	19.9
532.481	20.09
532.68	20.14
532.878	20.26
533.076	20.32
533.274	20.35
533.472	20.48
533.67	20.58
533.868	20.56
534.066	20.73
534.264	20.72
534.462	20.82
534.66	20.86
534.858	21.03
535.056	21.18
535.253	21.32
535.451	21.39
535.649	21.5
535.847	21.61
536.045	21.77
536.243	21.73
536.441	21.85
536.638	21.86
536.836	22.02
537.034	22.01
537.232	21.92
537.43	21.92
537.627	22.01
537.825	22.09
538.023	22.1
538.22	22.12
538.418	22.34
538.616	22.32
538.813	22.6
539.011	22.64
539.209	22.92
539.406	23.02
539.604	23.26
539.801	23.26
539.999	23.42
540.196	23.63
540.394	23.74
540.591	23.76
540.789	23.84
540.986	23.74
541.184	23.81
541.381	23.86
541.579	24.04
541.776	24.04
541.974	24.12
542.171	24.07
542.368	24.12
542.566	24.14
542.763	24.29
542.96	24.33
543.158	24.53
543.355	24.66
543.552	24.77
543.75	24.79
543.947	24.67
544.144	24.85
544.341	24.96
544.539	25.02
544.736	25.07
544.933	25.06
545.13	25.28
545.327	25.31
545.524	25.34
545.722	25.42
545.919	25.38
546.116	25.66
546.313	25.73
546.51	25.82
546.707	25.86
546.904	26.08
547.101	26.15
547.298	26.05
547.495	25.99
547.692	25.91
547.889	25.82
548.086	25.93
548.283	25.92
548.48	26
548.677	26.12
548.874	26.17
549.07	26.16
549.267	26.41
549.464	26.58
549.661	26.81
549.858	27.03
550.055	27.31
550.251	27.43
550.448	27.48
550.645	27.39
550.842	27.32
551.038	27.4
551.235	27.43
551.432	27.3
551.628	27.38
551.825	27.42
552.022	27.41
552.218	27.32
552.415	27.33
552.612	27.52
552.808	27.74
553.005	27.86
553.201	27.78
553.398	27.81
553.594	27.93
553.791	28.08
553.987	27.94
554.184	28.14
554.38	28.26
554.577	28.37
554.773	28.47
554.97	28.57
555.166	28.39
555.362	28.65
555.559	28.66
555.755	28.5
555.952	28.55
556.148	28.69
556.344	28.48
556.541	28.48
556.737	28.48
556.933	28.53
557.129	28.44
557.326	28.63
557.522	28.54
557.718	28.58
557.914	28.75
558.11	28.84
558.307	28.99
558.503	29.46
558.699	29.66
558.895	29.56
559.091	29.55
559.287	29.51
559.483	29.49
559.679	29.68
559.876	29.89
560.072	29.8
560.268	29.58
560.464	29.56
560.66	29.28
560.856	29.01
561.052	29.16
561.247	29.16
561.443	29.25
561.639	29.24
561.835	29.22
562.031	29.22
562.227	29.11
562.423	29.14
562.619	29.14
562.815	29.21
563.01	29.36
563.206	29.58
563.402	29.67
563.598	29.83
563.793	29.94
563.989	29.91
564.185	29.8
564.381	30.08
564.576	30.25
564.772	30.31
564.968	30.42
565.163	30.61
565.359	30.4
565.555	30.3
565.75	30.02
565.946	30.2
566.141	30.3
566.337	30.19
566.532	30.42
566.728	30.26
566.923	30.39
567.119	30.44
567.314	30.47
567.51	30.44
567.705	30.62
567.901	30.8
568.096	30.84
568.292	30.81
568.487	30.82
568.682	30.7
568.878	31.07
569.073	31
569.268	30.81
569.464	30.66
569.659	30.77
569.854	30.65
570.05	30.78
570.245	30.87
570.44	30.82
570.635	31.06
570.831	31.17
571.026	31.26
571.221	31.25
571.416	31.54
571.611	31.41
571.806	31.59
572.002	31.64
572.197	31.58
572.392	31.55
572.587	31.65
572.782	31.51
572.977	31.25
573.172	31.02
573.367	31.06
573.562	30.96
573.757	31.12
573.952	30.91
574.147	30.94
574.342	30.95
574.537	30.99
574.732	31.03
574.927	31.36
575.121	31.49
575.316	31.64
575.511	31.6
575.706	31.58
575.901	31.71
576.096	31.83
576.29	31.92
576.485	32.05
576.68	31.98
576.875	31.82
577.069	31.7
577.264	31.54
577.459	31.63
577.654	31.84
577.848	31.74
578.043	31.86
578.238	32.15
578.432	32.06
578.627	31.84
578.821	32.02
579.016	32.32
579.21	32.11
579.405	32.47
579.6	32.25
579.794	32.32
579.989	32.32
580.183	32.2
580.378	32.04
580.572	32.06
580.766	32.17
580.961	32.24
581.155	32.19
581.35	32.52
581.544	32.3
581.738	32.39
581.933	32.33
582.127	32.46
582.321	32.22
582.516	31.81
582.71	31.79
582.904	31.7
583.099	31.46
583.293	31.52
583.487	31.45
583.681	31.54
583.875	31.53
584.07	31.31
584.264	31.62
584.458	31.75
584.652	31.99
584.846	31.98
585.04	32.36
585.234	32.28
585.428	32.08
585.623	32.03
585.817	32.15
586.011	32.12
586.205	32.04
586.399	31.9
586.593	32.07
586.787	32.01
586.981	32.11
587.174	31.9
587.368	32.03
587.562	32.27
587.756	32.38
587.95	32.34
588.144	32.66
588.338	32.76
588.532	32.78
588.725	32.76
588.919	33.16
589.113	33.42
589.307	33.29
589.501	33.4
589.694	33.44
589.888	33.35
590.082	33.55
590.275	33.34
590.469	33.6
590.663	33.68
590.856	33.79
591.05	33.72
591.244	33.57
591.437	33.75
591.631	33.83
591.824	33.76
592.018	33.97
592.212	33.68
592.405	33.8
592.599	33.96
592.792	34.01
592.986	34
593.179	34.03
593.372	34.31
593.566	34.41
593.759	34.43
593.953	34.25
594.146	34.39
594.339	34.43
594.533	34.27
594.726	34.07
594.92	33.98
595.113	33.9
595.306	33.72
595.499	33.4
595.693	33.51
595.886	33.55
596.079	33.53
596.272	33.32
596.466	33.37
596.659	33.61
596.852	33.51
597.045	33.38
597.238	33.32
597.431	33.45
597.624	33.46
597.818	33.38
598.011	33.26
598.204	33.65
598.397	33.74
598.59	33.77
598.783	33.74
598.976	33.87
599.169	33.92
599.362	34.1
599.555	33.99
599.748	33.97
599.941	33.87
600.134	33.89
600.326	33.61
600.519	33.65
600.712	33.66
600.905	33.58
601.098	33.49
601.291	33.8
601.483	33.71
601.676	33.91
601.869	34.05
602.062	34.25
602.255	34.47
602.447	34.43
602.64	34.45
602.833	34.6
603.025	34.65
603.218	34.59
603.411	34.47
603.603	34.52
603.796	34.41
603.989	34.52
604.181	34.4
604.374	34.1
604.566	34.12
604.759	34.1
604.951	34.12
605.144	34
605.336	34.12
605.529	34.09
605.721	34.03
605.914	34.08
606.106	34.01
606.299	34.27
606.491	34.54
606.683	34.79
606.876	34.86
607.068	34.78
607.26	35.05
607.453	34.84
607.645	34.92
607.837	35.24
608.03	35.1
608.222	35.14
608.414	35.01
608.606	34.96
608.799	34.86
608.991	34.72
609.183	34.64
609.375	34.43
609.567	34.57
609.759	34.57
609.952	34.49
610.144	34.66
610.336	34.7
610.528	34.41
610.72	34.33
610.912	34.41
611.104	34.5
611.296	34.38
611.488	34.36
611.68	34.18
611.872	33.93
612.064	33.75
612.256	33.82
612.448	33.64
612.64	34.01
612.832	33.83
613.023	33.72
613.215	33.45
613.407	33.63
613.599	33.93
613.791	34.17
613.983	34.81
614.174	34.76
614.366	34.64
614.558	34.62
614.75	34.49
614.941	34.96
615.133	34.93
615.325	34.94
615.516	34.94
615.708	34.86
615.9	35.06
616.091	34.94
616.283	34.92
616.475	34.89
616.666	35.11
616.858	35.22
617.049	35.23
617.241	35.01
617.432	35.07
617.624	35.19
617.815	35.03
618.007	35
618.198	34.99
618.39	35
618.581	34.95
618.773	34.74
618.964	34.45
619.155	34.35
619.347	34.62
619.538	34.66
619.729	34.72
619.921	34.8
620.112	34.94
620.303	34.96
620.494	35.17
620.686	34.96
620.877	35.46
621.068	35.65
621.259	35.74
621.451	35.63
621.642	35.69
621.833	36.02
622.024	36.44
622.215	36.28
622.406	36.33
622.597	36.27
622.788	36.49
622.98	36.17
623.171	36.31
623.362	36.32
623.553	36.4
623.744	36.61
623.935	36.3
624.126	35.58
624.317	35.54
624.508	35.37
624.698	35.07
624.889	35.41
625.08	35.33
625.271	35.33
625.462	35.25
625.653	35.3
625.844	35.47
626.034	35.59
626.225	35.79
626.416	35.68
626.607	35.48
626.798	35.57
626.988	35.32
627.179	35.31
627.37	35.25
627.56	35.15
627.751	35
627.942	34.74
628.132	34.42
628.323	34.15
628.514	34.23
628.704	34.45
628.895	34.64
629.085	34.7
629.276	34.79
629.466	34.41
629.657	34.76
629.847	35.06
630.038	35.06
630.228	35.21
630.419	35.4
630.609	35.79
630.8	35.59
630.99	35.59
631.181	35.63
631.371	35.39
631.561	35.76
631.752	35.45
631.942	35.3
632.132	35.54
632.323	35.58
632.513	36.08
632.703	35.78
632.893	35.85
633.084	35.84
633.274	36
633.464	36.22
633.654	36.5
633.844	36.46
634.034	36.22
634.225	35.95
634.415	35.91
634.605	35.86
634.795	35.83
634.985	35.65
635.175	35.73
635.365	35.76
635.555	35.9
635.745	35.62
635.935	35.54
636.125	35.78
636.315	35.88
636.505	35.98
636.695	35.98
636.885	35.68
637.075	36.09
637.265	36.06
637.455	35.8
637.644	35.81
637.834	35.48
638.024	35.76
638.214	35.46
638.404	35.39
638.593	35.46
638.783	35.08
638.973	35.15
639.163	35.08
639.352	35.14
639.542	35.36
639.732	35.29
639.921	35.66
640.111	35.74
640.301	36.03
640.49	36.34
640.68	36.11
640.87	36.27
641.059	36.4
641.249	36.27
641.438	36.12
641.628	36.04
641.817	35.93
642.007	35.89
642.196	35.7
642.386	35.78
642.575	35.73
642.764	35.84
642.954	36.13
643.143	36.16
643.333	36.61
643.522	36.98
643.711	36.78
643.901	37.11
644.09	37.32
644.279	37.44
644.469	37.12
644.658	36.46
644.847	36.58
645.036	36.8
645.226	36.56
645.415	36.1
645.604	35.88
645.793	35.99
645.982	35.99
646.171	36.05
646.361	35.97
646.55	36.53
646.739	36.97
646.928	36.69
647.117	36.08
647.306	36.22
647.495	36.56
647.684	36.54
647.873	36.63
648.062	36.4
648.251	36.35
648.44	36.57
648.629	36.54
648.818	36.35
649.007	36.4
649.196	36.72
649.384	37.06
649.573	37.05
649.762	36.86
649.951	36.68
650.14	36.48
650.328	36.53
650.517	36.22
650.706	35.84
650.895	35.96
651.083	35.91
651.272	35.58
651.461	35.6
651.65	35.38
651.838	35.52
652.027	35.66
652.216	36.01
652.404	35.55
652.593	35.44
652.781	35.69
652.97	35.65
653.158	35.47
653.347	35.69
653.535	35.42
653.724	35.23
653.912	35.19
654.101	35
654.289	34.82
654.478	35.58
654.666	35.25
654.855	34.93
655.043	34.77
655.231	35.1
655.42	35.23
655.608	35.52
655.796	35.87
655.985	35.91
656.173	35.75
656.361	35.7
656.55	35.16
656.738	35.72
656.926	36.01
657.114	35.68
657.302	35.58
657.491	35.58
657.679	35.65
657.867	35.55
658.055	35.88
658.243	36.18
658.431	36.38
658.619	36.65
658.807	36.63
658.996	36.52
659.184	36.84
659.372	36.81
659.56	36.61
659.748	36.4
659.936	36.14
660.124	35.67
660.311	35.57
660.499	35.18
660.687	34.86
660.875	34.86
661.063	35
661.251	35.29
661.439	35.41
661.627	35.56
661.814	35.39
662.002	35.93
662.19	36.21
662.378	36.02
662.565	36.15
662.753	36.28
662.941	35.98
663.129	35.86
663.316	35.71
663.504	35.74
663.692	35.31
663.879	35.29
664.067	35.31
664.254	35.18
664.442	35.64
664.63	35.82
664.817	36.2
665.005	36.45
665.192	36.71
665.38	36.57
665.567	36.68
665.755	37.13
665.942	37.45
666.13	37.19
666.317	37.24
666.504	36.99
666.692	36.95
666.879	36.51
667.067	36.69
667.254	36.25
667.441	36.54
667.629	36.57
667.816	36.26
668.003	35.97
668.19	35.96
668.378	36.17
668.565	36.4
668.752	36.45
668.939	36.98
669.127	36.84
669.314	37.76
669.501	37.24
669.688	37.54
669.875	37.74
670.062	38.17
670.249	38.19
670.436	38.17
670.623	38.13
670.81	38.11
670.997	38.3
671.184	37.8
671.371	37.22
671.558	37.58
671.745	36.88
671.932	37.23
672.119	37.13
672.306	37.08
672.493	36.83
672.68	36.62
672.867	36.85
673.054	35.67
673.24	36.25
673.427	36.28
673.614	36.21
673.801	36.89
673.988	37.05
674.174	36.67
674.361	36.79
674.548	36.93
674.734	36.95
674.921	37.2
675.108	37.55
675.294	37.61
675.481	37.53
675.668	37.65
675.854	37.06
676.041	36.52
676.227	36.35
676.414	35.96
676.601	36.01
676.787	35.79
676.974	35.51
677.16	35.91
677.347	36.15
677.533	36.03
677.719	36.35
677.906	36.61
678.092	36.95
678.279	37.75
678.465	37.69
678.651	37.87
678.838	38.16
679.024	37.56
679.21	37.22
679.397	37.19
679.583	37.02
679.769	36.53
679.955	36.31
680.142	35.9
680.328	35.37
680.514	35.25
680.7	35.52
680.886	34.96
681.073	35.15
681.259	35.32
681.445	35.16
681.631	35.3
681.817	35.28
682.003	35.24
682.189	35.57
682.375	35.8
682.561	36.23
682.747	35.63
682.933	35.88
683.119	36.15
683.305	36.32
683.491	36.37
683.677	36.67
683.863	37.06
684.049	37.37
684.235	36.91
684.42	37.02
684.606	36.93
684.792	36.88
684.978	37.61
685.164	37.13
685.349	37.18
685.535	36.72
685.721	36.45
685.907	35.8
686.092	35.57
686.278	35.57
686.464	35.59
686.649	35.63
686.835	35.59
687.021	35.06
687.206	35.56
687.392	34.69
687.577	35.02
687.763	34.86
687.948	35.4
688.134	35.6
688.319	35.88
688.505	35.61
688.69	35.82
688.876	36
689.061	36.16
689.247	35.52
689.432	36.11
689.618	35.79
689.803	35.92
689.988	36.04
690.174	36.04
690.359	36.13
690.544	35.75
690.73	35.62
690.915	36.22
691.1	36.17
691.285	37.21
691.471	37.34
691.656	37.61
691.841	37.61
692.026	37.08
692.211	37.29
692.396	37.02
692.582	37.23
692.767	37.5
692.952	36.9
693.137	36.7
693.322	36.13
693.507	35.67
693.692	35.89
693.877	36
694.062	36.46
694.247	35.91
694.432	36.04
694.617	36.8
694.802	36.7
694.987	36.43
695.172	36.69
695.357	37.39
695.541	37.56
695.726	37.36
695.911	37.8
696.096	37.35
696.281	37.44
696.466	37.88
696.65	36.98
696.835	36.81
697.02	37.49
697.204	37.77
697.389	37.1
697.574	37.3
697.759	36.92
697.943	36.45
698.128	36.76
698.312	37.15
698.497	36.96
698.682	37.03
698.866	37.07
699.051	36.92
699.235	36.22
699.42	36
699.604	35.96
699.789	36.05
699.973	36.28
700.158	35.97
700.342	35.6
700.527	35.6
700.711	36.02
700.895	35.81
701.08	35.37
701.264	36.09
701.448	36.64
701.633	36.65
701.817	36.91
702.001	35.96
702.186	36.39
702.37	36.47
702.554	36.29
702.738	36.27
702.923	35.86
703.107	36.15
703.291	35.67
703.475	35.63
703.659	36.21
703.843	36.38
704.027	37.35
704.212	37.09
704.396	37.42
704.58	37.13
704.764	36.29
704.948	36.87
705.132	36.65
705.316	37.24
705.5	36.82
705.684	35.8
705.868	35.79
706.052	35.97
706.235	36.11
706.419	36.35
706.603	36.83
706.787	37.07
706.971	37.34
707.155	36.76
707.339	36.54
707.522	36.4
707.706	36.45
707.89	36.07
708.074	35.58
708.257	35.22
708.441	34.55
708.625	34.23
708.808	34.54
708.992	34.52
709.176	35.45
709.359	35.74
709.543	35.96
709.727	36.14
709.91	36.38
710.094	37.19
710.277	37.53
710.461	38.09
710.644	38.51
710.828	38.73
711.011	38.97
711.195	38.25
711.378	38.11
711.562	38.63
711.745	38.4
711.928	38.28
712.112	37.36
712.295	37.25
712.478	36.64
712.662	36.36
712.845	36.19
713.028	35.7
713.212	36.21
713.395	36.14
713.578	35.84
713.761	35.63
713.945	36.29
714.128	36.82
714.311	36.92
714.494	37.2
714.677	37.33
714.86	37.76
715.043	37.64
715.227	38
715.41	37.74
715.593	37.77
715.776	38.26
715.959	37.46
716.142	37.46
716.325	37.54
716.508	37.84
716.691	37.31
716.874	37.09
717.057	36.71
717.239	36.69
717.422	36.79
717.605	36.28
717.788	35.45
717.971	36.07
718.154	36.2
718.337	35.3
718.519	34.93
718.702	34.81
718.885	34.61
719.068	35.02
719.25	34.6
719.433	34.86
719.616	35.13
719.798	35.94
719.981	34.99
720.164	35.03
720.346	35.68
720.529	35.66
720.712	35.59
720.894	35.14
721.077	35.45
721.259	35.04
721.442	34.79
721.624	34.72
721.807	35.21
721.989	36.05
722.172	35.69
722.354	35.79
722.537	36.5
722.719	38.42
722.901	38.47
723.084	38.69
723.266	38.93
723.448	39.32
723.631	39.06
723.813	39.03
723.995	38.85
724.178	38.98
724.36	39.51
724.542	38.93
724.724	37.21
724.907	37.37
725.089	37
725.271	37.57
725.453	35.83
725.635	36.1
725.817	35.76
725.999	36.15
726.181	35.59
726.364	35.58
726.546	35.43
726.728	36.34
726.91	36.91
727.092	37.45
727.274	37.72
727.456	38.82
727.638	38.88
727.819	39.43
728.001	38.99
728.183	39.42
728.365	39.03
728.547	38.81
728.729	38.65
728.911	38.74
729.093	38.39
729.274	38.3
729.456	38.42
729.638	38.49
729.82	37.72
730.001	38.33
730.183	38.05
730.365	38.25
730.546	38.42
730.728	38.08
730.91	37.54
731.091	37.44
731.273	37.11
731.455	37.37
731.636	37.52
731.818	38.05
731.999	37.46
732.181	37.23
732.362	37.69
732.544	37.57
732.725	37.77
732.907	37.89
733.088	38.13
733.27	38.44
733.451	38.3
733.633	38.23
733.814	37.97
733.995	36.73
734.177	36.7
734.358	35.9
734.539	36.37
734.721	36.25
734.902	35.48
735.083	35.11
735.264	35.37
735.446	35.7
735.627	35.75
735.808	36.05
735.989	36.9
736.17	36.75
736.351	36.72
736.533	36.53
736.714	37.1
736.895	38.34
737.076	38.6
737.257	38.14
737.438	38.07
737.619	38.09
737.8	37.58
737.981	38.59
738.162	38.84
738.343	39.97
738.524	40.13
738.705	39.85
738.886	39.06
739.067	39.97
739.247	39.39
739.428	39.01
739.609	39.68
739.79	40.94
739.971	40.74
740.151	41.54
740.332	41.54
740.513	40.31
740.694	39.78
740.874	40.45
741.055	39.27
741.236	39.65
741.417	39.59
741.597	38.72
741.778	37.54
741.958	37.95
742.139	37.56
742.32	37.02
742.5	38.01
742.681	39.02
742.861	39.03
743.042	39.33
743.222	38.63
743.403	39.35
743.583	39.89
743.764	40.12
743.944	39.93
744.124	40.71
744.305	41.07
744.485	40.43
744.666	40.46
744.846	40.34
745.026	40.14
745.207	40.53
745.387	39.43
745.567	38.84
745.747	39
745.928	38.99
746.108	38.57
746.288	37.43
746.468	37.57
746.648	36.45
746.829	36.32
747.009	36.71
747.189	36.94
747.369	37.33
747.549	37.69
747.729	37.6
747.909	36.66
748.089	35.37
748.269	35.81
748.449	36.33
748.629	35.78
748.809	35.08
748.989	34.21
749.169	34.28
749.349	33.89
749.529	33.41
749.709	34.11
749.889	33.93
750.068	34.9
750.248	35.67
750.428	35.39
750.608	36.61
750.788	36.57
750.967	36.96
751.147	36.67
751.327	37.55
751.507	38.31
751.686	38.09
751.866	37.7
752.046	37.68
752.225	37.11
752.405	37.11
752.585	37
752.764	38.86
752.944	39.6
753.123	39.52
753.303	39.32
753.482	38.47
753.662	37.82
753.841	39.07
754.021	37.86
754.2	37.53
754.38	37.35
754.559	36.61
754.739	34.41
754.918	33.14
755.097	34.16
755.277	34.32
755.456	35.46
755.635	35.03
755.815	33.7
755.994	34.88
756.173	34.17
756.352	35.5
756.532	34.99
756.711	36.19
756.89	37.02
757.069	36.6
757.248	36.13
757.427	34.55
757.607	34.8
757.786	36.16
757.965	37.65
758.144	38.99
758.323	37.91
758.502	39.31
758.681	39.63
758.86	39.39
759.039	38.56
759.218	39.58
759.397	40.96
759.576	41.45
759.755	41.15
759.934	39.41
760.113	39.65
760.291	39.17
760.47	38.79
760.649	37.46
760.828	37.85
761.007	38.67
761.186	36.53
761.364	35.16
761.543	34.32
761.722	34.27
761.901	34.24
762.079	33.93
762.258	34.48
762.437	35.1
762.615	35.33
762.794	34.44
762.972	33.88
763.151	33.92
763.33	34.55
763.508	34.79
763.687	34.35
763.865	34.66
764.044	34.38
764.222	34.3
764.401	33.57
764.579	34.4
764.758	34.8
764.936	35.05
765.114	36.56
765.293	37.27
765.471	37.68
765.65	38.56
765.828	38.14
766.006	37.6
766.184	37.67
766.363	37.75
766.541	36.62
766.719	37.43
766.898	37.66
767.076	36.98
767.254	36.54
767.432	36.84
767.61	35.62
767.788	36.3
767.967	36.11
768.145	35.22
768.323	34.34
768.501	34.95
768.679	33.7
768.857	32.99
769.035	33.7
769.213	33.88
769.391	33.49
769.569	33.26
769.747	32.63
769.925	33.73
770.103	34.64
770.281	35.75
770.459	36.15
770.636	36.78
770.814	37.72
770.992	37.11
771.17	35.98
771.348	35.64
771.525	37.51
771.703	38.09
771.881	37.98
772.059	39.74
772.236	39.56
772.414	39.22
772.592	37.96
772.769	37.83
772.947	37.84
773.125	39.68
773.302	39.75
773.48	38.86
773.657	39.69
773.835	38.49
774.013	38.12
774.19	38.21
774.368	37.86
774.545	38.74
774.723	39.33
774.9	40.02
775.077	39.98
775.255	39.96
775.432	39.54
775.61	38.49
775.787	40.91
775.964	39.79
776.142	39.56
776.319	39.75
776.496	39.7
776.674	38.54
776.851	37.17
777.028	35.65
777.205	37.02
777.382	37.78
777.56	37.96
777.737	37.11
777.914	35.43
778.091	35.91
778.268	35.9
778.445	36.79
778.622	36.27
778.8	36.37
778.977	37.83
779.154	32.83
779.331	32.36
779.508	31.71
779.685	32.15
779.862	33.44
780.038	33.88
780.215	33.05
780.392	31.94
780.569	31.32
780.746	30.84
780.923	29.96
781.1	33.46
781.277	33.79
781.453	33.46
781.63	32.05
781.807	32.6
781.984	33.05
782.16	35.77
782.337	36.18
782.514	38.07
782.691	37.11
782.867	36.12
783.044	36.59
783.221	36
783.397	36.28
783.574	37.28
783.75	37.71
783.927	36.79
784.103	34.37
784.28	34.78
784.456	33.88
784.633	37.44
784.809	38.47
784.986	37.95
785.162	37.33
785.339	36.9
785.515	37.56
785.692	36.19
785.868	37.43
786.044	37.35
786.221	35.86
786.397	37.51
786.573	34.71
786.749	33.14
786.926	32.55
787.102	35.69
787.278	34.9
787.454	33.25
787.631	32.53
787.807	32.02
787.983	32.9
788.159	34.25
788.335	34.85
788.511	36.24
788.687	37.06
788.863	37.94
789.039	34.63
789.216	36.5
789.392	36.82
789.568	39.5
789.744	38.57
789.919	36.39
790.095	36.86
790.271	35.14
790.447	34.96
790.623	34.53
790.799	35.2
790.975	37.17
791.151	37.25
791.327	39.58
791.502	39.66
791.678	39.83
791.854	39.93
792.03	39.44
792.205	39.01
792.381	40.17
792.557	41.95
792.733	40.73
792.908	37.91
793.084	38.45
793.259	37.13
793.435	33.83
793.611	35.36
793.786	39.31
793.962	38.03
794.137	38.8
794.313	37.63
794.488	37.37
794.664	38.27
794.839	42.08
795.015	40.14
795.19	39.43
795.366	40.64
795.541	40.68
795.716	39.27
795.892	38.47
796.067	38.8
796.242	37.34
796.418	36.05
796.593	36.13
796.768	35.25
796.944	35.71
797.119	35.22
797.294	35.8
797.469	32.78
797.644	33.32
797.82	35.08
797.995	33.02
798.17	36.08
798.345	35.11
798.52	35.54
798.695	35.06
798.87	32.88
799.045	33.46
799.22	34.69
799.395	37.79
799.57	36.31
799.745	37.47
799.92	39.4
800.095	38.08
800.27	40.67
800.445	38.49
800.62	38.79
800.795	39.94
800.97	39.61
801.145	36.04
801.319	34.94
801.494	35.51
801.669	33.69
801.844	35.49
802.018	35.4
802.193	36.12
802.368	37.02
802.543	35.32
802.717	37.4
802.892	38.56
803.067	40.24
803.241	41.13
803.416	39.93
803.59	38.5
803.765	35.47
803.94	34.48
804.114	30.77
804.289	32.15
804.463	33.19
804.638	31.88
804.812	30.13
804.986	31.36
805.161	28.86
805.335	33.23
805.51	34.12
805.684	35.28
805.858	37.48
806.033	39.59
806.207	39.87
806.381	42.55
806.556	39.08
806.73	40.76
806.904	38.34
807.078	41.92
807.253	38.28
807.427	37.17
807.601	35.12
807.775	31.97
807.949	31.68
808.123	30.64
808.298	28.23
808.472	32.07
808.646	30.4
808.82	33.89
808.994	29.38
809.168	31.23
809.342	33.17
809.516	34.16
809.69	32.31
809.864	31.55
810.038	28.81
810.212	30.17
810.385	30.34
810.559	28.64
810.733	26.16
810.907	28.94
811.081	27.93
811.255	26.06
811.428	28.08
811.602	29.72
811.776	28.15
811.95	27.86
812.123	27.45
812.297	26.57
812.471	26.14
812.644	28.41
812.818	30.13
812.992	30.95
813.165	31.51
813.339	27.73
813.512	32.57
813.686	34.6
813.86	37.24
814.033	39.34
814.207	40
814.38	44.27
814.554	44.14
814.727	41.03
814.9	38.11
815.074	41.45
815.247	42.33
815.421	37.63
815.594	39.2
815.767	39.46
815.941	33.94
816.114	34.06
816.287	31.16
816.46	29.29
816.634	29.08
816.807	30.87
816.98	31.11
817.153	34.19
817.327	34.23
817.5	32.95
817.673	35.68
817.846	37.47
818.019	37.93
818.192	40.03
818.365	40.61
818.538	45.36
818.711	47.72
818.884	45.81
819.057	46.18
819.23	46.46
819.403	47.15
819.576	46.04
819.749	45.29
819.922	43.95
820.095	42.48
820.268	40.39
820.441	37.5
820.614	38.42
820.786	39
820.959	36.08
821.132	36.54
821.305	35.64
821.477	35.41
821.65	34.91
821.823	34.74
821.996	35.21
822.168	35.88
822.341	36.15
822.514	35.59
822.686	35.07
822.859	35.69
823.031	35.9
823.204	36.22
823.376	35.98
823.549	35.9
823.722	35.77
823.894	34.95
824.067	35.36
824.239	35.16
824.411	34.97
824.584	35.26
824.756	35.07
824.929	35.16
825.101	34.23
825.273	34.01
825.446	34.76
825.618	35.12
825.79	35.29
825.963	34.52
826.135	34.98
826.307	34.5
826.479	33.7
826.652	33.97
826.824	34.13
826.996	34.59
827.168	34.96
827.34	34.88
827.512	34.34
827.684	34.85
827.856	35.07
828.029	36.12
828.201	36.6
828.373	37.33
828.545	37.43
828.717	37.39
828.889	38.43
829.061	37.93
829.232	38.72
829.404	40.75
829.576	42.44
829.748	42.74
829.92	41.8
830.092	41.4
830.264	42.78
830.436	44.11
830.607	43.14
830.779	41.47
830.951	43.59
831.123	43.55
831.294	42.75
831.466	40.01
831.638	40.88
831.809	40.66
831.981	41.15
832.153	40.64
832.324	40.64
832.496	40.53
832.667	42.49
832.839	40.22
833.011	38.9
833.182	39.75
833.354	41.55
833.525	39.73
833.697	37.92
833.868	40.01
834.039	39.49
834.211	37.94
834.382	38.58
834.554	37.38
834.725	38.41
834.896	39.02
835.068	37.57
835.239	36.3
835.41	36.33
835.581	36.22
835.753	34.3
835.924	33.53
836.095	34.41
836.266	34.47
836.438	33.93
836.609	33.85
836.78	32.99
836.951	32.61
837.122	34.09
837.293	35.33
837.464	36.63
837.635	37.02
837.806	37.64
837.977	35.93
838.148	34.54
838.319	36.43
838.49	35.45
838.661	35.93
838.832	37.87
839.003	35.69
839.174	33.68
839.345	35.94
839.516	35.62
839.687	36.71
839.857	41.58
840.028	43.95
840.199	46.47
840.37	46.96
840.54	48.03
840.711	46.33
840.882	49.5
841.053	53.27
841.223	52.95
841.394	53.83
841.564	51.07
841.735	44.89
841.906	45.91
842.076	43.72
842.247	41.86
842.417	36.88
842.588	40.08
842.758	38.19
842.929	29.25
843.099	20.47
843.27	18.94
843.44	23.1
843.611	27.09
843.781	26.16
843.951	25.3
844.122	28.69
844.292	35.48
844.462	29.78
844.633	33.08
844.803	36.95
844.973	44.51
845.144	40.87
845.314	37.64
845.484	33.59
845.654	32.03
845.824	28.28
845.995	24.2
846.165	22.4
846.335	20.96
846.505	12.77
846.675	15.35
846.845	24.12
847.015	31.96
847.185	36.49
847.355	46.17
847.525	44.79
847.695	44.3
847.865	49.88
848.035	53.76
848.205	56.57
848.375	65.89
848.545	71.56
848.715	63.89
848.884	56.21
849.054	53.13
849.224	55.39
849.394	54.1
849.564	53.53
849.733	45.32
849.903	44.81
850.073	43.63
850.243	40.59
850.412	38.31
850.582	36.41
850.752	41.77
850.921	41.66
851.091	32.97
851.26	32.57
851.43	36.29
851.599	33.3
851.769	29.67
851.939	27.97
852.108	28.74
852.278	26.79
852.447	27.05
852.616	27.91
852.786	26.25
852.955	30.03
853.125	34.83
853.294	34.22
853.463	43.21
853.633	40.43
853.802	36.89
853.971	44.23
854.141	33.38
854.31	32.08
854.479	33.5
854.648	33.8
854.818	37.4
854.987	39.56
855.156	40.49
855.325	37.69
855.494	42.03
855.663	47.48
855.832	40.26
856.001	48.5
856.171	44.84
856.34	35.44
856.509	31.77
856.678	32.59
856.847	31.22
857.016	28.49
857.185	30.66
857.353	30.24
857.522	25.38
857.691	23.35
857.86	20.56
858.029	27.28
858.198	38.35
858.367	42.11
858.535	29.15
858.704	32.61
858.873	44.83
859.042	49.42
859.21	52.99
859.379	53.14
859.548	53.05
859.717	49.57
859.885	46.51
860.054	44.24
860.222	43.36
860.391	51.68
860.56	46.68
860.728	41.81
860.897	38.02
861.065	34.53
861.234	38.6
861.402	39.67
861.571	35.32
861.739	40.25
861.908	36.92
862.076	33.16
862.244	36.81
862.413	31.37
862.581	30.22
862.749	31.71
862.918	36.87
863.086	36.88
863.254	37.02
863.423	50.92
863.591	43.06
863.759	39.4
863.927	42.49
864.096	39.03
864.264	36.61
864.432	35.6
864.6	39.68
864.768	30.81
864.936	32.14
865.104	25.25
865.272	25.03
865.44	21.8
865.608	26.41
865.776	32.36
865.944	28.12
866.112	38.17
866.28	40.01
866.448	33.78
866.616	39.4
866.784	33.78
866.952	39.52
867.12	30.78
867.288	32.26
867.455	37.83
867.623	44.34
867.791	49.29
867.959	58.42
868.127	49.79
868.294	56.92
868.462	58.79
868.63	73.93
868.797	78.99
868.965	80.62
869.133	78.15
869.3	69.9
869.468	54.62
869.636	52.21
869.803	40.28
869.971	51.07
870.138	41.99
870.306	45.51
870.473	38.29
870.641	32.11
870.808	25.36
870.975	22.2
871.143	27.54
871.31	30.52
871.478	30.77
871.645	25.3
871.812	17.07
871.98	24.06
872.147	14.32
872.314	24.69
872.482	3.97
872.649	6.59
872.816	15.61
872.983	5.01
873.15	17.83
873.318	5.7
873.485	20.31
873.652	26.52
873.819	25.69
873.986	33.56
874.153	30.84
874.32	39.68
874.487	45.31
874.654	49.37
874.821	48.96
874.988	44.36
875.155	47.21
875.322	37.44
875.489	38.26
875.656	35.93
875.823	33.18
875.99	47.23
876.157	49.74
876.324	51.12
876.49	46.01
876.657	49.73
876.824	36.9
876.991	45.84
877.157	42.53
877.324	32.66
877.491	34.61
877.658	36.17
877.824	23.02
877.991	20.18
878.157	16.79
878.324	21.54
878.491	20.06
878.657	38.91
878.824	35.18
878.99	46.89
879.157	49.81
879.323	52.09
879.49	52.53
879.656	52.8
879.823	52.64
879.989	49.5
880.156	49.03
880.322	52.6
880.488	52.76
880.655	51.58
880.821	46.55
880.987	44.09
881.154	45.65
881.32	46.06
881.486	49.49
881.652	50.92
881.819	52.72
881.985	45.52
882.151	43.71
882.317	42.04
882.483	40.24
882.649	41.33
882.816	40.56
882.982	39.85
883.148	36.95
883.314	34.86
883.48	33.23
883.646	32
883.812	33.49
883.978	31.55
884.144	30.61
884.31	32.39
884.476	31.57
884.642	30.89
884.807	31.44
884.973	32.23
885.139	32.51
885.305	32.83
885.471	34.03
885.637	34.65
885.802	36.09
885.968	38.16
886.134	35.97
886.3	37.58
886.465	40.32
886.631	38.83
886.797	40.24
886.962	42.21
887.128	44.38
887.293	43.45
887.459	44.04
887.625	45.78
887.79	44.65
887.956	46.36
888.121	45.47
888.287	44.54
888.452	45.34
888.618	43.33
888.783	39.4
