Data from CB_065_Reflection_2.txt Node
Date: Sat Nov 14 10:41:19 EST 2015
User: robert
Spectrometer: USB4E03001
Autoset integration time: false
Trigger mode: 4
Integration Time (sec): 1.000000E-1
Scans to average: 15
Electric dark correction enabled: true
Nonlinearity correction enabled: false
Boxcar width: 5
Stray light correction enabled: false
XAxis mode: Wavelengths
Stop averaging: false
Number of Pixels in Spectrum: 3648
>>>>>Begin Spectral Data<<<<<
177.566	-157.62
177.785	-50.86
178.005	-182.43
178.225	68.73
178.445	103.34
178.665	-154.83
178.885	-13.86
179.105	-21.1
179.324	-12
179.544	-56.46
179.764	-8.17
179.984	-17.92
180.204	20.62
180.423	-35.35
180.643	28.85
180.863	-58.28
181.083	-700.57
181.302	-3776.98
181.522	302.82
181.742	452.7
181.961	852.2
182.181	139
182.401	121.53
182.621	168.75
182.84	653.02
183.06	-1401.69
183.279	-103.31
183.499	-113.95
183.719	-69.03
183.938	-81.75
184.158	-57.74
184.377	-31.12
184.597	-0.16
184.816	12.93
185.036	21.48
185.256	9.59
185.475	-41.33
185.695	27.15
185.914	90.17
186.134	41.08
186.353	45.75
186.572	69.22
186.792	230.79
187.011	-840.76
187.231	894.48
187.45	109.47
187.67	402.91
187.889	-43.41
188.108	125.62
188.328	134.09
188.547	80.86
188.766	51.56
188.986	44.19
189.205	42.68
189.424	29.65
189.644	55.17
189.863	63.39
190.082	57.98
190.302	94.93
190.521	-16.19
190.74	-59.88
190.959	-445.75
191.178	-185.9
191.398	-32.1
191.617	7.79
191.836	-13.44
192.055	-178.41
192.274	-14.8
192.494	38.6
192.713	-5987.5
192.932	47.3
193.151	11075
193.37	30.13
193.589	-576.11
193.808	31.98
194.027	-161.84
194.246	789.19
194.465	-499.12
194.685	126.08
194.904	47.29
195.123	178.67
195.342	127.45
195.561	119.32
195.78	457.74
195.999	603.05
196.218	238.9
196.436	-67.41
196.655	33.32
196.874	23.5
197.093	94.4
197.312	90.63
197.531	29.62
197.75	119.74
197.969	277.5
198.188	79.59
198.407	79.01
198.625	93.51
198.844	149.03
199.063	91.52
199.282	179.12
199.501	172.27
199.719	384.89
199.938	-84.51
200.157	-43.37
200.376	73.65
200.594	100.76
200.813	126.96
201.032	351.93
201.251	132.3
201.469	-7.18
201.688	-180.07
201.907	524.08
202.125	228.93
202.344	873.56
202.563	4579.71
202.781	276.18
203	100.83
203.218	68.33
203.437	174.48
203.656	87.34
203.874	208.24
204.093	43.02
204.311	76.04
204.53	252.95
204.748	63.19
204.967	37.06
205.185	72.1
205.404	66.09
205.622	159.99
205.841	71.47
206.059	61.59
206.278	44.92
206.496	158.11
206.715	85.7
206.933	51.95
207.151	127.65
207.37	83.33
207.588	45.8
207.806	92.88
208.025	130.63
208.243	97.5
208.461	172.73
208.68	108.18
208.898	-95.25
209.116	54.98
209.335	41.38
209.553	-21.8
209.771	-9.67
209.989	12.51
210.208	28.67
210.426	21.82
210.644	36.22
210.862	48.92
211.081	56.47
211.299	56.25
211.517	64.44
211.735	65.65
211.953	66.9
212.171	70.96
212.39	76.14
212.608	54.02
212.826	67.15
213.044	50.13
213.262	33.85
213.48	6.09
213.698	-10.54
213.916	-21.17
214.134	-79.16
214.352	-184.91
214.57	-113.23
214.788	-111.8
215.006	-33.95
215.224	-150.89
215.442	-380.2
215.66	-316.08
215.878	-122.48
216.096	-28.69
216.314	5.32
216.532	-121.83
216.75	189.89
216.968	127.2
217.185	-1427.43
217.403	824.04
217.621	-25866.67
217.839	-37.11
218.057	1108.33
218.275	-21.36
218.492	42.73
218.71	-564.88
218.928	390.33
219.146	261.27
219.363	161.15
219.581	49.32
219.799	1364.49
220.017	-19.28
220.234	3.21
220.452	82.22
220.67	115.3
220.887	108.17
221.105	86.56
221.323	74.96
221.54	74.01
221.758	88.77
221.976	90.84
222.193	63.4
222.411	57.29
222.629	51.64
222.846	34.48
223.064	27.05
223.281	23.92
223.499	11.73
223.716	2.74
223.934	-7.79
224.151	5.39
224.369	12.11
224.586	28.97
224.804	19.59
225.021	35.31
225.239	31.7
225.456	38.39
225.674	40.98
225.891	47.09
226.108	39.73
226.326	41.71
226.543	36.23
226.76	21.42
226.978	35.26
227.195	40.78
227.413	31.23
227.63	36
227.847	31.66
228.064	27.04
228.282	25.82
228.499	26.79
228.716	24.81
228.934	21.32
229.151	20.89
229.368	13.17
229.585	11.53
229.802	11.56
230.02	10.65
230.237	11.98
230.454	12.88
230.671	16.36
230.888	16.51
231.105	17.89
231.323	23.38
231.54	29.24
231.757	34.39
231.974	37.14
232.191	41.55
232.408	39.66
232.625	39.95
232.842	35.26
233.059	27.43
233.276	24.94
233.493	22.2
233.71	19.15
233.927	8.48
234.144	-2.09
234.361	3.71
234.578	1.62
234.795	-8.05
235.012	-6.98
235.229	-11.67
235.446	-5.39
235.663	-3.46
235.879	-5.71
236.096	-8.88
236.313	-3.45
236.53	-1.91
236.747	-9
236.964	-13.68
237.181	-0.6
237.397	1.96
237.614	14.87
237.831	23.11
238.048	26.08
238.264	23.56
238.481	26.3
238.698	24.81
238.915	28.96
239.131	26.55
239.348	30.28
239.565	29.68
239.781	25.03
239.998	21.18
240.215	13.24
240.431	13.05
240.648	14.46
240.865	13.2
241.081	16.14
241.298	15.22
241.514	16.79
241.731	15.53
241.947	15.85
242.164	16.15
242.38	12.71
242.597	12.09
242.814	11.44
243.03	13.51
243.246	12.89
243.463	11.18
243.679	10.09
243.896	8.87
244.112	8.99
244.329	5.5
244.545	6.94
244.762	7.82
244.978	10.39
245.194	10.19
245.411	9.05
245.627	9.47
245.843	12.17
246.06	14.59
246.276	15.55
246.492	16.01
246.709	17.81
246.925	17.68
247.141	18.56
247.357	18.26
247.574	17.73
247.79	17.22
248.006	17.3
248.222	17.04
248.439	15.88
248.655	15.58
248.871	14.9
249.087	15.21
249.303	14.36
249.519	13.55
249.736	14.25
249.952	15.79
250.168	20.6
250.384	20.2
250.6	18.04
250.816	22.23
251.032	23.08
251.248	22.42
251.464	21.34
251.68	19.59
251.896	17.24
252.112	14.55
252.328	11.98
252.544	10.01
252.76	10.96
252.976	11.65
253.192	9.11
253.408	8.93
253.624	9.43
253.84	9.63
254.056	10.14
254.272	10.44
254.487	10.58
254.703	8.69
254.919	5.6
255.135	5.58
255.351	8.68
255.567	8.4
255.782	8.51
255.998	10.44
256.214	7.36
256.43	8.73
256.646	11.47
256.861	13.07
257.077	15.04
257.293	13.94
257.508	15.52
257.724	14.74
257.94	14.41
258.155	13.55
258.371	12.09
258.587	12.19
258.802	11.75
259.018	11.31
259.234	11.6
259.449	12.26
259.665	12.37
259.88	12.2
260.096	11.93
260.312	11.53
260.527	11.35
260.743	11.71
260.958	11.62
261.174	11.69
261.389	12.09
261.605	10.46
261.82	9.25
262.036	8.76
262.251	7.95
262.466	5.64
262.682	5.14
262.897	3.78
263.113	2.28
263.328	-0.35
263.543	-1.45
263.759	-1.82
263.974	-0.27
264.189	0.57
264.405	0.07
264.62	0.55
264.835	1.61
265.051	2.07
265.266	2.52
265.481	4.58
265.696	9.44
265.912	8.41
266.127	8.37
266.342	9.26
266.557	9.01
266.773	9.75
266.988	9.15
267.203	9.77
267.418	9.49
267.633	10.45
267.848	9.63
268.064	7.72
268.279	9.26
268.494	8.08
268.709	7.36
268.924	7.93
269.139	6.81
269.354	7.44
269.569	7.17
269.784	7.31
269.999	7.83
270.214	8.26
270.429	6.76
270.644	7.5
270.859	8.38
271.074	8.85
271.289	10.14
271.504	10.57
271.719	9.91
271.934	10.04
272.149	10.73
272.363	11.02
272.578	10.3
272.793	12.01
273.008	11.22
273.223	9.73
273.438	9.55
273.653	8.63
273.867	8.1
274.082	9.08
274.297	10.18
274.512	11.03
274.726	10.01
274.941	9.72
275.156	10.05
275.371	10.82
275.585	12.31
275.8	12.47
276.015	11.59
276.229	13.49
276.444	14.17
276.659	12.62
276.873	10.19
277.088	11.18
277.302	13.29
277.517	12.32
277.732	12.23
277.946	11.73
278.161	12.64
278.375	13.39
278.59	11.04
278.804	9.18
279.019	9.53
279.233	10.36
279.448	8.34
279.662	5.18
279.877	5.21
280.091	3.52
280.306	4.25
280.52	2.41
280.735	2.93
280.949	5.36
281.163	6.1
281.378	5.85
281.592	7.48
281.806	9.39
282.021	10.49
282.235	11.02
282.449	11.14
282.664	11.39
282.878	12.92
283.092	11.56
283.307	11.53
283.521	10.63
283.735	11.54
283.949	11.17
284.164	10.25
284.378	9.76
284.592	10.22
284.806	11.46
285.02	10.62
285.234	9.5
285.449	10.08
285.663	10.42
285.877	11.06
286.091	10.93
286.305	10.92
286.519	11.39
286.733	12.4
286.947	12.21
287.161	11.65
287.375	12.06
287.589	13.08
287.803	14.59
288.017	13.1
288.231	13.42
288.445	13.67
288.659	13.14
288.873	13.02
289.087	12.75
289.301	12.89
289.515	12.53
289.729	13.19
289.943	13.48
290.157	12.91
290.371	14.16
290.584	13.32
290.798	12.88
291.012	13.03
291.226	12.56
291.44	12.54
291.654	11.78
291.867	12.42
292.081	12.91
292.295	12.61
292.509	13.02
292.722	11.96
292.936	10.76
293.15	11.26
293.364	10.81
293.577	12.45
293.791	12.89
294.005	13.02
294.218	14.44
294.432	13.86
294.645	13.59
294.859	13.43
295.073	13.84
295.286	14.88
295.5	14.99
295.713	15.13
295.927	14.48
296.14	14.54
296.354	14.23
296.568	13.01
296.781	12.7
296.994	13.8
297.208	13.46
297.421	12.92
297.635	13.61
297.848	13.1
298.062	12.84
298.275	12.95
298.489	12.71
298.702	13.58
298.915	13.68
299.129	14.37
299.342	13.76
299.555	13.63
299.769	14.48
299.982	14.34
300.195	15.07
300.409	15.63
300.622	15.94
300.835	16.09
301.048	15.57
301.262	16.15
301.475	15.6
301.688	14.08
301.901	14.47
302.115	15.57
302.328	16.32
302.541	17.18
302.754	18.29
302.967	19.13
303.18	19.4
303.393	20.47
303.607	20.42
303.82	22.44
304.033	23.72
304.246	23.94
304.459	22.22
304.672	21.93
304.885	21.09
305.098	20.79
305.311	19.28
305.524	19.96
305.737	18.77
305.95	19.04
306.163	17.76
306.376	18.57
306.589	18.48
306.802	19.22
307.015	18.16
307.228	18.42
307.44	17.42
307.653	18.01
307.866	17.2
308.079	18.83
308.292	17.98
308.505	19
308.718	18.72
308.93	19.92
309.143	20.48
309.356	20.71
309.569	20.08
309.781	20.05
309.994	20.84
310.207	20.66
310.42	20.37
310.632	20.49
310.845	18.81
311.058	18.69
311.27	17.92
311.483	18.3
311.696	18.11
311.908	18.19
312.121	18.22
312.333	18.53
312.546	18.4
312.759	17.52
312.971	17.61
313.184	17.89
313.396	17.14
313.609	16.63
313.821	15.83
314.034	16.63
314.246	16.41
314.459	16.34
314.671	15.18
314.884	15.03
315.096	15.23
315.309	15.73
315.521	16.91
315.733	16.95
315.946	17.69
316.158	17.82
316.371	17.77
316.583	17.41
316.795	17.34
317.008	18.39
317.22	18.56
317.432	19.01
317.644	18.58
317.857	19.12
318.069	19.48
318.281	18.74
318.494	19.04
318.706	19.37
318.918	20.09
319.13	21.18
319.342	19.17
319.555	18.79
319.767	18.98
319.979	17.79
320.191	16.45
320.403	16.08
320.615	16.85
320.827	16.98
321.039	16.95
321.252	18.65
321.464	18.14
321.676	18.89
321.888	20.04
322.1	19.82
322.312	20.43
322.524	21.06
322.736	20.4
322.948	19.94
323.16	19.87
323.372	19.56
323.584	18.15
323.796	18.73
324.007	18.25
324.219	18.89
324.431	19.36
324.643	21.29
324.855	21.96
325.067	22.49
325.279	22.24
325.491	23.92
325.702	24.54
325.914	25.16
326.126	24.24
326.338	23.81
326.55	23.35
326.761	23.34
326.973	21.85
327.185	21.5
327.396	22.72
327.608	23.69
327.82	21.82
328.032	22.22
328.243	21.88
328.455	23.68
328.666	24.8
328.878	25.51
329.09	26.24
329.301	27.19
329.513	27.46
329.725	27.23
329.936	27.98
330.148	28.1
330.359	28.39
330.571	28.36
330.782	27.35
330.994	28.15
331.205	27.71
331.417	27.2
331.628	26.52
331.84	26.93
332.051	27.2
332.262	26.07
332.474	26.52
332.685	26.42
332.897	26.23
333.108	26.88
333.319	26.67
333.531	27.09
333.742	26.39
333.953	26.11
334.165	25.52
334.376	26.19
334.587	27.27
334.799	26.82
335.01	26.18
335.221	25.96
335.432	24.57
335.644	25.33
335.855	25.14
336.066	26.03
336.277	27.33
336.488	27.09
336.7	25.57
336.911	24.99
337.122	25.68
337.333	25.39
337.544	26.03
337.755	27.91
337.966	27.05
338.177	26.97
338.388	27.02
338.599	26.5
338.811	26.62
339.022	26.96
339.233	27.53
339.444	26.41
339.655	25.84
339.866	26.15
340.076	25.69
340.287	25.7
340.498	25.18
340.709	25.01
340.92	24.98
341.131	24.77
341.342	25.73
341.553	24.76
341.764	25.95
341.975	26.98
342.185	26.74
342.396	27.09
342.607	26.38
342.818	26.34
343.029	25.94
343.239	26.27
343.45	25.96
343.661	25.35
343.872	25.89
344.082	25.33
344.293	25.85
344.504	25.9
344.714	25.32
344.925	26.15
345.136	26.05
345.346	25.11
345.557	25.04
345.768	25.7
345.978	26.2
346.189	25.43
346.399	24.61
346.61	23.35
346.821	23.05
347.031	22.82
347.242	22.5
347.452	23.41
347.663	24.85
347.873	24.77
348.084	24.29
348.294	23.82
348.504	24.17
348.715	25.11
348.925	25.93
349.136	25.1
349.346	25.02
349.557	25.53
349.767	25.08
349.977	25.01
350.188	24.34
350.398	24.91
350.608	24.44
350.819	25.03
351.029	24.96
351.239	25.43
351.449	26.1
351.66	26.45
351.87	26.1
352.08	25.58
352.29	25
352.501	25.61
352.711	25.33
352.921	25.74
353.131	25.23
353.341	24.64
353.552	23.68
353.762	23.52
353.972	23.37
354.182	23.2
354.392	23.21
354.602	23.71
354.812	23.72
355.022	23.67
355.232	23.81
355.442	23.32
355.652	23.7
355.862	24.04
356.072	24.43
356.282	23.76
356.492	23.97
356.702	24.53
356.912	23.81
357.122	23.61
357.332	23.54
357.542	23.15
357.752	23.36
357.962	22.98
358.171	23.09
358.381	22.7
358.591	23.26
358.801	23.04
359.011	22.86
359.221	23.72
359.43	23.96
359.64	23.91
359.85	23.56
360.06	23.83
360.269	23.9
360.479	23.93
360.689	24.29
360.899	24.4
361.108	24.91
361.318	24.15
361.528	23.79
361.737	23.31
361.947	23.47
362.156	23.39
362.366	22.99
362.576	23.33
362.785	23.2
362.995	23.21
363.204	22.77
363.414	22.49
363.623	22.75
363.833	22.76
364.042	22.85
364.252	22.61
364.461	22.57
364.671	23.39
364.88	23.19
365.09	23.55
365.299	22.95
365.509	23.5
365.718	22.69
365.927	23.42
366.137	23.21
366.346	23.13
366.555	22.54
366.765	23.08
366.974	22.67
367.183	22.8
367.393	21.43
367.602	21.51
367.811	20.78
368.021	21.34
368.23	21.21
368.439	21.31
368.648	21.42
368.857	21.6
369.067	21.31
369.276	21.07
369.485	20.6
369.694	21.09
369.903	20.78
370.112	20.77
370.321	20.62
370.531	20.16
370.74	19.8
370.949	19.45
371.158	19.19
371.367	19.17
371.576	18.44
371.785	18.4
371.994	19
372.203	19.3
372.412	19.16
372.621	19.3
372.83	19.22
373.039	19.38
373.248	18.99
373.457	19.42
373.666	18.79
373.874	19.17
374.083	18.92
374.292	18.13
374.501	18.09
374.71	17.91
374.919	17.97
375.128	17.45
375.336	17.64
375.545	18.37
375.754	17.95
375.963	18.12
376.171	18.03
376.38	18.29
376.589	18.2
376.798	17.21
377.006	17.36
377.215	16.67
377.424	17
377.632	16.36
377.841	15.75
378.05	15.68
378.258	15.48
378.467	15.41
378.675	15.5
378.884	15.7
379.093	16.28
379.301	16.6
379.51	16.94
379.718	16.47
379.927	16.46
380.135	16.72
380.344	16.59
380.552	17.25
380.761	17.3
380.969	16.54
381.177	15.95
381.386	16.35
381.594	15.73
381.803	15.23
382.011	15.31
382.219	15.19
382.428	14.66
382.636	14.75
382.845	13.57
383.053	13.47
383.261	13.7
383.469	14.08
383.678	13.56
383.886	13.85
384.094	13.99
384.302	14.2
384.511	14.17
384.719	14.58
384.927	14.56
385.135	15.21
385.343	14.79
385.552	14.96
385.76	14.75
385.968	14.85
386.176	14.22
386.384	13.72
386.592	13.22
386.8	13.3
387.008	13.15
387.216	13.09
387.424	12.86
387.633	12.75
387.841	12.53
388.049	12.82
388.257	12.96
388.465	12.9
388.672	13.18
388.88	13.22
389.088	12.82
389.296	12.75
389.504	12.3
389.712	12.34
389.92	12.57
390.128	12.85
390.336	12.39
390.544	12.18
390.751	12.4
390.959	12.24
391.167	12.45
391.375	12.51
391.583	12.41
391.79	12.48
391.998	12.54
392.206	12.61
392.414	12.03
392.621	12.06
392.829	11.93
393.037	11.69
393.244	11.57
393.452	11.22
393.66	11.29
393.867	11.15
394.075	10.97
394.283	11.09
394.49	10.67
394.698	10.64
394.905	10.7
395.113	10.67
395.32	10.98
395.528	11.13
395.735	11.15
395.943	11.21
396.15	11.26
396.358	11.22
396.565	10.86
396.773	11.02
396.98	11.29
397.188	11.11
397.395	11.17
397.602	11.16
397.81	10.8
398.017	11.05
398.225	11
398.432	10.72
398.639	10.83
398.847	10.7
399.054	10.81
399.261	10.82
399.468	10.47
399.676	10.31
399.883	9.7
400.09	9.94
400.297	9.83
400.505	9.77
400.712	9.74
400.919	9.94
401.126	9.85
401.333	9.83
401.54	9.4
401.748	9.86
401.955	9.49
402.162	9.67
402.369	9.69
402.576	9.45
402.783	9.33
402.99	9.47
403.197	9.22
403.404	9.21
403.611	8.89
403.818	9.17
404.025	8.89
404.232	9.17
404.439	9.09
404.646	9.02
404.853	9.11
405.06	8.78
405.267	8.84
405.474	8.89
405.681	8.96
405.887	8.97
406.094	9.03
406.301	9.22
406.508	9.38
406.715	9.71
406.922	9.8
407.128	10.05
407.335	10.21
407.542	10.04
407.749	10.31
407.955	10.24
408.162	10.17
408.369	9.89
408.575	9.98
408.782	9.84
408.989	9.58
409.195	9.32
409.402	9.22
409.609	9.16
409.815	9.21
410.022	8.96
410.228	8.8
410.435	9.23
410.642	9.66
410.848	9.36
411.055	9.12
411.261	9.06
411.468	9.59
411.674	9.63
411.881	9.89
412.087	9.82
412.294	9.8
412.5	10.22
412.706	9.94
412.913	9.51
413.119	9.48
413.326	9.33
413.532	9.45
413.738	9.02
413.945	8.46
414.151	8.58
414.357	8.68
414.564	8.74
414.77	8.4
414.976	8.41
415.182	8.49
415.389	8.52
415.595	8.6
415.801	8.69
416.007	8.54
416.214	8.63
416.42	8.36
416.626	8.12
416.832	8.23
417.038	8.38
417.244	8.45
417.45	8.3
417.657	8.23
417.863	8.11
418.069	8.01
418.275	8.18
418.481	8.23
418.687	8.3
418.893	8.48
419.099	8.29
419.305	8.1
419.511	7.96
419.717	8.02
419.923	8.01
420.129	8.13
420.335	8.19
420.541	8.03
420.746	8.03
420.952	7.96
421.158	7.91
421.364	7.81
421.57	7.89
421.776	7.87
421.982	8
422.187	8.05
422.393	8.02
422.599	8
422.805	8.02
423.01	8.15
423.216	8.19
423.422	8.3
423.628	8.47
423.833	8.44
424.039	8.45
424.245	8.31
424.45	8.33
424.656	8.38
424.862	8.27
425.067	8.2
425.273	8.16
425.478	8.12
425.684	8.06
425.889	8.15
426.095	8.2
426.301	8.24
426.506	8.17
426.712	8.22
426.917	8.29
427.123	8.29
427.328	8.43
427.533	8.5
427.739	8.48
427.944	8.44
428.15	8.27
428.355	8.1
428.561	8.13
428.766	8.22
428.971	8.04
429.177	7.99
429.382	8.03
429.587	8.1
429.793	7.85
429.998	7.82
430.203	7.6
430.408	7.73
430.614	7.77
430.819	7.62
431.024	7.37
431.229	7.63
431.434	7.64
431.64	7.56
431.845	7.41
432.05	7.55
432.255	7.6
432.46	7.74
432.665	7.44
432.87	7.54
433.076	7.74
433.281	7.96
433.486	7.82
433.691	7.74
433.896	7.69
434.101	7.6
434.306	7.41
434.511	7.49
434.716	7.43
434.921	7.77
435.126	7.78
435.331	7.75
435.535	7.67
435.74	7.58
435.945	7.53
436.15	7.54
436.355	7.74
436.56	7.89
436.765	7.87
436.97	7.78
437.174	7.64
437.379	7.51
437.584	7.45
437.789	7.39
437.993	7.44
438.198	7.55
438.403	7.69
438.608	7.55
438.812	7.45
439.017	7.24
439.222	7.3
439.426	7.18
439.631	7.16
439.836	7.22
440.04	7.47
440.245	7.45
440.45	7.52
440.654	7.55
440.859	7.48
441.063	7.48
441.268	7.64
441.472	7.56
441.677	7.59
441.881	7.59
442.086	7.43
442.29	7.16
442.495	7.23
442.699	7.14
442.904	7.01
443.108	7.26
443.312	7.24
443.517	7.33
443.721	7.34
443.925	7.37
444.13	7.48
444.334	7.44
444.538	7.56
444.743	7.57
444.947	7.57
445.151	7.64
445.356	7.54
445.56	7.66
445.764	7.38
445.968	7.38
446.173	7.4
446.377	7.34
446.581	7.49
446.785	7.46
446.989	7.31
447.193	7.3
447.398	7.12
447.602	7.02
447.806	6.86
448.01	6.91
448.214	6.93
448.418	6.73
448.622	6.67
448.826	6.47
449.03	6.45
449.234	6.52
449.438	6.59
449.642	6.83
449.846	7.02
450.05	7.21
450.254	7.32
450.458	7.22
450.662	7.48
450.866	7.47
451.069	7.51
451.273	7.47
451.477	7.59
451.681	7.34
451.885	7.14
452.089	7.12
452.292	6.83
452.496	6.8
452.7	7
452.904	6.85
453.107	6.97
453.311	6.78
453.515	6.74
453.719	6.53
453.922	6.75
454.126	6.88
454.33	6.74
454.533	6.8
454.737	6.85
454.94	6.65
455.144	6.84
455.348	6.81
455.551	7.13
455.755	7.15
455.958	7.33
456.162	7.09
456.365	7.12
456.569	7.1
456.772	7.17
456.976	7.26
457.179	7.36
457.383	7.32
457.586	7.38
457.79	7.37
457.993	7.38
458.196	7.4
458.4	7.63
458.603	7.51
458.807	7.55
459.01	7.72
459.213	7.61
459.417	7.59
459.62	7.53
459.823	7.43
460.026	7.27
460.23	7.25
460.433	7.1
460.636	6.95
460.839	6.93
461.042	6.81
461.246	6.77
461.449	6.83
461.652	6.86
461.855	6.73
462.058	6.71
462.261	6.85
462.464	6.72
462.668	6.82
462.871	6.94
463.074	6.82
463.277	6.93
463.48	6.58
463.683	6.71
463.886	6.55
464.089	6.61
464.292	6.54
464.495	6.49
464.698	6.6
464.901	6.51
465.104	6.39
465.306	6.32
465.509	6.27
465.712	6.6
465.915	6.43
466.118	6.52
466.321	6.56
466.524	6.48
466.726	6.65
466.929	6.48
467.132	6.49
467.335	6.67
467.538	6.96
467.74	6.94
467.943	6.72
468.146	6.57
468.348	6.56
468.551	6.56
468.754	6.77
468.956	6.77
469.159	6.88
469.362	6.95
469.564	6.83
469.767	6.69
469.969	6.86
470.172	7.1
470.375	7.14
470.577	7.2
470.78	7.15
470.982	7.16
471.185	7.05
471.387	7.18
471.59	7.07
471.792	7.12
471.995	7.38
472.197	7.25
472.399	7.18
472.602	7.1
472.804	7
473.007	7.04
473.209	6.98
473.411	7.08
473.614	7.12
473.816	7.12
474.018	7.09
474.22	7.07
474.423	7.11
474.625	7.02
474.827	7.12
475.03	7.24
475.232	7.21
475.434	7.3
475.636	7.13
475.838	7.03
476.04	7.11
476.243	6.93
476.445	6.85
476.647	6.88
476.849	7.06
477.051	7.11
477.253	7.33
477.455	7.22
477.657	7.15
477.859	7.19
478.061	7.03
478.263	6.99
478.465	6.96
478.667	6.85
478.869	6.76
479.071	6.63
479.273	6.43
479.475	6.06
479.677	6.15
479.879	6.05
480.081	6
480.283	6.2
480.485	6.2
480.686	6.48
480.888	6.58
481.09	6.6
481.292	6.53
481.494	6.69
481.695	6.8
481.897	6.81
482.099	6.91
482.301	6.87
482.502	6.82
482.704	6.9
482.906	6.77
483.107	6.75
483.309	6.72
483.511	6.74
483.712	6.76
483.914	6.74
484.115	6.72
484.317	6.69
484.519	6.72
484.72	6.67
484.922	6.65
485.123	6.62
485.325	6.67
485.526	6.75
485.728	6.7
485.929	6.65
486.131	6.62
486.332	6.61
486.534	6.67
486.735	6.65
486.936	6.73
487.138	6.73
487.339	6.82
487.541	6.78
487.742	6.72
487.943	6.79
488.144	6.83
488.346	6.84
488.547	6.82
488.748	6.83
488.95	6.85
489.151	6.9
489.352	6.87
489.553	6.77
489.755	6.8
489.956	6.81
490.157	6.8
490.358	6.73
490.559	6.75
490.76	6.79
490.961	6.74
491.163	6.88
491.364	6.78
491.565	6.76
491.766	6.81
491.967	6.75
492.168	6.74
492.369	6.69
492.57	6.77
492.771	6.82
492.972	6.8
493.173	6.87
493.374	6.84
493.575	6.93
493.776	6.91
493.976	6.99
494.177	7.02
494.378	7.03
494.579	7.21
494.78	7.18
494.981	7.22
495.182	7.27
495.382	7.19
495.583	7.15
495.784	7.16
495.985	7.25
496.185	7.18
496.386	7.18
496.587	7.22
496.788	7.12
496.988	7.02
497.189	6.95
497.39	6.85
497.59	7.03
497.791	6.83
497.992	6.87
498.192	6.82
498.393	6.83
498.593	6.87
498.794	6.8
498.994	6.86
499.195	6.91
499.395	7
499.596	7.17
499.796	7.13
499.997	7.3
500.197	7.33
500.398	7.45
500.598	7.4
500.799	7.61
500.999	7.62
501.199	7.53
501.4	7.65
501.6	7.58
501.801	7.54
502.001	7.62
502.201	7.67
502.402	7.63
502.602	7.56
502.802	7.7
503.002	7.46
503.203	7.68
503.403	7.8
503.603	7.79
503.803	7.84
504.003	7.88
504.204	7.75
504.404	7.81
504.604	7.82
504.804	8
505.004	7.94
505.204	8.09
505.404	8.02
505.604	8.07
505.804	8.12
506.005	8.16
506.205	8.08
506.405	8.19
506.605	8.11
506.805	8.2
507.005	8.17
507.204	8.17
507.404	7.99
507.604	8.17
507.804	8.26
508.004	8.26
508.204	8.25
508.404	8.3
508.604	8.13
508.804	8.37
509.003	8.45
509.203	8.37
509.403	8.54
509.603	8.71
509.803	8.67
510.002	8.67
510.202	8.77
510.402	8.94
510.602	9.07
510.801	9.31
511.001	9.24
511.201	9.28
511.4	9.36
511.6	9.29
511.8	9.29
511.999	9.41
512.199	9.33
512.398	9.43
512.598	9.45
512.797	9.65
512.997	9.67
513.197	9.78
513.396	9.91
513.596	10.09
513.795	10.23
513.994	10.36
514.194	10.43
514.393	10.52
514.593	10.62
514.792	10.79
514.992	10.9
515.191	10.9
515.39	10.88
515.59	10.89
515.789	11.04
515.988	11.16
516.188	11.27
516.387	11.31
516.586	11.64
516.786	11.69
516.985	11.85
517.184	11.76
517.383	11.98
517.582	12.16
517.782	12.23
517.981	12.23
518.18	12.22
518.379	12.36
518.578	12.3
518.777	12.35
518.976	12.46
519.176	12.56
519.375	12.65
519.574	12.71
519.773	12.79
519.972	12.94
520.171	13.05
520.37	13.2
520.569	13.28
520.768	13.59
520.967	13.59
521.166	13.66
521.365	13.6
521.564	13.77
521.762	13.99
521.961	14.08
522.16	14.06
522.359	14.14
522.558	14.18
522.757	14.25
522.956	14.22
523.154	14.39
523.353	14.62
523.552	14.79
523.751	14.86
523.949	14.94
524.148	14.97
524.347	15.22
524.546	15.44
524.744	15.72
524.943	15.84
525.142	16
525.34	16.21
525.539	16.23
525.737	16.35
525.936	16.52
526.135	16.56
526.333	16.75
526.532	16.87
526.73	16.94
526.929	17.06
527.127	17.21
527.326	17.37
527.524	17.46
527.723	17.68
527.921	17.81
528.12	17.84
528.318	17.96
528.516	18.1
528.715	18.16
528.913	18.16
529.112	18.24
529.31	18.31
529.508	18.36
529.707	18.39
529.905	18.49
530.103	18.53
530.301	18.68
530.5	18.74
530.698	18.69
530.896	18.83
531.094	19.01
531.293	19.1
531.491	19.33
531.689	19.53
531.887	19.7
532.085	19.77
532.283	19.95
532.481	20.12
532.68	20.3
532.878	20.58
533.076	20.67
533.274	20.79
533.472	20.93
533.67	20.98
533.868	21.04
534.066	21.23
534.264	21.25
534.462	21.22
534.66	21.34
534.858	21.47
535.056	21.62
535.253	21.62
535.451	21.73
535.649	21.76
535.847	21.9
536.045	22.05
536.243	22.13
536.441	22.23
536.638	22.46
536.836	22.57
537.034	22.7
537.232	22.68
537.43	22.88
537.627	23.01
537.825	23.23
538.023	23.3
538.22	23.4
538.418	23.44
538.616	23.5
538.813	23.61
539.011	23.7
539.209	23.76
539.406	23.88
539.604	24.09
539.801	24.23
539.999	24.33
540.196	24.45
540.394	24.49
540.591	24.62
540.789	24.81
540.986	24.83
541.184	24.96
541.381	24.98
541.579	25.07
541.776	25.07
541.974	25.16
542.171	25.15
542.368	25.09
542.566	25.1
542.763	25.12
542.96	25.14
543.158	25.36
543.355	25.29
543.552	25.47
543.75	25.53
543.947	25.61
544.144	25.71
544.341	25.76
544.539	25.97
544.736	26.2
544.933	26.33
545.13	26.42
545.327	26.4
545.524	26.43
545.722	26.41
545.919	26.46
546.116	26.57
546.313	26.48
546.51	26.63
546.707	26.62
546.904	26.68
547.101	26.69
547.298	26.9
547.495	26.92
547.692	27.01
547.889	26.91
548.086	27.06
548.283	27.07
548.48	27.09
548.677	27.15
548.874	27.19
549.07	27.27
549.267	27.44
549.464	27.31
549.661	27.44
549.858	27.49
550.055	27.79
550.251	27.7
550.448	27.87
550.645	27.9
550.842	28.1
551.038	28.24
551.235	28.32
551.432	28.19
551.628	28.24
551.825	28.25
552.022	28.36
552.218	28.5
552.415	28.61
552.612	28.51
552.808	28.79
553.005	28.75
553.201	28.78
553.398	28.74
553.594	29.04
553.791	29.18
553.987	29.16
554.184	29.23
554.38	29.08
554.577	29.2
554.773	29.33
554.97	29.3
555.166	29.34
555.362	29.49
555.559	29.52
555.755	29.56
555.952	29.57
556.148	29.79
556.344	29.83
556.541	29.85
556.737	29.99
556.933	30.05
557.129	30.01
557.326	30.03
557.522	30.1
557.718	30.41
557.914	30.32
558.11	30.3
558.307	30.22
558.503	30.18
558.699	30.35
558.895	30.25
559.091	30.53
559.287	30.94
559.483	31.05
559.679	31.18
559.876	30.81
560.072	30.84
560.268	30.95
560.464	31
560.66	31.07
560.856	31.28
561.052	31.16
561.247	30.92
561.443	30.67
561.639	30.76
561.835	30.6
562.031	30.84
562.227	30.95
562.423	31.09
562.619	30.97
562.815	31.18
563.01	31.25
563.206	31.4
563.402	31.37
563.598	31.54
563.793	31.45
563.989	31.59
564.185	31.66
564.381	31.44
564.576	31.43
564.772	31.52
564.968	31.55
565.163	31.42
565.359	31.58
565.555	31.8
565.75	31.73
565.946	31.77
566.141	31.87
566.337	31.88
566.532	32.14
566.728	32.1
566.923	32.06
567.119	32.07
567.314	32.13
567.51	32.13
567.705	32.2
567.901	32.4
568.096	32.4
568.292	32.35
568.487	32.32
568.682	32.28
568.878	32.42
569.073	32.59
569.268	32.52
569.464	32.55
569.659	32.65
569.854	32.72
570.05	32.39
570.245	32.6
570.44	32.67
570.635	32.73
570.831	32.86
571.026	32.88
571.221	33.1
571.416	33.16
571.611	33.18
571.806	33.08
572.002	32.99
572.197	33.21
572.392	33.04
572.587	33.1
572.782	33.21
572.977	33.08
573.172	33.1
573.367	32.9
573.562	33.03
573.757	33.21
573.952	33.2
574.147	33.2
574.342	33.19
574.537	33.35
574.732	33.2
574.927	33.21
575.121	33.24
575.316	33.2
575.511	33.31
575.706	33.38
575.901	33.12
576.096	33.32
576.29	33.49
576.485	33.77
576.68	33.78
576.875	33.72
577.069	33.83
577.264	33.92
577.459	33.96
577.654	34.12
577.848	33.96
578.043	33.93
578.238	33.96
578.432	33.8
578.627	33.43
578.821	33.55
579.016	33.93
579.21	34.06
579.405	34.24
579.6	34.27
579.794	34.03
579.989	34.05
580.183	34.45
580.378	34.23
580.572	34.44
580.766	34.52
580.961	34.6
581.155	34.39
581.35	34.21
581.544	34.1
581.738	34.19
581.933	34.31
582.127	34.4
582.321	34.18
582.516	34.46
582.71	34.23
582.904	34.46
583.099	34.39
583.293	34.47
583.487	34.61
583.681	34.83
583.875	34.93
584.07	35.24
584.264	35.11
584.458	35.32
584.652	35.07
584.846	35.54
585.04	35.27
585.234	35.5
585.428	35.74
585.623	35.88
585.817	35.81
586.011	35.52
586.205	35.37
586.399	35.62
586.593	35.48
586.787	35.66
586.981	35.33
587.174	35.4
587.368	35.07
587.562	34.86
587.756	34.67
587.95	34.75
588.144	34.91
588.338	35.11
588.532	34.91
588.725	35.08
588.919	35.04
589.113	35.05
589.307	35.3
589.501	35.25
589.694	35.43
589.888	35.43
590.082	35.52
590.275	35.63
590.469	35.49
590.663	35.64
590.856	35.5
591.05	35.68
591.244	35.52
591.437	35.58
591.631	35.78
591.824	35.6
592.018	35.59
592.212	35.41
592.405	35.52
592.599	35.54
592.792	35.6
592.986	35.75
593.179	35.69
593.372	35.92
593.566	35.75
593.759	35.69
593.953	35.88
594.146	35.97
594.339	35.94
594.533	35.96
594.726	35.6
594.92	35.53
595.113	35.31
595.306	35.34
595.499	35.4
595.693	35.78
595.886	36
596.079	35.83
596.272	35.95
596.466	36.06
596.659	35.98
596.852	36.38
597.045	36.58
597.238	36.79
597.431	36.81
597.624	36.94
597.818	36.7
598.011	36.7
598.204	36.89
598.397	36.77
598.59	36.64
598.783	36.61
598.976	36.58
599.169	36.36
599.362	36.41
599.555	36.22
599.748	36.09
599.941	35.96
600.134	35.9
600.326	35.77
600.519	36.14
600.712	36.24
600.905	36.64
601.098	36.78
601.291	36.81
601.483	36.7
601.676	36.82
601.869	37.01
602.062	37.15
602.255	37.26
602.447	37.4
602.64	37.29
602.833	37.2
603.025	37.04
603.218	36.99
603.411	37.04
603.603	37.1
603.796	37.27
603.989	36.89
604.181	36.92
604.374	36.84
604.566	36.92
604.759	36.76
604.951	36.72
605.144	36.75
605.336	36.99
605.529	37.12
605.721	37.11
605.914	36.99
606.106	37.21
606.299	37.38
606.491	37.4
606.683	37.4
606.876	37.47
607.068	37.62
607.26	37.37
607.453	36.85
607.645	36.64
607.837	36.69
608.03	36.75
608.222	36.65
608.414	36.2
608.606	36.16
608.799	36.21
608.991	36.11
609.183	36.24
609.375	36.56
609.567	36.71
609.759	36.93
609.952	36.93
610.144	36.91
610.336	36.94
610.528	37.21
610.72	37.3
610.912	37.27
611.104	37.47
611.296	37.42
611.488	37.6
611.68	37.57
611.872	37.49
612.064	37.64
612.256	37.64
612.448	37.82
612.64	37.97
612.832	37.94
613.023	37.88
613.215	37.83
613.407	37.77
613.599	37.42
613.791	37.63
613.983	37.72
614.174	37.67
614.366	37.66
614.558	37.81
614.75	37.68
614.941	37.75
615.133	37.64
615.325	37.48
615.516	37.9
615.708	37.87
615.9	38
616.091	37.93
616.283	37.82
616.475	37.74
616.666	37.44
616.858	37.58
617.049	37.34
617.241	37.64
617.432	37.81
617.624	37.64
617.815	37.49
618.007	37.27
618.198	37.07
618.39	36.91
618.581	37.23
618.773	37.26
618.964	37.09
619.155	37.12
619.347	36.67
619.538	36.86
619.729	36.73
619.921	36.98
620.112	37.29
620.303	37.34
620.494	37.77
620.686	37.75
620.877	38.08
621.068	37.75
621.259	37.77
621.451	38.26
621.642	37.8
621.833	37.99
622.024	37.81
622.215	37.17
622.406	37.18
622.597	36.91
622.788	36.69
622.98	36.4
623.171	36.68
623.362	36.78
623.553	36.79
623.744	37.24
623.935	37.12
624.126	37.33
624.317	37.82
624.508	37.8
624.698	37.86
624.889	37.84
625.08	38.04
625.271	38.16
625.462	38.43
625.653	37.92
625.844	37.83
626.034	37.79
626.225	37.98
626.416	37.97
626.607	38.32
626.798	38.29
626.988	38.34
627.179	38.41
627.37	38.33
627.56	38.2
627.751	38.75
627.942	38.85
628.132	38.87
628.323	38.62
628.514	38.64
628.704	38.36
628.895	38.28
629.085	38.04
629.276	37.79
629.466	37.94
629.657	37.92
629.847	37.68
630.038	37.97
630.228	38.02
630.419	38.09
630.609	38.21
630.8	38.38
630.99	38.45
631.181	38.93
631.371	39.04
631.561	38.62
631.752	38.84
631.942	38.94
632.132	38.08
632.323	38.28
632.513	38.22
632.703	37.84
632.893	37.67
633.084	38.15
633.274	38.23
633.464	38.07
633.654	38.29
633.844	38.02
634.034	37.87
634.225	38.12
634.415	37.89
634.605	37.92
634.795	37.89
634.985	38.04
635.175	38.05
635.365	37.79
635.555	37.79
635.745	37.71
635.935	37.84
636.125	37.91
636.315	38.21
636.505	38.1
636.695	38.13
636.885	38
637.075	38.08
637.265	37.52
637.455	37.79
637.644	38.07
637.834	38.61
638.024	38.68
638.214	38.5
638.404	38.46
638.593	38.63
638.783	38.7
638.973	39.03
639.163	38.94
639.352	39.07
639.542	38.76
639.732	38.87
639.921	38.68
640.111	38.73
640.301	38.84
640.49	38.78
640.68	38.9
640.87	38.83
641.059	38.8
641.249	38.92
641.438	38.98
641.628	39.11
641.817	39.49
642.007	39.48
642.196	39.35
642.386	39.52
642.575	39.46
642.764	39.15
642.954	38.87
643.143	38.96
643.333	38.6
643.522	38.42
643.711	38.61
643.901	38
644.09	37.58
644.279	37.82
644.469	37.72
644.658	37.89
644.847	38.13
645.036	38.85
645.226	38.97
645.415	39.2
645.604	39.23
645.793	39.32
645.982	39.04
646.171	39.51
646.361	39.15
646.55	39.51
646.739	39.75
646.928	39.6
647.117	39.05
647.306	39.06
647.495	39.11
647.684	39.11
647.873	39.07
648.062	39.41
648.251	39
648.44	39.15
648.629	38.7
648.818	38.48
649.007	38.52
649.196	38.72
649.384	38.49
649.573	38.26
649.762	38.14
649.951	37.81
650.14	38.02
650.328	38.09
650.517	38.14
650.706	38.26
650.895	38.15
651.083	38.65
651.272	39.09
651.461	39.35
651.65	39.25
651.838	39.53
652.027	39.44
652.216	39
652.404	39.36
652.593	39.44
652.781	39.82
652.97	39.98
653.158	39.42
653.347	39.01
653.535	38.57
653.724	39.02
653.912	39.44
654.101	39.55
654.289	40.02
654.478	40.1
654.666	39.8
654.855	39.46
655.043	39.06
655.231	39.5
655.42	39.35
655.608	39.81
655.796	39.8
655.985	39.21
656.173	38.94
656.361	38.69
656.55	38.39
656.738	38.48
656.926	38.65
657.114	38.83
657.302	38.85
657.491	38.95
657.679	38.93
657.867	38.96
658.055	39.22
658.243	39.47
658.431	39.86
658.619	40.13
658.807	40.43
658.996	40.23
659.184	40.31
659.372	40.42
659.56	40.52
659.748	40.36
659.936	40.45
660.124	40.24
660.311	40.14
660.499	39.92
660.687	39.48
660.875	38.95
661.063	39.15
661.251	39.06
661.439	38.77
661.627	38.68
661.814	38.71
662.002	38.21
662.19	38.47
662.378	38.47
662.565	38.42
662.753	38.78
662.941	39.44
663.129	38.87
663.316	38.91
663.504	38.58
663.692	37.99
663.879	38.05
664.067	38.49
664.254	38.52
664.442	39.01
664.63	38.76
664.817	38.96
665.005	38.31
665.192	38.98
665.38	39.07
665.567	39.17
665.755	39.65
665.942	39.5
666.13	39.5
666.317	39.34
666.504	39.02
666.692	39.24
666.879	38.87
667.067	39.32
667.254	39.05
667.441	39.03
667.629	39.13
667.816	39.18
668.003	39.77
668.19	39.8
668.378	40.33
668.565	40.76
668.752	40.9
668.939	41.19
669.127	41.06
669.314	41
669.501	41.13
669.688	41.07
669.875	41.76
670.062	41.33
670.249	41.06
670.436	40.5
670.623	40.38
670.81	40.06
670.997	39.78
671.184	39.62
671.371	39.59
671.558	39.03
671.745	39.2
671.932	38.56
672.119	38.2
672.306	38.32
672.493	38.16
672.68	38.28
672.867	39.14
673.054	39.28
673.24	39.54
673.427	39.64
673.614	40.06
673.801	40.24
673.988	40.5
674.174	41.13
674.361	40.97
674.548	41.01
674.734	40.39
674.921	39.37
675.108	39.27
675.294	39.04
675.481	39.04
675.668	39.11
675.854	39.03
676.041	38.71
676.227	38.51
676.414	38.46
676.601	38.92
676.787	39.18
676.974	39.54
677.16	39.24
677.347	39.5
677.533	39.53
677.719	39.56
677.906	39.46
678.092	39.64
678.279	39.94
678.465	40.53
678.651	40.43
678.838	40.49
679.024	40.41
679.21	40.26
679.397	40.11
679.583	40.23
679.769	39.98
679.955	40.03
680.142	39.93
680.328	39.86
680.514	39.52
680.7	39.51
680.886	39.45
681.073	39.48
681.259	39.97
681.445	39.96
681.631	39.72
681.817	39.88
682.003	39.88
682.189	39.79
682.375	39.65
682.561	39.78
682.747	39.1
682.933	39.12
683.119	38.67
683.305	38.53
683.491	39.05
683.677	39.16
683.863	39.1
684.049	39.3
684.235	39.66
684.42	39.87
684.606	39.38
684.792	40.05
684.978	40.12
685.164	40.26
685.349	40.43
685.535	40.31
685.721	40.46
685.907	40.02
686.092	40.01
686.278	39.76
686.464	39.81
686.649	40.18
686.835	40.2
687.021	40.66
687.206	40.89
687.392	40.82
687.577	40.7
687.763	40.6
687.948	41.1
688.134	40.83
688.319	40.79
688.505	40.61
688.69	40.63
688.876	40.37
689.061	39.87
689.247	40.14
689.432	39.8
689.618	39.54
689.803	39.38
689.988	39.13
690.174	39.36
690.359	39.48
690.544	38.89
690.73	39.31
690.915	38.71
691.1	38.36
691.285	38.54
691.471	39.37
691.656	39.38
691.841	39.5
692.026	39.76
692.211	39.69
692.396	39.83
692.582	41.15
692.767	40.65
692.952	41.46
693.137	42.13
693.322	42.1
693.507	41.35
693.692	41.39
693.877	41.61
694.062	41.79
694.247	42.17
694.432	41.65
694.617	41.18
694.802	41.39
694.987	41.44
695.172	41.19
695.357	40.83
695.541	41.26
695.726	41.39
695.911	41.59
696.096	41.54
696.281	41.3
696.466	41.74
696.65	41.69
696.835	41.36
697.02	40.68
697.204	40.85
697.389	40.8
697.574	41.03
697.759	40.63
697.943	40.43
698.128	40.64
698.312	40.66
698.497	40.48
698.682	40.47
698.866	40.59
699.051	41.19
699.235	41.45
699.42	41.68
699.604	41.41
699.789	41.78
699.973	41.57
700.158	41.43
700.342	41.15
700.527	41.5
700.711	41.51
700.895	42.11
701.08	42.36
701.264	41.82
701.448	41.79
701.633	42.08
701.817	42.62
702.001	43.34
702.186	43.5
702.37	43.38
702.554	43.54
702.738	43.65
702.923	42.81
703.107	42
703.291	42.59
703.475	42.45
703.659	42.31
703.843	41.47
704.027	41.02
704.212	40.4
704.396	40.83
704.58	40.57
704.764	40.06
704.948	40.43
705.132	40.66
705.316	40.56
705.5	41.43
705.684	41.63
705.868	41.93
706.052	41.79
706.235	42.64
706.419	42.98
706.603	42.74
706.787	42.96
706.971	42.88
707.155	43.07
707.339	42.11
707.522	41.72
707.706	41.04
707.89	40.81
708.074	41.29
708.257	40.46
708.441	39.78
708.625	39.95
708.808	39.84
708.992	39.86
709.176	39.91
709.359	40.52
709.543	40.44
709.727	41.1
709.91	41.46
710.094	41.22
710.277	41.54
710.461	42.13
710.644	42.03
710.828	42.73
711.011	42.68
711.195	42.74
711.378	42.84
711.562	42.57
711.745	42.05
711.928	41.73
712.112	41.76
712.295	41.65
712.478	41.7
712.662	42.33
712.845	42.1
713.028	41.49
713.212	41.78
713.395	41.47
713.578	41.4
713.761	41.64
713.945	41.74
714.128	41.76
714.311	41.71
714.494	41.47
714.677	40.78
714.86	39.91
715.043	40.24
715.227	40.1
715.41	40.54
715.593	40.76
715.776	41.08
715.959	40.53
716.142	40.38
716.325	40.67
716.508	40.67
716.691	40.67
716.874	40.82
717.057	41.05
717.239	40.13
717.422	40.27
717.605	40.05
717.788	39.26
717.971	40.24
718.154	40.43
718.337	40.37
718.519	39.95
718.702	39.84
718.885	39.65
719.068	39.95
719.25	40.68
719.433	40.67
719.616	41.07
719.798	41.75
719.981	40.74
720.164	40.5
720.346	40.99
720.529	41.05
720.712	41.07
720.894	41.89
721.077	41.24
721.259	41.72
721.442	41.82
721.624	41.69
721.807	41.12
721.989	40.73
722.172	40.78
722.354	41.22
722.537	41.96
722.719	41.86
722.901	41.57
723.084	41.7
723.266	41.61
723.448	41.19
723.631	41.24
723.813	41.97
723.995	42.67
724.178	42.83
724.36	41.57
724.542	41.18
724.724	41.28
724.907	41.37
725.089	42.31
725.271	42.26
725.453	42.05
725.635	41.82
725.817	41.55
725.999	42.21
726.181	42.84
726.364	43.87
726.546	43.76
726.728	44.43
726.91	44.47
727.092	43.83
727.274	43.3
727.456	43.3
727.638	42.88
727.819	43.18
728.001	42.22
728.183	41.97
728.365	41.79
728.547	41.87
728.729	41.34
728.911	41.83
729.093	42.55
729.274	41.99
729.456	42.23
729.638	42.72
729.82	42.68
730.001	42.6
730.183	42
730.365	41.27
730.546	41.22
730.728	41.27
730.91	40.42
731.091	40.14
731.273	40.37
731.455	40.24
731.636	40.2
731.818	40.08
731.999	41.04
732.181	40.75
732.362	40.8
732.544	41.41
732.725	40.75
732.907	41.51
733.088	41.01
733.27	41.71
733.451	41.44
733.633	41.48
733.814	41.56
733.995	40.17
734.177	40.91
734.358	41.84
734.539	40.92
734.721	41.6
734.902	41.57
735.083	42.28
735.264	41.34
735.446	42.03
735.627	41.33
735.808	41.46
735.989	42.72
736.17	42.74
736.351	42.85
736.533	43.55
736.714	43.91
736.895	43.13
737.076	42.12
737.257	42.71
737.438	42.57
737.619	43.66
737.8	43.05
737.981	43.23
738.162	43.43
738.343	42.7
738.524	43.32
738.705	43.9
738.886	43.91
739.067	44.63
739.247	45.09
739.428	44.65
739.609	43.39
739.79	44.32
739.971	43.67
740.151	43.28
740.332	43.25
740.513	42.88
740.694	42.08
740.874	42.14
741.055	41.6
741.236	41.11
741.417	41.53
741.597	42.46
741.778	41.49
741.958	41.36
742.139	40.61
742.32	40.6
742.5	40.86
742.681	41.45
742.861	41.53
743.042	41.33
743.222	41.78
743.403	41.29
743.583	40.96
743.764	41.72
743.944	43
744.124	44.04
744.305	44.42
744.485	43.18
744.666	42.27
744.846	42.66
745.026	43.54
745.207	43.57
745.387	42.96
745.567	43.35
745.747	42.91
745.928	41.53
746.108	41.77
746.288	41.02
746.468	41.06
746.648	41.96
746.829	41.04
747.009	40.24
747.189	40.33
747.369	40.75
747.549	40.04
747.729	39.9
747.909	40.44
748.089	39.41
748.269	39.93
748.449	40.25
748.629	39.57
748.809	39.61
748.989	39.93
749.169	40.28
749.349	39.7
749.529	40.47
749.709	40.72
749.889	41.64
750.068	41.78
750.248	41.68
750.428	42.32
750.608	41.57
750.788	41.82
750.967	41.61
751.147	40.19
751.327	41.12
751.507	40.71
751.686	40.24
751.866	39.52
752.046	40.21
752.225	40.76
752.405	39.58
752.585	40.67
752.764	41.56
752.944	41.37
753.123	41.99
753.303	41.69
753.482	41.75
753.662	41.51
753.841	41.22
754.021	40.45
754.2	39.58
754.38	40.39
754.559	40.17
754.739	40.62
754.918	40.76
755.097	40.33
755.277	39.7
755.456	40.06
755.635	40.74
755.815	40.91
755.994	41.8
756.173	40.32
756.352	41.67
756.532	41.82
756.711	39.61
756.89	40.19
757.069	41
757.248	41.39
757.427	41.72
757.607	41.96
757.786	42.4
757.965	41.43
758.144	42.59
758.323	41.19
758.502	40.72
758.681	41.92
758.86	42.39
759.039	41.25
759.218	41.39
759.397	40.28
759.576	39.78
759.755	39.49
759.934	39.71
760.113	39.53
760.291	39.23
760.47	40.35
760.649	40.77
760.828	40.04
761.007	40.8
761.186	40.8
761.364	40.44
761.543	40.86
761.722	41.69
761.901	41.25
762.079	41.83
762.258	42.91
762.437	41.91
762.615	40.67
762.794	41.01
762.972	41.26
763.151	40.93
763.33	40.94
763.508	40.89
763.687	40.76
763.865	41.72
764.044	41.7
764.222	40.18
764.401	39.74
764.579	40.06
764.758	39.47
764.936	39.79
765.114	40.1
765.293	40.77
765.471	40.38
765.65	39.43
765.828	38.45
766.006	38.52
766.184	39.22
766.363	40.16
766.541	40.15
766.719	39.57
766.898	39.21
767.076	39.42
767.254	39.73
767.432	40.66
767.61	41.54
767.788	41.93
767.967	41.69
768.145	43.13
768.323	42.89
768.501	43.33
768.679	43.44
768.857	43.36
769.035	43.42
769.213	43.9
769.391	43.75
769.569	43.58
769.747	44.48
769.925	44.3
770.103	43.37
770.281	43.15
770.459	42.25
770.636	43.13
770.814	42.79
770.992	43.55
771.17	43.16
771.348	41.88
771.525	41.96
771.703	42.86
771.881	43
772.059	43.64
772.236	42.66
772.414	43.45
772.592	43.38
772.769	42.85
772.947	40.92
773.125	40.94
773.302	42.2
773.48	42.78
773.657	40.53
773.835	40.04
774.013	40.26
774.19	41.08
774.368	39.2
774.545	39.89
774.723	39.69
774.9	40.01
775.077	39.27
775.255	37.32
775.432	37.31
775.61	37.67
775.787	38.14
775.964	36.94
776.142	36.78
776.319	38.04
776.496	38.61
776.674	39.85
776.851	41.41
777.028	41.94
777.205	43.93
777.382	43.32
777.56	44.03
777.737	45.65
777.914	46.79
778.091	47.08
778.268	47.84
778.445	47.57
778.622	47.01
778.8	46.06
778.977	45.33
779.154	46.55
779.331	45.86
779.508	45.14
779.685	42.7
779.862	42.54
780.038	43.03
780.215	43.77
780.392	43.04
780.569	44.56
780.746	45.08
780.923	44.76
781.1	42.41
781.277	40.95
781.453	40.36
781.63	41.02
781.807	41.22
781.984	39.72
782.16	41.09
782.337	42.05
782.514	39.61
782.691	39.58
782.867	39.41
783.044	41.19
783.221	43.14
783.397	43.14
783.574	43.6
783.75	42.75
783.927	47.12
784.103	45.92
784.28	44.19
784.456	46.5
784.633	46.84
784.809	48.53
784.986	45.45
785.162	46.89
785.339	46.55
785.515	45.68
785.692	45.93
785.868	41.66
786.044	40.59
786.221	42.06
786.397	42.4
786.573	40.39
786.749	39.83
786.926	39.6
787.102	39.71
787.278	40.84
787.454	42.79
787.631	41.68
787.807	40.38
787.983	41.37
788.159	42.65
788.335	41.51
788.511	42.09
788.687	42.2
788.863	43.7
789.039	40.5
789.216	40.13
789.392	39.39
789.568	38.86
789.744	40.9
789.919	42.38
790.095	41.84
790.271	41.16
790.447	41.91
790.623	41.49
790.799	42.1
790.975	42.71
791.151	43.4
791.327	41.41
791.502	42.06
791.678	42.78
791.854	41.98
792.03	38.31
792.205	38.29
792.381	38.22
792.557	38.05
792.733	38.56
792.908	39.87
793.084	40.13
793.259	41.1
793.435	39.42
793.611	39.83
793.786	39
793.962	41.11
794.137	41.89
794.313	43.03
794.488	42.72
794.664	42.33
794.839	40.43
795.015	39.78
795.19	40.48
795.366	43.28
795.541	43.35
795.716	41.14
795.892	41.36
796.067	41.38
796.242	40.11
796.418	41.17
796.593	40.53
796.768	42.41
796.944	43.01
797.119	41.52
797.294	42.46
797.469	41.91
797.644	42.83
797.82	42.41
797.995	42.02
798.17	42.55
798.345	41.17
798.52	40.13
798.695	40.6
798.87	39.13
799.045	41.04
799.22	40.04
799.395	39.75
799.57	40.01
799.745	38.77
799.92	38.01
800.095	35.7
800.27	37.82
800.445	39.27
800.62	37.89
800.795	37.7
800.97	38.75
801.145	39.81
801.319	39.12
801.494	40.29
801.669	43.01
801.844	43.63
802.018	47.51
802.193	46.04
802.368	44.38
802.543	46
802.717	46.68
802.892	46.1
803.067	47.68
803.241	48.49
803.416	46.81
803.59	47.41
803.765	49.65
803.94	50.36
804.114	49.01
804.289	50.2
804.463	49.5
804.638	48.33
804.812	46.71
804.986	42.99
805.161	45.22
805.335	48.08
805.51	48.06
805.684	45.72
805.858	39.98
806.033	40.62
806.207	37.22
806.381	37.79
806.556	37.34
806.73	37.93
806.904	40.75
807.078	37.29
807.253	35.7
807.427	35.17
807.601	37.11
807.775	39.66
807.949	39.87
808.123	40.81
808.298	40.14
808.472	40.43
808.646	40.9
808.82	37.62
808.994	37.04
809.168	36.47
809.342	36.67
809.516	36.95
809.69	38.65
809.864	37.41
810.038	39.24
810.212	39.75
810.385	39.02
810.559	37.14
810.733	37.52
810.907	40.96
811.081	40.43
811.255	38.43
811.428	36.24
811.602	33.15
811.776	33.99
811.95	34.74
812.123	33.51
812.297	37.97
812.471	39.18
812.644	42.22
812.818	36.93
812.992	40.5
813.165	40.88
813.339	38.08
813.512	40.79
813.686	43.08
813.86	43.4
814.033	44.25
814.207	42.44
814.38	44.7
814.554	43.7
814.727	48.78
814.9	47.28
815.074	47.06
815.247	45.18
815.421	43.81
815.594	42.5
815.767	42.05
815.941	40.12
816.114	40.61
816.287	37.42
816.46	36.07
816.634	35.94
816.807	37.26
816.98	38.48
817.153	43.39
817.327	45.78
817.5	46.06
817.673	49.24
817.846	52.04
818.019	53.45
818.192	56.2
818.365	55.67
818.538	53.13
818.711	51.55
818.884	50.45
819.057	50.72
819.23	47.65
819.403	48.33
819.576	47.54
819.749	47.51
819.922	46.75
820.095	46.38
820.268	45.67
820.441	48.24
820.614	47.87
820.786	47.5
820.959	47.94
821.132	46.81
821.305	44.55
821.477	43.08
821.65	41.53
821.823	41.87
821.996	41.88
822.168	42.39
822.341	41.16
822.514	41.22
822.686	41.18
822.859	40.29
823.031	40.32
823.204	40.23
823.376	40.25
823.549	40.9
823.722	40.54
823.894	40.46
824.067	40.49
824.239	40.77
824.411	40.65
824.584	40.44
824.756	41.02
824.929	41.6
825.101	41.84
825.273	41.91
825.446	42.02
825.618	42.41
825.79	41.72
825.963	41.71
826.135	41.18
826.307	41.7
826.479	42.16
826.652	42.61
826.824	42.1
826.996	41.91
827.168	42.4
827.34	41.82
827.512	40.93
827.684	41.91
827.856	41.74
828.029	41.5
828.201	40.98
828.373	41.21
828.545	40.18
828.717	40.81
828.889	41.76
829.061	41.45
829.232	41.75
829.404	41.62
829.576	40.61
829.748	40.64
829.92	43.93
830.092	45.46
830.264	44.69
830.436	44.77
830.607	43.97
830.779	43.16
830.951	43.56
831.123	43.82
831.294	44.87
831.466	46.12
831.638	47.03
831.809	42.1
831.981	41.36
832.153	42.92
832.324	43.27
832.496	44.18
832.667	46.48
832.839	46.7
833.011	45.96
833.182	45.19
833.354	44.35
833.525	43.34
833.697	45.81
833.868	44.56
834.039	42.94
834.211	41.62
834.382	41.89
834.554	41.45
834.725	40.98
834.896	39.84
835.068	39.91
835.239	38.96
835.41	40.24
835.581	39.03
835.753	39.09
835.924	40.67
836.095	40.46
836.266	40.59
836.438	39.67
836.609	39.19
836.78	38.41
836.951	39.82
837.122	41.19
837.293	39.46
837.464	39.76
837.635	38.94
837.806	36.67
837.977	39.13
838.148	39.4
838.319	39.11
838.49	40.85
838.661	43.6
838.832	46.5
839.003	44.03
839.174	42.92
839.345	46.02
839.516	46.94
839.687	48.79
839.857	45.58
840.028	48.36
840.199	47.43
840.37	47.51
840.54	50.46
840.711	46.24
840.882	47.56
841.053	52.13
841.223	50.24
841.394	51.43
841.564	55.79
841.735	58.74
841.906	52.33
842.076	52.71
842.247	47.84
842.417	44.26
842.588	49.85
842.758	51.93
842.929	47.34
843.099	48.56
843.27	46
843.44	45.37
843.611	47.67
843.781	50.06
843.951	56.55
844.122	59.11
844.292	52.51
844.462	45.88
844.633	46.67
844.803	49.2
844.973	44.59
845.144	50.44
845.314	39.78
845.484	40.17
845.654	37.29
845.824	31.89
845.995	34.7
846.165	40.72
846.335	40.84
846.505	37.8
846.675	31.33
846.845	30.36
847.015	28.11
847.185	36.26
847.355	30.29
847.525	39.57
847.695	43.95
847.865	35.79
848.035	42.3
848.205	41.77
848.375	50.75
848.545	50.95
848.715	52.24
848.884	39.56
849.054	40.93
849.224	40.47
849.394	41.85
849.564	39.5
849.733	38.01
849.903	35.31
850.073	31.43
850.243	28.79
850.412	21.6
850.582	23.45
850.752	22.23
850.921	16.8
851.091	20.93
851.26	14.6
851.43	15.75
851.599	21.05
851.769	21.2
851.939	28.17
852.108	25.45
852.278	38.48
852.447	34.7
852.616	34.15
852.786	37.46
852.955	35.31
853.125	32.9
853.294	23.2
853.463	18.21
853.633	14.04
853.802	21.21
853.971	29.83
854.141	34.53
854.31	35.09
854.479	36.24
854.648	49.4
854.818	35.45
854.987	30.17
855.156	41.45
855.325	53.77
855.494	61.12
855.663	40.6
855.832	32.97
856.001	17.26
856.171	18.21
856.34	28.34
856.509	22.85
856.678	34.47
856.847	38.15
857.016	52.36
857.185	43.05
857.353	42.72
857.522	38.84
857.691	32.49
857.86	34.87
858.029	39.22
858.198	36.88
858.367	29
858.535	16.77
858.704	26.81
858.873	11.9
859.042	14.36
859.21	3.09
859.379	14.28
859.548	12.39
859.717	22.46
859.885	32.5
860.054	27.73
860.222	32.72
860.391	37.97
860.56	36.71
860.728	43.17
860.897	40.09
861.065	40.61
861.234	40.8
861.402	40.1
861.571	36.01
861.739	31.81
861.908	32
862.076	40.98
862.244	40.01
862.413	30.84
862.581	29.53
862.749	32.25
862.918	34.57
863.086	42.19
863.254	46.48
863.423	35.28
863.591	29.16
863.759	35.86
863.927	23.97
864.096	34.29
864.264	41.94
864.432	40.52
864.6	44.4
864.768	49.78
864.936	53.59
865.104	53.54
865.272	69.19
865.44	72.02
865.608	67.24
865.776	72.28
865.944	69.63
866.112	71.83
866.28	68.88
866.448	72.73
866.616	79.89
866.784	64.05
866.952	61.4
867.12	60.65
867.288	63.98
867.455	74.14
867.623	65.07
867.791	57.67
867.959	45.57
868.127	34.92
868.294	39.64
868.462	32.53
868.63	35.3
868.797	40.87
868.965	22.58
869.133	27.41
869.3	25.22
869.468	34.8
869.636	40.77
869.803	47.69
869.971	48.96
870.138	46.36
870.306	46.29
870.473	43.19
870.641	41.95
870.808	45.38
870.975	46.46
871.143	47.07
871.31	36.43
871.478	25.46
871.645	20.04
871.812	31.3
871.98	37
872.147	23.55
872.314	26.34
872.482	25.77
872.649	30.08
872.816	27.76
872.983	29.94
873.15	35.25
873.318	48.49
873.485	53.48
873.652	35.19
873.819	24.1
873.986	43.47
874.153	49.3
874.32	50.52
874.487	58.37
874.654	71.36
874.821	71.49
874.988	80.27
875.155	57.25
875.322	49.95
875.489	69.22
875.656	83.85
875.823	62.71
875.99	52.65
876.157	50.82
876.324	41.5
876.49	41.51
876.657	37.06
876.824	28.15
876.991	33.25
877.157	37.82
877.324	42.41
877.491	39.3
877.658	42.7
877.824	40.21
877.991	31.84
878.157	35.47
878.324	30.37
878.491	28.46
878.657	30.39
878.824	28.58
878.99	24.14
879.157	25.79
879.323	22.64
879.49	23.06
879.656	26.63
879.823	35.86
879.989	34.98
880.156	37.24
880.322	42.56
880.488	49.68
880.655	51.97
880.821	52.38
880.987	56.01
881.154	55.15
881.32	58.04
881.486	55.61
881.652	54.29
881.819	55.01
881.985	53.78
882.151	52
882.317	47
882.483	48.06
882.649	46.94
882.816	43.18
882.982	43.4
883.148	39.03
883.314	39.24
883.48	35.93
883.646	36.08
883.812	36.23
883.978	38.5
884.144	40.26
884.31	42.39
884.476	42.8
884.642	42.72
884.807	42.7
884.973	43.23
885.139	42.02
885.305	44.47
885.471	43.54
885.637	43.31
885.802	41.08
885.968	40.58
886.134	37.96
886.3	38.98
886.465	38.16
886.631	38.32
886.797	42.81
886.962	44.26
887.128	45.56
887.293	47.31
887.459	42.7
887.625	41.39
887.79	42.31
887.956	34.43
888.121	31.43
888.287	33.3
888.452	29.94
888.618	19.58
888.783	25.28
