Data from CB_070_Reflection_1.txt Node
Date: Sat Nov 14 11:01:45 EST 2015
User: robert
Spectrometer: USB4E03001
Autoset integration time: false
Trigger mode: 4
Integration Time (sec): 1.000000E-1
Scans to average: 15
Electric dark correction enabled: true
Nonlinearity correction enabled: false
Boxcar width: 5
Stray light correction enabled: false
XAxis mode: Wavelengths
Stop averaging: false
Number of Pixels in Spectrum: 3648
>>>>>Begin Spectral Data<<<<<
177.566	-214.39
177.785	-217.28
178.005	-739.79
178.225	-27.22
178.445	-95.85
178.665	-198.49
178.885	-27.94
179.105	-121.98
179.324	-193.48
179.544	-463.4
179.764	-115.24
179.984	-127.13
180.204	-117.99
180.423	-337.08
180.643	-90.67
180.863	-270.36
181.083	-1158.22
181.302	-7091.27
181.522	730.34
181.742	1026.11
181.961	1389.44
182.181	208.54
182.401	188.04
182.621	300.38
182.84	1387.11
183.06	-4364.07
183.279	-533.71
183.499	-356.46
183.719	-429.4
183.938	-313.38
184.158	-175.89
184.377	-124.93
184.597	-71.59
184.816	-35.69
185.036	-84.22
185.256	-128.27
185.475	-357.06
185.695	-214.27
185.914	-193.76
186.134	-123.04
186.353	-74.59
186.572	-113.4
186.792	-316.43
187.011	1831.51
187.231	-782.14
187.45	-61.78
187.67	-282.95
187.889	333.57
188.108	235.14
188.328	238.3
188.547	182.54
188.766	166.4
188.986	147.74
189.205	136.91
189.424	129.47
189.644	142.66
189.863	196.8
190.082	237.4
190.302	331.28
190.521	261.55
190.74	258.29
190.959	1046.33
191.178	997.51
191.398	837.4
191.617	2505
191.836	10465.05
192.055	1969.15
192.274	568.58
192.494	798.86
192.713	30092.86
192.932	-2849.2
193.151	475250
193.37	707.37
193.589	-17352.21
193.808	-1403.74
194.027	-2325.72
194.246	4319.41
194.465	-3003.52
194.685	760.32
194.904	704.76
195.123	473.11
195.342	365.79
195.561	340.67
195.78	996.64
195.999	1861.45
196.218	779.37
196.436	352.32
196.655	229.65
196.874	123.22
197.093	213.6
197.312	192.93
197.531	392.04
197.75	584.1
197.969	1511.94
198.188	276.04
198.407	215.61
198.625	245.46
198.844	308.67
199.063	397.74
199.282	732.01
199.501	-4018.36
199.719	-2344.93
199.938	837.1
200.157	515.4
200.376	-3029.34
200.594	-231.64
200.813	-691.94
201.032	-1747.47
201.251	-935.24
201.469	-1318.82
201.688	-2500
201.907	4485.5
202.125	1308.84
202.344	5074.77
202.563	27268.12
202.781	1532.3
203	474.73
203.218	401.29
203.437	676.06
203.656	421.01
203.874	943.98
204.093	790.19
204.311	448.22
204.53	1072.15
204.748	276.27
204.967	333.87
205.185	223.41
205.404	271.52
205.622	347.18
205.841	215.37
206.059	214.19
206.278	158.33
206.496	247.51
206.715	369.47
206.933	292.22
207.151	414.39
207.37	301.43
207.588	380.16
207.806	465.06
208.025	594.22
208.243	1045.03
208.461	-80854.55
208.68	2147.76
208.898	1069.42
209.116	607.41
209.335	478.38
209.553	471.65
209.771	395.77
209.989	324.87
210.208	264.48
210.426	261.06
210.644	212.67
210.862	186.59
211.081	208.96
211.299	174.02
211.517	217.35
211.735	177.48
211.953	161.72
212.171	174.43
212.39	189.91
212.608	201.17
212.826	173.57
213.044	179.72
213.262	179.57
213.48	161.13
213.698	201.89
213.916	128.72
214.134	194.73
214.352	326.06
214.57	230.14
214.788	221.98
215.006	156.61
215.224	292.94
215.442	413.03
215.66	1000.62
215.878	411.06
216.096	211.73
216.314	726.38
216.532	3135.53
216.75	-947.89
216.968	-1089.66
217.185	-8873.45
217.403	2391.56
217.621	-152866.67
217.839	-955.18
218.057	-33131.25
218.275	-1023.69
218.492	-203.09
218.71	-3116.89
218.928	1763.92
219.146	967.33
219.363	681.59
219.581	770.21
219.799	-4618.07
220.017	473.85
220.234	586.59
220.452	543.2
220.67	877.89
220.887	329.61
221.105	532.62
221.323	301.79
221.54	217.45
221.758	199.64
221.976	184.56
222.193	124.38
222.411	133.1
222.629	147
222.846	148.91
223.064	127.69
223.281	142
223.499	151.52
223.716	155.89
223.934	135.79
224.151	117.63
224.369	122.83
224.586	138.72
224.804	144.31
225.021	129.08
225.239	118.39
225.456	124.59
225.674	102.7
225.891	93.74
226.108	79.92
226.326	86.47
226.543	73.5
226.76	51.61
226.978	52.37
227.195	52.05
227.413	47.92
227.63	48.87
227.847	47.03
228.064	49.42
228.282	46.69
228.499	49.42
228.716	46.53
228.934	51.19
229.151	52.96
229.368	47.18
229.585	42.09
229.802	39.47
230.02	42.64
230.237	41.14
230.454	38.06
230.671	37.46
230.888	34.78
231.105	31.23
231.323	27.4
231.54	29.64
231.757	33.27
231.974	41.17
232.191	44.02
232.408	39.41
232.625	42.85
232.842	41.88
233.059	45.36
233.276	51.14
233.493	57.35
233.71	58.52
233.927	53.97
234.144	55.83
234.361	52.57
234.578	53
234.795	51.02
235.012	47.8
235.229	50.36
235.446	46.13
235.663	44.49
235.879	45.19
236.096	46.36
236.313	51.31
236.53	44.3
236.747	51.19
236.964	52.35
237.181	58.57
237.397	57.41
237.614	67.62
237.831	70.69
238.048	73.93
238.264	67.8
238.481	63.46
238.698	65.18
238.915	70.72
239.131	58.75
239.348	55.91
239.565	51.59
239.781	52.3
239.998	42.09
240.215	40.82
240.431	38.43
240.648	40.68
240.865	37.96
241.081	34.36
241.298	30.11
241.514	33.73
241.731	33.84
241.947	32.38
242.164	30.96
242.38	30.2
242.597	28.54
242.814	26.89
243.03	26.16
243.246	26.96
243.463	26.32
243.679	27.32
243.896	25.19
244.112	23.92
244.329	26.16
244.545	26.7
244.762	25.83
244.978	25.13
245.194	24.54
245.411	24.92
245.627	22.68
245.843	23.78
246.06	23.3
246.276	22.29
246.492	24.06
246.709	22.54
246.925	21.57
247.141	22.74
247.357	22.77
247.574	23.09
247.79	22.72
248.006	23.45
248.222	23.72
248.439	23
248.655	23.11
248.871	21.69
249.087	23.06
249.303	24.39
249.519	24.62
249.736	25.86
249.952	25.49
250.168	28.61
250.384	28.09
250.6	25.34
250.816	27.6
251.032	29.08
251.248	29.89
251.464	28.42
251.68	25.31
251.896	22.25
252.112	22.08
252.328	21.99
252.544	19.97
252.76	19.28
252.976	19.81
253.192	16.65
253.408	14.52
253.624	13.16
253.84	13.38
254.056	15.59
254.272	15.62
254.487	15.35
254.703	17.16
254.919	16.14
255.135	20.58
255.351	23.29
255.567	26.13
255.782	32.19
255.998	32.92
256.214	32
256.43	30.91
256.646	33.34
256.861	34.37
257.077	33.12
257.293	32.97
257.508	30.2
257.724	28.5
257.94	27.75
258.155	24.57
258.371	23.27
258.587	21.22
258.802	19.48
259.018	18.44
259.234	16.41
259.449	15.77
259.665	15.19
259.88	15.68
260.096	15.27
260.312	14.62
260.527	14.02
260.743	13.47
260.958	13.7
261.174	14.77
261.389	15.4
261.605	15.81
261.82	15.27
262.036	15.88
262.251	14.95
262.466	14.7
262.682	14.16
262.897	15.21
263.113	15.08
263.328	14.8
263.543	13.91
263.759	13.67
263.974	12.72
264.189	13.83
264.405	11.69
264.62	13.31
264.835	13.4
265.051	16.24
265.266	16.18
265.481	17.91
265.696	19.26
265.912	19.1
266.127	17.71
266.342	16.39
266.557	17.42
266.773	17.31
266.988	16.55
267.203	17.86
267.418	17.04
267.633	16.84
267.848	16.14
268.064	13.72
268.279	13.58
268.494	12.7
268.709	14.25
268.924	13.9
269.139	14.82
269.354	16.75
269.569	15.06
269.784	15.73
269.999	16.47
270.214	18.38
270.429	17.85
270.644	17.5
270.859	16.74
271.074	16.84
271.289	16.65
271.504	16.46
271.719	15.22
271.934	15.8
272.149	15.25
272.363	15
272.578	14.04
272.793	15.19
273.008	14.38
273.223	16.07
273.438	14.8
273.653	15.51
273.867	16.24
274.082	17.77
274.297	18.29
274.512	19.83
274.726	18.51
274.941	18.02
275.156	18.96
275.371	20.45
275.585	20.95
275.8	23.33
276.015	21.13
276.229	21.33
276.444	18.98
276.659	17.19
276.873	16.06
277.088	18.31
277.302	19.9
277.517	18.69
277.732	17.61
277.946	15.84
278.161	15.89
278.375	17
278.59	16.02
278.804	16.43
279.019	18.88
279.233	19.46
279.448	17.99
279.662	15.27
279.877	15.21
280.091	14.78
280.306	15.16
280.52	12.74
280.735	13.12
280.949	13.77
281.163	14.38
281.378	13.01
281.592	13.35
281.806	13.63
282.021	14.57
282.235	14.5
282.449	15.74
282.664	16.46
282.878	17.79
283.092	16.49
283.307	15.56
283.521	14.19
283.735	14.38
283.949	13.87
284.164	13.85
284.378	13.74
284.592	14.64
284.806	14.25
285.02	12.89
285.234	12.03
285.449	12.21
285.663	13.28
285.877	13.44
286.091	12.21
286.305	12.5
286.519	12.89
286.733	12.7
286.947	12.57
287.161	12.13
287.375	12.15
287.589	14.17
287.803	15.53
288.017	15.03
288.231	16.04
288.445	17.8
288.659	17.81
288.873	17.41
289.087	16.86
289.301	16.87
289.515	17.24
289.729	18.6
289.943	17.57
290.157	18.07
290.371	18.37
290.584	17.77
290.798	17.54
291.012	18.02
291.226	17.67
291.44	18.81
291.654	17.59
291.867	17.57
292.081	15.87
292.295	14.79
292.509	14.07
292.722	13.66
292.936	13.55
293.15	13.52
293.364	11.29
293.577	12.5
293.791	12.07
294.005	12.96
294.218	13.88
294.432	15.35
294.645	15.94
294.859	14.91
295.073	14.54
295.286	14.7
295.5	14.24
295.713	14.81
295.927	14.55
296.14	13.99
296.354	13.22
296.568	12.14
296.781	11.84
296.994	12.07
297.208	12.31
297.421	13
297.635	13.33
297.848	13.11
298.062	12.71
298.275	12.5
298.489	12.97
298.702	13.24
298.915	13.31
299.129	13.16
299.342	12.54
299.555	12.61
299.769	11.9
299.982	12.04
300.195	12.93
300.409	12.96
300.622	13.16
300.835	13.61
301.048	13.61
301.262	14.68
301.475	14.95
301.688	15.37
301.901	15.97
302.115	16.19
302.328	15.67
302.541	14.55
302.754	15.95
302.967	16.27
303.18	16.68
303.393	17.01
303.607	17.3
303.82	17.64
304.033	17.6
304.246	17.58
304.459	17.14
304.672	18.24
304.885	19.25
305.098	19.69
305.311	19.36
305.524	19.13
305.737	19.84
305.95	19.33
306.163	18.49
306.376	19.27
306.589	19.14
306.802	20.31
307.015	19.86
307.228	20.59
307.44	20.04
307.653	19.84
307.866	19.37
308.079	19.52
308.292	18.93
308.505	20.37
308.718	20.69
308.93	20.63
309.143	19.91
309.356	19.97
309.569	18.89
309.781	18.54
309.994	19.05
310.207	19.21
310.42	19.01
310.632	19.64
310.845	19.25
311.058	18.96
311.27	18.21
311.483	17.68
311.696	17.11
311.908	16.97
312.121	17.08
312.333	17.31
312.546	17.06
312.759	16.17
312.971	15.92
313.184	15.85
313.396	15.04
313.609	15.24
313.821	16.97
314.034	16.83
314.246	16.84
314.459	16.47
314.671	15.29
314.884	15.04
315.096	16.32
315.309	16.12
315.521	17.3
315.733	17.9
315.946	17.51
316.158	15.97
316.371	15.9
316.583	15.84
316.795	15.22
317.008	15.31
317.22	16.1
317.432	15.71
317.644	16.45
317.857	15.5
318.069	15.61
318.281	16.47
318.494	17.65
318.706	18.48
318.918	19.74
319.13	20.1
319.342	20.48
319.555	19.82
319.767	20.6
319.979	20.06
320.191	21.04
320.403	20.85
320.615	22.46
320.827	21.83
321.039	21.93
321.252	23.56
321.464	25.23
321.676	25.39
321.888	25.6
322.1	23.55
322.312	22.71
322.524	21.57
322.736	20.28
322.948	18.65
323.16	18.78
323.372	18.62
323.584	16.66
323.796	15.72
324.007	15.18
324.219	15.63
324.431	17.29
324.643	18.3
324.855	18.85
325.067	19.23
325.279	20.13
325.491	20.18
325.702	20.25
325.914	21.03
326.126	21.3
326.338	20.57
326.55	20.75
326.761	20.43
326.973	19.54
327.185	19.23
327.396	20.37
327.608	20.01
327.82	19.93
328.032	20.52
328.243	20.19
328.455	20.63
328.666	22.27
328.878	21.37
329.09	22.46
329.301	22.95
329.513	22.93
329.725	22.87
329.936	23.92
330.148	24.06
330.359	24.32
330.571	24.44
330.782	22.96
330.994	22.98
331.205	24.07
331.417	23.53
331.628	24.58
331.84	26.59
332.051	26.97
332.262	26.53
332.474	26.79
332.685	27.13
332.897	26.96
333.108	27.92
333.319	27.08
333.531	26.79
333.742	26.66
333.953	25.96
334.165	24.81
334.376	25.18
334.587	25.55
334.799	24.73
335.01	23.57
335.221	23.75
335.432	23.23
335.644	23.56
335.855	23.68
336.066	23.42
336.277	24.78
336.488	24.89
336.7	24.17
336.911	23.99
337.122	25.09
337.333	25.38
337.544	25.31
337.755	26.74
337.966	26.48
338.177	26.65
338.388	26.79
338.599	26.11
338.811	25.83
339.022	25.42
339.233	24.66
339.444	23.8
339.655	22.8
339.866	22.97
340.076	22.43
340.287	22.6
340.498	22.55
340.709	22.39
340.92	22.33
341.131	22.65
341.342	23.8
341.553	23.75
341.764	24.58
341.975	25.33
342.185	25.56
342.396	24.9
342.607	25.41
342.818	25.1
343.029	25.06
343.239	25.4
343.45	24.1
343.661	23.61
343.872	23.83
344.082	22.77
344.293	23.14
344.504	22.55
344.714	22.82
344.925	22.77
345.136	22.43
345.346	21.09
345.557	20.78
345.768	20.75
345.978	21.19
346.189	21.65
346.399	20.97
346.61	20.23
346.821	20.61
347.031	20.93
347.242	20.15
347.452	20.39
347.663	22.72
347.873	22.18
348.084	22.95
348.294	21.09
348.504	20.27
348.715	21.46
348.925	21.72
349.136	19.95
349.346	19.74
349.557	20.58
349.767	21.44
349.977	21.15
350.188	20.82
350.398	20.98
350.608	21.81
350.819	22.52
351.029	21.86
351.239	22.96
351.449	24.02
351.66	23.99
351.87	24.1
352.08	23.24
352.29	22.69
352.501	23.38
352.711	23.33
352.921	23.69
353.131	23.16
353.341	23.97
353.552	22.03
353.762	21.25
353.972	20.47
354.182	19.79
354.392	20.1
354.602	19.97
354.812	19.61
355.022	18.8
355.232	19.19
355.442	19.23
355.652	19.12
355.862	20.29
356.072	21.18
356.282	20.67
356.492	21.29
356.702	20.92
356.912	20.67
357.122	21.59
357.332	22.21
357.542	20.95
357.752	20.95
357.962	20.91
358.171	20.22
358.381	20.62
358.591	21.34
358.801	20.7
359.011	20.37
359.221	19.92
359.43	19.57
359.64	19.16
359.85	19.71
360.06	19.35
360.269	19.45
360.479	19.95
360.689	19.58
360.899	19.88
361.108	20
361.318	19.63
361.528	19.86
361.737	19.51
361.947	19.38
362.156	19.52
362.366	19.31
362.576	19.05
362.785	18.77
362.995	18.85
363.204	18.15
363.414	18.05
363.623	18.55
363.833	18.67
364.042	18.97
364.252	19.36
364.461	19.24
364.671	19.78
364.88	19.92
365.09	20.79
365.299	20.64
365.509	21.76
365.718	21.34
365.927	21.63
366.137	21.42
366.346	20.96
366.555	20.51
366.765	20.47
366.974	20.81
367.183	20.68
367.393	19.55
367.602	19.16
367.811	19.01
368.021	19.31
368.23	18.98
368.439	19.05
368.648	18.25
368.857	18.37
369.067	18.45
369.276	18.24
369.485	17.9
369.694	18.81
369.903	19.17
370.112	18.75
370.321	18.56
370.531	18.31
370.74	18.39
370.949	19.05
371.158	19.08
371.367	18.53
371.576	17.56
371.785	17.56
371.994	17.15
372.203	16.73
372.412	16.25
372.621	16.72
372.83	16.69
373.039	16.63
373.248	16.48
373.457	16.89
373.666	16.37
373.874	16.89
374.083	16.94
374.292	16.42
374.501	16.63
374.71	16.74
374.919	16.39
375.128	16.57
375.336	16.54
375.545	16.89
375.754	16.37
375.963	17.07
376.171	16.69
376.38	16.5
376.589	15.98
376.798	15.22
377.006	15.13
377.215	15.08
377.424	15.15
377.632	14.63
377.841	14.36
378.05	14.23
378.258	14.07
378.467	13.95
378.675	13.94
378.884	14.51
379.093	14.77
379.301	15.01
379.51	15.24
379.718	14.96
379.927	15.28
380.135	15.56
380.344	14.99
380.552	14.97
380.761	15.14
380.969	14.68
381.177	14.43
381.386	15.42
381.594	14.87
381.803	14.42
382.011	14.23
382.219	14.08
382.428	13.4
382.636	13.93
382.845	13.49
383.053	13.47
383.261	13.69
383.469	13.56
383.678	12.62
383.886	13.16
384.094	13.41
384.302	14.03
384.511	14.3
384.719	14.58
384.927	14.56
385.135	14.98
385.343	14.76
385.552	15.26
385.76	15.25
385.968	15.23
386.176	14.58
386.384	14.4
386.592	13.42
386.8	13.19
387.008	13.06
387.216	13.06
387.424	13.04
387.633	13.25
387.841	13.08
388.049	13.52
388.257	13.7
388.465	13.8
388.672	13.95
388.88	14.56
389.088	14.08
389.296	13.89
389.504	13.3
389.712	13.13
389.92	13.14
390.128	12.98
390.336	12.75
390.544	12.44
390.751	12.43
390.959	12.08
391.167	12.12
391.375	12.48
391.583	12.31
391.79	12.3
391.998	12.54
392.206	12.43
392.414	12.26
392.621	12.2
392.829	12.18
393.037	12.09
393.244	12
393.452	11.51
393.66	11.09
393.867	11.31
394.075	11.3
394.283	10.79
394.49	10.22
394.698	10.27
394.905	9.92
395.113	9.97
395.32	10
395.528	9.94
395.735	9.95
395.943	10.05
396.15	9.83
396.358	10.17
396.565	10.19
396.773	10.34
396.98	10.33
397.188	10.19
397.395	10.41
397.602	10.16
397.81	10.19
398.017	10.49
398.225	10.95
398.432	10.89
398.639	10.4
398.847	10.46
399.054	10.79
399.261	10.71
399.468	11
399.676	10.83
399.883	11.05
400.09	11.28
400.297	11.13
400.505	10.88
400.712	10.99
400.919	11.57
401.126	11.5
401.333	11.63
401.54	11.44
401.748	11.19
401.955	10.97
402.162	10.85
402.369	10.53
402.576	10.27
402.783	9.95
402.99	9.91
403.197	9.64
403.404	9.51
403.611	9.26
403.818	9.42
404.025	9.57
404.232	9.86
404.439	9.89
404.646	9.85
404.853	9.89
405.06	9.62
405.267	9.68
405.474	9.9
405.681	10.2
405.887	10.15
406.094	10.39
406.301	10.35
406.508	10.08
406.715	10.14
406.922	10.19
407.128	10.51
407.335	10.69
407.542	10.52
407.749	10.22
407.955	10.12
408.162	10.02
408.369	9.7
408.575	9.89
408.782	9.99
408.989	9.81
409.195	9.77
409.402	9.68
409.609	9.59
409.815	9.55
410.022	9.65
410.228	9.75
410.435	10.11
410.642	10.34
410.848	10.11
411.055	10.24
411.261	10.34
411.468	10.52
411.674	10.33
411.881	10.82
412.087	11.2
412.294	11.17
412.5	10.86
412.706	10.58
412.913	10.12
413.119	10.21
413.326	9.89
413.532	9.78
413.738	9.59
413.945	9.19
414.151	9.24
414.357	8.87
414.564	9.05
414.77	9.38
414.976	9.21
415.182	9.7
415.389	9.33
415.595	9.48
415.801	9.36
416.007	9.64
416.214	9.76
416.42	9.4
416.626	9.31
416.832	9.23
417.038	9.11
417.244	9.16
417.45	8.7
417.657	8.86
417.863	8.46
418.069	8.54
418.275	8.23
418.481	8.24
418.687	8.28
418.893	8.22
419.099	8.17
419.305	8.02
419.511	8.05
419.717	8.05
419.923	7.94
420.129	8.1
420.335	8.18
420.541	8.27
420.746	8.24
420.952	8.32
421.158	8.38
421.364	8.28
421.57	8.31
421.776	8.22
421.982	8.35
422.187	8.4
422.393	8.32
422.599	8.25
422.805	8.09
423.01	8.19
423.216	8.19
423.422	8.17
423.628	8.18
423.833	8.11
424.039	8.15
424.245	8.13
424.45	8.09
424.656	8.14
424.862	8.22
425.067	8.14
425.273	8.06
425.478	7.99
425.684	7.95
425.889	8.01
426.095	8.05
426.301	8
426.506	7.95
426.712	8.05
426.917	8.18
427.123	7.93
427.328	8.21
427.533	8.33
427.739	8.46
427.944	8.67
428.15	8.44
428.355	8.49
428.561	8.76
428.766	8.78
428.971	8.71
429.177	8.35
429.382	8.47
429.587	8.38
429.793	8.29
429.998	8.08
430.203	7.86
430.408	8.21
430.614	8.23
430.819	7.89
431.024	7.76
431.229	7.88
431.434	8.18
431.64	8.24
431.845	8.39
432.05	8.47
432.255	8.53
432.46	8.71
432.665	8.38
432.87	8.27
433.076	8.28
433.281	8.44
433.486	8.27
433.691	8.21
433.896	8.3
434.101	8.23
434.306	8.46
434.511	8.66
434.716	8.77
434.921	9.18
435.126	9.38
435.331	9.51
435.535	9.48
435.74	9.63
435.945	9.67
436.15	9.51
436.355	9.62
436.56	9.46
436.765	9.29
436.97	8.98
437.174	8.74
437.379	8.75
437.584	8.9
437.789	8.78
437.993	8.62
438.198	8.71
438.403	8.76
438.608	8.62
438.812	8.48
439.017	8.4
439.222	8.54
439.426	8.45
439.631	8.27
439.836	8.25
440.04	8.35
440.245	8.44
440.45	8.42
440.654	8.45
440.859	8.43
441.063	8.51
441.268	8.54
441.472	8.42
441.677	8.42
441.881	8.33
442.086	8.2
442.29	8.04
442.495	8.04
442.699	8
442.904	7.86
443.108	7.96
443.312	7.94
443.517	7.95
443.721	7.91
443.925	7.85
444.13	7.96
444.334	7.91
444.538	8.07
444.743	8.09
444.947	8.01
445.151	7.94
445.356	7.77
445.56	7.83
445.764	7.69
445.968	7.71
446.173	7.59
446.377	7.68
446.581	7.6
446.785	7.48
446.989	7.48
447.193	7.59
447.398	7.68
447.602	7.81
447.806	7.78
448.01	7.95
448.214	8.11
448.418	8.19
448.622	8.07
448.826	8.25
449.03	8.42
449.234	8.51
449.438	8.42
449.642	8.43
449.846	8.5
450.05	8.57
450.254	8.4
450.458	8.32
450.662	8.58
450.866	8.61
451.069	8.57
451.273	8.6
451.477	8.73
451.681	8.92
451.885	8.74
452.089	8.7
452.292	8.38
452.496	8.45
452.7	8.46
452.904	8.38
453.107	8.51
453.311	8.4
453.515	8.38
453.719	8.01
453.922	7.96
454.126	8.2
454.33	7.8
454.533	7.91
454.737	8.01
454.94	7.96
455.144	8.11
455.348	8
455.551	8.17
455.755	8.07
455.958	8.16
456.162	7.96
456.365	7.87
456.569	7.92
456.772	7.84
456.976	7.87
457.179	7.95
457.383	7.84
457.586	7.79
457.79	7.8
457.993	7.85
458.196	7.85
458.4	7.93
458.603	7.83
458.807	7.89
459.01	8
459.213	7.85
459.417	7.89
459.62	7.75
459.823	7.86
460.026	7.78
460.23	7.69
460.433	7.76
460.636	7.87
460.839	7.85
461.042	7.88
461.246	7.86
461.449	7.95
461.652	7.84
461.855	7.93
462.058	7.81
462.261	7.94
462.464	7.99
462.668	7.82
462.871	7.78
463.074	7.91
463.277	7.87
463.48	7.9
463.683	7.85
463.886	7.72
464.089	7.82
464.292	7.81
464.495	7.7
464.698	7.72
464.901	7.88
465.104	7.79
465.306	7.75
465.509	8
465.712	8.09
465.915	8.17
466.118	8.17
466.321	8.13
466.524	8.1
466.726	8.32
466.929	8.36
467.132	8.33
467.335	8.45
467.538	8.49
467.74	8.28
467.943	8.19
468.146	8.18
468.348	8.39
468.551	8.42
468.754	8.62
468.956	8.63
469.159	8.41
469.362	8.48
469.564	8.4
469.767	8.51
469.969	8.78
470.172	8.83
470.375	8.82
470.577	8.91
470.78	8.84
470.982	8.65
471.185	8.64
471.387	8.96
471.59	8.85
471.792	8.87
471.995	8.88
472.197	8.8
472.399	8.88
472.602	8.88
472.804	8.94
473.007	8.86
473.209	9.04
473.411	8.92
473.614	8.99
473.816	8.97
474.018	8.78
474.22	8.78
474.423	8.77
474.625	8.71
474.827	8.85
475.03	8.75
475.232	8.85
475.434	8.77
475.636	8.77
475.838	8.73
476.04	8.92
476.243	9.07
476.445	8.91
476.647	8.98
476.849	9.08
477.051	8.9
477.253	8.91
477.455	8.87
477.657	8.8
477.859	8.64
478.061	8.44
478.263	8.21
478.465	8.09
478.667	8.11
478.869	7.86
479.071	7.79
479.273	7.91
479.475	7.85
479.677	7.86
479.879	7.9
480.081	8.03
480.283	8.04
480.485	8.15
480.686	8.31
480.888	8.47
481.09	8.47
481.292	8.29
481.494	8.2
481.695	8.18
481.897	8.11
482.099	7.96
482.301	7.89
482.502	7.8
482.704	7.7
482.906	7.54
483.107	7.43
483.309	7.34
483.511	7.3
483.712	7.25
483.914	7.22
484.115	7.18
484.317	7.17
484.519	7.13
484.72	7.14
484.922	7.18
485.123	7.19
485.325	7.22
485.526	7.33
485.728	7.4
485.929	7.46
486.131	7.44
486.332	7.52
486.534	7.61
486.735	7.67
486.936	7.72
487.138	7.78
487.339	7.81
487.541	7.76
487.742	7.79
487.943	7.78
488.144	7.74
488.346	7.74
488.547	7.71
488.748	7.72
488.95	7.72
489.151	7.77
489.352	7.76
489.553	7.77
489.755	7.89
489.956	7.85
490.157	7.89
490.358	7.94
490.559	7.93
490.76	7.95
490.961	7.87
491.163	7.99
491.364	7.89
491.565	7.78
491.766	7.79
491.967	7.78
492.168	7.78
492.369	7.8
492.57	7.79
492.771	8.02
492.972	8.08
493.173	8.17
493.374	8.22
493.575	8.37
493.776	8.51
493.976	8.69
494.177	8.73
494.378	8.88
494.579	9.11
494.78	9.23
494.981	9.11
495.182	9.17
495.382	9.29
495.583	9.22
495.784	9.2
495.985	9.35
496.185	9.19
496.386	9.13
496.587	9.05
496.788	8.89
496.988	8.68
497.189	8.72
497.39	8.81
497.59	8.91
497.791	8.84
497.992	8.87
498.192	8.75
498.393	8.87
498.593	9.03
498.794	9.06
498.994	9.23
499.195	9.36
499.395	9.34
499.596	9.39
499.796	9.2
499.997	9.51
500.197	9.53
500.398	9.57
500.598	9.41
500.799	9.49
500.999	9.46
501.199	9.32
501.4	9.54
501.6	9.49
501.801	9.44
502.001	9.64
502.201	9.43
502.402	9.44
502.602	9.44
502.802	9.64
503.002	9.58
503.203	9.84
503.403	10.01
503.603	9.99
503.803	10.15
504.003	10.3
504.204	10.16
504.404	10.35
504.604	10.46
504.804	10.76
505.004	10.71
505.204	10.74
505.404	10.55
505.604	10.47
505.804	10.45
506.005	10.4
506.205	10.1
506.405	10.11
506.605	10.02
506.805	9.97
507.005	9.72
507.204	9.75
507.404	9.59
507.604	9.57
507.804	9.74
508.004	9.76
508.204	9.7
508.404	9.96
508.604	10.02
508.804	10.14
509.003	10.1
509.203	10.06
509.403	10.08
509.603	10.16
509.803	10.3
510.002	10.19
510.202	10.27
510.402	10.51
510.602	10.39
510.801	10.39
511.001	10.29
511.201	10.38
511.4	10.48
511.6	10.53
511.8	10.68
511.999	10.84
512.199	10.78
512.398	10.85
512.598	10.76
512.797	11.08
512.997	11.24
513.197	11.38
513.396	11.61
513.596	11.79
513.795	11.84
513.994	11.81
514.194	11.89
514.393	11.98
514.593	12.03
514.792	12.15
514.992	12.13
515.191	12.06
515.39	12.09
515.59	11.92
515.789	11.9
515.988	11.93
516.188	11.99
516.387	11.82
516.586	12.05
516.786	12.03
516.985	12.01
517.184	11.99
517.383	12.01
517.582	11.98
517.782	12.01
517.981	12.07
518.18	12
518.379	12.09
518.578	12.05
518.777	12.07
518.976	12.18
519.176	12.2
519.375	12.17
519.574	12.27
519.773	12.35
519.972	12.51
520.171	12.65
520.37	12.91
520.569	13.06
520.768	13.32
520.967	13.41
521.166	13.52
521.365	13.66
521.564	13.79
521.762	13.95
521.961	14.09
522.16	14.23
522.359	14.24
522.558	14.23
522.757	14.14
522.956	14.12
523.154	14.07
523.353	14.25
523.552	14.2
523.751	14.31
523.949	14.39
524.148	14.41
524.347	14.31
524.546	14.4
524.744	14.49
524.943	14.48
525.142	14.44
525.34	14.47
525.539	14.22
525.737	14.35
525.936	14.25
526.135	14.17
526.333	14.04
526.532	13.95
526.73	13.76
526.929	13.67
527.127	13.67
527.326	13.66
527.524	13.65
527.723	13.71
527.921	13.6
528.12	13.55
528.318	13.46
528.516	13.49
528.715	13.47
528.913	13.47
529.112	13.52
529.31	13.59
529.508	13.64
529.707	13.65
529.905	13.76
530.103	13.86
530.301	13.99
530.5	14.15
530.698	14.28
530.896	14.54
531.094	14.79
531.293	14.89
531.491	15
531.689	15.09
531.887	15.28
532.085	15.25
532.283	15.18
532.481	15.17
532.68	15.24
532.878	15.27
533.076	15.26
533.274	15.19
533.472	15.16
533.67	15.17
533.868	15.22
534.066	15.2
534.264	15.19
534.462	15.34
534.66	15.57
534.858	15.71
535.056	15.94
535.253	15.99
535.451	16.12
535.649	16.36
535.847	16.5
536.045	16.66
536.243	16.83
536.441	17.07
536.638	17.15
536.836	17.18
537.034	17.26
537.232	17.28
537.43	17.44
537.627	17.65
537.825	17.89
538.023	18.06
538.22	18.29
538.418	18.53
538.616	18.7
538.813	18.88
539.011	19.03
539.209	19
539.406	19.12
539.604	19.39
539.801	19.4
539.999	19.4
540.196	19.29
540.394	19.23
540.591	19.05
540.789	19.07
540.986	19.02
541.184	19.02
541.381	19.1
541.579	19.14
541.776	19.1
541.974	19.16
542.171	19.14
542.368	19.24
542.566	19.28
542.763	19.37
542.96	19.45
543.158	19.66
543.355	19.86
543.552	20.08
543.75	20.3
543.947	20.54
544.144	20.91
544.341	21.21
544.539	21.66
544.736	22.13
544.933	22.56
545.13	22.89
545.327	23.22
545.524	23.54
545.722	23.64
545.919	23.69
546.116	23.77
546.313	23.69
546.51	23.81
546.707	23.56
546.904	23.43
547.101	23.28
547.298	23.2
547.495	23.17
547.692	23.07
547.889	23.02
548.086	22.96
548.283	23.13
548.48	23.15
548.677	23.09
548.874	23.34
549.07	23.56
549.267	23.83
549.464	23.93
549.661	24.08
549.858	24.14
550.055	24.53
550.251	24.79
550.448	24.62
550.645	24.63
550.842	24.9
551.038	24.83
551.235	24.68
551.432	24.65
551.628	24.76
551.825	24.87
552.022	24.93
552.218	24.59
552.415	24.52
552.612	24.62
552.808	24.59
553.005	24.42
553.201	24.35
553.398	24.5
553.594	24.63
553.791	24.85
553.987	24.74
554.184	24.76
554.38	25.04
554.577	25.29
554.773	25.42
554.97	25.65
555.166	25.85
555.362	26.11
555.559	26.24
555.755	26.52
555.952	26.44
556.148	26.74
556.344	26.84
556.541	26.98
556.737	26.99
556.933	27.24
557.129	27.12
557.326	27.28
557.522	27.39
557.718	27.45
557.914	27.34
558.11	27.28
558.307	26.96
558.503	27.08
558.699	27.29
558.895	27.38
559.091	27.38
559.287	27.87
559.483	27.91
559.679	27.95
559.876	27.94
560.072	27.85
560.268	27.96
560.464	28.16
560.66	28.26
560.856	28.19
561.052	28.11
561.247	28.01
561.443	27.85
561.639	27.95
561.835	28.13
562.031	28.3
562.227	28.43
562.423	28.71
562.619	28.76
562.815	28.87
563.01	29.11
563.206	29.46
563.402	29.42
563.598	29.58
563.793	29.55
563.989	29.56
564.185	29.61
564.381	29.56
564.576	29.41
564.772	29.35
564.968	29.27
565.163	28.98
565.359	28.86
565.555	29.08
565.75	29.03
565.946	29.03
566.141	29.09
566.337	28.92
566.532	29.16
566.728	29.24
566.923	29.23
567.119	29.42
567.314	29.59
567.51	29.56
567.705	29.5
567.901	29.63
568.096	29.7
568.292	29.66
568.487	29.91
568.682	29.88
568.878	29.96
569.073	30.1
569.268	29.88
569.464	29.96
569.659	29.98
569.854	29.98
570.05	29.65
570.245	29.69
570.44	29.74
570.635	29.56
570.831	29.35
571.026	29.38
571.221	29.78
571.416	29.87
571.611	29.78
571.806	29.78
572.002	29.87
572.197	30.24
572.392	30.31
572.587	30.43
572.782	30.56
572.977	30.69
573.172	30.64
573.367	30.43
573.562	30.53
573.757	30.5
573.952	30.53
574.147	30.65
574.342	30.59
574.537	30.6
574.732	30.41
574.927	30.58
575.121	30.57
575.316	30.77
575.511	30.73
575.706	30.97
575.901	31.11
576.096	31.36
576.29	31.28
576.485	31.54
576.68	31.67
576.875	31.86
577.069	31.95
577.264	32.31
577.459	32.5
577.654	32.85
577.848	32.88
578.043	33.08
578.238	33.16
578.432	33.56
578.627	33.62
578.821	33.88
579.016	34.38
579.21	34.51
579.405	34.51
579.6	34.58
579.794	34.67
579.989	34.74
580.183	35.04
580.378	35.04
580.572	35.35
580.766	35.65
580.961	35.53
581.155	35.34
581.35	35.59
581.544	35.75
581.738	35.85
581.933	35.79
582.127	35.95
582.321	36.05
582.516	36.19
582.71	35.86
582.904	35.82
583.099	35.9
583.293	36.11
583.487	36.19
583.681	36.59
583.875	36.6
584.07	36.88
584.264	36.87
584.458	36.75
584.652	36.79
584.846	37.07
585.04	37.01
585.234	36.98
585.428	36.9
585.623	36.84
585.817	36.88
586.011	36.65
586.205	36.55
586.399	36.56
586.593	36.81
586.787	36.92
586.981	36.69
587.174	36.62
587.368	36.76
587.562	36.8
587.756	36.86
587.95	36.41
588.144	36.7
588.338	36.66
588.532	36.53
588.725	36.22
588.919	36.14
589.113	36.17
589.307	36.28
589.501	36.06
589.694	35.97
589.888	35.57
590.082	35.63
590.275	35.24
590.469	35.45
590.663	35.64
590.856	35.55
591.05	35.65
591.244	35.47
591.437	35.76
591.631	35.76
591.824	35.72
592.018	35.94
592.212	35.99
592.405	36.69
592.599	36.46
592.792	36.2
592.986	36.37
593.179	36.26
593.372	36.41
593.566	35.97
593.759	36.24
593.953	36.34
594.146	36.31
594.339	36.46
594.533	36.12
594.726	36.06
594.92	36.19
595.113	36.25
595.306	36.22
595.499	36.09
595.693	36.12
595.886	35.93
596.079	35.8
596.272	35.87
596.466	35.49
596.659	35.35
596.852	35.53
597.045	35.59
597.238	35.56
597.431	35.64
597.624	35.88
597.818	36.01
598.011	36.18
598.204	36.21
598.397	36.23
598.59	36.58
598.783	36.64
598.976	36.73
599.169	36.81
599.362	37.17
599.555	37.15
599.748	37.2
599.941	37.02
600.134	37.24
600.326	37.72
600.519	38.05
600.712	38.33
600.905	38.55
601.098	38.56
601.291	38.45
601.483	38.17
601.676	38.17
601.869	38.26
602.062	38.42
602.255	38.13
602.447	37.75
602.64	37.24
602.833	36.85
603.025	36.72
603.218	36.46
603.411	36.39
603.603	36.34
603.796	36.32
603.989	35.76
604.181	35.55
604.374	35.45
604.566	35.5
604.759	35.63
604.951	35.67
605.144	35.63
605.336	35.9
605.529	36.05
605.721	36.11
605.914	36.39
606.106	36.88
606.299	37.38
606.491	37.74
606.683	37.99
606.876	38.19
607.068	38.38
607.26	38.72
607.453	38.66
607.645	38.51
607.837	38.66
608.03	38.67
608.222	38.79
608.414	38.63
608.606	38.97
608.799	39.35
608.991	39.93
609.183	40.55
609.375	41.26
609.567	41.97
609.759	43.27
609.952	44.07
610.144	45.21
610.336	46.38
610.528	47.48
610.72	48.4
610.912	49.41
611.104	50.41
611.296	51.16
611.488	51.97
611.68	52.68
611.872	52.52
612.064	53.02
612.256	52.73
612.448	52.49
612.64	52.07
612.832	51.71
613.023	51.07
613.215	50.53
613.407	50
613.599	49.12
613.791	48.63
613.983	47.93
614.174	47.15
614.366	46.59
614.558	45.89
614.75	45.74
614.941	45.46
615.133	44.9
615.325	44.35
615.516	44.18
615.708	43.74
615.9	43.28
616.091	43.49
616.283	43.31
616.475	43.12
616.666	42.91
616.858	42.91
617.049	42.44
617.241	42.35
617.432	41.7
617.624	41.3
617.815	41.06
618.007	41.19
618.198	40.92
618.39	40.59
618.581	40.83
618.773	40.82
618.964	40.52
619.155	40.39
619.347	40.34
619.538	40.7
619.729	40.79
619.921	40.95
620.112	41.12
620.303	41.2
620.494	41.17
620.686	40.93
620.877	40.92
621.068	40.8
621.259	40.78
621.451	40.91
621.642	40.62
621.833	40.64
622.024	40.71
622.215	39.81
622.406	39.74
622.597	39.76
622.788	39.82
622.98	39.8
623.171	39.88
623.362	40.09
623.553	40.17
623.744	40.47
623.935	40.39
624.126	40.5
624.317	41.05
624.508	40.98
624.698	40.78
624.889	40.59
625.08	40.92
625.271	40.98
625.462	40.96
625.653	40.85
625.844	40.38
626.034	40.27
626.225	40.09
626.416	39.59
626.607	39.55
626.798	39.83
626.988	39.85
627.179	39.63
627.37	39.28
627.56	39.23
627.751	39.38
627.942	39.74
628.132	39.64
628.323	39.48
628.514	39.97
628.704	40.08
628.895	40.21
629.085	40.39
629.276	40.35
629.466	41.12
629.657	41.34
629.847	41.23
630.038	41.59
630.228	42.1
630.419	42.64
630.609	42.73
630.8	42.66
630.99	42.71
631.181	42.95
631.371	43.24
631.561	42.73
631.752	42.72
631.942	42.77
632.132	42.2
632.323	41.84
632.513	41.46
632.703	41.23
632.893	41.49
633.084	41.2
633.274	40.94
633.464	40.49
633.654	40.71
633.844	40.58
634.034	40.5
634.225	40.52
634.415	40.34
634.605	40.34
634.795	40.4
634.985	40.4
635.175	40.74
635.365	40.7
635.555	41.08
635.745	40.67
635.935	40.55
636.125	40.5
636.315	40.81
636.505	41.02
636.695	41.06
636.885	40.98
637.075	41.06
637.265	41.01
637.455	41.26
637.644	41.16
637.834	41.61
638.024	41.68
638.214	41.89
638.404	41.69
638.593	41.68
638.783	41.97
638.973	42.4
639.163	42.19
639.352	41.83
639.542	41.45
639.732	41.58
639.921	41.6
640.111	41.99
640.301	42.13
640.49	42.77
640.68	43.03
640.87	43.01
641.059	42.6
641.249	42.77
641.438	42.9
641.628	43.4
641.817	43.48
642.007	43.4
642.196	43.32
642.386	43.05
642.575	42.85
642.764	42.41
642.954	42.51
643.143	42.62
643.333	42.55
643.522	42.66
643.711	42.18
643.901	41.79
644.09	41.74
644.279	41.89
644.469	41.99
644.658	41.8
644.847	41.99
645.036	41.73
645.226	41.83
645.415	42.13
645.604	42.05
645.793	42.26
645.982	42.29
646.171	42.24
646.361	41.9
646.55	42.23
646.739	42.14
646.928	42.54
647.117	42.45
647.306	42.7
647.495	42.12
647.684	41.78
647.873	41.98
648.062	41.98
648.251	42.04
648.44	42.08
648.629	41.38
648.818	41.58
649.007	41.22
649.196	41.25
649.384	40.76
649.573	40.87
649.762	41.04
649.951	40.69
650.14	40.92
650.328	40.99
650.517	40.77
650.706	41.16
650.895	40.87
651.083	41.35
651.272	41.79
651.461	41.78
651.65	41.63
651.838	41.7
652.027	41.83
652.216	41.51
652.404	41.06
652.593	41.23
652.781	41.11
652.97	41.27
653.158	40.43
653.347	39.85
653.535	40.1
653.724	40.45
653.912	40.85
654.101	40.44
654.289	40.72
654.478	41.15
654.666	41.06
654.855	41.13
655.043	41.19
655.231	41.51
655.42	41.76
655.608	41.94
655.796	41.74
655.985	41.34
656.173	41.43
656.361	41.51
656.55	41.4
656.738	41.48
656.926	41.55
657.114	40.99
657.302	40.86
657.491	40.64
657.679	40.2
657.867	40.33
658.055	40.27
658.243	40.36
658.431	40.12
658.619	39.85
658.807	39.9
658.996	39.52
659.184	39.86
659.372	39.86
659.56	39.72
659.748	39.59
659.936	39.7
660.124	39.92
660.311	40.08
660.499	40.47
660.687	40.65
660.875	40.68
661.063	41.17
661.251	41.14
661.439	41.43
661.627	41.93
661.814	42.15
662.002	41.84
662.19	42.42
662.378	42.55
662.565	42.52
662.753	42.85
662.941	43.3
663.129	42.97
663.316	43.47
663.504	43.26
663.692	43.14
663.879	43.22
664.067	43.27
664.254	42.53
664.442	42.67
664.63	42.72
664.817	42.97
665.005	42.33
665.192	42.98
665.38	43.03
665.567	43.14
665.755	43.71
665.942	43.75
666.13	44.25
666.317	44.09
666.504	43.88
666.692	43.77
666.879	43.43
667.067	43.74
667.254	43.51
667.441	42.88
667.629	42.84
667.816	42.43
668.003	42.96
668.19	42.83
668.378	43.25
668.565	43.01
668.752	42.7
668.939	42.36
669.127	42.17
669.314	42.14
669.501	42.41
669.688	42.8
669.875	42.34
670.062	42.08
670.249	41.82
670.436	42.08
670.623	42.07
670.81	42.45
670.997	43.04
671.184	43.32
671.371	43.38
671.558	43.46
671.745	43.12
671.932	43.08
672.119	42.79
672.306	43.18
672.493	42.75
672.68	43.03
672.867	43.65
673.054	43.45
673.24	42.91
673.427	42.66
673.614	42.13
673.801	42.03
673.988	42.38
674.174	42.61
674.361	41.91
674.548	41.66
674.734	41.48
674.921	40.4
675.108	40.59
675.294	41.03
675.481	40.66
675.668	40.89
675.854	41.46
676.041	41.67
676.227	41.62
676.414	42.2
676.601	42.55
676.787	42.29
676.974	42.25
677.16	42.17
677.347	42.08
677.533	42.19
677.719	42.26
677.906	42.01
678.092	42.04
678.279	41.71
678.465	41.78
678.651	41.8
678.838	41.79
679.024	42.02
679.21	41.39
679.397	41.71
679.583	42.02
679.769	41.5
679.955	41.11
680.142	40.97
680.328	41.29
680.514	40.76
680.7	40.41
680.886	40.77
681.073	40.45
681.259	40.97
681.445	40.72
681.631	40.6
681.817	41.3
682.003	41.6
682.189	41.65
682.375	41.78
682.561	42.26
682.747	42.11
682.933	41.84
683.119	41.81
683.305	41.69
683.491	41.95
683.677	42.01
683.863	41.73
684.049	41.69
684.235	41.84
684.42	41.67
684.606	41.55
684.792	42.2
684.978	42.91
685.164	43.27
685.349	43.55
685.535	43.32
685.721	43.23
685.907	43.06
686.092	42.7
686.278	42.57
686.464	42.82
686.649	42.68
686.835	42.35
687.021	42.02
687.206	42.15
687.392	41.86
687.577	42.06
687.763	42.15
687.948	42.8
688.134	43.11
688.319	43.08
688.505	42.8
688.69	42.87
688.876	43.05
689.061	42.77
689.247	43.1
689.432	42.94
689.618	42.52
689.803	42.11
689.988	41.97
690.174	42.07
690.359	41.83
690.544	41.92
690.73	41.45
690.915	40.88
691.1	40.38
691.285	39.97
691.471	40.04
691.656	40.07
691.841	40.64
692.026	40.57
692.211	40.66
692.396	41.12
692.582	41.86
692.767	42.51
692.952	43.51
693.137	44.3
693.322	44.42
693.507	44.24
693.692	43.99
693.877	43.68
694.062	43.73
694.247	44.22
694.432	43.89
694.617	43.18
694.802	43.38
694.987	43.49
695.172	43.29
695.357	43.01
695.541	43.66
695.726	44.47
695.911	44.92
696.096	44.79
696.281	44.14
696.466	44.24
696.65	44.58
696.835	44.34
697.02	43.37
697.204	43.51
697.389	43.26
697.574	42.92
697.759	42.5
697.943	42.1
698.128	42.05
698.312	42.03
698.497	41.45
698.682	40.98
698.866	40.96
699.051	41.18
699.235	41.19
699.42	41.59
699.604	41.58
699.789	41.67
699.973	41.58
700.158	41.74
700.342	41.67
700.527	42.05
700.711	42.17
700.895	42.95
701.08	43.02
701.264	43.02
701.448	42.76
701.633	43.2
701.817	43.33
702.001	43.71
702.186	43.47
702.37	43.76
702.554	44.77
702.738	45.24
702.923	44.42
703.107	44.87
703.291	45.1
703.475	45.5
703.659	45.32
703.843	44.99
704.027	45.07
704.212	44.78
704.396	45.49
704.58	45.46
704.764	44.77
704.948	45
705.132	45.49
705.316	45.6
705.5	45.99
705.684	45.75
705.868	47.18
706.052	47.94
706.235	49.15
706.419	48.57
706.603	48.22
706.787	49.09
706.971	49.2
707.155	48.17
707.339	48.13
707.522	48.09
707.706	47.8
707.89	47.12
708.074	46.98
708.257	46.51
708.441	46.86
708.625	46.59
708.808	46.13
708.992	45.63
709.176	46.28
709.359	46.09
709.543	45.7
709.727	46.94
709.91	47.13
710.094	46.95
710.277	47.43
710.461	47.29
710.644	47.98
710.828	48.8
711.011	48.77
711.195	49.12
711.378	49.03
711.562	48.78
711.745	47.39
711.928	46.92
712.112	46.72
712.295	46.17
712.478	46.45
712.662	46.39
712.845	45.84
713.028	45.37
713.212	45.46
713.395	45.2
713.578	45.79
713.761	46.84
713.945	46.79
714.128	47.42
714.311	47.1
714.494	46.15
714.677	45.63
714.86	45.36
715.043	46.29
715.227	45.42
715.41	45.89
715.593	45.57
715.776	45.44
715.959	44.95
716.142	44.33
716.325	44.11
716.508	44.74
716.691	44.08
716.874	43.91
717.057	43.24
717.239	43.39
717.422	42.88
717.605	42.59
717.788	41.48
717.971	42.91
718.154	42.82
718.337	43.45
718.519	42.77
718.702	44.06
718.885	43.49
719.068	43.86
719.25	44.12
719.433	44.54
719.616	45.11
719.798	46.4
719.981	45.77
720.164	45.14
720.346	45.64
720.529	46.54
720.712	45.55
720.894	47.31
721.077	46.48
721.259	45.84
721.442	46.56
721.624	46.17
721.807	46.49
721.989	45.75
722.172	46.34
722.354	46.2
722.537	45.82
722.719	45.36
722.901	45.21
723.084	45.78
723.266	46.11
723.448	46.55
723.631	46.67
723.813	46.22
723.995	46.84
724.178	47.66
724.36	47.22
724.542	46.73
724.724	48.8
724.907	48.79
725.089	49.66
725.271	49.62
725.453	48.52
725.635	48.83
725.817	48.81
725.999	48.5
726.181	48.35
726.364	48.34
726.546	49.18
726.728	47.36
726.91	46.49
727.092	46.49
727.274	47.46
727.456	47.81
727.638	47.21
727.819	48.16
728.001	48.4
728.183	47.98
728.365	48.37
728.547	48.31
728.729	49.15
728.911	50.03
729.093	50.2
729.274	49.12
729.456	48.76
729.638	49.72
729.82	48.87
730.001	47.98
730.183	47.84
730.365	47.75
730.546	47.78
730.728	47.2
730.91	46.77
731.091	45.56
731.273	45.84
731.455	45.66
731.636	45.31
731.818	45.74
731.999	46.14
732.181	45.56
732.362	44.73
732.544	45.43
732.725	45.15
732.907	45.53
733.088	46.66
733.27	47.08
733.451	46.84
733.633	46.93
733.814	46.83
733.995	46.47
734.177	47.7
734.358	48.3
734.539	47.01
734.721	47.85
734.902	47.6
735.083	47.43
735.264	46.73
735.446	47.73
735.627	47.13
735.808	46.16
735.989	47.84
736.17	47.27
736.351	48.37
736.533	49.53
736.714	49.25
736.895	48.79
737.076	48.14
737.257	48.68
737.438	48.41
737.619	50.05
737.8	50.75
737.981	50.65
738.162	51.22
738.343	50.35
738.524	50.6
738.705	50.76
738.886	51.13
739.067	51.83
739.247	51.6
739.428	50.99
739.609	49.69
739.79	50.3
739.971	49.55
740.151	49.62
740.332	49.41
740.513	48.71
740.694	49.7
740.874	49.63
741.055	49.54
741.236	49.93
741.417	50.67
741.597	51.25
741.778	51.32
741.958	51.73
742.139	50.53
742.32	50.53
742.5	50.81
742.681	49.51
742.861	49.98
743.042	50.68
743.222	50.41
743.403	50.98
743.583	51.69
743.764	51.34
743.944	51.38
744.124	52.96
744.305	53.17
744.485	52.33
744.666	53.02
744.846	52.73
745.026	52.28
745.207	52.58
745.387	52.4
745.567	51.53
745.747	50.46
745.928	49.54
746.108	48.8
746.288	48.59
746.468	50.34
746.648	50.64
746.829	51.19
747.009	51.5
747.189	52.1
747.369	52.1
747.549	52.01
747.729	52.68
747.909	53.53
748.089	53.84
748.269	53.48
748.449	52.39
748.629	52.38
748.809	51.32
748.989	51.36
749.169	50.94
749.349	50.68
749.529	50.77
749.709	50.51
749.889	50.67
750.068	50.59
750.248	51.99
750.428	51.97
750.608	51.61
750.788	52.56
750.967	51.51
751.147	50.92
751.327	51.23
751.507	51.78
751.686	52.32
751.866	52.63
752.046	53.08
752.225	52.28
752.405	52
752.585	52.06
752.764	52.87
752.944	53.41
753.123	54.67
753.303	54.1
753.482	53.84
753.662	53.46
753.841	52.91
754.021	52.96
754.2	53.46
754.38	54.65
754.559	54.92
754.739	53.9
754.918	54.82
755.097	53.45
755.277	53.05
755.456	51.68
755.635	51.91
755.815	52.13
755.994	52.07
756.173	51.1
756.352	49.99
756.532	49.45
756.711	47.67
756.89	46.29
757.069	46.79
757.248	46.91
757.427	46.89
757.607	47.27
757.786	46.48
757.965	45.23
758.144	44.31
758.323	44.97
758.502	45.47
758.681	46.83
758.86	47.35
759.039	46.56
759.218	46.63
759.397	47.15
759.576	45.83
759.755	45.07
759.934	44.28
760.113	45.27
760.291	45.46
760.47	45.76
760.649	45.35
760.828	44.38
761.007	44.29
761.186	44.72
761.364	44.1
761.543	45.25
761.722	46.48
761.901	46.52
762.079	46.5
762.258	45.6
762.437	44.12
762.615	44.37
762.794	44.62
762.972	45.23
763.151	44.3
763.33	44.39
763.508	44.24
763.687	44.3
763.865	45.31
764.044	45.26
764.222	44.53
764.401	44.97
764.579	44.89
764.758	44.7
764.936	44.92
765.114	45.32
765.293	46.41
765.471	45.79
765.65	45.31
765.828	45.01
766.006	45.05
766.184	46.94
766.363	46.67
766.541	46.66
766.719	47.12
766.898	47.17
767.076	48.08
767.254	47.72
767.432	48.43
767.61	49.41
767.788	49.57
767.967	50.11
768.145	49.4
768.323	50.3
768.501	50.23
768.679	51.48
768.857	51.69
769.035	51.91
769.213	51.96
769.391	52.23
769.569	50.71
769.747	52.57
769.925	51.56
770.103	52.17
770.281	50.47
770.459	51.02
770.636	49.46
770.814	48.5
770.992	48.4
771.17	49.33
771.348	49.16
771.525	51.95
771.703	51.08
771.881	51.7
772.059	51.35
772.236	52.21
772.414	52.82
772.592	54.3
772.769	54.87
772.947	54.33
773.125	55.63
773.302	58.22
773.48	58.14
773.657	57.88
773.835	57.95
774.013	60.1
774.19	62.92
774.368	60.82
774.545	59.34
774.723	60.62
774.9	61.82
775.077	60.03
775.255	57.8
775.432	56.29
775.61	53.89
775.787	53.96
775.964	52.51
776.142	50.82
776.319	52.17
776.496	54.32
776.674	54.24
776.851	54.62
777.028	54.86
777.205	54.82
777.382	55.53
777.56	57.45
777.737	62.25
777.914	61.73
778.091	61.21
778.268	62.04
778.445	62.3
778.622	62.37
778.8	61.14
778.977	60.82
779.154	64.79
779.331	64.02
779.508	62.52
779.685	58.56
779.862	58.3
780.038	57.09
780.215	57.5
780.392	56.77
780.569	56.62
780.746	55.12
780.923	54.45
781.1	50.04
781.277	49.13
781.453	49.42
781.63	47.96
781.807	48.6
781.984	50.41
782.16	51.04
782.337	52.14
782.514	50.93
782.691	53.23
782.867	52.82
783.044	53.98
783.221	54.66
783.397	55.78
783.574	57.14
783.75	55
783.927	56.54
784.103	56.48
784.28	54.56
784.456	55.78
784.633	55.42
784.809	56.91
784.986	53.64
785.162	54.55
785.339	53.75
785.515	54.58
785.692	57.78
785.868	58.89
786.044	58.44
786.221	58.55
786.397	59.34
786.573	57.99
786.749	58.31
786.926	59.97
787.102	58.72
787.278	60.61
787.454	60.41
787.631	59.42
787.807	55.19
787.983	54.89
788.159	55.1
788.335	53.9
788.511	54.9
788.687	52.81
788.863	53.63
789.039	55.91
789.216	53.96
789.392	51.8
789.568	50.1
789.744	52.61
789.919	52.82
790.095	51.37
790.271	50.48
790.447	51.6
790.623	54.01
790.799	54.32
790.975	51.51
791.151	53.47
791.327	53.9
791.502	55.38
791.678	53.85
791.854	52.63
792.03	51.75
792.205	53.04
792.381	51.01
792.557	48.01
792.733	47.91
792.908	49.62
793.084	49.01
793.259	48.22
793.435	46.77
793.611	48.52
793.786	49.86
793.962	50.43
794.137	49.4
794.313	49.42
794.488	50.58
794.664	50.59
794.839	49.7
795.015	48.98
795.19	48.83
795.366	51.08
795.541	50.72
795.716	48.02
795.892	48.36
796.067	50.19
796.242	50.71
796.418	51.17
796.593	50.63
796.768	51.42
796.944	52.85
797.119	53.41
797.294	52.21
797.469	52.43
797.644	52.13
797.82	53.05
797.995	52.3
798.17	52.33
798.345	52.79
798.52	54.66
798.695	54.78
798.87	51.39
799.045	52.51
799.22	53.5
799.395	55.87
799.57	59.47
799.745	61.44
799.92	61.32
800.095	61.49
800.27	58.94
800.445	53.97
800.62	53.58
800.795	55.68
800.97	56.31
801.145	55.32
801.319	51.33
801.494	49.98
801.669	49.39
801.844	49.18
802.018	49.63
802.193	51.02
802.368	54.41
802.543	53.18
802.717	53.86
802.892	53.3
803.067	52.07
803.241	52.8
803.416	52.68
803.59	53.89
803.765	53.54
803.94	54.17
804.114	52.56
804.289	53.74
804.463	54.63
804.638	53.41
804.812	52.64
804.986	51.72
805.161	52.55
805.335	54.3
805.51	51.62
805.684	49.9
805.858	49.59
806.033	49.98
806.207	49.25
806.381	50.17
806.556	49.87
806.73	49.9
806.904	51.69
807.078	52.49
807.253	51.87
807.427	52.23
807.601	54.61
807.775	56.63
807.949	60.34
808.123	59.81
808.298	60.16
808.472	60.44
808.646	59.97
808.82	60.8
808.994	58.4
809.168	54.04
809.342	56.36
809.516	56.38
809.69	53.56
809.864	48.35
810.038	48.55
810.212	46.88
810.385	46.36
810.559	48.23
810.733	45.59
810.907	43.65
811.081	47.39
811.255	46.67
811.428	44.01
811.602	40.35
811.776	47.67
811.95	47.61
812.123	49.84
812.297	49.88
812.471	51.94
812.644	54.87
812.818	58.8
812.992	59.83
813.165	58.78
813.339	58.55
813.512	62.72
813.686	57.84
813.86	58.93
814.033	54.83
814.207	56.11
814.38	54.54
814.554	55.95
814.727	56.23
814.9	55.88
815.074	55.17
815.247	55.91
815.421	52.37
815.594	54.88
815.767	56.37
815.941	57.77
816.114	57.13
816.287	54.33
816.46	51.47
816.634	50.4
816.807	56.25
816.98	56.88
817.153	57.72
817.327	60.31
817.5	59.59
817.673	61.2
817.846	61.13
818.019	63.39
818.192	65.85
818.365	65.41
818.538	67.01
818.711	59.21
818.884	55.99
819.057	56.54
819.23	55.4
819.403	55.54
819.576	53.08
819.749	54.75
819.922	51.39
820.095	51.8
820.268	52.36
820.441	52.02
820.614	52.68
820.786	53.7
820.959	52.54
821.132	50.26
821.305	46.26
821.477	44.64
821.65	42.77
821.823	43.24
821.996	42.87
822.168	42.76
822.341	41.07
822.514	40.54
822.686	39.78
822.859	39.41
823.031	39.37
823.204	39.6
823.376	39.64
823.549	39.59
823.722	39.63
823.894	39.25
824.067	38.4
824.239	38.51
824.411	38.39
824.584	38.42
824.756	38.77
824.929	38.96
825.101	39.06
825.273	38.8
825.446	38.94
825.618	39
825.79	38.77
825.963	40.01
826.135	40.26
826.307	41.32
826.479	41.73
826.652	42.47
826.824	42.83
826.996	43.83
827.168	44.73
827.34	45.35
827.512	46.38
827.684	46.28
827.856	45.36
828.029	45.78
828.201	43.76
828.373	44.12
828.545	42.8
828.717	43.89
828.889	44.35
829.061	44.65
829.232	45.12
829.404	43.37
829.576	44.74
829.748	46.13
829.92	48.64
830.092	51.53
830.264	50.92
830.436	50.54
830.607	51.09
830.779	50.98
830.951	49.42
831.123	49.09
831.294	50.76
831.466	50.7
831.638	49.83
831.809	48.29
831.981	48.02
832.153	51.09
832.324	51.52
832.496	49.88
832.667	53.89
832.839	59.29
833.011	56.91
833.182	56.12
833.354	53.1
833.525	53.78
833.697	50.27
833.868	47.85
834.039	47.51
834.211	49.54
834.382	48.96
834.554	44.71
834.725	43.13
834.896	43.26
835.068	44.31
835.239	45.83
835.41	45.69
835.581	47.9
835.753	49.15
835.924	47.96
836.095	47.52
836.266	48.25
836.438	47.72
836.609	47.41
836.78	48.74
836.951	49.9
837.122	48.71
837.293	48.08
837.464	47.27
837.635	49.08
837.806	50.16
837.977	49.73
838.148	50.06
838.319	53.27
838.49	55.97
838.661	57.87
838.832	58.32
839.003	59.92
839.174	62.04
839.345	65.02
839.516	64.76
839.687	68.11
839.857	67.5
840.028	70.05
840.199	69.87
840.37	68.59
840.54	71.64
840.711	71.45
840.882	72.43
841.053	72.19
841.223	75.85
841.394	79.49
841.564	79.46
841.735	86.52
841.906	84.52
842.076	85.19
842.247	81.98
842.417	73.3
842.588	69.43
842.758	74.18
842.929	76.2
843.099	71.63
843.27	68.9
843.44	71.2
843.611	70.51
843.781	78.22
843.951	80.61
844.122	81.78
844.292	77.71
844.462	77.62
844.633	73.76
844.803	69.14
844.973	68.72
845.144	68.41
845.314	62.03
845.484	62.66
845.654	56.69
845.824	57.95
845.995	56.22
846.165	65.58
846.335	68.64
846.505	68.63
846.675	73.26
846.845	65.49
847.015	70.6
847.185	70.71
847.355	67.52
847.525	67.32
847.695	72.85
847.865	72.51
848.035	73.11
848.205	65.47
848.375	73.48
848.545	78.09
848.715	88.6
848.884	87.2
849.054	86.16
849.224	82.89
849.394	88.53
849.564	84.47
849.733	94.62
849.903	90.92
850.073	92.58
850.243	87.13
850.412	84.87
850.582	83.01
850.752	83.15
850.921	84.13
851.091	91.12
851.26	98.96
851.43	85.92
851.599	84.15
851.769	82.47
851.939	90.49
852.108	84.71
852.278	94.16
852.447	99.11
852.616	96.96
852.786	91.74
852.955	88.16
853.125	71.44
853.294	77.91
853.463	71.08
853.633	67.75
853.802	71.3
853.971	84.33
854.141	77.26
854.31	76.15
854.479	60.88
854.648	81.73
854.818	71.72
854.987	77.52
855.156	75.09
855.325	80.17
855.494	100.95
855.663	87.99
855.832	94.93
856.001	93.07
856.171	90.32
856.34	92.78
856.509	109.11
856.678	130.54
856.847	129.68
857.016	126.25
857.185	113.88
857.353	113.41
857.522	117.13
857.691	97
857.86	86.06
858.029	89.41
858.198	100.11
858.367	91.73
858.535	87.47
858.704	85.22
858.873	87.42
859.042	92.76
859.21	84.35
859.379	85.03
859.548	96.8
859.717	114.53
859.885	110.21
860.054	92.26
860.222	73.49
860.391	62.82
860.56	65.65
860.728	68.23
860.897	73.81
861.065	73.61
861.234	78.79
861.402	71.2
861.571	63.61
861.739	66.78
861.908	66.36
862.076	83.09
862.244	89.45
862.413	84.95
862.581	87.42
862.749	83.65
862.918	78.3
863.086	72.29
863.254	75.25
863.423	80.58
863.591	65.35
863.759	77.4
863.927	63.11
864.096	59.32
864.264	64.96
864.432	65.11
864.6	72.29
864.768	80.19
864.936	85.61
865.104	85.46
865.272	81.57
865.44	96.69
865.608	96.27
865.776	98.33
865.944	115.89
866.112	120.1
866.28	121.43
866.448	110.34
866.616	125.03
866.784	108.98
866.952	106.63
867.12	120.3
867.288	119.8
867.455	133.2
867.623	141.26
867.791	124.12
867.959	126.23
868.127	142.37
868.294	129.75
868.462	97.17
868.63	116.89
868.797	126
868.965	121.63
869.133	102.31
869.3	97.38
869.468	103.12
869.636	89.32
869.803	94.61
869.971	76.3
870.138	77.02
870.306	84.1
870.473	82.61
870.641	79.39
870.808	77.44
870.975	81.9
871.143	76.06
871.31	65.86
871.478	64.95
871.645	51.86
871.812	66.76
871.98	69.51
872.147	65.72
872.314	55.26
872.482	52.99
872.649	55.13
872.816	58.83
872.983	75.53
873.15	84.08
873.318	92.64
873.485	109.92
873.652	97.82
873.819	102.31
873.986	115.66
874.153	135.25
874.32	153.61
874.487	157.12
874.654	177.09
874.821	153.53
874.988	150.8
875.155	158.59
875.322	127.85
875.489	134.2
875.656	114.9
875.823	91.22
875.99	73.05
876.157	59.84
876.324	60.17
876.49	55.04
876.657	60.27
876.824	60.43
876.991	58.07
877.157	58.17
877.324	70.73
877.491	78.15
877.658	78.23
877.824	74.51
877.991	77.47
878.157	80.64
878.324	86.37
878.491	85.2
878.657	85.13
878.824	89.04
878.99	89.07
879.157	90.42
879.323	83.02
879.49	87.21
879.656	93.24
879.823	99.26
879.989	90.64
880.156	96.03
880.322	96.86
880.488	95.7
880.655	87.14
880.821	87.22
880.987	83.76
881.154	87.71
881.32	80.28
881.486	80.96
881.652	79.23
881.819	78.53
881.985	72.07
882.151	67.57
882.317	61.2
882.483	60.46
882.649	58.09
882.816	53.98
882.982	53.06
883.148	50.86
883.314	46.98
883.48	43.9
883.646	41.94
883.812	41.51
883.978	41.64
884.144	43.5
884.31	44.17
884.476	43.99
884.642	44.66
884.807	43.58
884.973	44.33
885.139	45.75
885.305	47.25
885.471	48.43
885.637	49.61
885.802	48.17
885.968	49.43
886.134	49.21
886.3	51.34
886.465	52.45
886.631	54.64
886.797	57.75
886.962	57.32
887.128	59.96
887.293	63.8
887.459	61.06
887.625	63.5
887.79	61.44
887.956	59.5
888.121	54.98
888.287	54.35
888.452	51.22
888.618	48.28
888.783	52.56
