Data from CB_077_Reflection_1.txt Node
Date: Sat Nov 14 11:37:08 EST 2015
User: robert
Spectrometer: USB4E03001
Autoset integration time: false
Trigger mode: 4
Integration Time (sec): 1.000000E-1
Scans to average: 15
Electric dark correction enabled: true
Nonlinearity correction enabled: false
Boxcar width: 5
Stray light correction enabled: false
XAxis mode: Wavelengths
Stop averaging: false
Number of Pixels in Spectrum: 3648
>>>>>Begin Spectral Data<<<<<
177.566	-339.74
177.785	-527.44
178.005	-1811.11
178.225	-299.08
178.445	-257.98
178.665	-411.79
178.885	-62.65
179.105	-195.53
179.324	-324.65
179.544	-650.03
179.764	-184.91
179.984	-272.15
180.204	-278.64
180.423	-988.46
180.643	-574.67
180.863	-828.44
181.083	-3495.84
181.302	-14346.83
181.522	1682.06
181.742	1756.95
181.961	2071.46
182.181	318
182.401	230.25
182.621	451.01
182.84	1739.04
183.06	-5039.32
183.279	-676.45
183.499	-441.69
183.719	-639.54
183.938	-388.21
184.158	-313.1
184.377	-279.3
184.597	-158.59
184.816	-94.2
185.036	-150.18
185.256	-222.07
185.475	-525.19
185.695	-347.72
185.914	-362.25
186.134	-312.4
186.353	-404.61
186.572	-343.83
186.792	-1069.71
187.011	6082.35
187.231	-3940.26
187.45	-739.15
187.67	-2613.95
187.889	936.46
188.108	516.16
188.328	421.25
188.547	302.25
188.766	259.22
188.986	227.18
189.205	200.73
189.424	230.96
189.644	216.02
189.863	281.34
190.082	332.68
190.302	519.76
190.521	402.04
190.74	387.08
190.959	1663.89
191.178	1437.94
191.398	1015.04
191.617	3059.85
191.836	11361.29
192.055	2142.79
192.274	620.17
192.494	840.72
192.713	32605.36
192.932	-3270.95
193.151	604025
193.37	850.65
193.589	-19954.87
193.808	-1829.04
194.027	-2944.69
194.246	5767.08
194.465	-4123.24
194.685	913.81
194.904	1064.18
195.123	675.39
195.342	558.95
195.561	491.65
195.78	1540
195.999	3732.63
196.218	1733.6
196.436	1215.42
196.655	633.15
196.874	350.77
197.093	696.97
197.312	513.61
197.531	883.84
197.75	1169.04
197.969	3097.46
198.188	532.16
198.407	340.44
198.625	390.44
198.844	488.3
199.063	489.71
199.282	1025.72
199.501	-5350
199.719	-2753.88
199.938	1296.51
200.157	827.27
200.376	-4956.89
200.594	-384.6
200.813	-1123.66
201.032	-2920.24
201.251	-1327.45
201.469	-1920.35
201.688	-3185.83
201.907	5428.5
202.125	1678.45
202.344	6201.82
202.563	31455.07
202.781	1762.61
203	526.1
203.218	405.18
203.437	671.02
203.656	531.91
203.874	1323.49
204.093	1265.03
204.311	778.68
204.53	2328.48
204.748	616.78
204.967	900.43
205.185	701.12
205.404	857.9
205.622	1170.16
205.841	558.77
206.059	440.39
206.278	358.03
206.496	540.85
206.715	803.05
206.933	586.24
207.151	687.43
207.37	475.52
207.588	552.4
207.806	596.54
208.025	779.55
208.243	1241.64
208.461	-92568.18
208.68	2528.89
208.898	1068.1
209.116	641.19
209.335	479.03
209.553	449.59
209.771	346.45
209.989	335.75
210.208	285.12
210.426	248.96
210.644	216.63
210.862	192.95
211.081	190.52
211.299	160.68
211.517	203.9
211.735	167.22
211.953	156.24
212.171	198.36
212.39	192.65
212.608	213.38
212.826	201.22
213.044	203.11
213.262	203.53
213.48	208.88
213.698	331.58
213.916	184.35
214.134	351.43
214.352	593.95
214.57	322.73
214.788	270.55
215.006	216.53
215.224	436.29
215.442	1233.43
215.66	2673.81
215.878	869.18
216.096	275.69
216.314	786.07
216.532	3142.89
216.75	-1028.22
216.968	-1372.91
217.185	-12350.44
217.403	3046.18
217.621	-191466.67
217.839	-1181.24
218.057	-40287.5
218.275	-1389.71
218.492	-323.99
218.71	-5630.56
218.928	3255.7
219.146	1796.01
219.363	1011.87
219.581	1160.11
219.799	-6433.33
220.017	645.95
220.234	780.06
220.452	778.82
220.67	1164.76
220.887	416.04
221.105	689.4
221.323	385.04
221.54	259.61
221.758	248.95
221.976	230
222.193	155.9
222.411	144.05
222.629	145.58
222.846	128.14
223.064	119.68
223.281	139.44
223.499	133.28
223.716	134.1
223.934	130.52
224.151	134.13
224.369	136.32
224.586	150.71
224.804	183.85
225.021	169.86
225.239	171.17
225.456	153.73
225.674	131.44
225.891	135.97
226.108	120.25
226.326	114.8
226.543	112.44
226.76	90.69
226.978	81.03
227.195	86.27
227.413	75.66
227.63	75.48
227.847	76.91
228.064	72.57
228.282	64.26
228.499	62.14
228.716	56.21
228.934	52.5
229.151	53.63
229.368	50.35
229.585	44.05
229.802	43.77
230.02	43.47
230.237	42.43
230.454	45.01
230.671	47.62
230.888	46.82
231.105	52.63
231.323	53.88
231.54	55.65
231.757	58.21
231.974	63.18
232.191	66.53
232.408	57.84
232.625	62.14
232.842	57.19
233.059	59.57
233.276	57.71
233.493	53.48
233.71	50.27
233.927	47.99
234.144	48.04
234.361	43.37
234.578	42.34
234.795	46.2
235.012	40.73
235.229	42.09
235.446	35.38
235.663	40.7
235.879	44.17
236.096	50.44
236.313	51.95
236.53	48.27
236.747	58.32
236.964	57.56
237.181	58.92
237.397	57.83
237.614	67.18
237.831	78.9
238.048	79.27
238.264	74.04
238.481	62.08
238.698	64.62
238.915	70.69
239.131	58.76
239.348	57.37
239.565	52.1
239.781	54.09
239.998	45.83
240.215	40.5
240.431	36.18
240.648	36.96
240.865	39.35
241.081	34.76
241.298	28.57
241.514	29.45
241.731	26.48
241.947	27.66
242.164	26.38
242.38	24.09
242.597	23.99
242.814	24.43
243.03	25.64
243.246	26.49
243.463	27.43
243.679	29.01
243.896	28.79
244.112	30.28
244.329	32.82
244.545	35.25
244.762	33.96
244.978	34.3
245.194	31.45
245.411	30.54
245.627	26.88
245.843	26.68
246.06	25.45
246.276	26.13
246.492	25.35
246.709	23.61
246.925	21.58
247.141	22.65
247.357	22.18
247.574	22.46
247.79	21.47
248.006	20.49
248.222	20.75
248.439	21.72
248.655	21.38
248.871	21.13
249.087	22.2
249.303	24.48
249.519	24.84
249.736	25.59
249.952	27.9
250.168	32.73
250.384	35.22
250.6	35.75
250.816	36.65
251.032	36.58
251.248	37.66
251.464	39.11
251.68	36.11
251.896	34.26
252.112	34.66
252.328	31.67
252.544	30.18
252.76	31.58
252.976	30.23
253.192	28.48
253.408	27.65
253.624	29.57
253.84	28.47
254.056	32.48
254.272	33.68
254.487	31.88
254.703	32.43
254.919	30.58
255.135	32.11
255.351	38.8
255.567	38.74
255.782	41.32
255.998	41.5
256.214	37.93
256.43	33.54
256.646	36.92
256.861	40.96
257.077	43.08
257.293	42.08
257.508	38.12
257.724	31.8
257.94	29.87
258.155	27.87
258.371	24.14
258.587	23.44
258.802	21.96
259.018	18.72
259.234	17.12
259.449	16.35
259.665	16.23
259.88	16.85
260.096	17.28
260.312	16.95
260.527	16.78
260.743	16.66
260.958	16.91
261.174	17.33
261.389	18.98
261.605	18.66
261.82	18.82
262.036	19.21
262.251	18.78
262.466	19.18
262.682	20.22
262.897	21.09
263.113	21.13
263.328	21.12
263.543	20.74
263.759	22.84
263.974	24.25
264.189	23.4
264.405	21.92
264.62	23.34
264.835	22.51
265.051	22.71
265.266	22.99
265.481	27.47
265.696	29.58
265.912	28.25
266.127	23.04
266.342	22.19
266.557	23.02
266.773	22.83
266.988	21.96
267.203	23.19
267.418	22.6
267.633	23.54
267.848	20.59
268.064	16.76
268.279	17
268.494	16.53
268.709	15.64
268.924	16.14
269.139	14.28
269.354	14.78
269.569	10.9
269.784	10.84
269.999	8.97
270.214	9.1
270.429	9.42
270.644	10.29
270.859	11.29
271.074	12.28
271.289	12.91
271.504	14.46
271.719	14.35
271.934	16.18
272.149	15.97
272.363	16.2
272.578	15.73
272.793	15.32
273.008	15.89
273.223	15.12
273.438	14.69
273.653	13.89
273.867	14.22
274.082	14.44
274.297	14.66
274.512	15.46
274.726	15.03
274.941	15.48
275.156	19.31
275.371	19.18
275.585	21.75
275.8	22.62
276.015	20.99
276.229	22.04
276.444	21.91
276.659	20.73
276.873	19.66
277.088	21.7
277.302	23.41
277.517	20.06
277.732	19.72
277.946	17.62
278.161	18.72
278.375	19.61
278.59	17.87
278.804	17.51
279.019	19.27
279.233	20.15
279.448	16.84
279.662	14.31
279.877	15.62
280.091	13.59
280.306	15.31
280.52	13.3
280.735	12.85
280.949	14.16
281.163	14.77
281.378	14.9
281.592	15.59
281.806	16.35
282.021	16.54
282.235	16.97
282.449	19.67
282.664	18.85
282.878	19.4
283.092	19.43
283.307	19.14
283.521	17.88
283.735	18.13
283.949	17.14
284.164	16.81
284.378	16.76
284.592	15.73
284.806	14.98
285.02	14.31
285.234	12.98
285.449	13.25
285.663	13.53
285.877	13.82
286.091	12.39
286.305	12.81
286.519	13.72
286.733	14.67
286.947	15.58
287.161	14.99
287.375	14.77
287.589	16.06
287.803	17.11
288.017	16.48
288.231	16.24
288.445	17.59
288.659	17.88
288.873	18.03
289.087	17.6
289.301	18
289.515	17.26
289.729	18.02
289.943	19.1
290.157	19.1
290.371	19.95
290.584	20.26
290.798	20.36
291.012	20.84
291.226	19.75
291.44	19.74
291.654	18.54
291.867	18.99
292.081	18.85
292.295	18.47
292.509	19.17
292.722	18.09
292.936	17.62
293.15	16.21
293.364	14.39
293.577	15.64
293.791	17.13
294.005	16.61
294.218	17.4
294.432	18.3
294.645	17.71
294.859	17.09
295.073	18.07
295.286	18.55
295.5	18.99
295.713	18.53
295.927	18.02
296.14	15.97
296.354	16.29
296.568	15.83
296.781	14.71
296.994	15.16
297.208	14.57
297.421	14.08
297.635	15.03
297.848	15.1
298.062	15.08
298.275	15.01
298.489	15.67
298.702	16.65
298.915	16.21
299.129	16.73
299.342	16.2
299.555	16.95
299.769	16.85
299.982	16.61
300.195	17.04
300.409	17.91
300.622	18.22
300.835	17.55
301.048	16.86
301.262	18.91
301.475	19.92
301.688	19.55
301.901	20.13
302.115	20.97
302.328	21.27
302.541	21.55
302.754	22.52
302.967	22.88
303.18	24.43
303.393	25.28
303.607	24.71
303.82	24.63
304.033	24.75
304.246	24.65
304.459	24.22
304.672	24.46
304.885	24.51
305.098	24.12
305.311	24.3
305.524	24.25
305.737	24.57
305.95	25.31
306.163	25.14
306.376	25.06
306.589	24.81
306.802	25.63
307.015	24.46
307.228	24.41
307.44	24.22
307.653	24.57
307.866	24.62
308.079	24.51
308.292	23.35
308.505	24.3
308.718	25.67
308.93	25.94
309.143	25.66
309.356	26.39
309.569	25.03
309.781	24.25
309.994	24.27
310.207	23.52
310.42	22.45
310.632	23.27
310.845	22.23
311.058	21.57
311.27	21.19
311.483	21.2
311.696	20.41
311.908	21.1
312.121	22.48
312.333	23.39
312.546	23.24
312.759	23.1
312.971	22.78
313.184	23.88
313.396	24.72
313.609	23.64
313.821	23.88
314.034	24.27
314.246	23.8
314.459	23.43
314.671	21.16
314.884	22.32
315.096	22.66
315.309	22.43
315.521	21.24
315.733	20.31
315.946	21
316.158	20.08
316.371	20.03
316.583	20.28
316.795	18.55
317.008	19.15
317.22	18.09
317.432	18.99
317.644	19.17
317.857	20.06
318.069	19.64
318.281	19.75
318.494	20.72
318.706	22.09
318.918	23.16
319.13	23.37
319.342	23.37
319.555	24.3
319.767	25.69
319.979	25.37
320.191	25.14
320.403	26.17
320.615	27.91
320.827	28.56
321.039	27.51
321.252	28.46
321.464	29.88
321.676	29.88
321.888	29.26
322.1	27.14
322.312	27.44
322.524	28.65
322.736	27.79
322.948	27.61
323.16	26.62
323.372	27.03
323.584	25.66
323.796	25.16
324.007	25.64
324.219	26.76
324.431	27.85
324.643	28.58
324.855	28.57
325.067	28.71
325.279	28.48
325.491	28.71
325.702	29.36
325.914	29.64
326.126	30.97
326.338	29.12
326.55	28.12
326.761	27.27
326.973	26.48
327.185	27.06
327.396	28.41
327.608	27.84
327.82	28.16
328.032	27.79
328.243	27.78
328.455	27.67
328.666	30.29
328.878	31.43
329.09	32.11
329.301	33.49
329.513	31.51
329.725	31.04
329.936	31.7
330.148	32.68
330.359	33.84
330.571	34.86
330.782	34.89
330.994	35.6
331.205	36.21
331.417	36.89
331.628	36.4
331.84	38.93
332.051	39.5
332.262	40.16
332.474	39.01
332.685	39.59
332.897	39.2
333.108	38.87
333.319	37.93
333.531	37.54
333.742	36.85
333.953	37.44
334.165	36.34
334.376	36.75
334.587	36.86
334.799	37.36
335.01	35.37
335.221	34.94
335.432	34.2
335.644	33.31
335.855	33.81
336.066	35.2
336.277	34.58
336.488	34.42
336.7	33.71
336.911	33.76
337.122	33.8
337.333	34.51
337.544	34.87
337.755	35.9
337.966	37.19
338.177	36.38
338.388	35.55
338.599	35.43
338.811	34.89
339.022	34.88
339.233	35.06
339.444	34.97
339.655	34.66
339.866	34.6
340.076	34.53
340.287	33.99
340.498	34.74
340.709	34.91
340.92	35.02
341.131	35.64
341.342	35.58
341.553	34.23
341.764	34.44
341.975	33.65
342.185	33.88
342.396	33.79
342.607	33.05
342.818	32.7
343.029	32.22
343.239	31.69
343.45	30.94
343.661	30.97
343.872	31.73
344.082	31.76
344.293	33.92
344.504	33.78
344.714	33.96
344.925	34.99
345.136	34.4
345.346	32.83
345.557	33.11
345.768	33.71
345.978	34.26
346.189	33.5
346.399	32.74
346.61	31.63
346.821	31.71
347.031	31.81
347.242	31.35
347.452	31.73
347.663	33.25
347.873	34.09
348.084	34.53
348.294	33.91
348.504	34.33
348.715	35.14
348.925	35.03
349.136	33.87
349.346	33.72
349.557	34.17
349.767	34.88
349.977	35.12
350.188	34.33
350.398	34.96
350.608	34.89
350.819	35.2
351.029	34.72
351.239	35.3
351.449	35.98
351.66	35.75
351.87	35.58
352.08	34.95
352.29	34.02
352.501	33.66
352.711	32.74
352.921	33.21
353.131	31.95
353.341	32.22
353.552	30.53
353.762	30.11
353.972	29.92
354.182	30.55
354.392	30.7
354.602	31.4
354.812	31.65
355.022	30.68
355.232	30.76
355.442	32.12
355.652	31.36
355.862	31.88
356.072	32.83
356.282	32.51
356.492	31.36
356.702	31.07
356.912	31.15
357.122	31.77
357.332	32.07
357.542	31.57
357.752	31.14
357.962	31.63
358.171	31.86
358.381	31.95
358.591	31.74
358.801	32.03
359.011	32
359.221	31.73
359.43	30.83
359.64	30.54
359.85	29.7
360.06	29.79
360.269	29.81
360.479	29.96
360.689	29.53
360.899	29.59
361.108	30.01
361.318	29.17
361.528	28.89
361.737	29.37
361.947	29.64
362.156	30.05
362.366	29.72
362.576	29.62
362.785	29.03
362.995	28.66
363.204	29.06
363.414	29.04
363.623	29.43
363.833	29.95
364.042	29.42
364.252	29.67
364.461	29.77
364.671	30.11
364.88	29.85
365.09	31.14
365.299	31.32
365.509	31.21
365.718	30.19
365.927	30.72
366.137	30.69
366.346	30.6
366.555	30.09
366.765	30.27
366.974	29.92
367.183	29.23
367.393	27.43
367.602	27.18
367.811	27.17
368.021	27.62
368.23	27.31
368.439	26.84
368.648	26.98
368.857	27.09
369.067	26.94
369.276	27.06
369.485	27.74
369.694	29.24
369.903	29.32
370.112	29.02
370.321	28.11
370.531	27.74
370.74	27.64
370.949	27.36
371.158	27.28
371.367	27.53
371.576	27.01
371.785	26.81
371.994	26.19
372.203	26.33
372.412	25.88
372.621	26.85
372.83	27.07
373.039	27.35
373.248	27.05
373.457	27.19
373.666	26.26
373.874	26.21
374.083	25.92
374.292	25.89
374.501	25.71
374.71	25.66
374.919	24.91
375.128	24.7
375.336	24.61
375.545	25.16
375.754	25.2
375.963	25.31
376.171	25.11
376.38	25.56
376.589	25.36
376.798	24.8
377.006	25.13
377.215	25.44
377.424	24.88
377.632	24.07
377.841	23.73
378.05	23.33
378.258	23.01
378.467	22.5
378.675	22.02
378.884	22.26
379.093	22.42
379.301	22.22
379.51	22.07
379.718	22.6
379.927	22.93
380.135	22.96
380.344	22.27
380.552	22.72
380.761	23.27
380.969	23.39
381.177	22.5
381.386	22.92
381.594	22.42
381.803	22.3
382.011	22.02
382.219	22
382.428	21.5
382.636	21.73
382.845	21.2
383.053	21.26
383.261	21.13
383.469	21.55
383.678	21.48
383.886	21.49
384.094	21.62
384.302	21.84
384.511	21.71
384.719	21.72
384.927	21.83
385.135	22.08
385.343	21.84
385.552	22.05
385.76	21.61
385.968	21.06
386.176	20.95
386.384	20.39
386.592	19.93
386.8	20.28
387.008	20.34
387.216	20.62
387.424	20.71
387.633	20.96
387.841	20.87
388.049	21.31
388.257	21.28
388.465	21.2
388.672	21.41
388.88	21.83
389.088	21.34
389.296	21.27
389.504	20.83
389.712	20.54
389.92	19.95
390.128	19.82
390.336	19.37
390.544	19.32
390.751	19.67
390.959	19.8
391.167	19.12
391.375	19.42
391.583	19.42
391.79	19.53
391.998	19.71
392.206	20.11
392.414	19.63
392.621	19.74
392.829	19.64
393.037	19.05
393.244	18.57
393.452	18.73
393.66	18.29
393.867	18.3
394.075	17.73
394.283	17.58
394.49	17.06
394.698	17.01
394.905	16.92
395.113	17.2
395.32	17.64
395.528	17.42
395.735	17.29
395.943	17.57
396.15	17.59
396.358	17.87
396.565	17.71
396.773	17.89
396.98	18.13
397.188	17.91
397.395	17.83
397.602	17.82
397.81	17.88
398.017	17.92
398.225	17.82
398.432	17.64
398.639	17.43
398.847	17.39
399.054	17.41
399.261	17.15
399.468	17.02
399.676	16.88
399.883	16.28
400.09	16.84
400.297	16.88
400.505	16.9
400.712	16.95
400.919	17.03
401.126	16.89
401.333	16.61
401.54	16.85
401.748	16.81
401.955	16.63
402.162	16.94
402.369	16.58
402.576	16.53
402.783	16.03
402.99	15.86
403.197	15.67
403.404	15.49
403.611	15.34
403.818	15.39
404.025	15.61
404.232	15.67
404.439	15.56
404.646	15.27
404.853	15.29
405.06	15.29
405.267	15.45
405.474	15.68
405.681	15.92
405.887	16.09
406.094	15.84
406.301	15.89
406.508	15.85
406.715	16.23
406.922	16.39
407.128	16.5
407.335	16.65
407.542	16.59
407.749	16.39
407.955	16.49
408.162	16.59
408.369	16.6
408.575	16.53
408.782	16.8
408.989	16.31
409.195	16.14
409.402	16.27
409.609	15.82
409.815	15.77
410.022	16
410.228	15.94
410.435	16.21
410.642	16.4
410.848	16.17
411.055	15.84
411.261	16.08
411.468	16.48
411.674	16.26
411.881	16.49
412.087	16.3
412.294	16.38
412.5	16.3
412.706	16.06
412.913	16.15
413.119	16.3
413.326	16.2
413.532	16.07
413.738	15.85
413.945	15.21
414.151	15.59
414.357	15.79
414.564	15.63
414.77	15.67
414.976	15.65
415.182	15.51
415.389	15.26
415.595	15.08
415.801	14.89
416.007	15
416.214	15.28
416.42	15.02
416.626	14.75
416.832	14.76
417.038	14.51
417.244	14.43
417.45	14.22
417.657	14.49
417.863	14.47
418.069	14.68
418.275	14.45
418.481	14.46
418.687	14.5
418.893	14.49
419.099	14.35
419.305	14.26
419.511	14.23
419.717	14.1
419.923	13.83
420.129	13.87
420.335	13.79
420.541	13.94
420.746	13.87
420.952	13.74
421.158	13.67
421.364	13.57
421.57	13.65
421.776	13.45
421.982	13.61
422.187	13.64
422.393	13.52
422.599	13.5
422.805	13.4
423.01	13.47
423.216	13.56
423.422	13.7
423.628	13.81
423.833	13.7
424.039	13.82
424.245	13.75
424.45	13.73
424.656	13.87
424.862	13.79
425.067	13.72
425.273	13.76
425.478	13.81
425.684	13.78
425.889	13.94
426.095	14.03
426.301	14.07
426.506	13.93
426.712	14.09
426.917	14.21
427.123	14.21
427.328	14.18
427.533	14.07
427.739	14.28
427.944	14.19
428.15	14.13
428.355	14.05
428.561	14.16
428.766	14.46
428.971	14.22
429.177	14.21
429.382	14.42
429.587	14.54
429.793	14.73
429.998	14.38
430.203	14.41
430.408	14.31
430.614	14.36
430.819	14.29
431.024	14.11
431.229	14.4
431.434	14.23
431.64	13.94
431.845	14.13
432.05	14.13
432.255	14.1
432.46	14.07
432.665	13.9
432.87	13.93
433.076	13.9
433.281	13.94
433.486	13.72
433.691	13.74
433.896	13.83
434.101	13.6
434.306	13.49
434.511	13.48
434.716	13.49
434.921	13.67
435.126	13.75
435.331	13.64
435.535	13.58
435.74	13.59
435.945	13.45
436.15	13.46
436.355	13.53
436.56	13.5
436.765	13.61
436.97	13.51
437.174	13.54
437.379	13.46
437.584	13.71
437.789	13.77
437.993	13.91
438.198	14.07
438.403	14.17
438.608	14.12
438.812	14.1
439.017	13.93
439.222	13.95
439.426	13.75
439.631	13.67
439.836	13.55
440.04	13.49
440.245	13.34
440.45	13.34
440.654	13.25
440.859	13.29
441.063	13.28
441.268	13.45
441.472	13.51
441.677	13.48
441.881	13.41
442.086	13.41
442.29	13.4
442.495	13.42
442.699	13.28
442.904	13.14
443.108	13.19
443.312	13.3
443.517	13.16
443.721	13.09
443.925	13.16
444.13	13.29
444.334	13.26
444.538	13.44
444.743	13.64
444.947	13.6
445.151	13.69
445.356	13.66
445.56	13.56
445.764	13.5
445.968	13.61
446.173	13.52
446.377	13.52
446.581	13.51
446.785	13.36
446.989	13.24
447.193	13.33
447.398	13.39
447.602	13.22
447.806	13.15
448.01	13.21
448.214	13.1
448.418	13.06
448.622	13.03
448.826	12.87
449.03	12.92
449.234	12.92
449.438	12.93
449.642	12.83
449.846	12.99
450.05	13.09
450.254	12.89
450.458	12.7
450.662	12.96
450.866	12.84
451.069	13.12
451.273	13.02
451.477	13.11
451.681	13.06
451.885	12.93
452.089	12.9
452.292	12.78
452.496	12.85
452.7	13.1
452.904	13.05
453.107	13.26
453.311	13.06
453.515	13.18
453.719	13.07
453.922	13.28
454.126	13.45
454.33	13.31
454.533	13.31
454.737	13.54
454.94	13.38
455.144	13.24
455.348	13.15
455.551	13.2
455.755	13.12
455.958	13.35
456.162	13.22
456.365	13.05
456.569	12.93
456.772	12.82
456.976	12.71
457.179	12.75
457.383	12.88
457.586	12.89
457.79	13
457.993	12.95
458.196	12.69
458.4	12.68
458.603	12.64
458.807	12.66
459.01	12.89
459.213	12.76
459.417	12.82
459.62	12.69
459.823	12.65
460.026	12.51
460.23	12.55
460.433	12.59
460.636	12.5
460.839	12.55
461.042	12.52
461.246	12.47
461.449	12.69
461.652	12.62
461.855	12.67
462.058	12.7
462.261	12.97
462.464	12.84
462.668	12.79
462.871	13
463.074	12.95
463.277	13.04
463.48	12.88
463.683	12.79
463.886	12.82
464.089	12.9
464.292	12.88
464.495	12.77
464.698	12.99
464.901	13.12
465.104	12.97
465.306	12.85
465.509	13.01
465.712	13.13
465.915	13.14
466.118	13.16
466.321	13.17
466.524	13
466.726	12.94
466.929	12.96
467.132	12.83
467.335	12.84
467.538	12.79
467.74	12.67
467.943	12.46
468.146	12.42
468.348	12.36
468.551	12.24
468.754	12.34
468.956	12.44
469.159	12.16
469.362	12.37
469.564	12.42
469.767	12.55
469.969	12.74
470.172	12.84
470.375	12.76
470.577	12.94
470.78	12.99
470.982	13.1
471.185	12.92
471.387	13.08
471.59	12.89
471.792	12.72
471.995	12.99
472.197	12.95
472.399	13.09
472.602	13.26
472.804	13.17
473.007	13.3
473.209	13.33
473.411	13.4
473.614	13.45
473.816	13.35
474.018	13.48
474.22	13.39
474.423	13.39
474.625	13.41
474.827	13.23
475.03	13.31
475.232	13.06
475.434	13.1
475.636	12.91
475.838	12.95
476.04	13.09
476.243	13.13
476.445	13.02
476.647	13
476.849	12.97
477.051	12.97
477.253	13.14
477.455	13.28
477.657	13.18
477.859	13.21
478.061	13.06
478.263	13.06
478.465	12.92
478.667	12.89
478.869	12.79
479.071	12.81
479.273	12.8
479.475	12.42
479.677	12.38
479.879	12.23
480.081	12.24
480.283	12.28
480.485	12.22
480.686	12.41
480.888	12.47
481.09	12.47
481.292	12.32
481.494	12.44
481.695	12.6
481.897	12.57
482.099	12.62
482.301	12.64
482.502	12.43
482.704	12.33
482.906	12.18
483.107	12.12
483.309	12.06
483.511	12.02
483.712	11.97
483.914	11.88
484.115	11.82
484.317	11.83
484.519	11.82
484.72	11.89
484.922	11.87
485.123	11.83
485.325	11.82
485.526	11.86
485.728	11.93
485.929	11.86
486.131	11.82
486.332	11.86
486.534	11.8
486.735	11.75
486.936	11.76
487.138	11.83
487.339	11.89
487.541	11.92
487.742	11.91
487.943	11.84
488.144	11.91
488.346	11.97
488.547	11.97
488.748	12.01
488.95	12.02
489.151	12.04
489.352	12.08
489.553	12.11
489.755	12.22
489.956	12.2
490.157	12.34
490.358	12.29
490.559	12.16
490.76	12.15
490.961	12.04
491.163	12.09
491.364	12.09
491.565	11.98
491.766	11.94
491.967	11.85
492.168	11.87
492.369	11.79
492.57	11.79
492.771	12.01
492.972	11.97
493.173	12.13
493.374	12.2
493.575	12.24
493.776	12.31
493.976	12.47
494.177	12.5
494.378	12.56
494.579	12.74
494.78	12.89
494.981	12.82
495.182	13.06
495.382	13.03
495.583	13.04
495.784	13.1
495.985	13.28
496.185	13.24
496.386	13.16
496.587	13.15
496.788	13.03
496.988	12.9
497.189	12.9
497.39	12.78
497.59	12.78
497.791	12.58
497.992	12.51
498.192	12.44
498.393	12.45
498.593	12.63
498.794	12.68
498.994	12.71
499.195	12.81
499.395	12.74
499.596	12.79
499.796	12.77
499.997	13.08
500.197	13.06
500.398	13.01
500.598	12.72
500.799	12.78
500.999	12.72
501.199	12.63
501.4	12.72
501.6	12.75
501.801	12.72
502.001	12.81
502.201	12.64
502.402	12.65
502.602	12.66
502.802	12.88
503.002	12.77
503.203	12.89
503.403	13.18
503.603	13.13
503.803	13.25
504.003	13.39
504.204	13.34
504.404	13.57
504.604	13.69
504.804	13.97
505.004	13.9
505.204	13.9
505.404	13.87
505.604	13.85
505.804	13.89
506.005	13.73
506.205	13.69
506.405	13.95
506.605	13.78
506.805	13.84
507.005	13.68
507.204	13.88
507.404	13.68
507.604	13.82
507.804	13.85
508.004	14
508.204	14.01
508.404	13.97
508.604	13.83
508.804	13.92
509.003	13.92
509.203	14.05
509.403	14.02
509.603	14.25
509.803	14.18
510.002	14.21
510.202	14.18
510.402	14.45
510.602	14.46
510.801	14.5
511.001	14.46
511.201	14.42
511.4	14.25
511.6	14.32
511.8	14.36
511.999	14.6
512.199	14.38
512.398	14.35
512.598	14.4
512.797	14.61
512.997	14.73
513.197	14.72
513.396	14.93
513.596	15.11
513.795	15.18
513.994	15.32
514.194	15.22
514.393	15.36
514.593	15.53
514.792	15.63
514.992	15.74
515.191	15.83
515.39	16.02
515.59	15.97
515.789	16.1
515.988	16.14
516.188	16.1
516.387	16.25
516.586	16.48
516.786	16.47
516.985	16.39
517.184	16.47
517.383	16.48
517.582	16.44
517.782	16.33
517.981	16.34
518.18	16.3
518.379	16.49
518.578	16.39
518.777	16.41
518.976	16.46
519.176	16.54
519.375	16.35
519.574	16.41
519.773	16.51
519.972	16.74
520.171	16.9
520.37	17.03
520.569	17.06
520.768	17.2
520.967	17.15
521.166	17.32
521.365	17.36
521.564	17.71
521.762	17.77
521.961	17.92
522.16	17.89
522.359	17.77
522.558	17.66
522.757	17.63
522.956	17.59
523.154	17.78
523.353	17.82
523.552	17.78
523.751	17.62
523.949	17.72
524.148	17.57
524.347	17.74
524.546	18.03
524.744	18.23
524.943	18.26
525.142	18.26
525.34	18.35
525.539	18.29
525.737	18.46
525.936	18.61
526.135	18.66
526.333	18.88
526.532	18.81
526.73	18.72
526.929	18.86
527.127	18.92
527.326	19.02
527.524	19.02
527.723	19.13
527.921	19.1
528.12	19.05
528.318	19.04
528.516	19.12
528.715	19.14
528.913	19.16
529.112	19.18
529.31	19.2
529.508	19.28
529.707	19.29
529.905	19.34
530.103	19.4
530.301	19.48
530.5	19.58
530.698	19.55
530.896	19.75
531.094	19.86
531.293	19.85
531.491	20.03
531.689	20.15
531.887	20.25
532.085	20.3
532.283	20.37
532.481	20.44
532.68	20.54
532.878	20.62
533.076	20.57
533.274	20.58
533.472	20.59
533.67	20.5
533.868	20.49
534.066	20.55
534.264	20.56
534.462	20.52
534.66	20.68
534.858	20.71
535.056	20.91
535.253	20.94
535.451	21.18
535.649	21.31
535.847	21.52
536.045	21.61
536.243	21.85
536.441	21.97
536.638	22.14
536.836	22.07
537.034	22.17
537.232	22.05
537.43	22.02
537.627	21.98
537.825	22.15
538.023	22.2
538.22	22.39
538.418	22.33
538.616	22.41
538.813	22.45
539.011	22.69
539.209	22.67
539.406	22.77
539.604	23.15
539.801	23.27
539.999	23.38
540.196	23.37
540.394	23.33
540.591	23.41
540.789	23.4
540.986	23.36
541.184	23.47
541.381	23.58
541.579	23.64
541.776	23.6
541.974	23.62
542.171	23.61
542.368	23.64
542.566	23.63
542.763	23.65
542.96	23.68
543.158	23.95
543.355	23.93
543.552	24
543.75	24.13
543.947	24.21
544.144	24.27
544.341	24.33
544.539	24.54
544.736	24.73
544.933	24.75
545.13	24.82
545.327	24.77
545.524	24.79
545.722	24.73
545.919	24.69
546.116	24.71
546.313	24.84
546.51	24.98
546.707	24.97
546.904	25.06
547.101	25.14
547.298	25.33
547.495	25.48
547.692	25.64
547.889	25.69
548.086	25.75
548.283	26.05
548.48	26.12
548.677	26.2
548.874	26.42
549.07	26.62
549.267	26.86
549.464	26.94
549.661	26.98
549.858	27.14
550.055	27.63
550.251	27.91
550.448	27.92
550.645	27.82
550.842	27.92
551.038	27.95
551.235	28.11
551.432	28.37
551.628	28.41
551.825	28.52
552.022	28.36
552.218	28.13
552.415	28.17
552.612	28.31
552.808	28.62
553.005	28.67
553.201	28.74
553.398	28.51
553.594	28.36
553.791	28.54
553.987	28.58
554.184	28.91
554.38	29.07
554.577	29.19
554.773	29.25
554.97	29.3
555.166	29.55
555.362	29.66
555.559	29.89
555.755	30.09
555.952	30.05
556.148	30.33
556.344	30.35
556.541	30.34
556.737	30.42
556.933	30.47
557.129	30.41
557.326	30.57
557.522	30.53
557.718	30.67
557.914	30.73
558.11	30.88
558.307	30.79
558.503	30.96
558.699	31.22
558.895	31.25
559.091	31.37
559.287	31.82
559.483	31.95
559.679	31.96
559.876	31.97
560.072	32
560.268	32.36
560.464	32.51
560.66	32.43
560.856	32.77
561.052	32.87
561.247	32.79
561.443	32.63
561.639	32.7
561.835	32.96
562.031	33.05
562.227	33.05
562.423	32.87
562.619	32.95
562.815	33.11
563.01	33.03
563.206	33.02
563.402	33.02
563.598	33.15
563.793	32.93
563.989	33.02
564.185	33.16
564.381	33.07
564.576	33.22
564.772	33.04
564.968	33.25
565.163	33.33
565.359	33.41
565.555	33.52
565.75	33.61
565.946	33.77
566.141	33.95
566.337	34.02
566.532	34.47
566.728	34.53
566.923	34.67
567.119	34.61
567.314	34.64
567.51	34.73
567.705	34.94
567.901	35.07
568.096	35.01
568.292	35.11
568.487	35.05
568.682	34.83
568.878	35
569.073	35.11
569.268	35.14
569.464	35.29
569.659	35.58
569.854	35.48
570.05	35.31
570.245	35.64
570.44	35.69
570.635	35.79
570.831	35.84
571.026	35.82
571.221	35.9
571.416	35.8
571.611	35.62
571.806	35.41
572.002	35.62
572.197	35.56
572.392	35.45
572.587	35.56
572.782	35.75
572.977	35.88
573.172	35.85
573.367	35.84
573.562	36.02
573.757	36.12
573.952	36.1
574.147	35.99
574.342	36.29
574.537	36.35
574.732	35.97
574.927	35.89
575.121	35.96
575.316	36.08
575.511	36.25
575.706	36.35
575.901	36.34
576.096	36.57
576.29	36.82
576.485	36.82
576.68	36.87
576.875	37.05
577.069	37.22
577.264	37.17
577.459	37.25
577.654	37.32
577.848	37.36
578.043	37.57
578.238	37.81
578.432	37.71
578.627	37.75
578.821	38.1
579.016	38.39
579.21	38.3
579.405	38.42
579.6	38.38
579.794	38.35
579.989	38.4
580.183	38.49
580.378	38.21
580.572	38.56
580.766	38.7
580.961	38.46
581.155	38.45
581.35	38.82
581.544	38.84
581.738	39.38
581.933	39.52
582.127	39.82
582.321	39.88
582.516	40.17
582.71	39.97
582.904	40.08
583.099	40.25
583.293	40.14
583.487	39.96
583.681	40.31
583.875	39.89
584.07	40.08
584.264	40.06
584.458	39.93
584.652	40.02
584.846	40.23
585.04	40.07
585.234	39.94
585.428	40.06
585.623	40.22
585.817	40.02
586.011	39.85
586.205	39.66
586.399	39.82
586.593	40.12
586.787	40.21
586.981	39.89
587.174	40.15
587.368	40.37
587.562	40.48
587.756	40.58
587.95	40.64
588.144	40.96
588.338	41.25
588.532	41.06
588.725	41.08
588.919	40.95
589.113	41.18
589.307	41.06
589.501	40.91
589.694	40.97
589.888	40.68
590.082	40.74
590.275	40.58
590.469	40.32
590.663	40.51
590.856	40.25
591.05	40.15
591.244	40.07
591.437	40.36
591.631	40.36
591.824	40.13
592.018	40.17
592.212	40.11
592.405	40.52
592.599	40.78
592.792	40.62
592.986	40.77
593.179	40.68
593.372	40.77
593.566	40.39
593.759	40.37
593.953	40.58
594.146	40.71
594.339	40.73
594.533	40.38
594.726	40.19
594.92	40.07
595.113	39.99
595.306	40.17
595.499	40.22
595.693	40.64
595.886	40.98
596.079	41.05
596.272	41.08
596.466	41.26
596.659	41.31
596.852	41.51
597.045	41.59
597.238	41.87
597.431	41.88
597.624	41.83
597.818	41.68
598.011	41.53
598.204	41.43
598.397	41.45
598.59	41.41
598.783	41.52
598.976	41.49
599.169	41.69
599.362	41.5
599.555	41.57
599.748	41.84
599.941	42.05
600.134	42.23
600.326	42.23
600.519	42.36
600.712	42.52
600.905	42.53
601.098	42.53
601.291	42.49
601.483	42.54
601.676	42.42
601.869	42.15
602.062	41.76
602.255	41.76
602.447	41.81
602.64	41.59
602.833	41.33
603.025	41.47
603.218	41.36
603.411	41.12
603.603	41.17
603.796	41.29
603.989	41.18
604.181	41.36
604.374	41.35
604.566	41.58
604.759	41.57
604.951	41.7
605.144	41.5
605.336	41.7
605.529	41.78
605.721	41.68
605.914	41.72
606.106	42
606.299	42.17
606.491	42.38
606.683	42.29
606.876	42.22
607.068	42.09
607.26	42.15
607.453	41.9
607.645	42
607.837	42.11
608.03	42.31
608.222	42.24
608.414	42.06
608.606	41.58
608.799	41.88
608.991	42.12
609.183	42.36
609.375	42.66
609.567	42.72
609.759	42.92
609.952	42.93
610.144	42.86
610.336	42.89
610.528	42.97
610.72	43.42
610.912	43.4
611.104	43.71
611.296	43.62
611.488	43.66
611.68	44.05
611.872	43.85
612.064	44.3
612.256	44.49
612.448	44.69
612.64	44.84
612.832	44.87
613.023	44.62
613.215	44.56
613.407	44.7
613.599	44.42
613.791	44.41
613.983	44.54
614.174	44.28
614.366	44.24
614.558	43.96
614.75	43.91
614.941	43.93
615.133	43.95
615.325	44.09
615.516	44.13
615.708	44.25
615.9	44.08
616.091	43.97
616.283	43.97
616.475	43.5
616.666	43.72
616.858	43.99
617.049	43.69
617.241	43.85
617.432	43.44
617.624	43.4
617.815	43.44
618.007	43.31
618.198	43.71
618.39	43.59
618.581	43.98
618.773	43.89
618.964	43.7
619.155	43.51
619.347	43.09
619.538	43.51
619.729	43.57
619.921	43.81
620.112	44.02
620.303	43.67
620.494	43.72
620.686	43.67
620.877	43.83
621.068	43.69
621.259	44.06
621.451	44.43
621.642	43.92
621.833	43.81
622.024	43.58
622.215	43.5
622.406	43.56
622.597	43.52
622.788	43.33
622.98	43.27
623.171	43.37
623.362	43.53
623.553	43.97
623.744	44.12
623.935	43.96
624.126	43.75
624.317	43.82
624.508	43.81
624.698	43.6
624.889	43.57
625.08	44.07
625.271	44.21
625.462	44.12
625.653	43.42
625.844	43.44
626.034	43.56
626.225	43.67
626.416	43.28
626.607	43.53
626.798	43.81
626.988	43.81
627.179	43.37
627.37	43.11
627.56	43.16
627.751	43.86
627.942	44.07
628.132	43.96
628.323	43.75
628.514	44.03
628.704	43.76
628.895	43.77
629.085	43.85
629.276	43.76
629.466	43.9
629.657	43.62
629.847	42.92
630.038	42.95
630.228	43.34
630.419	43.82
630.609	43.94
630.8	43.99
630.99	44.2
631.181	44.6
631.371	44.8
631.561	44.9
631.752	45.19
631.942	45.66
632.132	45.36
632.323	45.21
632.513	45.04
632.703	44.83
632.893	45.14
633.084	44.91
633.274	44.66
633.464	44.38
633.654	44.2
633.844	44.01
634.034	43.85
634.225	43.9
634.415	43.88
634.605	43.89
634.795	43.81
634.985	43.61
635.175	43.64
635.365	43.74
635.555	44.25
635.745	44.29
635.935	44.64
636.125	44.53
636.315	44.86
636.505	44.76
636.695	44.63
636.885	44.67
637.075	44.93
637.265	45.01
637.455	45.3
637.644	44.91
637.834	45.14
638.024	44.84
638.214	44.9
638.404	44.85
638.593	44.91
638.783	45.05
638.973	45.83
639.163	45.5
639.352	45.02
639.542	44.74
639.732	45.02
639.921	45.21
640.111	45.66
640.301	45.71
640.49	45.62
640.68	45.56
640.87	45.74
641.059	45.06
641.249	45.36
641.438	45.6
641.628	45.45
641.817	45.44
642.007	45.24
642.196	44.73
642.386	45.01
642.575	45.06
642.764	45.33
642.954	45.38
643.143	45.62
643.333	45.64
643.522	45.7
643.711	45.94
643.901	46.16
644.09	46.11
644.279	46.32
644.469	45.94
644.658	46.08
644.847	46.06
645.036	46.22
645.226	46.28
645.415	46.37
645.604	46.33
645.793	46.23
645.982	45.92
646.171	45.6
646.361	45.61
646.55	46.16
646.739	45.91
646.928	45.89
647.117	45.56
647.306	45.53
647.495	44.92
647.684	44.94
647.873	44.74
648.062	44.61
648.251	44.86
648.44	44.61
648.629	43.91
648.818	44.13
649.007	43.84
649.196	44.43
649.384	43.99
649.573	44.26
649.762	44.09
649.951	44.22
650.14	44.34
650.328	44.44
650.517	44.7
650.706	45.08
650.895	45.19
651.083	45.77
651.272	45.38
651.461	46.06
651.65	46.4
651.838	46.36
652.027	46.18
652.216	46.19
652.404	46.31
652.593	46.23
652.781	46.18
652.97	45.91
653.158	45.42
653.347	45.39
653.535	45.1
653.724	44.78
653.912	45.63
654.101	45.58
654.289	45.77
654.478	45.75
654.666	45.75
654.855	45.73
655.043	45.77
655.231	45.53
655.42	45.48
655.608	45.27
655.796	45.28
655.985	44.84
656.173	44.49
656.361	44.47
656.55	44.1
656.738	44.23
656.926	44.43
657.114	44.42
657.302	45.06
657.491	45.03
657.679	45.09
657.867	45.37
658.055	45.82
658.243	46.69
658.431	46.54
658.619	46.84
658.807	46.94
658.996	46.68
659.184	46.72
659.372	46.4
659.56	46.47
659.748	46.36
659.936	46.42
660.124	46.01
660.311	45.88
660.499	46.1
660.687	45.61
660.875	45.36
661.063	45.42
661.251	45.28
661.439	45.46
661.627	45.47
661.814	45.65
662.002	45.28
662.19	45.32
662.378	45.31
662.565	45.38
662.753	45.74
662.941	46.05
663.129	45.74
663.316	45.85
663.504	45.86
663.692	45.9
663.879	45.79
664.067	45.51
664.254	45.23
664.442	45.13
664.63	44.98
664.817	45.58
665.005	45.25
665.192	45.88
665.38	45.85
665.567	45.43
665.755	45.67
665.942	45.75
666.13	46.01
666.317	46.35
666.504	46.04
666.692	46.02
666.879	45.07
667.067	45.51
667.254	45.48
667.441	45.22
667.629	45.53
667.816	44.79
668.003	45.21
668.19	45.66
668.378	45.67
668.565	46.3
668.752	46.19
668.939	47.07
669.127	46.58
669.314	46.6
669.501	46.94
669.688	46.98
669.875	47.32
670.062	47.11
670.249	46.98
670.436	47.07
670.623	46.82
670.81	46.87
670.997	46.59
671.184	46.72
671.371	47.38
671.558	47.28
671.745	47.39
671.932	47.49
672.119	47.53
672.306	47.63
672.493	47.06
672.68	47.08
672.867	47.5
673.054	47.26
673.24	47.41
673.427	46.5
673.614	46.6
673.801	46.63
673.988	47.07
674.174	47.34
674.361	47
674.548	46.92
674.734	46.89
674.921	46.46
675.108	46.85
675.294	46.82
675.481	46.86
675.668	46.87
675.854	46.89
676.041	46.48
676.227	45.99
676.414	46.42
676.601	46.87
676.787	47.02
676.974	46.74
677.16	46.34
677.347	46.86
677.533	46.62
677.719	46.62
677.906	46.48
678.092	46.73
678.279	46.45
678.465	46.04
678.651	45.99
678.838	45.7
679.024	45.46
679.21	45.16
679.397	44.67
679.583	44.89
679.769	44.63
679.955	44.59
680.142	44.73
680.328	44.98
680.514	45.07
680.7	45.19
680.886	45.06
681.073	45.37
681.259	45.69
681.445	46.04
681.631	46.15
681.817	46.55
682.003	46.39
682.189	45.96
682.375	46.33
682.561	46.55
682.747	46
682.933	46.36
683.119	46.3
683.305	46.22
683.491	45.7
683.677	45.66
683.863	45.59
684.049	45.96
684.235	46.29
684.42	46.07
684.606	45.73
684.792	46.85
684.978	46.74
685.164	47.18
685.349	47.62
685.535	48.24
685.721	48.1
685.907	47.99
686.092	47.82
686.278	47.94
686.464	47.62
686.649	47.94
686.835	47.52
687.021	47.87
687.206	47.78
687.392	47.52
687.577	47.46
687.763	47.48
687.948	47.61
688.134	47.72
688.319	47.44
688.505	47.94
688.69	47.83
688.876	48
689.061	47.69
689.247	47.85
689.432	48.05
689.618	47.64
689.803	47.83
689.988	48.25
690.174	48.11
690.359	47.77
690.544	47.37
690.73	47.3
690.915	47.22
691.1	46.53
691.285	46.87
691.471	47.18
691.656	47.4
691.841	47.15
692.026	46.47
692.211	46.63
692.396	46.77
692.582	47.62
692.767	47.42
692.952	47.66
693.137	48.34
693.322	48.02
693.507	47.88
693.692	47.71
693.877	47.84
694.062	48
694.247	48.8
694.432	49.06
694.617	48.62
694.802	48.93
694.987	48.76
695.172	48.64
695.357	48.27
695.541	47.92
695.726	48.24
695.911	48.76
696.096	48.64
696.281	48.19
696.466	48.04
696.65	47.96
696.835	47.88
697.02	47.16
697.204	47.59
697.389	47.77
697.574	47.54
697.759	47.35
697.943	46.48
698.128	46.81
698.312	46.36
698.497	46.34
698.682	45.82
698.866	45.74
699.051	46.15
699.235	45.81
699.42	45.61
699.604	45.65
699.789	45.75
699.973	46.08
700.158	45.78
700.342	45.72
700.527	46.04
700.711	46.58
700.895	46.88
701.08	47.02
701.264	47.22
701.448	46.62
701.633	47.07
701.817	47.21
702.001	47.68
702.186	47.95
702.37	47.8
702.554	47.57
702.738	47.89
702.923	47.82
703.107	47.66
703.291	48.5
703.475	49.67
703.659	49.87
703.843	49.56
704.027	49.99
704.212	49.52
704.396	51.25
704.58	51.28
704.764	50.49
704.948	50.79
705.132	51.03
705.316	50.94
705.5	51.04
705.684	50.57
705.868	50.7
706.052	50.67
706.235	51.86
706.419	51.37
706.603	51.64
706.787	52.14
706.971	51.52
707.155	50.91
707.339	49.85
707.522	49.72
707.706	50.08
707.89	49.75
708.074	49.67
708.257	48.43
708.441	48.71
708.625	48.4
708.808	48.25
708.992	49.07
709.176	49.35
709.359	49.53
709.543	49.41
709.727	48.93
709.91	49.35
710.094	48.58
710.277	48.95
710.461	48.51
710.644	49.35
710.828	49.75
711.011	49.26
711.195	49.84
711.378	50.08
711.562	49.74
711.745	49.24
711.928	49.39
712.112	49.32
712.295	49.46
712.478	49.36
712.662	49.24
712.845	49.18
713.028	48.68
713.212	48.21
713.395	47.79
713.578	48.24
713.761	49.29
713.945	49.23
714.128	50.68
714.311	50.74
714.494	50.74
714.677	50.3
714.86	50.22
715.043	51.01
715.227	51.18
715.41	51.05
715.593	51.19
715.776	50.85
715.959	49.91
716.142	48.63
716.325	48.77
716.508	48.62
716.691	48.02
716.874	48.19
717.057	47.47
717.239	47.36
717.422	47.89
717.605	47.49
717.788	46.81
717.971	48.56
718.154	48.76
718.337	49.35
718.519	49.16
718.702	50
718.885	49.23
719.068	49.85
719.25	50.25
719.433	50.07
719.616	50.31
719.798	51.77
719.981	50.98
720.164	51.14
720.346	50.23
720.529	50.78
720.712	50.48
720.894	51.58
721.077	51.29
721.259	51.17
721.442	51.93
721.624	52.27
721.807	52.11
721.989	51.69
722.172	51.83
722.354	52.29
722.537	52.33
722.719	52.74
722.901	52.25
723.084	52.41
723.266	51.82
723.448	51.22
723.631	50.58
723.813	49.98
723.995	50.62
724.178	50.64
724.36	50.28
724.542	50.16
724.724	50.58
724.907	50.76
725.089	51.16
725.271	51.79
725.453	52.25
725.635	53.02
725.817	53.32
725.999	53.3
726.181	53.22
726.364	53.88
726.546	53.35
726.728	52.53
726.91	52.18
727.092	52.03
727.274	52.17
727.456	51.98
727.638	51.03
727.819	51.91
728.001	51.79
728.183	52.16
728.365	51.72
728.547	52.43
728.729	52.46
728.911	53.96
729.093	54.39
729.274	52.93
729.456	52.72
729.638	53.75
729.82	53.41
730.001	52.62
730.183	52.89
730.365	52.6
730.546	52.35
730.728	52.29
730.91	51.04
731.091	50.8
731.273	51.52
731.455	52.36
731.636	53.11
731.818	52.77
731.999	52.76
732.181	51.68
732.362	50.86
732.544	51.13
732.725	50.64
732.907	51.42
733.088	51.85
733.27	52.71
733.451	51.69
733.633	50.65
733.814	50.66
733.995	51.34
734.177	52.35
734.358	52.95
734.539	52.38
734.721	53.28
734.902	52.77
735.083	52.95
735.264	52.28
735.446	53.6
735.627	53.34
735.808	54.07
735.989	54.76
736.17	54.43
736.351	55.58
736.533	56.35
736.714	55.69
736.895	55.44
737.076	54.27
737.257	54.34
737.438	52.46
737.619	53.94
737.8	52.83
737.981	52.63
738.162	52.75
738.343	52.5
738.524	51.74
738.705	52.4
738.886	52.14
739.067	53.32
739.247	53.57
739.428	54.27
739.609	52.31
739.79	52.79
739.971	52.66
740.151	52.29
740.332	51.97
740.513	52.99
740.694	52.5
740.874	52.12
741.055	51.4
741.236	51.15
741.417	51.49
741.597	52.57
741.778	52.01
741.958	51.15
742.139	51.6
742.32	51.38
742.5	50.83
742.681	52.02
742.861	52.99
743.042	52.76
743.222	52.92
743.403	53.11
743.583	53.04
743.764	53.8
743.944	55.15
744.124	55.3
744.305	55.85
744.485	55.74
744.666	55.09
744.846	55.68
745.026	56.02
745.207	56.17
745.387	56.59
745.567	57
745.747	56.85
745.928	55.99
746.108	55.73
746.288	54.29
746.468	54.15
746.648	54.22
746.829	53.78
747.009	54.17
747.189	54.49
747.369	53.86
747.549	53.85
747.729	53.76
747.909	54.27
748.089	55.45
748.269	56.96
748.449	56.61
748.629	57.22
748.809	56.09
748.989	55.27
749.169	54.48
749.349	54.78
749.529	54.62
749.709	54.95
749.889	54.89
750.068	51.93
750.248	51.71
750.428	52.13
750.608	51.13
750.788	52.12
750.967	52.61
751.147	52.31
751.327	52.54
751.507	52.43
751.686	52.35
751.866	53.14
752.046	55.01
752.225	55.65
752.405	56.09
752.585	57.25
752.764	56.27
752.944	55.4
753.123	56.08
753.303	54.89
753.482	54.21
753.662	53.34
753.841	51.96
754.021	51.31
754.2	50.45
754.38	50.12
754.559	49.14
754.739	50.55
754.918	51.35
755.097	51.22
755.277	51.7
755.456	50.68
755.635	51.66
755.815	51.76
755.994	52.83
756.173	51.98
756.352	52.57
756.532	53.47
756.711	52.44
756.89	52.39
757.069	52.92
757.248	52.89
757.427	54.34
757.607	53.16
757.786	53.52
757.965	51.92
758.144	52.6
758.323	53.15
758.502	52.96
758.681	52.76
758.86	52.63
759.039	51.11
759.218	50.67
759.397	50.12
759.576	50.65
759.755	49.89
759.934	50.82
760.113	51.16
760.291	50.24
760.47	50.49
760.649	50.81
760.828	50.88
761.007	51
761.186	50.84
761.364	51.07
761.543	51.94
761.722	52.83
761.901	52.2
762.079	52.3
762.258	51.88
762.437	51.15
762.615	50.6
762.794	50.68
762.972	51.4
763.151	51.11
763.33	50.62
763.508	49.92
763.687	49.79
763.865	50.13
764.044	49.54
764.222	48.88
764.401	48.39
764.579	49.27
764.758	48.58
764.936	49
765.114	49.09
765.293	50.12
765.471	50.31
765.65	50.89
765.828	50.54
766.006	50.9
766.184	51.83
766.363	52.97
766.541	51.97
766.719	52.54
766.898	52.59
767.076	53.46
767.254	53.47
767.432	54.21
767.61	52.91
767.788	53.84
767.967	53.76
768.145	54.26
768.323	53.39
768.501	53.23
768.679	52.58
768.857	52.21
769.035	52.72
769.213	52.7
769.391	51.81
769.569	53.39
769.747	54.89
769.925	52.73
770.103	53.48
770.281	52.99
770.459	53.89
770.636	54.01
770.814	54.29
770.992	54.05
771.17	52.57
771.348	54.16
771.525	53.67
771.703	52.74
771.881	54.74
772.059	54.12
772.236	54.64
772.414	55.71
772.592	58.28
772.769	56.52
772.947	56.13
773.125	57.98
773.302	58.77
773.48	59.62
773.657	57.5
773.835	57.71
774.013	58.46
774.19	61.38
774.368	59.52
774.545	58.62
774.723	60.01
774.9	60.86
775.077	60.37
775.255	58.65
775.432	58.34
775.61	60
775.787	60.01
775.964	59.74
776.142	56.93
776.319	57.92
776.496	58.45
776.674	59.49
776.851	59.21
777.028	60.79
777.205	60.78
777.382	59.81
777.56	61.14
777.737	66.62
777.914	66.99
778.091	69.75
778.268	68.16
778.445	68.74
778.622	67.77
778.8	67.95
778.977	68.07
779.154	65.24
779.331	64.54
779.508	62.5
779.685	58.01
779.862	58.2
780.038	55.12
780.215	56.95
780.392	55.02
780.569	55.94
780.746	55.51
780.923	55.11
781.1	54.87
781.277	54.3
781.453	53.65
781.63	52.17
781.807	51.89
781.984	52.46
782.16	53.25
782.337	55.54
782.514	55.8
782.691	57.06
782.867	55.16
783.044	60.83
783.221	63.74
783.397	62.41
783.574	64.13
783.75	62.82
783.927	64.01
784.103	63.92
784.28	60.4
784.456	58.11
784.633	58.38
784.809	60.39
784.986	55.94
785.162	54.83
785.339	55.16
785.515	54.06
785.692	53.5
785.868	53.94
786.044	56.52
786.221	60.02
786.397	65.07
786.573	64.76
786.749	63.13
786.926	63.54
787.102	65.12
787.278	68.05
787.454	69.03
787.631	70.6
787.807	69.3
787.983	68.26
788.159	66.77
788.335	62.14
788.511	60.94
788.687	61.38
788.863	63.91
789.039	62.9
789.216	60.58
789.392	59.86
789.568	57.56
789.744	58.41
789.919	56.41
790.095	56.98
790.271	58.92
790.447	60.13
790.623	58.86
790.799	57
790.975	55.79
791.151	57.04
791.327	56.73
791.502	59.72
791.678	58.7
791.854	61.22
792.03	61.21
792.205	61.14
792.381	59.67
792.557	59.11
792.733	58.42
792.908	58.96
793.084	61.61
793.259	61.21
793.435	58.43
793.611	60.7
793.786	59.94
793.962	58.18
794.137	58.22
794.313	60.24
794.488	63.69
794.664	65.26
794.839	65.15
795.015	64.11
795.19	64.93
795.366	66.48
795.541	64.37
795.716	62.36
795.892	61.36
796.067	60.36
796.242	60.46
796.418	59.66
796.593	57.75
796.768	58.16
796.944	56.64
797.119	55.84
797.294	55.19
797.469	58.11
797.644	57.01
797.82	59.52
797.995	60.7
798.17	57.77
798.345	58.74
798.52	58.61
798.695	57.6
798.87	56.57
799.045	59.81
799.22	57.62
799.395	54.38
799.57	57.06
799.745	59.17
799.92	57.2
800.095	60.82
800.27	57.51
800.445	55.95
800.62	54.79
800.795	55.26
800.97	53.81
801.145	55.61
801.319	54.75
801.494	52.52
801.669	53.56
801.844	56.87
802.018	53.65
802.193	55.32
802.368	56.89
802.543	58.35
802.717	61.24
802.892	62.58
803.067	63.71
803.241	64.5
803.416	61.88
803.59	62.07
803.765	60.35
803.94	62.56
804.114	59.38
804.289	61.17
804.463	61.99
804.638	58.72
804.812	56.49
804.986	54.38
805.161	55.22
805.335	60.45
805.51	57.5
805.684	58.32
805.858	57.59
806.033	60.34
806.207	58.81
806.381	59.58
806.556	61.57
806.73	61.49
806.904	61.32
807.078	62.52
807.253	62.29
807.427	61.98
807.601	61.87
807.775	60.87
807.949	61.29
808.123	62.5
808.298	63.49
808.472	63.53
808.646	64.5
808.82	64.22
808.994	62.06
809.168	58.57
809.342	62.29
809.516	64.4
809.69	65.79
809.864	64.39
810.038	65.17
810.212	67.01
810.385	64.18
810.559	68.23
810.733	70.13
810.907	72.82
811.081	77.41
811.255	73.37
811.428	70.43
811.602	68.03
811.776	70.24
811.95	71.68
812.123	68.09
812.297	71.84
812.471	66.28
812.644	68.24
812.818	66.81
812.992	69.95
813.165	71.33
813.339	72.55
813.512	74.53
813.686	74.82
813.86	70.66
814.033	68.66
814.207	69.23
814.38	71.04
814.554	69.48
814.727	70.5
814.9	68.85
815.074	66.72
815.247	63.61
815.421	57.61
815.594	59.64
815.767	61.99
815.941	62.16
816.114	62.57
816.287	63.62
816.46	64.08
816.634	61.71
816.807	61.92
816.98	59.73
817.153	62.37
817.327	69.24
817.5	67.48
817.673	71.42
817.846	73.05
818.019	74.12
818.192	78.56
818.365	78.33
818.538	81.19
818.711	77.77
818.884	77.11
819.057	76.34
819.23	74.06
819.403	73.62
819.576	72.98
819.749	73.72
819.922	70.45
820.095	64.11
820.268	61.66
820.441	61.82
820.614	62.69
820.786	62.87
820.959	61.59
821.132	59.69
821.305	56.4
821.477	52.65
821.65	50.16
821.823	49.65
821.996	49.61
822.168	49.6
822.341	47.83
822.514	47.45
822.686	46.91
822.859	46.55
823.031	46.44
823.204	46.88
823.376	47.42
823.549	47.62
823.722	47.56
823.894	47.94
824.067	47.53
824.239	47.38
824.411	47.3
824.584	48.51
824.756	48.26
824.929	48.03
825.101	48.32
825.273	48.06
825.446	48.99
825.618	49.34
825.79	48.57
825.963	48.9
826.135	50.02
826.307	49.99
826.479	49.26
826.652	50.01
826.824	50.56
826.996	50.12
827.168	51.06
827.34	49.86
827.512	50.07
827.684	50.13
827.856	50.13
828.029	49.6
828.201	48.83
828.373	48.49
828.545	47.77
828.717	48.28
828.889	48.52
829.061	48.2
829.232	48.49
829.404	48.91
829.576	49.24
829.748	50.61
829.92	53.56
830.092	55.43
830.264	55.01
830.436	56.42
830.607	56.49
830.779	58.7
830.951	57.96
831.123	59.5
831.294	57.92
831.466	58.3
831.638	57.71
831.809	54.01
831.981	56.03
832.153	57.36
832.324	56.81
832.496	57.45
832.667	57.85
832.839	61.68
833.011	60.11
833.182	64.17
833.354	62.6
833.525	62.54
833.697	61.59
833.868	58.81
834.039	59.32
834.211	59.11
834.382	58.65
834.554	57.22
834.725	55.44
834.896	53.56
835.068	52.41
835.239	52.18
835.41	53.67
835.581	53.45
835.753	52.55
835.924	51.35
836.095	50.96
836.266	51.68
836.438	51.16
836.609	51.05
836.78	52.76
836.951	53.73
837.122	55.04
837.293	54.39
837.464	56.7
837.635	59.69
837.806	60.78
837.977	61.69
838.148	63.42
838.319	66.22
838.49	67.72
838.661	68.25
838.832	71.92
839.003	74.44
839.174	74.35
839.345	77.32
839.516	73.98
839.687	79.73
839.857	78.28
840.028	74.06
840.199	73.92
840.37	74.66
840.54	79.89
840.711	74.8
840.882	73.09
841.053	71.06
841.223	71.25
841.394	76.06
841.564	75.93
841.735	78.63
841.906	78.74
842.076	74.84
842.247	69.05
842.417	59.27
842.588	59.52
842.758	65.79
842.929	70.84
843.099	70.11
843.27	70.86
843.44	71.35
843.611	75.25
843.781	81.55
843.951	80.76
844.122	84.72
844.292	85.72
844.462	89.53
844.633	85.64
844.803	81.94
844.973	82.04
845.144	81.31
845.314	76.66
845.484	74.95
845.654	73.99
845.824	76.59
845.995	76.35
846.165	83.44
846.335	79.14
846.505	86.88
846.675	89.47
846.845	91.75
847.015	108.68
847.185	111.61
847.355	117.1
847.525	101.96
847.695	107.36
847.865	118.08
848.035	122.45
848.205	112.11
848.375	107.7
848.545	112.65
848.715	100.23
848.884	87.57
849.054	88.42
849.224	84.53
849.394	98.06
849.564	97.02
849.733	95.18
849.903	90.13
850.073	86.23
850.243	80.28
850.412	86.79
850.582	91.56
850.752	96.82
850.921	94.05
851.091	108.27
851.26	110.01
851.43	98.59
851.599	101.01
851.769	100.25
851.939	114.33
852.108	107.8
852.278	100.12
852.447	109.6
852.616	108.49
852.786	108.92
852.955	102.8
853.125	92.98
853.294	108.36
853.463	104.73
853.633	111.76
853.802	131.17
853.971	163.19
854.141	157.89
854.31	164.09
854.479	161.86
854.648	183.84
854.818	161.82
854.987	181.27
855.156	159.44
855.325	161.6
855.494	162.39
855.663	128.3
855.832	114.87
856.001	114.3
856.171	97.92
856.34	105.19
856.509	110.76
856.678	122.28
856.847	114.78
857.016	115.62
857.185	118.03
857.353	121.47
857.522	134.89
857.691	133.63
857.86	128.86
858.029	131.46
858.198	133.49
858.367	121.52
858.535	117.55
858.704	122.79
858.873	135.7
859.042	131.42
859.21	133.22
859.379	119.7
859.548	108.2
859.717	112.43
859.885	107.98
860.054	94.96
860.222	87.99
860.391	85.74
860.56	81.53
860.728	84.33
860.897	79.19
861.065	70.22
861.234	78.48
861.402	80.81
861.571	76.51
861.739	80.48
861.908	77.8
862.076	93.59
862.244	93.43
862.413	98.12
862.581	96.34
862.749	100.84
862.918	96.08
863.086	93.58
863.254	101.33
863.423	116.62
863.591	103.92
863.759	103.21
863.927	81.9
864.096	71.91
864.264	63.76
864.432	62.78
864.6	78.97
864.768	77.19
864.936	82.86
865.104	79.39
865.272	76.77
865.44	98.87
865.608	92.56
865.776	105.19
865.944	108.64
866.112	111.94
866.28	124.84
866.448	104.51
866.616	130.26
866.784	113.67
866.952	106.11
867.12	110.74
867.288	97.45
867.455	124.93
867.623	133.23
867.791	140.32
867.959	153.07
868.127	127.6
868.294	114.3
868.462	89.92
868.63	94.66
868.797	107.22
868.965	84.66
869.133	69.55
869.3	62.09
869.468	69.83
869.636	68.35
869.803	65.8
869.971	70.13
870.138	67.43
870.306	73.87
870.473	80.64
870.641	81.56
870.808	86.53
870.975	86.64
871.143	89.6
871.31	79.57
871.478	74.5
871.645	81.89
871.812	98.88
871.98	123.11
872.147	119.07
872.314	100.4
872.482	85.68
872.649	94.12
872.816	102.72
872.983	108.42
873.15	120.55
873.318	130.24
873.485	141.19
873.652	123.09
873.819	117.28
873.986	128.42
874.153	143.71
874.32	163.34
874.487	184.82
874.654	197.66
874.821	193.84
874.988	178.05
875.155	185.83
875.322	142.37
875.489	167.01
875.656	154.17
875.823	144.95
875.99	124.72
876.157	92.19
876.324	77.65
876.49	68.87
876.657	69.83
876.824	74.64
876.991	70.7
877.157	73.16
877.324	71.88
877.491	81.9
877.658	79.76
877.824	83.44
877.991	100.28
878.157	103.04
878.324	119.35
878.491	121.5
878.657	117.66
878.824	120.81
878.99	119.45
879.157	120.73
879.323	117.68
879.49	121.18
879.656	119.02
879.823	125.94
879.989	126.27
880.156	126.63
880.322	118.11
880.488	112.56
880.655	103.18
880.821	105.94
880.987	103.83
881.154	100.09
881.32	93.03
881.486	92.74
881.652	81.09
881.819	77.14
881.985	73.55
882.151	72.37
882.317	69.39
882.483	70.54
882.649	68.62
882.816	63.91
882.982	63.31
883.148	62.21
883.314	59.7
883.48	58.34
883.646	57.67
883.812	56.77
883.978	58.13
884.144	58.98
884.31	58.76
884.476	57.47
884.642	57.63
884.807	55.53
884.973	54.93
885.139	55.75
885.305	56.41
885.471	55.59
885.637	55.47
885.802	53.97
885.968	54.87
886.134	56.32
886.3	58.15
886.465	59.24
886.631	63.18
886.797	66.98
886.962	68.8
887.128	71.6
887.293	77.69
887.459	79.27
887.625	84.65
887.79	85.39
887.956	83.45
888.121	83.96
888.287	89
888.452	92.88
888.618	93.86
888.783	92.7
