Data from CB_029_Reflection_1.txt Node
Date: Wed Nov 11 20:46:18 EST 2015
User: robert
Spectrometer: USB4E03001
Autoset integration time: false
Trigger mode: 4
Integration Time (sec): 1.000000E-1
Scans to average: 15
Electric dark correction enabled: true
Nonlinearity correction enabled: false
Boxcar width: 5
Stray light correction enabled: false
XAxis mode: Wavelengths
Stop averaging: false
Number of Pixels in Spectrum: 3648
>>>>>Begin Spectral Data<<<<<
177.566	-108.06
177.785	-236.71
178.005	748.78
178.225	-233.24
178.445	-62.61
178.665	116.18
178.885	396.34
179.105	3556.52
179.324	405.91
179.544	519.16
179.764	-433.12
179.984	-549.66
180.204	24235
180.423	464.97
180.643	-1919
180.863	3494.47
181.083	490.71
181.302	1104.24
181.522	1412.89
181.742	-3449.47
181.961	-705.28
182.181	-5932.85
182.401	4092.34
182.621	-462.71
182.84	-397.56
183.06	-291
183.279	-644.5
183.499	-334.61
183.719	-357.59
183.938	-371.05
184.158	-281.57
184.377	-175.8
184.597	-254.17
184.816	-230.48
185.036	-346.84
185.256	-291.97
185.475	-349.64
185.695	-198.39
185.914	-288.29
186.134	-2792
186.353	3684.7
186.572	473.93
186.792	555.95
187.011	1435.5
187.231	1514.94
187.45	540.72
187.67	446.78
187.889	289.86
188.108	256.67
188.328	407.32
188.547	706.9
188.766	1095.28
188.986	4574.67
189.205	6392.79
189.424	1763.89
189.644	688.8
189.863	754.09
190.082	3121.44
190.302	498.79
190.521	709.96
190.74	324.58
190.959	280.36
191.178	254.61
191.398	340.99
191.617	396.71
191.836	853.25
192.055	557.28
192.274	623.38
192.494	992.86
192.713	1770.47
192.932	3812.13
193.151	-464.16
193.37	-420.33
193.589	-526.21
193.808	-760.69
194.027	-701.32
194.246	-1734.53
194.465	-364.24
194.685	-1049.43
194.904	1239.23
195.123	-975.55
195.342	-154.7
195.561	-885.44
195.78	-6685.44
195.999	-217.68
196.218	-156.13
196.436	-516.27
196.655	1217.87
196.874	787.01
197.093	1730.37
197.312	-524.01
197.531	1785.78
197.75	887.51
197.969	887.41
198.188	1569.52
198.407	857.16
198.625	744.57
198.844	1192.18
199.063	-4221.21
199.282	-2017.97
199.501	-1079.08
199.719	-1189.69
199.938	-687.32
200.157	3381.82
200.376	-206.66
200.594	-566.17
200.813	-240.43
201.032	504.5
201.251	294.56
201.469	314.3
201.688	258.12
201.907	637.34
202.125	438.73
202.344	1396.36
202.563	678.53
202.781	676.52
203	362.45
203.218	156.51
203.437	387.43
203.656	624.96
203.874	443.22
204.093	970.81
204.311	776.44
204.53	326.66
204.748	469.92
204.967	611.71
205.185	9281.9
205.404	-382.02
205.622	-135.02
205.841	-85.7
206.059	-89.82
206.278	-70.55
206.496	-145.9
206.715	-302.39
206.933	-120.43
207.151	-242.06
207.37	-262.97
207.588	-557.41
207.806	-171.65
208.025	-268.42
208.243	320.36
208.461	253.37
208.68	185.85
208.898	-593.62
209.116	-22.95
209.335	-449.09
209.553	-36.29
209.771	-270.73
209.989	174.45
210.208	122.94
210.426	188.55
210.644	385.27
210.862	398.01
211.081	309.31
211.299	273.51
211.517	241.3
211.735	677.71
211.953	263.84
212.171	430.23
212.39	-2531.62
212.608	-284.02
212.826	-143.94
213.044	-117.72
213.262	-199.58
213.48	-129.12
213.698	-114.17
213.916	-191.1
214.134	-250.62
214.352	-168.57
214.57	-12.65
214.788	-218.55
215.006	-533.46
215.224	315.49
215.442	744.33
215.66	316.49
215.878	390.48
216.096	293.45
216.314	394.75
216.532	709.94
216.75	1193.8
216.968	448.6
217.185	283.8
217.403	247.74
217.621	619.86
217.839	252.9
218.057	435.53
218.275	786.96
218.492	-1347.56
218.71	567.24
218.928	298.52
219.146	339.52
219.363	1934.48
219.581	-927.03
219.799	-205.13
220.017	-443.9
220.234	-285.64
220.452	-335.56
220.67	-708.49
220.887	4752.15
221.105	-814.64
221.323	-207.48
221.54	-207.47
221.758	-732.88
221.976	-259.97
222.193	-227.48
222.411	-157.73
222.629	-194.69
222.846	-297.78
223.064	-167.48
223.281	-112.8
223.499	-89.73
223.716	-160.63
223.934	-165.98
224.151	-68.31
224.369	-90.66
224.586	-96.52
224.804	-67.59
225.021	-67.52
225.239	-77.85
225.456	-90.01
225.674	-62.13
225.891	-63.82
226.108	-56.22
226.326	-70.5
226.543	-71.35
226.76	-37.06
226.978	-30.99
227.195	-30.54
227.413	-8.89
227.63	0.94
227.847	-3.93
228.064	-6.04
228.282	-3.08
228.499	-1.76
228.716	2.8
228.934	4.03
229.151	-0.85
229.368	0.61
229.585	-2.63
229.802	-6.15
230.02	-10.63
230.237	-9.18
230.454	-7.75
230.671	-12.9
230.888	-11.39
231.105	-7.97
231.323	-6.97
231.54	-7.99
231.757	-10.89
231.974	-12.07
232.191	-7.02
232.408	-4.97
232.625	-3.09
232.842	-6.25
233.059	-4.66
233.276	-4.96
233.493	-18.28
233.71	-27.24
233.927	-18.54
234.144	-19.03
234.361	-11.12
234.578	-20.8
234.795	-26.1
235.012	-31.84
235.229	-32.5
235.446	-30.89
235.663	-40.79
235.879	-33.76
236.096	-21.34
236.313	-38.99
236.53	-37.63
236.747	-40.29
236.964	-36.62
237.181	-36.91
237.397	-36.67
237.614	-35.83
237.831	-35.24
238.048	-31.47
238.264	-34.01
238.481	-37.83
238.698	-25.43
238.915	-19.31
239.131	-16.99
239.348	-16.85
239.565	-8.05
239.781	-10.04
239.998	-9.97
240.215	-7.2
240.431	-4.04
240.648	-3.7
240.865	-3.65
241.081	-6.87
241.298	-11.8
241.514	-8.83
241.731	-4.8
241.947	-5.63
242.164	-1.86
242.38	0.15
242.597	0.32
242.814	-0.24
243.03	2.26
243.246	1.87
243.463	3.5
243.679	4.03
243.896	3.54
244.112	3.59
244.329	4.5
244.545	0.61
244.762	-3.15
244.978	-1.67
245.194	0.39
245.411	-0.85
245.627	-2.4
245.843	-1.35
246.06	0.33
246.276	1.58
246.492	0.2
246.709	2.96
246.925	4.9
247.141	6.15
247.357	6.28
247.574	4.8
247.79	5.27
248.006	5.29
248.222	5.76
248.439	6.39
248.655	6.32
248.871	7.63
249.087	6.17
249.303	6.64
249.519	5.06
249.736	3.97
249.952	5.43
250.168	4.5
250.384	7.06
250.6	4.39
250.816	1.31
251.032	1.21
251.248	1.44
251.464	1.06
251.68	0.57
251.896	-0.56
252.112	-1.3
252.328	-1.41
252.544	-2.65
252.76	-3.41
252.976	-0.08
253.192	2.93
253.408	0.23
253.624	-1.43
253.84	-1.71
254.056	-4.57
254.272	-1.18
254.487	0.43
254.703	-1.36
254.919	-1.49
255.135	-3.04
255.351	-8.19
255.567	-11.35
255.782	-5.95
255.998	-6.28
256.214	-11.65
256.43	-13.21
256.646	-14.06
256.861	-10.87
257.077	-6.88
257.293	-7.61
257.508	-7
257.724	-5.4
257.94	-3.92
258.155	-2.84
258.371	-2.98
258.587	1.1
258.802	1.02
259.018	3.39
259.234	2.88
259.449	3.12
259.665	3.26
259.88	4.22
260.096	4.85
260.312	5.02
260.527	3.66
260.743	4.08
260.958	2.95
261.174	3.93
261.389	2.34
261.605	2.03
261.82	0.5
262.036	1.42
262.251	-1.6
262.466	-3.07
262.682	-4.24
262.897	-2.7
263.113	-2.24
263.328	-1.44
263.543	-1.97
263.759	-1.23
263.974	-3.26
264.189	-3.51
264.405	-3.02
264.62	-1.2
264.835	0.37
265.051	0.06
265.266	-0.52
265.481	0.36
265.696	-1.62
265.912	-1.43
266.127	-2.95
266.342	-1.8
266.557	-0.32
266.773	-0.43
266.988	1.18
267.203	-1.57
267.418	-1.68
267.633	-1.33
267.848	-2.1
268.064	-0.32
268.279	0.32
268.494	1.85
268.709	3.6
268.924	2.56
269.139	2.18
269.354	-0.09
269.569	-0.11
269.784	0.41
269.999	2.11
270.214	2.68
270.429	2.08
270.644	1.89
270.859	1.35
271.074	0.03
271.289	1
271.504	1.98
271.719	2.81
271.934	3.85
272.149	4.75
272.363	4.11
272.578	4.63
272.793	5.16
273.008	5.26
273.223	5.9
273.438	6.2
273.653	5.87
273.867	4.79
274.082	5.44
274.297	6.16
274.512	5.55
274.726	5.7
274.941	3.96
275.156	3.07
275.371	2.77
275.585	1.97
275.8	1.57
276.015	2.36
276.229	3.64
276.444	3.58
276.659	3.44
276.873	2.61
277.088	-0.42
277.302	-0.73
277.517	0.98
277.732	-0.19
277.946	0.62
278.161	1.39
278.375	1.08
278.59	-0.32
278.804	-1.77
279.019	-2.87
279.233	-2.91
279.448	0
279.662	0.44
279.877	0.38
280.091	2.62
280.306	3.29
280.52	3.08
280.735	2.41
280.949	2.66
281.163	3.05
281.378	3.76
281.592	4.95
281.806	3.69
282.021	4.48
282.235	2.21
282.449	0.38
282.664	0.84
282.878	0.62
283.092	0.64
283.307	-0.17
283.521	0.14
283.735	-1.08
283.949	-2.28
284.164	-2.49
284.378	-2.09
284.592	0.09
284.806	0.35
285.02	-1.1
285.234	-1.31
285.449	-1.18
285.663	0.39
285.877	1.05
286.091	2.17
286.305	1.68
286.519	3.28
286.733	3.66
286.947	3.55
287.161	4.49
287.375	4.72
287.589	4.88
287.803	4.84
288.017	4.72
288.231	5.28
288.445	5.42
288.659	6.34
288.873	5.51
289.087	5.48
289.301	4.57
289.515	5.23
289.729	5.9
289.943	5.41
290.157	6.84
290.371	6.22
290.584	5.51
290.798	4.95
291.012	4.02
291.226	3.45
291.44	2.87
291.654	2.29
291.867	1.48
292.081	0.96
292.295	1.52
292.509	0.49
292.722	-0.44
292.936	-0.34
293.15	0.11
293.364	0.58
293.577	1.91
293.791	1.44
294.005	2.78
294.218	2.45
294.432	2.69
294.645	2.2
294.859	2.26
295.073	3.91
295.286	4.54
295.5	5.53
295.713	6.32
295.927	6.66
296.14	7.23
296.354	7.37
296.568	8.26
296.781	7.83
296.994	7.98
297.208	8.94
297.421	8.7
297.635	8.12
297.848	7.14
298.062	7.63
298.275	8.49
298.489	8.34
298.702	9.02
298.915	8.98
299.129	9.1
299.342	10.2
299.555	8.61
299.769	8.09
299.982	8.35
300.195	8.62
300.409	8.73
300.622	6.84
300.835	6.52
301.048	6.32
301.262	5.09
301.475	5.55
301.688	3.84
301.901	5.3
302.115	5.05
302.328	5.02
302.541	6.41
302.754	5.66
302.967	6.37
303.18	7.48
303.393	7.66
303.607	8.13
303.82	8.03
304.033	8.74
304.246	8.42
304.459	9.51
304.672	10.22
304.885	8.95
305.098	8.72
305.311	8.57
305.524	8.14
305.737	7.04
305.95	8.23
306.163	7.93
306.376	8.37
306.589	7.76
306.802	8.07
307.015	6.75
307.228	7.29
307.44	7.1
307.653	5.92
307.866	4.75
308.079	6.24
308.292	4.35
308.505	4.18
308.718	3.83
308.93	3.48
309.143	3.11
309.356	5.11
309.569	5.64
309.781	5.41
309.994	6.76
310.207	8.3
310.42	7.82
310.632	7.92
310.845	8.51
311.058	9.66
311.27	10.58
311.483	10.42
311.696	9.56
311.908	8.38
312.121	8.65
312.333	7.82
312.546	6.81
312.759	6.01
312.971	7.07
313.184	6.86
313.396	5.16
313.609	6.52
313.821	5.62
314.034	4.77
314.246	4.99
314.459	5.03
314.671	5.35
314.884	4.9
315.096	6.42
315.309	6.95
315.521	7.88
315.733	8.96
315.946	7.24
316.158	7.93
316.371	9.42
316.583	9.97
316.795	10.02
317.008	10.57
317.22	10.49
317.432	10.01
317.644	8.27
317.857	8.19
318.069	8.93
318.281	9.07
318.494	9.04
318.706	8.09
318.918	8.84
319.13	9.81
319.342	9.47
319.555	10.06
319.767	9.83
319.979	10.63
320.191	8.69
320.403	8.15
320.615	7.91
320.827	7.24
321.039	7.67
321.252	7.15
321.464	6.62
321.676	6.95
321.888	7.96
322.1	7.75
322.312	7.93
322.524	8.88
322.736	8.49
322.948	8.96
323.16	9.9
323.372	11.13
323.584	11.02
323.796	11.55
324.007	11.11
324.219	11.58
324.431	12.05
324.643	12.02
324.855	12.87
325.067	13.53
325.279	13.99
325.491	14.03
325.702	13.97
325.914	14.43
326.126	14.68
326.338	15.64
326.55	15.27
326.761	15.12
326.973	16.13
327.185	15.54
327.396	15.15
327.608	15.1
327.82	15.22
328.032	14.1
328.243	13.43
328.455	13.32
328.666	13.69
328.878	13.8
329.09	13.88
329.301	13.79
329.513	13.76
329.725	14.35
329.936	14.45
330.148	15.16
330.359	15.91
330.571	16.88
330.782	17.66
330.994	17.36
331.205	16.93
331.417	17.59
331.628	16.91
331.84	18.71
332.051	18.89
332.262	19.02
332.474	19.74
332.685	18.46
332.897	18.78
333.108	18.16
333.319	18.02
333.531	18.56
333.742	18.22
333.953	17.65
334.165	17.91
334.376	17.55
334.587	16.86
334.799	15.77
335.01	16.96
335.221	17.21
335.432	17.06
335.644	17.28
335.855	17.06
336.066	17.44
336.277	16.9
336.488	15.68
336.7	16.09
336.911	17.23
337.122	16.69
337.333	16.87
337.544	16.22
337.755	15.58
337.966	15.07
338.177	14.71
338.388	15.64
338.599	17.42
338.811	17.96
339.022	18.55
339.233	17.82
339.444	18.46
339.655	17.98
339.866	17.61
340.076	18.51
340.287	18.52
340.498	19.47
340.709	18.16
340.92	18.45
341.131	18.15
341.342	17.06
341.553	16.89
341.764	17.49
341.975	17.48
342.185	18.28
342.396	19.3
342.607	19.91
342.818	19
343.029	19.63
343.239	18.23
343.45	18.63
343.661	19.15
343.872	19.62
344.082	19.8
344.293	20.45
344.504	20.05
344.714	19.23
344.925	18.88
345.136	18.96
345.346	19.22
345.557	20.2
345.768	19.25
345.978	19.05
346.189	18.42
346.399	18
346.61	17.99
346.821	17.69
347.031	17.55
347.242	17.15
347.452	17.33
347.663	16.67
347.873	16.56
348.084	17.24
348.294	17.21
348.504	17.89
348.715	17.17
348.925	16.61
349.136	17.62
349.346	17.36
349.557	17.74
349.767	18.23
349.977	18.61
350.188	17.77
350.398	18
350.608	17.97
350.819	17.97
351.029	18.74
351.239	18.38
351.449	18.04
351.66	17.85
351.87	18.19
352.08	17.73
352.29	16.9
352.501	17.11
352.711	16.36
352.921	16.08
353.131	16.01
353.341	15.38
353.552	16.39
353.762	16.87
353.972	17.4
354.182	17.11
354.392	16.49
354.602	16.52
354.812	17.14
355.022	17.85
355.232	18.26
355.442	18.53
355.652	19.1
355.862	18.84
356.072	18.98
356.282	18.94
356.492	18.65
356.702	19.37
356.912	19.49
357.122	19.02
357.332	18.95
357.542	19.29
357.752	19.22
357.962	19.59
358.171	19.22
358.381	18.55
358.591	17.88
358.801	18.46
359.011	18.34
359.221	18.46
359.43	17.95
359.64	17.67
359.85	17.85
360.06	17.11
360.269	16.86
360.479	16.78
360.689	16.91
360.899	17.6
361.108	17.02
361.318	17.49
361.528	17.55
361.737	18.46
361.947	18.82
362.156	18.42
362.366	18.66
362.576	18.56
362.785	18.56
362.995	18.46
363.204	18.34
363.414	18.84
363.623	18.65
363.833	18.19
364.042	17.92
364.252	17.66
364.461	16.92
364.671	17.11
364.88	16.59
365.09	17.04
365.299	17.04
365.509	16.63
365.718	16.24
365.927	16.07
366.137	16.21
366.346	15.74
366.555	15.87
366.765	15.85
366.974	15.71
367.183	15.27
367.393	15.05
367.602	14.86
367.811	14.78
368.021	14.63
368.23	14.35
368.439	14.66
368.648	14.98
368.857	14.37
369.067	14.81
369.276	14.86
369.485	15.55
369.694	15.08
369.903	14.42
370.112	14.46
370.321	14.37
370.531	14.24
370.74	14.37
370.949	14.57
371.158	14.68
371.367	14.36
371.576	14.48
371.785	14.34
371.994	14.35
372.203	14.98
372.412	15.53
372.621	16.01
372.83	16.3
373.039	15.8
373.248	15.43
373.457	15.1
373.666	15.84
373.874	15.54
374.083	15.61
374.292	15.48
374.501	15.37
374.71	14.97
374.919	14.82
375.128	13.79
375.336	14.62
375.545	14.98
375.754	15.55
375.963	15.25
376.171	15.01
376.38	14.81
376.589	14.62
376.798	14.34
377.006	14.41
377.215	14.22
377.424	14.77
377.632	13.59
377.841	12.78
378.05	12.36
378.258	12.19
378.467	12.49
378.675	12.36
378.884	13.06
379.093	13.24
379.301	12.86
379.51	12.71
379.718	12.45
379.927	12.96
380.135	13.3
380.344	13.52
380.552	13.64
380.761	13.28
380.969	13.18
381.177	12.62
381.386	12.41
381.594	12.3
381.803	11.89
382.011	12.29
382.219	12.53
382.428	12.2
382.636	12.13
382.845	11.72
383.053	11.58
383.261	11.61
383.469	11.5
383.678	11.83
383.886	11.93
384.094	11.95
384.302	11.82
384.511	11.69
384.719	11.66
384.927	11.27
385.135	11.05
385.343	11.21
385.552	10.99
385.76	11.23
385.968	11.06
386.176	11.13
386.384	11.29
386.592	10.67
386.8	10.15
387.008	9.97
387.216	9.82
387.424	10.13
387.633	9.81
387.841	10.09
388.049	9.61
388.257	9.52
388.465	9.76
388.672	9.75
388.88	10.06
389.088	10.44
389.296	10.69
389.504	10.88
389.712	10.72
389.92	10.89
390.128	10.64
390.336	10.73
390.544	10.19
390.751	9.82
390.959	9.82
391.167	9.69
391.375	9.76
391.583	9.59
391.79	9.83
391.998	9.94
392.206	9.88
392.414	10.22
392.621	10.37
392.829	11.02
393.037	10.8
393.244	10.86
393.452	10.65
393.66	10.69
393.867	10.71
394.075	10.59
394.283	9.98
394.49	10.08
394.698	10.05
394.905	10.14
395.113	9.92
395.32	10.32
395.528	10.13
395.735	10.26
395.943	9.87
396.15	9.98
396.358	9.69
396.565	9.82
396.773	9.17
396.98	8.98
397.188	8.69
397.395	8.81
397.602	8.3
397.81	8.13
398.017	7.84
398.225	7.89
398.432	8.06
398.639	8.37
398.847	8.39
399.054	8.93
399.261	8.67
399.468	8.51
399.676	8.26
399.883	8.52
400.09	8.49
400.297	8.92
400.505	8.96
400.712	8.49
400.919	8.45
401.126	8.68
401.333	8.65
401.54	8.38
401.748	8.23
401.955	8.11
402.162	8.28
402.369	8.22
402.576	8.27
402.783	8.25
402.99	8.23
403.197	8.2
403.404	8.12
403.611	8
403.818	8.18
404.025	8.47
404.232	8.41
404.439	8.21
404.646	8.09
404.853	7.85
405.06	7.55
405.267	7.77
405.474	7.71
405.681	7.49
405.887	7.15
406.094	7.46
406.301	7.33
406.508	7.41
406.715	7.31
406.922	7.74
407.128	7.66
407.335	8.04
407.542	7.85
407.749	7.54
407.955	7.89
408.162	8.13
408.369	7.87
408.575	7.92
408.782	7.84
408.989	7.91
409.195	7.6
409.402	7.72
409.609	7.55
409.815	7.3
410.022	7.33
410.228	7.3
410.435	7.32
410.642	7.5
410.848	7.42
411.055	7.27
411.261	7.02
411.468	7.24
411.674	7.28
411.881	7.13
412.087	7.29
412.294	7.34
412.5	7.24
412.706	7.38
412.913	7.04
413.119	7.05
413.326	7.31
413.532	7.54
413.738	7.54
413.945	7.39
414.151	7.3
414.357	7.21
414.564	7.32
414.77	7.38
414.976	7.5
415.182	7.42
415.389	7.79
415.595	7.7
415.801	7.7
416.007	7.56
416.214	7.75
416.42	7.99
416.626	8.14
416.832	8.07
417.038	7.92
417.244	7.89
417.45	8.22
417.657	7.91
417.863	7.95
418.069	7.92
418.275	7.93
418.481	7.89
418.687	7.87
418.893	7.91
419.099	8.09
419.305	8.14
419.511	8.02
419.717	7.91
419.923	7.91
420.129	7.88
420.335	7.94
420.541	7.96
420.746	7.96
420.952	7.86
421.158	7.85
421.364	7.84
421.57	7.88
421.776	7.84
421.982	7.73
422.187	7.77
422.393	7.7
422.599	7.59
422.805	7.58
423.01	7.56
423.216	7.6
423.422	7.46
423.628	7.24
423.833	7.26
424.039	7.21
424.245	7.22
424.45	7.14
424.656	7.26
424.862	7.33
425.067	7.23
425.273	7.25
425.478	7.22
425.684	7.3
425.889	7.17
426.095	7.1
426.301	7.05
426.506	6.96
426.712	6.84
426.917	6.56
427.123	6.39
427.328	6.4
427.533	6.5
427.739	6.25
427.944	6.05
428.15	6.29
428.355	6.26
428.561	6.34
428.766	6.54
428.971	6.7
429.177	6.78
429.382	6.7
429.587	6.79
429.793	6.45
429.998	6.7
430.203	6.64
430.408	6.62
430.614	6.79
430.819	6.66
431.024	6.52
431.229	6.55
431.434	6.59
431.64	6.76
431.845	6.79
432.05	6.89
432.255	6.84
432.46	7.06
432.665	7.06
432.87	6.89
433.076	6.89
433.281	6.9
433.486	6.77
433.691	6.73
433.896	6.57
434.101	6.62
434.306	6.55
434.511	6.53
434.716	6.55
434.921	6.52
435.126	6.53
435.331	6.62
435.535	6.55
435.74	6.63
435.945	6.7
436.15	6.74
436.355	6.71
436.56	6.8
436.765	6.74
436.97	6.7
437.174	6.56
437.379	6.68
437.584	6.59
437.789	6.78
437.993	6.77
438.198	6.77
438.403	6.66
438.608	6.53
438.812	6.57
439.017	6.61
439.222	6.61
439.426	6.78
439.631	6.74
439.836	6.96
440.04	7.07
440.245	7.17
440.45	7.21
440.654	7.27
440.859	7.36
441.063	7.23
441.268	7.26
441.472	7.12
441.677	7.09
441.881	6.95
442.086	7.01
442.29	6.85
442.495	6.75
442.699	6.77
442.904	6.72
443.108	6.78
443.312	6.66
443.517	6.6
443.721	6.72
443.925	6.72
444.13	6.73
444.334	6.48
444.538	6.47
444.743	6.42
444.947	6.39
445.151	6.52
445.356	6.34
445.56	6.58
445.764	6.63
445.968	6.64
446.173	6.55
446.377	6.7
446.581	6.72
446.785	6.76
446.989	6.68
447.193	6.58
447.398	6.5
447.602	6.67
447.806	6.46
448.01	6.55
448.214	6.51
448.418	6.67
448.622	6.66
448.826	6.72
449.03	6.64
449.234	6.7
449.438	6.85
449.642	7.01
449.846	6.72
450.05	6.83
450.254	6.86
450.458	6.9
450.662	6.72
450.866	6.58
451.069	6.36
451.273	6.41
451.477	6.48
451.681	6.37
451.885	6.16
452.089	6.38
452.292	6.39
452.496	6.3
452.7	6.5
452.904	6.63
453.107	6.64
453.311	6.72
453.515	6.61
453.719	6.68
453.922	6.66
454.126	6.67
454.33	6.59
454.533	6.53
454.737	6.52
454.94	6.22
455.144	6.03
455.348	6.06
455.551	6.07
455.755	6.26
455.958	6.06
456.162	5.93
456.365	6.13
456.569	6.18
456.772	6.41
456.976	6.3
457.179	6.32
457.383	6.42
457.586	6.52
457.79	6.47
457.993	6.18
458.196	6.36
458.4	6.65
458.603	6.6
458.807	6.69
459.01	6.61
459.213	6.55
459.417	6.69
459.62	6.73
459.823	6.64
460.026	6.65
460.23	6.81
460.433	6.81
460.636	6.75
460.839	6.66
461.042	6.58
461.246	6.49
461.449	6.55
461.652	6.49
461.855	6.63
462.058	6.66
462.261	6.78
462.464	6.79
462.668	6.7
462.871	6.53
463.074	6.84
463.277	6.85
463.48	7.07
463.683	7.13
463.886	6.91
464.089	6.44
464.292	6.18
464.495	6.13
464.698	6
464.901	5.97
465.104	6.06
465.306	5.84
465.509	5.82
465.712	5.7
465.915	5.55
466.118	5.79
466.321	6.16
466.524	6.5
466.726	6.59
466.929	6.57
467.132	6.48
467.335	6.46
467.538	6.53
467.74	6.5
467.943	6.46
468.146	6.6
468.348	6.91
468.551	6.96
468.754	6.92
468.956	6.77
469.159	6.85
469.362	6.86
469.564	7.04
469.767	6.84
469.969	6.82
470.172	6.81
470.375	6.79
470.577	6.16
470.78	6.08
470.982	6.07
471.185	6.28
471.387	6.4
471.59	6.44
471.792	6.34
471.995	6.41
472.197	6.38
472.399	6.55
472.602	6.58
472.804	6.96
473.007	6.99
473.209	6.99
473.411	6.77
473.614	6.61
473.816	6.91
474.018	6.72
474.22	6.65
474.423	6.64
474.625	6.53
474.827	6.63
475.03	6.6
475.232	6.34
475.434	6.43
475.636	6.46
475.838	6.61
476.04	6.48
476.243	6.57
476.445	6.76
476.647	6.9
476.849	7.04
477.051	6.81
477.253	6.74
477.455	6.8
477.657	6.66
477.859	6.72
478.061	6.73
478.263	6.67
478.465	6.6
478.667	6.52
478.869	6.52
479.071	6.34
479.273	6.37
479.475	6.19
479.677	6.08
479.879	5.93
480.081	5.78
480.283	5.74
480.485	5.81
480.686	5.94
480.888	5.86
481.09	5.77
481.292	5.89
481.494	5.92
481.695	6.12
481.897	6.28
482.099	6.44
482.301	6.56
482.502	6.58
482.704	6.65
482.906	6.73
483.107	6.78
483.309	6.83
483.511	6.86
483.712	6.92
483.914	6.93
484.115	6.94
484.317	6.93
484.519	6.96
484.72	7
484.922	6.99
485.123	6.92
485.325	6.93
485.526	6.96
485.728	6.93
485.929	6.9
486.131	6.89
486.332	6.84
486.534	6.89
486.735	6.84
486.936	6.74
487.138	6.8
487.339	6.85
487.541	6.76
487.742	6.68
487.943	6.67
488.144	6.62
488.346	6.55
488.547	6.5
488.748	6.44
488.95	6.44
489.151	6.43
489.352	6.36
489.553	6.36
489.755	6.51
489.956	6.51
490.157	6.5
490.358	6.55
490.559	6.63
490.76	6.75
490.961	6.79
491.163	6.72
491.364	6.77
491.565	6.61
491.766	6.6
491.967	6.57
492.168	6.72
492.369	6.79
492.57	6.72
492.771	6.62
492.972	6.57
493.173	6.55
493.374	6.61
493.575	6.51
493.776	6.68
493.976	6.64
494.177	6.51
494.378	6.32
494.579	6.1
494.78	6.19
494.981	6.42
495.182	6.46
495.382	6.38
495.583	6.28
495.784	6.42
495.985	6.4
496.185	6.35
496.386	6.45
496.587	6.48
496.788	6.56
496.988	6.65
497.189	6.66
497.39	6.66
497.59	6.8
497.791	6.81
497.992	6.73
498.192	6.59
498.393	6.73
498.593	6.72
498.794	6.72
498.994	6.71
499.195	6.75
499.395	6.69
499.596	6.72
499.796	6.5
499.997	6.52
500.197	6.56
500.398	6.73
500.598	6.66
500.799	6.77
500.999	6.88
501.199	6.96
501.4	7
501.6	7.07
501.801	7.02
502.001	7.15
502.201	7.34
502.402	7.49
502.602	7.43
502.802	7.44
503.002	7.37
503.203	7.26
503.403	7.25
503.603	7.03
503.803	7.03
504.003	7.14
504.204	7.34
504.404	7.33
504.604	7.23
504.804	7.27
505.004	7.37
505.204	7.42
505.404	7.47
505.604	7.45
505.804	7.56
506.005	7.66
506.205	7.71
506.405	7.68
506.605	7.56
506.805	7.63
507.005	7.75
507.204	7.72
507.404	7.68
507.604	7.8
507.804	7.9
508.004	7.93
508.204	7.88
508.404	7.8
508.604	7.76
508.804	7.86
509.003	7.85
509.203	8.01
509.403	8.18
509.603	8.31
509.803	8.22
510.002	8.24
510.202	8.51
510.402	8.63
510.602	8.81
510.801	8.72
511.001	8.71
511.201	8.88
511.4	8.83
511.6	8.95
511.8	9.04
511.999	9.13
512.199	9.17
512.398	9.02
512.598	9.16
512.797	9.13
512.997	9.32
513.197	9.48
513.396	9.58
513.596	9.54
513.795	9.27
513.994	9.26
514.194	9.28
514.393	9.48
514.593	9.53
514.792	9.4
514.992	9.49
515.191	9.55
515.39	9.56
515.59	9.53
515.789	9.72
515.988	9.85
516.188	10.01
516.387	10.22
516.586	10.15
516.786	10.2
516.985	10.32
517.184	10.36
517.383	10.49
517.582	10.49
517.782	10.63
517.981	10.76
518.18	11.07
518.379	11.05
518.578	11.01
518.777	11.07
518.976	11.25
519.176	11.29
519.375	11.34
519.574	11.37
519.773	11.43
519.972	11.39
520.171	11.31
520.37	11.16
520.569	11.13
520.768	11.15
520.967	11.25
521.166	11.26
521.365	11.2
521.564	11.35
521.762	11.41
521.961	11.48
522.16	11.56
522.359	11.74
522.558	11.96
522.757	11.99
522.956	12.17
523.154	12.14
523.353	12.08
523.552	12.17
523.751	12.14
523.949	12.22
524.148	12.32
524.347	12.41
524.546	12.46
524.744	12.45
524.943	12.58
525.142	12.76
525.34	12.86
525.539	12.91
525.737	12.95
525.936	13.05
526.135	13.14
526.333	13.09
526.532	13.26
526.73	13.36
526.929	13.46
527.127	13.61
527.326	13.65
527.524	13.71
527.723	13.79
527.921	13.86
528.12	13.91
528.318	13.97
528.516	14.04
528.715	14.02
528.913	13.99
529.112	14.09
529.31	14.1
529.508	14.08
529.707	14.13
529.905	14.15
530.103	14.21
530.301	14.28
530.5	14.25
530.698	14.37
530.896	14.42
531.094	14.42
531.293	14.41
531.491	14.45
531.689	14.55
531.887	14.64
532.085	14.71
532.283	14.73
532.481	14.76
532.68	14.93
532.878	15
533.076	15.06
533.274	15.23
533.472	15.24
533.67	15.24
533.868	15.26
534.066	15.26
534.264	15.34
534.462	15.44
534.66	15.43
534.858	15.33
535.056	15.28
535.253	15.36
535.451	15.33
535.649	15.4
535.847	15.47
536.045	15.44
536.243	15.65
536.441	15.66
536.638	15.72
536.836	15.79
537.034	16.08
537.232	16.13
537.43	16.29
537.627	16.36
537.825	16.3
538.023	16.33
538.22	16.35
538.418	16.34
538.616	16.33
538.813	16.34
539.011	16.36
539.209	16.29
539.406	16.43
539.604	16.54
539.801	16.51
539.999	16.7
540.196	16.88
540.394	17.15
540.591	17.23
540.789	17.28
540.986	17.41
541.184	17.44
541.381	17.51
541.579	17.57
541.776	17.58
541.974	17.75
542.171	17.7
542.368	17.75
542.566	17.79
542.763	17.78
542.96	17.88
543.158	17.94
543.355	18.05
543.552	18.11
543.75	18.16
543.947	18.16
544.144	18.19
544.341	18.37
544.539	18.49
544.736	18.56
544.933	18.73
545.13	19
545.327	18.97
545.524	19.14
545.722	19.12
545.919	19.2
546.116	19.36
546.313	19.46
546.51	19.54
546.707	19.69
546.904	19.7
547.101	19.71
547.298	19.61
547.495	19.81
547.692	19.84
547.889	19.77
548.086	19.86
548.283	19.78
548.48	19.87
548.677	19.98
548.874	19.76
549.07	19.84
549.267	19.84
549.464	19.96
549.661	19.82
549.858	19.84
550.055	20.18
550.251	20.24
550.448	20.45
550.645	20.38
550.842	20.27
551.038	20.39
551.235	20.46
551.432	20.57
551.628	20.51
551.825	20.57
552.022	20.57
552.218	20.87
552.415	20.88
552.612	20.8
552.808	20.85
553.005	20.99
553.201	21.12
553.398	21.19
553.594	21.17
553.791	21.27
553.987	21.43
554.184	21.73
554.38	21.6
554.577	21.72
554.773	21.77
554.97	21.92
555.166	22
555.362	22.19
555.559	22.21
555.755	22.37
555.952	22.4
556.148	22.41
556.344	22.28
556.541	22.43
556.737	22.56
556.933	22.87
557.129	22.99
557.326	22.96
557.522	22.88
557.718	23.11
557.914	23.22
558.11	23.52
558.307	23.75
558.503	23.86
558.699	23.62
558.895	23.56
559.091	23.4
559.287	23.56
559.483	23.66
559.679	23.88
559.876	23.96
560.072	24
560.268	24.13
560.464	24.2
560.66	24.32
560.856	24.56
561.052	24.69
561.247	24.91
561.443	24.87
561.639	24.83
561.835	24.85
562.031	24.86
562.227	24.84
562.423	24.75
562.619	24.76
562.815	24.96
563.01	25.14
563.206	25.16
563.402	25.39
563.598	25.35
563.793	25.66
563.989	25.71
564.185	25.58
564.381	25.86
564.576	26.01
564.772	26.25
564.968	26.29
565.163	26.38
565.359	26.24
565.555	26.06
565.75	26.44
565.946	26.48
566.141	26.76
566.337	27.11
566.532	27.04
566.728	26.97
566.923	26.98
567.119	26.99
567.314	26.88
567.51	27.15
567.705	27.34
567.901	27.17
568.096	27.3
568.292	27.06
568.487	27.15
568.682	27.2
568.878	27.56
569.073	27.6
569.268	27.5
569.464	27.76
569.659	27.63
569.854	27.75
570.05	27.85
570.245	27.91
570.44	28.06
570.635	27.85
570.831	28.14
571.026	28.13
571.221	28.09
571.416	28.31
571.611	28.39
571.806	28.64
572.002	28.69
572.197	28.84
572.392	28.74
572.587	28.8
572.782	28.88
572.977	28.75
573.172	28.78
573.367	28.82
573.562	28.86
573.757	28.9
573.952	28.92
574.147	28.97
574.342	29.06
574.537	29.07
574.732	29.09
574.927	29.17
575.121	29.29
575.316	29.11
575.511	29.32
575.706	29.27
575.901	29.37
576.096	29.31
576.29	29.33
576.485	29.18
576.68	29.23
576.875	29.29
577.069	29.47
577.264	29.6
577.459	29.98
577.654	30.02
577.848	30.11
578.043	30.01
578.238	30.16
578.432	30.3
578.627	30.31
578.821	30.6
579.016	30.72
579.21	30.47
579.405	30.43
579.6	30.18
579.794	30.07
579.989	30.12
580.183	30.13
580.378	30.06
580.572	29.92
580.766	30.08
580.961	30.31
581.155	30.29
581.35	30.23
581.544	30.24
581.738	30.51
581.933	30.83
582.127	30.9
582.321	30.7
582.516	31.17
582.71	31.37
582.904	31.28
583.099	31.1
583.293	31.05
583.487	31.45
583.681	31.29
583.875	31.35
584.07	31.35
584.264	31.23
584.458	31.48
584.652	31.16
584.846	31.07
585.04	31.36
585.234	31.38
585.428	31.53
585.623	31.57
585.817	32.11
586.011	32.1
586.205	32
586.399	32.13
586.593	32.31
586.787	32.56
586.981	32.51
587.174	32.34
587.368	32.41
587.562	32.26
587.756	32.37
587.95	32.12
588.144	31.98
588.338	31.78
588.532	31.98
588.725	31.83
588.919	31.8
589.113	32.01
589.307	32.08
589.501	31.93
589.694	32.13
589.888	32.08
590.082	31.95
590.275	31.91
590.469	32.27
590.663	32.22
590.856	32.55
591.05	32.68
591.244	32.73
591.437	32.48
591.631	32.71
591.824	32.73
592.018	32.8
592.212	32.98
592.405	32.91
592.599	32.93
592.792	32.96
592.986	32.94
593.179	32.93
593.372	32.6
593.566	33.19
593.759	33.21
593.953	33.14
594.146	32.93
594.339	32.83
594.533	33.12
594.726	33.14
594.92	33.19
595.113	33.21
595.306	33.17
595.499	33.42
595.693	33.18
595.886	32.94
596.079	33.04
596.272	33.27
596.466	33.46
596.659	33.37
596.852	33.2
597.045	33.16
597.238	33.14
597.431	33.19
597.624	33.17
597.818	33.43
598.011	33.66
598.204	33.77
598.397	33.66
598.59	33.43
598.783	33.68
598.976	33.94
599.169	34.1
599.362	33.95
599.555	33.95
599.748	34.02
599.941	33.91
600.134	34.05
600.326	33.59
600.519	33.49
600.712	33.53
600.905	33.29
601.098	33.05
601.291	32.93
601.483	33.08
601.676	33.13
601.869	33.19
602.062	33.02
602.255	32.62
602.447	32.88
602.64	33.18
602.833	33.49
603.025	33.56
603.218	33.81
603.411	33.56
603.603	33.71
603.796	33.57
603.989	33.72
604.181	33.81
604.374	34.03
604.566	34.15
604.759	34.05
604.951	34.14
605.144	34.06
605.336	33.92
605.529	34.21
605.721	34.14
605.914	34.18
606.106	34.03
606.299	34.35
606.491	34.32
606.683	34.54
606.876	34.85
607.068	34.85
607.26	34.86
607.453	34.9
607.645	35.13
607.837	35.26
608.03	35.36
608.222	35.67
608.414	35.55
608.606	35.61
608.799	35.52
608.991	35.47
609.183	35.49
609.375	35.98
609.567	36.06
609.759	36.19
609.952	36.22
610.144	36.88
610.336	36.91
610.528	37.16
610.72	37.5
610.912	37.79
611.104	38.05
611.296	38.28
611.488	38.27
611.68	38.7
611.872	38.7
612.064	38.69
612.256	38.47
612.448	38.44
612.64	38.13
612.832	37.91
613.023	37.74
613.215	37.39
613.407	36.98
613.599	36.63
613.791	36.24
613.983	36.05
614.174	36.1
614.366	35.91
614.558	35.86
614.75	35.79
614.941	36.01
615.133	35.87
615.325	35.92
615.516	36.31
615.708	36.61
615.9	36.54
616.091	36.52
616.283	36.73
616.475	36.57
616.666	36.52
616.858	36.74
617.049	36.45
617.241	36.54
617.432	36.43
617.624	36.24
617.815	36
618.007	36.07
618.198	36.08
618.39	35.99
618.581	36.08
618.773	36.1
618.964	35.89
619.155	35.7
619.347	35.49
619.538	35.04
619.729	34.97
619.921	35.07
620.112	35.2
620.303	34.97
620.494	34.8
620.686	34.43
620.877	34.42
621.068	34.37
621.259	34.73
621.451	34.63
621.642	35.24
621.833	34.75
622.024	34.8
622.215	34.71
622.406	34.69
622.597	35.1
622.788	35.16
622.98	35.21
623.171	35.47
623.362	35.27
623.553	35.46
623.744	35.65
623.935	36.4
624.126	36.13
624.317	35.75
624.508	35.69
624.698	35.16
624.889	35.29
625.08	35.01
625.271	35.03
625.462	35.14
625.653	35.15
625.844	34.93
626.034	34.94
626.225	35.14
626.416	35.59
626.607	35.76
626.798	36.02
626.988	36.07
627.179	36.21
627.37	36.25
627.56	36.02
627.751	36.2
627.942	36.42
628.132	36.3
628.323	36.49
628.514	36.45
628.704	36.65
628.895	36.71
629.085	36.72
629.276	36.95
629.466	36.94
629.657	37.27
629.847	37.44
630.038	36.93
630.228	37.1
630.419	36.84
630.609	36.86
630.8	37.07
630.99	36.83
631.181	36.76
631.371	36.67
631.561	36.21
631.752	36.45
631.942	35.99
632.132	36.4
632.323	35.92
632.513	35.82
632.703	35.64
632.893	34.99
633.084	35.02
633.274	34.96
633.464	34.95
633.654	35.35
633.844	35.19
634.034	35.65
634.225	35.67
634.415	36.1
634.605	35.91
634.795	35.99
634.985	36.13
635.175	36.19
635.365	36.37
635.555	36.1
635.745	35.92
635.935	35.66
636.125	35.18
636.315	34.7
636.505	34.66
636.695	35.01
636.885	34.98
637.075	34.81
637.265	34.66
637.455	34.62
637.644	34.79
637.834	35.09
638.024	35.56
638.214	35.8
638.404	36.4
638.593	36.42
638.783	36.23
638.973	36.3
639.163	36.81
639.352	37.26
639.542	37.32
639.732	37.22
639.921	37.07
640.111	36.75
640.301	36.6
640.49	36.32
640.68	35.77
640.87	36.06
641.059	36.22
641.249	36.07
641.438	35.31
641.628	35.16
641.817	35.06
642.007	35.04
642.196	35.18
642.386	35.2
642.575	35.5
642.764	35.81
642.954	35.47
643.143	34.97
643.333	34.88
643.522	35.41
643.711	35.32
643.901	35.52
644.09	35.46
644.279	35.12
644.469	35.22
644.658	34.92
644.847	34.89
645.036	34.88
645.226	35.26
645.415	35.65
645.604	35.78
645.793	36.19
645.982	35.99
646.171	35.87
646.361	36.04
646.55	36.01
646.739	35.96
646.928	36.03
647.117	36.37
647.306	35.87
647.495	35.6
647.684	35.24
647.873	35.27
648.062	35.15
648.251	35.38
648.44	35.84
648.629	35.93
648.818	35.66
649.007	35.57
649.196	35.4
649.384	35.77
649.573	35.77
649.762	35.91
649.951	35.27
650.14	35.46
650.328	35.41
650.517	35.1
650.706	34.53
650.895	34.77
651.083	35.11
651.272	35.83
651.461	35.99
651.65	35.56
651.838	35.87
652.027	36.76
652.216	36.94
652.404	37.03
652.593	37.24
652.781	38.07
652.97	38.51
653.158	38.19
653.347	37.78
653.535	37.63
653.724	37.76
653.912	37.58
654.101	37.3
654.289	37.32
654.478	37.22
654.666	36.78
654.855	36.67
655.043	36.31
655.231	36.61
655.42	36.53
655.608	36.62
655.796	36.47
655.985	36.76
656.173	36.89
656.361	36.6
656.55	36.5
656.738	36.42
656.926	36.44
657.114	36.55
657.302	36.45
657.491	36.17
657.679	36.06
657.867	36.04
658.055	35.56
658.243	35.31
658.431	35.42
658.619	35.42
658.807	35.66
658.996	35.57
659.184	35.12
659.372	35.13
659.56	35.44
659.748	35.57
659.936	35.87
660.124	35.99
660.311	36.02
660.499	36.14
660.687	36.22
660.875	36.02
661.063	36.04
661.251	36.55
661.439	36.67
661.627	36.52
661.814	36.46
662.002	36.8
662.19	37.04
662.378	36.91
662.565	36.85
662.753	36.63
662.941	36.8
663.129	36.67
663.316	36.97
663.504	36.96
663.692	36.83
663.879	36.78
664.067	36.71
664.254	36.46
664.442	36.4
664.63	36.56
664.817	36.71
665.005	36.79
665.192	37
665.38	36.57
665.567	36.26
665.755	35.88
665.942	36.27
666.13	35.53
666.317	35.63
666.504	35.63
666.692	35.9
666.879	35.6
667.067	35.47
667.254	35.72
667.441	35.93
667.629	35.84
667.816	36.54
668.003	36.16
668.19	36.45
668.378	36.44
668.565	36.72
668.752	36.48
668.939	36.84
669.127	37.17
669.314	37.05
669.501	36.92
669.688	37.62
669.875	37.26
670.062	37.7
670.249	37.91
670.436	38.04
670.623	38.14
670.81	37.74
670.997	37.73
671.184	37.36
671.371	37.14
671.558	37.36
671.745	37.43
671.932	37.97
672.119	37.63
672.306	37.81
672.493	37.21
672.68	36.59
672.867	36.7
673.054	36.47
673.24	37.22
673.427	36.95
673.614	36.41
673.801	35.94
673.988	35.65
674.174	35.54
674.361	35.32
674.548	35.79
674.734	36.11
674.921	36.76
675.108	36.95
675.294	36.55
675.481	36.71
675.668	36.95
675.854	36.94
676.041	36.55
676.227	36.47
676.414	36.03
676.601	36.61
676.787	36.7
676.974	36.05
677.16	36.04
677.347	36.08
677.533	36.09
677.719	36.19
677.906	35.91
678.092	35.8
678.279	36.14
678.465	36.46
678.651	35.95
678.838	36.18
679.024	35.67
679.21	35.59
679.397	35.36
679.583	35.79
679.769	35.64
679.955	36.04
680.142	36.46
680.328	36.15
680.514	36.17
680.7	36.41
680.886	36.27
681.073	36.92
681.259	36.95
681.445	36.91
681.631	36.89
681.817	36.98
682.003	36.48
682.189	36.23
682.375	35.91
682.561	35.75
682.747	35.77
682.933	35.63
683.119	35.86
683.305	36.04
683.491	36.7
683.677	35.89
683.863	35.76
684.049	35.72
684.235	35.96
684.42	36.68
684.606	37.36
684.792	37.2
684.978	37.41
685.164	37.21
685.349	36.8
685.535	36.11
685.721	36.56
685.907	36.63
686.092	37.21
686.278	37.11
686.464	36.95
686.649	36.27
686.835	36.55
687.021	36.15
687.206	36.21
687.392	36.78
687.577	36.7
687.763	36.84
687.948	37.35
688.134	37.6
688.319	37.85
688.505	37.84
688.69	38.21
688.876	37.64
689.061	37.95
689.247	37.81
689.432	37.98
689.618	38.06
689.803	38.02
689.988	37.51
690.174	37.05
690.359	36.91
690.544	36.65
690.73	36.46
690.915	36.49
691.1	35.86
691.285	35.36
691.471	35
691.656	34.66
691.841	34.69
692.026	34.48
692.211	34.72
692.396	34.89
692.582	35.24
692.767	35.39
692.952	35.62
693.137	36
693.322	36.76
693.507	36.49
693.692	36.52
693.877	36.45
694.062	36.89
694.247	36.4
694.432	36.13
694.617	35.75
694.802	36.01
694.987	35.85
695.172	35.71
695.357	35.13
695.541	35.24
695.726	35.84
695.911	36.12
696.096	36.12
696.281	36.18
696.466	36.07
696.65	36.68
696.835	36.04
697.02	36
697.204	36.34
697.389	36.58
697.574	36.78
697.759	37.03
697.943	36.81
698.128	36.89
698.312	37.3
698.497	37.1
698.682	37.1
698.866	37.36
699.051	37.69
699.235	38.1
699.42	38.14
699.604	38.2
699.789	37.79
699.973	37.44
700.158	37.4
700.342	37.4
700.527	38.12
700.711	38.17
700.895	37.99
701.08	37.82
701.264	37.39
701.448	37.19
701.633	37.44
701.817	37.63
702.001	38.29
702.186	38
702.37	37.81
702.554	37.29
702.738	36.57
702.923	37.24
703.107	36.65
703.291	36.53
703.475	37.19
703.659	36.58
703.843	37.03
704.027	36.39
704.212	36.71
704.396	36.42
704.58	36.4
704.764	36.39
704.948	35.44
705.132	35.9
705.316	36.08
705.5	35.64
705.684	35.85
705.868	35.64
706.052	36.35
706.235	36.78
706.419	37.2
706.603	37.37
706.787	37.74
706.971	38.59
707.155	38.12
707.339	37.79
707.522	37.81
707.706	37.53
707.89	37.37
708.074	36.89
708.257	36.01
708.441	35.57
708.625	34.58
708.808	34.98
708.992	34.09
709.176	34.83
709.359	34.73
709.543	34.6
709.727	35.06
709.91	35.03
710.094	35.65
710.277	35.91
710.461	36.33
710.644	37.37
710.828	36.96
711.011	37.3
711.195	37.27
711.378	37.13
711.562	37.03
711.745	36.66
711.928	36.63
712.112	36.54
712.295	36.76
712.478	36.79
712.662	35.89
712.845	36.45
713.028	36.88
713.212	36.36
713.395	36.73
713.578	37.15
713.761	37.43
713.945	36.89
714.128	36.67
714.311	36.42
714.494	36.44
714.677	37.33
714.86	36.46
715.043	36.73
715.227	36.35
715.41	36.86
715.593	37.29
715.776	37.09
715.959	36.82
716.142	36.45
716.325	36.8
716.508	36.15
716.691	35.48
716.874	35.54
717.057	34.85
717.239	35.76
717.422	35.24
717.605	34.57
717.788	34.86
717.971	36.25
718.154	36.03
718.337	35.62
718.519	35.43
718.702	35.32
718.885	35.97
719.068	36.16
719.25	35.51
719.433	35.87
719.616	35.79
719.798	35.02
719.981	33.99
720.164	34.34
720.346	34.35
720.529	34.69
720.712	35.1
720.894	34.29
721.077	34.73
721.259	34.34
721.442	34.2
721.624	33.7
721.807	34.32
721.989	34.95
722.172	35.3
722.354	34.58
722.537	35.48
722.719	35.47
722.901	35.8
723.084	35.21
723.266	36.22
723.448	35.18
723.631	36.14
723.813	35.92
723.995	35.25
724.178	35.39
724.36	36.29
724.542	35.43
724.724	35.48
724.907	35.52
725.089	34.98
725.271	35.11
725.453	35.99
725.635	35.7
725.817	35.33
725.999	35.48
726.181	35.36
726.364	35.69
726.546	35.65
726.728	36.43
726.91	35.79
727.092	36.67
727.274	36.19
727.456	36.5
727.638	36.45
727.819	37.14
728.001	37.85
728.183	37.83
728.365	37.45
728.547	38.14
728.729	37.95
728.911	37.97
729.093	37.44
729.274	37.44
729.456	36.74
729.638	36.18
729.82	35.24
730.001	34.26
730.183	33.65
730.365	33.49
730.546	33.16
730.728	32.68
730.91	33.36
731.091	33.15
731.273	33.89
731.455	33.94
731.636	34.3
731.818	34.08
731.999	34.99
732.181	34.62
732.362	35.29
732.544	34.47
732.725	34.97
732.907	34.5
733.088	34.55
733.27	33.69
733.451	34.79
733.633	34.34
733.814	35.26
733.995	34.56
734.177	35.09
734.358	33.93
734.539	34.38
734.721	33.52
734.902	34.75
735.083	35.15
735.264	35.43
735.446	34.26
735.627	34.34
735.808	35.18
735.989	35.2
736.17	35.38
736.351	35.95
736.533	36.64
736.714	37.36
736.895	36.79
737.076	36.14
737.257	36.78
737.438	36.6
737.619	36.98
737.8	36.65
737.981	36.32
738.162	36.28
738.343	35.74
738.524	34.29
738.705	34.63
738.886	35.25
739.067	35.95
739.247	35.45
739.428	34.91
739.609	35.49
739.79	35.23
739.971	36.22
740.151	36.13
740.332	37.48
740.513	38.72
740.694	38.49
740.874	37.42
741.055	37.26
741.236	37.24
741.417	38.34
741.597	37.79
741.778	37.79
741.958	37.59
742.139	37.41
742.32	36.62
742.5	36.71
742.681	36.94
742.861	36.78
743.042	36.76
743.222	36.51
743.403	37.05
743.583	37.33
743.764	36.76
743.944	37.05
744.124	36.89
744.305	36.25
744.485	35.64
744.666	34.88
744.846	33.88
745.026	33.94
745.207	33.33
745.387	33.14
745.567	32.35
745.747	33.33
745.928	32.37
746.108	33.45
746.288	36.1
746.468	36.37
746.648	36.8
746.829	40.03
747.009	39.17
747.189	40.37
747.369	39.77
747.549	41.25
747.729	40.3
747.909	40.27
748.089	40.5
748.269	39.21
748.449	38.82
748.629	39.06
748.809	36.28
748.989	35.48
749.169	34.35
749.349	35.12
749.529	34.37
749.709	34.76
749.889	34.3
750.068	34
750.248	32.32
750.428	31.28
750.608	29.64
750.788	29.61
750.967	30.45
751.147	32.27
751.327	30.17
751.507	30.42
751.686	30.31
751.866	31.64
752.046	31.58
752.225	32.72
752.405	34.67
752.585	35.84
752.764	37.12
752.944	37.63
753.123	34.7
753.303	35.94
753.482	34.84
753.662	34.93
753.841	34.68
754.021	34.14
754.2	34.62
754.38	34.24
754.559	34.25
754.739	34.11
754.918	33.73
755.097	35.05
755.277	35.26
755.456	36.08
755.635	35.99
755.815	35.38
755.994	36.08
756.173	35.65
756.352	34.71
756.532	34.58
756.711	35.17
756.89	35.92
757.069	37.39
757.248	37.33
757.427	36.88
757.607	36.9
757.786	37.06
757.965	37.01
758.144	37.37
758.323	37.31
758.502	36.94
758.681	36.93
758.86	37.27
759.039	36.06
759.218	37.02
759.397	38.67
759.576	38.45
759.755	37.86
759.934	37.25
760.113	36.09
760.291	37.91
760.47	37.64
760.649	36.07
760.828	34.91
761.007	35.51
761.186	35.04
761.364	33.51
761.543	33.98
761.722	34.19
761.901	34.45
762.079	35.06
762.258	34.43
762.437	35.11
762.615	35.56
762.794	35.9
762.972	35.81
763.151	35.35
763.33	35.79
763.508	35.28
763.687	35.62
763.865	35.52
764.044	35.69
764.222	35.96
764.401	35.87
764.579	36.17
764.758	36.23
764.936	36.34
765.114	36.22
765.293	36.15
765.471	36.15
765.65	36.2
765.828	36.23
766.006	36.24
766.184	35.63
766.363	36.14
766.541	36.3
766.719	36.43
766.898	35.68
767.076	35.95
767.254	35.85
767.432	36.2
767.61	36.87
767.788	37.51
767.967	36.99
768.145	36.9
768.323	36.89
768.501	36.29
768.679	36.91
768.857	37.68
769.035	36.59
769.213	35.8
769.391	35.62
769.569	34.03
769.747	33.38
769.925	33.26
770.103	33.33
770.281	32.28
770.459	32.31
770.636	32.2
770.814	30.89
770.992	31.94
771.17	33.13
771.348	32.77
771.525	34.16
771.703	34.08
771.881	35.11
772.059	35.24
772.236	36.29
772.414	36.45
772.592	36.38
772.769	37.87
772.947	38.48
773.125	36.57
773.302	36.25
773.48	35.5
773.657	36.47
773.835	35.5
774.013	34.07
774.19	32.18
774.368	32.27
774.545	30.57
774.723	29.47
774.9	28.6
775.077	29.21
775.255	29.53
775.432	30.15
775.61	27.66
775.787	27.64
775.964	28.48
776.142	30.43
776.319	29.76
776.496	29.32
776.674	29.45
776.851	29.73
777.028	32.08
777.205	32.61
777.382	31.07
777.56	32.6
777.737	31.19
777.914	33.44
778.091	29.86
778.268	32.05
778.445	32.58
778.622	33.4
778.8	32.29
778.977	29.78
779.154	-0.84
779.331	-1.07
779.508	-3.68
779.685	-3.21
779.862	-3.99
780.038	-0.04
780.215	-2.55
780.392	-1.32
780.569	-1.39
780.746	-1.71
780.923	-1.82
781.1	30.5
781.277	30.44
781.453	31.88
781.63	33.62
781.807	33.41
781.984	32.45
782.16	33.62
782.337	33.97
782.514	33.6
782.691	34.52
782.867	32.85
783.044	29.99
783.221	28.78
783.397	30
783.574	29.55
783.75	29.48
783.927	24.61
784.103	23.97
784.28	21.35
784.456	22.03
784.633	21.33
784.809	22.83
784.986	23.99
785.162	25.36
785.339	25.49
785.515	27.34
785.692	25.02
785.868	29.56
786.044	31.55
786.221	31.49
786.397	31.44
786.573	30.97
786.749	34.89
786.926	34.77
787.102	35.23
787.278	36.79
787.454	34.73
787.631	33.84
787.807	36
787.983	34.87
788.159	37.17
788.335	36.75
788.511	38.62
788.687	33.4
788.863	33.74
789.039	33.01
789.216	30.09
789.392	30.46
789.568	31.04
789.744	30.47
789.919	33.12
790.095	32.65
790.271	32.34
790.447	32.57
790.623	36.02
790.799	36.17
790.975	35.35
791.151	36.76
791.327	38.14
791.502	39.18
791.678	39.46
791.854	36.38
792.03	36.46
792.205	34.51
792.381	35.09
792.557	32.06
792.733	33.25
792.908	33.33
793.084	33.93
793.259	33.21
793.435	33.33
793.611	31.58
793.786	30.3
793.962	30.07
794.137	31.24
794.313	30.43
794.488	32.4
794.664	30.07
794.839	30.14
795.015	28.56
795.19	28.47
795.366	31.99
795.541	33.11
795.716	34.6
795.892	33.38
796.067	32.55
796.242	32.78
796.418	32.62
796.593	31.72
796.768	30.94
796.944	30.91
797.119	30.51
797.294	28.57
797.469	26.51
797.644	26.95
797.82	29.76
797.995	31.88
798.17	31.65
798.345	30.27
798.52	32.01
798.695	34.31
798.87	36.35
799.045	35.87
799.22	34.44
799.395	37
799.57	36.71
799.745	32.69
799.92	30.06
800.095	31.17
800.27	33.15
800.445	31.92
800.62	31.79
800.795	29.56
800.97	30.64
801.145	30.32
801.319	29.02
801.494	25.54
801.669	26.98
801.844	28.13
802.018	27.37
802.193	27.35
802.368	27.37
802.543	24.17
802.717	26.51
802.892	27.28
803.067	27.84
803.241	26.27
803.416	30.02
803.59	31.5
803.765	33.47
803.94	33.4
804.114	32.08
804.289	31.32
804.463	35.71
804.638	34.07
804.812	30.42
804.986	30.08
805.161	30.64
805.335	30.09
805.51	29.34
805.684	28.13
805.858	28.04
806.033	29.98
806.207	30.2
806.381	27.86
806.556	27.79
806.73	29.88
806.904	28.14
807.078	27.22
807.253	26.71
807.427	27
807.601	25.33
807.775	27.47
807.949	24.12
808.123	22.1
808.298	23.63
808.472	23.52
808.646	23.69
808.82	23.87
808.994	26.78
809.168	26.06
809.342	25.96
809.516	26.88
809.69	21.74
809.864	25.21
810.038	26.99
810.212	24.29
810.385	21.06
810.559	22.62
810.733	24.42
810.907	22.05
811.081	22.62
811.255	23.07
811.428	26.87
811.602	26.3
811.776	23.04
811.95	25.84
812.123	28.43
812.297	29.93
812.471	24.21
812.644	25.04
812.818	24.83
812.992	26.07
813.165	25.1
813.339	21.71
813.512	24.99
813.686	29.77
813.86	28.4
814.033	27.76
814.207	28.86
814.38	30.89
814.554	25.42
814.727	29.74
814.9	27.92
815.074	26.53
815.247	23.29
815.421	24.1
815.594	20.26
815.767	19.36
815.941	16.94
816.114	11.58
816.287	14.39
816.46	16.64
816.634	12.73
816.807	14.87
816.98	12.35
817.153	15.62
817.327	14.35
817.5	17.25
817.673	18.08
817.846	19.37
818.019	23.68
818.192	22.95
818.365	21.4
818.538	22.64
818.711	21.13
818.884	25.1
819.057	25.01
819.23	26.31
819.403	24.64
819.576	24.3
819.749	24.48
819.922	28.42
820.095	27.92
820.268	30.98
820.441	29.72
820.614	29.81
820.786	29.4
820.959	30.4
821.132	30.37
821.305	31.38
821.477	32.39
821.65	32.67
821.823	32.8
821.996	33.71
822.168	33.96
822.341	34.69
822.514	35.29
822.686	35.02
822.859	34.91
823.031	35.15
823.204	34.96
823.376	35.05
823.549	35.38
823.722	34.95
823.894	35.08
824.067	34.64
824.239	34.59
824.411	34.8
824.584	35.38
824.756	35.1
824.929	34.86
825.101	35.56
825.273	35.16
825.446	34.95
825.618	35.12
825.79	34.66
825.963	35.35
826.135	34.27
826.307	33.46
826.479	32.91
826.652	34.35
826.824	34.65
826.996	33.08
827.168	33.74
827.34	33.04
827.512	32.86
827.684	32.02
827.856	30.77
828.029	31.82
828.201	31.87
828.373	31.8
828.545	31.18
828.717	31.96
828.889	33.37
829.061	32.86
829.232	33.34
829.404	33.17
829.576	32.81
829.748	33.7
829.92	32.27
830.092	31.14
830.264	32.42
830.436	31.36
830.607	29.98
830.779	30.95
830.951	30.32
831.123	29.54
831.294	30.14
831.466	31.9
831.638	32.8
831.809	33.25
831.981	35.39
832.153	34.68
832.324	35.7
832.496	33.48
832.667	31.48
832.839	29.95
833.011	30.3
833.182	29.8
833.354	28.62
833.525	27.4
833.697	28.86
833.868	27.79
834.039	28.38
834.211	25.9
834.382	27.66
834.554	28.74
834.725	28.49
834.896	27.8
835.068	27.13
835.239	26.88
835.41	28.32
835.581	28.13
835.753	27.27
835.924	24.72
836.095	25.61
836.266	23.19
836.438	21.95
836.609	22.5
836.78	23.03
836.951	22.33
837.122	24.23
837.293	21.4
837.464	21.33
837.635	23.13
837.806	24.15
837.977	20.61
838.148	23.51
838.319	22.33
838.49	21.5
838.661	23.61
838.832	24.55
839.003	22.04
839.174	25.4
839.345	26.12
839.516	24.07
839.687	21.78
839.857	23.54
840.028	19.59
840.199	18.74
840.37	20.82
840.54	14.4
840.711	17.33
840.882	16.05
841.053	16.94
841.223	15.02
841.394	15.64
841.564	22.31
841.735	25.87
841.906	26.39
842.076	23.9
842.247	27.14
842.417	35.4
842.588	31.03
842.758	32.02
842.929	30.08
843.099	26.58
843.27	22.44
843.44	17.63
843.611	18.06
843.781	16.69
843.951	22.07
844.122	17.51
844.292	2.52
844.462	-1.06
844.633	0.36
844.803	-3.54
844.973	-2.91
845.144	-0.98
845.314	-4.98
845.484	-9.48
845.654	-14.09
845.824	-16.96
845.995	-16.91
846.165	-7.38
846.335	-6.9
846.505	-1.18
846.675	0.69
846.845	14.33
847.015	15.78
847.185	17.41
847.355	20.5
847.525	22.59
847.695	27.72
847.865	24.6
848.035	20.9
848.205	29.88
848.375	30.44
848.545	23.04
848.715	10.16
848.884	4.86
849.054	8.5
849.224	6.53
849.394	10.6
849.564	7.53
849.733	14.38
849.903	17.99
850.073	14.36
850.243	11.9
850.412	19.39
850.582	20.58
850.752	30.69
850.921	30.73
851.091	33.13
851.26	29.38
851.43	32.13
851.599	33.47
851.769	32.99
851.939	36.71
852.108	35.26
852.278	29.49
852.447	35.96
852.616	33.15
852.786	23.51
852.955	20.35
853.125	13.14
853.294	10.9
853.463	9.38
853.633	0.07
853.802	-12.89
853.971	-30.29
854.141	-41.51
854.31	-65.03
854.479	-78.7
854.648	-70.77
854.818	-68.57
854.987	-46.5
855.156	-35.93
855.325	-34.29
855.494	-32.28
855.663	-27.62
855.832	-8.93
856.001	-2.39
856.171	-12.9
856.34	-8.6
856.509	4.62
856.678	-0.33
856.847	3.29
857.016	2.52
857.185	-0.48
857.353	10.72
857.522	14.87
857.691	21.34
857.86	23.11
858.029	34.79
858.198	34.97
858.367	18.97
858.535	19.54
858.704	18.8
858.873	22.63
859.042	19.98
859.21	7.87
859.379	7.54
859.548	-8.95
859.717	-4.3
859.885	-9.26
860.054	-8.01
860.222	-0.53
860.391	-0.9
860.56	-11.48
860.728	-18.35
860.897	-19.71
861.065	-7.35
861.234	-15.89
861.402	-33.52
861.571	-37.35
861.739	-30.39
861.908	-22.42
862.076	-11.52
862.244	0.25
862.413	11.82
862.581	9.99
862.749	16.21
862.918	22.61
863.086	20.19
863.254	23.01
863.423	22.48
863.591	31.48
863.759	19.04
863.927	10.89
864.096	4.23
864.264	-3.78
864.432	-2.09
864.6	-7.3
864.768	-36.06
864.936	-12.5
865.104	-7.46
865.272	-5.7
865.44	-16.55
865.608	-5.89
865.776	5.59
865.944	26.06
866.112	31.92
866.28	16.75
866.448	12.96
866.616	23.26
866.784	14.03
866.952	14.1
867.12	3.87
867.288	1.37
867.455	-10.13
867.623	-33.67
867.791	-136.6
867.959	-142.4
868.127	-63.26
868.294	-41.75
868.462	-71.12
868.63	-41.05
868.797	-25.45
868.965	-25.7
869.133	-19.3
869.3	-14.51
869.468	-4.34
869.636	-2.29
869.803	-1.91
869.971	-13.69
870.138	-24.93
870.306	-18.34
870.473	-34.71
870.641	-49.52
870.808	-43.59
870.975	-22.08
871.143	-7.07
871.31	6.75
871.478	7.35
871.645	13.62
871.812	23.34
871.98	49.18
872.147	52.95
872.314	52.08
872.482	62.04
872.649	53.68
872.816	50.27
872.983	38.85
873.15	22.62
873.318	21.98
873.485	7.32
873.652	-5.84
873.819	-30.04
873.986	-18.61
874.153	-36.72
874.32	-57.41
874.487	-55.4
874.654	-69.35
874.821	-97.37
874.988	-64.97
875.155	-62.25
875.322	-40.17
875.489	-33.25
875.656	-29.55
875.823	-31.09
875.99	-18.54
876.157	-25.77
876.324	-14.87
876.49	0.76
876.657	2.14
876.824	-14.28
876.991	-4.66
877.157	-15.83
877.324	-6.49
877.491	-14.09
877.658	-11.83
877.824	-16.9
877.991	-8.96
878.157	-31.6
878.324	-34.37
878.491	-26.14
878.657	-10.61
878.824	1.59
878.99	18.07
879.157	18.39
879.323	20.85
879.49	1.78
879.656	16.01
879.823	13.98
879.989	31.12
880.156	26.97
880.322	15.54
880.488	16.96
880.655	7.66
880.821	5.2
880.987	5.52
881.154	11.48
881.32	17.24
881.486	16.3
881.652	16.49
881.819	14.55
881.985	20.4
882.151	23.63
882.317	26.15
882.483	24.06
882.649	23.45
882.816	26.05
882.982	25.93
883.148	26.28
883.314	27.2
883.48	28.62
883.646	27.25
883.812	25.95
883.978	25.7
884.144	25.82
884.31	26.31
884.476	26.77
884.642	25.46
884.807	23.26
884.973	24.08
885.139	20.91
885.305	18.24
885.471	18.08
885.637	19.1
885.802	18.01
885.968	17.87
886.134	18.21
886.3	18.27
886.465	20.44
886.631	21.92
886.797	21.26
886.962	24.91
887.128	25.45
887.293	25.02
887.459	20.79
887.625	25.12
887.79	23.24
887.956	19.82
888.121	17.91
888.287	12.54
888.452	14.53
888.618	12.11
888.783	4.81
