Data from CB_047_Reflection_3.txt Node
Date: Wed Nov 11 22:26:19 EST 2015
User: robert
Spectrometer: USB4E03001
Autoset integration time: false
Trigger mode: 4
Integration Time (sec): 1.000000E-1
Scans to average: 15
Electric dark correction enabled: true
Nonlinearity correction enabled: false
Boxcar width: 5
Stray light correction enabled: false
XAxis mode: Wavelengths
Stop averaging: false
Number of Pixels in Spectrum: 3648
>>>>>Begin Spectral Data<<<<<
177.566	219.34
177.785	1360.53
178.005	-400.86
178.225	-822.53
178.445	150.99
178.665	124.55
178.885	346.05
179.105	86.5
179.324	161.29
179.544	146.79
179.764	177.43
179.984	111.95
180.204	117.96
180.423	214.24
180.643	137.67
180.863	122.38
181.083	124.8
181.302	116.72
181.522	99.69
181.742	91.6
181.961	121.07
182.181	107.46
182.401	112.6
182.621	110.85
182.84	87.95
183.06	95.36
183.279	78.84
183.499	82.33
183.719	84.92
183.938	110
184.158	110.39
184.377	97.43
184.597	112.6
184.816	126.26
185.036	110.86
185.256	119.01
185.475	129.19
185.695	161.22
185.914	111.54
186.134	146.8
186.353	117.86
186.572	93.8
186.792	84.81
187.011	72.31
187.231	79.37
187.45	83.71
187.67	55.55
187.889	48.53
188.108	56.24
188.328	72.05
188.547	65.78
188.766	73.06
188.986	83.51
189.205	65.94
189.424	89.57
189.644	74.45
189.863	86.27
190.082	95.24
190.302	101.53
190.521	129.51
190.74	133.33
190.959	119.93
191.178	88.63
191.398	89.57
191.617	110.61
191.836	104.2
192.055	96.06
192.274	85.25
192.494	97.07
192.713	111.72
192.932	103.77
193.151	84.34
193.37	82.27
193.589	88.22
193.808	109.39
194.027	95.09
194.246	108.58
194.465	114.8
194.685	99.73
194.904	94.15
195.123	96.83
195.342	95.35
195.561	110.7
195.78	114.72
195.999	136.42
196.218	108.17
196.436	95.32
196.655	104.92
196.874	83.75
197.093	112.91
197.312	92.26
197.531	74.89
197.75	63.55
197.969	82.41
198.188	71.75
198.407	58.22
198.625	67.57
198.844	73.27
199.063	62.89
199.282	62.31
199.501	76.69
199.719	101.76
199.938	134.27
200.157	204.32
200.376	138.82
200.594	220.8
200.813	194.46
201.032	246.27
201.251	354.86
201.469	269.58
201.688	259.95
201.907	194.35
202.125	142.11
202.344	106.49
202.563	118.5
202.781	97.12
203	67.78
203.218	55.26
203.437	49.06
203.656	42.15
203.874	36.5
204.093	27.26
204.311	34.71
204.53	20.42
204.748	42.64
204.967	42.18
205.185	47.5
205.404	64.78
205.622	56.34
205.841	51.9
206.059	44.9
206.278	69.92
206.496	69.71
206.715	70.61
206.933	78.57
207.151	72.23
207.37	71.36
207.588	73.31
207.806	70.93
208.025	85.23
208.243	83.99
208.461	85.54
208.68	72.18
208.898	73.34
209.116	43.34
209.335	52.31
209.553	47.59
209.771	41.47
209.989	37.77
210.208	15.8
210.426	-4.57
210.644	4.05
210.862	13.06
211.081	58.85
211.299	73.83
211.517	128.74
211.735	98.22
211.953	116.91
212.171	120.2
212.39	127.26
212.608	134.85
212.826	134.24
213.044	133.86
213.262	120.45
213.48	123.45
213.698	127.15
213.916	130.17
214.134	149.23
214.352	170.21
214.57	129.86
214.788	197.51
215.006	238.92
215.224	198.37
215.442	197.6
215.66	233.69
215.878	132.57
216.096	105.2
216.314	108.9
216.532	103.48
216.75	88.68
216.968	95.79
217.185	68.92
217.403	62.23
217.621	57.7
217.839	55.69
218.057	48.81
218.275	52.56
218.492	62.34
218.71	66.65
218.928	68.83
219.146	72.13
219.363	75.24
219.581	88.86
219.799	85.51
220.017	92.72
220.234	86.79
220.452	109.71
220.67	84.83
220.887	64.38
221.105	67.65
221.323	43.46
221.54	44.1
221.758	43.89
221.976	30.48
222.193	46.57
222.411	42.74
222.629	41.53
222.846	43.41
223.064	32.8
223.281	45.83
223.499	43.13
223.716	45.08
223.934	52.65
224.151	44.9
224.369	46.04
224.586	33.24
224.804	38.91
225.021	32.74
225.239	39.29
225.456	62.08
225.674	56.03
225.891	61.21
226.108	74.19
226.326	50.46
226.543	49.21
226.76	49.67
226.978	42.46
227.195	43.62
227.413	34.3
227.63	31.83
227.847	22.88
228.064	19.43
228.282	13.49
228.499	7.77
228.716	9.29
228.934	8.05
229.151	5.02
229.368	3.86
229.585	2.53
229.802	2.45
230.02	-1.1
230.237	-2.59
230.454	-3.37
230.671	-4.56
230.888	-6.37
231.105	-3.97
231.323	-0.37
231.54	4.95
231.757	7.07
231.974	4.96
232.191	4.26
232.408	5.01
232.625	9.06
232.842	14.26
233.059	13.86
233.276	18.66
233.493	16.06
233.71	15.58
233.927	13.15
234.144	12.62
234.361	17.94
234.578	23.18
234.795	24.64
235.012	18.77
235.229	14.96
235.446	18.7
235.663	14.28
235.879	15.6
236.096	17.01
236.313	18.12
236.53	22.86
236.747	22.57
236.964	22.57
237.181	22.73
237.397	26.69
237.614	32.68
237.831	27.54
238.048	32.66
238.264	25.97
238.481	27.61
238.698	26.07
238.915	22.99
239.131	18.56
239.348	16.62
239.565	13.22
239.781	11.48
239.998	11.05
240.215	13.1
240.431	9.64
240.648	15.84
240.865	12.41
241.081	13.92
241.298	12.56
241.514	14.27
241.731	14.99
241.947	15.79
242.164	17.16
242.38	15.79
242.597	14.94
242.814	16.01
243.03	16.12
243.246	15.74
243.463	14.96
243.679	16.06
243.896	16.58
244.112	17.1
244.329	19.14
244.545	17.49
244.762	16.38
244.978	17.39
245.194	16.09
245.411	14.04
245.627	15.14
245.843	16.32
246.06	16.2
246.276	14.85
246.492	12.96
246.709	11.44
246.925	12.51
247.141	13.6
247.357	13.33
247.574	13.46
247.79	13.26
248.006	13.07
248.222	12.53
248.439	12.7
248.655	13.35
248.871	13.27
249.087	13.3
249.303	13.55
249.519	12.4
249.736	11.81
249.952	11.42
250.168	13.07
250.384	12.71
250.6	12.71
250.816	11.3
251.032	9.37
251.248	11.89
251.464	11.97
251.68	13.02
251.896	13.25
252.112	13.64
252.328	12.75
252.544	11.23
252.76	11.65
252.976	11.21
253.192	11.79
253.408	12.59
253.624	13.19
253.84	14.35
254.056	13.1
254.272	15.81
254.487	16.84
254.703	19.34
254.919	22.01
255.135	23.14
255.351	24.84
255.567	23.61
255.782	23.92
255.998	22.2
256.214	20.75
256.43	20.43
256.646	17.59
256.861	18.1
257.077	16.49
257.293	14.1
257.508	13.49
257.724	13.36
257.94	13.87
258.155	13.4
258.371	12.11
258.587	12.77
258.802	11.53
259.018	12.34
259.234	10.86
259.449	11.18
259.665	11.17
259.88	10.36
260.096	10.07
260.312	9.84
260.527	9.71
260.743	9.81
260.958	9.23
261.174	9.19
261.389	7.87
261.605	7.99
261.82	7.96
262.036	8.92
262.251	10.05
262.466	10.26
262.682	9.98
262.897	10.05
263.113	10.1
263.328	9.94
263.543	10.76
263.759	10.96
263.974	12.69
264.189	12.44
264.405	11.38
264.62	9.89
264.835	8.96
265.051	10
265.266	10.8
265.481	12.38
265.696	13.25
265.912	12.25
266.127	12.79
266.342	11.87
266.557	11.54
266.773	10.47
266.988	11.85
267.203	11.05
267.418	11.45
267.633	12.3
267.848	12.08
268.064	11.18
268.279	11.27
268.494	10.15
268.709	10.9
268.924	12.39
269.139	14.08
269.354	13.91
269.569	14.13
269.784	13.87
269.999	11.13
270.214	10.29
270.429	11.36
270.644	11.89
270.859	13.72
271.074	12.55
271.289	12.4
271.504	11.99
271.719	11.19
271.934	11.87
272.149	11.53
272.363	13.06
272.578	13.31
272.793	12.78
273.008	12.09
273.223	11.21
273.438	10.92
273.653	10.61
273.867	10.06
274.082	9.97
274.297	9.77
274.512	9.55
274.726	8.05
274.941	9.08
275.156	10.65
275.371	10.31
275.585	10.57
275.8	11.49
276.015	11.18
276.229	11.21
276.444	11.5
276.659	10.7
276.873	12.04
277.088	14.1
277.302	12.87
277.517	11.69
277.732	13.03
277.946	12.97
278.161	12.9
278.375	13.87
278.59	14.68
278.804	13.99
279.019	14.82
279.233	13.41
279.448	12.23
279.662	13.23
279.877	13.04
280.091	12.13
280.306	12.55
280.52	11.94
280.735	11.74
280.949	10.41
281.163	11.9
281.378	11.09
281.592	10.48
281.806	11.08
282.021	9.43
282.235	9.39
282.449	10.27
282.664	9.93
282.878	9.21
283.092	8.91
283.307	10.89
283.521	9.8
283.735	9.91
283.949	11.03
284.164	10.81
284.378	10.79
284.592	10.39
284.806	10.16
285.02	9.92
285.234	11.09
285.449	10.59
285.663	9.57
285.877	11.05
286.091	11.39
286.305	10.75
286.519	10.57
286.733	11.02
286.947	11.66
287.161	11.51
287.375	11.39
287.589	11.4
287.803	11.76
288.017	10.64
288.231	9.43
288.445	10.13
288.659	10.34
288.873	10.87
289.087	11.13
289.301	10.17
289.515	11.57
289.729	12.29
289.943	11.08
290.157	10.72
290.371	11.6
290.584	12.45
290.798	12.2
291.012	12.55
291.226	13.1
291.44	13.09
291.654	13.83
291.867	12.37
292.081	11.38
292.295	13.12
292.509	12.87
292.722	12.01
292.936	10.66
293.15	10.68
293.364	10.05
293.577	9.64
293.791	9.86
294.005	8.84
294.218	10.73
294.432	11.74
294.645	11.41
294.859	11.08
295.073	11.68
295.286	11.89
295.5	11
295.713	11.37
295.927	10.41
296.14	10.24
296.354	10.74
296.568	9.68
296.781	9.82
296.994	9.53
297.208	11.09
297.421	11.46
297.635	11.95
297.848	12.13
298.062	12.09
298.275	13.15
298.489	13.41
298.702	13.17
298.915	13.67
299.129	14.51
299.342	14.53
299.555	14.41
299.769	14.71
299.982	14.34
300.195	14.35
300.409	14.75
300.622	15.24
300.835	14.22
301.048	14.72
301.262	15.32
301.475	13.66
301.688	13.54
301.901	12.31
302.115	11.88
302.328	12.24
302.541	13.48
302.754	13.03
302.967	12.04
303.18	13.76
303.393	13
303.607	11.7
303.82	12.88
304.033	13.2
304.246	12.72
304.459	13
304.672	13.32
304.885	13.71
305.098	13.46
305.311	13.59
305.524	12
305.737	13.85
305.95	13.85
306.163	13.65
306.376	14.07
306.589	14.98
306.802	14.76
307.015	15.29
307.228	13.53
307.44	14.31
307.653	14.67
307.866	15.73
308.079	15.15
308.292	15.35
308.505	15.21
308.718	14.14
308.93	14.57
309.143	13.84
309.356	12.78
309.569	14.15
309.781	14.9
309.994	13.72
310.207	13.19
310.42	12.71
310.632	14.11
310.845	14.02
311.058	14.67
311.27	14.83
311.483	15.5
311.696	15.71
311.908	15.51
312.121	14.26
312.333	14.67
312.546	15.03
312.759	15.38
312.971	14.18
313.184	14.49
313.396	13.93
313.609	14.2
313.821	13.29
314.034	13.4
314.246	13.02
314.459	13.98
314.671	14.75
314.884	15.13
315.096	15.82
315.309	14.79
315.521	14.13
315.733	14.55
315.946	12.86
316.158	14.04
316.371	13.72
316.583	13.69
316.795	13.23
317.008	13.35
317.22	13.62
317.432	13.3
317.644	14.74
317.857	15.52
318.069	14.93
318.281	14.45
318.494	14.12
318.706	15.39
318.918	15.38
319.13	16.54
319.342	15.78
319.555	15.18
319.767	13.92
319.979	13.23
320.191	12.77
320.403	14.19
320.615	14.88
320.827	15.21
321.039	14.38
321.252	13.98
321.464	12.71
321.676	11.83
321.888	12.61
322.1	12.99
322.312	14.27
322.524	16.24
322.736	16.02
322.948	16.84
323.16	16.82
323.372	16.56
323.584	17.49
323.796	19.04
324.007	19.27
324.219	19.63
324.431	20.37
324.643	20
324.855	18.49
325.067	19.06
325.279	19.43
325.491	20.77
325.702	21.51
325.914	21.89
326.126	21.3
326.338	21.27
326.55	20.73
326.761	20.57
326.973	20.43
327.185	20.47
327.396	20.12
327.608	19.84
327.82	19.8
328.032	19.92
328.243	19.95
328.455	20.3
328.666	21.56
328.878	21.73
329.09	22.41
329.301	22.3
329.513	22.97
329.725	23.24
329.936	24.27
330.148	23.43
330.359	22.26
330.571	22.28
330.782	21.94
330.994	22.27
331.205	22.24
331.417	21.47
331.628	22.17
331.84	22.53
332.051	22.77
332.262	22.08
332.474	22.69
332.685	24.1
332.897	24.19
333.108	25.3
333.319	25.19
333.531	25.96
333.742	26.56
333.953	26.23
334.165	26.01
334.376	26.55
334.587	26.35
334.799	26.38
335.01	26.55
335.221	26.54
335.432	25.5
335.644	25.54
335.855	25.31
336.066	24.93
336.277	24.89
336.488	24.66
336.7	23.93
336.911	23.98
337.122	23.69
337.333	23.56
337.544	23.14
337.755	23.12
337.966	22.78
338.177	22.44
338.388	22.47
338.599	22.69
338.811	22.04
339.022	22.23
339.233	22.7
339.444	22.64
339.655	23.06
339.866	23.2
340.076	22.68
340.287	23.62
340.498	23.6
340.709	24.53
340.92	24.63
341.131	25.61
341.342	26.54
341.553	27.03
341.764	26.52
341.975	25.43
342.185	25.07
342.396	25.92
342.607	25.1
342.818	24.83
343.029	24.01
343.239	24.15
343.45	23.93
343.661	22.81
343.872	21.6
344.082	21.42
344.293	21.65
344.504	21.88
344.714	21.52
344.925	21.36
345.136	21.88
345.346	23.12
345.557	22.87
345.768	22.51
345.978	23.59
346.189	24.65
346.399	24.71
346.61	24.92
346.821	24.94
347.031	25.58
347.242	26.41
347.452	26.09
347.663	25.99
347.873	26.75
348.084	26.75
348.294	25.87
348.504	25.23
348.715	25.56
348.925	25.78
349.136	26.23
349.346	25.48
349.557	24.9
349.767	24.96
349.977	23.95
350.188	23.39
350.398	23.75
350.608	23.93
350.819	24.71
351.029	24.98
351.239	24.66
351.449	24.43
351.66	23.76
351.87	24.07
352.08	24.16
352.29	24.16
352.501	24.49
352.711	24.33
352.921	24.31
353.131	23.72
353.341	23.33
353.552	23.84
353.762	23.52
353.972	24.2
354.182	23.79
354.392	23.74
354.602	23.53
354.812	23.03
355.022	23.49
355.232	22.92
355.442	23.42
355.652	23.69
355.862	23.26
356.072	22.98
356.282	23.02
356.492	23.36
356.702	23.49
356.912	23.38
357.122	23.47
357.332	23.3
357.542	23.64
357.752	23.29
357.962	23.34
358.171	23.23
358.381	23.84
358.591	23.3
358.801	22.8
359.011	22.05
359.221	22.42
359.43	22.71
359.64	22.24
359.85	21.85
360.06	21.76
360.269	21.47
360.479	21.57
360.689	21.27
360.899	21.59
361.108	22.07
361.318	22.56
361.528	22.29
361.737	21.66
361.947	21.61
362.156	21.48
362.366	21.26
362.576	20.97
362.785	21.25
362.995	21.31
363.204	21.47
363.414	20.55
363.623	20.41
363.833	20.39
364.042	20.37
364.252	21.11
364.461	21.36
364.671	22.17
364.88	22.85
365.09	22.52
365.299	22.67
365.509	22.22
365.718	22.9
365.927	22.72
366.137	22.2
366.346	22.35
366.555	21.77
366.765	21.51
366.974	20.8
367.183	20.75
367.393	20.3
367.602	19.47
367.811	19.54
368.021	19.71
368.23	19.66
368.439	20.06
368.648	20.54
368.857	20.59
369.067	20.41
369.276	20.37
369.485	19.89
369.694	20.42
369.903	20.99
370.112	20.49
370.321	20.27
370.531	20.6
370.74	20.31
370.949	19.34
371.158	18.44
371.367	18.46
371.576	18.49
371.785	18.27
371.994	17.54
372.203	17.21
372.412	17.87
372.621	17.54
372.83	16.86
373.039	16.92
373.248	17.37
373.457	17.59
373.666	17.29
373.874	16.96
374.083	16.49
374.292	16.23
374.501	16.24
374.71	15.84
374.919	15.86
375.128	16.21
375.336	16.41
375.545	15.94
375.754	16.12
375.963	16.37
376.171	16.16
376.38	16.23
376.589	16.63
376.798	16.15
377.006	15.93
377.215	15.84
377.424	15.74
377.632	15.49
377.841	15.65
378.05	15.57
378.258	15.24
378.467	15.12
378.675	15.11
378.884	14.95
379.093	14.83
379.301	15.06
379.51	14.73
379.718	14.84
379.927	14.79
380.135	14.48
380.344	14.2
380.552	13.96
380.761	13.5
380.969	13.53
381.177	13.48
381.386	13.7
381.594	13.33
381.803	13.11
382.011	12.84
382.219	12.45
382.428	12.7
382.636	12.55
382.845	13.19
383.053	13.28
383.261	13.03
383.469	13.04
383.678	12.59
383.886	12.16
384.094	12.28
384.302	12.21
384.511	12.4
384.719	12.2
384.927	12.28
385.135	11.99
385.343	12.3
385.552	12.54
385.76	12.26
385.968	12.46
386.176	12.71
386.384	12.53
386.592	12.43
386.8	12.37
387.008	12.42
387.216	12.36
387.424	12.39
387.633	11.93
387.841	11.85
388.049	11.61
388.257	11.54
388.465	11.56
388.672	11.48
388.88	11.19
389.088	11.21
389.296	10.52
389.504	10.22
389.712	10.05
389.92	9.97
390.128	9.61
390.336	9.65
390.544	9.8
390.751	9.79
390.959	9.98
391.167	9.95
391.375	9.9
391.583	10.31
391.79	10.32
391.998	10.35
392.206	10.49
392.414	10.7
392.621	10.35
392.829	10.2
393.037	10.11
393.244	10.16
393.452	10.3
393.66	10.02
393.867	9.97
394.075	10.22
394.283	10.24
394.49	10.28
394.698	10.19
394.905	10.82
395.113	10.45
395.32	10.37
395.528	10.17
395.735	10.09
395.943	10.02
396.15	10.16
396.358	9.93
396.565	9.89
396.773	9.74
396.98	9.72
397.188	9.37
397.395	9.87
397.602	10.04
397.81	10.23
398.017	9.88
398.225	10.01
398.432	9.76
398.639	10.22
398.847	9.75
399.054	9.67
399.261	9.31
399.468	9.33
399.676	8.74
399.883	8.38
400.09	7.78
400.297	7.97
400.505	7.69
400.712	7.59
400.919	6.95
401.126	7.3
401.333	7.19
401.54	7.12
401.748	6.95
401.955	7.25
402.162	7.37
402.369	7.71
402.576	7.41
402.783	7.63
402.99	7.16
403.197	7.23
403.404	7.21
403.611	7.37
403.818	7.36
404.025	7.46
404.232	7.38
404.439	7.27
404.646	6.95
404.853	7.08
405.06	7.11
405.267	7.29
405.474	6.88
405.681	6.38
405.887	6.42
406.094	6.71
406.301	6.89
406.508	6.73
406.715	6.8
406.922	7.23
407.128	7.38
407.335	6.9
407.542	6.85
407.749	7.28
407.955	7.51
408.162	7.2
408.369	6.89
408.575	6.65
408.782	7.15
408.989	7.05
409.195	6.55
409.402	6.28
409.609	6.75
409.815	6.96
410.022	6.92
410.228	7.09
410.435	7.49
410.642	7.38
410.848	7.17
411.055	7.05
411.261	6.84
411.468	6.94
411.674	7.02
411.881	6.98
412.087	6.96
412.294	6.99
412.5	6.96
412.706	6.42
412.913	6.34
413.119	6.35
413.326	6
413.532	6.22
413.738	6.44
413.945	6.23
414.151	5.97
414.357	5.92
414.564	5.73
414.77	5.6
414.976	5.9
415.182	5.94
415.389	5.73
415.595	5.68
415.801	5.7
416.007	5.66
416.214	5.7
416.42	5.92
416.626	5.8
416.832	5.77
417.038	5.86
417.244	5.91
417.45	5.92
417.657	6.28
417.863	6.19
418.069	6.09
418.275	5.94
418.481	5.99
418.687	5.91
418.893	5.76
419.099	6.08
419.305	5.8
419.511	5.68
419.717	5.86
419.923	5.61
420.129	5.63
420.335	5.61
420.541	5.7
420.746	5.52
420.952	5.3
421.158	5.35
421.364	5.14
421.57	5.21
421.776	5.23
421.982	5.05
422.187	5.04
422.393	5.03
422.599	4.98
422.805	4.92
423.01	5.03
423.216	5.06
423.422	5.1
423.628	5.07
423.833	5
424.039	4.95
424.245	5.08
424.45	5.11
424.656	5.18
424.862	5.2
425.067	5.32
425.273	5.39
425.478	5.5
425.684	5.6
425.889	5.55
426.095	5.75
426.301	5.73
426.506	5.65
426.712	5.65
426.917	5.59
427.123	5.54
427.328	5.14
427.533	4.95
427.739	4.85
427.944	4.58
428.15	4.62
428.355	4.54
428.561	4.58
428.766	4.48
428.971	4.79
429.177	4.92
429.382	5.02
429.587	5.16
429.793	5.2
429.998	5.33
430.203	5.34
430.408	5.26
430.614	5.41
430.819	5.37
431.024	5.44
431.229	5.3
431.434	5.04
431.64	5.24
431.845	5.35
432.05	5.51
432.255	5.46
432.46	5.35
432.665	5.14
432.87	5.06
433.076	5.17
433.281	5.14
433.486	5
433.691	5.06
433.896	4.82
434.101	4.67
434.306	4.67
434.511	4.64
434.716	4.82
434.921	5.07
435.126	4.96
435.331	4.81
435.535	4.58
435.74	4.51
435.945	4.37
436.15	4.43
436.355	4.58
436.56	4.46
436.765	4.16
436.97	4.25
437.174	4.18
437.379	4.17
437.584	4.4
437.789	4.49
437.993	4.75
438.198	4.81
438.403	4.79
438.608	4.84
438.812	4.88
439.017	5.05
439.222	5.05
439.426	5.12
439.631	5.17
439.836	5.16
440.04	5.03
440.245	4.8
440.45	4.88
440.654	4.87
440.859	4.81
441.063	4.73
441.268	4.75
441.472	4.69
441.677	4.71
441.881	4.81
442.086	4.8
442.29	4.92
442.495	4.93
442.699	5.05
442.904	4.99
443.108	5.11
443.312	5.16
443.517	5.27
443.721	5.26
443.925	5.05
444.13	4.68
444.334	4.52
444.538	4.68
444.743	4.69
444.947	4.46
445.151	4.48
445.356	4.47
445.56	4.48
445.764	4.55
445.968	4.54
446.173	4.57
446.377	4.6
446.581	4.55
446.785	4.43
446.989	4.36
447.193	4.63
447.398	4.5
447.602	4.28
447.806	4.2
448.01	4.19
448.214	4.22
448.418	4.13
448.622	4.24
448.826	4.18
449.03	4.27
449.234	4.42
449.438	4.25
449.642	4.41
449.846	4.59
450.05	4.65
450.254	4.42
450.458	4.45
450.662	4.58
450.866	4.44
451.069	4.38
451.273	4.26
451.477	4.14
451.681	4.15
451.885	4.26
452.089	4.26
452.292	4.27
452.496	4.36
452.7	4.28
452.904	4.21
453.107	4.46
453.311	4.54
453.515	4.49
453.719	4.53
453.922	4.41
454.126	4.28
454.33	4.29
454.533	4.36
454.737	4.4
454.94	4.37
455.144	4.45
455.348	4.35
455.551	4.38
455.755	4.37
455.958	4.41
456.162	4.46
456.365	4.6
456.569	4.65
456.772	4.59
456.976	4.34
457.179	4.33
457.383	4.34
457.586	4.32
457.79	4.36
457.993	4.32
458.196	4.25
458.4	4.1
458.603	3.88
458.807	3.82
459.01	3.91
459.213	4.09
459.417	4.07
459.62	4
459.823	3.94
460.026	3.95
460.23	3.98
460.433	4.04
460.636	4.09
460.839	4.2
461.042	4.23
461.246	4.1
461.449	4.07
461.652	4.16
461.855	4.17
462.058	4.22
462.261	4.17
462.464	4.3
462.668	4.36
462.871	4.39
463.074	4.3
463.277	4.26
463.48	4.47
463.683	4.59
463.886	4.39
464.089	4.62
464.292	4.82
464.495	4.82
464.698	4.87
464.901	4.62
465.104	4.8
465.306	4.71
465.509	4.7
465.712	4.57
465.915	4.35
466.118	4.51
466.321	4.37
466.524	4.2
466.726	4.16
466.929	4.21
467.132	4.3
467.335	4.22
467.538	4.34
467.74	4.38
467.943	4.38
468.146	4.5
468.348	4.45
468.551	4.46
468.754	4.63
468.956	4.5
469.159	4.51
469.362	4.66
469.564	4.74
469.767	4.69
469.969	4.77
470.172	4.72
470.375	4.51
470.577	4.57
470.78	4.7
470.982	4.47
471.185	4.81
471.387	4.73
471.59	4.68
471.792	4.57
471.995	4.57
472.197	4.63
472.399	4.41
472.602	4.51
472.804	4.6
473.007	4.42
473.209	4.47
473.411	4.42
473.614	4.3
473.816	3.97
474.018	3.97
474.22	4.25
474.423	4.12
474.625	4.23
474.827	4.51
475.03	4.41
475.232	4.41
475.434	4.38
475.636	4.35
475.838	4.38
476.04	4.56
476.243	4.4
476.445	4.05
476.647	4.14
476.849	4.47
477.051	4.28
477.253	4.37
477.455	4.43
477.657	4.38
477.859	4.34
478.061	4.5
478.263	4.42
478.465	4.55
478.667	4.56
478.869	4.52
479.071	4.36
479.273	4.33
479.475	4.18
479.677	4.16
479.879	4.2
480.081	4.13
480.283	4.07
480.485	4.31
480.686	4.2
480.888	4.28
481.09	4.18
481.292	4.29
481.494	4.33
481.695	4.37
481.897	4.47
482.099	4.49
482.301	4.51
482.502	4.39
482.704	4.31
482.906	4.34
483.107	4.36
483.309	4.33
483.511	4.21
483.712	4.22
483.914	4.2
484.115	4.1
484.317	4.05
484.519	4.01
484.72	4.05
484.922	3.99
485.123	4.06
485.325	4.01
485.526	4.03
485.728	4.1
485.929	4.11
486.131	4.12
486.332	4.21
486.534	4.22
486.735	4.27
486.936	4.24
487.138	4.24
487.339	4.14
487.541	4.15
487.742	4.16
487.943	4.09
488.144	4.06
488.346	4.03
488.547	4
488.748	4
488.95	3.93
489.151	3.88
489.352	3.89
489.553	3.92
489.755	3.92
489.956	3.88
490.157	3.87
490.358	3.91
490.559	3.87
490.76	3.84
490.961	3.81
491.163	3.95
491.364	3.97
491.565	4
491.766	4
491.967	4.09
492.168	4.07
492.369	4.06
492.57	3.94
492.771	4.02
492.972	3.99
493.173	4.05
493.374	3.98
493.575	4.09
493.776	4.02
493.976	4.05
494.177	4.03
494.378	4.21
494.579	4.26
494.78	4.4
494.981	4.24
495.182	4.28
495.382	4.59
495.583	4.63
495.784	4.5
495.985	4.67
496.185	4.55
496.386	4.44
496.587	4.3
496.788	4.34
496.988	4.28
497.189	4.26
497.39	4.44
497.59	4.3
497.791	4.35
497.992	4.28
498.192	4.25
498.393	4.34
498.593	4.4
498.794	4.42
498.994	4.4
499.195	4.58
499.395	4.87
499.596	4.78
499.796	4.77
499.997	4.91
500.197	5.12
500.398	5.19
500.598	5.08
500.799	5.2
500.999	5.31
501.199	5.36
501.4	5.26
501.6	5.18
501.801	5.2
502.001	5.16
502.201	4.98
502.402	4.98
502.602	5.01
502.802	5.16
503.002	5.15
503.203	5.09
503.403	5.08
503.603	5.22
503.803	5.44
504.003	5.39
504.204	5.53
504.404	5.75
504.604	5.75
504.804	5.87
505.004	6.08
505.204	6.01
505.404	5.93
505.604	6.15
505.804	6.14
506.005	5.96
506.205	6.06
506.405	6.09
506.605	5.87
506.805	6.06
507.005	6.17
507.204	6.04
507.404	6.25
507.604	6.45
507.804	6.48
508.004	6.51
508.204	6.55
508.404	6.64
508.604	6.67
508.804	6.89
509.003	7.07
509.203	6.99
509.403	7.02
509.603	7.06
509.803	7.18
510.002	7.23
510.202	7.42
510.402	7.64
510.602	7.88
510.801	7.95
511.001	7.96
511.201	7.83
511.4	7.97
511.6	8.31
511.8	8.34
511.999	8.48
512.199	8.47
512.398	8.49
512.598	8.56
512.797	8.58
512.997	8.83
513.197	8.96
513.396	9.1
513.596	9.26
513.795	9.21
513.994	9.48
514.194	9.55
514.393	9.8
514.593	9.86
514.792	9.96
514.992	10.01
515.191	10.1
515.39	10.15
515.59	10.49
515.789	10.47
515.988	10.65
516.188	10.56
516.387	10.7
516.586	10.87
516.786	11.07
516.985	11.2
517.184	11.28
517.383	11.36
517.582	11.53
517.782	11.5
517.981	11.72
518.18	11.75
518.379	11.98
518.578	12.11
518.777	12.16
518.976	12.26
519.176	12.35
519.375	12.45
519.574	12.61
519.773	12.77
519.972	12.91
520.171	13.05
520.37	13.27
520.569	13.33
520.768	13.36
520.967	13.6
521.166	13.74
521.365	13.95
521.564	14.2
521.762	14.2
521.961	14.32
522.16	14.4
522.359	14.33
522.558	14.34
522.757	14.35
522.956	14.56
523.154	14.51
523.353	14.61
523.552	14.83
523.751	14.81
523.949	14.96
524.148	14.99
524.347	15.21
524.546	15.56
524.744	15.8
524.943	16.15
525.142	16.32
525.34	16.52
525.539	16.62
525.737	16.62
525.936	16.9
526.135	17.25
526.333	17.42
526.532	17.49
526.73	17.52
526.929	17.56
527.127	17.68
527.326	17.82
527.524	17.97
527.723	18.16
527.921	18.35
528.12	18.4
528.318	18.37
528.516	18.44
528.715	18.53
528.913	18.63
529.112	18.7
529.31	18.7
529.508	18.76
529.707	18.83
529.905	18.85
530.103	18.79
530.301	18.85
530.5	18.98
530.698	19.15
530.896	19.31
531.094	19.47
531.293	19.67
531.491	19.93
531.689	20.07
531.887	20.18
532.085	20.51
532.283	20.74
532.481	20.89
532.68	20.94
532.878	21.05
533.076	21.12
533.274	21.16
533.472	21.27
533.67	21.35
533.868	21.46
534.066	21.61
534.264	21.62
534.462	21.73
534.66	21.82
534.858	21.97
535.056	22.15
535.253	22.34
535.451	22.44
535.649	22.49
535.847	22.69
536.045	22.89
536.243	22.92
536.441	22.95
536.638	23.02
536.836	23.12
537.034	23.15
537.232	23.22
537.43	23.17
537.627	23.35
537.825	23.53
538.023	23.51
538.22	23.48
538.418	23.7
538.616	23.65
538.813	23.91
539.011	24.13
539.209	24.27
539.406	24.29
539.604	24.58
539.801	24.56
539.999	24.64
540.196	24.74
540.394	24.82
540.591	24.78
540.789	24.95
540.986	24.9
541.184	24.88
541.381	24.99
541.579	25.04
541.776	25.01
541.974	25.1
542.171	25.18
542.368	25.23
542.566	25.29
542.763	25.38
542.96	25.48
543.158	25.5
543.355	25.63
543.552	25.75
543.75	25.89
543.947	25.98
544.144	26.08
544.341	26.12
544.539	26.26
544.736	26.24
544.933	26.33
545.13	26.51
545.327	26.82
545.524	26.92
545.722	26.92
545.919	26.84
546.116	26.9
546.313	27
546.51	27.02
546.707	27.09
546.904	27.28
547.101	27.39
547.298	27.28
547.495	27.1
547.692	27.02
547.889	26.92
548.086	27.15
548.283	27.15
548.48	27.15
548.677	27.41
548.874	27.34
549.07	27.42
549.267	27.34
549.464	27.59
549.661	27.85
549.858	27.96
550.055	28.28
550.251	28.33
550.448	28.52
550.645	28.7
550.842	28.56
551.038	28.73
551.235	28.84
551.432	29.13
551.628	29.2
551.825	29.14
552.022	29.32
552.218	29.24
552.415	29.16
552.612	29.2
552.808	29.25
553.005	29.52
553.201	29.59
553.398	29.56
553.594	29.6
553.791	29.6
553.987	29.77
554.184	29.66
554.38	29.84
554.577	30.02
554.773	30.14
554.97	30.31
555.166	30.15
555.362	30.28
555.559	30.41
555.755	30.29
555.952	30.47
556.148	30.77
556.344	30.92
556.541	30.89
556.737	30.87
556.933	31.05
557.129	31.04
557.326	30.96
557.522	30.91
557.718	30.74
557.914	30.9
558.11	31.1
558.307	30.87
558.503	30.96
558.699	31.15
558.895	31.03
559.091	30.99
559.287	30.98
559.483	31
559.679	30.98
559.876	31.27
560.072	31.25
560.268	30.98
560.464	30.99
560.66	30.93
560.856	30.83
561.052	30.97
561.247	30.85
561.443	30.84
561.639	30.99
561.835	31.18
562.031	30.98
562.227	30.92
562.423	30.86
562.619	30.78
562.815	30.87
563.01	30.77
563.206	31.06
563.402	31.3
563.598	31.34
563.793	31.26
563.989	31.29
564.185	31.37
564.381	31.71
564.576	31.76
564.772	31.9
564.968	31.97
565.163	32.23
565.359	32.11
565.555	32.04
565.75	31.89
565.946	32.2
566.141	32.06
566.337	32.07
566.532	32.1
566.728	32.16
566.923	32.42
567.119	32.39
567.314	32.37
567.51	32.52
567.705	32.59
567.901	32.62
568.096	32.52
568.292	32.67
568.487	32.63
568.682	32.54
568.878	32.62
569.073	32.47
569.268	32.53
569.464	32.48
569.659	32.33
569.854	32.32
570.05	32.56
570.245	32.65
570.44	32.64
570.635	32.98
570.831	33.09
571.026	33.23
571.221	33.27
571.416	33.25
571.611	33.38
571.806	33.45
572.002	33.36
572.197	33.39
572.392	33.37
572.587	33.42
572.782	33.25
572.977	33.21
573.172	32.93
573.367	32.73
573.562	32.81
573.757	32.74
573.952	32.7
574.147	32.86
574.342	32.97
574.537	32.96
574.732	33.07
574.927	33.27
575.121	33.25
575.316	33.6
575.511	33.71
575.706	33.7
575.901	33.81
576.096	33.77
576.29	33.76
576.485	33.64
576.68	33.6
576.875	33.55
577.069	33.44
577.264	33.5
577.459	33.39
577.654	33.41
577.848	33.31
578.043	33.23
578.238	33.44
578.432	33.44
578.627	33.36
578.821	33.68
579.016	33.84
579.21	33.72
579.405	33.73
579.6	33.69
579.794	33.74
579.989	33.84
580.183	33.73
580.378	33.73
580.572	33.81
580.766	34.31
580.961	34.25
581.155	33.92
581.35	34.11
581.544	34.05
581.738	34.15
581.933	34.32
582.127	34.49
582.321	34.72
582.516	34.45
582.71	34.4
582.904	34.15
583.099	34.04
583.293	34.28
583.487	34.33
583.681	34.41
583.875	34.22
584.07	34.16
584.264	34.29
584.458	34.36
584.652	34.7
584.846	34.4
585.04	34.46
585.234	34.48
585.428	34.38
585.623	34.62
585.817	34.79
586.011	34.91
586.205	34.92
586.399	35.08
586.593	35.09
586.787	35.08
586.981	35.65
587.174	35.5
587.368	35.44
587.562	35.63
587.756	35.56
587.95	35.23
588.144	35.27
588.338	35.04
588.532	34.74
588.725	34.86
588.919	34.9
589.113	34.85
589.307	34.89
589.501	35.04
589.694	34.87
589.888	34.75
590.082	34.99
590.275	35.06
590.469	35.13
590.663	35.28
590.856	35.09
591.05	35.03
591.244	35.03
591.437	35.04
591.631	35.18
591.824	35.2
592.018	35.41
592.212	35.29
592.405	35.32
592.599	35.47
592.792	35.37
592.986	35.23
593.179	35.22
593.372	35.22
593.566	35.19
593.759	35.05
593.953	35.06
594.146	35.05
594.339	35
594.533	35.07
594.726	35
594.92	34.9
595.113	35.1
595.306	34.98
595.499	34.85
595.693	34.84
595.886	35.08
596.079	34.98
596.272	34.85
596.466	34.86
596.659	34.79
596.852	35.02
597.045	35.17
597.238	35.02
597.431	35
597.624	35.02
597.818	35.12
598.011	35
598.204	35.39
598.397	35.37
598.59	35.49
598.783	35.74
598.976	35.46
599.169	35.26
599.362	35.4
599.555	35.91
599.748	35.9
599.941	36.13
600.134	36.11
600.326	35.8
600.519	36.31
600.712	36.35
600.905	36.03
601.098	36.21
601.291	36.57
601.483	36.77
601.676	36.57
601.869	36.64
602.062	36.4
602.255	36.12
602.447	36.23
602.64	36.09
602.833	35.98
603.025	36.18
603.218	36.23
603.411	36.23
603.603	36.39
603.796	36.4
603.989	36.31
604.181	36.36
604.374	36.51
604.566	36.43
604.759	36.38
604.951	36.51
605.144	36.34
605.336	36.16
605.529	35.93
605.721	35.77
605.914	35.69
606.106	35.74
606.299	35.74
606.491	35.62
606.683	35.64
606.876	35.71
607.068	35.76
607.26	35.77
607.453	35.8
607.645	35.83
607.837	35.82
608.03	35.78
608.222	36.12
608.414	36.18
608.606	36.45
608.799	36.4
608.991	36.23
609.183	35.97
609.375	36.22
609.567	36.34
609.759	36.61
609.952	36.81
610.144	36.86
610.336	36.77
610.528	36.69
610.72	36.73
610.912	36.8
611.104	36.95
611.296	37.24
611.488	37.12
611.68	37.38
611.872	37.26
612.064	37.17
612.256	37.15
612.448	37.05
612.64	37.22
612.832	36.81
613.023	36.67
613.215	36.35
613.407	36.37
613.599	36.41
613.791	36.09
613.983	36.42
614.174	36.39
614.366	36.59
614.558	36.62
614.75	36.58
614.941	37.21
615.133	37.34
615.325	37.5
615.516	37.46
615.708	37.23
615.9	37.44
616.091	37.18
616.283	36.94
616.475	36.92
616.666	36.87
616.858	36.68
617.049	36.64
617.241	36.56
617.432	36.79
617.624	36.89
617.815	36.86
618.007	36.68
618.198	36.64
618.39	36.77
618.581	36.52
618.773	36.72
618.964	36.62
619.155	36.37
619.347	36.6
619.538	36.66
619.729	36.48
619.921	36.8
620.112	37.17
620.303	37.36
620.494	37.3
620.686	37.41
620.877	37.4
621.068	37.71
621.259	37.85
621.451	37.66
621.642	37.67
621.833	38.01
622.024	37.91
622.215	37.81
622.406	37.87
622.597	37.86
622.788	37.84
622.98	37.83
623.171	37.87
623.362	37.95
623.553	38.35
623.744	38.06
623.935	37.94
624.126	38.02
624.317	37.88
624.508	37.9
624.698	37.83
624.889	38.1
625.08	37.95
625.271	37.92
625.462	37.72
625.653	37.33
625.844	37.35
626.034	37.11
626.225	37.01
626.416	36.94
626.607	37
626.798	36.9
626.988	36.65
627.179	36.47
627.37	36.24
627.56	36.42
627.751	36.4
627.942	36.59
628.132	36.71
628.323	36.74
628.514	36.78
628.704	36.6
628.895	36.79
629.085	36.98
629.276	37.18
629.466	37.41
629.657	37.47
629.847	37.65
630.038	37.52
630.228	37.54
630.419	37.43
630.609	37.61
630.8	37.68
630.99	37.65
631.181	37.42
631.371	37.33
631.561	37.33
631.752	37.28
631.942	37.25
632.132	36.98
632.323	36.95
632.513	37.38
632.703	37.37
632.893	37.25
633.084	37.26
633.274	37.45
633.464	37.33
633.654	37.29
633.844	37.11
634.034	37.18
634.225	37.35
634.415	37.41
634.605	37.34
634.795	37.6
634.985	37.76
635.175	38.04
635.365	38.21
635.555	38.27
635.745	38.27
635.935	38.39
636.125	38.05
636.315	38.24
636.505	38.34
636.695	38.26
636.885	37.75
637.075	37.54
637.265	37.52
637.455	37.36
637.644	37.63
637.834	37.46
638.024	37.33
638.214	37.82
638.404	37.64
638.593	37.24
638.783	37.41
638.973	37.63
639.163	37.75
639.352	37.57
639.542	37.65
639.732	37.31
639.921	37.65
640.111	37.67
640.301	37.33
640.49	37.6
640.68	37.71
640.87	37.23
641.059	37.64
641.249	37.47
641.438	37.47
641.628	37.06
641.817	37.4
642.007	37.09
642.196	37.22
642.386	37.36
642.575	37.17
642.764	37.32
642.954	37.73
643.143	37.14
643.333	37.53
643.522	37.67
643.711	37.85
643.901	37.87
644.09	38.09
644.279	38.25
644.469	38.24
644.658	38.2
644.847	38.42
645.036	38.52
645.226	38.48
645.415	38.22
645.604	37.83
645.793	37.54
645.982	37.41
646.171	37.22
646.361	36.68
646.55	37.17
646.739	37.17
646.928	37.31
647.117	36.79
647.306	37.07
647.495	37.56
647.684	37.36
647.873	37.85
648.062	38.24
648.251	38.3
648.44	38.73
648.629	38.21
648.818	38.11
649.007	37.27
649.196	37.57
649.384	37.65
649.573	37.1
649.762	37.61
649.951	37.42
650.14	37.34
650.328	37.74
650.517	37.53
650.706	37.78
650.895	38.27
651.083	38.56
651.272	38.38
651.461	38.12
651.65	38.42
651.838	38.13
652.027	38.25
652.216	38.24
652.404	38.02
652.593	37.91
652.781	37.89
652.97	37.42
653.158	37.41
653.347	37.8
653.535	37.86
653.724	37.8
653.912	38.17
654.101	38.36
654.289	37.83
654.478	37.8
654.666	37.79
654.855	37.82
655.043	38.05
655.231	38.38
655.42	38.38
655.608	38.99
655.796	38.86
655.985	38.67
656.173	38.54
656.361	38.76
656.55	38.49
656.738	38.61
656.926	38.56
657.114	38.2
657.302	37.99
657.491	37.85
657.679	37.37
657.867	37.42
658.055	37.34
658.243	37.69
658.431	37.52
658.619	37.58
658.807	37.93
658.996	37.92
659.184	38.15
659.372	38.27
659.56	38.28
659.748	38.4
659.936	38.13
660.124	38.14
660.311	37.92
660.499	38.08
660.687	38.32
660.875	38.02
661.063	38.18
661.251	38.24
661.439	38.27
661.627	37.82
661.814	37.96
662.002	38.3
662.19	38.44
662.378	38.03
662.565	38.18
662.753	38.12
662.941	38.1
663.129	37.64
663.316	37.49
663.504	37.13
663.692	37.53
663.879	36.9
664.067	36.86
664.254	36.75
664.442	37.22
664.63	37.27
664.817	37.41
665.005	37.04
665.192	37.46
665.38	37.34
665.567	38.1
665.755	38.34
665.942	38.73
666.13	38.92
666.317	39.05
666.504	38.65
666.692	38.69
666.879	38.44
667.067	39.01
667.254	38.92
667.441	39.3
667.629	38.97
667.816	38.59
668.003	38.55
668.19	38.21
668.378	38.46
668.565	38.48
668.752	38.16
668.939	38.46
669.127	38.26
669.314	38.5
669.501	38.17
669.688	38.04
669.875	38.38
670.062	38.3
670.249	38.49
670.436	38.34
670.623	38.58
670.81	38.75
670.997	38.54
671.184	38.45
671.371	38.04
671.558	38.3
671.745	38.48
671.932	38.6
672.119	38.77
672.306	38.61
672.493	38.43
672.68	38.42
672.867	38.65
673.054	38.44
673.24	38.36
673.427	38.86
673.614	38.79
673.801	38.85
673.988	39.11
674.174	39
674.361	39.32
674.548	38.96
674.734	39.15
674.921	39.01
675.108	39.23
675.294	39.45
675.481	38.79
675.668	38.63
675.854	38.27
676.041	37.72
676.227	37.88
676.414	37.36
676.601	37.61
676.787	37.07
676.974	37.13
677.16	37
677.347	36.92
677.533	37.43
677.719	38.02
677.906	37.9
678.092	38.31
678.279	38.22
678.465	38.8
678.651	39.15
678.838	39.47
679.024	39.16
679.21	39.26
679.397	39.47
679.583	39.32
679.769	38.89
679.955	39.19
680.142	38.72
680.328	38.65
680.514	38.04
680.7	38.08
680.886	38.07
681.073	38.13
681.259	38.09
681.445	38.22
681.631	37.88
681.817	37.71
682.003	37.76
682.189	37.85
682.375	37.65
682.561	37.97
682.747	37.35
682.933	37.25
683.119	37.57
683.305	37.92
683.491	37.48
683.677	37.87
683.863	38.17
684.049	38.13
684.235	38.21
684.42	38.49
684.606	38.14
684.792	38.57
684.978	38.82
685.164	38.28
685.349	38.26
685.535	38.18
685.721	38.5
685.907	38.14
686.092	38.13
686.278	37.72
686.464	37.95
686.649	38.35
686.835	38.69
687.021	38.46
687.206	39.34
687.392	39
687.577	39.49
687.763	38.64
687.948	38.84
688.134	38.45
688.319	38.64
688.505	38.69
688.69	39.06
688.876	38.63
689.061	38.71
689.247	38.33
689.432	38.38
689.618	38.31
689.803	39.35
689.988	39.31
690.174	39.94
690.359	40.04
690.544	39.37
690.73	39.33
690.915	39.62
691.1	39.43
691.285	39.73
691.471	40.32
691.656	40.42
691.841	40.05
692.026	40.26
692.211	40.42
692.396	40.63
692.582	40.68
692.767	40.51
692.952	40.78
693.137	41.15
693.322	40.77
693.507	40.11
693.692	39.8
693.877	39.87
694.062	40.14
694.247	39.61
694.432	39.4
694.617	39.68
694.802	39.57
694.987	38.8
695.172	38.45
695.357	39.24
695.541	39.33
695.726	39.65
695.911	39.76
696.096	39.6
696.281	39.59
696.466	39.75
696.65	40
696.835	39.78
697.02	40.37
697.204	40.05
697.389	39.25
697.574	39.14
697.759	38.68
697.943	38.38
698.128	38.22
698.312	38.22
698.497	38.13
698.682	37.99
698.866	38.08
699.051	37.65
699.235	37.95
699.42	37.77
699.604	38.07
699.789	38.24
699.973	38.02
700.158	37.88
700.342	37.93
700.527	37.92
700.711	37.84
700.895	38.15
701.08	38.26
701.264	38.51
701.448	38.5
701.633	38.14
701.817	37.99
702.001	38.31
702.186	38.83
702.37	38.57
702.554	38.63
702.738	38.75
702.923	37.81
703.107	38.12
703.291	37.7
703.475	38.01
703.659	38.39
703.843	39.07
704.027	38.9
704.212	38.59
704.396	38.98
704.58	38.93
704.764	39.15
704.948	39.64
705.132	39.86
705.316	40.34
705.5	40.25
705.684	39.79
705.868	40.21
706.052	40.69
706.235	40.71
706.419	41.16
706.603	40.74
706.787	39.97
706.971	39.99
707.155	39.32
707.339	39.09
707.522	39.15
707.706	39.44
707.89	38.82
708.074	39.13
708.257	39.7
708.441	39.38
708.625	40.33
708.808	41.24
708.992	41.06
709.176	41.49
709.359	41.26
709.543	41.01
709.727	40.96
709.91	41.21
710.094	41.19
710.277	41.04
710.461	40.77
710.644	40.61
710.828	40.64
711.011	41.38
711.195	41.17
711.378	41.27
711.562	41.42
711.745	41.64
711.928	41.42
712.112	40.94
712.295	39.84
712.478	39.54
712.662	39.08
712.845	39.17
713.028	38.64
713.212	38.01
713.395	37.64
713.578	37.58
713.761	36.83
713.945	36.62
714.128	36.58
714.311	37.43
714.494	37.61
714.677	37.39
714.86	37.41
715.043	37.53
715.227	38.32
715.41	38.01
715.593	37.85
715.776	37.88
715.959	37.92
716.142	38.17
716.325	37.9
716.508	38.19
716.691	38.65
716.874	38.2
717.057	37.89
717.239	38.14
717.422	38.74
717.605	39.62
717.788	39.43
717.971	39.26
718.154	38.88
718.337	39.56
718.519	38.99
718.702	38.93
718.885	38.96
719.068	39.16
719.25	38.87
719.433	38.39
719.616	37.72
719.798	37.87
719.981	37.92
720.164	38.07
720.346	37.65
720.529	38.67
720.712	38.61
720.894	38.34
721.077	38.35
721.259	38.29
721.442	39.33
721.624	39.31
721.807	39.91
721.989	40.76
722.172	41.22
722.354	40.58
722.537	40.72
722.719	41.06
722.901	40.65
723.084	40.69
723.266	40.33
723.448	39.65
723.631	39.29
723.813	39.68
723.995	39.16
724.178	39.16
724.36	40.06
724.542	40.02
724.724	38.98
724.907	39.18
725.089	38.89
725.271	39.58
725.453	39.18
725.635	39.05
725.817	38.57
725.999	38.34
726.181	37.88
726.364	37.2
726.546	36.66
726.728	37.9
726.91	38.63
727.092	38.46
727.274	38.51
727.456	38.9
727.638	38.81
727.819	39.23
728.001	39.21
728.183	39.6
728.365	39.92
728.547	39.95
728.729	40.18
728.911	39.86
729.093	39.94
729.274	39.96
729.456	39.87
729.638	40.44
729.82	39.73
730.001	39.89
730.183	39.67
730.365	40.33
730.546	39.72
730.728	39.21
730.91	39.38
731.091	39.96
731.273	38.96
731.455	39.34
731.636	39.54
731.818	40.01
731.999	40.12
732.181	39.77
732.362	39.04
732.544	39.22
732.725	39.14
732.907	38.58
733.088	38.38
733.27	38.87
733.451	38.6
733.633	38.47
733.814	38.1
733.995	37.08
734.177	37.84
734.358	37.04
734.539	37.17
734.721	36.69
734.902	37.3
735.083	37.13
735.264	36.73
735.446	37.94
735.627	37.94
735.808	38.53
735.989	38.88
736.17	38
736.351	39.19
736.533	39.44
736.714	40.25
736.895	40.37
737.076	40.06
737.257	40.95
737.438	40.81
737.619	40.9
737.8	39.94
737.981	39.82
738.162	39.7
738.343	39.9
738.524	39.86
738.705	40.77
738.886	40.3
739.067	41
739.247	40.91
739.428	39.88
739.609	40.81
739.79	42.34
739.971	42.39
740.151	42.64
740.332	42.62
740.513	43.02
740.694	41.09
740.874	41.28
741.055	40.08
741.236	39.86
741.417	39.62
741.597	37.55
741.778	37.23
741.958	38.22
742.139	38.32
742.32	37.83
742.5	36.58
742.681	37.54
742.861	37.06
743.042	36.97
743.222	36.97
743.403	37.61
743.583	39
743.764	37.65
743.944	36.71
744.124	37.66
744.305	38.02
744.485	38.59
744.666	37.82
744.846	37.54
745.026	38.46
745.207	38.91
745.387	38.73
745.567	38.84
745.747	39.4
745.928	40.53
746.108	39.85
746.288	39.14
746.468	38.51
746.648	39.37
746.829	39.36
747.009	39.05
747.189	38.5
747.369	38.88
747.549	38.85
747.729	39.48
747.909	37.9
748.089	37.68
748.269	38.12
748.449	38.53
748.629	38.43
748.809	38.91
748.989	39.17
749.169	39.31
749.349	39.42
749.529	38.38
749.709	37.83
749.889	39.22
750.068	39.39
750.248	40.11
750.428	40.94
750.608	41.53
750.788	40.73
750.967	41.7
751.147	42.23
751.327	42.42
751.507	43.64
751.686	44.84
751.866	44.91
752.046	44.4
752.225	44.15
752.405	43.83
752.585	43.32
752.764	45.5
752.944	45.17
753.123	44.97
753.303	44.31
753.482	43.05
753.662	41.68
753.841	41.97
754.021	41.38
754.2	40.79
754.38	40.89
754.559	39.97
754.739	38.01
754.918	37.15
755.097	36.79
755.277	37.07
755.456	39.2
755.635	39.31
755.815	38.23
755.994	38.03
756.173	37.47
756.352	38.07
756.532	38.52
756.711	39.7
756.89	39.42
757.069	40.08
757.248	40.71
757.427	38.49
757.607	39.37
757.786	39.54
757.965	40.34
758.144	41.31
758.323	40.37
758.502	40.04
758.681	40.26
758.86	40.83
759.039	40.05
759.218	39.16
759.397	40.11
759.576	40.44
759.755	41.09
759.934	41.52
760.113	42.34
760.291	42.72
760.47	43.23
760.649	42.67
760.828	42.57
761.007	42.77
761.186	42.02
761.364	42.02
761.543	40.27
761.722	39.95
761.901	39.59
762.079	38.86
762.258	39.44
762.437	39.03
762.615	39.03
762.794	39.16
762.972	39.13
763.151	39.58
763.33	39.22
763.508	39.76
763.687	39.81
763.865	39.67
764.044	39.3
764.222	38.63
764.401	38.69
764.579	39.28
764.758	39.04
764.936	38.18
765.114	38.37
765.293	38.86
765.471	39.01
765.65	38.81
765.828	39.38
766.006	38.79
766.184	38.97
766.363	39.06
766.541	37.73
766.719	38.23
766.898	39.49
767.076	39.4
767.254	39.74
767.432	40.02
767.61	39.99
767.788	40.06
767.967	40.69
768.145	40.1
768.323	39.59
768.501	40.07
768.679	39.38
768.857	39.1
769.035	39.23
769.213	38.28
769.391	38.72
769.569	36.43
769.747	36.03
769.925	36.76
770.103	36.95
770.281	36.17
770.459	35.82
770.636	36.5
770.814	36.93
770.992	36.1
771.17	35.33
771.348	34.94
771.525	36.87
771.703	36.09
771.881	35.76
772.059	36.94
772.236	38.64
772.414	39.91
772.592	39.79
772.769	40.04
772.947	40.55
773.125	40.65
773.302	39.24
773.48	40.2
773.657	41.34
773.835	41.15
774.013	41.61
774.19	41.94
774.368	41.34
774.545	43.46
774.723	42.01
774.9	42.2
775.077	43.52
775.255	44.67
775.432	44.78
775.61	46.37
775.787	47.27
775.964	45.85
776.142	44.03
776.319	43.63
776.496	40.95
776.674	40.73
776.851	42.11
777.028	41.05
777.205	41.47
777.382	41.88
777.56	40.68
777.737	39.94
777.914	39.56
778.091	42.35
778.268	43.19
778.445	42.56
778.622	43.59
778.8	42.53
778.977	42.92
779.154	40.19
779.331	38.57
779.508	39.07
779.685	39.22
779.862	40.14
780.038	39.07
780.215	39.15
780.392	40.21
780.569	40.55
780.746	40.38
780.923	40.27
781.1	42.89
781.277	42.64
781.453	39.7
781.63	38.46
781.807	37.76
781.984	37.45
782.16	38.32
782.337	39.47
782.514	40.94
782.691	41.57
782.867	40.26
783.044	38.95
783.221	39.41
783.397	40.7
783.574	41.25
783.75	41.95
783.927	42.85
784.103	41.23
784.28	42.65
784.456	41.57
784.633	41.71
784.809	44.07
784.986	44.66
785.162	44.74
785.339	45.79
785.515	44.86
785.692	43.34
785.868	43.11
786.044	41.17
786.221	39.34
786.397	38.91
786.573	38.67
786.749	38.19
786.926	38.55
787.102	40.79
787.278	38.44
787.454	39.63
787.631	40.02
787.807	39.17
787.983	40.12
788.159	37.99
788.335	38.37
788.511	38.87
788.687	39.79
788.863	37.96
789.039	35.6
789.216	36.07
789.392	36.11
789.568	37.65
789.744	38.01
789.919	37.37
790.095	38.39
790.271	37.68
790.447	38.01
790.623	35.26
790.799	36.31
790.975	36.39
791.151	39.71
791.327	40.24
791.502	41.58
791.678	40.57
791.854	43.19
792.03	43.76
792.205	45.22
792.381	42.84
792.557	47.4
792.733	48.99
792.908	49.18
793.084	48.21
793.259	47.26
793.435	45.52
793.611	46.68
793.786	45.4
793.962	44.99
794.137	43.04
794.313	40.49
794.488	38.72
794.664	37.51
794.839	39.15
795.015	39.58
795.19	40.95
795.366	39.68
795.541	39.35
795.716	39.28
795.892	38.43
796.067	38.52
796.242	41.95
796.418	38.95
796.593	38.7
796.768	37.38
796.944	37.55
797.119	37.37
797.294	40.79
797.469	40.47
797.644	40.15
797.82	40.8
797.995	41.15
798.17	41.74
798.345	45.12
798.52	44.92
798.695	46.43
798.87	44.14
799.045	42.95
799.22	41.27
799.395	42.99
799.57	42.63
799.745	41.98
799.92	42.51
800.095	42.04
800.27	40.14
800.445	41.25
800.62	40.31
800.795	40.95
800.97	43.5
801.145	42.97
801.319	41.53
801.494	43.21
801.669	43.93
801.844	44.42
802.018	44.35
802.193	42.84
802.368	43.93
802.543	44.59
802.717	46.26
802.892	43.13
803.067	42.1
803.241	43.83
803.416	43.2
803.59	42.79
803.765	39.61
803.94	38.01
804.114	37.96
804.289	37.62
804.463	36.7
804.638	34.62
804.812	35.58
804.986	37.07
805.161	34.95
805.335	34.83
805.51	35.18
805.684	37.95
805.858	39.64
806.033	43.72
806.207	43.09
806.381	45.03
806.556	44.96
806.73	44.38
806.904	42.75
807.078	45.68
807.253	46.07
807.427	45.79
807.601	46.51
807.775	46.55
807.949	45.61
808.123	45.96
808.298	44.35
808.472	46.13
808.646	46.18
808.82	48.43
808.994	46.52
809.168	45.27
809.342	44.06
809.516	44.6
809.69	44.3
809.864	42.64
810.038	41.19
810.212	42.05
810.385	41.1
810.559	42.36
810.733	41.34
810.907	41.64
811.081	42.72
811.255	45.41
811.428	45.01
811.602	45.52
811.776	43.9
811.95	46.62
812.123	45.88
812.297	46.23
812.471	45.7
812.644	46.33
812.818	42.77
812.992	43.88
813.165	44.3
813.339	43.39
813.512	42.36
813.686	44.46
813.86	42.75
814.033	43.03
814.207	44.38
814.38	48.77
814.554	49.8
814.727	50.22
814.9	51.48
815.074	52.18
815.247	53.19
815.421	54.7
815.594	53
815.767	55.91
815.941	55.81
816.114	55.21
816.287	49.88
816.46	49.72
816.634	52.06
816.807	49.74
816.98	47.99
817.153	47.77
817.327	46.03
817.5	47.99
817.673	46.83
817.846	47.49
818.019	47.77
818.192	50.56
818.365	47.66
818.538	46.76
818.711	50.7
818.884	52.12
819.057	50.57
819.23	48.99
819.403	50.05
819.576	45.48
819.749	43.96
819.922	41.36
820.095	38.32
820.268	38.7
820.441	39.16
820.614	36.09
820.786	33.91
820.959	34.64
821.132	35.15
821.305	33.47
821.477	34.95
821.65	34.06
821.823	34.89
821.996	35.95
822.168	36.57
822.341	36.1
822.514	36.2
822.686	37.02
822.859	36.84
823.031	37.37
823.204	38.15
823.376	37.71
823.549	38.52
823.722	38.55
823.894	38.34
824.067	38.16
824.239	38.64
824.411	39.11
824.584	39.43
824.756	39.24
824.929	39.25
825.101	38.01
825.273	38.19
825.446	38.78
825.618	38.8
825.79	38.8
825.963	39.2
826.135	38.8
826.307	38.22
826.479	37.14
826.652	38.11
826.824	38.47
826.996	39.41
827.168	39.6
827.34	39.31
827.512	38.79
827.684	38.91
827.856	38.29
828.029	38.95
828.201	38.44
828.373	39.71
828.545	39.29
828.717	39.7
828.889	39.89
829.061	40.55
829.232	40.93
829.404	40.65
829.576	40.68
829.748	41.07
829.92	41.41
830.092	43.91
830.264	42.59
830.436	42.35
830.607	41.47
830.779	42.31
830.951	43.26
831.123	41.34
831.294	43.1
831.466	44.54
831.638	46.34
831.809	46.56
831.981	44.9
832.153	45.95
832.324	47.65
832.496	44.6
832.667	44.79
832.839	40.33
833.011	40.79
833.182	40.45
833.354	37.34
833.525	36.7
833.697	38.52
833.868	38.62
834.039	38.46
834.211	36.48
834.382	37.98
834.554	37.34
834.725	40.55
834.896	40.21
835.068	40.02
835.239	43.08
835.41	43.55
835.581	41.68
835.753	40.84
835.924	40.73
836.095	40.79
836.266	41.25
836.438	40.66
836.609	39.38
836.78	40.04
836.951	39.32
837.122	38.42
837.293	38.01
837.464	38.29
837.635	38.78
837.806	38.52
837.977	39.78
838.148	39.86
838.319	42.71
838.49	45.45
838.661	45.27
838.832	46.84
839.003	46.87
839.174	49
839.345	49.29
839.516	50.47
839.687	52.76
839.857	53.55
840.028	54.57
840.199	50.41
840.37	48.51
840.54	51.56
840.711	49.12
840.882	46.26
841.053	43.13
841.223	44.72
841.394	44.94
841.564	42.68
841.735	41.72
841.906	44.12
842.076	47.1
842.247	50.22
842.417	46.37
842.588	52.59
842.758	52.18
842.929	51.73
843.099	48.84
843.27	48.66
843.44	50.69
843.611	56.05
843.781	53.51
843.951	52.52
844.122	47.91
844.292	54.13
844.462	49.64
844.633	57.8
844.803	58.17
844.973	58.18
845.144	56.52
845.314	49.06
845.484	38
845.654	43.17
845.824	47.29
845.995	50.87
846.165	52.12
846.335	54.89
846.505	51.17
846.675	53.9
846.845	62.13
847.015	66.85
847.185	73.82
847.355	79.32
847.525	79.92
847.695	73.7
847.865	64.64
848.035	60.36
848.205	58.13
848.375	68.38
848.545	69.48
848.715	53.65
848.884	52.43
849.054	54.31
849.224	57
849.394	54.77
849.564	53.9
849.733	56.75
849.903	51.42
850.073	54.57
850.243	42.85
850.412	41.41
850.582	47.83
850.752	45.16
850.921	45.91
851.091	43.47
851.26	38.72
851.43	40.26
851.599	34.02
851.769	37.14
851.939	34.15
852.108	32.25
852.278	32.82
852.447	37.97
852.616	41.67
852.786	45.89
852.955	43.94
853.125	52.25
853.294	58.77
853.463	72
853.633	71.34
853.802	65.14
853.971	73.06
854.141	65.87
854.31	55.4
854.479	54.11
854.648	49.43
854.818	52.77
854.987	49.11
855.156	44.68
855.325	37.35
855.494	34.48
855.663	39.3
855.832	39.5
856.001	43.11
856.171	46.22
856.34	42.68
856.509	42.56
856.678	42.91
856.847	44.13
857.016	46.29
857.185	51.31
857.353	59.26
857.522	59.42
857.691	54.88
857.86	57.31
858.029	60.21
858.198	67.59
858.367	69.39
858.535	65.39
858.704	67.58
858.873	71.17
859.042	73.63
859.21	65.83
859.379	65.34
859.548	65.16
859.717	65.1
859.885	68.37
860.054	68.9
860.222	66.59
860.391	68.4
860.56	66.51
860.728	61.45
860.897	60.56
861.065	62.74
861.234	64.04
861.402	63.83
861.571	65.25
861.739	64.82
861.908	63.02
862.076	62.3
862.244	64.3
862.413	62.31
862.581	60.91
862.749	59.36
862.918	59.53
863.086	58.39
863.254	56.18
863.423	53.72
863.591	45.77
863.759	43.68
863.927	49.01
864.096	49.69
864.264	47.81
864.432	46.07
864.6	46.19
864.768	41.15
864.936	29.95
865.104	35.39
865.272	33.7
865.44	32.58
865.608	31.24
865.776	25.95
865.944	22.87
866.112	23.04
866.28	30.26
866.448	26.77
866.616	32.87
866.784	37.36
866.952	36.84
867.12	33.75
867.288	45.95
867.455	48.62
867.623	50.11
867.791	50.82
867.959	61.17
868.127	53.37
868.294	60.73
868.462	58.75
868.63	73.05
868.797	78.1
868.965	76.49
869.133	63.87
869.3	63.01
869.468	63.79
869.636	66.15
869.803	61.78
869.971	65.04
870.138	60.69
870.306	63
870.473	60.34
870.641	58.92
870.808	59.25
870.975	65.79
871.143	70.11
871.31	71.11
871.478	64.47
871.645	63.91
871.812	56.54
871.98	64.85
872.147	68.65
872.314	71.54
872.482	67.46
872.649	60.37
872.816	66.97
872.983	57.3
873.15	57.81
873.318	53.39
873.485	54.73
873.652	62.76
873.819	58.67
873.986	59.16
874.153	55.47
874.32	54.31
874.487	55.54
874.654	49.06
874.821	56.25
874.988	57.25
875.155	59.12
875.322	54.11
875.489	53.76
875.656	55.89
875.823	56.43
875.99	62.17
876.157	74.2
876.324	80.18
876.49	80.87
876.657	78.85
876.824	76.59
876.991	80.96
877.157	88.1
877.324	98.58
877.491	93.44
877.658	85.95
877.824	76.03
877.991	67.93
878.157	64.15
878.324	64.27
878.491	64.32
878.657	63.54
878.824	60.84
878.99	61.92
879.157	58.85
879.323	50.75
879.49	53.06
879.656	55.14
879.823	53.21
879.989	46.2
880.156	48.48
880.322	47.49
880.488	46.12
880.655	45.99
880.821	46.05
880.987	43.38
881.154	47.89
881.32	47.26
881.486	47.83
881.652	43.98
881.819	46.35
881.985	42.24
882.151	41.97
882.317	43.48
882.483	42.95
882.649	40.5
882.816	41.92
882.982	40.93
883.148	39.01
883.314	39.03
883.48	38.85
883.646	38.97
883.812	39.15
883.978	39.3
884.144	38.59
884.31	39.77
884.476	40.21
884.642	39.56
884.807	38.8
884.973	39.45
885.139	37.67
885.305	39.45
885.471	38.86
885.637	40.11
885.802	39.7
885.968	37.46
886.134	36.93
886.3	38.83
886.465	41.14
886.631	40.66
886.797	42.66
886.962	47.39
887.128	46.26
887.293	44.97
887.459	44.46
887.625	49.6
887.79	50.73
887.956	52.96
888.121	51.41
888.287	49.8
888.452	55.8
888.618	55
888.783	50.73
