Data from CB_028_Reflection_1.txt Node
Date: Wed Nov 11 20:42:18 EST 2015
User: robert
Spectrometer: USB4E03001
Autoset integration time: false
Trigger mode: 4
Integration Time (sec): 1.000000E-1
Scans to average: 15
Electric dark correction enabled: true
Nonlinearity correction enabled: false
Boxcar width: 5
Stray light correction enabled: false
XAxis mode: Wavelengths
Stop averaging: false
Number of Pixels in Spectrum: 3648
>>>>>Begin Spectral Data<<<<<
177.566	0.11
177.785	5.23
178.005	245.31
178.225	-151.67
178.445	-229.45
178.665	741.18
178.885	63.35
179.105	126.09
179.324	-2.85
179.544	43.86
179.764	-121.14
179.984	-251.43
180.204	10527.5
180.423	265.16
180.643	-1406.99
180.863	2903.83
181.083	421.27
181.302	818.35
181.522	1073.05
181.742	-2865.96
181.961	-528.71
182.181	-4050.24
182.401	3317.74
182.621	-339.57
182.84	-277.52
183.06	-212.98
183.279	-468.63
183.499	-211.73
183.719	-198.03
183.938	-153.49
184.158	-108.03
184.377	-94.03
184.597	-147.27
184.816	-72.75
185.036	-116.44
185.256	-113.34
185.475	-94.1
185.695	-84.81
185.914	-118.68
186.134	-1340.57
186.353	2741.53
186.572	391.47
186.792	475.87
187.011	1169.01
187.231	1871.58
187.45	888.55
187.67	487.2
187.889	419.26
188.108	323.2
188.328	497.03
188.547	851.2
188.766	1213.75
188.986	4783.67
189.205	5597.75
189.424	1401.41
189.644	482.02
189.863	444.59
190.082	1329.12
190.302	172.55
190.521	171.57
190.74	51.73
190.959	-17.81
191.178	-37.22
191.398	-44.59
191.617	-67.57
191.836	-123.37
192.055	-134.68
192.274	-133.12
192.494	-195.89
192.713	-181.34
192.932	-688.86
193.151	50.68
193.37	23.64
193.589	-37.48
193.808	-52.41
194.027	-157.42
194.246	-274.37
194.465	-70.13
194.685	-253.54
194.904	564.52
195.123	-510.39
195.342	-44.51
195.561	-243.99
195.78	-4176.7
195.999	-90.67
196.218	-158.78
196.436	-411.68
196.655	1236.68
196.874	878.87
197.093	1640.14
197.312	-377.11
197.531	1272.22
197.75	683.12
197.969	612.93
198.188	1031.18
198.407	556.25
198.625	553.02
198.844	742.67
199.063	-2173.55
199.282	-1090.81
199.501	-696.57
199.719	-1062.48
199.938	-645.2
200.157	3109.57
200.376	-237.67
200.594	-774.44
200.813	-188.35
201.032	273.49
201.251	222.77
201.469	290.06
201.688	100.77
201.907	239.75
202.125	231.34
202.344	1055.56
202.563	490.58
202.781	584.07
203	307.38
203.218	169.33
203.437	451.74
203.656	631.13
203.874	404.9
204.093	1014.8
204.311	718.91
204.53	239.84
204.748	301.25
204.967	467.36
205.185	7402.86
205.404	-270.11
205.622	-95.43
205.841	-28.69
206.059	-42.16
206.278	-47.77
206.496	-99.01
206.715	-194.16
206.933	-57.5
207.151	-92.98
207.37	-37.79
207.588	-25.96
207.806	27.91
208.025	121.92
208.243	44.07
208.461	8.84
208.68	-25.43
208.898	771.28
209.116	167.06
209.335	388.97
209.553	98.14
209.771	-29.11
209.989	170.99
210.208	75.75
210.426	178.12
210.644	317.17
210.862	404.46
211.081	205.28
211.299	218.12
211.517	190.08
211.735	716.71
211.953	269.72
212.171	321.05
212.39	-1820.59
212.608	-187.3
212.826	-45.16
213.044	4.2
213.262	-96.04
213.48	-41.32
213.698	-31.05
213.916	-122.56
214.134	-144.39
214.352	-115.07
214.57	-47.64
214.788	-203.79
215.006	-506.32
215.224	325.31
215.442	963
215.66	493.18
215.878	583.55
216.096	333.19
216.314	501.55
216.532	772.1
216.75	1514.92
216.968	476.61
217.185	261.89
217.403	230.64
217.621	595.05
217.839	202.83
218.057	356.62
218.275	627.72
218.492	-1165.04
218.71	414.04
218.928	213.65
219.146	193.65
219.363	794.28
219.581	-513.1
219.799	-106.46
220.017	-280.23
220.234	-189.19
220.452	-251.73
220.67	-546.37
220.887	3592.64
221.105	-726.12
221.323	-173.62
221.54	-212.38
221.758	-774.86
221.976	-275.53
222.193	-279.03
222.411	-151.29
222.629	-183.97
222.846	-235.74
223.064	-138.86
223.281	-75.68
223.499	-43.88
223.716	-79.02
223.934	-80.78
224.151	-40.62
224.369	-69.16
224.586	-39.06
224.804	-37.01
225.021	-28.91
225.239	-57.04
225.456	-34.98
225.674	-32.82
225.891	-45.71
226.108	-38.17
226.326	-30.76
226.543	-1.53
226.76	11.18
226.978	6.57
227.195	5.42
227.413	18.42
227.63	17.8
227.847	5.38
228.064	5.12
228.282	10.27
228.499	7.91
228.716	9.8
228.934	6.34
229.151	5.1
229.368	5.27
229.585	3.5
229.802	-1.65
230.02	-1.1
230.237	0.67
230.454	0.96
230.671	-4.46
230.888	0.5
231.105	4.63
231.323	6.86
231.54	3.14
231.757	2.96
231.974	5.06
232.191	5.29
232.408	7.13
232.625	7.51
232.842	5.97
233.059	6.92
233.276	3.87
233.493	0.19
233.71	0.04
233.927	7
234.144	-3.73
234.361	-3.1
234.578	-1.91
234.795	-8.96
235.012	-0.91
235.229	-9.36
235.446	-11.43
235.663	-24.52
235.879	-22.02
236.096	-14.69
236.313	-21.57
236.53	-3.55
236.747	-5.42
236.964	-7.87
237.181	-5.8
237.397	-10.73
237.614	-6.8
237.831	-3.39
238.048	-3.13
238.264	-8.68
238.481	-7.81
238.698	-5.2
238.915	-5.75
239.131	-4.97
239.348	0.89
239.565	6.79
239.781	3.46
239.998	0.03
240.215	3.9
240.431	7.39
240.648	7.47
240.865	4
241.081	1.59
241.298	-0.23
241.514	-0.68
241.731	2.45
241.947	3.43
242.164	5.38
242.38	8.83
242.597	6.93
242.814	6.04
243.03	8.31
243.246	7.94
243.463	9.98
243.679	10
243.896	11.23
244.112	10.93
244.329	10.76
244.545	11.33
244.762	9.91
244.978	11.3
245.194	14.33
245.411	12.47
245.627	12.83
245.843	11.45
246.06	11.57
246.276	11.44
246.492	9.67
246.709	8.95
246.925	8.73
247.141	9.2
247.357	10.26
247.574	9.22
247.79	9.49
248.006	8.63
248.222	9.3
248.439	9.1
248.655	9.52
248.871	9.63
249.087	9.27
249.303	10.42
249.519	9.79
249.736	6.21
249.952	5.83
250.168	3.21
250.384	5.65
250.6	3.89
250.816	2.86
251.032	3.27
251.248	7.66
251.464	8.72
251.68	8.18
251.896	6.17
252.112	8.57
252.328	8.28
252.544	9.08
252.76	8.09
252.976	9.66
253.192	11.4
253.408	9.2
253.624	5.61
253.84	4.34
254.056	1.34
254.272	5.37
254.487	4.08
254.703	3.45
254.919	6.72
255.135	3.3
255.351	-3.82
255.567	-4.15
255.782	-1.5
255.998	-2
256.214	-3.14
256.43	-5.24
256.646	-6.37
256.861	-5.22
257.077	-3.18
257.293	-7.21
257.508	-6.22
257.724	-2.54
257.94	-3.39
258.155	-0.73
258.371	-1.05
258.587	0.78
258.802	2.27
259.018	3.6
259.234	3.83
259.449	4.69
259.665	5.16
259.88	6.22
260.096	5.84
260.312	6.84
260.527	5.84
260.743	5.97
260.958	5.72
261.174	5.9
261.389	5.61
261.605	5.28
261.82	5.14
262.036	5.92
262.251	4.95
262.466	6.82
262.682	4.2
262.897	3.65
263.113	5.68
263.328	6.44
263.543	4.68
263.759	3
263.974	1.47
264.189	0.09
264.405	-0.18
264.62	0.58
264.835	-1.6
265.051	-1.84
265.266	-0.09
265.481	-1.27
265.696	-3.07
265.912	-2.82
266.127	-3.37
266.342	-2.25
266.557	-0.53
266.773	-2.17
266.988	-2.4
267.203	-2.62
267.418	-1.86
267.633	-1.55
267.848	-1.32
268.064	0.18
268.279	1.72
268.494	1.36
268.709	2.4
268.924	0.91
269.139	2.86
269.354	2.95
269.569	4.16
269.784	5.05
269.999	4.85
270.214	6.67
270.429	5.41
270.644	5.84
270.859	6.89
271.074	6.66
271.289	6.9
271.504	6.21
271.719	6.11
271.934	4.86
272.149	4.85
272.363	5.48
272.578	3.77
272.793	3.85
273.008	3.19
273.223	3.25
273.438	1.43
273.653	0.86
273.867	0.51
274.082	0.39
274.297	0.98
274.512	1.95
274.726	1.42
274.941	1.26
275.156	1.56
275.371	0.94
275.585	1.66
275.8	1.78
276.015	2.51
276.229	3.56
276.444	4.97
276.659	5.08
276.873	2.91
277.088	1.64
277.302	1.51
277.517	2.45
277.732	2.19
277.946	2.14
278.161	3.26
278.375	1.63
278.59	1.21
278.804	-0.82
279.019	-1.44
279.233	-0.8
279.448	1.02
279.662	1.09
279.877	1.09
280.091	3.99
280.306	3.71
280.52	5.43
280.735	7.23
280.949	8.04
281.163	8.7
281.378	10.25
281.592	11.24
281.806	8.87
282.021	9.42
282.235	7.85
282.449	5.78
282.664	6.24
282.878	7.03
283.092	6.09
283.307	4.46
283.521	4.03
283.735	3.19
283.949	1.15
284.164	1.31
284.378	2.44
284.592	2.96
284.806	2.03
285.02	2.2
285.234	0.94
285.449	0.96
285.663	2.15
285.877	2.13
286.091	1.92
286.305	2.59
286.519	4.1
286.733	4.13
286.947	4.73
287.161	5.79
287.375	5.99
287.589	5.44
287.803	5.87
288.017	6.03
288.231	6.7
288.445	7.63
288.659	8.48
288.873	7.41
289.087	6.15
289.301	5.86
289.515	7.36
289.729	7.06
289.943	7.39
290.157	8.46
290.371	7.56
290.584	8.69
290.798	7.5
291.012	6.25
291.226	6.46
291.44	6.37
291.654	6.1
291.867	5.08
292.081	4.95
292.295	5.23
292.509	4.65
292.722	4.52
292.936	2.79
293.15	2.48
293.364	4.29
293.577	5.73
293.791	6.23
294.005	6.72
294.218	6.8
294.432	6.35
294.645	5.64
294.859	5.95
295.073	6.95
295.286	8.51
295.5	9.52
295.713	9.46
295.927	9.26
296.14	9.42
296.354	10.23
296.568	9.78
296.781	10.75
296.994	10.94
297.208	11.1
297.421	10.91
297.635	10.4
297.848	10.26
298.062	10.82
298.275	10.75
298.489	11.24
298.702	10.71
298.915	11.33
299.129	11.45
299.342	12.58
299.555	12.13
299.769	11.76
299.982	11.75
300.195	11.3
300.409	10.49
300.622	9.41
300.835	8.78
301.048	10.69
301.262	9.71
301.475	8.08
301.688	7.59
301.901	7.66
302.115	8.55
302.328	9.07
302.541	11.3
302.754	11.89
302.967	13.72
303.18	13.97
303.393	12.64
303.607	13.4
303.82	14.84
304.033	14.59
304.246	14.99
304.459	15.11
304.672	14.4
304.885	14.36
305.098	14
305.311	12.73
305.524	12.34
305.737	11.8
305.95	12.5
306.163	10.42
306.376	12.08
306.589	11.67
306.802	12.27
307.015	12.37
307.228	10.89
307.44	11.32
307.653	11.11
307.866	10.47
308.079	10.91
308.292	9.65
308.505	10.03
308.718	9.28
308.93	9.56
309.143	7.97
309.356	8.83
309.569	9.43
309.781	8.94
309.994	9.72
310.207	10.81
310.42	11.12
310.632	11.38
310.845	11.59
311.058	11.16
311.27	11.16
311.483	12.6
311.696	12.56
311.908	11.51
312.121	11.38
312.333	10.94
312.546	10.86
312.759	10.77
312.971	11.76
313.184	12.26
313.396	11.85
313.609	12.07
313.821	11.71
314.034	11.39
314.246	12.4
314.459	12.51
314.671	12.46
314.884	11.79
315.096	11.33
315.309	11.04
315.521	12.03
315.733	11.98
315.946	11.41
316.158	9.88
316.371	9.78
316.583	9.46
316.795	10.05
317.008	11.09
317.22	9.86
317.432	10.05
317.644	9.31
317.857	8.84
318.069	10.84
318.281	11.22
318.494	11.45
318.706	11.98
318.918	11.3
319.13	11.39
319.342	11.99
319.555	14.28
319.767	14.25
319.979	14.84
320.191	13.58
320.403	12.16
320.615	12.65
320.827	13.23
321.039	12.44
321.252	13.37
321.464	12.74
321.676	11.79
321.888	12.06
322.1	12.17
322.312	12.34
322.524	12.47
322.736	13
322.948	12.57
323.16	12.57
323.372	14.02
323.584	13.34
323.796	14.78
324.007	15.45
324.219	15.29
324.431	15.94
324.643	15.97
324.855	16.61
325.067	17.16
325.279	17.98
325.491	18.95
325.702	17.97
325.914	18.31
326.126	16.14
326.338	15.62
326.55	15.85
326.761	15.15
326.973	15.6
327.185	16.05
327.396	14.78
327.608	14.84
327.82	13.97
328.032	14.15
328.243	13.6
328.455	15.32
328.666	15.69
328.878	15.28
329.09	17.07
329.301	16.72
329.513	16.55
329.725	18.03
329.936	17.58
330.148	18.25
330.359	19.1
330.571	19.97
330.782	20.01
330.994	19.72
331.205	20.09
331.417	18.48
331.628	17.45
331.84	17.02
332.051	16.3
332.262	16.13
332.474	16.09
332.685	14.42
332.897	15.62
333.108	15.34
333.319	15.92
333.531	16.69
333.742	17.09
333.953	18.67
334.165	19.56
334.376	20.24
334.587	19.69
334.799	19.66
335.01	20.12
335.221	19.63
335.432	20.2
335.644	19.67
335.855	19.36
336.066	19.32
336.277	18.14
336.488	18.02
336.7	17.37
336.911	17.75
337.122	16.5
337.333	17.07
337.544	16.75
337.755	16
337.966	15.86
338.177	14.79
338.388	15.11
338.599	15.31
338.811	13.94
339.022	14.19
339.233	14.44
339.444	16.06
339.655	15.58
339.866	14.52
340.076	15.28
340.287	15.56
340.498	16.44
340.709	15.93
340.92	16.71
341.131	17.51
341.342	16.68
341.553	17.21
341.764	17.41
341.975	16.35
342.185	18.25
342.396	18.92
342.607	19.69
342.818	19.83
343.029	20.26
343.239	19.96
343.45	20.38
343.661	21.49
343.872	20.8
344.082	20.49
344.293	22.01
344.504	21.24
344.714	20.56
344.925	20.53
345.136	20.44
345.346	19.5
345.557	19.01
345.768	18.13
345.978	17.61
346.189	17.37
346.399	17.29
346.61	17.07
346.821	16.86
347.031	16.37
347.242	14.81
347.452	14.34
347.663	14.87
347.873	15.32
348.084	16.29
348.294	16.45
348.504	16.53
348.715	15.95
348.925	16.23
349.136	16.28
349.346	15.98
349.557	16.51
349.767	16.68
349.977	17.5
350.188	16.68
350.398	15.59
350.608	15.33
350.819	15.31
351.029	16.4
351.239	16.03
351.449	16.51
351.66	16.46
351.87	16.79
352.08	16.59
352.29	15.6
352.501	16.59
352.711	17.18
352.921	17.67
353.131	18.17
353.341	17.51
353.552	17.49
353.762	17.35
353.972	17.8
354.182	17.02
354.392	16.63
354.602	17.01
354.812	16.62
355.022	17.04
355.232	16.22
355.442	16
355.652	15.23
355.862	15.44
356.072	15.9
356.282	15.86
356.492	16.46
356.702	16.8
356.912	16.48
357.122	16.09
357.332	15.87
357.542	16.42
357.752	16.42
357.962	17.54
358.171	17.54
358.381	17.1
358.591	16.59
358.801	17
359.011	17.48
359.221	17.41
359.43	17.37
359.64	17.27
359.85	17.55
360.06	17.41
360.269	17.25
360.479	16.66
360.689	16.32
360.899	16.69
361.108	16.04
361.318	15.76
361.528	15.84
361.737	16.04
361.947	15.89
362.156	15.97
362.366	16.03
362.576	15.53
362.785	15.58
362.995	15.79
363.204	15.66
363.414	16.41
363.623	16.5
363.833	16.01
364.042	16.59
364.252	16.98
364.461	16.7
364.671	16.63
364.88	16.63
365.09	16.9
365.299	17.22
365.509	17.44
365.718	16.59
365.927	15.82
366.137	16.04
366.346	16.29
366.555	16.11
366.765	15.51
366.974	15.48
367.183	15.23
367.393	15.6
367.602	15.38
367.811	15.32
368.021	15.74
368.23	16.51
368.439	17.1
368.648	16.31
368.857	15.92
369.067	16.05
369.276	16.28
369.485	16.52
369.694	15.98
369.903	14.5
370.112	14.03
370.321	13.91
370.531	13.73
370.74	13.13
370.949	13.15
371.158	12.91
371.367	12.65
371.576	12.19
371.785	11.8
371.994	11.4
372.203	12.69
372.412	12.91
372.621	13.34
372.83	13.16
373.039	13.02
373.248	12.66
373.457	12.79
373.666	12.73
373.874	12.95
374.083	13.33
374.292	12.99
374.501	13.16
374.71	13.24
374.919	12.66
375.128	12.06
375.336	12.33
375.545	12.53
375.754	12.26
375.963	12.53
376.171	12.39
376.38	12.17
376.589	11.96
376.798	10.99
377.006	10.7
377.215	10.49
377.424	10.56
377.632	10.19
377.841	9.67
378.05	9.53
378.258	9.44
378.467	9.33
378.675	9.28
378.884	9.96
379.093	10.18
379.301	9.99
379.51	10.05
379.718	10.15
379.927	10.52
380.135	10.65
380.344	11.22
380.552	11.57
380.761	11.35
380.969	11.31
381.177	11.04
381.386	11.51
381.594	11.75
381.803	11.06
382.011	11.21
382.219	11.06
382.428	10.91
382.636	10.28
382.845	9.64
383.053	9.74
383.261	9.79
383.469	9.59
383.678	9.49
383.886	9.01
384.094	9.5
384.302	9.24
384.511	9.36
384.719	9.68
384.927	9.68
385.135	9.64
385.343	9.5
385.552	8.93
385.76	9.19
385.968	8.9
386.176	8.88
386.384	8.82
386.592	8.78
386.8	8.33
387.008	8.41
387.216	8.33
387.424	8.47
387.633	8.28
387.841	8.55
388.049	7.99
388.257	8
388.465	8.39
388.672	8.28
388.88	8.21
389.088	8.91
389.296	8.68
389.504	8.94
389.712	8.74
389.92	8.91
390.128	8.99
390.336	9.15
390.544	9.07
390.751	8.43
390.959	8.53
391.167	8.91
391.375	8.28
391.583	8.08
391.79	8.36
391.998	8.59
392.206	8.66
392.414	8.9
392.621	9.11
392.829	8.72
393.037	9
393.244	9.14
393.452	8.81
393.66	9.27
393.867	9.17
394.075	8.84
394.283	8.14
394.49	8.02
394.698	7.86
394.905	7.64
395.113	8.03
395.32	8.39
395.528	7.89
395.735	7.69
395.943	7.22
396.15	7.24
396.358	7.02
396.565	7.28
396.773	7.14
396.98	6.99
397.188	7.15
397.395	7.19
397.602	6.78
397.81	6.98
398.017	6.76
398.225	6.91
398.432	7.14
398.639	7.49
398.847	7.48
399.054	7.6
399.261	7.45
399.468	7.39
399.676	7.18
399.883	7.35
400.09	7.28
400.297	7.75
400.505	7.83
400.712	7.82
400.919	7.76
401.126	7.98
401.333	7.99
401.54	8.17
401.748	8.15
401.955	7.97
402.162	7.77
402.369	7.59
402.576	7.67
402.783	7.46
402.99	7.03
403.197	6.95
403.404	7.12
403.611	7.03
403.818	6.83
404.025	6.93
404.232	6.89
404.439	6.84
404.646	6.91
404.853	6.66
405.06	6.46
405.267	7.03
405.474	6.8
405.681	6.52
405.887	6.38
406.094	6.57
406.301	6.55
406.508	6.57
406.715	6.77
406.922	7.07
407.128	6.88
407.335	6.99
407.542	6.26
407.749	6.26
407.955	6.34
408.162	6.66
408.369	6.43
408.575	6.41
408.782	6.58
408.989	6.7
409.195	6.31
409.402	6.94
409.609	6.84
409.815	7.06
410.022	6.98
410.228	6.85
410.435	6.73
410.642	6.99
410.848	6.8
411.055	6.58
411.261	6.38
411.468	6.52
411.674	5.91
411.881	5.89
412.087	5.93
412.294	6.08
412.5	5.99
412.706	6.02
412.913	5.72
413.119	5.85
413.326	5.94
413.532	5.96
413.738	6.07
413.945	6.15
414.151	6.32
414.357	6.2
414.564	6.09
414.77	6.48
414.976	6.33
415.182	6.19
415.389	6.35
415.595	6.43
415.801	6.33
416.007	6.16
416.214	6.47
416.42	6.45
416.626	6.39
416.832	6.46
417.038	6.56
417.244	6.72
417.45	6.91
417.657	6.66
417.863	6.61
418.069	6.43
418.275	6.5
418.481	6.44
418.687	6.31
418.893	6.34
419.099	6.53
419.305	6.36
419.511	6.26
419.717	6.23
419.923	6.32
420.129	6.33
420.335	6.51
420.541	6.4
420.746	6.22
420.952	6.32
421.158	6.32
421.364	6.24
421.57	6.18
421.776	6.22
421.982	6.14
422.187	6.07
422.393	5.95
422.599	5.84
422.805	6.02
423.01	6.11
423.216	6.14
423.422	6.16
423.628	6.12
423.833	6.21
424.039	5.98
424.245	6.06
424.45	6.14
424.656	6.39
424.862	6.33
425.067	6.06
425.273	6.08
425.478	5.98
425.684	5.96
425.889	5.76
426.095	5.63
426.301	5.69
426.506	5.6
426.712	5.37
426.917	5.21
427.123	5.47
427.328	5.79
427.533	5.95
427.739	5.9
427.944	5.82
428.15	5.99
428.355	5.96
428.561	5.92
428.766	5.89
428.971	6.05
429.177	5.74
429.382	5.42
429.587	5.26
429.793	4.94
429.998	4.83
430.203	4.63
430.408	4.57
430.614	4.54
430.819	4.65
431.024	4.81
431.229	4.79
431.434	5.13
431.64	5.26
431.845	5.31
432.05	5.24
432.255	5.57
432.46	5.9
432.665	6.14
432.87	6.2
433.076	6.16
433.281	6.25
433.486	6.29
433.691	6.23
433.896	6.29
434.101	6.37
434.306	6.59
434.511	6.45
434.716	6.36
434.921	6.19
435.126	6.24
435.331	6.2
435.535	6.03
435.74	6.03
435.945	5.88
436.15	5.62
436.355	5.4
436.56	5.41
436.765	5.29
436.97	5.3
437.174	5.39
437.379	5.55
437.584	5.45
437.789	5.59
437.993	5.51
438.198	5.76
438.403	6.01
438.608	5.93
438.812	5.94
439.017	6
439.222	6.1
439.426	6.02
439.631	5.89
439.836	6.14
440.04	6.17
440.245	6.31
440.45	6.28
440.654	6.09
440.859	6.19
441.063	5.96
441.268	5.88
441.472	5.88
441.677	5.96
441.881	6
442.086	6.18
442.29	6.04
442.495	6.09
442.699	6.09
442.904	6.11
443.108	6.23
443.312	6.32
443.517	6.46
443.721	6.37
443.925	6.27
444.13	6.13
444.334	5.9
444.538	5.92
444.743	5.72
444.947	5.76
445.151	5.87
445.356	5.79
445.56	5.81
445.764	5.78
445.968	5.78
446.173	5.83
446.377	5.89
446.581	5.91
446.785	5.82
446.989	5.86
447.193	5.71
447.398	5.58
447.602	5.6
447.806	5.56
448.01	5.58
448.214	5.52
448.418	5.53
448.622	5.57
448.826	5.5
449.03	5.62
449.234	5.49
449.438	5.58
449.642	5.91
449.846	5.66
450.05	5.78
450.254	5.91
450.458	5.87
450.662	5.83
450.866	5.73
451.069	5.61
451.273	5.5
451.477	5.45
451.681	5.52
451.885	5.37
452.089	5.68
452.292	5.76
452.496	5.66
452.7	5.97
452.904	5.93
453.107	6
453.311	6.01
453.515	5.96
453.719	6.19
453.922	6.01
454.126	5.82
454.33	5.54
454.533	5.62
454.737	5.59
454.94	5.18
455.144	5.11
455.348	4.98
455.551	5.14
455.755	5.2
455.958	4.9
456.162	4.85
456.365	4.89
456.569	5.39
456.772	5.08
456.976	5.17
457.179	5.35
457.383	5.45
457.586	5.44
457.79	5.28
457.993	5.1
458.196	5.34
458.4	5.56
458.603	5.6
458.807	5.4
459.01	5.51
459.213	5.38
459.417	5.45
459.62	5.31
459.823	5.25
460.026	5.34
460.23	5.53
460.433	5.56
460.636	5.41
460.839	5.47
461.042	5.45
461.246	5.52
461.449	5.68
461.652	5.76
461.855	6.01
462.058	6.08
462.261	6.1
462.464	6.14
462.668	5.92
462.871	5.95
463.074	6.01
463.277	5.99
463.48	5.84
463.683	5.71
463.886	5.48
464.089	5.38
464.292	5.29
464.495	5.26
464.698	5.07
464.901	5.26
465.104	5.38
465.306	5.39
465.509	5.32
465.712	5.46
465.915	5.35
466.118	5.42
466.321	5.52
466.524	5.79
466.726	6.12
466.929	6.19
467.132	6
467.335	5.93
467.538	5.81
467.74	5.82
467.943	5.59
468.146	5.81
468.348	5.91
468.551	5.91
468.754	5.8
468.956	5.51
469.159	5.65
469.362	5.92
469.564	5.98
469.767	5.96
469.969	6.07
470.172	6.12
470.375	5.92
470.577	5.65
470.78	5.67
470.982	5.79
471.185	5.76
471.387	5.66
471.59	5.52
471.792	5.47
471.995	5.5
472.197	5.45
472.399	5.65
472.602	5.88
472.804	6.1
473.007	6
473.209	5.88
473.411	5.84
473.614	5.93
473.816	5.98
474.018	6.05
474.22	5.98
474.423	6.01
474.625	5.99
474.827	5.87
475.03	5.8
475.232	5.79
475.434	5.86
475.636	5.88
475.838	5.86
476.04	5.84
476.243	5.82
476.445	6.07
476.647	6.2
476.849	6.29
477.051	6.09
477.253	6.15
477.455	6.06
477.657	6.01
477.859	6.17
478.061	5.93
478.263	5.77
478.465	5.66
478.667	5.53
478.869	5.33
479.071	4.99
479.273	5.14
479.475	4.99
479.677	4.92
479.879	4.82
480.081	4.61
480.283	4.88
480.485	5.06
480.686	5.06
480.888	4.91
481.09	4.95
481.292	5.04
481.494	5.02
481.695	5.09
481.897	5.22
482.099	5.35
482.301	5.47
482.502	5.39
482.704	5.47
482.906	5.57
483.107	5.68
483.309	5.72
483.511	5.73
483.712	5.72
483.914	5.78
484.115	5.82
484.317	5.8
484.519	5.83
484.72	5.89
484.922	5.89
485.123	5.84
485.325	5.81
485.526	5.82
485.728	5.85
485.929	5.88
486.131	5.84
486.332	5.83
486.534	5.82
486.735	5.77
486.936	5.68
487.138	5.69
487.339	5.76
487.541	5.74
487.742	5.66
487.943	5.71
488.144	5.7
488.346	5.76
488.547	5.68
488.748	5.63
488.95	5.67
489.151	5.72
489.352	5.67
489.553	5.68
489.755	5.72
489.956	5.76
490.157	5.64
490.358	5.61
490.559	5.49
490.76	5.55
490.961	5.7
491.163	5.6
491.364	5.54
491.565	5.4
491.766	5.41
491.967	5.38
492.168	5.51
492.369	5.61
492.57	5.5
492.771	5.5
492.972	5.46
493.173	5.35
493.374	5.4
493.575	5.39
493.776	5.5
493.976	5.46
494.177	5.43
494.378	5.13
494.579	4.94
494.78	5.29
494.981	5.46
495.182	5.5
495.382	5.39
495.583	5.26
495.784	5.24
495.985	5.36
496.185	5.21
496.386	5.23
496.587	5.33
496.788	5.45
496.988	5.19
497.189	5.18
497.39	5.07
497.59	5.32
497.791	5.35
497.992	5.34
498.192	5.26
498.393	5.46
498.593	5.55
498.794	5.63
498.994	5.6
499.195	5.83
499.395	5.75
499.596	6.05
499.796	5.98
499.997	5.96
500.197	6.23
500.398	6.26
500.598	6.08
500.799	6.13
500.999	6.07
501.199	6
501.4	5.95
501.6	5.98
501.801	5.81
502.001	5.76
502.201	6.1
502.402	5.99
502.602	6.09
502.802	6.31
503.002	6.29
503.203	6.35
503.403	6.49
503.603	6.43
503.803	6.55
504.003	6.68
504.204	6.7
504.404	6.63
504.604	6.54
504.804	6.59
505.004	6.74
505.204	6.8
505.404	6.98
505.604	6.96
505.804	6.96
506.005	6.99
506.205	6.79
506.405	6.93
506.605	6.82
506.805	6.9
507.005	6.91
507.204	6.74
507.404	6.72
507.604	6.71
507.804	6.82
508.004	6.8
508.204	6.77
508.404	6.9
508.604	6.81
508.804	7.05
509.003	7.08
509.203	7.16
509.403	7.25
509.603	7.37
509.803	7.42
510.002	7.43
510.202	7.75
510.402	7.77
510.602	7.92
510.801	7.96
511.001	8.03
511.201	8.11
511.4	8.14
511.6	8.31
511.8	8.38
511.999	8.38
512.199	8.44
512.398	8.43
512.598	8.62
512.797	8.61
512.997	8.71
513.197	8.7
513.396	8.89
513.596	8.95
513.795	8.87
513.994	8.88
514.194	8.97
514.393	9.23
514.593	9.37
514.792	9.32
514.992	9.51
515.191	9.81
515.39	9.97
515.59	10
515.789	10.13
515.988	10.15
516.188	10.29
516.387	10.27
516.586	10.27
516.786	10.19
516.985	10.37
517.184	10.42
517.383	10.46
517.582	10.48
517.782	10.6
517.981	10.71
518.18	10.95
518.379	10.97
518.578	11.13
518.777	11.16
518.976	11.34
519.176	11.38
519.375	11.5
519.574	11.53
519.773	11.57
519.972	11.68
520.171	11.74
520.37	11.84
520.569	12.06
520.768	12.14
520.967	12.39
521.166	12.45
521.365	12.62
521.564	12.63
521.762	12.8
521.961	12.96
522.16	13.01
522.359	13.07
522.558	13.14
522.757	13.11
522.956	13.3
523.154	13.36
523.353	13.44
523.552	13.48
523.751	13.68
523.949	13.78
524.148	14
524.347	14.09
524.546	14.24
524.744	14.37
524.943	14.52
525.142	14.7
525.34	14.82
525.539	15.02
525.737	15.05
525.936	15.1
526.135	15.17
526.333	15.15
526.532	15.27
526.73	15.53
526.929	15.56
527.127	15.68
527.326	15.7
527.524	15.64
527.723	15.74
527.921	15.89
528.12	15.99
528.318	16.1
528.516	16.2
528.715	16.23
528.913	16.22
529.112	16.32
529.31	16.36
529.508	16.37
529.707	16.48
529.905	16.52
530.103	16.56
530.301	16.62
530.5	16.62
530.698	16.72
530.896	16.88
531.094	16.89
531.293	16.93
531.491	17
531.689	17.17
531.887	17.36
532.085	17.39
532.283	17.59
532.481	17.63
532.68	17.67
532.878	17.75
533.076	17.78
533.274	17.96
533.472	18
533.67	18.04
533.868	18.04
534.066	18.06
534.264	18.21
534.462	18.25
534.66	18.37
534.858	18.43
535.056	18.42
535.253	18.52
535.451	18.47
535.649	18.59
535.847	18.73
536.045	18.84
536.243	18.95
536.441	18.98
536.638	19.03
536.836	19.11
537.034	19.31
537.232	19.4
537.43	19.42
537.627	19.48
537.825	19.5
538.023	19.52
538.22	19.63
538.418	19.7
538.616	19.69
538.813	19.7
539.011	19.72
539.209	19.84
539.406	20.17
539.604	20.34
539.801	20.48
539.999	20.6
540.196	20.79
540.394	20.94
540.591	20.97
540.789	20.99
540.986	21.05
541.184	21.11
541.381	21.14
541.579	21.08
541.776	21.1
541.974	21.18
542.171	21.19
542.368	21.24
542.566	21.27
542.763	21.35
542.96	21.39
543.158	21.44
543.355	21.42
543.552	21.46
543.75	21.51
543.947	21.52
544.144	21.55
544.341	21.56
544.539	21.53
544.736	21.59
544.933	21.59
545.13	21.84
545.327	21.92
545.524	22.09
545.722	22.17
545.919	22.26
546.116	22.49
546.313	22.54
546.51	22.77
546.707	22.88
546.904	22.9
547.101	22.75
547.298	22.73
547.495	22.79
547.692	22.83
547.889	22.72
548.086	22.72
548.283	22.68
548.48	22.69
548.677	22.77
548.874	22.77
549.07	22.67
549.267	22.87
549.464	23
549.661	22.92
549.858	22.94
550.055	22.92
550.251	22.96
550.448	22.77
550.645	22.9
550.842	22.95
551.038	23.02
551.235	23.38
551.432	23.31
551.628	23.23
551.825	23.27
552.022	23.41
552.218	23.65
552.415	23.79
552.612	23.92
552.808	23.86
553.005	23.77
553.201	23.84
553.398	23.63
553.594	23.74
553.791	23.8
553.987	23.75
554.184	23.76
554.38	23.64
554.577	23.59
554.773	23.57
554.97	23.71
555.166	23.9
555.362	23.87
555.559	23.83
555.755	23.88
555.952	23.89
556.148	24.14
556.344	24.25
556.541	24.65
556.737	24.76
556.933	25
557.129	24.9
557.326	24.68
557.522	24.64
557.718	24.91
557.914	25.07
558.11	25.2
558.307	25.16
558.503	25.03
558.699	24.75
558.895	24.84
559.091	24.67
559.287	24.7
559.483	24.76
559.679	24.82
559.876	24.79
560.072	24.94
560.268	25.05
560.464	25.24
560.66	25.4
560.856	25.42
561.052	25.25
561.247	25.35
561.443	25.48
561.639	25.73
561.835	26.04
562.031	25.89
562.227	25.6
562.423	25.57
562.619	25.58
562.815	25.48
563.01	25.84
563.206	25.98
563.402	26.16
563.598	26.2
563.793	26.18
563.989	26.08
564.185	26.22
564.381	26.49
564.576	26.65
564.772	26.5
564.968	26.75
565.163	26.8
565.359	26.7
565.555	26.64
565.75	26.91
565.946	26.94
566.141	27.06
566.337	27.27
566.532	27.46
566.728	27.27
566.923	27.54
567.119	27.56
567.314	27.32
567.51	27.51
567.705	27.56
567.901	27.2
568.096	27.26
568.292	27.28
568.487	27.32
568.682	27.05
568.878	27.3
569.073	27.3
569.268	27.13
569.464	27.31
569.659	27.07
569.854	27.13
570.05	27.51
570.245	27.58
570.44	27.58
570.635	27.36
570.831	27.41
571.026	27.28
571.221	27.18
571.416	27.39
571.611	27.42
571.806	27.59
572.002	27.64
572.197	27.7
572.392	27.49
572.587	27.47
572.782	27.57
572.977	27.63
573.172	27.81
573.367	27.96
573.562	27.86
573.757	28.04
573.952	28.13
574.147	27.96
574.342	27.99
574.537	28.12
574.732	28.22
574.927	28.3
575.121	28.43
575.316	28.43
575.511	28.54
575.706	28.6
575.901	28.45
576.096	28.31
576.29	28.52
576.485	28.31
576.68	28.32
576.875	28.23
577.069	28.31
577.264	28.43
577.459	28.41
577.654	28.38
577.848	28.22
578.043	28.42
578.238	28.67
578.432	28.58
578.627	28.55
578.821	28.73
579.016	29.05
579.21	28.92
579.405	28.91
579.6	28.77
579.794	28.66
579.989	28.77
580.183	28.38
580.378	28.15
580.572	28.11
580.766	28.32
580.961	28.05
581.155	27.61
581.35	27.66
581.544	27.53
581.738	27.72
581.933	27.79
582.127	27.81
582.321	27.93
582.516	28.37
582.71	28.57
582.904	28.26
583.099	28.62
583.293	28.93
583.487	28.95
583.681	28.83
583.875	28.97
584.07	29.14
584.264	29.19
584.458	29.16
584.652	28.78
584.846	28.55
585.04	28.7
585.234	28.61
585.428	28.68
585.623	28.93
585.817	29.31
586.011	29.22
586.205	29.03
586.399	29.13
586.593	29.39
586.787	29.64
586.981	29.68
587.174	29.57
587.368	29.58
587.562	29.34
587.756	29.23
587.95	29.1
588.144	28.91
588.338	28.79
588.532	28.95
588.725	28.87
588.919	28.81
589.113	28.93
589.307	29.3
589.501	29.02
589.694	28.94
589.888	28.85
590.082	28.87
590.275	28.92
590.469	29.1
590.663	28.93
590.856	29.22
591.05	29.34
591.244	29.42
591.437	29.15
591.631	29.38
591.824	29.41
592.018	29.45
592.212	29.36
592.405	29.31
592.599	29.65
592.792	29.83
592.986	29.81
593.179	29.83
593.372	29.87
593.566	30.41
593.759	30.56
593.953	30.66
594.146	30.43
594.339	30.59
594.533	31.07
594.726	30.77
594.92	30.52
595.113	30.32
595.306	30.31
595.499	30.15
595.693	29.81
595.886	29.99
596.079	29.97
596.272	30.28
596.466	30.36
596.659	30.16
596.852	30.16
597.045	30.43
597.238	30.65
597.431	30.82
597.624	31.04
597.818	31.37
598.011	31.11
598.204	31.26
598.397	31.37
598.59	31.27
598.783	31.43
598.976	31.68
599.169	31.83
599.362	31.81
599.555	31.79
599.748	31.61
599.941	31.26
600.134	31.55
600.326	31.49
600.519	31.5
600.712	31.49
600.905	31.36
601.098	31.04
601.291	30.89
601.483	30.72
601.676	30.78
601.869	31
602.062	31.12
602.255	30.87
602.447	30.95
602.64	31.2
602.833	31.41
603.025	31.39
603.218	31.53
603.411	31.57
603.603	31.8
603.796	31.53
603.989	31.71
604.181	31.75
604.374	31.89
604.566	31.94
604.759	31.79
604.951	31.72
605.144	31.89
605.336	32
605.529	32.05
605.721	32.13
605.914	32.45
606.106	32.36
606.299	32.44
606.491	32.47
606.683	32.62
606.876	32.8
607.068	33.14
607.26	33.33
607.453	33.42
607.645	33.3
607.837	33.08
608.03	32.81
608.222	32.64
608.414	32.63
608.606	32.56
608.799	32.55
608.991	32.18
609.183	31.84
609.375	31.64
609.567	31.64
609.759	31.75
609.952	31.56
610.144	32.12
610.336	32.12
610.528	32.08
610.72	32.29
610.912	32.26
611.104	32.38
611.296	32.45
611.488	32.49
611.68	32.44
611.872	32.61
612.064	32.78
612.256	32.51
612.448	32.68
612.64	32.9
612.832	32.54
613.023	32.58
613.215	32.7
613.407	32.87
613.599	32.72
613.791	32.61
613.983	32.08
614.174	32.21
614.366	31.84
614.558	32.04
614.75	31.96
614.941	32.48
615.133	32.42
615.325	32.57
615.516	32.54
615.708	32.36
615.9	32.4
616.091	32.64
616.283	32.81
616.475	33.09
616.666	32.94
616.858	33.04
617.049	32.6
617.241	32.78
617.432	32.4
617.624	32.32
617.815	32.42
618.007	32.52
618.198	32.58
618.39	32.59
618.581	32.32
618.773	32.47
618.964	32.22
619.155	32.37
619.347	32.13
619.538	32.32
619.729	32.46
619.921	32.41
620.112	32.22
620.303	32.06
620.494	32.11
620.686	32.43
620.877	32.33
621.068	32.57
621.259	32.87
621.451	32.79
621.642	32.89
621.833	32.23
622.024	32.42
622.215	32.39
622.406	32.67
622.597	32.23
622.788	32.21
622.98	32.56
623.171	32.45
623.362	32.16
623.553	32.36
623.744	32.23
623.935	33.12
624.126	33
624.317	33.04
624.508	32.85
624.698	33.19
624.889	32.73
625.08	32.37
625.271	32.46
625.462	32.45
625.653	32.51
625.844	32.59
626.034	32.36
626.225	32.8
626.416	32.88
626.607	33.1
626.798	33.18
626.988	33.49
627.179	33.41
627.37	33.67
627.56	33.96
627.751	33.95
627.942	33.87
628.132	34.03
628.323	34.07
628.514	34.37
628.704	34.5
628.895	34.2
629.085	34.06
629.276	34.21
629.466	34.03
629.657	34.02
629.847	34.08
630.038	34.14
630.228	34.05
630.419	33.82
630.609	33.69
630.8	33.42
630.99	33.69
631.181	33.82
631.371	33.62
631.561	33.3
631.752	33.33
631.942	33.08
632.132	33.47
632.323	33.21
632.513	33.45
632.703	33.42
632.893	33.49
633.084	33.48
633.274	33.1
633.464	33.45
633.654	33.62
633.844	33.45
634.034	33.71
634.225	33.75
634.415	34.13
634.605	33.99
634.795	33.94
634.985	33.74
635.175	33.72
635.365	34.15
635.555	34.27
635.745	34.05
635.935	33.89
636.125	33.74
636.315	33.07
636.505	32.81
636.695	32.38
636.885	32.64
637.075	32.62
637.265	32.85
637.455	32.86
637.644	32.55
637.834	32.71
638.024	33.14
638.214	33.32
638.404	33.82
638.593	34.12
638.783	34.2
638.973	34.2
639.163	34.7
639.352	34.65
639.542	35.09
639.732	35.22
639.921	35.43
640.111	35.05
640.301	34.87
640.49	34.5
640.68	34.08
640.87	34.71
641.059	34.25
641.249	33.99
641.438	33.87
641.628	33.71
641.817	33.67
642.007	33.78
642.196	33.8
642.386	33.93
642.575	34.27
642.764	34.69
642.954	34.1
643.143	34.23
643.333	34.33
643.522	34.53
643.711	34.14
643.901	34.19
644.09	33.95
644.279	34.19
644.469	34.32
644.658	34.4
644.847	34.22
645.036	34.29
645.226	34.7
645.415	34.91
645.604	34.84
645.793	35.03
645.982	34.92
646.171	35.02
646.361	34.87
646.55	34.55
646.739	34.29
646.928	34.23
647.117	34.3
647.306	34.05
647.495	33.61
647.684	33.21
647.873	32.72
648.062	32.71
648.251	32.7
648.44	32.76
648.629	32.96
648.818	33.26
649.007	33.72
649.196	33.89
649.384	34.26
649.573	34.43
649.762	34.82
649.951	35.26
650.14	35.53
650.328	35.39
650.517	35.28
650.706	35.11
650.895	35.17
651.083	34.88
651.272	35.17
651.461	34.87
651.65	34.56
651.838	34.28
652.027	34.7
652.216	34.57
652.404	34.93
652.593	35.35
652.781	35.6
652.97	35.53
653.158	35.23
653.347	34.76
653.535	34.58
653.724	35.11
653.912	35.33
654.101	35.35
654.289	35.57
654.478	35.57
654.666	35.02
654.855	35.31
655.043	35.03
655.231	35.13
655.42	35.23
655.608	35.42
655.796	34.85
655.985	35.17
656.173	34.86
656.361	34.43
656.55	34.26
656.738	34.21
656.926	34.04
657.114	34.04
657.302	34.63
657.491	34.52
657.679	34.52
657.867	34.95
658.055	34.92
658.243	34.68
658.431	34.54
658.619	34.44
658.807	34.9
658.996	34.82
659.184	35.18
659.372	34.88
659.56	35.31
659.748	35.48
659.936	35.46
660.124	35.14
660.311	35.62
660.499	35.59
660.687	35.54
660.875	35.48
661.063	35.6
661.251	35.76
661.439	35.85
661.627	35.29
661.814	35.22
662.002	35.05
662.19	35.16
662.378	34.28
662.565	34.67
662.753	34.53
662.941	34.31
663.129	33.84
663.316	33.5
663.504	33.82
663.692	34.44
663.879	34.1
664.067	34.41
664.254	34.33
664.442	35.16
664.63	35.4
664.817	35.54
665.005	35.64
665.192	36.24
665.38	36.36
665.567	35.96
665.755	35.22
665.942	35.23
666.13	34.83
666.317	34.72
666.504	34.28
666.692	34.4
666.879	34.46
667.067	34.21
667.254	34.12
667.441	34.12
667.629	33.89
667.816	34.36
668.003	34.48
668.19	34.86
668.378	34.88
668.565	35.38
668.752	34.95
668.939	35.16
669.127	35.53
669.314	35.44
669.501	35.37
669.688	35.7
669.875	35.86
670.062	36.28
670.249	36.11
670.436	36.29
670.623	35.93
670.81	36.08
670.997	35.8
671.184	35.49
671.371	35.26
671.558	35.24
671.745	35.64
671.932	35.53
672.119	35.27
672.306	35.7
672.493	35.39
672.68	35.44
672.867	35.27
673.054	35.5
673.24	36.03
673.427	36.43
673.614	36.2
673.801	35.37
673.988	35.55
674.174	35.38
674.361	34.86
674.548	35.35
674.734	35.53
674.921	36.27
675.108	36.12
675.294	35.83
675.481	35.7
675.668	35.71
675.854	35.8
676.041	35.42
676.227	35.72
676.414	35.47
676.601	35.2
676.787	34.86
676.974	34.32
677.16	34.67
677.347	34.45
677.533	34.09
677.719	34.43
677.906	34.57
678.092	34.33
678.279	34.02
678.465	34.61
678.651	34.93
678.838	34.89
679.024	34.77
679.21	34.38
679.397	34.63
679.583	35.12
679.769	35.15
679.955	35.07
680.142	36.02
680.328	36.26
680.514	36.2
680.7	36.3
680.886	36.58
681.073	36.66
681.259	36.81
681.445	36.76
681.631	36.66
681.817	36.52
682.003	36.65
682.189	35.9
682.375	35.87
682.561	35.76
682.747	36.17
682.933	35.74
683.119	35.97
683.305	35.83
683.491	36.01
683.677	36.49
683.863	36.81
684.049	36.73
684.235	36.74
684.42	36.93
684.606	37.11
684.792	36.74
684.978	37.72
685.164	37.66
685.349	37.61
685.535	37.79
685.721	37.02
685.907	36.48
686.092	36.54
686.278	36.68
686.464	36.47
686.649	36.56
686.835	36.93
687.021	36.37
687.206	36.28
687.392	36.99
687.577	36.41
687.763	36.67
687.948	36.72
688.134	37.14
688.319	37
688.505	36.75
688.69	36.45
688.876	35.52
689.061	35.41
689.247	35.4
689.432	35.61
689.618	35.95
689.803	36.01
689.988	36.38
690.174	36.09
690.359	36.25
690.544	36.24
690.73	36.62
690.915	36.82
691.1	37.05
691.285	37.17
691.471	36.85
691.656	36.53
691.841	36.6
692.026	36.17
692.211	36.21
692.396	36.47
692.582	36.97
692.767	36.14
692.952	36.34
693.137	35.76
693.322	35.64
693.507	35.29
693.692	35.55
693.877	35.6
694.062	36.11
694.247	35.82
694.432	35.2
694.617	34.72
694.802	35.67
694.987	35.27
695.172	35.72
695.357	35.19
695.541	35.87
695.726	35.5
695.911	35.7
696.096	35.16
696.281	35.31
696.466	35.32
696.65	36.06
696.835	36.03
697.02	35.97
697.204	35.75
697.389	36.2
697.574	35.85
697.759	36.05
697.943	35.62
698.128	35.7
698.312	35.82
698.497	36.11
698.682	35.77
698.866	35.49
699.051	35.88
699.235	36.31
699.42	36.19
699.604	35.52
699.789	35.31
699.973	35.15
700.158	35.42
700.342	35.23
700.527	35.44
700.711	35.4
700.895	35.64
701.08	35.66
701.264	35.7
701.448	35.41
701.633	36.45
701.817	36.91
702.001	37.54
702.186	37.58
702.37	38.07
702.554	38.06
702.738	38.36
702.923	38.6
703.107	38.45
703.291	38.25
703.475	39.09
703.659	39.19
703.843	39.19
704.027	38.81
704.212	38.62
704.396	38.02
704.58	37.99
704.764	37.68
704.948	37.17
705.132	37.89
705.316	37.73
705.5	37.93
705.684	37.89
705.868	38.28
706.052	38.74
706.235	38.74
706.419	39.11
706.603	38.82
706.787	39.1
706.971	39.65
707.155	39.08
707.339	38.96
707.522	38.67
707.706	38.16
707.89	38.04
708.074	37.86
708.257	37.83
708.441	37.52
708.625	36.6
708.808	37.07
708.992	36.7
709.176	37.07
709.359	37.42
709.543	37.23
709.727	37.48
709.91	37.76
710.094	37.98
710.277	37.85
710.461	38.1
710.644	39.12
710.828	39.18
711.011	38.88
711.195	38.52
711.378	38.32
711.562	38.38
711.745	38.23
711.928	37.9
712.112	37.87
712.295	37.74
712.478	38.12
712.662	37.99
712.845	37.03
713.028	37.88
713.212	37.57
713.395	37.21
713.578	37.9
713.761	37.88
713.945	38.16
714.128	37.55
714.311	37.89
714.494	37.49
714.677	37.85
714.86	38.23
715.043	37.52
715.227	37.57
715.41	37.87
715.593	37.66
715.776	37.68
715.959	36.63
716.142	36.54
716.325	37.01
716.508	37.14
716.691	37.1
716.874	36.71
717.057	37.06
717.239	37.68
717.422	37.66
717.605	36.67
717.788	36.51
717.971	37.42
718.154	37.84
718.337	37.38
718.519	36.95
718.702	36.04
718.885	36.16
719.068	35.61
719.25	35.34
719.433	35.18
719.616	35.71
719.798	35.98
719.981	36.44
720.164	36.32
720.346	35.86
720.529	36.1
720.712	36.43
720.894	37.73
721.077	39.08
721.259	38.98
721.442	39.61
721.624	39.7
721.807	39.85
721.989	39.16
722.172	39.81
722.354	39.17
722.537	39.01
722.719	39
722.901	38.31
723.084	37.77
723.266	36.87
723.448	35.74
723.631	35.28
723.813	35.3
723.995	35.04
724.178	34.96
724.36	36.41
724.542	36.37
724.724	37.15
724.907	37.19
725.089	35.47
725.271	36.88
725.453	37.21
725.635	37.96
725.817	38.18
725.999	38.95
726.181	38.84
726.364	38.49
726.546	38.83
726.728	38.78
726.91	38.06
727.092	39.11
727.274	38.51
727.456	38.29
727.638	36.9
727.819	36.74
728.001	36.61
728.183	37.01
728.365	36.99
728.547	36.38
728.729	36.37
728.911	37.47
729.093	38.26
729.274	38.22
729.456	38.63
729.638	40.31
729.82	40.22
730.001	40.2
730.183	39.58
730.365	39.55
730.546	39.78
730.728	39.23
730.91	38.49
731.091	37.78
731.273	38.73
731.455	39.12
731.636	37.99
731.818	37.47
731.999	37.52
732.181	37.19
732.362	37.16
732.544	37.93
732.725	38.24
732.907	38.01
733.088	37.84
733.27	36.75
733.451	36.71
733.633	37.34
733.814	37.71
733.995	36.69
734.177	36.5
734.358	36.5
734.539	36.16
734.721	35.87
734.902	36.95
735.083	37.28
735.264	37.03
735.446	37.44
735.627	36.58
735.808	37.58
735.989	39.34
736.17	39.83
736.351	40.02
736.533	39.49
736.714	40.07
736.895	39.62
737.076	39.52
737.257	40.9
737.438	40.34
737.619	41.55
737.8	40.31
737.981	38.74
738.162	39.82
738.343	39.68
738.524	39.24
738.705	38.69
738.886	38.19
739.067	38.28
739.247	37.38
739.428	36.79
739.609	37.16
739.79	37.78
739.971	38.44
740.151	38.48
740.332	38.75
740.513	39.71
740.694	39.85
740.874	41.55
741.055	42.08
741.236	41.25
741.417	41.69
741.597	41.09
741.778	40.42
741.958	40.52
742.139	40.1
742.32	40.24
742.5	40.29
742.681	40.42
742.861	39.18
743.042	38.1
743.222	38.71
743.403	39.07
743.583	38.68
743.764	38.87
743.944	38.58
744.124	38.12
744.305	38.11
744.485	38.03
744.666	38.78
744.846	38.49
745.026	38.32
745.207	38.08
745.387	37.94
745.567	37.98
745.747	39.16
745.928	39.13
746.108	39.79
746.288	39.66
746.468	39.14
746.648	38.34
746.829	39.33
747.009	39.58
747.189	39.7
747.369	40.77
747.549	40.98
747.729	39.1
747.909	38.04
748.089	37.68
748.269	37.53
748.449	38.13
748.629	38.65
748.809	38.05
748.989	38.29
749.169	37.57
749.349	36.34
749.529	36.3
749.709	37.34
749.889	39.01
750.068	38.84
750.248	38.37
750.428	37.39
750.608	36.17
750.788	36
750.967	34.98
751.147	36.85
751.327	36.36
751.507	36.52
751.686	36.42
751.866	35.78
752.046	35.14
752.225	35.26
752.405	36.68
752.585	37.93
752.764	38.32
752.944	38.91
753.123	37.84
753.303	37.44
753.482	36.91
753.662	36.25
753.841	36.56
754.021	35.89
754.2	36.04
754.38	35.79
754.559	35.11
754.739	34.79
754.918	34.27
755.097	34.92
755.277	34.91
755.456	34.95
755.635	34.55
755.815	33.55
755.994	33.71
756.173	33.57
756.352	31.79
756.532	31.86
756.711	31.73
756.89	32.33
757.069	33.37
757.248	34.31
757.427	34.96
757.607	35.95
757.786	36.76
757.965	37.91
758.144	37.94
758.323	39.16
758.502	38.3
758.681	38.28
758.86	38.87
759.039	37.39
759.218	37.77
759.397	38.09
759.576	38.75
759.755	38.44
759.934	38.96
760.113	39.1
760.291	39.44
760.47	39.85
760.649	39.78
760.828	38.43
761.007	39.12
761.186	39.4
761.364	38.31
761.543	38.31
761.722	38.09
761.901	37.34
762.079	37.9
762.258	38.45
762.437	38.8
762.615	38.74
762.794	40.21
762.972	40.11
763.151	39.86
763.33	40.48
763.508	39.71
763.687	40.65
763.865	40.91
764.044	40.4
764.222	39.77
764.401	40.01
764.579	40.61
764.758	40.58
764.936	40.21
765.114	39.97
765.293	39.92
765.471	39.94
765.65	38.91
765.828	38.68
766.006	38.87
766.184	38.05
766.363	37.44
766.541	36.15
766.719	35.57
766.898	35.29
767.076	34.39
767.254	34.13
767.432	35.13
767.61	35.96
767.788	35.78
767.967	35.08
768.145	36.82
768.323	36.8
768.501	37.04
768.679	36.51
768.857	36.23
769.035	36.35
769.213	35.31
769.391	34.2
769.569	33.25
769.747	32.07
769.925	32.08
770.103	31.69
770.281	32.4
770.459	31.46
770.636	32.34
770.814	32.52
770.992	34.71
771.17	35.77
771.348	35.96
771.525	35.27
771.703	37.2
771.881	38.59
772.059	38.54
772.236	38.31
772.414	39.44
772.592	39.13
772.769	39.95
772.947	38.63
773.125	38.59
773.302	36.61
773.48	38.89
773.657	37.55
773.835	36.61
774.013	35.16
774.19	35.53
774.368	37.42
774.545	36.27
774.723	36.05
774.9	36.5
775.077	37.43
775.255	39.8
775.432	38.45
775.61	39.54
775.787	40.13
775.964	40.53
776.142	39.63
776.319	39.15
776.496	40.48
776.674	39.55
776.851	41.54
777.028	39.87
777.205	40.6
777.382	41.44
777.56	41.48
777.737	39.29
777.914	39.98
778.091	39.71
778.268	40.05
778.445	39.45
778.622	41.19
778.8	38.29
778.977	38.45
779.154	6.2
779.331	4.84
779.508	3.8
779.685	6.05
779.862	5.66
780.038	7.27
780.215	5.82
780.392	6.15
780.569	4.78
780.746	4.16
780.923	4.89
781.1	36.4
781.277	37.63
781.453	39.71
781.63	38.07
781.807	38.19
781.984	37.52
782.16	37.2
782.337	38.11
782.514	38.02
782.691	40.42
782.867	40.38
783.044	38.68
783.221	36.27
783.397	33.53
783.574	34.8
783.75	34.59
783.927	33.06
784.103	31.02
784.28	31.19
784.456	30.57
784.633	28.08
784.809	28.25
784.986	29.84
785.162	32.19
785.339	35.06
785.515	37.16
785.692	36.45
785.868	38.58
786.044	41.07
786.221	41.11
786.397	41.26
786.573	39.59
786.749	41.19
786.926	41.17
787.102	39.78
787.278	38.61
787.454	37.06
787.631	37.23
787.807	39.43
787.983	40.29
788.159	37.72
788.335	37.65
788.511	40.88
788.687	35.09
788.863	36.21
789.039	35.09
789.216	33.77
789.392	34.98
789.568	33.32
789.744	30.09
789.919	28.86
790.095	31.97
790.271	32.51
790.447	32.19
790.623	37.06
790.799	34.93
790.975	36.15
791.151	37.29
791.327	34.94
791.502	36.04
791.678	37.19
791.854	36.86
792.03	36.18
792.205	34.35
792.381	35.91
792.557	33.97
792.733	35.14
792.908	32.47
793.084	31.85
793.259	32.12
793.435	34.3
793.611	34.33
793.786	34.94
793.962	34.41
794.137	35.38
794.313	33.85
794.488	33.83
794.664	31.86
794.839	30.14
795.015	28.43
795.19	28.28
795.366	27.97
795.541	28.87
795.716	30.38
795.892	29.16
796.067	29.79
796.242	31.62
796.418	34.03
796.593	33.99
796.768	36.93
796.944	39.57
797.119	41.46
797.294	43.23
797.469	39.69
797.644	38.56
797.82	41.23
797.995	42.04
798.17	39.51
798.345	35.69
798.52	36.26
798.695	36.2
798.87	37.16
799.045	36.13
799.22	34.26
799.395	36.34
799.57	34.3
799.745	32.12
799.92	32.62
800.095	34.28
800.27	37.25
800.445	37.97
800.62	36.94
800.795	34.42
800.97	33.16
801.145	32.33
801.319	30.58
801.494	31.05
801.669	29.83
801.844	29.04
802.018	25.97
802.193	26.3
802.368	26.41
802.543	27.53
802.717	29.73
802.892	30.85
803.067	33.03
803.241	33.45
803.416	36.06
803.59	37.6
803.765	37.03
803.94	38.47
804.114	37.11
804.289	39.15
804.463	39.65
804.638	39.55
804.812	39.62
804.986	37.6
805.161	36.88
805.335	34.01
805.51	31.09
805.684	32.19
805.858	31.66
806.033	33.95
806.207	34.36
806.381	35.87
806.556	32.68
806.73	34.53
806.904	34.97
807.078	33.74
807.253	35.35
807.427	38.33
807.601	33.18
807.775	35.22
807.949	32.32
808.123	29.52
808.298	28.29
808.472	27.41
808.646	25.04
808.82	24.41
808.994	26.36
809.168	25.57
809.342	23.09
809.516	26.31
809.69	24.62
809.864	25.88
810.038	26.22
810.212	26.07
810.385	27.03
810.559	29.81
810.733	28.93
810.907	29.03
811.081	31.57
811.255	34.17
811.428	32.59
811.602	32.09
811.776	28.64
811.95	29.63
812.123	32.65
812.297	34.1
812.471	30.11
812.644	28.7
812.818	30.02
812.992	26.9
813.165	24.47
813.339	27.9
813.512	30.55
813.686	34.16
813.86	35.77
814.033	36.23
814.207	38.41
814.38	40.2
814.554	41.48
814.727	41.78
814.9	43.09
815.074	42.32
815.247	42.77
815.421	40.44
815.594	39.5
815.767	35.98
815.941	29.36
816.114	22.43
816.287	23.7
816.46	22.8
816.634	22.37
816.807	21.55
816.98	21.85
817.153	19.76
817.327	22.48
817.5	23.34
817.673	29.59
817.846	28.2
818.019	35.55
818.192	33.82
818.365	32.72
818.538	36.46
818.711	35.61
818.884	40.95
819.057	40.06
819.23	38.17
819.403	36.79
819.576	32.66
819.749	36.48
819.922	35.7
820.095	39.01
820.268	41.31
820.441	37.18
820.614	37.16
820.786	35.08
820.959	36.48
821.132	37.5
821.305	39.75
821.477	40.72
821.65	39.67
821.823	38.9
821.996	37.84
822.168	37.4
822.341	37.68
822.514	38.51
822.686	38.13
822.859	38.2
823.031	38.15
823.204	38
823.376	37.19
823.549	37.11
823.722	37.2
823.894	37.44
824.067	38.07
824.239	38.23
824.411	37.56
824.584	37.86
824.756	38.17
824.929	38.5
825.101	38.61
825.273	39.25
825.446	39.88
825.618	40.23
825.79	40.72
825.963	40.21
826.135	41.17
826.307	41.6
826.479	40.83
826.652	40.89
826.824	40
826.996	39
827.168	38.77
827.34	38.68
827.512	38.77
827.684	37.35
827.856	37.38
828.029	36.98
828.201	36.5
828.373	37.03
828.545	36.71
828.717	37.33
828.889	37.9
829.061	37.88
829.232	37.55
829.404	37.61
829.576	39.17
829.748	38.17
829.92	38.15
830.092	39.03
830.264	38.49
830.436	38.4
830.607	38.49
830.779	39.97
830.951	40.28
831.123	39.85
831.294	38.82
831.466	35.8
831.638	38.5
831.809	36.65
831.981	34.84
832.153	36.27
832.324	35.41
832.496	34.32
832.667	31.4
832.839	28.39
833.011	30.1
833.182	28.62
833.354	30.46
833.525	30.56
833.697	31.56
833.868	33.42
834.039	33.26
834.211	34.03
834.382	33.98
834.554	34.15
834.725	35.56
834.896	34.66
835.068	35.53
835.239	34.59
835.41	34.86
835.581	33.6
835.753	33.16
835.924	31.49
836.095	29.99
836.266	28.84
836.438	27.13
836.609	26.21
836.78	25.87
836.951	26.02
837.122	27.74
837.293	24.95
837.464	25.5
837.635	26.84
837.806	28.54
837.977	27.65
838.148	27.69
838.319	28.34
838.49	26.11
838.661	26.82
838.832	26.9
839.003	28.4
839.174	33.69
839.345	37.38
839.516	35.9
839.687	31.93
839.857	36.1
840.028	36.17
840.199	39.23
840.37	43.57
840.54	46.67
840.711	46.95
840.882	43.65
841.053	40.09
841.223	33.73
841.394	33.29
841.564	37.88
841.735	38.11
841.906	40.66
842.076	35.07
842.247	35.09
842.417	35.3
842.588	32.63
842.758	34.86
842.929	33.3
843.099	36.02
843.27	32.32
843.44	35.3
843.611	27.05
843.781	22.73
843.951	26.17
844.122	25.56
844.292	22.09
844.462	20.6
844.633	19.39
844.803	18.97
844.973	13.22
845.144	10.94
845.314	-6.12
845.484	3.02
845.654	0.58
845.824	11.68
845.995	15.89
846.165	14.21
846.335	9.3
846.505	6.39
846.675	11.62
846.845	21.54
847.015	24.58
847.185	31.35
847.355	33.02
847.525	27.11
847.695	19.1
847.865	21.12
848.035	20.54
848.205	26.7
848.375	33.1
848.545	24.98
848.715	24.4
848.884	25.25
849.054	19.24
849.224	24.06
849.394	30.84
849.564	34.45
849.733	34.93
849.903	33.34
850.073	34.13
850.243	29
850.412	32.45
850.582	26.7
850.752	22.82
850.921	30.51
851.091	20.39
851.26	19.75
851.43	22.88
851.599	11.99
851.769	13.84
851.939	17.91
852.108	17.6
852.278	9.07
852.447	19.24
852.616	22.65
852.786	21.46
852.955	21.85
853.125	19.28
853.294	10.73
853.463	12.22
853.633	5.35
853.802	-9.25
853.971	-1.26
854.141	-9.5
854.31	-32.36
854.479	-36.73
854.648	-36.09
854.818	-26.77
854.987	-16.69
855.156	-3.95
855.325	8.81
855.494	24.77
855.663	38.86
855.832	28.87
856.001	34.3
856.171	40.62
856.34	32.15
856.509	41.19
856.678	31.59
856.847	31.22
857.016	21.31
857.185	10.58
857.353	5.24
857.522	5.38
857.691	7.29
857.86	10.84
858.029	7.87
858.198	19.25
858.367	9.75
858.535	14.87
858.704	28.58
858.873	26.12
859.042	26.94
859.21	28.72
859.379	29.22
859.548	28.56
859.717	18.82
859.885	23.61
860.054	12.73
860.222	21.42
860.391	25.89
860.56	-6.49
860.728	14.85
860.897	17.05
861.065	27.24
861.234	28.35
861.402	34.28
861.571	46.78
861.739	46.65
861.908	59.43
862.076	61.75
862.244	56.46
862.413	72.75
862.581	69.34
862.749	64.63
862.918	55.19
863.086	55.03
863.254	58.34
863.423	56.81
863.591	50.81
863.759	48.14
863.927	40.09
864.096	48.35
864.264	40.39
864.432	39.09
864.6	46.35
864.768	64.28
864.936	54.77
865.104	39.78
865.272	29.61
865.44	24.92
865.608	24.7
865.776	29.23
865.944	27.22
866.112	48.89
866.28	40.45
866.448	25.56
866.616	22.08
866.784	19.7
866.952	19.88
867.12	41.94
867.288	47.91
867.455	34.62
867.623	13.05
867.791	-35.53
867.959	-51.55
868.127	7.35
868.294	36.32
868.462	31.16
868.63	42.55
868.797	50.18
868.965	29.57
869.133	26.93
869.3	33.02
869.468	30.03
869.636	35.88
869.803	26.77
869.971	16.15
870.138	3.94
870.306	-1.71
870.473	-6.16
870.641	-9.34
870.808	-9.42
870.975	0.7
871.143	-2.1
871.31	27.88
871.478	13.96
871.645	18.91
871.812	2.87
871.98	27.36
872.147	20.16
872.314	28.47
872.482	22.43
872.649	24.93
872.816	13.38
872.983	28.31
873.15	5.29
873.318	11.09
873.485	4.08
873.652	12.97
873.819	-10.22
873.986	9.14
874.153	-2.11
874.32	15.24
874.487	15.13
874.654	13.5
874.821	-18.57
874.988	7.91
875.155	5.59
875.322	17.5
875.489	24.72
875.656	35.49
875.823	26.52
875.99	23.75
876.157	14.7
876.324	12.67
876.49	23.62
876.657	27.18
876.824	11.4
876.991	22.41
877.157	12.91
877.324	9.54
877.491	-8.9
877.658	-3.95
877.824	-9.46
877.991	4.8
878.157	-5.42
878.324	-8.3
878.491	-5.14
878.657	18.43
878.824	11.96
878.99	20.1
879.157	14.19
879.323	29.5
879.49	22.4
879.656	34.51
879.823	20.75
879.989	35.29
880.156	34.61
880.322	34.03
880.488	29.53
880.655	27.55
880.821	23.53
880.987	28.69
881.154	29.89
881.32	32.76
881.486	28.33
881.652	27.79
881.819	23.18
881.985	24.72
882.151	22.87
882.317	22.81
882.483	24.14
882.649	26.5
882.816	25.76
882.982	27.49
883.148	28.61
883.314	30.5
883.48	33.92
883.646	34.34
883.812	35.57
883.978	36.92
884.144	37.32
884.31	35.89
884.476	37.33
884.642	37.71
884.807	35.15
884.973	35.66
885.139	34.76
885.305	32.22
885.471	31.45
885.637	29.16
885.802	28.96
885.968	29.41
886.134	32.4
886.3	32.87
886.465	33.32
886.631	34.88
886.797	34.99
886.962	35.9
887.128	37.98
887.293	42.5
887.459	42.33
887.625	41.5
887.79	41.25
887.956	38.01
888.121	33.37
888.287	33.27
888.452	35.98
888.618	34.03
888.783	32.86
