Data from CB_034_Reflection_21-28-31-497.txt Node
Date: Wed Nov 11 21:28:31 EST 2015
User: robert
Spectrometer: USB4E03001
Autoset integration time: false
Trigger mode: 4
Integration Time (sec): 1.000000E-1
Scans to average: 15
Electric dark correction enabled: true
Nonlinearity correction enabled: false
Boxcar width: 5
Stray light correction enabled: false
XAxis mode: Wavelengths
Stop averaging: false
Number of Pixels in Spectrum: 3648
>>>>>Begin Spectral Data<<<<<
177.566	72.81
177.785	-140.13
178.005	8.19
178.225	-22.53
178.445	60
178.665	60.5
178.885	90.46
179.105	50.06
179.324	150.94
179.544	137.51
179.764	103.17
179.984	30.12
180.204	14.48
180.423	29.46
180.643	44.35
180.863	51.35
181.083	63.81
181.302	50.93
181.522	38.89
181.742	41.3
181.961	42.08
182.181	43.58
182.401	59.14
182.621	62.63
182.84	54.66
183.06	47.35
183.279	38.95
183.499	37.48
183.719	40.46
183.938	59.78
184.158	58.53
184.377	53.02
184.597	65.49
184.816	70.92
185.036	67.8
185.256	68.66
185.475	100.09
185.695	102.28
185.914	101.95
186.134	137.82
186.353	118.12
186.572	67.42
186.792	62.5
187.011	44.55
187.231	34.55
187.45	45.91
187.67	5.56
187.889	-30.57
188.108	28.25
188.328	20.72
188.547	0.88
188.766	-10.86
188.986	-25.39
189.205	2.17
189.424	6.03
189.644	2.71
189.863	2.59
190.082	33.21
190.302	33.89
190.521	23.36
190.74	43.49
190.959	66.62
191.178	83.02
191.398	90.14
191.617	91.43
191.836	90.04
192.055	82.02
192.274	83.65
192.494	82.67
192.713	103.67
192.932	101.17
193.151	106.34
193.37	103.52
193.589	94.62
193.808	85.12
194.027	90.29
194.246	96.16
194.465	95.09
194.685	94.37
194.904	82.66
195.123	90.83
195.342	69.73
195.561	81.62
195.78	88.71
195.999	97.02
196.218	84.51
196.436	71.45
196.655	67.35
196.874	97.84
197.093	131.06
197.312	128.78
197.531	116.61
197.75	116.05
197.969	101.35
198.188	69.56
198.407	63.43
198.625	72.38
198.844	74.23
199.063	74.65
199.282	47.5
199.501	20.73
199.719	-5.27
199.938	22.13
200.157	20.62
200.376	49.23
200.594	92.56
200.813	89.21
201.032	86.27
201.251	139.08
201.469	126.97
201.688	134.81
201.907	114.88
202.125	88.3
202.344	75.27
202.563	80.13
202.781	60.61
203	61.38
203.218	52.09
203.437	62.5
203.656	57.2
203.874	49.19
204.093	44.72
204.311	54.64
204.53	60.8
204.748	71.6
204.967	66.21
205.185	84.22
205.404	77.09
205.622	97.98
205.841	79.71
206.059	56.27
206.278	63.96
206.496	75.71
206.715	55.74
206.933	60.05
207.151	51.3
207.37	49.13
207.588	39.14
207.806	41.43
208.025	40.11
208.243	32.13
208.461	51.61
208.68	51.56
208.898	55.23
209.116	43.74
209.335	49.66
209.553	62.32
209.771	59.72
209.989	63.86
210.208	71.73
210.426	53.93
210.644	69.98
210.862	49.2
211.081	63.82
211.299	52.1
211.517	100.39
211.735	69.12
211.953	83.76
212.171	102.7
212.39	117.82
212.608	121.16
212.826	104.87
213.044	120.6
213.262	119.34
213.48	145.44
213.698	148.03
213.916	161.55
214.134	177.63
214.352	130.07
214.57	70.44
214.788	58.01
215.006	20.55
215.224	53.98
215.442	-22.15
215.66	-43.36
215.878	-14.13
216.096	-9.36
216.314	-24.62
216.532	-19.5
216.75	19.29
216.968	48.89
217.185	41.66
217.403	43.63
217.621	36.36
217.839	41.02
218.057	43.05
218.275	44.99
218.492	43.44
218.71	38.05
218.928	38.04
219.146	34.44
219.363	19.5
219.581	35.92
219.799	42.31
220.017	77.01
220.234	82.21
220.452	96.84
220.67	87.87
220.887	84.42
221.105	99.85
221.323	103.65
221.54	108.37
221.758	104.11
221.976	82.82
222.193	56.48
222.411	44.08
222.629	44.16
222.846	31.98
223.064	23.91
223.281	35.08
223.499	32.24
223.716	38.1
223.934	46.9
224.151	36.85
224.369	28.56
224.586	39.78
224.804	44.15
225.021	47.55
225.239	50.27
225.456	36.45
225.674	32.71
225.891	39.43
226.108	34.23
226.326	7.84
226.543	8.29
226.76	7.53
226.978	-5.99
227.195	-7.64
227.413	1.6
227.63	3.93
227.847	10.13
228.064	9.68
228.282	4.97
228.499	7.49
228.716	11.61
228.934	12.71
229.151	11.54
229.368	13.95
229.585	15.96
229.802	14.73
230.02	15.64
230.237	14.7
230.454	14.9
230.671	14.84
230.888	10.97
231.105	10.96
231.323	10.77
231.54	14.52
231.757	12.74
231.974	9.92
232.191	8.11
232.408	9.39
232.625	8.55
232.842	8.49
233.059	13.42
233.276	18.69
233.493	17.53
233.71	18.3
233.927	19.5
234.144	24.49
234.361	23.45
234.578	29.17
234.795	26.91
235.012	28.22
235.229	28.78
235.446	32.52
235.663	31.63
235.879	34.47
236.096	31.45
236.313	26.76
236.53	24.68
236.747	28.68
236.964	27.88
237.181	29.95
237.397	28.21
237.614	27.15
237.831	21.69
238.048	22.13
238.264	16.34
238.481	14.74
238.698	19.74
238.915	22.79
239.131	19.53
239.348	13.51
239.565	13.4
239.781	11.46
239.998	14.1
240.215	12.93
240.431	14.69
240.648	19.38
240.865	19.33
241.081	19.25
241.298	16.27
241.514	14.51
241.731	16.91
241.947	14.22
242.164	15.41
242.38	13.58
242.597	12.67
242.814	11.64
243.03	10.26
243.246	10.89
243.463	9.26
243.679	10.17
243.896	11.57
244.112	10.29
244.329	15.75
244.545	14.75
244.762	13.81
244.978	15.33
245.194	15.47
245.411	13.2
245.627	12.95
245.843	14.45
246.06	14.41
246.276	13.69
246.492	13.19
246.709	10.51
246.925	12.2
247.141	12.88
247.357	12.47
247.574	12.01
247.79	13.13
248.006	12.9
248.222	12.86
248.439	12.53
248.655	13.45
248.871	12.79
249.087	13.14
249.303	12.09
249.519	10.69
249.736	11.03
249.952	10.9
250.168	10.45
250.384	10.76
250.6	9.28
250.816	10.39
251.032	8.15
251.248	11.43
251.464	9.42
251.68	9.31
251.896	12.51
252.112	12.8
252.328	13.2
252.544	13.72
252.76	14.86
252.976	15.01
253.192	14.63
253.408	14.4
253.624	14.89
253.84	17.81
254.056	19.33
254.272	21.19
254.487	22.23
254.703	23.51
254.919	24.89
255.135	22.37
255.351	23.84
255.567	22.18
255.782	23.34
255.998	21.55
256.214	19.55
256.43	19.03
256.646	16.08
256.861	12.86
257.077	11.45
257.293	8.72
257.508	9.92
257.724	8.86
257.94	9.03
258.155	8.53
258.371	6.47
258.587	8.79
258.802	8.73
259.018	8.5
259.234	8.64
259.449	8.73
259.665	9.12
259.88	8.87
260.096	8.77
260.312	8.39
260.527	8.58
260.743	10.19
260.958	9.5
261.174	9.68
261.389	9.98
261.605	11.12
261.82	10.94
262.036	10.91
262.251	12.17
262.466	13.06
262.682	13.33
262.897	12.57
263.113	10.58
263.328	9.87
263.543	8.38
263.759	6.43
263.974	6.69
264.189	7.95
264.405	8.36
264.62	5.92
264.835	5.18
265.051	5.99
265.266	6.4
265.481	7.28
265.696	7.83
265.912	6.86
266.127	8.39
266.342	8
266.557	7.41
266.773	6.67
266.988	7.64
267.203	6.08
267.418	6.84
267.633	8.13
267.848	7.8
268.064	7.17
268.279	8.28
268.494	7.68
268.709	7.8
268.924	9.3
269.139	9.79
269.354	9.91
269.569	11.71
269.784	12.05
269.999	11.31
270.214	10.92
270.429	11.16
270.644	11.27
270.859	11.93
271.074	11.6
271.289	10.93
271.504	10.99
271.719	10.46
271.934	9.39
272.149	9.65
272.363	10.07
272.578	11.04
272.793	11.33
273.008	10.94
273.223	10.23
273.438	9.29
273.653	8.86
273.867	9.02
274.082	9.53
274.297	10.45
274.512	10.15
274.726	9.79
274.941	8.67
275.156	9.07
275.371	9.23
275.585	9.12
275.8	9.71
276.015	9.86
276.229	9.35
276.444	8.46
276.659	8.37
276.873	7.89
277.088	7.64
277.302	9.39
277.517	8.68
277.732	9.95
277.946	11.19
278.161	11.87
278.375	12.74
278.59	13.01
278.804	13.07
279.019	14.3
279.233	14.73
279.448	15.48
279.662	15.01
279.877	15
280.091	14.88
280.306	15.17
280.52	14.61
280.735	14.77
280.949	14.63
281.163	16.28
281.378	14.72
281.592	13.51
281.806	13.91
282.021	12.23
282.235	11.44
282.449	10.57
282.664	9.59
282.878	9.42
283.092	8.19
283.307	9.36
283.521	8.62
283.735	9.07
283.949	9.99
284.164	9.35
284.378	10.29
284.592	11.32
284.806	11.94
285.02	12.5
285.234	12.82
285.449	13.41
285.663	12.9
285.877	12.37
286.091	12.29
286.305	11.69
286.519	11.08
286.733	11.56
286.947	11.03
287.161	10.52
287.375	10.32
287.589	10
287.803	9.36
288.017	7.99
288.231	8.9
288.445	8.69
288.659	8.67
288.873	10.11
289.087	9.64
289.301	10.74
289.515	10.54
289.729	10.19
289.943	9.67
290.157	9.85
290.371	10.55
290.584	10.68
290.798	11.16
291.012	12.21
291.226	11.76
291.44	11.12
291.654	10.93
291.867	11.38
292.081	11.44
292.295	12.78
292.509	12.51
292.722	12.96
292.936	11.32
293.15	11.75
293.364	12.36
293.577	11.79
293.791	12.42
294.005	10.18
294.218	10.21
294.432	11.24
294.645	10.76
294.859	10.58
295.073	8.9
295.286	8.91
295.5	8.44
295.713	7.06
295.927	6.5
296.14	6.86
296.354	8.78
296.568	8.97
296.781	8.63
296.994	8.71
297.208	10.02
297.421	11.31
297.635	11.97
297.848	11.28
298.062	11.37
298.275	12.51
298.489	12.67
298.702	12.44
298.915	12.35
299.129	13.5
299.342	13.13
299.555	13.38
299.769	13.42
299.982	13.37
300.195	14.42
300.409	14.25
300.622	14.27
300.835	13.99
301.048	13.89
301.262	14.75
301.475	14
301.688	14.87
301.901	14.07
302.115	13.73
302.328	14.08
302.541	13.97
302.754	13.92
302.967	12.84
303.18	14.57
303.393	14.48
303.607	13.94
303.82	13.69
304.033	12.83
304.246	12.24
304.459	13.1
304.672	13.06
304.885	13.28
305.098	13.12
305.311	14.7
305.524	12.06
305.737	13.6
305.95	13.01
306.163	12.99
306.376	14.16
306.589	15.02
306.802	14
307.015	14.75
307.228	14.66
307.44	15.16
307.653	14.52
307.866	15.1
308.079	13.69
308.292	13.33
308.505	13.13
308.718	12.94
308.93	13.96
309.143	14.01
309.356	13.9
309.569	13.7
309.781	13.97
309.994	13.71
310.207	14.66
310.42	14.36
310.632	15.89
310.845	16.17
311.058	15.96
311.27	15.55
311.483	15.37
311.696	14.01
311.908	14.95
312.121	14.66
312.333	14.6
312.546	14.63
312.759	14.49
312.971	13.16
313.184	13.06
313.396	12.82
313.609	12.74
313.821	13.04
314.034	15.15
314.246	14.46
314.459	14.78
314.671	15.24
314.884	15.52
315.096	16.78
315.309	16.19
315.521	15.06
315.733	15.04
315.946	14.51
316.158	14.29
316.371	13.6
316.583	12.84
316.795	12.56
317.008	13.22
317.22	12.64
317.432	11.79
317.644	12.69
317.857	14.35
318.069	14.32
318.281	12.77
318.494	13.67
318.706	14.49
318.918	15.37
319.13	16.53
319.342	14.91
319.555	14.01
319.767	14.14
319.979	14.22
320.191	12.72
320.403	14.47
320.615	15.37
320.827	15.62
321.039	14.44
321.252	14.05
321.464	13.54
321.676	13.26
321.888	14.61
322.1	14.6
322.312	14.76
322.524	15.79
322.736	15.64
322.948	15.9
323.16	15.04
323.372	14.79
323.584	15.84
323.796	16.4
324.007	17.35
324.219	17.12
324.431	17.24
324.643	18.93
324.855	19.65
325.067	18.74
325.279	19.32
325.491	20.11
325.702	22.06
325.914	21.39
326.126	20.09
326.338	19.04
326.55	19.3
326.761	19.81
326.973	18.95
327.185	19.03
327.396	19.58
327.608	19.4
327.82	19.62
328.032	19.02
328.243	18.08
328.455	19.86
328.666	21.53
328.878	21.23
329.09	21.19
329.301	20.08
329.513	19.62
329.725	19.45
329.936	20.82
330.148	20.52
330.359	19.27
330.571	20.28
330.782	18.81
330.994	19.56
331.205	20.49
331.417	20.62
331.628	21.72
331.84	21.49
332.051	22.6
332.262	21.75
332.474	22.67
332.685	24.15
332.897	23.37
333.108	24.88
333.319	24.78
333.531	25.78
333.742	26.53
333.953	26.27
334.165	26.11
334.376	26.17
334.587	26.7
334.799	25.94
335.01	25.12
335.221	25.61
335.432	25.77
335.644	25.28
335.855	23.97
336.066	23.54
336.277	24.65
336.488	24.94
336.7	24.83
336.911	24.51
337.122	24.6
337.333	24.83
337.544	25.93
337.755	26.02
337.966	26.26
338.177	26.08
338.388	25.64
338.599	25.33
338.811	25.15
339.022	24.2
339.233	24.5
339.444	25.09
339.655	25.26
339.866	24.06
340.076	23.33
340.287	23.45
340.498	23.7
340.709	24.62
340.92	24.86
341.131	25.15
341.342	25.8
341.553	25.72
341.764	25.7
341.975	25.3
342.185	26.19
342.396	26.17
342.607	26.32
342.818	25.93
343.029	25.25
343.239	24.87
343.45	24.76
343.661	24.54
343.872	23.59
344.082	22.3
344.293	22.75
344.504	21.83
344.714	21.55
344.925	20.99
345.136	21.8
345.346	22.53
345.557	22.11
345.768	21.84
345.978	21.48
346.189	22.37
346.399	22.99
346.61	22.84
346.821	23.98
347.031	23.84
347.242	23.73
347.452	23.75
347.663	24.05
347.873	24.38
348.084	25.12
348.294	26.02
348.504	25.37
348.715	25.48
348.925	25.31
349.136	24.34
349.346	24.66
349.557	25.1
349.767	24.93
349.977	24.13
350.188	23.69
350.398	22.72
350.608	22.22
350.819	22.72
351.029	22.4
351.239	21.4
351.449	22.19
351.66	21.19
351.87	22.22
352.08	21.73
352.29	21.99
352.501	22.54
352.711	23.06
352.921	22.18
353.131	21.97
353.341	22.16
353.552	23.21
353.762	22.27
353.972	23.97
354.182	22.31
354.392	22.31
354.602	21.6
354.812	21.18
355.022	21.43
355.232	22.06
355.442	22.56
355.652	23.4
355.862	23.55
356.072	24.13
356.282	23.55
356.492	24.03
356.702	24.75
356.912	24.46
357.122	24.5
357.332	24.62
357.542	25.09
357.752	24.21
357.962	23.04
358.171	22.52
358.381	22.28
358.591	22.08
358.801	21.44
359.011	20.38
359.221	20.53
359.43	20.98
359.64	19.98
359.85	19.26
360.06	19.54
360.269	20.11
360.479	20.67
360.689	20.72
360.899	20.54
361.108	21.19
361.318	21.6
361.528	21.75
361.737	21.3
361.947	22.05
362.156	21.52
362.366	22
362.576	21.7
362.785	21.89
362.995	22.03
363.204	22.14
363.414	21.72
363.623	21.58
363.833	21.74
364.042	21.5
364.252	21.46
364.461	22.33
364.671	22.03
364.88	22.6
365.09	21.76
365.299	21.32
365.509	21.39
365.718	21.78
365.927	21.38
366.137	21.04
366.346	21.36
366.555	21
366.765	20.61
366.974	20.47
367.183	20.09
367.393	20.37
367.602	20.55
367.811	20.04
368.021	19.98
368.23	19.93
368.439	20.05
368.648	19.86
368.857	19.33
369.067	19.56
369.276	19.29
369.485	19.32
369.694	19.51
369.903	19.17
370.112	19.52
370.321	18.83
370.531	19.22
370.74	19.35
370.949	19.32
371.158	19.36
371.367	18.98
371.576	18.73
371.785	18.42
371.994	17.84
372.203	17.71
372.412	18.15
372.621	18.58
372.83	17.78
373.039	17.46
373.248	17.49
373.457	17.75
373.666	17.74
373.874	17.92
374.083	17.73
374.292	17.7
374.501	18.08
374.71	17.39
374.919	17.2
375.128	18.03
375.336	17.77
375.545	17.23
375.754	17.07
375.963	16.74
376.171	16.75
376.38	16.8
376.589	17.18
376.798	16.71
377.006	16.16
377.215	15.99
377.424	16.06
377.632	16.33
377.841	16.38
378.05	16.68
378.258	16.89
378.467	16.81
378.675	16.82
378.884	16.65
379.093	16.34
379.301	16.96
379.51	16.99
379.718	16.77
379.927	16.71
380.135	16.69
380.344	16.15
380.552	16.19
380.761	15.71
380.969	15.68
381.177	15.45
381.386	15.93
381.594	15.44
381.803	15.2
382.011	14.93
382.219	14.67
382.428	14.91
382.636	14.93
382.845	15.08
383.053	15.19
383.261	15
383.469	14.9
383.678	14.36
383.886	14.58
384.094	14.46
384.302	14.56
384.511	14.55
384.719	14.24
384.927	14.21
385.135	14.25
385.343	14.38
385.552	14.65
385.76	14.69
385.968	14.74
386.176	15
386.384	15.22
386.592	14.97
386.8	14.89
387.008	14.94
387.216	15.07
387.424	15.01
387.633	14.77
387.841	14.15
388.049	13.56
388.257	13.78
388.465	13.4
388.672	13.14
388.88	12.97
389.088	12.72
389.296	12.59
389.504	12.22
389.712	11.87
389.92	11.97
390.128	11.83
390.336	12.26
390.544	12.16
390.751	12.09
390.959	12.38
391.167	12.57
391.375	12.81
391.583	12.74
391.79	12.74
391.998	12.8
392.206	12.88
392.414	13.13
392.621	12.65
392.829	12.49
393.037	12.29
393.244	12.07
393.452	11.84
393.66	11.86
393.867	11.89
394.075	11.91
394.283	11.58
394.49	11.53
394.698	11.46
394.905	11.66
395.113	11.7
395.32	11.7
395.528	11.59
395.735	11.7
395.943	11.4
396.15	11.18
396.358	10.98
396.565	11.45
396.773	10.93
396.98	10.86
397.188	10.75
397.395	10.89
397.602	11.11
397.81	11.37
398.017	11.13
398.225	11.09
398.432	11.27
398.639	11.4
398.847	10.87
399.054	11.29
399.261	11.13
399.468	11.62
399.676	11.39
399.883	11.4
400.09	10.89
400.297	10.9
400.505	10.77
400.712	10.52
400.919	10.6
401.126	10.73
401.333	10.51
401.54	10.47
401.748	10.25
401.955	10.5
402.162	10.26
402.369	10.62
402.576	10.57
402.783	10.86
402.99	10.66
403.197	10.35
403.404	10.22
403.611	10.42
403.818	10.28
404.025	10.01
404.232	9.71
404.439	9.51
404.646	8.95
404.853	8.88
405.06	8.61
405.267	8.89
405.474	8.98
405.681	8.93
405.887	8.82
406.094	8.99
406.301	9.09
406.508	9.11
406.715	9.39
406.922	9.95
407.128	10.22
407.335	10.05
407.542	9.68
407.749	9.52
407.955	9.57
408.162	9.43
408.369	9.25
408.575	9
408.782	9
408.989	9.2
409.195	8.85
409.402	8.51
409.609	8.68
409.815	8.91
410.022	9.11
410.228	9.13
410.435	9.43
410.642	9.55
410.848	9.41
411.055	9.5
411.261	9.04
411.468	9.08
411.674	9.47
411.881	9.62
412.087	9.67
412.294	9.8
412.5	10
412.706	9.59
412.913	9.45
413.119	9.63
413.326	9.39
413.532	9.4
413.738	9.67
413.945	9.32
414.151	9.23
414.357	9.23
414.564	8.87
414.77	8.59
414.976	8.53
415.182	8.81
415.389	8.64
415.595	8.68
415.801	8.98
416.007	8.91
416.214	8.71
416.42	8.72
416.626	8.8
416.832	8.82
417.038	8.75
417.244	8.81
417.45	8.82
417.657	9.07
417.863	9.22
418.069	8.87
418.275	8.73
418.481	8.85
418.687	8.95
418.893	8.82
419.099	9.11
419.305	9.02
419.511	9.19
419.717	9.17
419.923	9.02
420.129	8.95
420.335	9.13
420.541	9.2
420.746	9.15
420.952	8.95
421.158	8.85
421.364	8.62
421.57	8.66
421.776	8.57
421.982	8.6
422.187	8.62
422.393	8.53
422.599	8.42
422.805	8.41
423.01	8.4
423.216	8.55
423.422	8.6
423.628	8.62
423.833	8.56
424.039	8.51
424.245	8.41
424.45	8.45
424.656	8.53
424.862	8.53
425.067	8.6
425.273	8.72
425.478	8.63
425.684	8.6
425.889	8.6
426.095	8.63
426.301	8.62
426.506	8.67
426.712	8.72
426.917	8.5
427.123	8.32
427.328	8.2
427.533	8.1
427.739	8.1
427.944	8.29
428.15	8.37
428.355	8.53
428.561	8.46
428.766	8.37
428.971	8.43
429.177	8.65
429.382	8.85
429.587	8.75
429.793	8.72
429.998	8.51
430.203	8.39
430.408	8.36
430.614	8.38
430.819	8.39
431.024	8.51
431.229	8.47
431.434	8.46
431.64	8.72
431.845	8.79
432.05	8.86
432.255	8.98
432.46	8.87
432.665	8.77
432.87	8.78
433.076	8.92
433.281	8.86
433.486	8.69
433.691	8.69
433.896	8.48
434.101	8.35
434.306	8.39
434.511	8.39
434.716	8.45
434.921	8.52
435.126	8.53
435.331	8.29
435.535	8.15
435.74	8.28
435.945	8.07
436.15	8.18
436.355	8.34
436.56	8.33
436.765	8.11
436.97	8.34
437.174	8.25
437.379	8.11
437.584	8.24
437.789	8.27
437.993	8.33
438.198	8.6
438.403	8.54
438.608	8.38
438.812	8.27
439.017	8.55
439.222	8.44
439.426	8.47
439.631	8.49
439.836	8.56
440.04	8.51
440.245	8.34
440.45	8.28
440.654	8.32
440.859	8.44
441.063	8.44
441.268	8.38
441.472	8.32
441.677	8.35
441.881	8.47
442.086	8.42
442.29	8.56
442.495	8.58
442.699	8.55
442.904	8.43
443.108	8.36
443.312	8.34
443.517	8.44
443.721	8.32
443.925	8.29
444.13	8.04
444.334	7.95
444.538	7.76
444.743	7.77
444.947	7.64
445.151	7.58
445.356	7.53
445.56	7.51
445.764	7.63
445.968	7.73
446.173	7.71
446.377	7.84
446.581	7.84
446.785	7.88
446.989	7.8
447.193	7.97
447.398	7.97
447.602	7.9
447.806	7.93
448.01	7.84
448.214	7.88
448.418	7.93
448.622	7.81
448.826	7.64
449.03	7.73
449.234	7.88
449.438	7.83
449.642	7.9
449.846	8.18
450.05	8.18
450.254	8
450.458	8.04
450.662	8.06
450.866	8.01
451.069	8.33
451.273	8.12
451.477	8.06
451.681	7.97
451.885	8.05
452.089	7.86
452.292	7.87
452.496	7.94
452.7	7.85
452.904	7.67
453.107	7.88
453.311	7.88
453.515	7.9
453.719	7.95
453.922	7.86
454.126	7.94
454.33	8.25
454.533	8.39
454.737	8.52
454.94	8.43
455.144	8.39
455.348	8.43
455.551	8.42
455.755	8.41
455.958	8.53
456.162	8.57
456.365	8.48
456.569	8.2
456.772	8.05
456.976	7.91
457.179	7.91
457.383	8
457.586	7.82
457.79	7.78
457.993	7.65
458.196	7.45
458.4	7.44
458.603	7.39
458.807	7.39
459.01	7.5
459.213	7.42
459.417	7.45
459.62	7.52
459.823	7.52
460.026	7.61
460.23	7.65
460.433	7.6
460.636	7.63
460.839	7.68
461.042	7.67
461.246	7.49
461.449	7.46
461.652	7.47
461.855	7.32
462.058	7.33
462.261	7.15
462.464	7.32
462.668	7.37
462.871	7.39
463.074	7.25
463.277	7.29
463.48	7.57
463.683	7.66
463.886	7.55
464.089	7.68
464.292	7.81
464.495	7.77
464.698	7.88
464.901	7.86
465.104	7.9
465.306	7.79
465.509	7.82
465.712	7.59
465.915	7.55
466.118	7.7
466.321	7.6
466.524	7.56
466.726	7.41
466.929	7.31
467.132	7.36
467.335	7.2
467.538	7.61
467.74	7.56
467.943	7.7
468.146	7.76
468.348	7.75
468.551	7.65
468.754	7.8
468.956	7.92
469.159	7.89
469.362	8
469.564	8.22
469.767	8.02
469.969	8.1
470.172	7.91
470.375	7.9
470.577	7.98
470.78	8.14
470.982	7.95
471.185	8.22
471.387	8.33
471.59	8.22
471.792	7.95
471.995	7.81
472.197	7.97
472.399	7.97
472.602	7.96
472.804	7.91
473.007	7.93
473.209	8.01
473.411	7.95
473.614	7.71
473.816	7.56
474.018	7.8
474.22	7.93
474.423	7.66
474.625	7.54
474.827	7.84
475.03	7.76
475.232	7.58
475.434	7.44
475.636	7.2
475.838	7.24
476.04	7.13
476.243	6.98
476.445	7
476.647	7.07
476.849	7.37
477.051	7.04
477.253	7.03
477.455	7.2
477.657	7.01
477.859	7.23
478.061	7.41
478.263	7.65
478.465	7.69
478.667	7.51
478.869	7.68
479.071	7.73
479.273	7.75
479.475	7.79
479.677	7.77
479.879	7.95
480.081	7.98
480.283	7.93
480.485	8.02
480.686	7.81
480.888	8
481.09	7.98
481.292	7.85
481.494	7.82
481.695	7.97
481.897	8.01
482.099	7.92
482.301	7.81
482.502	7.75
482.704	7.67
482.906	7.74
483.107	7.64
483.309	7.5
483.511	7.49
483.712	7.54
483.914	7.47
484.115	7.37
484.317	7.34
484.519	7.33
484.72	7.34
484.922	7.28
485.123	7.32
485.325	7.31
485.526	7.38
485.728	7.35
485.929	7.34
486.131	7.31
486.332	7.38
486.534	7.44
486.735	7.4
486.936	7.38
487.138	7.49
487.339	7.45
487.541	7.53
487.742	7.52
487.943	7.58
488.144	7.63
488.346	7.66
488.547	7.66
488.748	7.68
488.95	7.7
489.151	7.61
489.352	7.56
489.553	7.62
489.755	7.58
489.956	7.54
490.157	7.46
490.358	7.34
490.559	7.29
490.76	7.26
490.961	7.22
491.163	7.3
491.364	7.43
491.565	7.46
491.766	7.45
491.967	7.5
492.168	7.49
492.369	7.53
492.57	7.49
492.771	7.52
492.972	7.51
493.173	7.55
493.374	7.55
493.575	7.53
493.776	7.5
493.976	7.53
494.177	7.56
494.378	7.76
494.579	7.76
494.78	7.87
494.981	7.74
495.182	7.81
495.382	7.97
495.583	7.82
495.784	7.82
495.985	7.92
496.185	7.93
496.386	7.84
496.587	7.73
496.788	7.61
496.988	7.5
497.189	7.69
497.39	7.78
497.59	7.71
497.791	7.87
497.992	7.98
498.192	7.87
498.393	7.63
498.593	7.62
498.794	7.66
498.994	7.84
499.195	8.08
499.395	8.2
499.596	8.17
499.796	8.08
499.997	8.22
500.197	8.21
500.398	8.27
500.598	8.39
500.799	8.43
500.999	8.48
501.199	8.57
501.4	8.53
501.6	8.35
501.801	8.42
502.001	8.5
502.201	8.5
502.402	8.51
502.602	8.56
502.802	8.54
503.002	8.61
503.203	8.48
503.403	8.33
503.603	8.41
503.803	8.57
504.003	8.54
504.204	8.68
504.404	8.78
504.604	8.74
504.804	8.94
505.004	9.25
505.204	9.24
505.404	9.24
505.604	9.31
505.804	9.4
506.005	9.5
506.205	9.54
506.405	9.53
506.605	9.23
506.805	9.31
507.005	9.31
507.204	9.08
507.404	9.24
507.604	9.37
507.804	9.51
508.004	9.51
508.204	9.37
508.404	9.46
508.604	9.54
508.804	9.79
509.003	9.9
509.203	9.91
509.403	10.08
509.603	10.08
509.803	10.06
510.002	10
510.202	10.01
510.402	10.26
510.602	10.38
510.801	10.31
511.001	10.46
511.201	10.47
511.4	10.5
511.6	10.58
511.8	10.55
511.999	10.78
512.199	10.79
512.398	10.9
512.598	10.92
512.797	10.89
512.997	11.17
513.197	11.17
513.396	11.21
513.596	11.2
513.795	11.21
513.994	11.48
514.194	11.51
514.393	11.71
514.593	11.6
514.792	11.54
514.992	11.55
515.191	11.48
515.39	11.68
515.59	11.89
515.789	12.07
515.988	12.32
516.188	12.18
516.387	12.21
516.586	12.35
516.786	12.42
516.985	12.54
517.184	12.61
517.383	12.69
517.582	12.56
517.782	12.57
517.981	12.55
518.18	12.5
518.379	12.71
518.578	12.89
518.777	12.88
518.976	13.05
519.176	13.06
519.375	13.24
519.574	13.33
519.773	13.48
519.972	13.48
520.171	13.64
520.37	13.83
520.569	13.78
520.768	13.76
520.967	13.94
521.166	14.03
521.365	14.2
521.564	14.36
521.762	14.41
521.961	14.48
522.16	14.64
522.359	14.62
522.558	14.61
522.757	14.86
522.956	14.8
523.154	14.83
523.353	14.82
523.552	14.87
523.751	14.82
523.949	14.84
524.148	14.89
524.347	14.92
524.546	15.17
524.744	15.11
524.943	15.16
525.142	15.31
525.34	15.43
525.539	15.65
525.737	15.82
525.936	15.9
526.135	16.1
526.333	16.22
526.532	16.17
526.73	16.19
526.929	16.4
527.127	16.48
527.326	16.63
527.524	16.74
527.723	16.81
527.921	16.85
528.12	16.85
528.318	16.92
528.516	16.97
528.715	17.08
528.913	17.11
529.112	17.13
529.31	17.1
529.508	17.08
529.707	17.11
529.905	17.08
530.103	17.05
530.301	17.12
530.5	17.11
530.698	17.16
530.896	17.25
531.094	17.37
531.293	17.45
531.491	17.62
531.689	17.82
531.887	17.89
532.085	18.11
532.283	18.16
532.481	18.27
532.68	18.27
532.878	18.34
533.076	18.46
533.274	18.43
533.472	18.55
533.67	18.64
533.868	18.63
534.066	18.67
534.264	18.6
534.462	18.7
534.66	18.8
534.858	18.97
535.056	19.05
535.253	19.07
535.451	19.21
535.649	19.09
535.847	19.13
536.045	19.15
536.243	19.2
536.441	19.25
536.638	19.3
536.836	19.29
537.034	19.25
537.232	19.32
537.43	19.39
537.627	19.47
537.825	19.71
538.023	19.72
538.22	19.89
538.418	19.98
538.616	20.09
538.813	20.36
539.011	20.43
539.209	20.63
539.406	20.65
539.604	20.69
539.801	20.79
539.999	20.76
540.196	20.9
540.394	20.82
540.591	20.83
540.789	20.9
540.986	20.77
541.184	20.73
541.381	20.77
541.579	20.85
541.776	20.87
541.974	20.82
542.171	20.95
542.368	20.95
542.566	21.06
542.763	21.16
542.96	21.19
543.158	21.32
543.355	21.45
543.552	21.57
543.75	21.62
543.947	21.73
544.144	21.92
544.341	21.91
544.539	21.97
544.736	22.04
544.933	22.06
545.13	22.16
545.327	22.36
545.524	22.45
545.722	22.37
545.919	22.39
546.116	22.46
546.313	22.4
546.51	22.41
546.707	22.59
546.904	22.67
547.101	22.73
547.298	22.81
547.495	22.77
547.692	22.69
547.889	22.76
548.086	22.82
548.283	22.81
548.48	22.99
548.677	23.17
548.874	23.03
549.07	23.03
549.267	23.03
549.464	23.04
549.661	23.01
549.858	23.39
550.055	23.5
550.251	23.49
550.448	23.5
550.645	23.47
550.842	23.3
551.038	23.46
551.235	23.69
551.432	24.02
551.628	24.1
551.825	24.28
552.022	24.17
552.218	24.2
552.415	24.39
552.612	24.51
552.808	24.58
553.005	24.93
553.201	25
553.398	24.83
553.594	24.74
553.791	24.76
553.987	24.71
554.184	24.79
554.38	24.79
554.577	24.89
554.773	25.07
554.97	25.21
555.166	25.06
555.362	25.18
555.559	25.4
555.755	25.25
555.952	25.32
556.148	25.53
556.344	25.74
556.541	25.68
556.737	25.69
556.933	25.57
557.129	25.5
557.326	25.56
557.522	25.5
557.718	25.53
557.914	25.68
558.11	25.94
558.307	25.94
558.503	25.82
558.699	26.07
558.895	26
559.091	26.2
559.287	26.24
559.483	26.22
559.679	26.27
559.876	26.56
560.072	26.81
560.268	26.7
560.464	26.87
560.66	26.91
560.856	26.81
561.052	26.93
561.247	26.92
561.443	27.07
561.639	27.27
561.835	27.41
562.031	27.11
562.227	26.97
562.423	26.9
562.619	26.6
562.815	26.56
563.01	26.81
563.206	27.04
563.402	27.13
563.598	27.37
563.793	27.33
563.989	27.14
564.185	27.36
564.381	27.56
564.576	27.68
564.772	27.9
564.968	27.99
565.163	27.94
565.359	27.62
565.555	27.54
565.75	27.17
565.946	27.26
566.141	27.46
566.337	27.42
566.532	27.34
566.728	27.22
566.923	27.29
567.119	27.5
567.314	27.58
567.51	27.63
567.705	27.85
567.901	27.87
568.096	27.8
568.292	27.66
568.487	27.54
568.682	27.67
568.878	27.92
569.073	27.83
569.268	27.81
569.464	27.69
569.659	27.82
569.854	27.62
570.05	27.88
570.245	27.95
570.44	28.2
570.635	28.39
570.831	28.46
571.026	28.41
571.221	28.55
571.416	28.43
571.611	28.4
571.806	28.52
572.002	28.51
572.197	28.33
572.392	28.29
572.587	28.18
572.782	28.24
572.977	28.28
573.172	28.24
573.367	28.28
573.562	28.33
573.757	28.39
573.952	28.28
574.147	28.3
574.342	28.67
574.537	28.75
574.732	28.79
574.927	28.72
575.121	28.69
575.316	28.83
575.511	28.86
575.706	28.89
575.901	28.92
576.096	28.92
576.29	28.99
576.485	28.82
576.68	28.82
576.875	28.88
577.069	28.8
577.264	28.71
577.459	28.72
577.654	28.65
577.848	28.64
578.043	28.85
578.238	29.16
578.432	29.25
578.627	29.29
578.821	29.6
579.016	29.76
579.21	30.02
579.405	30.16
579.6	30.3
579.794	30.23
579.989	30.22
580.183	30.09
580.378	29.9
580.572	29.72
580.766	29.83
580.961	29.93
581.155	29.8
581.35	29.66
581.544	29.76
581.738	29.66
581.933	29.98
582.127	30.1
582.321	29.97
582.516	29.85
582.71	30.03
582.904	29.81
583.099	29.37
583.293	29.37
583.487	29.4
583.681	29.04
583.875	28.98
584.07	28.83
584.264	28.92
584.458	28.89
584.652	29.08
584.846	28.87
585.04	28.96
585.234	29.07
585.428	28.97
585.623	29.31
585.817	29.54
586.011	29.41
586.205	29.5
586.399	29.63
586.593	29.96
586.787	29.93
586.981	30.23
587.174	30.32
587.368	30.5
587.562	31.03
587.756	30.9
587.95	30.94
588.144	31.16
588.338	31.05
588.532	31.04
588.725	31.05
588.919	31.26
589.113	31.22
589.307	31.26
589.501	31.21
589.694	30.96
589.888	31.03
590.082	31.15
590.275	31.12
590.469	31.27
590.663	31.08
590.856	31.29
591.05	31.14
591.244	31.23
591.437	31.22
591.631	31.36
591.824	31.31
592.018	31.37
592.212	31.18
592.405	31.24
592.599	31.19
592.792	31.39
592.986	31.29
593.179	31.47
593.372	31.81
593.566	31.88
593.759	31.75
593.953	31.72
594.146	31.75
594.339	31.79
594.533	31.86
594.726	31.98
594.92	31.72
595.113	31.56
595.306	31.48
595.499	31.18
595.693	31.11
595.886	31.22
596.079	31.37
596.272	31.34
596.466	31.43
596.659	31.39
596.852	31.46
597.045	31.61
597.238	31.73
597.431	31.58
597.624	31.81
597.818	31.99
598.011	31.87
598.204	31.96
598.397	31.73
598.59	31.66
598.783	31.81
598.976	31.69
599.169	31.58
599.362	31.64
599.555	32.16
599.748	31.89
599.941	31.95
600.134	32.21
600.326	32.01
600.519	32.51
600.712	32.63
600.905	32.66
601.098	32.62
601.291	32.69
601.483	32.53
601.676	32.23
601.869	32.41
602.062	32.3
602.255	32.19
602.447	32.22
602.64	32.32
602.833	32.38
603.025	32.27
603.218	32.39
603.411	32.59
603.603	32.66
603.796	32.68
603.989	32.75
604.181	32.93
604.374	33.06
604.566	33.01
604.759	32.98
604.951	32.91
605.144	33.07
605.336	33.03
605.529	32.98
605.721	32.96
605.914	33.05
606.106	32.84
606.299	32.93
606.491	32.88
606.683	32.99
606.876	32.84
607.068	32.66
607.26	32.5
607.453	32.44
607.645	32.38
607.837	32.57
608.03	32.38
608.222	32.66
608.414	32.41
608.606	32.35
608.799	32.38
608.991	32.56
609.183	32.79
609.375	32.72
609.567	32.73
609.759	32.75
609.952	32.68
610.144	32.84
610.336	32.75
610.528	32.72
610.72	32.75
610.912	32.63
611.104	32.41
611.296	32.24
611.488	32.44
611.68	32.55
611.872	32.72
612.064	32.71
612.256	32.56
612.448	32.58
612.64	32.72
612.832	32.39
613.023	32.39
613.215	32.34
613.407	32.7
613.599	32.68
613.791	32.69
613.983	32.79
614.174	33.01
614.366	33.16
614.558	32.99
614.75	32.75
614.941	33.3
615.133	33.25
615.325	33.5
615.516	33.58
615.708	33.47
615.9	33.51
616.091	33.27
616.283	33.13
616.475	33.22
616.666	33.43
616.858	33.47
617.049	33.56
617.241	33.73
617.432	33.51
617.624	33.34
617.815	33.48
618.007	33.57
618.198	33.79
618.39	33.52
618.581	33.53
618.773	33.27
618.964	33.12
619.155	32.84
619.347	32.99
619.538	33.24
619.729	33.23
619.921	33.19
620.112	33.31
620.303	32.92
620.494	32.92
620.686	32.86
620.877	33.25
621.068	33.74
621.259	33.88
621.451	33.91
621.642	33.89
621.833	34.09
622.024	34.33
622.215	34.07
622.406	34.37
622.597	34.78
622.788	34.58
622.98	34.63
623.171	34.31
623.362	34.31
623.553	33.96
623.744	33.97
623.935	33.53
624.126	33
624.317	32.97
624.508	32.89
624.698	32.48
624.889	32.68
625.08	32.36
625.271	32.5
625.462	32.34
625.653	32.51
625.844	32.55
626.034	33.01
626.225	33.42
626.416	33.52
626.607	33.37
626.798	33.53
626.988	33.66
627.179	33.83
627.37	33.94
627.56	34.04
627.751	34.07
627.942	33.76
628.132	33.7
628.323	33.6
628.514	33.59
628.704	33.78
628.895	33.69
629.085	33.72
629.276	33.75
629.466	33.58
629.657	33.8
629.847	34.01
630.038	34.25
630.228	34.04
630.419	33.84
630.609	33.83
630.8	33.62
630.99	33.99
631.181	33.71
631.371	33.94
631.561	34.08
631.752	34.03
631.942	33.91
632.132	33.89
632.323	33.94
632.513	34.47
632.703	34.42
632.893	34.75
633.084	34.62
633.274	34.81
633.464	34.42
633.654	34.52
633.844	34.43
634.034	34.37
634.225	34.4
634.415	34.37
634.605	34.1
634.795	34.4
634.985	34.25
635.175	34.41
635.365	34.43
635.555	34.65
635.745	34.65
635.935	34.62
636.125	34.53
636.315	34.4
636.505	34.39
636.695	34.58
636.885	34.43
637.075	34.93
637.265	34.8
637.455	34.81
637.644	35.02
637.834	34.7
638.024	34.41
638.214	34.65
638.404	35.02
638.593	35.3
638.783	35.05
638.973	34.98
639.163	34.59
639.352	34.2
639.542	33.88
639.732	33.56
639.921	33.91
640.111	34.47
640.301	34.35
640.49	34.4
640.68	34
640.87	33.95
641.059	34.08
641.249	33.82
641.438	33.79
641.628	34.22
641.817	34.5
642.007	34.29
642.196	34.08
642.386	33.88
642.575	33.99
642.764	34.14
642.954	34.59
643.143	34.51
643.333	34.96
643.522	35.6
643.711	35.4
643.901	35.26
644.09	35.41
644.279	35.48
644.469	35.59
644.658	34.96
644.847	35.09
645.036	35.14
645.226	34.97
645.415	34.69
645.604	34.6
645.793	34.47
645.982	34.45
646.171	34.58
646.361	34.56
646.55	34.84
646.739	35.35
646.928	35.63
647.117	35.09
647.306	35.38
647.495	35.56
647.684	35.61
647.873	35.76
648.062	35.93
648.251	35.75
648.44	35.46
648.629	35.63
648.818	35.34
649.007	34.98
649.196	35.35
649.384	35.36
649.573	35.47
649.762	35.32
649.951	35.33
650.14	35.11
650.328	35.11
650.517	35.24
650.706	34.92
650.895	35.33
651.083	35.39
651.272	35.34
651.461	34.89
651.65	34.55
651.838	34.44
652.027	34.43
652.216	34.42
652.404	34.52
652.593	34.8
652.781	34.93
652.97	34.71
653.158	34.82
653.347	34.97
653.535	35.16
653.724	35.33
653.912	35.43
654.101	35.49
654.289	35.91
654.478	36.16
654.666	35.9
654.855	36.21
655.043	36.35
655.231	35.99
655.42	36
655.608	36.24
655.796	36.42
655.985	36.34
656.173	36.51
656.361	36.25
656.55	35.9
656.738	36.07
656.926	36.05
657.114	35.54
657.302	36.12
657.491	35.95
657.679	36.16
657.867	36.1
658.055	36.3
658.243	35.87
658.431	35.74
658.619	35.93
658.807	35.81
658.996	35.52
659.184	35.83
659.372	35.59
659.56	35.65
659.748	35.56
659.936	35.35
660.124	35.25
660.311	35.41
660.499	35.35
660.687	35.14
660.875	35.35
661.063	35.48
661.251	35.57
661.439	35.81
661.627	35.72
661.814	35.61
662.002	36.26
662.19	36.11
662.378	35.86
662.565	35.8
662.753	36.32
662.941	36.19
663.129	35.86
663.316	35.93
663.504	35.75
663.692	35.65
663.879	35.38
664.067	34.89
664.254	34.79
664.442	35.62
664.63	36.1
664.817	35.83
665.005	35.59
665.192	36.19
665.38	35.97
665.567	36.24
665.755	36.44
665.942	36.31
666.13	36.62
666.317	37.03
666.504	36.76
666.692	36.7
666.879	36.47
667.067	36.92
667.254	36.68
667.441	36.75
667.629	36.31
667.816	36.46
668.003	37.21
668.19	37.03
668.378	37.29
668.565	37.45
668.752	37.12
668.939	37.3
669.127	37.02
669.314	37.3
669.501	37.05
669.688	37.49
669.875	37.35
670.062	36.99
670.249	36.77
670.436	36.52
670.623	36.36
670.81	36.66
670.997	36.65
671.184	36.55
671.371	36.08
671.558	36.18
671.745	35.8
671.932	35.66
672.119	35.44
672.306	35.35
672.493	35.08
672.68	34.62
672.867	34.7
673.054	34.47
673.24	34.64
673.427	35.39
673.614	35.64
673.801	36.13
673.988	37.05
674.174	37.48
674.361	37.7
674.548	37.64
674.734	37.96
674.921	38.02
675.108	37.95
675.294	37.9
675.481	37.21
675.668	37.34
675.854	37.03
676.041	36.27
676.227	35.75
676.414	35.43
676.601	35.79
676.787	36
676.974	36.04
677.16	36.35
677.347	36.76
677.533	37.46
677.719	37.24
677.906	37.36
678.092	37.47
678.279	37.84
678.465	38.15
678.651	38.44
678.838	38.2
679.024	37.55
679.21	37.29
679.397	37.42
679.583	36.96
679.769	37.32
679.955	36.8
680.142	36.19
680.328	36.04
680.514	35.93
680.7	35.89
680.886	35.93
681.073	36.06
681.259	36.09
681.445	35.39
681.631	35.21
681.817	35.13
682.003	35.7
682.189	36.31
682.375	36.3
682.561	36.43
682.747	35.98
682.933	35.89
683.119	35.93
683.305	36.29
683.491	36.78
683.677	36.95
683.863	36.67
684.049	36.34
684.235	36.59
684.42	37.27
684.606	37.27
684.792	37.54
684.978	37.85
685.164	38.01
685.349	37.82
685.535	37.28
685.721	37.62
685.907	37.01
686.092	36.81
686.278	36
686.464	35.67
686.649	35.87
686.835	35.71
687.021	35.63
687.206	35.64
687.392	35.71
687.577	36.24
687.763	36.12
687.948	36.88
688.134	37.16
688.319	36.98
688.505	37.16
688.69	37.54
688.876	37.47
689.061	37.5
689.247	37.56
689.432	37.51
689.618	37.06
689.803	36.78
689.988	37
690.174	37
690.359	37.24
690.544	36.81
690.73	36.3
690.915	36.74
691.1	36.61
691.285	36.95
691.471	37.39
691.656	37.83
691.841	37.74
692.026	37.05
692.211	37.15
692.396	36.94
692.582	37.03
692.767	36.7
692.952	36.17
693.137	36.61
693.322	36.12
693.507	35.58
693.692	35.29
693.877	35.78
694.062	36.06
694.247	35.79
694.432	36.21
694.617	35.91
694.802	36.43
694.987	36.45
695.172	35.78
695.357	36.31
695.541	36.61
695.726	37.76
695.911	37.87
696.096	38.26
696.281	38.04
696.466	38.22
696.65	38.69
696.835	38.58
697.02	38.62
697.204	38.72
697.389	38.6
697.574	38.91
697.759	38.3
697.943	37.84
698.128	37.79
698.312	38.15
698.497	38.01
698.682	37.85
698.866	37.69
699.051	37.92
699.235	37.87
699.42	37.61
699.604	37.24
699.789	36.89
699.973	37.03
700.158	36.96
700.342	36.88
700.527	37.02
700.711	37.13
700.895	37.45
701.08	37.32
701.264	37.56
701.448	37.59
701.633	37.32
701.817	37.61
702.001	37.86
702.186	38
702.37	38.32
702.554	38.48
702.738	38.1
702.923	37.22
703.107	37.41
703.291	37.34
703.475	37.61
703.659	38.16
703.843	38.25
704.027	38.57
704.212	38.32
704.396	38.35
704.58	38
704.764	38.14
704.948	38.14
705.132	37.38
705.316	37.31
705.5	36.89
705.684	36.74
705.868	37.1
706.052	36.31
706.235	35.98
706.419	35.95
706.603	36.25
706.787	36.28
706.971	36.77
707.155	37.38
707.339	37.32
707.522	37.86
707.706	37.92
707.89	37.75
708.074	37.41
708.257	37.69
708.441	37.73
708.625	37.74
708.808	37.83
708.992	38.14
709.176	38.78
709.359	38.77
709.543	38.75
709.727	38.01
709.91	38.52
710.094	39.66
710.277	40.14
710.461	40.77
710.644	40.98
710.828	41.43
711.011	41.57
711.195	40.96
711.378	41.39
711.562	41.18
711.745	41.89
711.928	41
712.112	40.4
712.295	39.75
712.478	38.07
712.662	37.64
712.845	36.97
713.028	36.79
713.212	36.92
713.395	35.8
713.578	35.96
713.761	35.53
713.945	36.08
714.128	36.02
714.311	36.6
714.494	37.52
714.677	37.5
714.86	38.32
715.043	38.15
715.227	38.71
715.41	39.14
715.593	38.59
715.776	38.31
715.959	37.79
716.142	37.99
716.325	37.04
716.508	36.78
716.691	36.86
716.874	36.18
717.057	35.62
717.239	34.9
717.422	34.57
717.605	34.58
717.788	34.15
717.971	34.25
718.154	34.22
718.337	34.12
718.519	34.5
718.702	34.14
718.885	34.88
719.068	35.33
719.25	35.28
719.433	36.3
719.616	36.63
719.798	38.39
719.981	37.68
720.164	37.58
720.346	38.86
720.529	38.55
720.712	38.34
720.894	37.99
721.077	38.29
721.259	38.32
721.442	37.58
721.624	38.19
721.807	37.92
721.989	38.68
722.172	38.42
722.354	37.89
722.537	38.18
722.719	38.96
722.901	38.55
723.084	37.86
723.266	37.58
723.448	38.1
723.631	37.38
723.813	37.45
723.995	38.16
724.178	38.36
724.36	39.25
724.542	40.38
724.724	40.35
724.907	40.58
725.089	40.5
725.271	41.37
725.453	40.62
725.635	41.01
725.817	39.62
725.999	39.29
726.181	39.11
726.364	38.99
726.546	38.06
726.728	38.56
726.91	38.46
727.092	38.79
727.274	38.2
727.456	38.87
727.638	38.86
727.819	40.28
728.001	39.41
728.183	39.26
728.365	38.41
728.547	38.24
728.729	38.12
728.911	38.66
729.093	39.21
729.274	39.5
729.456	39.29
729.638	39.57
729.82	39.03
730.001	39.58
730.183	39.84
730.365	41.03
730.546	41.11
730.728	41.68
730.91	40.87
731.091	40.48
731.273	40.54
731.455	40.56
731.636	40.29
731.818	40.23
731.999	40.57
732.181	39.78
732.362	38.84
732.544	38.8
732.725	38.96
732.907	39.46
733.088	40.18
733.27	40.13
733.451	40.09
733.633	40.42
733.814	40.46
733.995	40.23
734.177	40.88
734.358	40.42
734.539	40.75
734.721	39.85
734.902	39.36
735.083	38.31
735.264	37.95
735.446	38.17
735.627	37.07
735.808	37.39
735.989	37.05
736.17	37.17
736.351	38.21
736.533	37.74
736.714	38.08
736.895	38.82
737.076	39.91
737.257	40.81
737.438	41.57
737.619	42.03
737.8	41.24
737.981	41.35
738.162	41.7
738.343	41.82
738.524	41.44
738.705	41.42
738.886	41.15
739.067	40.88
739.247	39.78
739.428	39.56
739.609	40.04
739.79	41.57
739.971	41.66
740.151	42.26
740.332	41.32
740.513	41.45
740.694	40.52
740.874	40.88
741.055	40.2
741.236	41.5
741.417	40.19
741.597	40.23
741.778	39.44
741.958	40.02
742.139	38.91
742.32	39.8
742.5	39.34
742.681	39.56
742.861	39.38
743.042	39.51
743.222	37.78
743.403	38.1
743.583	38.14
743.764	37.36
743.944	36.61
744.124	37.9
744.305	36.85
744.485	36.83
744.666	36.76
744.846	36.41
745.026	36.78
745.207	38.61
745.387	37.93
745.567	38.18
745.747	38.85
745.928	40.67
746.108	39.71
746.288	40.44
746.468	41.58
746.648	42.14
746.829	42.14
747.009	41.9
747.189	40.99
747.369	41.87
747.549	40.94
747.729	41.08
747.909	39.86
748.089	39.2
748.269	39.68
748.449	39.05
748.629	39.04
748.809	38.62
748.989	38.2
749.169	38.44
749.349	38.73
749.529	38.36
749.709	37.78
749.889	37.83
750.068	38.79
750.248	38.58
750.428	39.09
750.608	38.94
750.788	39.68
750.967	39.83
751.147	39.91
751.327	38.93
751.507	40.12
751.686	41.2
751.866	41.39
752.046	40.56
752.225	40.76
752.405	40.47
752.585	41.17
752.764	41.78
752.944	41.73
753.123	42.3
753.303	44.25
753.482	43.96
753.662	43.21
753.841	43.3
754.021	43.5
754.2	42.13
754.38	41.92
754.559	41.27
754.739	39.36
754.918	39.62
755.097	39.85
755.277	39.02
755.456	39.44
755.635	38.47
755.815	37.69
755.994	37.97
756.173	38.02
756.352	38.26
756.532	37.51
756.711	38.01
756.89	38.04
757.069	36.74
757.248	36.78
757.427	35.36
757.607	37.9
757.786	39.06
757.965	40.06
758.144	41.43
758.323	41.62
758.502	42.27
758.681	43.48
758.86	44.24
759.039	43.92
759.218	43.61
759.397	44.27
759.576	42.79
759.755	42.39
759.934	42.4
760.113	42.07
760.291	41.82
760.47	42.41
760.649	41.32
760.828	40.57
761.007	41.57
761.186	41.26
761.364	40.98
761.543	40.78
761.722	40
761.901	38.79
762.079	38.56
762.258	39.59
762.437	38.69
762.615	38.45
762.794	38.7
762.972	38.56
763.151	38.75
763.33	39
763.508	39.49
763.687	39.61
763.865	40.09
764.044	40.33
764.222	39.73
764.401	40.66
764.579	41.86
764.758	41.72
764.936	40.62
765.114	40.72
765.293	39.96
765.471	40.21
765.65	40.77
765.828	40.38
766.006	39.78
766.184	39.44
766.363	38
766.541	37.07
766.719	37.62
766.898	39.3
767.076	39.92
767.254	41.19
767.432	40.31
767.61	39.9
767.788	40.47
767.967	39.94
768.145	40.12
768.323	39.76
768.501	40.65
768.679	39.59
768.857	38.4
769.035	37.16
769.213	35.65
769.391	35.95
769.569	34.78
769.747	35.45
769.925	36.09
770.103	35.63
770.281	36.55
770.459	35.78
770.636	36.64
770.814	36.93
770.992	37.72
771.17	39.84
771.348	39.36
771.525	40.68
771.703	39.62
771.881	40.68
772.059	42.57
772.236	42.71
772.414	44.11
772.592	42.2
772.769	42.05
772.947	41.51
773.125	40.21
773.302	40.52
773.48	41.58
773.657	41.53
773.835	39.83
774.013	39.55
774.19	41.02
774.368	39.37
774.545	41.26
774.723	42.13
774.9	42.24
775.077	42.95
775.255	43.67
775.432	42.01
775.61	44.39
775.787	45.97
775.964	44.77
776.142	41.82
776.319	42.06
776.496	39.36
776.674	40.12
776.851	39.38
777.028	38.31
777.205	38.06
777.382	39.18
777.56	36.94
777.737	37.06
777.914	36.31
778.091	39.06
778.268	39.39
778.445	42.34
778.622	40.94
778.8	42.25
778.977	41.94
779.154	40.31
779.331	40.55
779.508	40.01
779.685	39.35
779.862	40.78
780.038	40.59
780.215	40.19
780.392	38.55
780.569	37.29
780.746	38.03
780.923	38.84
781.1	40.76
781.277	39.66
781.453	39.46
781.63	40.15
781.807	41.1
781.984	38.91
782.16	40.6
782.337	42.05
782.514	45.16
782.691	44.66
782.867	45.05
783.044	43.54
783.221	44.59
783.397	43.27
783.574	41.42
783.75	40.35
783.927	42
784.103	38.59
784.28	38.54
784.456	35.88
784.633	36.11
784.809	35.73
784.986	36.4
785.162	34.68
785.339	35.72
785.515	36.25
785.692	36.1
785.868	36.05
786.044	38.3
786.221	37.91
786.397	39.29
786.573	38.64
786.749	38.34
786.926	37
787.102	40.57
787.278	38.35
787.454	39.9
787.631	39.52
787.807	39.41
787.983	40.69
788.159	41.43
788.335	41.98
788.511	41.55
788.687	40.65
788.863	44.04
789.039	41.44
789.216	43.8
789.392	42.82
789.568	43
789.744	43.01
789.919	40.84
790.095	40.75
790.271	39.7
790.447	39.22
790.623	40.53
790.799	37.69
790.975	38.66
791.151	40.45
791.327	41.18
791.502	41.63
791.678	42.73
791.854	43.27
792.03	42.79
792.205	43.32
792.381	43.29
792.557	44.57
792.733	46
792.908	44.74
793.084	43.7
793.259	44.22
793.435	43.8
793.611	44.97
793.786	46.73
793.962	44.67
794.137	42.7
794.313	42.22
794.488	42.04
794.664	41.1
794.839	43.73
795.015	42.22
795.19	41.9
795.366	41.63
795.541	40.6
795.716	40.08
795.892	42.16
796.067	43.14
796.242	43.23
796.418	41.52
796.593	44.01
796.768	41.93
796.944	43.21
797.119	42.16
797.294	40.91
797.469	38.67
797.644	37.48
797.82	36.08
797.995	36.33
798.17	38.29
798.345	38.67
798.52	36.18
798.695	38.69
798.87	36.59
799.045	37.01
799.22	40.17
799.395	43.12
799.57	42.01
799.745	44.4
799.92	45.18
800.095	43.03
800.27	44.99
800.445	44.92
800.62	41.62
800.795	43.61
800.97	45.47
801.145	43.56
801.319	42.07
801.494	43.17
801.669	41.21
801.844	41.74
802.018	42.55
802.193	42.05
802.368	43.46
802.543	44.26
802.717	43.55
802.892	42.65
803.067	46.03
803.241	48.68
803.416	48.59
803.59	48.99
803.765	46.83
803.94	45.98
804.114	42.9
804.289	42.91
804.463	42.65
804.638	43.21
804.812	44.1
804.986	42.46
805.161	38.39
805.335	38.47
805.51	39.13
805.684	41.57
805.858	42.73
806.033	44.61
806.207	45.64
806.381	47.22
806.556	43.96
806.73	41.77
806.904	41.09
807.078	43.5
807.253	43.31
807.427	42.42
807.601	42.67
807.775	42.29
807.949	42.97
808.123	41.76
808.298	38.88
808.472	43.07
808.646	43.37
808.82	44.32
808.994	43.96
809.168	46.1
809.342	49.39
809.516	49.02
809.69	49.34
809.864	50.85
810.038	48.01
810.212	50.74
810.385	49.57
810.559	46.91
810.733	44.52
810.907	42.74
811.081	40.8
811.255	37.51
811.428	36.68
811.602	37.82
811.776	34.98
811.95	36.15
812.123	34.97
812.297	31.11
812.471	37.96
812.644	37.66
812.818	41.1
812.992	42.58
813.165	43.85
813.339	40.61
813.512	41.51
813.686	42.68
813.86	45.78
814.033	46.23
814.207	49.55
814.38	48.1
814.554	50.23
814.727	49.72
814.9	50.99
815.074	52.18
815.247	54.96
815.421	53.68
815.594	51.4
815.767	50.55
815.941	48.79
816.114	49.31
816.287	46.38
816.46	43.57
816.634	40.98
816.807	38.2
816.98	37.39
817.153	37.39
817.327	37.81
817.5	37.87
817.673	36.83
817.846	37.41
818.019	35.23
818.192	37.2
818.365	38.29
818.538	40.3
818.711	42.35
818.884	42.35
819.057	40.24
819.23	42.05
819.403	46.52
819.576	46.08
819.749	47.69
819.922	49.48
820.095	49.91
820.268	49.49
820.441	48.58
820.614	47.22
820.786	47.31
820.959	47.12
821.132	45.46
821.305	43.58
821.477	45.18
821.65	44.45
821.823	44.02
821.996	44.2
822.168	43.61
822.341	42.76
822.514	42.51
822.686	42.46
822.859	42.1
823.031	42.11
823.204	42.52
823.376	41.84
823.549	41.88
823.722	41.2
823.894	39.87
824.067	40.64
824.239	41.14
824.411	40.95
824.584	40.74
824.756	41.2
824.929	41.72
825.101	40.92
825.273	40.15
825.446	40.04
825.618	41
825.79	41.94
825.963	41.33
826.135	40.74
826.307	40.66
826.479	40.51
826.652	40.48
826.824	39.88
826.996	39.78
827.168	40.97
827.34	41.26
827.512	40.4
827.684	40.46
827.856	40.63
828.029	41.88
828.201	42.46
828.373	42.5
828.545	42.2
828.717	41.84
828.889	42.69
829.061	43.37
829.232	43.19
829.404	43.65
829.576	43.39
829.748	41.59
829.92	41.79
830.092	42.01
830.264	42.56
830.436	42.45
830.607	43.83
830.779	43.85
830.951	44.11
831.123	43.14
831.294	45.73
831.466	45.94
831.638	49.13
831.809	48.04
831.981	48.46
832.153	48.92
832.324	51.69
832.496	51.81
832.667	53.13
832.839	49.82
833.011	51.95
833.182	49.8
833.354	49.99
833.525	48.68
833.697	48.87
833.868	47.36
834.039	45.86
834.211	45.2
834.382	43.38
834.554	42.26
834.725	43.68
834.896	41.96
835.068	42.01
835.239	43.42
835.41	43.29
835.581	42.49
835.753	42.92
835.924	43.46
836.095	42.37
836.266	43.41
836.438	42.16
836.609	42.76
836.78	44.64
836.951	45.15
837.122	43.91
837.293	45.57
837.464	46.89
837.635	46.56
837.806	47.73
837.977	47.76
838.148	44.88
838.319	48.06
838.49	46.79
838.661	46.28
838.832	45.04
839.003	47.52
839.174	47.56
839.345	43.16
839.516	41.94
839.687	40.37
839.857	40.64
840.028	44.51
840.199	45.36
840.37	47.22
840.54	47.71
840.711	47.89
840.882	44.7
841.053	43.47
841.223	47.68
841.394	50.32
841.564	51.06
841.735	49.54
841.906	47.82
842.076	43.41
842.247	41.36
842.417	37.73
842.588	39.25
842.758	39.09
842.929	36.15
843.099	34.32
843.27	31.26
843.44	34.26
843.611	38.25
843.781	37.97
843.951	39.98
844.122	44.46
844.292	47.61
844.462	50.46
844.633	53.94
844.803	54.31
844.973	52.97
845.144	57.29
845.314	48.48
845.484	46.08
845.654	53.9
845.824	52.75
845.995	47.88
846.165	46.89
846.335	41.3
846.505	37.65
846.675	38.41
846.845	41.61
847.015	43.87
847.185	45.24
847.355	53.98
847.525	44.68
847.695	41.54
847.865	39.4
848.035	41.67
848.205	39.8
848.375	42.32
848.545	50.61
848.715	51.67
848.884	48.11
849.054	54.9
849.224	50.25
849.394	52.42
849.564	53.5
849.733	56.1
849.903	58.27
850.073	63.37
850.243	53.06
850.412	45.29
850.582	41.71
850.752	38.25
850.921	38.41
851.091	37.47
851.26	32.52
851.43	31.15
851.599	31.64
851.769	30.27
851.939	32.4
852.108	39.4
852.278	39.61
852.447	42.94
852.616	47.43
852.786	46.95
852.955	43.31
853.125	50.89
853.294	53.52
853.463	50.91
853.633	44.13
853.802	42.31
853.971	46.49
854.141	43.65
854.31	41.59
854.479	37.83
854.648	31.66
854.818	41.35
854.987	38.75
855.156	39.27
855.325	43.01
855.494	43.37
855.663	45.24
855.832	38.74
856.001	45.61
856.171	48.2
856.34	43.18
856.509	45.92
856.678	42.95
856.847	47.21
857.016	51.51
857.185	47.66
857.353	51.76
857.522	53.91
857.691	48.78
857.86	45.37
858.029	45.59
858.198	57.62
858.367	65.3
858.535	61.89
858.704	66.91
858.873	60.43
859.042	60.61
859.21	65.96
859.379	57.71
859.548	67.38
859.717	59.47
859.885	56.59
860.054	58.42
860.222	53.18
860.391	59.47
860.56	56.28
860.728	53.88
860.897	58.64
861.065	55.39
861.234	61.16
861.402	63.11
861.571	72.26
861.739	75.2
861.908	76.43
862.076	72.08
862.244	74.48
862.413	72.56
862.581	74.06
862.749	66.11
862.918	61.61
863.086	53.6
863.254	54.55
863.423	56.62
863.591	54.9
863.759	54.42
863.927	55.4
864.096	58.8
864.264	54.37
864.432	54.97
864.6	64.41
864.768	62.99
864.936	55.11
865.104	49.11
865.272	40.8
865.44	31.28
865.608	27.74
865.776	31.3
865.944	18.18
866.112	22.92
866.28	21.67
866.448	17.69
866.616	25.39
866.784	34.58
866.952	40.19
867.12	31.67
867.288	35.87
867.455	39.38
867.623	42.04
867.791	46.16
867.959	52.53
868.127	52.11
868.294	50.91
868.462	51.58
868.63	54.32
868.797	47.66
868.965	56.95
869.133	63.64
869.3	62.68
869.468	62.06
869.636	63.37
869.803	56.85
869.971	65.09
870.138	64.11
870.306	61.44
870.473	64.3
870.641	66.84
870.808	62
870.975	54.52
871.143	53.32
871.31	52.26
871.478	51.49
871.645	45.21
871.812	45.26
871.98	57.4
872.147	67.46
872.314	59.68
872.482	53.81
872.649	54.84
872.816	68.45
872.983	74.51
873.15	69.3
873.318	59.15
873.485	61.85
873.652	51.77
873.819	43.93
873.986	45.04
874.153	44.2
874.32	51.45
874.487	55.43
874.654	46.25
874.821	45.08
874.988	46.32
875.155	50.4
875.322	48.98
875.489	53.34
875.656	54.04
875.823	41.86
875.99	43.17
876.157	36.87
876.324	39.37
876.49	43.67
876.657	37.73
876.824	33.92
876.991	31.84
877.157	33.33
877.324	9.15
877.491	15.76
877.658	30.15
877.824	12.41
877.991	23.48
878.157	22.43
878.324	20.52
878.491	26.91
878.657	30.96
878.824	31.64
878.99	33.13
879.157	51.9
879.323	45.09
879.49	45.47
879.656	58.17
879.823	52.09
879.989	50.38
880.156	48.37
880.322	43.5
880.488	40.04
880.655	42.54
880.821	42.71
880.987	37.05
881.154	43.37
881.32	51.21
881.486	53.51
881.652	54.92
881.819	53.23
881.985	51.17
882.151	52.31
882.317	53.48
882.483	52.58
882.649	50.64
882.816	51.85
882.982	48.35
883.148	42.27
883.314	41.56
883.48	39.08
883.646	38.97
883.812	40.14
883.978	40.11
884.144	41.29
884.31	42.25
884.476	43.83
884.642	42.96
884.807	43.84
884.973	45.42
885.139	45.78
885.305	48.12
885.471	47.19
885.637	46.7
885.802	49.79
885.968	50.21
886.134	48.36
886.3	48.37
886.465	49.31
886.631	51.66
886.797	53.17
886.962	53.72
887.128	53.72
887.293	58.25
887.459	63.08
887.625	57.73
887.79	54.53
887.956	56.79
888.121	57.4
888.287	58.3
888.452	56.61
888.618	55.4
888.783	52.43
