Data from CB_077_Reflection_3.txt Node
Date: Sat Nov 14 11:37:21 EST 2015
User: robert
Spectrometer: USB4E03001
Autoset integration time: false
Trigger mode: 4
Integration Time (sec): 1.000000E-1
Scans to average: 15
Electric dark correction enabled: true
Nonlinearity correction enabled: false
Boxcar width: 5
Stray light correction enabled: false
XAxis mode: Wavelengths
Stop averaging: false
Number of Pixels in Spectrum: 3648
>>>>>Begin Spectral Data<<<<<
177.566	-319
177.785	-533.5
178.005	-1848.32
178.225	-351.22
178.445	-361.56
178.665	-544.29
178.885	24.34
179.105	-170.93
179.324	-235.84
179.544	-440.84
179.764	-139.11
179.984	-196.79
180.204	-227.97
180.423	-717.21
180.643	-413.26
180.863	-644.79
181.083	-2821.93
181.302	-12662.7
181.522	1486.49
181.742	1740.68
181.961	2274.71
182.181	355.9
182.401	293.95
182.621	511.5
182.84	2106.85
183.06	-7228.47
183.279	-1028.51
183.499	-608.34
183.719	-769.22
183.938	-501.85
184.158	-409.67
184.377	-307.07
184.597	-140.64
184.816	-72.51
185.036	-125.58
185.256	-201.62
185.475	-455.79
185.695	-309.74
185.914	-319.13
186.134	-332.65
186.353	-333.48
186.572	-184.54
186.792	-612.03
187.011	4218.49
187.231	-2694.16
187.45	-522.08
187.67	-1822.29
187.889	708.66
188.108	382.77
188.328	282.61
188.547	194.42
188.766	169.19
188.986	178.48
189.205	194.93
189.424	223.55
189.644	191.5
189.863	234.32
190.082	278.99
190.302	400.02
190.521	285.85
190.74	338.59
190.959	1276.75
191.178	924.74
191.398	732.25
191.617	1853.09
191.836	6788.71
192.055	1339.2
192.274	433.58
192.494	636.69
192.713	22223.21
192.932	-2202.04
193.151	436575
193.37	565.1
193.589	-16155.75
193.808	-1401.67
194.027	-2448.19
194.246	4878.38
194.465	-3163.73
194.685	717.37
194.904	730.71
195.123	527.92
195.342	519.33
195.561	407.48
195.78	1273.56
195.999	3062.21
196.218	1331.04
196.436	774.92
196.655	447.78
196.874	301.14
197.093	572.27
197.312	456.45
197.531	841.18
197.75	940.38
197.969	2552.45
198.188	482.55
198.407	280.48
198.625	279.74
198.844	342.36
199.063	337.13
199.282	723.84
199.501	-2535.55
199.719	-778.73
199.938	321.53
200.157	230.26
200.376	-2079.64
200.594	-88.97
200.813	-386.64
201.032	-1368.3
201.251	-704.61
201.469	-956.69
201.688	-1756.84
201.907	3961.67
202.125	1298.39
202.344	4995.74
202.563	26476.81
202.781	1318.51
203	460.93
203.218	372.24
203.437	555.62
203.656	379.87
203.874	935.38
204.093	859.49
204.311	520.25
204.53	1625.09
204.748	433.08
204.967	657.46
205.185	509.31
205.404	536.23
205.622	756.28
205.841	437.76
206.059	362.52
206.278	297.22
206.496	385.04
206.715	528.74
206.933	409.13
207.151	491.9
207.37	309.52
207.588	327.46
207.806	388.96
208.025	512.28
208.243	618.92
208.461	-49359.09
208.68	1288.52
208.898	673.31
209.116	445.76
209.335	330.7
209.553	309.34
209.771	253.08
209.989	254.32
210.208	226.36
210.426	188.54
210.644	182.09
210.862	159.12
211.081	186.53
211.299	160.07
211.517	183.78
211.735	147
211.953	136.12
212.171	166.39
212.39	184.5
212.608	195.24
212.826	194.49
213.044	184.48
213.262	208.17
213.48	182.96
213.698	272.84
213.916	160.29
214.134	280.53
214.352	511.02
214.57	264.26
214.788	200.49
215.006	169.02
215.224	358.46
215.442	925.27
215.66	1424.12
215.878	457.4
216.096	180.21
216.314	568.03
216.532	2825.38
216.75	-818.84
216.968	-1402.29
217.185	-12888.5
217.403	2938.06
217.621	-168611.11
217.839	-1079.85
218.057	-38195.83
218.275	-1319.56
218.492	-269.48
218.71	-4943.16
218.928	2653.1
219.146	1460.81
219.363	725.44
219.581	701.99
219.799	-3099.38
220.017	346.86
220.234	379.61
220.452	430.08
220.67	673.41
220.887	268.88
221.105	473.21
221.323	296.46
221.54	192.24
221.758	185.34
221.976	180.91
222.193	137.18
222.411	141.23
222.629	137.62
222.846	112.93
223.064	99.82
223.281	93.69
223.499	81.45
223.716	63.37
223.934	70.56
224.151	66.95
224.369	73.8
224.586	87.33
224.804	101.6
225.021	115.59
225.239	112.26
225.456	109
225.674	114.87
225.891	113.07
226.108	106.06
226.326	95.91
226.543	105.45
226.76	84.41
226.978	75.46
227.195	77.05
227.413	62.66
227.63	67.05
227.847	63.97
228.064	56.16
228.282	50.55
228.499	49.95
228.716	46.25
228.934	43.31
229.151	41.67
229.368	32.69
229.585	29.07
229.802	31.45
230.02	28.7
230.237	28.81
230.454	30.33
230.671	31.53
230.888	33.54
231.105	38.04
231.323	37.95
231.54	44.4
231.757	54.54
231.974	59.59
232.191	63.28
232.408	58.57
232.625	62.1
232.842	56.56
233.059	57.9
233.276	46.22
233.493	40.81
233.71	42.51
233.927	40.9
234.144	43.34
234.361	45.89
234.578	38.06
234.795	40.98
235.012	37.15
235.229	37.97
235.446	37.23
235.663	42.13
235.879	45.31
236.096	48.46
236.313	50.76
236.53	44
236.747	43.07
236.964	49.2
237.181	51.76
237.397	51.17
237.614	60.96
237.831	67.66
238.048	73.78
238.264	73.58
238.481	66.66
238.698	63.64
238.915	65.11
239.131	55.26
239.348	51.58
239.565	50.89
239.781	49.3
239.998	39.09
240.215	29.4
240.431	26.08
240.648	24.53
240.865	23.4
241.081	23.79
241.298	20.56
241.514	22.04
241.731	20.87
241.947	19.85
242.164	19.3
242.38	17.61
242.597	18
242.814	19.34
243.03	20.49
243.246	21.56
243.463	19.98
243.679	21.82
243.896	21.47
244.112	20.93
244.329	22.56
244.545	24.82
244.762	25.57
244.978	25.69
245.194	20.94
245.411	19.09
245.627	19.36
245.843	21.91
246.06	20.59
246.276	19.96
246.492	21.29
246.709	20.29
246.925	19.45
247.141	19.68
247.357	19.32
247.574	20.45
247.79	19.98
248.006	19.36
248.222	18.19
248.439	17.72
248.655	17.83
248.871	17.71
249.087	17.25
249.303	18.31
249.519	19.61
249.736	21.02
249.952	20.59
250.168	24.37
250.384	24.04
250.6	24.34
250.816	26.56
251.032	24.89
251.248	23.66
251.464	23.34
251.68	20.35
251.896	18.05
252.112	17.22
252.328	17.91
252.544	17.65
252.76	16.33
252.976	15.65
253.192	14.21
253.408	16.45
253.624	17.5
253.84	19.23
254.056	20.67
254.272	21.55
254.487	20.71
254.703	19.56
254.919	17.44
255.135	20.11
255.351	23.89
255.567	24.14
255.782	22.63
255.998	22.83
256.214	19.18
256.43	16.67
256.646	17.2
256.861	18.88
257.077	19.75
257.293	17.68
257.508	18.51
257.724	19
257.94	17.96
258.155	17.67
258.371	15.48
258.587	15.83
258.802	15.83
259.018	14.88
259.234	15.17
259.449	14.43
259.665	15.09
259.88	14.28
260.096	13.76
260.312	13.78
260.527	13.14
260.743	13.93
260.958	13.82
261.174	14.67
261.389	15.77
261.605	14.84
261.82	14.24
262.036	13.34
262.251	13.91
262.466	13.81
262.682	14.44
262.897	16.18
263.113	15.01
263.328	14.75
263.543	15.11
263.759	14.24
263.974	14.03
264.189	13.53
264.405	14.2
264.62	14.43
264.835	12.47
265.051	14.31
265.266	12.48
265.481	13.1
265.696	17.95
265.912	15.89
266.127	14.97
266.342	15.09
266.557	17.09
266.773	17.68
266.988	16.63
267.203	18.61
267.418	16.17
267.633	15.96
267.848	16.4
268.064	13.48
268.279	14.61
268.494	13.9
268.709	14.78
268.924	14.18
269.139	12.23
269.354	13.94
269.569	12.81
269.784	13.35
269.999	15.23
270.214	14.99
270.429	15.43
270.644	15.6
270.859	15.62
271.074	14.45
271.289	15.73
271.504	16.34
271.719	15.03
271.934	15.01
272.149	14.76
272.363	14.57
272.578	14.38
272.793	13.64
273.008	12.32
273.223	11.61
273.438	11.88
273.653	11.45
273.867	10.91
274.082	11.4
274.297	10.99
274.512	12.76
274.726	13.04
274.941	10.82
275.156	13.2
275.371	13.9
275.585	16.67
275.8	18.26
276.015	15.66
276.229	17.34
276.444	17.82
276.659	18.61
276.873	17.29
277.088	18.89
277.302	21.95
277.517	19.84
277.732	19.92
277.946	17.75
278.161	17.62
278.375	19.51
278.59	18.56
278.804	17.93
279.019	19.27
279.233	17.41
279.448	13.67
279.662	12.4
279.877	12.64
280.091	9.87
280.306	10.12
280.52	6.69
280.735	6.32
280.949	7.14
281.163	7.63
281.378	4.4
281.592	7.07
281.806	8.52
282.021	8.23
282.235	8.78
282.449	11.63
282.664	12.11
282.878	14.42
283.092	14.35
283.307	13.8
283.521	13.27
283.735	15.72
283.949	15.67
284.164	15.09
284.378	15.13
284.592	14.15
284.806	13.96
285.02	14.77
285.234	12.41
285.449	13.01
285.663	12.92
285.877	12.56
286.091	10.87
286.305	10.9
286.519	11.77
286.733	12.22
286.947	13.55
287.161	12.34
287.375	10.42
287.589	13.04
287.803	13.17
288.017	13.02
288.231	12.76
288.445	13.85
288.659	13.23
288.873	13.7
289.087	14.89
289.301	14.23
289.515	15.03
289.729	16.65
289.943	16.67
290.157	17.05
290.371	18.41
290.584	18.86
290.798	19.98
291.012	19.56
291.226	19.07
291.44	18.72
291.654	18.23
291.867	18.14
292.081	18.67
292.295	18.74
292.509	18.21
292.722	16.6
292.936	15.59
293.15	14.77
293.364	13.8
293.577	14.15
293.791	14.53
294.005	13.87
294.218	14.6
294.432	13.38
294.645	13.34
294.859	13.31
295.073	13.95
295.286	14.55
295.5	14.78
295.713	14.35
295.927	13.29
296.14	11.07
296.354	11.12
296.568	10
296.781	9.56
296.994	9.68
297.208	9.27
297.421	8.75
297.635	9.81
297.848	7.9
298.062	8.54
298.275	8.99
298.489	10.19
298.702	11.67
298.915	12.29
299.129	13.17
299.342	12.57
299.555	13.56
299.769	14.74
299.982	14.44
300.195	16.33
300.409	16.53
300.622	16.61
300.835	16.29
301.048	14.89
301.262	14.69
301.475	15.76
301.688	15.77
301.901	15.8
302.115	15.22
302.328	13.94
302.541	14.48
302.754	16.41
302.967	17.43
303.18	18.09
303.393	17.9
303.607	17.6
303.82	17.95
304.033	18.1
304.246	18.17
304.459	17.52
304.672	19.3
304.885	19.59
305.098	18.5
305.311	17.3
305.524	17.18
305.737	18.22
305.95	19.22
306.163	18.42
306.376	18.5
306.589	17.89
306.802	18.23
307.015	16.96
307.228	16.92
307.44	16.23
307.653	16.89
307.866	17.12
308.079	17.02
308.292	16.36
308.505	16.55
308.718	16.67
308.93	17.88
309.143	18.86
309.356	19.36
309.569	18.53
309.781	18.88
309.994	19.17
310.207	18.58
310.42	18.28
310.632	18.36
310.845	17.28
311.058	16.86
311.27	15.94
311.483	15.66
311.696	15.66
311.908	16.06
312.121	16.36
312.333	17.44
312.546	17.53
312.759	17.21
312.971	16.87
313.184	18.75
313.396	19.81
313.609	20.05
313.821	20.1
314.034	20.25
314.246	19.7
314.459	20.07
314.671	18.29
314.884	18.99
315.096	20.41
315.309	21.95
315.521	21.3
315.733	20.16
315.946	20.73
316.158	20.5
316.371	21.17
316.583	21.27
316.795	20.27
317.008	21.53
317.22	21.42
317.432	21.89
317.644	21.64
317.857	21.64
318.069	22.99
318.281	22.7
318.494	23.07
318.706	23.94
318.918	24.16
319.13	23.22
319.342	21.21
319.555	21.16
319.767	21.06
319.979	19.43
320.191	19.02
320.403	19.8
320.615	21.25
320.827	22.17
321.039	20.63
321.252	22.78
321.464	25.27
321.676	25.48
321.888	26.06
322.1	24.34
322.312	25.73
322.524	26.42
322.736	24.17
322.948	23.43
323.16	22.44
323.372	24.13
323.584	22.94
323.796	21.71
324.007	22.53
324.219	22.68
324.431	25.06
324.643	25.7
324.855	26.18
325.067	26.63
325.279	25.7
325.491	26.42
325.702	25.54
325.914	25.86
326.126	27.28
326.338	25.66
326.55	26.05
326.761	24.75
326.973	24.4
327.185	23.91
327.396	25.42
327.608	26.31
327.82	25.4
328.032	27.32
328.243	27.54
328.455	27.77
328.666	30.42
328.878	29.72
329.09	30.8
329.301	31.17
329.513	31.08
329.725	31.2
329.936	31.03
330.148	32.35
330.359	31.99
330.571	32.24
330.782	31.8
330.994	31.42
331.205	32.06
331.417	31.06
331.628	31.18
331.84	33.14
332.051	33.18
332.262	34.34
332.474	32.98
332.685	33.44
332.897	33.06
333.108	34.08
333.319	34.03
333.531	34.15
333.742	33.64
333.953	33.54
334.165	31.9
334.376	33.01
334.587	32.42
334.799	32.53
335.01	30.74
335.221	30.56
335.432	29.15
335.644	28.72
335.855	28.91
336.066	30.54
336.277	31.46
336.488	31.55
336.7	29.89
336.911	30.5
337.122	31.18
337.333	32.06
337.544	32.13
337.755	33.03
337.966	33.61
338.177	33.65
338.388	32.33
338.599	31.67
338.811	31.47
339.022	32.55
339.233	33.1
339.444	33.12
339.655	32.67
339.866	33.19
340.076	32.22
340.287	31.32
340.498	30.3
340.709	30.89
340.92	30.85
341.131	32.39
341.342	32.1
341.553	31.2
341.764	31.17
341.975	31.19
342.185	30.95
342.396	31.37
342.607	31.66
342.818	31.75
343.029	30.84
343.239	30.59
343.45	29.08
343.661	28.86
343.872	28.28
344.082	27.9
344.293	27.3
344.504	28.03
344.714	28.01
344.925	28.8
345.136	28.94
345.346	28.85
345.557	28.76
345.768	28.91
345.978	29.98
346.189	30.84
346.399	30.13
346.61	30.78
346.821	31.02
347.031	31.74
347.242	31.26
347.452	31.24
347.663	32.25
347.873	33.22
348.084	33.58
348.294	31.7
348.504	30.91
348.715	32.69
348.925	32.6
349.136	30.87
349.346	29.95
349.557	30.38
349.767	31.12
349.977	30.71
350.188	29.27
350.398	29.5
350.608	29.74
350.819	30.65
351.029	30.07
351.239	30.69
351.449	30.85
351.66	31.09
351.87	30.55
352.08	29.91
352.29	30.34
352.501	31.14
352.711	30.69
352.921	30.85
353.131	30.27
353.341	30.67
353.552	29.45
353.762	29.4
353.972	28.92
354.182	28.53
354.392	28.41
354.602	28.74
354.812	28.97
355.022	28.39
355.232	28.53
355.442	28.32
355.652	28.11
355.862	28.8
356.072	29.46
356.282	29.05
356.492	29.73
356.702	29.41
356.912	28.89
357.122	29.56
357.332	29.86
357.542	29.34
357.752	29.24
357.962	28.79
358.171	28.45
358.381	28.47
358.591	29.39
358.801	28.65
359.011	29.14
359.221	28.84
359.43	27.54
359.64	27.39
359.85	27.64
360.06	27.71
360.269	28.1
360.479	28.09
360.689	27.66
360.899	27.95
361.108	28.01
361.318	27.43
361.528	27.57
361.737	27.43
361.947	27.64
362.156	27.63
362.366	27.04
362.576	26.99
362.785	26.77
362.995	26.58
363.204	26.1
363.414	26.56
363.623	26.72
363.833	27.04
364.042	27.72
364.252	27.65
364.461	27.67
364.671	28.19
364.88	28.15
365.09	28.75
365.299	29.22
365.509	29
365.718	27.86
365.927	28.18
366.137	27.67
366.346	27.6
366.555	27.59
366.765	27.35
366.974	27.42
367.183	26.22
367.393	25.28
367.602	25.07
367.811	25.16
368.021	26.36
368.23	25.89
368.439	25.2
368.648	24.67
368.857	24.32
369.067	24.03
369.276	24.06
369.485	24.97
369.694	25.6
369.903	25.39
370.112	25.17
370.321	24.23
370.531	24.05
370.74	24.48
370.949	24.37
371.158	24.05
371.367	24.39
371.576	23.76
371.785	23.55
371.994	23.53
372.203	23.57
372.412	23.08
372.621	23.16
372.83	23.22
373.039	23.57
373.248	23.25
373.457	23.69
373.666	23.13
373.874	23.32
374.083	23.28
374.292	22.87
374.501	22.93
374.71	22.93
374.919	22.49
375.128	22.35
375.336	22.08
375.545	22.74
375.754	22.44
375.963	22.66
376.171	22.71
376.38	22.61
376.589	22.19
376.798	21.35
377.006	21.55
377.215	22.05
377.424	21.93
377.632	21.08
377.841	20.76
378.05	20.85
378.258	20.78
378.467	20.5
378.675	20.18
378.884	20.61
379.093	20.88
379.301	20.84
379.51	20.65
379.718	20.91
379.927	21.84
380.135	21.64
380.344	21.16
380.552	21.6
380.761	21.44
380.969	21.49
381.177	20.87
381.386	21.7
381.594	21.37
381.803	20.91
382.011	20.64
382.219	20.08
382.428	20.02
382.636	19.8
382.845	18.45
383.053	18.52
383.261	17.93
383.469	18.05
383.678	17.43
383.886	17.22
384.094	17.65
384.302	17.63
384.511	17.84
384.719	17.41
384.927	17.63
385.135	18.48
385.343	18.39
385.552	19
385.76	19.12
385.968	18.6
386.176	18.48
386.384	17.9
386.592	17.66
386.8	17.45
387.008	17.8
387.216	18.12
387.424	17.98
387.633	18.09
387.841	18.31
388.049	18.53
388.257	18.98
388.465	18.88
388.672	18.84
388.88	19.01
389.088	18.71
389.296	18.31
389.504	18.01
389.712	17.56
389.92	17.21
390.128	16.54
390.336	16.33
390.544	15.95
390.751	16.15
390.959	16.02
391.167	15.96
391.375	16.22
391.583	16.08
391.79	15.9
391.998	16.18
392.206	16.22
392.414	16.31
392.621	15.8
392.829	15.75
393.037	15.54
393.244	15.62
393.452	15.56
393.66	15.42
393.867	15.6
394.075	15.29
394.283	15.06
394.49	14.72
394.698	14.49
394.905	14.84
395.113	15.03
395.32	14.92
395.528	14.95
395.735	14.54
395.943	14.39
396.15	14.24
396.358	14.33
396.565	14.5
396.773	14.7
396.98	15.15
397.188	15
397.395	14.85
397.602	15.23
397.81	14.98
398.017	15.18
398.225	15.57
398.432	15.33
398.639	15.33
398.847	15.27
399.054	15.18
399.261	14.73
399.468	14.6
399.676	14.54
399.883	14.17
400.09	14.61
400.297	14.81
400.505	14.31
400.712	14.69
400.919	14.77
401.126	14.52
401.333	14.22
401.54	13.97
401.748	13.89
401.955	13.69
402.162	13.55
402.369	13.35
402.576	13.11
402.783	13.22
402.99	12.84
403.197	12.45
403.404	12.25
403.611	12.67
403.818	12.82
404.025	12.78
404.232	12.79
404.439	12.66
404.646	12.19
404.853	12.06
405.06	11.62
405.267	11.6
405.474	12.07
405.681	12.44
405.887	12.16
406.094	12.5
406.301	12.55
406.508	12.73
406.715	13.42
406.922	13.68
407.128	13.99
407.335	14.08
407.542	14.25
407.749	13.85
407.955	13.68
408.162	13.42
408.369	13.2
408.575	13.3
408.782	13.4
408.989	12.61
409.195	12.37
409.402	12.37
409.609	12.22
409.815	12.14
410.022	12.37
410.228	12.38
410.435	12.86
410.642	12.91
410.848	12.4
411.055	12.06
411.261	12.11
411.468	12.61
411.674	12.16
411.881	12.35
412.087	12.33
412.294	12.05
412.5	11.88
412.706	11.39
412.913	11.22
413.119	11.41
413.326	11.31
413.532	11.34
413.738	11.32
413.945	11.02
414.151	11.24
414.357	11.43
414.564	11.62
414.77	11.63
414.976	11.94
415.182	12.04
415.389	12.22
415.595	11.97
415.801	12.08
416.007	11.7
416.214	11.89
416.42	11.71
416.626	11.48
416.832	11.52
417.038	11.41
417.244	11.34
417.45	11.14
417.657	11
417.863	11.04
418.069	11.19
418.275	11.31
418.481	11.32
418.687	11.43
418.893	11.32
419.099	11.15
419.305	11.11
419.511	11.1
419.717	11.02
419.923	11.1
420.129	11.19
420.335	11.03
420.541	10.94
420.746	10.71
420.952	10.6
421.158	10.71
421.364	10.6
421.57	10.52
421.776	10.45
421.982	10.63
422.187	10.38
422.393	10.27
422.599	10.27
422.805	10.25
423.01	10.48
423.216	10.38
423.422	10.38
423.628	10.45
423.833	10.51
424.039	10.46
424.245	10.41
424.45	10.52
424.656	10.6
424.862	10.65
425.067	10.6
425.273	10.69
425.478	10.81
425.684	10.8
425.889	10.94
426.095	10.96
426.301	11.16
426.506	11.15
426.712	11.2
426.917	11.28
427.123	11.17
427.328	11.3
427.533	11.25
427.739	11.19
427.944	11.26
428.15	11.1
428.355	11.08
428.561	10.97
428.766	10.95
428.971	11.04
429.177	10.91
429.382	11.04
429.587	10.91
429.793	10.88
429.998	11.03
430.203	10.89
430.408	11.03
430.614	11.15
430.819	11.17
431.024	10.95
431.229	10.96
431.434	11.1
431.64	11
431.845	11.17
432.05	11.32
432.255	11.09
432.46	11.23
432.665	11.2
432.87	11.03
433.076	10.96
433.281	11.02
433.486	10.95
433.691	10.84
433.896	10.72
434.101	10.64
434.306	10.36
434.511	10.51
434.716	10.47
434.921	10.36
435.126	10.56
435.331	10.47
435.535	10.52
435.74	10.35
435.945	10.3
436.15	10.33
436.355	10.62
436.56	10.71
436.765	10.69
436.97	10.55
437.174	10.62
437.379	10.42
437.584	10.67
437.789	10.48
437.993	10.54
438.198	10.57
438.403	10.64
438.608	10.36
438.812	10.32
439.017	10.18
439.222	10.24
439.426	10.25
439.631	10.24
439.836	10.07
440.04	10.27
440.245	10.25
440.45	10.26
440.654	10.24
440.859	10.01
441.063	10.03
441.268	10
441.472	9.93
441.677	9.86
441.881	9.72
442.086	9.69
442.29	9.56
442.495	9.75
442.699	9.71
442.904	9.72
443.108	10.08
443.312	10.06
443.517	10.04
443.721	10.01
443.925	10.1
444.13	10.29
444.334	10.16
444.538	10.09
444.743	9.97
444.947	10.04
445.151	9.93
445.356	9.95
445.56	10.1
445.764	10.12
445.968	10.23
446.173	10.11
446.377	10.11
446.581	10.29
446.785	10.37
446.989	10.37
447.193	10.26
447.398	10.37
447.602	10.16
447.806	10.11
448.01	10.2
448.214	10.2
448.418	10.11
448.622	10.14
448.826	10.09
449.03	10.13
449.234	10.06
449.438	10.25
449.642	10.16
449.846	10.35
450.05	10.2
450.254	10.08
450.458	9.85
450.662	10.06
450.866	9.85
451.069	9.77
451.273	9.73
451.477	9.81
451.681	9.61
451.885	9.55
452.089	9.58
452.292	9.63
452.496	9.71
452.7	9.83
452.904	9.81
453.107	9.93
453.311	9.82
453.515	9.91
453.719	9.78
453.922	9.91
454.126	10.04
454.33	9.93
454.533	9.87
454.737	9.9
454.94	9.81
455.144	9.95
455.348	9.89
455.551	10.11
455.755	9.9
455.958	10.09
456.162	10.12
456.365	10.08
456.569	9.87
456.772	9.87
456.976	10
457.179	10.11
457.383	9.86
457.586	9.85
457.79	9.78
457.993	9.84
458.196	9.75
458.4	9.91
458.603	9.88
458.807	9.95
459.01	10.11
459.213	9.88
459.417	9.97
459.62	9.94
459.823	10.04
460.026	9.92
460.23	9.8
460.433	9.81
460.636	9.72
460.839	9.77
461.042	9.69
461.246	9.7
461.449	9.89
461.652	9.79
461.855	9.86
462.058	9.83
462.261	10.12
462.464	10.05
462.668	10
462.871	10.01
463.074	9.82
463.277	9.87
463.48	9.61
463.683	9.58
463.886	9.57
464.089	9.56
464.292	9.53
464.495	9.53
464.698	9.58
464.901	9.56
465.104	9.38
465.306	9.51
465.509	9.72
465.712	9.88
465.915	9.73
466.118	9.5
466.321	9.61
466.524	9.5
466.726	9.52
466.929	9.81
467.132	9.76
467.335	9.87
467.538	9.68
467.74	9.56
467.943	9.32
468.146	9.24
468.348	9.46
468.551	9.35
468.754	9.44
468.956	9.38
469.159	9.3
469.362	9.55
469.564	9.53
469.767	9.78
469.969	9.9
470.172	10.16
470.375	10.28
470.577	10.32
470.78	10.42
470.982	10.41
471.185	10.28
471.387	10.15
471.59	9.92
471.792	9.94
471.995	10.04
472.197	9.99
472.399	9.9
472.602	10.04
472.804	9.9
473.007	9.99
473.209	10.11
473.411	10.26
473.614	10.52
473.816	10.58
474.018	10.4
474.22	10.38
474.423	10.36
474.625	10.48
474.827	10.37
475.03	10.45
475.232	10.29
475.434	10.08
475.636	10.04
475.838	9.84
476.04	10.01
476.243	10.09
476.445	9.95
476.647	9.96
476.849	9.85
477.051	9.7
477.253	10.05
477.455	9.95
477.657	10.05
477.859	9.9
478.061	9.8
478.263	9.51
478.465	9.43
478.667	9.37
478.869	9.36
479.071	9.35
479.273	9.39
479.475	9.16
479.677	9.26
479.879	9.19
480.081	9.13
480.283	9.15
480.485	9.18
480.686	9.35
480.888	9.57
481.09	9.66
481.292	9.54
481.494	9.65
481.695	9.53
481.897	9.49
482.099	9.53
482.301	9.53
482.502	9.49
482.704	9.46
482.906	9.3
483.107	9.18
483.309	9.1
483.511	9.07
483.712	9.05
483.914	9.03
484.115	9.01
484.317	8.96
484.519	8.96
484.72	8.97
484.922	8.97
485.123	8.99
485.325	9.04
485.526	9.07
485.728	9.12
485.929	9.08
486.131	9.03
486.332	9.02
486.534	9.08
486.735	9.07
486.936	9.1
487.138	9.09
487.339	9.11
487.541	9.01
487.742	9.02
487.943	9
488.144	9
488.346	9.07
488.547	9.08
488.748	9.08
488.95	9.12
489.151	9.12
489.352	9.15
489.553	9.13
489.755	9.21
489.956	9.14
490.157	9.16
490.358	9.18
490.559	9.11
490.76	9.17
490.961	9.09
491.163	9.1
491.364	9.08
491.565	9.06
491.766	9.12
491.967	9.14
492.168	9.12
492.369	9.09
492.57	9.1
492.771	9.3
492.972	9.22
493.173	9.28
493.374	9.31
493.575	9.36
493.776	9.41
493.976	9.39
494.177	9.42
494.378	9.57
494.579	9.78
494.78	9.82
494.981	9.65
495.182	9.84
495.382	9.94
495.583	9.83
495.784	9.88
495.985	10.01
496.185	9.95
496.386	10
496.587	9.9
496.788	9.8
496.988	9.61
497.189	9.73
497.39	9.63
497.59	9.7
497.791	9.62
497.992	9.63
498.192	9.57
498.393	9.7
498.593	9.69
498.794	9.73
498.994	9.89
499.195	10.07
499.395	10.03
499.596	10.16
499.796	9.95
499.997	10.23
500.197	10.3
500.398	10.39
500.598	10.1
500.799	10.26
500.999	10.37
501.199	10.12
501.4	10.12
501.6	10.16
501.801	10.07
502.001	10.38
502.201	10.31
502.402	10.31
502.602	10.23
502.802	10.56
503.002	10.38
503.203	10.41
503.403	10.62
503.603	10.81
503.803	10.76
504.003	10.96
504.204	10.89
504.404	10.95
504.604	11.01
504.804	11.36
505.004	11.39
505.204	11.41
505.404	11.35
505.604	11.4
505.804	11.31
506.005	11.5
506.205	11.28
506.405	11.23
506.605	11.15
506.805	11.16
507.005	11.06
507.204	10.97
507.404	10.89
507.604	11.08
507.804	11.1
508.004	11.14
508.204	10.96
508.404	11.18
508.604	11.23
508.804	11.37
509.003	11.4
509.203	11.24
509.403	11.39
509.603	11.49
509.803	11.45
510.002	11.38
510.202	11.51
510.402	11.78
510.602	11.78
510.801	11.84
511.001	11.91
511.201	11.92
511.4	12.04
511.6	11.96
511.8	12.13
511.999	12.38
512.199	12.41
512.398	12.35
512.598	12.29
512.797	12.49
512.997	12.51
513.197	12.5
513.396	12.73
513.596	12.77
513.795	13
513.994	13.01
514.194	12.9
514.393	13.03
514.593	13.24
514.792	13.37
514.992	13.46
515.191	13.6
515.39	13.64
515.59	13.54
515.789	13.71
515.988	13.73
516.188	13.82
516.387	14.07
516.586	14.4
516.786	14.5
516.985	14.42
517.184	14.43
517.383	14.57
517.582	14.66
517.782	14.65
517.981	14.74
518.18	14.76
518.379	14.92
518.578	14.85
518.777	14.82
518.976	14.85
519.176	15.02
519.375	14.89
519.574	14.88
519.773	14.97
519.972	15.19
520.171	15.32
520.37	15.35
520.569	15.41
520.768	15.52
520.967	15.57
521.166	15.67
521.365	15.8
521.564	16.15
521.762	16.27
521.961	16.32
522.16	16.31
522.359	16.26
522.558	16.42
522.757	16.35
522.956	16.45
523.154	16.49
523.353	16.59
523.552	16.61
523.751	16.52
523.949	16.67
524.148	16.67
524.347	16.91
524.546	17.16
524.744	17.31
524.943	17.41
525.142	17.41
525.34	17.48
525.539	17.41
525.737	17.43
525.936	17.49
526.135	17.54
526.333	17.65
526.532	17.55
526.73	17.48
526.929	17.56
527.127	17.62
527.326	17.53
527.524	17.61
527.723	17.78
527.921	17.82
528.12	17.85
528.318	17.79
528.516	17.87
528.715	17.86
528.913	17.91
529.112	17.88
529.31	17.93
529.508	18.07
529.707	18.07
529.905	18.11
530.103	18.14
530.301	18.2
530.5	18.32
530.698	18.36
530.896	18.58
531.094	18.72
531.293	18.87
531.491	18.89
531.689	19.02
531.887	19.19
532.085	19.25
532.283	19.26
532.481	19.35
532.68	19.49
532.878	19.57
533.076	19.53
533.274	19.5
533.472	19.52
533.67	19.64
533.868	19.72
534.066	19.78
534.264	19.82
534.462	19.92
534.66	20.09
534.858	20.12
535.056	20.24
535.253	20.31
535.451	20.42
535.649	20.53
535.847	20.68
536.045	20.77
536.243	20.8
536.441	20.89
536.638	21.04
536.836	21.06
537.034	21.25
537.232	21.37
537.43	21.41
537.627	21.54
537.825	21.7
538.023	21.7
538.22	21.78
538.418	21.95
538.616	22.15
538.813	22.29
539.011	22.35
539.209	22.4
539.406	22.39
539.604	22.7
539.801	22.84
539.999	22.78
540.196	22.75
540.394	22.79
540.591	22.74
540.789	22.59
540.986	22.52
541.184	22.65
541.381	22.68
541.579	22.72
541.776	22.65
541.974	22.58
542.171	22.65
542.368	22.68
542.566	22.67
542.763	22.72
542.96	22.83
543.158	23.13
543.355	23.13
543.552	23.21
543.75	23.3
543.947	23.44
544.144	23.58
544.341	23.65
544.539	23.91
544.736	24.1
544.933	24.25
545.13	24.43
545.327	24.31
545.524	24.36
545.722	24.5
545.919	24.59
546.116	24.66
546.313	24.69
546.51	24.82
546.707	24.87
546.904	24.97
547.101	25.01
547.298	25.1
547.495	25.21
547.692	25.4
547.889	25.25
548.086	25.21
548.283	25.47
548.48	25.59
548.677	25.62
548.874	25.69
549.07	25.76
549.267	25.87
549.464	25.85
549.661	25.9
549.858	25.99
550.055	26.27
550.251	26.6
550.448	26.7
550.645	26.71
550.842	26.97
551.038	26.96
551.235	27.13
551.432	27.25
551.628	27.48
551.825	27.7
552.022	27.77
552.218	27.82
552.415	27.9
552.612	27.84
552.808	28.01
553.005	28.08
553.201	28.29
553.398	28.34
553.594	28.55
553.791	28.76
553.987	28.91
554.184	29.1
554.38	29.01
554.577	29.13
554.773	29.42
554.97	29.64
555.166	29.74
555.362	29.88
555.559	30.09
555.755	30.25
555.952	30.3
556.148	30.36
556.344	30.49
556.541	30.89
556.737	30.81
556.933	30.82
557.129	30.77
557.326	30.79
557.522	30.89
557.718	30.91
557.914	30.9
558.11	30.89
558.307	30.73
558.503	30.56
558.699	30.64
558.895	30.97
559.091	31.13
559.287	31.53
559.483	31.46
559.679	31.34
559.876	31.39
560.072	31.46
560.268	31.65
560.464	31.82
560.66	32.14
560.856	32.26
561.052	32.03
561.247	31.86
561.443	31.67
561.639	31.93
561.835	32.16
562.031	32.17
562.227	31.99
562.423	31.93
562.619	32.18
562.815	32.28
563.01	32.55
563.206	32.93
563.402	33.05
563.598	33.25
563.793	33.46
563.989	33.37
564.185	33.48
564.381	33.59
564.576	33.88
564.772	33.72
564.968	33.72
565.163	33.49
565.359	33.37
565.555	33.35
565.75	33.39
565.946	33.32
566.141	33.48
566.337	33.48
566.532	33.72
566.728	33.4
566.923	33.48
567.119	33.43
567.314	33.64
567.51	33.65
567.705	33.97
567.901	34.06
568.096	34.11
568.292	34.41
568.487	34.49
568.682	34.42
568.878	34.86
569.073	34.83
569.268	34.85
569.464	34.9
569.659	35.14
569.854	35.01
570.05	34.89
570.245	35.2
570.44	35.07
570.635	35.03
570.831	35.33
571.026	35.16
571.221	35.53
571.416	35.64
571.611	35.6
571.806	35.6
572.002	35.63
572.197	35.7
572.392	35.59
572.587	35.73
572.782	35.89
572.977	35.75
573.172	35.89
573.367	35.71
573.562	35.84
573.757	35.89
573.952	35.73
574.147	35.86
574.342	36.06
574.537	36.07
574.732	35.84
574.927	35.97
575.121	36.07
575.316	36.1
575.511	36.25
575.706	36.15
575.901	36.16
576.096	36.42
576.29	36.32
576.485	36.24
576.68	36.32
576.875	36.46
577.069	36.16
577.264	36.2
577.459	36.24
577.654	36.34
577.848	36.57
578.043	36.83
578.238	37.17
578.432	37.4
578.627	37.51
578.821	37.75
579.016	37.92
579.21	38.41
579.405	38.47
579.6	38.57
579.794	38.66
579.989	38.65
580.183	38.4
580.378	38.18
580.572	38.37
580.766	38.55
580.961	38.43
581.155	38.36
581.35	38.34
581.544	38.33
581.738	38.33
581.933	38.28
582.127	38.65
582.321	38.94
582.516	38.98
582.71	38.87
582.904	39.03
583.099	39.36
583.293	39.58
583.487	39.66
583.681	40.3
583.875	40.34
584.07	40.63
584.264	40.58
584.458	40.49
584.652	40.56
584.846	40.8
585.04	40.55
585.234	40.26
585.428	40.19
585.623	40.15
585.817	39.65
586.011	39.53
586.205	39.47
586.399	39.39
586.593	39.25
586.787	39.37
586.981	39.13
587.174	39.49
587.368	39.42
587.562	39.58
587.756	39.61
587.95	39.69
588.144	39.68
588.338	39.82
588.532	39.59
588.725	39.89
588.919	39.77
589.113	39.84
589.307	39.75
589.501	39.77
589.694	39.58
589.888	39.65
590.082	39.53
590.275	39.55
590.469	39.42
590.663	39.7
590.856	39.52
591.05	39.53
591.244	39.45
591.437	39.85
591.631	39.93
591.824	39.91
592.018	39.84
592.212	40.05
592.405	40.48
592.599	40.63
592.792	40.55
592.986	40.68
593.179	40.62
593.372	40.61
593.566	40.09
593.759	40.24
593.953	40.58
594.146	40.52
594.339	40.62
594.533	40.62
594.726	40.45
594.92	40.43
595.113	40.28
595.306	40.24
595.499	40.24
595.693	40.34
595.886	40.31
596.079	40.26
596.272	40.48
596.466	40.44
596.659	40.31
596.852	40.35
597.045	40.37
597.238	40.6
597.431	40.7
597.624	40.98
597.818	40.84
598.011	40.82
598.204	40.7
598.397	40.63
598.59	40.57
598.783	40.51
598.976	40.58
599.169	40.51
599.362	40.57
599.555	40.79
599.748	40.6
599.941	40.95
600.134	40.87
600.326	40.99
600.519	41.4
600.712	41.64
600.905	41.8
601.098	41.71
601.291	41.75
601.483	41.62
601.676	41.4
601.869	41.49
602.062	41.52
602.255	41.69
602.447	41.55
602.64	41.32
602.833	41.08
603.025	40.89
603.218	40.95
603.411	40.93
603.603	40.76
603.796	40.9
603.989	40.67
604.181	40.58
604.374	40.63
604.566	40.82
604.759	40.72
604.951	40.86
605.144	40.95
605.336	41.24
605.529	41.32
605.721	41.44
605.914	41.55
606.106	41.8
606.299	41.88
606.491	42.02
606.683	41.9
606.876	41.84
607.068	41.96
607.26	41.95
607.453	41.63
607.645	41.61
607.837	41.71
608.03	41.72
608.222	41.56
608.414	41.41
608.606	41.2
608.799	41.7
608.991	41.94
609.183	41.86
609.375	42.19
609.567	42.39
609.759	42.78
609.952	42.65
610.144	42.77
610.336	42.99
610.528	43.11
610.72	43.41
610.912	43.34
611.104	43.78
611.296	43.86
611.488	44.03
611.68	44.17
611.872	43.98
612.064	44.72
612.256	44.83
612.448	45.25
612.64	45.5
612.832	45.56
613.023	45.61
613.215	45.26
613.407	45.2
613.599	44.79
613.791	44.76
613.983	44.71
614.174	44.29
614.366	43.87
614.558	43.37
614.75	43.44
614.941	43.38
615.133	42.94
615.325	43
615.516	43.08
615.708	43.29
615.9	43.09
616.091	43.03
616.283	43.09
616.475	42.79
616.666	43.1
616.858	43.25
617.049	42.98
617.241	43.12
617.432	42.89
617.624	42.88
617.815	42.79
618.007	42.98
618.198	43.1
618.39	43.16
618.581	43.61
618.773	43.31
618.964	43.03
619.155	43.05
619.347	43.25
619.538	43.6
619.729	43.59
619.921	43.67
620.112	43.68
620.303	43.49
620.494	43.34
620.686	43.18
620.877	43.32
621.068	43.12
621.259	42.99
621.451	43.03
621.642	42.64
621.833	42.67
622.024	42.51
622.215	41.78
622.406	41.78
622.597	41.8
622.788	41.97
622.98	41.61
623.171	41.72
623.362	42.14
623.553	42.38
623.744	42.37
623.935	42.21
624.126	42.06
624.317	42.66
624.508	42.81
624.698	42.79
624.889	42.91
625.08	43.53
625.271	43.71
625.462	43.51
625.653	43.07
625.844	43.08
626.034	43
626.225	43.16
626.416	42.89
626.607	42.75
626.798	42.84
626.988	42.5
627.179	42.24
627.37	42.01
627.56	42.14
627.751	42.15
627.942	42.34
628.132	42.42
628.323	42.39
628.514	42.68
628.704	42.94
628.895	42.81
629.085	42.96
629.276	42.91
629.466	43.01
629.657	42.69
629.847	42.71
630.038	42.73
630.228	42.89
630.419	43.22
630.609	43.16
630.8	42.82
630.99	42.99
631.181	43.34
631.371	43.75
631.561	43.51
631.752	43.93
631.942	44.29
632.132	44
632.323	43.76
632.513	43.5
632.703	43.22
632.893	43.71
633.084	43.51
633.274	43.46
633.464	42.68
633.654	42.81
633.844	42.67
634.034	42.5
634.225	42.41
634.415	42.38
634.605	42.38
634.795	42.35
634.985	42.27
635.175	42.28
635.365	42.13
635.555	42.81
635.745	42.99
635.935	43.24
636.125	43.16
636.315	43.65
636.505	43.74
636.695	43.64
636.885	43.9
637.075	43.92
637.265	43.93
637.455	44.09
637.644	43.84
637.834	43.86
638.024	43.35
638.214	43.58
638.404	43.4
638.593	43.49
638.783	43.32
638.973	43.48
639.163	43.32
639.352	43.05
639.542	42.47
639.732	42.43
639.921	42.56
640.111	43.12
640.301	42.73
640.49	42.56
640.68	42.74
640.87	43.06
641.059	43.11
641.249	43.52
641.438	43.97
641.628	44.53
641.817	44.94
642.007	44.91
642.196	44.94
642.386	45.17
642.575	45.8
642.764	45.49
642.954	45.38
643.143	45.32
643.333	44.99
643.522	45.04
643.711	44.79
643.901	44.65
644.09	44.58
644.279	44.52
644.469	44.39
644.658	44.18
644.847	44.48
645.036	44.76
645.226	44.63
645.415	44.48
645.604	44.04
645.793	44.22
645.982	43.99
646.171	44.03
646.361	43.75
646.55	44.24
646.739	43.85
646.928	43.66
647.117	43.44
647.306	43.21
647.495	42.9
647.684	43.59
647.873	43.62
648.062	43.66
648.251	43.45
648.44	43.54
648.629	42.79
648.818	42.99
649.007	42.98
649.196	43.22
649.384	43.17
649.573	43.73
649.762	43.22
649.951	43.45
650.14	43.36
650.328	43.47
650.517	43.34
650.706	43.69
650.895	43.95
651.083	44.88
651.272	45.05
651.461	45.32
651.65	45.1
651.838	45.18
652.027	44.77
652.216	44.85
652.404	44.54
652.593	44.73
652.781	44.68
652.97	44.57
653.158	43.62
653.347	43.5
653.535	43.34
653.724	43.4
653.912	43.97
654.101	43.85
654.289	44.12
654.478	44.59
654.666	44.48
654.855	44.89
655.043	44.74
655.231	44.99
655.42	44.96
655.608	45.58
655.796	45.58
655.985	45.01
656.173	44.65
656.361	44.24
656.55	43.97
656.738	44.15
656.926	43.65
657.114	43.45
657.302	43.63
657.491	43.46
657.679	43.09
657.867	43.54
658.055	43.47
658.243	44.04
658.431	44.14
658.619	44.38
658.807	44.32
658.996	44.28
659.184	44.25
659.372	43.95
659.56	43.75
659.748	43.66
659.936	43.59
660.124	43.42
660.311	43.18
660.499	43.01
660.687	42.66
660.875	42.48
661.063	42.63
661.251	42.9
661.439	43.12
661.627	43.34
661.814	43.51
662.002	42.78
662.19	43.03
662.378	43.21
662.565	43.33
662.753	43.45
662.941	43.85
663.129	43.58
663.316	43.68
663.504	42.96
663.692	42.93
663.879	42.78
664.067	43.16
664.254	43.01
664.442	43.23
664.63	43.7
664.817	44.24
665.005	43.91
665.192	44.49
665.38	43.97
665.567	44.59
665.755	44.72
665.942	44.66
666.13	44.7
666.317	44.77
666.504	44.47
666.692	44.31
666.879	44.17
667.067	44.33
667.254	44.14
667.441	43.94
667.629	44.2
667.816	44.02
668.003	44.13
668.19	44.49
668.378	44.79
668.565	45.02
668.752	44.8
668.939	44.35
669.127	43.92
669.314	43.75
669.501	44.65
669.688	44.58
669.875	44.56
670.062	44.31
670.249	43.87
670.436	43.8
670.623	43.87
670.81	44.22
670.997	44.69
671.184	44.99
671.371	45.42
671.558	44.58
671.745	44.41
671.932	44.81
672.119	45.02
672.306	45.69
672.493	45.59
672.68	45.69
672.867	45.97
673.054	45.38
673.24	45.3
673.427	44.98
673.614	45.47
673.801	45.86
673.988	45.89
674.174	46.09
674.361	45.57
674.548	45.89
674.734	45.56
674.921	44.39
675.108	45.66
675.294	45.87
675.481	46.02
675.668	46.19
675.854	46.18
676.041	46.01
676.227	45.79
676.414	46.02
676.601	45.98
676.787	46.09
676.974	46.85
677.16	46.02
677.347	46.11
677.533	45.75
677.719	45.61
677.906	45.28
678.092	45.61
678.279	45.61
678.465	45.65
678.651	45.47
678.838	45.51
679.024	45.34
679.21	44.71
679.397	44.48
679.583	44.33
679.769	43.47
679.955	43.2
680.142	42.79
680.328	43.3
680.514	42.95
680.7	42.79
680.886	42.6
681.073	42.64
681.259	43.11
681.445	42.99
681.631	43.62
681.817	44.34
682.003	44.72
682.189	44.84
682.375	44.4
682.561	44.58
682.747	44.2
682.933	44.21
683.119	43.91
683.305	44.15
683.491	44.24
683.677	43.9
683.863	44.06
684.049	44.15
684.235	44.1
684.42	44.12
684.606	43.93
684.792	44.92
684.978	44.92
685.164	45.07
685.349	45.14
685.535	45.54
685.721	45.6
685.907	45.28
686.092	45.02
686.278	45.21
686.464	44.93
686.649	45.54
686.835	45.28
687.021	45.58
687.206	45.64
687.392	45.36
687.577	45.17
687.763	45.19
687.948	45.48
688.134	45.37
688.319	45.7
688.505	46.28
688.69	45.87
688.876	45.97
689.061	45.44
689.247	45.66
689.432	45.42
689.618	45.1
689.803	44.78
689.988	44.35
690.174	44.34
690.359	43.62
690.544	43.18
690.73	43.06
690.915	43.2
691.1	43.04
691.285	43.17
691.471	43.81
691.656	43.76
691.841	43.85
692.026	44.04
692.211	43.92
692.396	44.27
692.582	45.24
692.767	44.98
692.952	44.71
693.137	45.24
693.322	44.79
693.507	44.9
693.692	44.99
693.877	44.87
694.062	45.4
694.247	46.31
694.432	46.09
694.617	45.04
694.802	45.74
694.987	45.42
695.172	45.16
695.357	45.38
695.541	44.52
695.726	45.08
695.911	46.07
696.096	45.81
696.281	45.66
696.466	45.94
696.65	46.02
696.835	45.85
697.02	45
697.204	45.61
697.389	45.43
697.574	45.73
697.759	45.44
697.943	44.57
698.128	44.58
698.312	44.49
698.497	43.99
698.682	43.98
698.866	43.38
699.051	44.4
699.235	44.02
699.42	44.26
699.604	44.38
699.789	43.97
699.973	44.5
700.158	44.25
700.342	43.77
700.527	44.25
700.711	44.6
700.895	45.07
701.08	44.86
701.264	45.13
701.448	44.49
701.633	44.65
701.817	45.15
702.001	44.92
702.186	45.12
702.37	45.59
702.554	45.75
702.738	45.68
702.923	45.16
703.107	44.98
703.291	45.29
703.475	46.03
703.659	45.93
703.843	46.2
704.027	46.28
704.212	45.76
704.396	45.94
704.58	45.9
704.764	45.15
704.948	45.51
705.132	46.02
705.316	45.69
705.5	46.02
705.684	45.46
705.868	45.76
706.052	45.76
706.235	47.09
706.419	47
706.603	46.91
706.787	47.47
706.971	47.85
707.155	47.24
707.339	46.8
707.522	46.37
707.706	46.51
707.89	46.21
708.074	46.02
708.257	45.45
708.441	45.39
708.625	45.67
708.808	45.54
708.992	46.35
709.176	46.92
709.359	47.55
709.543	47.19
709.727	47.33
709.91	47.43
710.094	47.36
710.277	47.42
710.461	47.38
710.644	46.32
710.828	46.61
711.011	45.61
711.195	45.26
711.378	44.78
711.562	44.51
711.745	44.54
711.928	44
712.112	44.45
712.295	44.16
712.478	44.11
712.662	44.9
712.845	44.91
713.028	44.87
713.212	44.59
713.395	44.67
713.578	45.56
713.761	45.67
713.945	45.75
714.128	45.95
714.311	45.39
714.494	44.97
714.677	44.87
714.86	44.91
715.043	45.43
715.227	45.27
715.41	45.84
715.593	45.79
715.776	45.53
715.959	45.39
716.142	44.8
716.325	46.2
716.508	46.6
716.691	46.35
716.874	46.07
717.057	45.56
717.239	46.46
717.422	45.86
717.605	45.22
717.788	44.87
717.971	46.57
718.154	46.56
718.337	45.46
718.519	45.1
718.702	45.47
718.885	45.29
719.068	45.85
719.25	46.12
719.433	45.7
719.616	46.44
719.798	46.88
719.981	46.02
720.164	45.91
720.346	46.69
720.529	48.17
720.712	48.15
720.894	49.13
721.077	48.69
721.259	48.06
721.442	49.82
721.624	49.86
721.807	50.05
721.989	49.65
722.172	49.57
722.354	49.45
722.537	48.61
722.719	48.51
722.901	48.12
723.084	48.34
723.266	48.49
723.448	47.82
723.631	48.25
723.813	48.65
723.995	48.48
724.178	49.73
724.36	50.07
724.542	49.75
724.724	50.18
724.907	49.97
725.089	50.38
725.271	50.33
725.453	49.75
725.635	48.65
725.817	48.44
725.999	48.5
726.181	47.88
726.364	47.97
726.546	48.14
726.728	47.68
726.91	47
727.092	46.41
727.274	46.21
727.456	46.43
727.638	46.51
727.819	46.26
728.001	45.17
728.183	45.45
728.365	44.75
728.547	45.28
728.729	45.98
728.911	46.94
729.093	47.51
729.274	46.65
729.456	46.77
729.638	46.61
729.82	47.14
730.001	47.54
730.183	47.16
730.365	46.87
730.546	46.76
730.728	46.16
730.91	45.97
731.091	45.87
731.273	46.56
731.455	46.57
731.636	47.05
731.818	47.56
731.999	47.88
732.181	47.83
732.362	48.11
732.544	48.13
732.725	47.7
732.907	47.12
733.088	47.02
733.27	47.64
733.451	47.47
733.633	48.11
733.814	47.29
733.995	48
734.177	48.51
734.358	48.23
734.539	47.62
734.721	48.38
734.902	49.28
735.083	50.48
735.264	49.92
735.446	49.55
735.627	48.67
735.808	49.28
735.989	49.15
736.17	48.83
736.351	49.61
736.533	49.45
736.714	49.01
736.895	47.92
737.076	46.58
737.257	46.69
737.438	47.01
737.619	47.45
737.8	47.05
737.981	48.31
738.162	48
738.343	47.94
738.524	48.16
738.705	48.77
738.886	49.48
739.067	49.65
739.247	50.3
739.428	50.23
739.609	50.12
739.79	50.67
739.971	48.82
740.151	49.54
740.332	49.87
740.513	49.64
740.694	49.7
740.874	49.02
741.055	48.78
741.236	48.64
741.417	49.49
741.597	48.63
741.778	48.54
741.958	48.53
742.139	46.81
742.32	46.11
742.5	46.46
742.681	47.32
742.861	48.11
743.042	47.1
743.222	45.67
743.403	45.35
743.583	46.62
743.764	45.92
743.944	46.53
744.124	48.44
744.305	49.18
744.485	48.82
744.666	47.42
744.846	47.2
745.026	48.7
745.207	50.36
745.387	49.82
745.567	50.6
745.747	50.22
745.928	49.64
746.108	49.48
746.288	48.97
746.468	49.82
746.648	50.27
746.829	50.76
747.009	51.35
747.189	49.38
747.369	49.71
747.549	47.94
747.729	49.37
747.909	49.54
748.089	49.02
748.269	48.9
748.449	50.14
748.629	50.75
748.809	49.75
748.989	48.95
749.169	50.12
749.349	50.57
749.529	50.85
749.709	50.18
749.889	50.66
750.068	50.09
750.248	50.75
750.428	49.36
750.608	48.39
750.788	50.2
750.967	49.47
751.147	48.73
751.327	48.7
751.507	47.68
751.686	47.78
751.866	47.86
752.046	48.81
752.225	47.68
752.405	47.64
752.585	47.62
752.764	46.49
752.944	45.93
753.123	47.14
753.303	45.92
753.482	47.79
753.662	47.48
753.841	46.95
754.021	46.1
754.2	46.7
754.38	47.54
754.559	48.12
754.739	48.67
754.918	50.97
755.097	49.83
755.277	50.16
755.456	49.02
755.635	49.98
755.815	51.24
755.994	53.16
756.173	52.26
756.352	51.63
756.532	51.39
756.711	49.74
756.89	49.32
757.069	49.87
757.248	50.17
757.427	49.91
757.607	48.83
757.786	47.73
757.965	45.46
758.144	46.58
758.323	46.41
758.502	46.73
758.681	47.69
758.86	47.82
759.039	47.75
759.218	46.75
759.397	47.47
759.576	46.89
759.755	46.3
759.934	45.93
760.113	46.2
760.291	46.68
760.47	47.39
760.649	47.5
760.828	46.37
761.007	45.39
761.186	47.1
761.364	46.62
761.543	47.02
761.722	47.33
761.901	47.61
762.079	46.56
762.258	46.17
762.437	44.81
762.615	44.01
762.794	43.65
762.972	45.05
763.151	43.79
763.33	43.62
763.508	44.07
763.687	44.6
763.865	44.95
764.044	45.01
764.222	44.17
764.401	43.71
764.579	44.17
764.758	44.25
764.936	43.69
765.114	44.2
765.293	44.57
765.471	43.89
765.65	43.3
765.828	43.38
766.006	44.62
766.184	45.29
766.363	45.69
766.541	45.04
766.719	45.47
766.898	45.34
767.076	46.1
767.254	46.11
767.432	46.56
767.61	47.17
767.788	48.11
767.967	46.93
768.145	46.59
768.323	47.2
768.501	47.56
768.679	47.97
768.857	48.11
769.035	48.98
769.213	50.27
769.391	49.08
769.569	48.4
769.747	48.44
769.925	46.79
770.103	48.02
770.281	47.34
770.459	47.59
770.636	47.43
770.814	48.65
770.992	47.57
771.17	46.38
771.348	47.24
771.525	47.42
771.703	47.94
771.881	51.35
772.059	52.19
772.236	51.79
772.414	51.71
772.592	51.5
772.769	49.49
772.947	48.52
773.125	48.15
773.302	51.44
773.48	52.58
773.657	50.67
773.835	49.55
774.013	48.66
774.19	49.71
774.368	49.47
774.545	50.34
774.723	53.15
774.9	53.74
775.077	54.44
775.255	51.87
775.432	51.57
775.61	52.39
775.787	51.54
775.964	51.25
776.142	50.75
776.319	51.09
776.496	51.13
776.674	50.18
776.851	50.75
777.028	51.72
777.205	52.47
777.382	52.57
777.56	54.03
777.737	58.85
777.914	58.58
778.091	59.99
778.268	60.85
778.445	60.3
778.622	61.31
778.8	59.5
778.977	57.48
779.154	55.77
779.331	54.78
779.508	52.9
779.685	48.6
779.862	49.33
780.038	47.15
780.215	48.75
780.392	49.39
780.569	48.26
780.746	47.78
780.923	49
781.1	49.72
781.277	49.11
781.453	49.46
781.63	49.33
781.807	49.45
781.984	49.86
782.16	49.41
782.337	49.33
782.514	48.42
782.691	50.18
782.867	50.65
783.044	53.03
783.221	53.44
783.397	54.19
783.574	54.48
783.75	53.2
783.927	55.37
784.103	55.15
784.28	52.16
784.456	52.8
784.633	52.24
784.809	51.49
784.986	47.9
785.162	49.91
785.339	49.31
785.515	49.14
785.692	50.79
785.868	50.11
786.044	50.06
786.221	53.93
786.397	56.18
786.573	53.92
786.749	53.39
786.926	54.72
787.102	52.21
787.278	50.76
787.454	52.56
787.631	51.7
787.807	50.38
787.983	50.06
788.159	49.95
788.335	47.7
788.511	49.74
788.687	48.84
788.863	48.52
789.039	49.12
789.216	48.16
789.392	48.81
789.568	47.91
789.744	50.43
789.919	49.11
790.095	47.24
790.271	47.86
790.447	47.9
790.623	49.58
790.799	50.13
790.975	51.99
791.151	55.63
791.327	51.54
791.502	52.89
791.678	51.81
791.854	55.76
792.03	55.68
792.205	56.07
792.381	55.12
792.557	53.25
792.733	50.62
792.908	48.58
793.084	47.79
793.259	48.48
793.435	47.45
793.611	48.64
793.786	45.32
793.962	45.08
794.137	44.1
794.313	45.24
794.488	47.04
794.664	50.63
794.839	51.01
795.015	51.56
795.19	50.8
795.366	51.35
795.541	49.8
795.716	48.07
795.892	50.32
796.067	51.75
796.242	54.29
796.418	55.76
796.593	55.25
796.768	55.89
796.944	56.23
797.119	55.97
797.294	58.9
797.469	56.98
797.644	59.09
797.82	59.99
797.995	58.19
798.17	55.41
798.345	52.98
798.52	49.63
798.695	48.38
798.87	45.35
799.045	47.66
799.22	43.33
799.395	45.23
799.57	44.17
799.745	40.7
799.92	43.28
800.095	44.22
800.27	44.53
800.445	46.55
800.62	45.93
800.795	46.74
800.97	46.33
801.145	47.36
801.319	45.4
801.494	46.07
801.669	51.07
801.844	49.23
802.018	49.58
802.193	49.5
802.368	50.66
802.543	52.8
802.717	57.3
802.892	56.63
803.067	59.19
803.241	60.94
803.416	59.03
803.59	57.83
803.765	58.28
803.94	58.8
804.114	59.56
804.289	62.34
804.463	60.33
804.638	54.02
804.812	54.08
804.986	49.53
805.161	51.49
805.335	54.27
805.51	52.24
805.684	51.9
805.858	51.9
806.033	52.83
806.207	46.38
806.381	48.12
806.556	51.42
806.73	53.41
806.904	55.65
807.078	54.11
807.253	53.46
807.427	55.08
807.601	54.88
807.775	55.68
807.949	56.23
808.123	58.7
808.298	58.09
808.472	56.5
808.646	55.14
808.82	54.94
808.994	53.13
809.168	52.44
809.342	53.83
809.516	53.31
809.69	49.56
809.864	45.26
810.038	46.03
810.212	46.41
810.385	46.61
810.559	48.49
810.733	47.83
810.907	49.36
811.081	50.16
811.255	47.91
811.428	46.71
811.602	48.65
811.776	51.77
811.95	51.38
812.123	53.78
812.297	52.79
812.471	53.32
812.644	54.27
812.818	53.36
812.992	53.56
813.165	54.86
813.339	58.35
813.512	59.96
813.686	61.57
813.86	61.71
814.033	61.71
814.207	62.19
814.38	64.06
814.554	65.16
814.727	67.3
814.9	67.28
815.074	65.89
815.247	63.84
815.421	58.48
815.594	57.57
815.767	56.11
815.941	52.54
816.114	55.06
816.287	50.78
816.46	52.49
816.634	50.08
816.807	53.82
816.98	54.48
817.153	54.37
817.327	60.42
817.5	59.57
817.673	64.91
817.846	64.27
818.019	66.53
818.192	68.02
818.365	62.96
818.538	64.4
818.711	60.01
818.884	57.69
819.057	58.73
819.23	55.97
819.403	54.93
819.576	52.79
819.749	56.48
819.922	51.91
820.095	53.09
820.268	54.57
820.441	54.46
820.614	55.31
820.786	54.99
820.959	55.25
821.132	53.92
821.305	50.34
821.477	47.77
821.65	45.89
821.823	45.6
821.996	44.83
822.168	44.68
822.341	43.01
822.514	41.72
822.686	41.66
822.859	40.62
823.031	40.29
823.204	41.52
823.376	41.98
823.549	41.77
823.722	41.92
823.894	41.8
824.067	41.56
824.239	42.1
824.411	42.2
824.584	42.79
824.756	43.66
824.929	43.75
825.101	43.03
825.273	42.44
825.446	42.51
825.618	42.91
825.79	42.91
825.963	42.91
826.135	42.81
826.307	43.33
826.479	42.87
826.652	42
826.824	42.1
826.996	42.5
827.168	44.34
827.34	44.29
827.512	44.14
827.684	44.25
827.856	44.25
828.029	44.56
828.201	44.09
828.373	43.51
828.545	43.94
828.717	44.92
828.889	44.69
829.061	43.66
829.232	44.37
829.404	44.65
829.576	42.87
829.748	43.81
829.92	44.95
830.092	46.99
830.264	46.74
830.436	47.12
830.607	47.37
830.779	49.07
830.951	48.74
831.123	47.69
831.294	47.42
831.466	51.18
831.638	50.37
831.809	49.55
831.981	47.97
832.153	48.84
832.324	49.27
832.496	50.62
832.667	55.03
832.839	58.47
833.011	58.53
833.182	59.55
833.354	55.37
833.525	54.6
833.697	53.49
833.868	51.16
834.039	52.03
834.211	52.47
834.382	52
834.554	50.67
834.725	48.15
834.896	47.07
835.068	46.54
835.239	48.08
835.41	49.65
835.581	48.86
835.753	49.8
835.924	50.38
836.095	49.54
836.266	49.47
836.438	47.92
836.609	49.79
836.78	51.82
836.951	51.71
837.122	50.18
837.293	49.24
837.464	52.47
837.635	55.21
837.806	52.79
837.977	52.55
838.148	52.13
838.319	53.11
838.49	50.95
838.661	48.51
838.832	50.58
839.003	53.39
839.174	53.51
839.345	54.42
839.516	54.39
839.687	62.13
839.857	57.96
840.028	58.6
840.199	58.44
840.37	62.56
840.54	69.03
840.711	66.75
840.882	65.14
841.053	65.06
841.223	65.79
841.394	68.16
841.564	70.02
841.735	77.66
841.906	76.06
842.076	71.83
842.247	65.92
842.417	63.9
842.588	66.41
842.758	74.73
842.929	75.51
843.099	72.02
843.27	65.26
843.44	58.62
843.611	56.49
843.781	57.65
843.951	57.97
844.122	59.42
844.292	51.3
844.462	51.41
844.633	48.91
844.803	48.91
844.973	42.81
845.144	47.2
845.314	48.56
845.484	56.42
845.654	55.64
845.824	67.08
845.995	63.83
846.165	71.18
846.335	74.06
846.505	74.09
846.675	72.45
846.845	80.09
847.015	91.82
847.185	94.85
847.355	86.86
847.525	100.49
847.695	91.87
847.865	102.05
848.035	102.09
848.205	90.15
848.375	92.98
848.545	103.71
848.715	98.27
848.884	86.58
849.054	91.54
849.224	88.12
849.394	80.27
849.564	81.97
849.733	91.02
849.903	90.42
850.073	91.56
850.243	88.23
850.412	95.31
850.582	88.77
850.752	92.42
850.921	86.13
851.091	92.42
851.26	111.68
851.43	101.78
851.599	96.14
851.769	87.95
851.939	92.2
852.108	86.96
852.278	87.23
852.447	109.76
852.616	107.16
852.786	98.07
852.955	98.74
853.125	80.64
853.294	76.75
853.463	68.83
853.633	75.68
853.802	94.53
853.971	116.29
854.141	106.9
854.31	105.82
854.479	109.96
854.648	141.68
854.818	119.05
854.987	121.91
855.156	124.43
855.325	135.45
855.494	138.87
855.663	115.43
855.832	106.74
856.001	104.17
856.171	97.09
856.34	103.81
856.509	102.92
856.678	119.96
856.847	124.81
857.016	121
857.185	122.08
857.353	123.54
857.522	134.26
857.691	118.97
857.86	116.38
858.029	115.35
858.198	110.31
858.367	111.56
858.535	107.28
858.704	114.71
858.873	117.47
859.042	110.42
859.21	117.26
859.379	96.75
859.548	106.39
859.717	103.43
859.885	104.17
860.054	97.75
860.222	79.03
860.391	76.68
860.56	83.92
860.728	95.82
860.897	93.33
861.065	81.69
861.234	83.4
861.402	79.54
861.571	77.64
861.739	77.56
861.908	79.01
862.076	90.77
862.244	94.31
862.413	90.53
862.581	87.26
862.749	93.74
862.918	94.77
863.086	99.81
863.254	107.64
863.423	122.58
863.591	110.98
863.759	113.96
863.927	107.75
864.096	110.72
864.264	99.39
864.432	89.79
864.6	89.39
864.768	92.62
864.936	91.95
865.104	85.17
865.272	85.18
865.44	90.47
865.608	85.22
865.776	86.47
865.944	82.41
866.112	80.55
866.28	83.72
866.448	85.3
866.616	90.75
866.784	90.17
866.952	91.85
867.12	104.89
867.288	107.13
867.455	123.45
867.623	126.13
867.791	129.42
867.959	123.32
868.127	126.91
868.294	106
868.462	84.1
868.63	87.94
868.797	95.7
868.965	72.2
869.133	76.41
869.3	66.99
869.468	75.84
869.636	65.64
869.803	62.27
869.971	57.14
870.138	59.95
870.306	63.13
870.473	61.16
870.641	55.59
870.808	56.23
870.975	50.19
871.143	46.21
871.31	46.78
871.478	40.36
871.645	58.96
871.812	70.34
871.98	80.09
872.147	78.67
872.314	74.89
872.482	72.68
872.649	71.52
872.816	75.98
872.983	84.15
873.15	90.19
873.318	97.5
873.485	108.22
873.652	96.44
873.819	89.79
873.986	101.01
874.153	118.96
874.32	127.23
874.487	154.36
874.654	171.45
874.821	177.22
874.988	173.35
875.155	187.88
875.322	149.51
875.489	158.46
875.656	141.82
875.823	126.96
875.99	84.68
876.157	76.93
876.324	65.74
876.49	64.74
876.657	70.88
876.824	72.3
876.991	70.54
877.157	74.3
877.324	82.38
877.491	92.61
877.658	87.39
877.824	91.91
877.991	93.85
878.157	92.32
878.324	91.7
878.491	81.68
878.657	82.89
878.824	84.1
878.99	67.2
879.157	68.31
879.323	62.15
879.49	74.17
879.656	76.2
879.823	79.45
879.989	81.32
880.156	85.68
880.322	85.71
880.488	74.8
880.655	71.55
880.821	85.9
880.987	84.98
881.154	84.12
881.32	72.48
881.486	73.59
881.652	70.45
881.819	69.9
881.985	68
882.151	68.25
882.317	66.06
882.483	65.48
882.649	60.81
882.816	58.28
882.982	58.18
883.148	53.57
883.314	49
883.48	47.59
883.646	44.97
883.812	43.76
883.978	44.72
884.144	44.61
884.31	44.78
884.476	44.5
884.642	43.96
884.807	43.15
884.973	44.89
885.139	47.73
885.305	49.07
885.471	48.03
885.637	48.55
885.802	46.45
885.968	49.05
886.134	50.02
886.3	51.89
886.465	53.15
886.631	53.87
886.797	58.66
886.962	57.71
887.128	59.65
887.293	67.59
887.459	66.77
887.625	71.52
887.79	68.8
887.956	65.13
888.121	65.08
888.287	65.32
888.452	67.35
888.618	63.29
888.783	65.83
