Data from CB_012_Reflection_2.txt Node
Date: Wed Nov 11 18:52:52 EST 2015
User: robert
Spectrometer: USB4E03001
Autoset integration time: false
Trigger mode: 4
Integration Time (sec): 1.000000E-1
Scans to average: 15
Electric dark correction enabled: true
Nonlinearity correction enabled: false
Boxcar width: 5
Stray light correction enabled: false
XAxis mode: Wavelengths
Stop averaging: false
Number of Pixels in Spectrum: 3648
>>>>>Begin Spectral Data<<<<<
177.566	-143.65
177.785	-517.74
178.005	-156.04
178.225	-1727.81
178.445	304.74
178.665	312.28
178.885	-0.2
179.105	494.39
179.324	323
179.544	-231.36
179.764	-207.18
179.984	-287.15
180.204	631.22
180.423	-332.39
180.643	-555.26
180.863	1854.52
181.083	6705.79
181.302	1022.87
181.522	-2553.89
181.742	-642.24
181.961	428.16
182.181	172.7
182.401	186.09
182.621	855.3
182.84	185.18
183.06	239.95
183.279	270.88
183.499	711.4
183.719	602.66
183.938	354.16
184.158	775.73
184.377	-958.92
184.597	-265.04
184.816	-260.32
185.036	-667.22
185.256	-244.09
185.475	748.83
185.695	-9580.46
185.914	355.01
186.134	244.4
186.353	319.53
186.572	409.47
186.792	282.71
187.011	270.48
187.231	221.88
187.45	315.95
187.67	302.26
187.889	2555.38
188.108	687.17
188.328	1000.12
188.547	-893.29
188.766	-1304.71
188.986	710.16
189.205	-41668.18
189.424	901.97
189.644	6673.55
189.863	363.32
190.082	376.24
190.302	307.57
190.521	219.71
190.74	161.2
190.959	118.69
191.178	123.51
191.398	96.25
191.617	75.24
191.836	67.76
192.055	73.4
192.274	58.36
192.494	40.21
192.713	46.88
192.932	58.24
193.151	63.2
193.37	72.7
193.589	68.07
193.808	100.91
194.027	126
194.246	172.78
194.465	137.19
194.685	108.37
194.904	143.83
195.123	349.47
195.342	1734.75
195.561	229.01
195.78	183.04
195.999	193.32
196.218	408.85
196.436	-146.74
196.655	-420.17
196.874	534.47
197.093	612.37
197.312	566.27
197.531	-109.39
197.75	-220.17
197.969	-60.3
198.188	-40.5
198.407	-70.32
198.625	-372.45
198.844	-322.17
199.063	-304.84
199.282	-264.57
199.501	-136.66
199.719	-189.66
199.938	-3012.11
200.157	280.05
200.376	230.61
200.594	205.08
200.813	-4128.57
201.032	120.91
201.251	91.42
201.469	104.57
201.688	173.58
201.907	155.41
202.125	139.92
202.344	119.09
202.563	127.92
202.781	147.08
203	144.54
203.218	119.77
203.437	129.63
203.656	118.56
203.874	100.82
204.093	77.25
204.311	56.69
204.53	42.01
204.748	23.79
204.967	36.93
205.185	51.01
205.404	74.23
205.622	86.91
205.841	89.88
206.059	147.87
206.278	146.81
206.496	129.42
206.715	304.22
206.933	368.97
207.151	224.16
207.37	205.37
207.588	240.3
207.806	355.01
208.025	425.97
208.243	286.78
208.461	84.52
208.68	122.02
208.898	177.57
209.116	178.87
209.335	164.17
209.553	-363.64
209.771	229.07
209.989	-662.17
210.208	221.76
210.426	-91.4
210.644	-44.62
210.862	-77.45
211.081	-62.8
211.299	-31.73
211.517	-93.93
211.735	-99.18
211.953	-244.14
212.171	-79.73
212.39	-884.84
212.608	-2819.14
212.826	388.32
213.044	298.19
213.262	204.62
213.48	149.06
213.698	208.69
213.916	-659.36
214.134	-215.82
214.352	-658.71
214.57	507.46
214.788	133.96
215.006	90.08
215.224	117.04
215.442	85.54
215.66	117.3
215.878	154.28
216.096	156.75
216.314	117.06
216.532	125.06
216.75	121.91
216.968	114.5
217.185	172.77
217.403	213.98
217.621	228.44
217.839	253.12
218.057	4083.92
218.275	-1353.66
218.492	-155.58
218.71	-130.82
218.928	-205.87
219.146	-99.89
219.363	-56.59
219.581	-107.86
219.799	-94.06
220.017	-74.55
220.234	-79.49
220.452	-96.06
220.67	-112.98
220.887	-205.54
221.105	-103.76
221.323	-97.63
221.54	-13.9
221.758	-2.74
221.976	-7.49
222.193	-22.61
222.411	-42.61
222.629	-61.32
222.846	-85.71
223.064	-50.63
223.281	-66.55
223.499	-100.1
223.716	-89.81
223.934	-491.07
224.151	-1119.53
224.369	-647.23
224.586	291575
224.804	-1300.26
225.021	-494.19
225.239	-289.62
225.456	-318.11
225.674	-193.78
225.891	-47.3
226.108	-63.74
226.326	-50.42
226.543	-29.07
226.76	-16.81
226.978	-13.19
227.195	-11.5
227.413	-8.44
227.63	-9.99
227.847	-8.25
228.064	-8.47
228.282	-8.21
228.499	-3.38
228.716	-3.76
228.934	-3.35
229.151	-3.01
229.368	-1.57
229.585	-2.88
229.802	-1.78
230.02	0.81
230.237	2.28
230.454	4.23
230.671	3.66
230.888	1.1
231.105	5.71
231.323	4.2
231.54	7.63
231.757	1.07
231.974	-4.55
232.191	-9.76
232.408	-8.39
232.625	-19.22
232.842	-21.55
233.059	-18.85
233.276	-19.63
233.493	-19.19
233.71	-19.11
233.927	-19.75
234.144	-14.45
234.361	-12.14
234.578	-11.14
234.795	-12.48
235.012	-7.65
235.229	-9.78
235.446	-17.58
235.663	-17.74
235.879	-18.66
236.096	-13.81
236.313	-28.06
236.53	-28.22
236.747	-13.9
236.964	-14.61
237.181	-16.21
237.397	-6.02
237.614	-5.65
237.831	0.16
238.048	0.27
238.264	-3.85
238.481	-4.08
238.698	3.76
238.915	7.54
239.131	-2.48
239.348	-3.26
239.565	3.16
239.781	-1.14
239.998	-1.5
240.215	-1.51
240.431	2.57
240.648	5.37
240.865	7.07
241.081	3.91
241.298	2.63
241.514	4.46
241.731	5.59
241.947	2.72
242.164	4.31
242.38	4.96
242.597	4.95
242.814	5.11
243.03	4.39
243.246	4
243.463	6.72
243.679	7.89
243.896	8.32
244.112	8.63
244.329	9.33
244.545	8.84
244.762	8.38
244.978	9.28
245.194	7.17
245.411	6.92
245.627	5.39
245.843	4.83
246.06	5.44
246.276	5.91
246.492	5.25
246.709	5.56
246.925	5.27
247.141	5.74
247.357	5.38
247.574	5.96
247.79	6.09
248.006	6.2
248.222	6.08
248.439	5.54
248.655	5.94
248.871	6.83
249.087	6.95
249.303	6.37
249.519	6.01
249.736	4.47
249.952	4.09
250.168	2.14
250.384	3.05
250.6	1.44
250.816	2.51
251.032	-0.2
251.248	-2.19
251.464	-2.57
251.68	-2.23
251.896	-1.08
252.112	-1.07
252.328	0.4
252.544	1.95
252.76	0.01
252.976	1.69
253.192	0.14
253.408	-1.76
253.624	-1.86
253.84	-2.34
254.056	-3.89
254.272	-6.44
254.487	-4
254.703	-5.35
254.919	-3.97
255.135	-4.15
255.351	-6.54
255.567	-6.17
255.782	-4.92
255.998	-5.62
256.214	-6.8
256.43	-2.88
256.646	-0.72
256.861	-3.2
257.077	-5.1
257.293	-7.08
257.508	-4.06
257.724	-5.48
257.94	-5.04
258.155	-2.79
258.371	0.32
258.587	1.57
258.802	1.51
259.018	0.55
259.234	2.32
259.449	2.91
259.665	2.87
259.88	3
260.096	4.09
260.312	3.62
260.527	3.68
260.743	3.01
260.958	2.65
261.174	2.58
261.389	2.54
261.605	1.42
261.82	2.27
262.036	2.16
262.251	2.38
262.466	1.95
262.682	0.91
262.897	1.71
263.113	1.16
263.328	1.33
263.543	1.07
263.759	0.22
263.974	0.44
264.189	-4.44
264.405	-4.9
264.62	-7.1
264.835	-8.31
265.051	-3.55
265.266	-7.11
265.481	-5.64
265.696	-6.51
265.912	-7.23
266.127	-5.23
266.342	-4.96
266.557	-4.52
266.773	-3.08
266.988	-3.77
267.203	-3.32
267.418	-4.58
267.633	-3.99
267.848	-4.14
268.064	-2.43
268.279	-2.43
268.494	-3.14
268.709	-2.53
268.924	-0.34
269.139	-0.75
269.354	0.97
269.569	2.66
269.784	2.45
269.999	1.86
270.214	1.34
270.429	-0.61
270.644	0.18
270.859	0.2
271.074	1.79
271.289	1.64
271.504	2.38
271.719	1.01
271.934	0.46
272.149	1.09
272.363	0.86
272.578	1.4
272.793	2.97
273.008	2.53
273.223	3.61
273.438	2.08
273.653	1.95
273.867	1.81
274.082	1.88
274.297	1.67
274.512	0.24
274.726	2.49
274.941	1.84
275.156	1.36
275.371	1.34
275.585	1.39
275.8	1.43
276.015	0.28
276.229	-1.2
276.444	0.2
276.659	-2.06
276.873	-2.48
277.088	-3.02
277.302	-3.37
277.517	-5.06
277.732	-4.92
277.946	-6.7
278.161	-7.3
278.375	-6.52
278.59	-5.35
278.804	-7.01
279.019	-5.77
279.233	-1.92
279.448	-1.52
279.662	-2
279.877	-0.65
280.091	1.32
280.306	2.08
280.52	2
280.735	0.52
280.949	1.17
281.163	2.97
281.378	3.93
281.592	2.8
281.806	2.08
282.021	2
282.235	1.29
282.449	-0.85
282.664	-1.6
282.878	-0.85
283.092	0.56
283.307	-0.67
283.521	-0.71
283.735	0.34
283.949	-1.02
284.164	-0.37
284.378	1.33
284.592	2.05
284.806	2.73
285.02	3.35
285.234	3.3
285.449	3.51
285.663	4.25
285.877	4.26
286.091	3.38
286.305	4.53
286.519	4.74
286.733	4.13
286.947	4.15
287.161	4.49
287.375	4.25
287.589	3.39
287.803	4
288.017	3.4
288.231	2.1
288.445	2.47
288.659	2.13
288.873	0.67
289.087	-0.65
289.301	-0.46
289.515	0.18
289.729	0.67
289.943	1.46
290.157	0.29
290.371	0.13
290.584	0.43
290.798	-0.03
291.012	-0.6
291.226	0.43
291.44	2.11
291.654	1.84
291.867	2.01
292.081	1.93
292.295	1.53
292.509	2.27
292.722	2.85
292.936	2.47
293.15	3.98
293.364	4.73
293.577	4.52
293.791	4.32
294.005	4.58
294.218	3.66
294.432	3.95
294.645	5.35
294.859	4.26
295.073	4.12
295.286	4.5
295.5	3.7
295.713	3.74
295.927	4.86
296.14	4.89
296.354	4.31
296.568	4.78
296.781	4.08
296.994	2.11
297.208	2.35
297.421	4.49
297.635	5.19
297.848	5.16
298.062	5.52
298.275	5.03
298.489	4.6
298.702	5.4
298.915	5.05
299.129	6.04
299.342	7.56
299.555	8.32
299.769	7.02
299.982	7.3
300.195	7.83
300.409	8.32
300.622	8.2
300.835	8.18
301.048	8.53
301.262	9.06
301.475	8.22
301.688	8.39
301.901	8.71
302.115	7.66
302.328	7.93
302.541	7.26
302.754	7.25
302.967	6.23
303.18	7.15
303.393	6.91
303.607	7.11
303.82	7.97
304.033	8.09
304.246	7.9
304.459	7.1
304.672	6.05
304.885	6.09
305.098	3.77
305.311	5.04
305.524	3.92
305.737	3.17
305.95	2.89
306.163	2.35
306.376	3.09
306.589	2.83
306.802	4.19
307.015	3.42
307.228	3.58
307.44	5.24
307.653	4.78
307.866	4.53
308.079	5.31
308.292	5.58
308.505	6.99
308.718	6.3
308.93	6.69
309.143	7.1
309.356	7
309.569	6.83
309.781	6.76
309.994	5.86
310.207	7.22
310.42	6.64
310.632	6.57
310.845	6.05
311.058	6.34
311.27	5.11
311.483	5.2
311.696	5.11
311.908	4.8
312.121	4.24
312.333	5.6
312.546	6.65
312.759	7.43
312.971	6.72
313.184	5.92
313.396	6.12
313.609	7.32
313.821	7.23
314.034	8.78
314.246	9.58
314.459	10.18
314.671	10.08
314.884	8.81
315.096	9.02
315.309	9.61
315.521	10.06
315.733	9.2
315.946	9.31
316.158	8.69
316.371	7.25
316.583	6.42
316.795	7.32
317.008	6.73
317.22	6.09
317.432	5.39
317.644	4.68
317.857	5.07
318.069	4.87
318.281	4.48
318.494	4.34
318.706	3.77
318.918	4.19
319.13	2.87
319.342	2.39
319.555	1.22
319.767	-0.41
319.979	0.87
320.191	1.17
320.403	1.45
320.615	1.6
320.827	1.92
321.039	3.84
321.252	4.88
321.464	4.68
321.676	4.05
321.888	4.79
322.1	6.29
322.312	4.94
322.524	5.95
322.736	7.13
322.948	7.24
323.16	9.01
323.372	9.06
323.584	7.64
323.796	7.55
324.007	8.72
324.219	8.8
324.431	9.38
324.643	10.1
324.855	8.89
325.067	7.78
325.279	7.98
325.491	5.92
325.702	6.3
325.914	7.22
326.126	8.13
326.338	7.75
326.55	9.28
326.761	9.85
326.973	10.06
327.185	10.5
327.396	10.47
327.608	10.32
327.82	11.52
328.032	11.25
328.243	11.83
328.455	11.8
328.666	12.07
328.878	12.14
329.09	10.46
329.301	9.39
329.513	9.33
329.725	10.15
329.936	10.54
330.148	10.16
330.359	9.95
330.571	9.92
330.782	9.84
330.994	10.3
331.205	9.65
331.417	11.51
331.628	11.83
331.84	11.96
332.051	12.62
332.262	12.71
332.474	12.51
332.685	13.48
332.897	12.91
333.108	13.24
333.319	13.96
333.531	13.34
333.742	12.49
333.953	14.02
334.165	13.08
334.376	12.18
334.587	13.3
334.799	13.69
335.01	13.26
335.221	13.97
335.432	14.63
335.644	13.78
335.855	14.45
336.066	14.27
336.277	13.83
336.488	15.27
336.7	16.2
336.911	15.99
337.122	15.94
337.333	16.48
337.544	15.63
337.755	15.53
337.966	14.52
338.177	14.17
338.388	14.38
338.599	13.76
338.811	13.4
339.022	13.18
339.233	12.71
339.444	12.64
339.655	12.54
339.866	13.85
340.076	13.92
340.287	14.98
340.498	16.03
340.709	16.3
340.92	16.96
341.131	16.56
341.342	16.58
341.553	16.36
341.764	16.21
341.975	14.95
342.185	14.08
342.396	13.87
342.607	13.67
342.818	12.19
343.029	11.13
343.239	11.32
343.45	11.06
343.661	11.21
343.872	11.14
344.082	11.53
344.293	12.54
344.504	12.53
344.714	12.53
344.925	13.57
345.136	13.82
345.346	15.38
345.557	15.38
345.768	15.42
345.978	15.65
346.189	16.07
346.399	16.52
346.61	16.68
346.821	17.1
347.031	16.67
347.242	16.05
347.452	15.95
347.663	15.03
347.873	15.65
348.084	15.9
348.294	15.1
348.504	14.07
348.715	13.92
348.925	13.47
349.136	12.85
349.346	12.95
349.557	13.82
349.767	14.17
349.977	14.24
350.188	13.35
350.398	13.2
350.608	13.38
350.819	14.35
351.029	13.65
351.239	13.5
351.449	13.5
351.66	14.31
351.87	13.52
352.08	13.33
352.29	13.74
352.501	13.89
352.711	13.75
352.921	14.32
353.131	14.5
353.341	14.61
353.552	14.81
353.762	15.4
353.972	15.07
354.182	15.51
354.392	14.89
354.602	14.65
354.812	13.79
355.022	13.92
355.232	13.49
355.442	12.49
355.652	12.47
355.862	12.95
356.072	12.38
356.282	11.8
356.492	11.06
356.702	12.23
356.912	12.05
357.122	11.72
357.332	11.55
357.542	11.4
357.752	12.07
357.962	12.29
358.171	12
358.381	11.96
358.591	12.7
358.801	13.33
359.011	12.82
359.221	12.82
359.43	13.48
359.64	14.04
359.85	14.5
360.06	14.65
360.269	15.02
360.479	14.81
360.689	15.12
360.899	14.77
361.108	14.5
361.318	14.73
361.528	14.66
361.737	14.86
361.947	14.97
362.156	14.81
362.366	14.53
362.576	13.78
362.785	13.75
362.995	13.52
363.204	13.47
363.414	13.12
363.623	13.06
363.833	13.21
364.042	12.74
364.252	12.68
364.461	12.63
364.671	12.51
364.88	13.3
365.09	13.25
365.299	13.5
365.509	13.28
365.718	13.86
365.927	13.08
366.137	12.93
366.346	13.52
366.555	12.78
366.765	12.53
366.974	13.11
367.183	12.27
367.393	12.46
367.602	12.38
367.811	12.58
368.021	12.69
368.23	13.51
368.439	13.54
368.648	13.07
368.857	13.53
369.067	13.49
369.276	13.63
369.485	14.18
369.694	14.15
369.903	14.04
370.112	13.9
370.321	13.04
370.531	12.52
370.74	12.25
370.949	12.12
371.158	11.7
371.367	11.76
371.576	11.17
371.785	11.32
371.994	10.87
372.203	11.16
372.412	11.41
372.621	11.83
372.83	12.73
373.039	12.85
373.248	13.81
373.457	14.05
373.666	13.95
373.874	13.65
374.083	14.04
374.292	14.18
374.501	13.88
374.71	13.56
374.919	13.88
375.128	13.11
375.336	12.55
375.545	11.9
375.754	11.7
375.963	11.22
376.171	11.42
376.38	10.49
376.589	10.4
376.798	9.91
377.006	9.58
377.215	9.48
377.424	9.32
377.632	9.88
377.841	9.81
378.05	9.12
378.258	9.02
378.467	8.76
378.675	8.44
378.884	8.34
379.093	8.45
379.301	8.79
379.51	8.37
379.718	8.61
379.927	8.36
380.135	7.9
380.344	8.58
380.552	8.99
380.761	8.92
380.969	9.29
381.177	9.3
381.386	9.07
381.594	8.54
381.803	8.32
382.011	8.24
382.219	7.95
382.428	8
382.636	7.94
382.845	7.36
383.053	7.62
383.261	7.04
383.469	7.21
383.678	7.48
383.886	8.13
384.094	8.11
384.302	7.88
384.511	7.94
384.719	8.15
384.927	8.47
385.135	9.09
385.343	8.93
385.552	9.68
385.76	9.32
385.968	9.15
386.176	8.74
386.384	9.04
386.592	9.04
386.8	8.92
387.008	8.59
387.216	8.22
387.424	8.29
387.633	8.28
387.841	7.88
388.049	7.9
388.257	8.19
388.465	8.41
388.672	7.99
388.88	8.09
389.088	8.15
389.296	8.18
389.504	8.38
389.712	7.95
389.92	7.9
390.128	7.79
390.336	7.56
390.544	7.59
390.751	7.31
390.959	7.46
391.167	7.56
391.375	7.62
391.583	7.91
391.79	7.42
391.998	7.47
392.206	7.29
392.414	7.49
392.621	8
392.829	7.91
393.037	7.84
393.244	7.71
393.452	7.54
393.66	7.59
393.867	7.28
394.075	7.67
394.283	7.44
394.49	7.44
394.698	7.33
394.905	6.93
395.113	6.39
395.32	6.5
395.528	6.5
395.735	6.5
395.943	6.07
396.15	5.95
396.358	5.79
396.565	6.05
396.773	6
396.98	5.85
397.188	5.94
397.395	6.56
397.602	6.41
397.81	6.58
398.017	6.59
398.225	6.9
398.432	7.05
398.639	7.29
398.847	6.87
399.054	6.8
399.261	6.73
399.468	6.68
399.676	6.52
399.883	6.57
400.09	6.55
400.297	6.12
400.505	6.17
400.712	6.44
400.919	6.11
401.126	6.37
401.333	6.48
401.54	6.47
401.748	6.51
401.955	6.3
402.162	6.33
402.369	6.13
402.576	6.3
402.783	6.22
402.99	5.9
403.197	6.15
403.404	5.63
403.611	5.46
403.818	5.36
404.025	5.4
404.232	5.57
404.439	5.52
404.646	5.29
404.853	5.35
405.06	5.28
405.267	5.32
405.474	4.91
405.681	5.46
405.887	5.5
406.094	5.93
406.301	5.85
406.508	5.92
406.715	5.99
406.922	6.06
407.128	6.07
407.335	6.05
407.542	5.94
407.749	6.09
407.955	6.05
408.162	6.36
408.369	6.2
408.575	6.04
408.782	6.03
408.989	5.93
409.195	6.3
409.402	6.3
409.609	6.44
409.815	6.59
410.022	6.63
410.228	6.5
410.435	6.45
410.642	6.41
410.848	6.42
411.055	6.31
411.261	6.11
411.468	5.99
411.674	5.85
411.881	5.94
412.087	5.85
412.294	5.94
412.5	6.09
412.706	5.85
412.913	5.49
413.119	5.75
413.326	5.54
413.532	5.6
413.738	5.53
413.945	5.53
414.151	5.34
414.357	5.3
414.564	5.33
414.77	5.15
414.976	5.3
415.182	5.49
415.389	5.52
415.595	5.91
415.801	5.76
416.007	5.77
416.214	5.64
416.42	5.6
416.626	5.68
416.832	5.51
417.038	5.45
417.244	5.5
417.45	5.45
417.657	5.17
417.863	5.06
418.069	5.16
418.275	5.23
418.481	5.32
418.687	5.35
418.893	5.18
419.099	5.28
419.305	5.46
419.511	5.4
419.717	5.61
419.923	5.76
420.129	5.78
420.335	5.83
420.541	5.78
420.746	5.85
420.952	5.95
421.158	6.03
421.364	5.88
421.57	5.75
421.776	5.58
421.982	5.38
422.187	5.26
422.393	5.24
422.599	5.31
422.805	5.23
423.01	5.31
423.216	5.17
423.422	5.07
423.628	5.19
423.833	5.35
424.039	5.53
424.245	5.6
424.45	5.64
424.656	5.6
424.862	5.56
425.067	5.66
425.273	5.7
425.478	5.74
425.684	5.92
425.889	5.88
426.095	5.69
426.301	5.67
426.506	5.78
426.712	5.88
426.917	5.97
427.123	6.01
427.328	5.83
427.533	5.53
427.739	5.61
427.944	5.61
428.15	5.44
428.355	5.68
428.561	5.59
428.766	5.32
428.971	5.18
429.177	5.04
429.382	4.77
429.587	5.08
429.793	4.95
429.998	4.86
430.203	4.84
430.408	4.8
430.614	4.58
430.819	4.68
431.024	4.59
431.229	4.69
431.434	4.6
431.64	4.71
431.845	4.49
432.05	4.94
432.255	4.84
432.46	4.67
432.665	4.89
432.87	4.93
433.076	5.03
433.281	5.05
433.486	4.95
433.691	4.86
433.896	4.79
434.101	5.05
434.306	4.92
434.511	4.8
434.716	4.82
434.921	4.66
435.126	4.66
435.331	4.41
435.535	4.62
435.74	4.76
435.945	5
436.15	5.22
436.355	4.98
436.56	4.87
436.765	5.11
436.97	5.26
437.174	5.47
437.379	5.32
437.584	5.39
437.789	5.41
437.993	5.4
438.198	5.35
438.403	5.26
438.608	5.28
438.812	5.22
439.017	5.16
439.222	5.17
439.426	5.12
439.631	5.17
439.836	5.32
440.04	5.3
440.245	5.26
440.45	5.2
440.654	5.29
440.859	5.25
441.063	5.21
441.268	5.29
441.472	5.25
441.677	5.13
441.881	5.21
442.086	5.1
442.29	4.98
442.495	4.91
442.699	4.84
442.904	4.71
443.108	4.79
443.312	4.96
443.517	4.87
443.721	4.84
443.925	5
444.13	5
444.334	4.94
444.538	5.09
444.743	5.17
444.947	5.3
445.151	5.26
445.356	5.3
445.56	5.15
445.764	4.99
445.968	4.96
446.173	4.96
446.377	4.9
446.581	5
446.785	4.92
446.989	4.95
447.193	4.88
447.398	4.91
447.602	4.83
447.806	4.9
448.01	4.98
448.214	5.03
448.418	4.98
448.622	5.08
448.826	5.07
449.03	5.21
449.234	5.05
449.438	5.09
449.642	5.16
449.846	5.12
450.05	5.12
450.254	5.22
450.458	5.19
450.662	5.15
450.866	4.92
451.069	4.84
451.273	4.88
451.477	4.95
451.681	4.98
451.885	4.8
452.089	4.8
452.292	4.8
452.496	5.01
452.7	5
452.904	5.01
453.107	5
453.311	4.96
453.515	4.83
453.719	4.89
453.922	4.93
454.126	5.02
454.33	5.06
454.533	4.87
454.737	4.74
454.94	4.71
455.144	4.8
455.348	5.02
455.551	4.97
455.755	4.88
455.958	4.59
456.162	4.5
456.365	4.33
456.569	4.44
456.772	4.74
456.976	4.41
457.179	4.48
457.383	4.51
457.586	4.41
457.79	4.44
457.993	4.48
458.196	4.62
458.4	4.56
458.603	4.78
458.807	4.83
459.01	4.77
459.213	4.89
459.417	4.76
459.62	4.64
459.823	4.59
460.026	4.63
460.23	4.63
460.433	4.59
460.636	4.63
460.839	4.63
461.042	4.66
461.246	4.62
461.449	4.68
461.652	4.8
461.855	4.85
462.058	4.97
462.261	4.81
462.464	4.93
462.668	5.19
462.871	5.28
463.074	5.16
463.277	5.09
463.48	5.04
463.683	4.99
463.886	5.04
464.089	4.92
464.292	4.79
464.495	4.87
464.698	4.93
464.901	4.9
465.104	4.89
465.306	5
465.509	4.9
465.712	5.07
465.915	5.23
466.118	5.43
466.321	5.42
466.524	5.36
466.726	5.7
466.929	5.5
467.132	5.1
467.335	5.17
467.538	5.29
467.74	5.33
467.943	5.27
468.146	5.16
468.348	4.9
468.551	5.13
468.754	5.36
468.956	5.29
469.159	5.36
469.362	5.7
469.564	5.63
469.767	5.45
469.969	5.45
470.172	5.31
470.375	5.28
470.577	5.12
470.78	4.98
470.982	5.03
471.185	4.87
471.387	4.8
471.59	4.7
471.792	4.81
471.995	4.82
472.197	4.77
472.399	4.83
472.602	4.88
472.804	4.96
473.007	5
473.209	4.76
473.411	4.67
473.614	4.59
473.816	4.55
474.018	4.53
474.22	4.51
474.423	4.47
474.625	4.39
474.827	4.41
475.03	4.46
475.232	4.47
475.434	4.65
475.636	4.82
475.838	4.97
476.04	5.21
476.243	5.22
476.445	5.19
476.647	5.19
476.849	5.39
477.051	5.25
477.253	5.3
477.455	5.29
477.657	5.15
477.859	5.23
478.061	5.14
478.263	5.03
478.465	4.82
478.667	4.92
478.869	4.86
479.071	4.58
479.273	4.54
479.475	4.64
479.677	4.61
479.879	4.61
480.081	4.56
480.283	4.51
480.485	4.57
480.686	4.64
480.888	4.47
481.09	4.53
481.292	4.79
481.494	4.9
481.695	4.69
481.897	4.82
482.099	4.85
482.301	4.81
482.502	4.94
482.704	4.89
482.906	4.93
483.107	5.01
483.309	5.05
483.511	5.1
483.712	5.09
483.914	5.12
484.115	5.12
484.317	5.18
484.519	5.19
484.72	5.16
484.922	5.18
485.123	5.15
485.325	5.15
485.526	5.19
485.728	5.11
485.929	5.18
486.131	5.23
486.332	5.15
486.534	5.06
486.735	5.04
486.936	5.05
487.138	5.05
487.339	5.1
487.541	5.09
487.742	5.04
487.943	5.06
488.144	5.04
488.346	5.03
488.547	5.12
488.748	5.16
488.95	5.19
489.151	5.17
489.352	5.16
489.553	5.13
489.755	5.15
489.956	5.05
490.157	5.09
490.358	5.08
490.559	5.07
490.76	5
490.961	5.01
491.163	5.02
491.364	5.1
491.565	5.1
491.766	5.14
491.967	5.18
492.168	5.31
492.369	5.26
492.57	5.24
492.771	5.17
492.972	5.18
493.173	5.17
493.374	5.08
493.575	4.97
493.776	5
493.976	4.91
494.177	4.77
494.378	4.73
494.579	4.61
494.78	4.63
494.981	4.76
495.182	4.8
495.382	4.78
495.583	4.94
495.784	5
495.985	4.96
496.185	5.01
496.386	4.97
496.587	4.92
496.788	4.94
496.988	4.89
497.189	4.94
497.39	4.92
497.59	4.89
497.791	4.83
497.992	4.9
498.192	4.88
498.393	4.81
498.593	4.9
498.794	4.93
498.994	5.08
499.195	5.09
499.395	5.13
499.596	5.11
499.796	5.17
499.997	5.18
500.197	5.04
500.398	5.1
500.598	5.3
500.799	5.31
500.999	5.41
501.199	5.48
501.4	5.51
501.6	5.5
501.801	5.42
502.001	5.5
502.201	5.55
502.402	5.69
502.602	5.75
502.802	5.78
503.002	5.9
503.203	6.01
503.403	6
503.603	5.99
503.803	5.9
504.003	5.97
504.204	5.92
504.404	5.96
504.604	5.93
504.804	5.93
505.004	5.71
505.204	5.67
505.404	5.49
505.604	5.35
505.804	5.37
506.005	5.44
506.205	5.52
506.405	5.6
506.605	5.7
506.805	5.71
507.005	5.6
507.204	5.84
507.404	5.85
507.604	5.91
507.804	6.1
508.004	6.27
508.204	6.3
508.404	6.26
508.604	6.17
508.804	6.18
509.003	6.35
509.203	6.51
509.403	6.46
509.603	6.54
509.803	6.72
510.002	6.78
510.202	6.74
510.402	6.77
510.602	6.89
510.801	7.08
511.001	7.15
511.201	7.02
511.4	7.06
511.6	7.24
511.8	7.14
511.999	7
512.199	7
512.398	7.01
512.598	7.04
512.797	7.15
512.997	7.01
513.197	6.98
513.396	7.06
513.596	7.15
513.795	7.03
513.994	7.25
514.194	7.39
514.393	7.44
514.593	7.54
514.792	7.53
514.992	7.6
515.191	7.83
515.39	7.8
515.59	7.99
515.789	7.96
515.988	7.95
516.188	8.05
516.387	8.15
516.586	8.12
516.786	8.12
516.985	8.22
517.184	8.13
517.383	8.1
517.582	8.16
517.782	8.13
517.981	8.19
518.18	8.26
518.379	8.17
518.578	8.13
518.777	8.13
518.976	8.15
519.176	8.15
519.375	8.25
519.574	8.33
519.773	8.4
519.972	8.39
520.171	8.39
520.37	8.46
520.569	8.53
520.768	8.58
520.967	8.65
521.166	8.71
521.365	8.75
521.564	8.7
521.762	8.55
521.961	8.51
522.16	8.57
522.359	8.71
522.558	8.91
522.757	9.04
522.956	9.02
523.154	9.08
523.353	9.16
523.552	9.25
523.751	9.47
523.949	9.74
524.148	9.82
524.347	10.02
524.546	10.03
524.744	9.99
524.943	10.07
525.142	10.14
525.34	10.2
525.539	10.32
525.737	10.39
525.936	10.38
526.135	10.41
526.333	10.4
526.532	10.39
526.73	10.37
526.929	10.4
527.127	10.39
527.326	10.51
527.524	10.57
527.723	10.58
527.921	10.69
528.12	10.77
528.318	10.77
528.516	10.87
528.715	10.93
528.913	11.01
529.112	11.04
529.31	11.08
529.508	11.1
529.707	11.12
529.905	11.18
530.103	11.2
530.301	11.16
530.5	11.29
530.698	11.34
530.896	11.31
531.094	11.43
531.293	11.57
531.491	11.58
531.689	11.59
531.887	11.64
532.085	11.68
532.283	11.66
532.481	11.86
532.68	11.82
532.878	11.87
533.076	12.03
533.274	12.03
533.472	11.98
533.67	12.01
533.868	12.11
534.066	12.22
534.264	12.33
534.462	12.43
534.66	12.42
534.858	12.46
535.056	12.61
535.253	12.58
535.451	12.54
535.649	12.68
535.847	12.91
536.045	12.87
536.243	12.95
536.441	13.02
536.638	12.94
536.836	12.95
537.034	13.11
537.232	13.02
537.43	13.14
537.627	13.22
537.825	13.26
538.023	13.28
538.22	13.32
538.418	13.32
538.616	13.24
538.813	13.47
539.011	13.4
539.209	13.3
539.406	13.35
539.604	13.42
539.801	13.52
539.999	13.6
540.196	13.6
540.394	13.81
540.591	13.98
540.789	14.11
540.986	14.23
541.184	14.37
541.381	14.55
541.579	14.59
541.776	14.7
541.974	14.84
542.171	14.83
542.368	14.94
542.566	14.93
542.763	14.94
542.96	14.96
543.158	14.91
543.355	14.94
543.552	14.89
543.75	15
543.947	14.93
544.144	14.89
544.341	14.97
544.539	15.03
544.736	15.2
544.933	15.18
545.13	15.31
545.327	15.46
545.524	15.59
545.722	15.67
545.919	15.69
546.116	15.92
546.313	16.02
546.51	16.17
546.707	16.2
546.904	16.27
547.101	16.46
547.298	16.44
547.495	16.51
547.692	16.67
547.889	16.94
548.086	17.13
548.283	17.22
548.48	17.33
548.677	17.39
548.874	17.46
549.07	17.53
549.267	17.53
549.464	17.66
549.661	17.63
549.858	17.69
550.055	17.53
550.251	17.49
550.448	17.65
550.645	17.85
550.842	18.01
551.038	18.12
551.235	18.22
551.432	18.2
551.628	18.35
551.825	18.65
552.022	18.78
552.218	18.88
552.415	19.25
552.612	19.17
552.808	19.05
553.005	19.18
553.201	19.27
553.398	19.25
553.594	19.47
553.791	19.51
553.987	19.56
554.184	19.56
554.38	19.59
554.577	19.41
554.773	19.45
554.97	19.49
555.166	19.29
555.362	19.53
555.559	19.8
555.755	19.88
555.952	20.03
556.148	20.26
556.344	20.3
556.541	20.71
556.737	20.9
556.933	20.89
557.129	21.16
557.326	21.4
557.522	21.47
557.718	21.52
557.914	21.77
558.11	21.75
558.307	21.74
558.503	21.95
558.699	21.88
558.895	21.96
559.091	22.11
559.287	22.19
559.483	22.25
559.679	22.54
559.876	22.59
560.072	22.54
560.268	22.65
560.464	22.57
560.66	22.7
560.856	22.72
561.052	22.86
561.247	23.12
561.443	23
561.639	23.22
561.835	23.07
562.031	23.06
562.227	23.24
562.423	23.32
562.619	23.44
562.815	23.65
563.01	23.55
563.206	23.48
563.402	23.61
563.598	23.91
563.793	23.97
563.989	24.06
564.185	24.24
564.381	24.15
564.576	24.41
564.772	24.41
564.968	24.24
565.163	24.45
565.359	24.56
565.555	24.57
565.75	24.51
565.946	24.58
566.141	24.5
566.337	24.58
566.532	24.7
566.728	24.59
566.923	24.7
567.119	24.8
567.314	24.95
567.51	25.03
567.705	25.03
567.901	25.15
568.096	25.33
568.292	25.32
568.487	25.41
568.682	25.48
568.878	25.54
569.073	25.75
569.268	25.75
569.464	25.96
569.659	26
569.854	25.9
570.05	25.95
570.245	25.63
570.44	25.76
570.635	25.84
570.831	26.04
571.026	26.1
571.221	26.11
571.416	26.29
571.611	26.31
571.806	26.4
572.002	26.66
572.197	26.65
572.392	26.86
572.587	26.95
572.782	27
572.977	26.93
573.172	27.01
573.367	27.14
573.562	27.1
573.757	27.06
573.952	27.25
574.147	27.17
574.342	27.12
574.537	27.11
574.732	27.18
574.927	27.21
575.121	27.29
575.316	27.39
575.511	27.3
575.706	27.34
575.901	27.42
576.096	27.18
576.29	27.3
576.485	27.55
576.68	27.52
576.875	27.54
577.069	27.5
577.264	27.47
577.459	27.43
577.654	27.57
577.848	27.7
578.043	27.53
578.238	27.76
578.432	27.74
578.627	27.92
578.821	28.12
579.016	28.08
579.21	28.15
579.405	28.18
579.6	28.24
579.794	28.27
579.989	27.96
580.183	28.1
580.378	28.15
580.572	28.18
580.766	28.13
580.961	28.07
581.155	28.33
581.35	28.18
581.544	27.93
581.738	28.05
581.933	27.74
582.127	27.99
582.321	28.28
582.516	28.53
582.71	28.6
582.904	28.54
583.099	29.01
583.293	29.11
583.487	29.4
583.681	29.35
583.875	29.27
584.07	29.35
584.264	29.45
584.458	29.53
584.652	29.29
584.846	29.27
585.04	29.28
585.234	28.87
585.428	28.77
585.623	28.59
585.817	28.85
586.011	28.84
586.205	29.03
586.399	29.1
586.593	28.92
586.787	29.01
586.981	29.23
587.174	29.35
587.368	29.54
587.562	29.64
587.756	29.89
587.95	30.22
588.144	30.47
588.338	30.38
588.532	30.61
588.725	30.88
588.919	30.81
589.113	30.65
589.307	30.75
589.501	30.98
589.694	31.02
589.888	30.96
590.082	30.56
590.275	30.44
590.469	30.81
590.663	30.9
590.856	30.56
591.05	30.88
591.244	30.98
591.437	30.8
591.631	30.6
591.824	30.51
592.018	30.56
592.212	30.85
592.405	30.99
592.599	30.76
592.792	30.4
592.986	30.75
593.179	30.43
593.372	30.64
593.566	30.82
593.759	30.85
593.953	30.86
594.146	30.97
594.339	30.89
594.533	30.97
594.726	30.85
594.92	31.01
595.113	30.83
595.306	30.71
595.499	30.78
595.693	30.65
595.886	30.65
596.079	30.82
596.272	31.08
596.466	31.3
596.659	31.3
596.852	31.46
597.045	31.44
597.238	31.56
597.431	31.74
597.624	31.54
597.818	31.75
598.011	31.79
598.204	31.64
598.397	31.35
598.59	31.23
598.783	31.23
598.976	31.09
599.169	31.09
599.362	31.1
599.555	30.88
599.748	31.03
599.941	30.94
600.134	30.91
600.326	31.02
600.519	31.11
600.712	31.22
600.905	30.99
601.098	31.25
601.291	31.12
601.483	31.01
601.676	31.43
601.869	31.41
602.062	31.51
602.255	31.48
602.447	31.61
602.64	31.49
602.833	31.52
603.025	31.68
603.218	31.83
603.411	31.91
603.603	31.9
603.796	31.84
603.989	31.87
604.181	31.72
604.374	31.73
604.566	31.67
604.759	31.84
604.951	31.85
605.144	31.78
605.336	31.45
605.529	31.55
605.721	31.69
605.914	31.62
606.106	31.55
606.299	31.65
606.491	31.73
606.683	31.71
606.876	31.37
607.068	31.33
607.26	31.44
607.453	31.79
607.645	31.75
607.837	31.7
608.03	32.04
608.222	32.19
608.414	32.04
608.606	31.9
608.799	32.26
608.991	32.73
609.183	32.72
609.375	32.81
609.567	32.78
609.759	32.73
609.952	32.73
610.144	32.49
610.336	32.37
610.528	32.65
610.72	32.87
610.912	32.47
611.104	32.18
611.296	32.22
611.488	32.25
611.68	32.33
611.872	32.54
612.064	32.43
612.256	32.6
612.448	32.72
612.64	32.66
612.832	32.35
613.023	32.43
613.215	32.33
613.407	32.33
613.599	32.04
613.791	31.89
613.983	31.71
614.174	31.86
614.366	31.47
614.558	31.44
614.75	31.44
614.941	31.95
615.133	32.03
615.325	32.31
615.516	32.42
615.708	32.62
615.9	32.78
616.091	32.64
616.283	32.41
616.475	32.61
616.666	32.65
616.858	32.45
617.049	32.55
617.241	32.56
617.432	32.23
617.624	32.13
617.815	31.87
618.007	31.71
618.198	31.99
618.39	32.04
618.581	32.07
618.773	32.22
618.964	32.31
619.155	32.11
619.347	32.22
619.538	32.63
619.729	32.59
619.921	32.76
620.112	32.59
620.303	32.49
620.494	32.64
620.686	32.66
620.877	32.36
621.068	32.55
621.259	32.46
621.451	32.52
621.642	32.28
621.833	32.58
622.024	32.54
622.215	32.74
622.406	32.66
622.597	32.55
622.788	32.69
622.98	32.88
623.171	32.61
623.362	32.83
623.553	32.87
623.744	32.95
623.935	32.69
624.126	33.08
624.317	33.12
624.508	33.29
624.698	33.59
624.889	33.18
625.08	32.78
625.271	32.96
625.462	32.58
625.653	32.49
625.844	32.43
626.034	32.76
626.225	32.62
626.416	32.64
626.607	32.74
626.798	32.69
626.988	32.87
627.179	33.18
627.37	33.14
627.56	33.39
627.751	33.32
627.942	33.38
628.132	33.33
628.323	33.15
628.514	33.35
628.704	33.23
628.895	33.24
629.085	33.4
629.276	33.3
629.466	33.39
629.657	33.26
629.847	33.46
630.038	33.75
630.228	33.49
630.419	33.6
630.609	33.29
630.8	33.16
630.99	33.46
631.181	33.63
631.371	33.93
631.561	33.74
631.752	33.85
631.942	33.48
632.132	33.4
632.323	33.62
632.513	33.91
632.703	34.07
632.893	34.11
633.084	33.87
633.274	33.77
633.464	33.44
633.654	33.55
633.844	33.59
634.034	33.8
634.225	33.85
634.415	34.07
634.605	34.02
634.795	34.25
634.985	34.44
635.175	34.44
635.365	34.29
635.555	34.42
635.745	34.46
635.935	34.42
636.125	34.58
636.315	34.35
636.505	34.22
636.695	34.36
636.885	34.02
637.075	33.91
637.265	33.57
637.455	33.6
637.644	33.5
637.834	33.53
638.024	33.5
638.214	33.23
638.404	33.55
638.593	33.34
638.783	33.1
638.973	33.23
639.163	33.13
639.352	33.44
639.542	33.55
639.732	33.85
639.921	34.3
640.111	34.22
640.301	34.43
640.49	34.26
640.68	34.45
640.87	34.57
641.059	34.93
641.249	35.13
641.438	35.22
641.628	35.23
641.817	35.1
642.007	34.44
642.196	34.92
642.386	34.59
642.575	34.32
642.764	34.35
642.954	34.4
643.143	34.22
643.333	34.49
643.522	34.28
643.711	34.18
643.901	34.11
644.09	34.26
644.279	33.61
644.469	33.93
644.658	34.27
644.847	34.05
645.036	33.82
645.226	33.76
645.415	33.83
645.604	34.06
645.793	34.47
645.982	34.77
646.171	35.03
646.361	35.26
646.55	35.25
646.739	34.84
646.928	35.2
647.117	35.18
647.306	35.08
647.495	34.95
647.684	34.86
647.873	34.7
648.062	34.38
648.251	34.23
648.44	34.03
648.629	33.91
648.818	34.23
649.007	33.66
649.196	33.6
649.384	33.8
649.573	33.72
649.762	33.91
649.951	33.77
650.14	33.55
650.328	33.66
650.517	33.96
650.706	34.37
650.895	34.28
651.083	34.02
651.272	34.21
651.461	33.84
651.65	33.57
651.838	33.16
652.027	33.54
652.216	34.04
652.404	33.96
652.593	34.08
652.781	33.83
652.97	34.05
653.158	34.61
653.347	34.4
653.535	34.53
653.724	34.56
653.912	34.5
654.101	34.39
654.289	34.26
654.478	34.05
654.666	33.84
654.855	33.68
655.043	33.52
655.231	33.6
655.42	33.5
655.608	33.69
655.796	33.7
655.985	33.75
656.173	33.34
656.361	33.1
656.55	33.17
656.738	33.19
656.926	33.35
657.114	33.66
657.302	33.6
657.491	33.85
657.679	33.69
657.867	34.12
658.055	34.4
658.243	34.81
658.431	34.79
658.619	35.15
658.807	35.16
658.996	34.79
659.184	34.81
659.372	34.82
659.56	34.79
659.748	34.89
659.936	34.75
660.124	34.76
660.311	34.75
660.499	34.97
660.687	34.9
660.875	34.83
661.063	35.26
661.251	35.15
661.439	35.33
661.627	35.42
661.814	35.64
662.002	35.32
662.19	35.51
662.378	35.13
662.565	35.33
662.753	35.09
662.941	35.12
663.129	35.21
663.316	35.06
663.504	35.25
663.692	35.19
663.879	35.16
664.067	35.55
664.254	35.54
664.442	35.66
664.63	35.46
664.817	35.93
665.005	36.39
665.192	36.11
665.38	36.64
665.567	36.57
665.755	36.5
665.942	36.37
666.13	36.39
666.317	36.26
666.504	36.55
666.692	36.47
666.879	36.12
667.067	36.01
667.254	36.3
667.441	35.48
667.629	35.01
667.816	34.82
668.003	34.74
668.19	34.8
668.378	35.12
668.565	34.86
668.752	34.89
668.939	35.5
669.127	35.22
669.314	35.15
669.501	35.45
669.688	35.7
669.875	36.23
670.062	36.47
670.249	36.46
670.436	35.86
670.623	35.69
670.81	35.91
670.997	35.62
671.184	35.88
671.371	36.02
671.558	35.77
671.745	35.83
671.932	35.6
672.119	35.28
672.306	35.32
672.493	35.21
672.68	35.46
672.867	35.53
673.054	35.35
673.24	35.34
673.427	35.11
673.614	35.15
673.801	35.01
673.988	34.86
674.174	34.93
674.361	34.81
674.548	35.16
674.734	35.1
674.921	34.93
675.108	35.06
675.294	35.18
675.481	35.28
675.668	35.84
675.854	35.67
676.041	36.1
676.227	36.38
676.414	36.09
676.601	36.07
676.787	36.12
676.974	36.31
677.16	36.14
677.347	35.79
677.533	35.53
677.719	35.86
677.906	36.22
678.092	35.99
678.279	35.93
678.465	36.18
678.651	36.24
678.838	36.41
679.024	36.38
679.21	36.39
679.397	36.6
679.583	36.64
679.769	36.43
679.955	36.51
680.142	36.13
680.328	35.9
680.514	35.86
680.7	35.98
680.886	35.65
681.073	35.76
681.259	35.82
681.445	35.48
681.631	35.4
681.817	35.59
682.003	35.41
682.189	36.11
682.375	36.86
682.561	37.13
682.747	37.09
682.933	37.22
683.119	36.38
683.305	35.98
683.491	36.16
683.677	36.95
683.863	36.81
684.049	37.17
684.235	36.92
684.42	36.56
684.606	36.24
684.792	36.26
684.978	36.35
685.164	37
685.349	37.55
685.535	37.79
685.721	37.34
685.907	36.94
686.092	36.58
686.278	36.46
686.464	36.32
686.649	36.72
686.835	36.45
687.021	36.64
687.206	36.54
687.392	36.49
687.577	36.89
687.763	36.63
687.948	36.85
688.134	36.93
688.319	36.68
688.505	36.45
688.69	35.66
688.876	36.08
689.061	36.14
689.247	36.36
689.432	36.34
689.618	35.93
689.803	35.83
689.988	35.46
690.174	35.82
690.359	35.98
690.544	36.36
690.73	36.93
690.915	36.65
691.1	36.47
691.285	36.3
691.471	35.67
691.656	35.8
691.841	36.29
692.026	36.4
692.211	36.07
692.396	35.78
692.582	35.37
692.767	35.64
692.952	35.93
693.137	36.41
693.322	36.56
693.507	37.01
693.692	36.2
693.877	35.6
694.062	35.47
694.247	35.51
694.432	36.25
694.617	36.8
694.802	36.55
694.987	35.87
695.172	35.71
695.357	35.45
695.541	35.23
695.726	36.07
695.911	36.31
696.096	37.05
696.281	37.57
696.466	37.42
696.65	37.06
696.835	37.54
697.02	38.14
697.204	38.32
697.389	38.46
697.574	38.76
697.759	38.25
697.943	38.41
698.128	38.22
698.312	37.96
698.497	37.65
698.682	37.59
698.866	37.46
699.051	37.28
699.235	36.98
699.42	36.96
699.604	36.8
699.789	36.96
699.973	36.64
700.158	36.69
700.342	36.57
700.527	36.88
700.711	37.06
700.895	37.13
701.08	37.04
701.264	36.73
701.448	36.76
701.633	36.93
701.817	37.1
702.001	37.57
702.186	37.46
702.37	37.15
702.554	36.76
702.738	37.23
702.923	36.9
703.107	37.11
703.291	37.37
703.475	37.9
703.659	37.79
703.843	37.82
704.027	37.94
704.212	37.88
704.396	37.73
704.58	37.12
704.764	36.21
704.948	36.96
705.132	36.99
705.316	37.21
705.5	36.53
705.684	36.55
705.868	36.31
706.052	35.85
706.235	35.6
706.419	35.85
706.603	37.01
706.787	37.31
706.971	36.64
707.155	36.52
707.339	36.17
707.522	36.56
707.706	36.81
707.89	37.15
708.074	37.43
708.257	37.65
708.441	37.82
708.625	37.32
708.808	37.25
708.992	37.38
709.176	37.6
709.359	37.58
709.543	37.38
709.727	37.34
709.91	37.67
710.094	37.41
710.277	37.13
710.461	37.18
710.644	37.27
710.828	36.89
711.011	36.79
711.195	36.4
711.378	36.99
711.562	36.93
711.745	36.73
711.928	35.83
712.112	36.64
712.295	36.52
712.478	36.95
712.662	37.37
712.845	37.9
713.028	38.09
713.212	37.78
713.395	37.54
713.578	37.8
713.761	37.68
713.945	37.92
714.128	37.62
714.311	38.04
714.494	37.59
714.677	37.17
714.86	37.04
715.043	37.13
715.227	37.2
715.41	37.11
715.593	37.02
715.776	37.13
715.959	37.22
716.142	36.48
716.325	36.41
716.508	36.2
716.691	36.55
716.874	36.03
717.057	35.74
717.239	35.93
717.422	36.11
717.605	35.54
717.788	35.41
717.971	35.39
718.154	36
718.337	35.58
718.519	35.47
718.702	34.96
718.885	35.84
719.068	35.15
719.25	34.77
719.433	34.23
719.616	34.2
719.798	34.74
719.981	35.58
720.164	34.98
720.346	34.9
720.529	35.02
720.712	35.49
720.894	35.69
721.077	35.82
721.259	36.73
721.442	36.98
721.624	37.43
721.807	37.84
721.989	36.94
722.172	37.31
722.354	38.27
722.537	38.29
722.719	37.78
722.901	37.37
723.084	37.54
723.266	36.78
723.448	36.73
723.631	36.61
723.813	35.63
723.995	36.24
724.178	37.16
724.36	36.29
724.542	36.58
724.724	37.61
724.907	37.82
725.089	37.49
725.271	36.96
725.453	37.8
725.635	38.3
725.817	39.24
725.999	39.22
726.181	37.72
726.364	37.69
726.546	37.71
726.728	36.59
726.91	36.42
727.092	37.7
727.274	38.71
727.456	38.55
727.638	37.94
727.819	37.79
728.001	37.98
728.183	38.52
728.365	39.14
728.547	39.29
728.729	39.13
728.911	38.74
729.093	37.46
729.274	36.91
729.456	36.27
729.638	37.93
729.82	37.29
730.001	35.77
730.183	35.12
730.365	35.16
730.546	35.06
730.728	35
730.91	35.25
731.091	35.94
731.273	36.59
731.455	36.17
731.636	34.68
731.818	34.44
731.999	34.01
732.181	35.54
732.362	36.22
732.544	36.49
732.725	36.87
732.907	36.49
733.088	36.18
733.27	36.42
733.451	36.68
733.633	36.68
733.814	36.94
733.995	38.63
734.177	36.77
734.358	36.33
734.539	35.95
734.721	37.24
734.902	37.99
735.083	38.49
735.264	38.62
735.446	38.85
735.627	38.85
735.808	38.43
735.989	37.8
736.17	38.93
736.351	38.58
736.533	38.87
736.714	37.44
736.895	36.7
737.076	37.16
737.257	36.6
737.438	36.32
737.619	36.16
737.8	36.16
737.981	36.93
738.162	36.82
738.343	36.68
738.524	36.37
738.705	36.07
738.886	37.09
739.067	36.32
739.247	36.7
739.428	37.58
739.609	38.16
739.79	38.91
739.971	38.43
740.151	39.56
740.332	39.79
740.513	40.28
740.694	41.08
740.874	39.71
741.055	40.03
741.236	39.73
741.417	39.74
741.597	39.44
741.778	39.78
741.958	41.82
742.139	41.08
742.32	40.2
742.5	40.16
742.681	39.84
742.861	40.51
743.042	41.06
743.222	40.57
743.403	40.59
743.583	41.42
743.764	40.36
743.944	39.17
744.124	39.2
744.305	39.07
744.485	38.32
744.666	38.37
744.846	37.34
745.026	36.55
745.207	36.95
745.387	35.44
745.567	34.64
745.747	34.75
745.928	33.91
746.108	33.14
746.288	33.34
746.468	34.21
746.648	33.13
746.829	35.41
747.009	35.76
747.189	37.02
747.369	36.78
747.549	36.67
747.729	36.53
747.909	37.21
748.089	38.6
748.269	39.49
748.449	38.85
748.629	39.84
748.809	38.59
748.989	37.49
749.169	37.13
749.349	37.42
749.529	38
749.709	39.09
749.889	38.9
750.068	38.04
750.248	37.23
750.428	36.55
750.608	36.69
750.788	37.26
750.967	38.67
751.147	38.1
751.327	38.34
751.507	36.78
751.686	36.22
751.866	35.94
752.046	35.87
752.225	35.99
752.405	37.01
752.585	36.66
752.764	34.93
752.944	34.08
753.123	33.19
753.303	33.11
753.482	33.35
753.662	33.62
753.841	33.77
754.021	34.92
754.2	35.34
754.38	33.95
754.559	34.41
754.739	35.59
754.918	34.93
755.097	36.03
755.277	36.18
755.456	37.39
755.635	37.88
755.815	37.71
755.994	36.19
756.173	36.27
756.352	36.84
756.532	35.81
756.711	35.41
756.89	36.84
757.069	37.14
757.248	37.94
757.427	38.21
757.607	36.52
757.786	36.93
757.965	38.06
758.144	38.11
758.323	39.03
758.502	39
758.681	39.32
758.86	39.39
759.039	38.98
759.218	38.95
759.397	39.13
759.576	39.42
759.755	38.38
759.934	38.68
760.113	39.34
760.291	39.42
760.47	40.79
760.649	40.71
760.828	39.78
761.007	39.65
761.186	38.99
761.364	38.23
761.543	39.71
761.722	39.95
761.901	39.55
762.079	39.74
762.258	39.8
762.437	39.55
762.615	39.97
762.794	40.15
762.972	39.79
763.151	40.17
763.33	39.82
763.508	38.81
763.687	39.74
763.865	39.25
764.044	38.29
764.222	38.03
764.401	37.26
764.579	37.39
764.758	37.47
764.936	37.67
765.114	36.74
765.293	36.71
765.471	36.83
765.65	35.92
765.828	36.59
766.006	36.91
766.184	36.17
766.363	36.05
766.541	35.43
766.719	34.98
766.898	34.77
767.076	36.1
767.254	35.98
767.432	36.14
767.61	35.3
767.788	33.36
767.967	31.56
768.145	32.34
768.323	32.65
768.501	33.05
768.679	33.65
768.857	33.25
769.035	31.75
769.213	31.11
769.391	30.08
769.569	31.75
769.747	32.35
769.925	34.73
770.103	32.47
770.281	33.8
770.459	32.63
770.636	33.18
770.814	34.75
770.992	33.46
771.17	35.19
771.348	36.99
771.525	36.13
771.703	37.96
771.881	36.49
772.059	37.43
772.236	36.77
772.414	40.09
772.592	38.94
772.769	37.9
772.947	39.21
773.125	37.6
773.302	36.73
773.48	36.01
773.657	35.31
773.835	36.62
774.013	38.14
774.19	36.73
774.368	34.06
774.545	33.98
774.723	33.83
774.9	34.46
775.077	34.31
775.255	34.29
775.432	32.51
775.61	34.66
775.787	32.66
775.964	33.67
776.142	33.34
776.319	33.56
776.496	34.76
776.674	35.48
776.851	34.36
777.028	35.83
777.205	36.51
777.382	39.21
777.56	35.89
777.737	35.55
777.914	34.2
778.091	35.84
778.268	35.5
778.445	33.38
778.622	32.32
778.8	34.77
778.977	35.29
779.154	53.36
779.331	52.88
779.508	53.17
779.685	55.97
779.862	55.84
780.038	55.9
780.215	54.4
780.392	55.99
780.569	56.21
780.746	55.75
780.923	53.21
781.1	31.42
781.277	33.25
781.453	35.69
781.63	32.57
781.807	33.66
781.984	33.69
782.16	37.46
782.337	37.72
782.514	36.34
782.691	37.21
782.867	39.63
783.044	39.98
783.221	39.43
783.397	38.33
783.574	39.99
783.75	39.17
783.927	36.88
784.103	33.12
784.28	32.5
784.456	34.67
784.633	35.3
784.809	35.31
784.986	36.25
785.162	34.03
785.339	32.51
785.515	31.12
785.692	31.8
785.868	33.17
786.044	33.25
786.221	30.6
786.397	29.59
786.573	27.13
786.749	26.2
786.926	27.45
787.102	28.44
787.278	28.31
787.454	32.01
787.631	30.72
787.807	30.97
787.983	33.92
788.159	36.47
788.335	37.09
788.511	38.36
788.687	40.59
788.863	39.37
789.039	40.36
789.216	39.04
789.392	36.51
789.568	35.48
789.744	35.26
789.919	34.84
790.095	35.7
790.271	34.76
790.447	33.54
790.623	32.76
790.799	33.34
790.975	33.2
791.151	34.39
791.327	33.91
791.502	35.98
791.678	37.82
791.854	35.33
792.03	33.06
792.205	32.71
792.381	32.81
792.557	33.69
792.733	32.48
792.908	32.52
793.084	34.4
793.259	35.74
793.435	34.55
793.611	31.5
793.786	34.13
793.962	36.54
794.137	38.53
794.313	38.79
794.488	32.48
794.664	34.27
794.839	32.17
795.015	30.31
795.19	30.62
795.366	30.14
795.541	30.02
795.716	26.69
795.892	25.06
796.067	24.34
796.242	24.72
796.418	29.11
796.593	28.77
796.768	28.83
796.944	29.23
797.119	29
797.294	30.26
797.469	32.51
797.644	35.07
797.82	35.25
797.995	34.99
798.17	34.02
798.345	31.98
798.52	30.96
798.695	31.77
798.87	32.11
799.045	30.92
799.22	30.38
799.395	28.47
799.57	27.18
799.745	27.58
799.92	29.77
800.095	29.61
800.27	32.98
800.445	34.85
800.62	33.41
800.795	33.16
800.97	34.88
801.145	34.9
801.319	36.03
801.494	34.28
801.669	32.49
801.844	29.92
802.018	30.73
802.193	28.44
802.368	28.94
802.543	32.07
802.717	31.37
802.892	29.77
803.067	31.39
803.241	30.94
803.416	34.01
803.59	33.89
803.765	33.04
803.94	33.32
804.114	32.47
804.289	29.01
804.463	27.48
804.638	27.62
804.812	28.56
804.986	26.23
805.161	29.08
805.335	25.16
805.51	26.54
805.684	27.83
805.858	25
806.033	24.61
806.207	24.85
806.381	24.43
806.556	23.38
806.73	20.83
806.904	21.29
807.078	20.15
807.253	23.38
807.427	21.51
807.601	23.03
807.775	25.4
807.949	27.87
808.123	30.16
808.298	31.95
808.472	33.87
808.646	38.14
808.82	39.01
808.994	39.9
809.168	37.72
809.342	40.72
809.516	38.73
809.69	37.35
809.864	37.12
810.038	35.97
810.212	38.2
810.385	37.31
810.559	34.2
810.733	32.73
810.907	27.75
811.081	29.06
811.255	27.68
811.428	27.76
811.602	30.04
811.776	29.72
811.95	28.01
812.123	25.15
812.297	25.81
812.471	30.1
812.644	29.61
812.818	31.45
812.992	32.86
813.165	33.95
813.339	34.29
813.512	35.75
813.686	37.82
813.86	37.48
814.033	34.48
814.207	37.19
814.38	36.17
814.554	38.91
814.727	36.01
814.9	35.32
815.074	34.8
815.247	37
815.421	37.74
815.594	34.2
815.767	34.92
815.941	37.17
816.114	36.33
816.287	31.83
816.46	31.32
816.634	33.13
816.807	32.03
816.98	29.49
817.153	28.35
817.327	25.89
817.5	26.95
817.673	26.81
817.846	27.03
818.019	25.92
818.192	28.63
818.365	26.49
818.538	28.31
818.711	29.12
818.884	32.5
819.057	31.39
819.23	28.17
819.403	29.08
819.576	29.73
819.749	30.83
819.922	31.88
820.095	31.87
820.268	32.89
820.441	35.15
820.614	36.13
820.786	34.63
820.959	35.15
821.132	38.19
821.305	38.72
821.477	38.96
821.65	38.41
821.823	38.45
821.996	39.55
822.168	39.71
822.341	40.1
822.514	40.63
822.686	41.43
822.859	40.98
823.031	41
823.204	40.87
823.376	40.51
823.549	40.35
823.722	40.03
823.894	39.58
824.067	39.43
824.239	38.11
824.411	37.07
824.584	35.96
824.756	36.25
824.929	35.34
825.101	34.37
825.273	34.41
825.446	34.53
825.618	35.51
825.79	35.21
825.963	34.89
826.135	35.67
826.307	36.3
826.479	37.04
826.652	36.64
826.824	37.04
826.996	37.35
827.168	37.91
827.34	37.46
827.512	37.41
827.684	37.23
827.856	38.4
828.029	39.03
828.201	38.92
828.373	37.77
828.545	38.48
828.717	39.29
828.889	40.59
829.061	41.06
829.232	41.4
829.404	40.45
829.576	39.86
829.748	38.32
829.92	36.54
830.092	36.27
830.264	36.58
830.436	36.41
830.607	36.19
830.779	36.75
830.951	35.95
831.123	35.27
831.294	34.52
831.466	35.59
831.638	35.12
831.809	35.89
831.981	35.9
832.153	36.58
832.324	38
832.496	37.97
832.667	34.21
832.839	33.1
833.011	36.21
833.182	37.21
833.354	39.51
833.525	40.58
833.697	40.26
833.868	37.89
834.039	38.81
834.211	38.36
834.382	37.8
834.554	38.64
834.725	38.39
834.896	36.03
835.068	36.26
835.239	33.96
835.41	33.74
835.581	35.6
835.753	36.28
835.924	36.97
836.095	36.96
836.266	36.88
836.438	38.27
836.609	38.57
836.78	40.1
836.951	35.54
837.122	37.03
837.293	35.44
837.464	33.35
837.635	36.33
837.806	35.69
837.977	33.19
838.148	31.82
838.319	30.66
838.49	31.71
838.661	30.85
838.832	36.81
839.003	39.14
839.174	38.96
839.345	38.92
839.516	39.16
839.687	36.69
839.857	38.66
840.028	41.53
840.199	41.03
840.37	38.65
840.54	39.12
840.711	39.48
840.882	40.21
841.053	39.79
841.223	36.55
841.394	31.69
841.564	33.84
841.735	33.23
841.906	26.48
842.076	25.22
842.247	27.96
842.417	25.43
842.588	22.75
842.758	18.13
842.929	26.42
843.099	27.86
843.27	29.08
843.44	22.07
843.611	17.61
843.781	22.14
843.951	20.31
844.122	21.3
844.292	22.47
844.462	25.46
844.633	21.22
844.803	15.16
844.973	11.29
845.144	11.77
845.314	14.07
845.484	16.23
845.654	21.15
845.824	15.36
845.995	12.79
846.165	14.72
846.335	15.35
846.505	22.47
846.675	24.39
846.845	31.35
847.015	22.46
847.185	32.24
847.355	35.2
847.525	17.89
847.695	20.1
847.865	18.62
848.035	19.42
848.205	13.13
848.375	12.29
848.545	6.47
848.715	16
848.884	21.87
849.054	9.95
849.224	-3.21
849.394	13.41
849.564	16.83
849.733	4.71
849.903	2.96
850.073	-11.8
850.243	-14.46
850.412	-18.47
850.582	-44.57
850.752	-65.89
850.921	-43.08
851.091	-24.33
851.26	-21.57
851.43	-53.88
851.599	-34.87
851.769	-41.1
851.939	-25.39
852.108	-22.51
852.278	-3.73
852.447	-4.96
852.616	11.85
852.786	15
852.955	12.35
853.125	-0.78
853.294	19.99
853.463	34.33
853.633	28.83
853.802	26.14
853.971	33.71
854.141	23.78
854.31	29.06
854.479	22.12
854.648	27.33
854.818	23.8
854.987	25.29
855.156	13.94
855.325	4.9
855.494	4.79
855.663	19.56
855.832	13.56
856.001	19.59
856.171	32.17
856.34	40.92
856.509	27.93
856.678	36.86
856.847	51.5
857.016	75.73
857.185	81.9
857.353	101.88
857.522	83.38
857.691	67.65
857.86	59.05
858.029	51.63
858.198	39.06
858.367	40.63
858.535	33.82
858.704	20.75
858.873	-4.03
859.042	-25.9
859.21	-54.23
859.379	-61.23
859.548	-67.69
859.717	-64.96
859.885	-59.76
860.054	-41.16
860.222	-10.61
860.391	-16.62
860.56	-15.44
860.728	-4.96
860.897	8.94
861.065	8.71
861.234	24.38
861.402	29.35
861.571	27.94
861.739	20.02
861.908	9.99
862.076	-15.42
862.244	-1.83
862.413	-3.38
862.581	-7.65
862.749	-7.65
862.918	-6.29
863.086	-29.56
863.254	-27.12
863.423	-40.67
863.591	-1.83
863.759	-12.28
863.927	-4.23
864.096	-1.39
864.264	-51.77
864.432	-50.05
864.6	-99.92
864.768	-65.43
864.936	-43.67
865.104	-50.62
865.272	-44.97
865.44	-69.14
865.608	-44.48
865.776	-57.62
865.944	-70.69
866.112	-33.91
866.28	-4.4
866.448	9.55
866.616	10.3
866.784	22.25
866.952	30.7
867.12	14.13
867.288	15.33
867.455	10.73
867.623	14.3
867.791	36.76
867.959	31.52
868.127	-16.77
868.294	-14.01
868.462	-18.73
868.63	-12.75
868.797	-6.94
868.965	5.39
869.133	7.95
869.3	10.01
869.468	19.83
869.636	16.93
869.803	18.61
869.971	34.9
870.138	33.08
870.306	37.59
870.473	31.3
870.641	24.39
870.808	29.84
870.975	29.05
871.143	23.34
871.31	1.38
871.478	-2.65
871.645	-20.14
871.812	-32.42
871.98	-26.84
872.147	-29.23
872.314	-5.61
872.482	-12.25
872.649	-0.87
872.816	8.58
872.983	13.89
873.15	33.33
873.318	20.17
873.485	23.26
873.652	23.46
873.819	29.25
873.986	18.43
874.153	18.51
874.32	27.57
874.487	8.87
874.654	10.56
874.821	7.51
874.988	-4.82
875.155	26.84
875.322	29.13
875.489	29
875.656	34.45
875.823	38.16
875.99	25.49
876.157	21.54
876.324	28.69
876.49	20.24
876.657	28.56
876.824	27.21
876.991	12.39
877.157	17.1
877.324	27.59
877.491	21.51
877.658	28.76
877.824	36.42
877.991	38.56
878.157	22.91
878.324	53.04
878.491	22.42
878.657	46.55
878.824	46.48
878.99	26.48
879.157	7.81
879.323	8.93
879.49	7.93
879.656	5.67
879.823	8.7
879.989	13.94
880.156	-4.05
880.322	11.62
880.488	4.49
880.655	16.89
880.821	23.38
880.987	26.18
881.154	27.29
881.32	33.44
881.486	32.48
881.652	37.02
881.819	33.72
881.985	36.05
882.151	34.19
882.317	35.34
882.483	34.29
882.649	33.46
882.816	32.62
882.982	32.98
883.148	29.33
883.314	30.78
883.48	29.01
883.646	32.99
883.812	31.93
883.978	31.8
884.144	31.02
884.31	29.99
884.476	30.73
884.642	30.95
884.807	32.09
884.973	31.42
885.139	29.74
885.305	29.29
885.471	27.5
885.637	30.32
885.802	28.67
885.968	29.44
886.134	29.78
886.3	30.58
886.465	28.99
886.631	26.29
886.797	29.14
886.962	30.46
887.128	32.27
887.293	29.84
887.459	23.61
887.625	25.79
887.79	21.53
887.956	15.75
888.121	8.42
888.287	10.38
888.452	11.14
888.618	1.98
888.783	-4.9
