Data from CB_030_Reflection_1.txt Node
Date: Wed Nov 11 20:49:45 EST 2015
User: robert
Spectrometer: USB4E03001
Autoset integration time: false
Trigger mode: 4
Integration Time (sec): 1.000000E-1
Scans to average: 15
Electric dark correction enabled: true
Nonlinearity correction enabled: false
Boxcar width: 5
Stray light correction enabled: false
XAxis mode: Wavelengths
Stop averaging: false
Number of Pixels in Spectrum: 3648
>>>>>Begin Spectral Data<<<<<
177.566	-212.97
177.785	-326.24
178.005	931.77
178.225	-315.99
178.445	-377.75
178.665	1130.51
178.885	218.85
179.105	3934.78
179.324	417.72
179.544	536.4
179.764	-641.52
179.984	-950.61
180.204	36447.5
180.423	622.44
180.643	-2859.68
180.863	6320
181.083	871.39
181.302	1979.01
181.522	2179.3
181.742	-5398.67
181.961	-1144.78
182.181	-8368.12
182.401	5385.89
182.621	-571.06
182.84	-565.79
183.06	-417.8
183.279	-754.92
183.499	-327.58
183.719	-297.08
183.938	-296.96
184.158	-249.05
184.377	-217.51
184.597	-322.97
184.816	-254.95
185.036	-326.47
185.256	-266.22
185.475	-248.14
185.695	-144.91
185.914	-262.13
186.134	-2850.57
186.353	5118.03
186.572	663.59
186.792	439.45
187.011	1219.87
187.231	1792.12
187.45	1037.94
187.67	618.84
187.889	452.94
188.108	397.77
188.328	580.88
188.547	1003.87
188.766	1354.51
188.986	5293
189.205	6444.14
189.424	1743.53
189.644	544.11
189.863	440.87
190.082	1421.67
190.302	270.52
190.521	404.05
190.74	173.74
190.959	148.1
191.178	148.62
191.398	213.22
191.617	279.48
191.836	592.75
192.055	397.53
192.274	534.91
192.494	948.21
192.713	1727.33
192.932	3138.86
193.151	-339.12
193.37	-254.64
193.589	-266.28
193.808	-327.41
194.027	-331.19
194.246	-724.17
194.465	-228.8
194.685	-702.27
194.904	968.28
195.123	-706.26
195.342	-128.11
195.561	-937.24
195.78	-8878.64
195.999	-653.36
196.218	-571.19
196.436	-1678.63
196.655	2468.5
196.874	1477.77
197.093	2825.65
197.312	-957.43
197.531	2785.78
197.75	1230.87
197.969	1253.7
198.188	2010.25
198.407	959.95
198.625	872.41
198.844	1321.56
199.063	-5079.89
199.282	-2312.7
199.501	-1481.89
199.719	-1555.9
199.938	-1013.22
200.157	4761.24
200.376	-292.25
200.594	-959.02
200.813	-288
201.032	456.87
201.251	335.8
201.469	383.03
201.688	320.51
201.907	683.75
202.125	563.87
202.344	2065.45
202.563	682.83
202.781	738.09
203	501.21
203.218	234.74
203.437	608.78
203.656	880.97
203.874	765.83
204.093	1756.56
204.311	1287.46
204.53	454.46
204.748	596.75
204.967	1020.52
205.185	15308.57
205.404	-535.89
205.622	-205.94
205.841	-190.24
206.059	-188.9
206.278	-121.74
206.496	-164.47
206.715	-368.19
206.933	-143.78
207.151	-243.39
207.37	-271.82
207.588	-490.56
207.806	-183.85
208.025	-345.9
208.243	291.75
208.461	196.21
208.68	215.08
208.898	-1592.02
209.116	-92.55
209.335	-778.55
209.553	-91.01
209.771	-464.39
209.989	463.88
210.208	163.79
210.426	201.62
210.644	414.46
210.862	719.64
211.081	232.1
211.299	277.22
211.517	289.39
211.735	698.66
211.953	312.49
212.171	436.95
212.39	-3180.51
212.608	-441.27
212.826	-249.29
213.044	-179.39
213.262	-211.02
213.48	-224.81
213.698	-217.68
213.916	-364.09
214.134	-659.84
214.352	-554.15
214.57	-267
214.788	-718.67
215.006	-1133.73
215.224	524.56
215.442	1574.71
215.66	993.3
215.878	887.96
216.096	540.53
216.314	738.96
216.532	1171.26
216.75	1827.03
216.968	576.33
217.185	341.75
217.403	311.79
217.621	932.38
217.839	277.17
218.057	399.63
218.275	610.09
218.492	-701.93
218.71	344.22
218.928	213.17
219.146	280.57
219.363	1534.64
219.581	-608.44
219.799	-127.79
220.017	-221.36
220.234	-176.3
220.452	-260.17
220.67	-622.4
220.887	4759.2
221.105	-701.52
221.323	-139.18
221.54	-133.9
221.758	-499.91
221.976	-227.79
222.193	-172.37
222.411	-143.52
222.629	-181.67
222.846	-258.42
223.064	-167.85
223.281	-104.03
223.499	-112.17
223.716	-189.44
223.934	-199.4
224.151	-137.85
224.369	-180.52
224.586	-171.05
224.804	-164.04
225.021	-142.11
225.239	-187.63
225.456	-196.2
225.674	-161.56
225.891	-151.94
226.108	-148.16
226.326	-149.14
226.543	-122.75
226.76	-72
226.978	-69.9
227.195	-46.82
227.413	-14.99
227.63	-2.8
227.847	-9.23
228.064	-9.37
228.282	-7.31
228.499	-11.37
228.716	-6.13
228.934	-3.57
229.151	-5.39
229.368	-3.93
229.585	-6.04
229.802	-14.16
230.02	-16.42
230.237	-13.39
230.454	-13.07
230.671	-18.99
230.888	-10.64
231.105	-4.57
231.323	-5.8
231.54	-6.03
231.757	-8.51
231.974	-17.01
232.191	-13.47
232.408	-10.08
232.625	-9.47
232.842	-9.5
233.059	-6.28
233.276	-9.73
233.493	-24.61
233.71	-30.12
233.927	-22.54
234.144	-31.5
234.361	-24.87
234.578	-24.77
234.795	-33.41
235.012	-28.37
235.229	-34.47
235.446	-34.06
235.663	-44.34
235.879	-38.7
236.096	-27.48
236.313	-38.03
236.53	-24.78
236.747	-19.07
236.964	-22.37
237.181	-21.07
237.397	-27.13
237.614	-30.91
237.831	-27.73
238.048	-22.75
238.264	-26.63
238.481	-28.46
238.698	-28.06
238.915	-25.95
239.131	-34.17
239.348	-27.07
239.565	-15.51
239.781	-12.68
239.998	-10.08
240.215	-6.76
240.431	-6.43
240.648	-7.16
240.865	-5.9
241.081	-6.63
241.298	-8.55
241.514	-5.52
241.731	-5.37
241.947	-7.13
242.164	-6.8
242.38	-3.65
242.597	-4.88
242.814	-6.01
243.03	-3.52
243.246	-4.73
243.463	-2.18
243.679	-3.97
243.896	-3.14
244.112	-2.53
244.329	-0.26
244.545	-4.78
244.762	-7.73
244.978	-5.47
245.194	-1.23
245.411	-2.38
245.627	-0.81
245.843	-1.16
246.06	0.12
246.276	1.52
246.492	1.09
246.709	1.16
246.925	4.75
247.141	5.62
247.357	4.55
247.574	3.2
247.79	4.07
248.006	3.65
248.222	4.88
248.439	5.06
248.655	3.69
248.871	4.3
249.087	2.51
249.303	1.93
249.519	1.3
249.736	1.77
249.952	2.07
250.168	-0.37
250.384	-1.34
250.6	-5.64
250.816	-8.26
251.032	-6.07
251.248	-3.18
251.464	-0.84
251.68	-2.13
251.896	-1.61
252.112	-0.78
252.328	-0.08
252.544	0.1
252.76	0.64
252.976	4.89
253.192	6.64
253.408	4.17
253.624	0.43
253.84	-0.19
254.056	-2.39
254.272	-3.17
254.487	-5.54
254.703	-10.62
254.919	-9.88
255.135	-15.5
255.351	-26.69
255.567	-25.22
255.782	-21.62
255.998	-22.58
256.214	-24.39
256.43	-23.92
256.646	-21.9
256.861	-17.65
257.077	-10.54
257.293	-13.34
257.508	-8.79
257.724	-3.66
257.94	-3.68
258.155	-1.57
258.371	-1.59
258.587	0.12
258.802	-0.6
259.018	0.59
259.234	-0.71
259.449	-0.7
259.665	0.17
259.88	1.18
260.096	1.1
260.312	1.74
260.527	0.85
260.743	1.64
260.958	0.86
261.174	2.15
261.389	0.13
261.605	1.23
261.82	0.57
262.036	1.15
262.251	-0.76
262.466	-2.18
262.682	-2.88
262.897	-1.36
263.113	0.48
263.328	1.13
263.543	0.2
263.759	3.91
263.974	1.47
264.189	1.14
264.405	2.28
264.62	2.05
264.835	1.85
265.051	0.01
265.266	0.06
265.481	-3.15
265.696	-4.88
265.912	-5.96
266.127	-9.47
266.342	-9.37
266.557	-8.23
266.773	-9.75
266.988	-6.96
267.203	-7.57
267.418	-5.05
267.633	-5.04
267.848	-3.16
268.064	-0.62
268.279	0.87
268.494	1.38
268.709	3.1
268.924	2.79
269.139	3.71
269.354	2.02
269.569	1.44
269.784	1.22
269.999	2.87
270.214	2.56
270.429	-0.67
270.644	-0.29
270.859	-0.2
271.074	0.12
271.289	1.6
271.504	1.77
271.719	1.72
271.934	3.31
272.149	2.79
272.363	0.98
272.578	0.09
272.793	1
273.008	0.98
273.223	1.71
273.438	-0.13
273.653	-1.24
273.867	-1.61
274.082	-2.03
274.297	-2.12
274.512	-1.63
274.726	-1.36
274.941	-0.77
275.156	-1.63
275.371	-3.3
275.585	-3.4
275.8	-2.44
276.015	-1.82
276.229	-2.18
276.444	0.56
276.659	0.18
276.873	-1.01
277.088	-1.03
277.302	-3.04
277.517	-1.33
277.732	-0.88
277.946	0.3
278.161	-0.57
278.375	-2.62
278.59	-2.49
278.804	-5.51
279.019	-5.83
279.233	-7.35
279.448	-6.72
279.662	-4.52
279.877	-4.73
280.091	-3.69
280.306	-3.8
280.52	-2.65
280.735	-0.69
280.949	1.49
281.163	2.56
281.378	2.72
281.592	4.84
281.806	3.93
282.021	4.56
282.235	4.15
282.449	2.89
282.664	2.87
282.878	3.15
283.092	1.81
283.307	-0.76
283.521	-1.22
283.735	-1.83
283.949	-3.2
284.164	-2.84
284.378	-3.01
284.592	-2.1
284.806	-2.56
285.02	-1.72
285.234	-1.25
285.449	-1.22
285.663	-0.53
285.877	0.05
286.091	0.07
286.305	0.35
286.519	0.7
286.733	0.62
286.947	0.7
287.161	1.72
287.375	1.1
287.589	1.29
287.803	2.29
288.017	2.74
288.231	2.64
288.445	4.57
288.659	5.95
288.873	6.11
289.087	5.69
289.301	4.13
289.515	4.91
289.729	4.96
289.943	3.94
290.157	4.52
290.371	4.45
290.584	3.82
290.798	2.86
291.012	1.88
291.226	1.62
291.44	2.02
291.654	2.75
291.867	2.78
292.081	2.88
292.295	2.9
292.509	2.26
292.722	2.22
292.936	2.74
293.15	1.66
293.364	1.28
293.577	2.31
293.791	1.86
294.005	2.53
294.218	2.73
294.432	2.16
294.645	2.17
294.859	2.7
295.073	3.02
295.286	4
295.5	6.01
295.713	6.68
295.927	6.69
296.14	7.32
296.354	7.94
296.568	8.1
296.781	8.78
296.994	9.23
297.208	10.01
297.421	11.03
297.635	11.52
297.848	10.5
298.062	10.2
298.275	10.57
298.489	10.45
298.702	9.94
298.915	9.76
299.129	9.29
299.342	10.1
299.555	9.23
299.769	7.33
299.982	6.15
300.195	5.89
300.409	6.49
300.622	5.95
300.835	6.09
301.048	6.77
301.262	5.8
301.475	4.94
301.688	4.85
301.901	4.24
302.115	5.81
302.328	6.11
302.541	8.14
302.754	7.75
302.967	7.84
303.18	7.91
303.393	7.64
303.607	8.66
303.82	10.42
304.033	9.91
304.246	9.72
304.459	8.65
304.672	9.81
304.885	8.15
305.098	8.49
305.311	6.92
305.524	7.75
305.737	8.07
305.95	8.86
306.163	7.33
306.376	7.67
306.589	7.7
306.802	8.59
307.015	6.75
307.228	7.45
307.44	7.03
307.653	7.05
307.866	5.44
308.079	5.24
308.292	3.77
308.505	2.79
308.718	2.36
308.93	2.95
309.143	1.97
309.356	3.96
309.569	4.45
309.781	4.76
309.994	5.22
310.207	6.4
310.42	6.14
310.632	6.08
310.845	7.18
311.058	8.51
311.27	9.41
311.483	9.98
311.696	9.23
311.908	7.95
312.121	7.52
312.333	7.37
312.546	6.43
312.759	6.15
312.971	6.11
313.184	6.18
313.396	5.07
313.609	4.95
313.821	4.51
314.034	4.07
314.246	4.52
314.459	4.35
314.671	4.53
314.884	4.07
315.096	4.89
315.309	5.63
315.521	6.34
315.733	4.72
315.946	3.83
316.158	3.3
316.371	3.05
316.583	4.23
316.795	4.64
317.008	5.53
317.22	4.96
317.432	3.98
317.644	2.77
317.857	2.41
318.069	4.55
318.281	5.13
318.494	6.8
318.706	8.26
318.918	6.79
319.13	7.83
319.342	8.17
319.555	9.48
319.767	10
319.979	10.47
320.191	9.91
320.403	9.54
320.615	9.32
320.827	8.03
321.039	8.09
321.252	8.25
321.464	8.56
321.676	8.35
321.888	9.07
322.1	9.45
322.312	10.51
322.524	11.04
322.736	11.88
322.948	12.22
323.16	12.3
323.372	12.42
323.584	12.87
323.796	13.53
324.007	14.3
324.219	14.88
324.431	14.9
324.643	14.63
324.855	14.81
325.067	14.41
325.279	12.99
325.491	13.4
325.702	12.73
325.914	12.89
326.126	11.82
326.338	12.02
326.55	11.75
326.761	11.16
326.973	12.01
327.185	11.96
327.396	11.98
327.608	12.36
327.82	12.39
328.032	11.65
328.243	10.51
328.455	10.97
328.666	10.63
328.878	10.8
329.09	12.27
329.301	12.04
329.513	12.02
329.725	12.51
329.936	12.88
330.148	13.97
330.359	15.05
330.571	16.31
330.782	16.21
330.994	15.68
331.205	14.99
331.417	15.46
331.628	14.78
331.84	14.42
332.051	14.04
332.262	14.82
332.474	13.95
332.685	13.64
332.897	14.06
333.108	14.91
333.319	15.75
333.531	15.84
333.742	15.53
333.953	15.65
334.165	17.38
334.376	17.26
334.587	17.04
334.799	18.14
335.01	19.06
335.221	19.67
335.432	18.98
335.644	18.39
335.855	18.77
336.066	18.81
336.277	19.45
336.488	18.75
336.7	18.85
336.911	19.16
337.122	17.37
337.333	17.29
337.544	16.43
337.755	15.87
337.966	16.24
338.177	15.22
338.388	14.95
338.599	15
338.811	15.08
339.022	15.21
339.233	15.02
339.444	16.58
339.655	16.27
339.866	15.57
340.076	17
340.287	17.58
340.498	18.65
340.709	18.18
340.92	18.34
341.131	17.67
341.342	17.68
341.553	18.33
341.764	18.91
341.975	17.86
342.185	19.56
342.396	19.23
342.607	19.47
342.818	18.99
343.029	20.2
343.239	19.99
343.45	21.31
343.661	21.65
343.872	20.93
344.082	19.57
344.293	21.39
344.504	20.76
344.714	21.18
344.925	21.02
345.136	21.41
345.346	20.25
345.557	20.3
345.768	19.58
345.978	19.92
346.189	19.71
346.399	20.44
346.61	20.31
346.821	20.45
347.031	19.46
347.242	18.79
347.452	18.52
347.663	19.2
347.873	19.49
348.084	19.28
348.294	19.4
348.504	19.46
348.715	19
348.925	18.81
349.136	19
349.346	19.08
349.557	19.13
349.767	19.99
349.977	20.69
350.188	20.09
350.398	21.16
350.608	20.88
350.819	20.84
351.029	21.32
351.239	20.65
351.449	20.4
351.66	21
351.87	21.12
352.08	20.35
352.29	20.07
352.501	19.63
352.711	18.35
352.921	18.12
353.131	19.13
353.341	18.26
353.552	18.94
353.762	19.29
353.972	18.97
354.182	18.34
354.392	17.78
354.602	17.83
354.812	18.71
355.022	18.99
355.232	18.48
355.442	17.51
355.652	18.06
355.862	17.79
356.072	18.08
356.282	18.28
356.492	18.72
356.702	19.13
356.912	18.9
357.122	18
357.332	18.08
357.542	18.65
357.752	19.06
357.962	19.48
358.171	19.52
358.381	19.13
358.591	18.51
358.801	18.46
359.011	18.94
359.221	17.98
359.43	17.84
359.64	18.25
359.85	18.12
360.06	17.83
360.269	17.36
360.479	17.36
360.689	17.25
360.899	18.08
361.108	17.7
361.318	17.89
361.528	19.01
361.737	19.94
361.947	19.48
362.156	19.42
362.366	19.56
362.576	19.66
362.785	19.22
362.995	19.47
363.204	18.94
363.414	19.6
363.623	18.93
363.833	17.89
364.042	17.1
364.252	17.38
364.461	16.7
364.671	16.72
364.88	16.51
365.09	16.49
365.299	16.38
365.509	16.47
365.718	16.33
365.927	16.42
366.137	16.51
366.346	16.77
366.555	16.14
366.765	16.63
366.974	16.29
367.183	16.09
367.393	16.66
367.602	16.43
367.811	16.16
368.021	15.91
368.23	15.79
368.439	16.46
368.648	16.84
368.857	16.71
369.067	16.8
369.276	17.4
369.485	17.62
369.694	17.16
369.903	16.49
370.112	16.42
370.321	16.36
370.531	16.94
370.74	16.49
370.949	16.06
371.158	16.29
371.367	15.55
371.576	15.18
371.785	14.76
371.994	14.72
372.203	15.52
372.412	15.65
372.621	15.92
372.83	15.69
373.039	15.57
373.248	15.55
373.457	15.39
373.666	15.96
373.874	15.72
374.083	15.85
374.292	15.75
374.501	15.69
374.71	15.69
374.919	15.76
375.128	15.17
375.336	15.33
375.545	15.53
375.754	15.71
375.963	15.49
376.171	15.85
376.38	16.03
376.589	16
376.798	14.94
377.006	15.14
377.215	14.78
377.424	15.03
377.632	14.56
377.841	14.01
378.05	13.62
378.258	13.6
378.467	13.37
378.675	12.93
378.884	13.03
379.093	13.64
379.301	13.25
379.51	13.12
379.718	12.59
379.927	12.63
380.135	12.7
380.344	12.6
380.552	12.85
380.761	12.83
380.969	12.84
381.177	12.82
381.386	12.86
381.594	12.91
381.803	12.77
382.011	12.98
382.219	13.14
382.428	12.95
382.636	13.05
382.845	12.39
383.053	12.07
383.261	12.38
383.469	12.01
383.678	11.85
383.886	11.75
384.094	11.52
384.302	11.36
384.511	11.13
384.719	11.38
384.927	11.04
385.135	11.03
385.343	11.17
385.552	11.05
385.76	10.68
385.968	10.71
386.176	10.42
386.384	10.33
386.592	10.24
386.8	10.32
387.008	10.2
387.216	10.24
387.424	10.46
387.633	10.35
387.841	10.28
388.049	10.33
388.257	10.07
388.465	10.4
388.672	10.61
388.88	10.72
389.088	11.06
389.296	11.12
389.504	11.48
389.712	11.27
389.92	11.27
390.128	11.27
390.336	11.4
390.544	11.06
390.751	10.86
390.959	10.88
391.167	11.23
391.375	10.77
391.583	10.58
391.79	10.59
391.998	11
392.206	11.08
392.414	10.98
392.621	11.23
392.829	11.77
393.037	11.88
393.244	11.7
393.452	11.17
393.66	11.48
393.867	11.31
394.075	11.28
394.283	10.57
394.49	10.41
394.698	10.46
394.905	10.39
395.113	10.35
395.32	10.26
395.528	10.55
395.735	10.47
395.943	10.25
396.15	10.26
396.358	10.06
396.565	10.39
396.773	10.02
396.98	10.04
397.188	10.11
397.395	10.01
397.602	9.8
397.81	9.32
398.017	9.21
398.225	9.11
398.432	9.22
398.639	9.51
398.847	9.19
399.054	9.65
399.261	9.56
399.468	9.16
399.676	8.92
399.883	9.16
400.09	9.17
400.297	9.46
400.505	9.62
400.712	9.63
400.919	9.5
401.126	9.77
401.333	9.63
401.54	9.39
401.748	9.41
401.955	9.58
402.162	9.56
402.369	9.42
402.576	9.44
402.783	9.32
402.99	9.32
403.197	9.35
403.404	9.53
403.611	9.58
403.818	9.82
404.025	10.51
404.232	10.48
404.439	10.33
404.646	10.59
404.853	10.49
405.06	10.69
405.267	10.87
405.474	10.72
405.681	10.36
405.887	10.06
406.094	9.73
406.301	9.06
406.508	8.89
406.715	9.06
406.922	9.08
407.128	8.98
407.335	8.74
407.542	8.22
407.749	8.05
407.955	8.05
408.162	8.25
408.369	8.44
408.575	8.66
408.782	8.43
408.989	8.36
409.195	8.22
409.402	8.18
409.609	7.88
409.815	7.89
410.022	7.92
410.228	8.08
410.435	8.22
410.642	8.42
410.848	8.04
411.055	8.27
411.261	8.31
411.468	8.32
411.674	8.58
411.881	9.05
412.087	9.22
412.294	9.47
412.5	9.43
412.706	9.08
412.913	8.73
413.119	9.1
413.326	8.72
413.532	8.39
413.738	8.42
413.945	8.23
414.151	7.78
414.357	7.78
414.564	7.25
414.77	7.24
414.976	7.57
415.182	7.72
415.389	8.04
415.595	8.45
415.801	8.64
416.007	8.75
416.214	8.93
416.42	9.2
416.626	9.27
416.832	9.55
417.038	9.48
417.244	9.45
417.45	9.39
417.657	9.19
417.863	9.08
418.069	8.86
418.275	8.76
418.481	8.83
418.687	8.68
418.893	8.63
419.099	8.67
419.305	8.8
419.511	8.76
419.717	8.83
419.923	8.74
420.129	8.79
420.335	8.8
420.541	8.9
420.746	8.83
420.952	8.87
421.158	8.88
421.364	8.77
421.57	8.77
421.776	8.81
421.982	8.74
422.187	8.77
422.393	8.54
422.599	8.68
422.805	8.67
423.01	8.65
423.216	8.51
423.422	8.26
423.628	8.3
423.833	8.29
424.039	8.11
424.245	8.15
424.45	8.13
424.656	8.42
424.862	8.34
425.067	8.11
425.273	8.12
425.478	8.21
425.684	8.45
425.889	8.22
426.095	8.14
426.301	8.28
426.506	8.25
426.712	8.19
426.917	8.07
427.123	8.19
427.328	8.45
427.533	8.47
427.739	8.38
427.944	8.18
428.15	8.5
428.355	8.24
428.561	8.08
428.766	7.77
428.971	7.82
429.177	7.84
429.382	7.66
429.587	7.51
429.793	7.34
429.998	7.13
430.203	7.11
430.408	7.08
430.614	7.44
430.819	7.61
431.024	8
431.229	7.87
431.434	7.86
431.64	7.83
431.845	7.79
432.05	7.82
432.255	8.12
432.46	8.3
432.665	8.37
432.87	8.29
433.076	8.22
433.281	8.15
433.486	8.25
433.691	8.37
433.896	8.46
434.101	8.68
434.306	8.89
434.511	8.88
434.716	9.15
434.921	9.21
435.126	9.4
435.331	9.6
435.535	9.74
435.74	9.73
435.945	9.69
436.15	9.52
436.355	9.27
436.56	9.07
436.765	9
436.97	8.74
437.174	8.56
437.379	8.57
437.584	8.39
437.789	8.31
437.993	8.23
438.198	8.12
438.403	8.19
438.608	8.29
438.812	8.18
439.017	8.29
439.222	8.38
439.426	8.34
439.631	8.23
439.836	8.26
440.04	8.35
440.245	8.43
440.45	8.45
440.654	8.51
440.859	8.4
441.063	8.48
441.268	8.48
441.472	8.39
441.677	8.41
441.881	8.24
442.086	8.3
442.29	7.97
442.495	8.03
442.699	8.06
442.904	7.91
443.108	8.06
443.312	8
443.517	7.77
443.721	7.71
443.925	7.71
444.13	7.75
444.334	7.69
444.538	7.8
444.743	7.7
444.947	7.67
445.151	7.77
445.356	7.67
445.56	7.59
445.764	7.62
445.968	7.71
446.173	7.66
446.377	7.75
446.581	7.74
446.785	7.7
446.989	7.74
447.193	7.68
447.398	7.55
447.602	7.55
447.806	7.43
448.01	7.53
448.214	7.49
448.418	7.56
448.622	7.66
448.826	7.66
449.03	7.85
449.234	7.81
449.438	7.84
449.642	8.21
449.846	8.14
450.05	8.32
450.254	8.44
450.458	8.41
450.662	8.32
450.866	8.07
451.069	7.95
451.273	7.79
451.477	7.6
451.681	7.65
451.885	7.26
452.089	7.44
452.292	7.51
452.496	7.57
452.7	7.64
452.904	7.62
453.107	7.56
453.311	7.62
453.515	7.57
453.719	7.8
453.922	7.64
454.126	7.69
454.33	7.63
454.533	7.6
454.737	7.49
454.94	7.31
455.144	7.25
455.348	7.31
455.551	7.2
455.755	7.26
455.958	6.82
456.162	6.67
456.365	6.68
456.569	6.89
456.772	6.86
456.976	6.87
457.179	7
457.383	7.16
457.586	7.28
457.79	7.27
457.993	7.13
458.196	7.62
458.4	7.82
458.603	7.77
458.807	7.75
459.01	7.82
459.213	7.73
459.417	7.66
459.62	7.49
459.823	7.32
460.026	7.35
460.23	7.51
460.433	7.42
460.636	7.47
460.839	7.53
461.042	7.42
461.246	7.46
461.449	7.42
461.652	7.51
461.855	7.69
462.058	7.88
462.261	7.95
462.464	7.94
462.668	7.89
462.871	7.7
463.074	7.69
463.277	7.64
463.48	7.57
463.683	7.63
463.886	7.63
464.089	7.61
464.292	7.39
464.495	7.42
464.698	7.22
464.901	7.25
465.104	7.4
465.306	7.41
465.509	7.47
465.712	7.52
465.915	7.36
466.118	7.44
466.321	7.47
466.524	7.89
466.726	8.23
466.929	8.35
467.132	8.17
467.335	8.16
467.538	8.05
467.74	7.96
467.943	7.76
468.146	7.87
468.348	7.71
468.551	7.91
468.754	7.59
468.956	7.08
469.159	7.06
469.362	7.06
469.564	7.07
469.767	7.24
469.969	7.38
470.172	7.42
470.375	7.46
470.577	7.22
470.78	6.85
470.982	6.99
471.185	7.23
471.387	7.18
471.59	7.32
471.792	7.48
471.995	7.28
472.197	7.28
472.399	7.45
472.602	7.53
472.804	7.77
473.007	8.03
473.209	8.04
473.411	7.9
473.614	7.84
473.816	7.95
474.018	7.76
474.22	7.81
474.423	7.78
474.625	7.58
474.827	7.43
475.03	7.42
475.232	7.18
475.434	7.11
475.636	7.06
475.838	7.23
476.04	7.2
476.243	7.28
476.445	7.41
476.647	7.47
476.849	7.75
477.051	7.56
477.253	7.56
477.455	7.61
477.657	7.68
477.859	7.86
478.061	7.81
478.263	7.6
478.465	7.49
478.667	7.42
478.869	7.3
479.071	7.09
479.273	7.36
479.475	7.21
479.677	7.08
479.879	6.97
480.081	6.88
480.283	7.05
480.485	7.16
480.686	7.11
480.888	7.11
481.09	7.22
481.292	7.43
481.494	7.42
481.695	7.6
481.897	7.72
482.099	7.68
482.301	7.77
482.502	7.64
482.704	7.7
482.906	7.8
483.107	7.84
483.309	7.81
483.511	7.75
483.712	7.81
483.914	7.86
484.115	7.9
484.317	7.94
484.519	7.95
484.72	8.02
484.922	8.04
485.123	8.03
485.325	8.02
485.526	8.07
485.728	8.07
485.929	8.05
486.131	7.99
486.332	7.93
486.534	8.03
486.735	8
486.936	7.93
487.138	7.99
487.339	8
487.541	8.01
487.742	8.01
487.943	8.05
488.144	7.99
488.346	8
488.547	7.96
488.748	7.92
488.95	7.97
489.151	7.96
489.352	7.92
489.553	7.91
489.755	7.92
489.956	7.87
490.157	7.81
490.358	7.85
490.559	7.88
490.76	7.99
490.961	7.95
491.163	7.83
491.364	7.83
491.565	7.67
491.766	7.68
491.967	7.75
492.168	7.85
492.369	7.88
492.57	7.82
492.771	7.71
492.972	7.72
493.173	7.72
493.374	7.86
493.575	7.84
493.776	8.03
493.976	7.95
494.177	7.75
494.378	7.54
494.579	7.47
494.78	7.52
494.981	7.77
495.182	7.76
495.382	7.77
495.583	7.54
495.784	7.58
495.985	7.56
496.185	7.67
496.386	7.83
496.587	7.93
496.788	7.81
496.988	7.81
497.189	7.57
497.39	7.44
497.59	7.41
497.791	7.46
497.992	7.42
498.192	7.26
498.393	7.2
498.593	7.08
498.794	7.14
498.994	7.32
499.195	7.36
499.395	7.48
499.596	7.67
499.796	7.77
499.997	7.75
500.197	7.87
500.398	8.1
500.598	8.19
500.799	8.16
500.999	8.07
501.199	8.1
501.4	8.13
501.6	8.23
501.801	8.09
502.001	7.91
502.201	7.98
502.402	8
502.602	7.83
502.802	7.92
503.002	8.05
503.203	8.13
503.403	8.2
503.603	8.16
503.803	8.26
504.003	8.44
504.204	8.53
504.404	8.5
504.604	8.45
504.804	8.62
505.004	8.63
505.204	8.77
505.404	8.79
505.604	8.65
505.804	8.57
506.005	8.54
506.205	8.39
506.405	8.45
506.605	8.48
506.805	8.39
507.005	8.42
507.204	8.35
507.404	8.15
507.604	8.3
507.804	8.57
508.004	8.57
508.204	8.57
508.404	8.65
508.604	8.62
508.804	8.68
509.003	8.82
509.203	8.88
509.403	8.91
509.603	9.03
509.803	8.86
510.002	8.74
510.202	8.94
510.402	8.94
510.602	9.12
510.801	9.12
511.001	9.25
511.201	9.33
511.4	9.22
511.6	9.29
511.8	9.37
511.999	9.43
512.199	9.57
512.398	9.62
512.598	9.69
512.797	9.54
512.997	9.63
513.197	9.72
513.396	9.85
513.596	9.96
513.795	9.88
513.994	9.87
514.194	9.97
514.393	10.16
514.593	10.13
514.792	10.09
514.992	10.22
515.191	10.46
515.39	10.49
515.59	10.36
515.789	10.42
515.988	10.49
516.188	10.75
516.387	10.8
516.586	10.78
516.786	10.81
516.985	10.95
517.184	11.05
517.383	11.08
517.582	10.98
517.782	11.08
517.981	11.33
518.18	11.59
518.379	11.46
518.578	11.66
518.777	11.6
518.976	11.7
519.176	11.77
519.375	11.84
519.574	11.77
519.773	11.93
519.972	12.06
520.171	11.94
520.37	11.89
520.569	11.98
520.768	11.82
520.967	11.79
521.166	11.92
521.365	11.94
521.564	11.99
521.762	12.21
521.961	12.25
522.16	12.36
522.359	12.4
522.558	12.59
522.757	12.6
522.956	12.85
523.154	13.07
523.353	13.14
523.552	13.13
523.751	13.16
523.949	13.16
524.148	13.24
524.347	13.2
524.546	13.4
524.744	13.35
524.943	13.63
525.142	13.77
525.34	13.86
525.539	13.92
525.737	14.03
525.936	14.05
526.135	14.14
526.333	14.17
526.532	14.28
526.73	14.38
526.929	14.48
527.127	14.46
527.326	14.42
527.524	14.48
527.723	14.58
527.921	14.6
528.12	14.71
528.318	14.76
528.516	14.82
528.715	14.87
528.913	14.92
529.112	14.99
529.31	15.04
529.508	15.11
529.707	15.15
529.905	15.15
530.103	15.25
530.301	15.29
530.5	15.3
530.698	15.43
530.896	15.5
531.094	15.46
531.293	15.54
531.491	15.6
531.689	15.72
531.887	15.93
532.085	15.99
532.283	16.18
532.481	16.27
532.68	16.41
532.878	16.45
533.076	16.53
533.274	16.67
533.472	16.69
533.67	16.71
533.868	16.79
534.066	16.8
534.264	16.92
534.462	16.95
534.66	17.05
534.858	17.11
535.056	17.14
535.253	17.23
535.451	17.27
535.649	17.36
535.847	17.54
536.045	17.61
536.243	17.69
536.441	17.72
536.638	17.79
536.836	17.87
537.034	18.07
537.232	18.29
537.43	18.46
537.627	18.72
537.825	18.87
538.023	19.08
538.22	19.24
538.418	19.44
538.616	19.62
538.813	19.96
539.011	20.17
539.209	20.44
539.406	20.94
539.604	21.3
539.801	21.57
539.999	21.98
540.196	22.35
540.394	22.73
540.591	23.07
540.789	23.4
540.986	23.68
541.184	23.96
541.381	24.21
541.579	24.34
541.776	24.57
541.974	24.8
542.171	24.91
542.368	25.12
542.566	25.26
542.763	25.43
542.96	25.58
543.158	25.74
543.355	25.94
543.552	26.19
543.75	26.54
543.947	27.03
544.144	27.59
544.341	28.17
544.539	28.96
544.736	29.87
544.933	30.75
545.13	31.85
545.327	32.63
545.524	33.42
545.722	33.96
545.919	34.18
546.116	34.11
546.313	33.91
546.51	33.78
546.707	33.19
546.904	32.5
547.101	31.73
547.298	30.93
547.495	30.22
547.692	29.4
547.889	28.62
548.086	28.12
548.283	27.69
548.48	27.28
548.677	26.74
548.874	26.17
549.07	25.71
549.267	25.5
549.464	25.06
549.661	24.8
549.858	24.58
550.055	24.35
550.251	24.05
550.448	23.68
550.645	23.33
550.842	23.13
551.038	23.08
551.235	22.94
551.432	22.61
551.628	22.57
551.825	22.4
552.022	22.4
552.218	22.32
552.415	22.13
552.612	22.1
552.808	21.93
553.005	21.91
553.201	21.8
553.398	21.67
553.594	21.6
553.791	21.5
553.987	21.4
554.184	21.23
554.38	21.06
554.577	21.12
554.773	20.77
554.97	20.94
555.166	20.94
555.362	20.99
555.559	21.11
555.755	21.28
555.952	21.05
556.148	20.94
556.344	21.03
556.541	21.19
556.737	21.12
556.933	21.34
557.129	21.2
557.326	21.16
557.522	21.01
557.718	21.04
557.914	21.11
558.11	21.36
558.307	21.54
558.503	21.57
558.699	21.5
558.895	21.69
559.091	21.65
559.287	21.61
559.483	21.48
559.679	21.72
559.876	21.77
560.072	21.7
560.268	21.52
560.464	21.69
560.66	21.56
560.856	21.8
561.052	21.53
561.247	21.43
561.443	21.77
561.639	21.96
561.835	21.92
562.031	21.96
562.227	21.8
562.423	22.02
562.619	21.95
562.815	22.04
563.01	21.76
563.206	22.01
563.402	22.26
563.598	22.16
563.793	22.26
563.989	22.33
564.185	22.22
564.381	22.52
564.576	22.54
564.772	22.39
564.968	22.34
565.163	22.56
565.359	22.33
565.555	22.24
565.75	22.36
565.946	22.25
566.141	22.21
566.337	22.27
566.532	22.31
566.728	22.22
566.923	22.29
567.119	22.21
567.314	22.07
567.51	22.34
567.705	22.27
567.901	22.04
568.096	22.08
568.292	22.09
568.487	22.19
568.682	22.12
568.878	22.09
569.073	22.04
569.268	22.09
569.464	22.07
569.659	21.77
569.854	22.07
570.05	21.97
570.245	22.15
570.44	22.15
570.635	22.1
570.831	22.04
571.026	22.25
571.221	22.17
571.416	22.37
571.611	22.57
571.806	22.69
572.002	22.65
572.197	22.82
572.392	22.69
572.587	22.64
572.782	22.62
572.977	22.62
573.172	22.45
573.367	22.7
573.562	22.68
573.757	22.61
573.952	22.61
574.147	22.62
574.342	22.78
574.537	22.79
574.732	22.94
574.927	22.9
575.121	23.11
575.316	23.26
575.511	23.33
575.706	23.41
575.901	23.49
576.096	23.48
576.29	23.67
576.485	23.55
576.68	23.67
576.875	23.83
577.069	24.19
577.264	24.19
577.459	24.33
577.654	24.39
577.848	24.5
578.043	24.75
578.238	25.3
578.432	25.1
578.627	25.22
578.821	25.26
579.016	25.23
579.21	25.1
579.405	25.06
579.6	24.93
579.794	24.88
579.989	25
580.183	25
580.378	24.59
580.572	24.65
580.766	24.77
580.961	24.85
581.155	24.55
581.35	24.38
581.544	24.48
581.738	24.62
581.933	24.78
582.127	24.8
582.321	24.74
582.516	25.15
582.71	25.22
582.904	25.1
583.099	25.4
583.293	25.83
583.487	26.01
583.681	26.08
583.875	26.43
584.07	26.48
584.264	26.43
584.458	26.46
584.652	26.33
584.846	26.48
585.04	26.77
585.234	26.6
585.428	26.77
585.623	27.02
585.817	27.3
586.011	27.24
586.205	27.43
586.399	27.42
586.593	27.51
586.787	27.83
586.981	27.67
587.174	27.49
587.368	27.56
587.562	27.5
587.756	27.41
587.95	27.04
588.144	26.8
588.338	26.21
588.532	26.04
588.725	25.87
588.919	25.52
589.113	25.73
589.307	25.56
589.501	25.12
589.694	24.95
589.888	24.81
590.082	24.79
590.275	24.9
590.469	25.04
590.663	25.29
590.856	25.6
591.05	25.89
591.244	25.85
591.437	26.29
591.631	26.82
591.824	27.02
592.018	27.46
592.212	27.9
592.405	28.13
592.599	28.63
592.792	28.68
592.986	28.76
593.179	28.55
593.372	28.47
593.566	28.26
593.759	28.05
593.953	27.95
594.146	27.52
594.339	27.08
594.533	27
594.726	26.68
594.92	26.44
595.113	26.24
595.306	26.08
595.499	26.13
595.693	25.84
595.886	25.89
596.079	25.8
596.272	26.07
596.466	26.06
596.659	25.95
596.852	25.86
597.045	25.92
597.238	25.81
597.431	26.03
597.624	26.11
597.818	26.41
598.011	26.4
598.204	26.53
598.397	26.44
598.59	26.67
598.783	26.82
598.976	27.08
599.169	27.2
599.362	27.4
599.555	27.38
599.748	27.36
599.941	27.36
600.134	27.43
600.326	27.18
600.519	27.05
600.712	26.94
600.905	26.65
601.098	26.53
601.291	26.23
601.483	25.9
601.676	25.88
601.869	25.93
602.062	25.93
602.255	25.79
602.447	25.67
602.64	25.76
602.833	25.62
603.025	25.78
603.218	25.71
603.411	25.62
603.603	25.86
603.796	25.91
603.989	25.86
604.181	25.86
604.374	25.86
604.566	26.17
604.759	26
604.951	26.09
605.144	25.98
605.336	26.04
605.529	26.26
605.721	26.44
605.914	26.57
606.106	26.63
606.299	26.58
606.491	26.67
606.683	26.63
606.876	27.04
607.068	27.35
607.26	27.61
607.453	27.94
607.645	28.49
607.837	28.52
608.03	28.56
608.222	29.25
608.414	30.18
608.606	31.28
608.799	32.75
608.991	34.43
609.183	36.42
609.375	39.04
609.567	41.74
609.759	44.74
609.952	48.27
610.144	52.19
610.336	55.84
610.528	59.74
610.72	63.49
610.912	66.86
611.104	69.64
611.296	72.13
611.488	74.05
611.68	75.3
611.872	75.56
612.064	75.42
612.256	74.31
612.448	72.5
612.64	70.4
612.832	67.93
613.023	65.07
613.215	62.18
613.407	59.22
613.599	56.51
613.791	53.89
613.983	51.5
614.174	49.15
614.366	47.28
614.558	46.05
614.75	44.64
614.941	43.33
615.133	42.11
615.325	40.87
615.516	40.07
615.708	38.82
615.9	37.7
616.091	36.68
616.283	36.12
616.475	35.46
616.666	34.18
616.858	32.89
617.049	31.89
617.241	31.6
617.432	31.17
617.624	30.34
617.815	29.9
618.007	29.59
618.198	29.5
618.39	28.89
618.581	28.61
618.773	28.56
618.964	28.76
619.155	28.95
619.347	28.56
619.538	28.76
619.729	28.93
619.921	29.13
620.112	29.17
620.303	28.98
620.494	29.21
620.686	29.21
620.877	29.34
621.068	29.16
621.259	29.25
621.451	29.25
621.642	29.45
621.833	29.03
622.024	28.71
622.215	28.84
622.406	28.81
622.597	28.69
622.788	28.71
622.98	28.65
623.171	29.09
623.362	28.88
623.553	28.99
623.744	28.85
623.935	29.68
624.126	29.76
624.317	29.6
624.508	29.5
624.698	29.33
624.889	29.32
625.08	29.11
625.271	29
625.462	29.17
625.653	29.16
625.844	29.14
626.034	28.78
626.225	29.14
626.416	29.2
626.607	29.49
626.798	29.47
626.988	29.57
627.179	29.78
627.37	29.59
627.56	29.7
627.751	29.77
627.942	29.87
628.132	30.15
628.323	29.95
628.514	30.33
628.704	30.35
628.895	30.66
629.085	30.63
629.276	30.86
629.466	31.16
629.657	31.21
629.847	31.63
630.038	31.75
630.228	31.87
630.419	31.95
630.609	32.12
630.8	31.99
630.99	31.88
631.181	31.84
631.371	31.64
631.561	31.46
631.752	31.41
631.942	30.52
632.132	30.19
632.323	29.73
632.513	29.29
632.703	28.64
632.893	28.5
633.084	28.38
633.274	27.92
633.464	27.63
633.654	27.45
633.844	26.94
634.034	26.99
634.225	27
634.415	27.12
634.605	27.13
634.795	26.99
634.985	26.81
635.175	26.57
635.365	26.62
635.555	26.63
635.745	26.41
635.935	26.26
636.125	26.61
636.315	26.3
636.505	25.96
636.695	25.94
636.885	26.08
637.075	26.26
637.265	26.33
637.455	26.25
637.644	26.41
637.834	26.85
638.024	27.21
638.214	27.29
638.404	27.42
638.593	27.65
638.783	27.73
638.973	27.52
639.163	27.86
639.352	27.88
639.542	28.55
639.732	28.29
639.921	28.14
640.111	27.82
640.301	27.31
640.49	27.07
640.68	26.78
640.87	26.92
641.059	26.9
641.249	26.7
641.438	26.46
641.628	26.26
641.817	26.6
642.007	26.7
642.196	26.79
642.386	26.81
642.575	27.07
642.764	27.55
642.954	27.2
643.143	27.51
643.333	27.2
643.522	27.39
643.711	27.03
643.901	26.58
644.09	26.22
644.279	26.19
644.469	26.33
644.658	26.71
644.847	26.49
645.036	26.65
645.226	26.76
645.415	27.14
645.604	27.28
645.793	27.31
645.982	27.74
646.171	27.86
646.361	28.03
646.55	28.31
646.739	27.95
646.928	28.04
647.117	27.99
647.306	27.9
647.495	27.36
647.684	27.36
647.873	27.3
648.062	27.29
648.251	27.32
648.44	26.81
648.629	26.62
648.818	26.58
649.007	26.62
649.196	26.62
649.384	27.07
649.573	27.36
649.762	27.1
649.951	27.33
650.14	27.25
650.328	27.53
650.517	28.21
650.706	28.16
650.895	28.24
651.083	28.11
651.272	28.56
651.461	27.98
651.65	27.53
651.838	27.8
652.027	28.32
652.216	28.23
652.404	27.66
652.593	27.8
652.781	28.08
652.97	28.05
653.158	27.83
653.347	27.5
653.535	27.61
653.724	28.05
653.912	27.88
654.101	27.53
654.289	27.89
654.478	28.08
654.666	27.42
654.855	27.52
655.043	27.41
655.231	27.23
655.42	27.38
655.608	27.4
655.796	27.24
655.985	27.58
656.173	27.7
656.361	27.21
656.55	27.37
656.738	26.92
656.926	26.62
657.114	26.46
657.302	26.95
657.491	27.04
657.679	27.28
657.867	27.31
658.055	26.92
658.243	26.62
658.431	26.95
658.619	26.97
658.807	27.79
658.996	27.74
659.184	27.88
659.372	27.65
659.56	27.76
659.748	27.67
659.936	27.95
660.124	27.95
660.311	28.35
660.499	27.95
660.687	27.93
660.875	27.82
661.063	28.24
661.251	28.59
661.439	28.72
661.627	28.43
661.814	28.23
662.002	28.17
662.19	28.89
662.378	28.37
662.565	28.94
662.753	29.07
662.941	29.01
663.129	28.55
663.316	28.21
663.504	28.62
663.692	28.85
663.879	29.24
664.067	29.15
664.254	28.49
664.442	28.47
664.63	28.54
664.817	28.43
665.005	28.98
665.192	28.95
665.38	29.1
665.567	28.68
665.755	28.04
665.942	27.44
666.13	27.47
666.317	27.52
666.504	27.61
666.692	27.77
666.879	27.51
667.067	27.25
667.254	27.23
667.441	27.25
667.629	26.77
667.816	27.22
668.003	27.49
668.19	27.27
668.378	27.94
668.565	28.24
668.752	27.97
668.939	28.74
669.127	28.63
669.314	28.65
669.501	28.37
669.688	29.02
669.875	29.01
670.062	29.04
670.249	29.15
670.436	28.15
670.623	27.88
670.81	27.92
670.997	27.3
671.184	27
671.371	26.63
671.558	26.93
671.745	27.15
671.932	27.36
672.119	27.4
672.306	27.71
672.493	27.8
672.68	27.37
672.867	27.26
673.054	27.02
673.24	27.6
673.427	28.15
673.614	27.96
673.801	27.96
673.988	27.85
674.174	27.94
674.361	27.71
674.548	28.15
674.734	28.9
674.921	29.37
675.108	29.43
675.294	28.98
675.481	28.59
675.668	28.66
675.854	28.22
676.041	27.92
676.227	27.88
676.414	27.85
676.601	27.76
676.787	27.53
676.974	26.77
677.16	27.13
677.347	27.12
677.533	27.8
677.719	28.01
677.906	27.74
678.092	27.31
678.279	26.97
678.465	26.61
678.651	26.53
678.838	26.52
679.024	26.41
679.21	26.21
679.397	26.27
679.583	25.77
679.769	25.64
679.955	25.97
680.142	26.79
680.328	27.19
680.514	27.77
680.7	28.08
680.886	28.04
681.073	28.53
681.259	28.56
681.445	28.5
681.631	28.75
681.817	28.98
682.003	29.15
682.189	28.46
682.375	28.38
682.561	28.06
682.747	28.2
682.933	28.46
683.119	28.46
683.305	28.37
683.491	28.43
683.677	28.41
683.863	27.89
684.049	27.6
684.235	28.27
684.42	28.53
684.606	28.77
684.792	28.94
684.978	29.09
685.164	29.19
685.349	29.49
685.535	29.85
685.721	30.11
685.907	30.24
686.092	30.45
686.278	30.16
686.464	29.39
686.649	29.22
686.835	29.32
687.021	28.65
687.206	28.23
687.392	28.63
687.577	28.27
687.763	28.04
687.948	28.47
688.134	28.27
688.319	28.61
688.505	29.13
688.69	29.17
688.876	28.22
689.061	28.08
689.247	28.2
689.432	27.97
689.618	27.97
689.803	28.01
689.988	27.79
690.174	27.87
690.359	27.46
690.544	26.94
690.73	26.85
690.915	27.02
691.1	27.49
691.285	27.12
691.471	27.43
691.656	27.63
691.841	27.7
692.026	27.47
692.211	27.4
692.396	28.07
692.582	28.47
692.767	28.26
692.952	28.44
693.137	28.22
693.322	28.73
693.507	27.78
693.692	27.68
693.877	27.56
694.062	27.96
694.247	27.9
694.432	27.65
694.617	27.77
694.802	28.54
694.987	28.75
695.172	28.72
695.357	28.3
695.541	28.52
695.726	28.47
695.911	28.44
696.096	28.2
696.281	28.48
696.466	28.23
696.65	27.71
696.835	27.58
697.02	27.23
697.204	27.54
697.389	28.16
697.574	28.16
697.759	28.34
697.943	27.88
698.128	27.91
698.312	27.94
698.497	27.94
698.682	28.37
698.866	28.03
699.051	28.27
699.235	28.53
699.42	28.15
699.604	28.16
699.789	28.13
699.973	28.42
700.158	28.83
700.342	28.78
700.527	29.16
700.711	29.3
700.895	29.41
701.08	29.44
701.264	29.16
701.448	29.14
701.633	29.75
701.817	29.98
702.001	30.28
702.186	29.68
702.37	29.64
702.554	29.42
702.738	29.24
702.923	30.1
703.107	29.72
703.291	30.37
703.475	30.4
703.659	30
703.843	30.39
704.027	30.41
704.212	30.89
704.396	31.25
704.58	30.58
704.764	30.86
704.948	29.83
705.132	30.47
705.316	30.16
705.5	30.59
705.684	30.91
705.868	30.5
706.052	30.71
706.235	30.51
706.419	30.24
706.603	31.2
706.787	30.44
706.971	30.64
707.155	30.34
707.339	30.11
707.522	30.36
707.706	29.73
707.89	29.54
708.074	29.52
708.257	30.19
708.441	30.23
708.625	28.74
708.808	29.63
708.992	29.47
709.176	30.1
709.359	30.25
709.543	29.85
709.727	30.2
709.91	30.11
710.094	29.78
710.277	29.56
710.461	29.27
710.644	30.51
710.828	30.2
711.011	31.05
711.195	31.04
711.378	30.14
711.562	30.26
711.745	30.26
711.928	30.58
712.112	31.3
712.295	30.58
712.478	30.63
712.662	30.19
712.845	29.59
713.028	29.27
713.212	28.94
713.395	28.88
713.578	29.39
713.761	28.98
713.945	27.89
714.128	27.35
714.311	27.17
714.494	27.55
714.677	28.56
714.86	28.7
715.043	28.41
715.227	28.37
715.41	29.08
715.593	29.2
715.776	29.59
715.959	30.3
716.142	30.19
716.325	30.87
716.508	30.42
716.691	29.71
716.874	29.36
717.057	29.12
717.239	29.89
717.422	30
717.605	29.8
717.788	29.48
717.971	29.12
718.154	29.02
718.337	28.92
718.519	28.92
718.702	28.96
718.885	29.41
719.068	29.21
719.25	28.12
719.433	26.8
719.616	26.71
719.798	26.77
719.981	26.79
720.164	26.41
720.346	25.52
720.529	25.99
720.712	25.2
720.894	25.8
721.077	27.83
721.259	27.94
721.442	28.72
721.624	27.44
721.807	26.9
721.989	27.79
722.172	27.9
722.354	27.2
722.537	27.4
722.719	27.62
722.901	28.01
723.084	27.19
723.266	26.68
723.448	26.62
723.631	27.69
723.813	28.38
723.995	27.46
724.178	28.35
724.36	30.29
724.542	29.84
724.724	29.83
724.907	29.27
725.089	27.91
725.271	27.93
725.453	28.24
725.635	28.44
725.817	27.82
725.999	28.56
726.181	27.47
726.364	27.44
726.546	26.33
726.728	26.94
726.91	26.39
727.092	27.43
727.274	27.38
727.456	27.42
727.638	27.12
727.819	27.41
728.001	27.6
728.183	28.56
728.365	27.63
728.547	28.75
728.729	28.23
728.911	28.97
729.093	29.25
729.274	29.63
729.456	29.82
729.638	29.07
729.82	28.99
730.001	28.64
730.183	28.01
730.365	28.12
730.546	27.68
730.728	28.24
730.91	28.14
731.091	27.54
731.273	27.8
731.455	27.47
731.636	27.67
731.818	27.23
731.999	27.04
732.181	26.99
732.362	27.12
732.544	26.44
732.725	26.17
732.907	25.66
733.088	25.18
733.27	24.65
733.451	24.61
733.633	24.54
733.814	25.52
733.995	25.64
734.177	25.09
734.358	25.49
734.539	26.4
734.721	26.05
734.902	26.9
735.083	27.14
735.264	27
735.446	27.94
735.627	27.91
735.808	28.07
735.989	27.95
736.17	28.03
736.351	28.03
736.533	28.05
736.714	28.92
736.895	29.02
737.076	29.24
737.257	29.46
737.438	28.33
737.619	29.05
737.8	29.07
737.981	28.97
738.162	29.42
738.343	28.99
738.524	28.77
738.705	28.86
738.886	28.18
739.067	28.14
739.247	27.95
739.428	28.05
739.609	27.96
739.79	26.98
739.971	28.04
740.151	28.14
740.332	29.39
740.513	29.51
740.694	28.7
740.874	28.27
741.055	28.37
741.236	28.45
741.417	28.76
741.597	29.42
741.778	30.33
741.958	29.43
742.139	29.46
742.32	28.15
742.5	28.3
742.681	28.22
742.861	29.5
743.042	29.66
743.222	29.26
743.403	29.27
743.583	27.71
743.764	26.38
743.944	26.2
744.124	27.34
744.305	27.29
744.485	27.62
744.666	28.86
744.846	27.21
745.026	26.72
745.207	26.8
745.387	27.32
745.567	28.72
745.747	30.74
745.928	30.56
746.108	30.47
746.288	30.4
746.468	30.04
746.648	29.96
746.829	32.62
747.009	31.92
747.189	32.9
747.369	33.32
747.549	31.96
747.729	31.08
747.909	31.2
748.089	30.77
748.269	31.23
748.449	31.54
748.629	30.38
748.809	29.15
748.989	29.5
749.169	28.15
749.349	26.56
749.529	27.39
749.709	27.18
749.889	27.32
750.068	26.78
750.248	26.29
750.428	25.82
750.608	25.09
750.788	24.72
750.967	24.69
751.147	24.87
751.327	24.41
751.507	24.25
751.686	24.79
751.866	24.36
752.046	24.92
752.225	25.6
752.405	26.77
752.585	28.04
752.764	27.95
752.944	27.64
753.123	27.95
753.303	28.9
753.482	27.85
753.662	27.61
753.841	28.3
754.021	26.92
754.2	25.78
754.38	25.12
754.559	24.78
754.739	24.26
754.918	24.94
755.097	25.9
755.277	26.02
755.456	26.98
755.635	26.97
755.815	27.45
755.994	28.39
756.173	29.47
756.352	28.72
756.532	28.19
756.711	29.2
756.89	28.47
757.069	29.58
757.248	29.33
757.427	28.52
757.607	29.03
757.786	27.6
757.965	27.79
758.144	27.75
758.323	28.13
758.502	28.72
758.681	28.59
758.86	29.68
759.039	28.02
759.218	28.28
759.397	30.11
759.576	30.46
759.755	31.94
759.934	31.22
760.113	30.96
760.291	31.07
760.47	31.3
760.649	29.93
760.828	28.54
761.007	28.5
761.186	27.44
761.364	26.24
761.543	25.54
761.722	24.62
761.901	24.98
762.079	25.78
762.258	26.73
762.437	25.91
762.615	26.93
762.794	28.49
762.972	29.44
763.151	30.28
763.33	30.35
763.508	30.16
763.687	30.22
763.865	30.78
764.044	30.69
764.222	30.11
764.401	30.65
764.579	31.1
764.758	30.81
764.936	30.29
765.114	30.83
765.293	31.38
765.471	31.11
765.65	31.1
765.828	30.05
766.006	29.86
766.184	29.14
766.363	29.91
766.541	29.06
766.719	29.56
766.898	29.63
767.076	29.39
767.254	28.3
767.432	29
767.61	30.12
767.788	30.53
767.967	29.7
768.145	30.73
768.323	29.93
768.501	30.88
768.679	30.34
768.857	30.14
769.035	27.88
769.213	28
769.391	27.47
769.569	25.62
769.747	25.03
769.925	26.13
770.103	26.3
770.281	25.18
770.459	24.48
770.636	24.09
770.814	24.52
770.992	26.46
771.17	28.03
771.348	29.83
771.525	31.25
771.703	32.8
771.881	32.2
772.059	32.93
772.236	35.89
772.414	35.65
772.592	34.78
772.769	35.41
772.947	36.24
773.125	35.66
773.302	33.47
773.48	33.54
773.657	32.47
773.835	31.71
774.013	28.72
774.19	26.79
774.368	27.35
774.545	29.19
774.723	27.04
774.9	24.45
775.077	23.97
775.255	24.21
775.432	22.46
775.61	22.4
775.787	23.79
775.964	25.61
776.142	25.93
776.319	25.13
776.496	20.72
776.674	21.22
776.851	23.56
777.028	23.09
777.205	22.72
777.382	24.01
777.56	23.6
777.737	20.41
777.914	22.51
778.091	21.38
778.268	22.81
778.445	25.74
778.622	26.23
778.8	24.12
778.977	24.63
779.154	-11.47
779.331	-13.14
779.508	-12.35
779.685	-8.56
779.862	-10.58
780.038	-8.01
780.215	-8.76
780.392	-7.8
780.569	-7.79
780.746	-6
780.923	-6.29
781.1	31.69
781.277	31.87
781.453	31.73
781.63	30.4
781.807	30.99
781.984	27.3
782.16	27.91
782.337	26.75
782.514	26.09
782.691	24.72
782.867	22.86
783.044	20.86
783.221	20.73
783.397	19.98
783.574	18.51
783.75	17.26
783.927	17.13
784.103	16.56
784.28	14.37
784.456	14.3
784.633	13.67
784.809	15.92
784.986	17.68
785.162	19.87
785.339	21.98
785.515	25.23
785.692	25.85
785.868	29.2
786.044	30.31
786.221	32.2
786.397	32.51
786.573	30.09
786.749	30.54
786.926	30.25
787.102	28.2
787.278	27.97
787.454	27.1
787.631	26.93
787.807	27.65
787.983	26.17
788.159	26.52
788.335	24.32
788.511	29.19
788.687	24.52
788.863	23.87
789.039	22.61
789.216	21
789.392	20.5
789.568	18.98
789.744	16.18
789.919	17.28
790.095	19.54
790.271	21.11
790.447	20.22
790.623	25.55
790.799	26.63
790.975	26.46
791.151	28.4
791.327	29.66
791.502	30.68
791.678	32.77
791.854	30.66
792.03	27.38
792.205	26.18
792.381	23.43
792.557	18.88
792.733	20.01
792.908	22.52
793.084	22.47
793.259	20.36
793.435	20.42
793.611	20.21
793.786	22.53
793.962	26.34
794.137	25.96
794.313	27.95
794.488	28.82
794.664	27
794.839	23.72
795.015	22.64
795.19	24.64
795.366	26.8
795.541	26.75
795.716	25.03
795.892	22.67
796.067	25.29
796.242	27.88
796.418	30.5
796.593	27.94
796.768	30.11
796.944	28.38
797.119	27.1
797.294	24.53
797.469	22.65
797.644	22.65
797.82	21.59
797.995	21.39
798.17	18.74
798.345	17.25
798.52	17.6
798.695	17.96
798.87	17.81
799.045	18.8
799.22	19.34
799.395	22.84
799.57	22.8
799.745	21.9
799.92	21.64
800.095	23.99
800.27	24.41
800.445	26.36
800.62	27.15
800.795	28.63
800.97	28.23
801.145	27.55
801.319	23.21
801.494	22.47
801.669	22.77
801.844	21.5
802.018	19.81
802.193	22.21
802.368	21.72
802.543	16.98
802.717	17.82
802.892	17.28
803.067	18.55
803.241	22.36
803.416	24.75
803.59	26.55
803.765	26.52
803.94	25.87
804.114	21.89
804.289	23.81
804.463	25.15
804.638	24.9
804.812	25.09
804.986	26.1
805.161	25.52
805.335	23.45
805.51	22.69
805.684	22.31
805.858	23.63
806.033	24.93
806.207	23.86
806.381	25.33
806.556	23.29
806.73	22.43
806.904	19.93
807.078	18.46
807.253	16.96
807.427	18.75
807.601	17.81
807.775	18.93
807.949	17.23
808.123	14.37
808.298	13.74
808.472	14.32
808.646	12.33
808.82	10.58
808.994	11.72
809.168	12.52
809.342	8.37
809.516	11.26
809.69	8.83
809.864	11.75
810.038	14.18
810.212	15.4
810.385	13.3
810.559	14.95
810.733	18.24
810.907	19.09
811.081	21.98
811.255	26.56
811.428	28.08
811.602	28.09
811.776	27.04
811.95	24.3
812.123	24.54
812.297	23.79
812.471	23.27
812.644	25.56
812.818	24.13
812.992	22.64
813.165	17.95
813.339	17.33
813.512	18.11
813.686	20.86
813.86	23.2
814.033	24.71
814.207	26.96
814.38	25.44
814.554	22.82
814.727	22.88
814.9	23.95
815.074	25.86
815.247	24.23
815.421	25.35
815.594	22.31
815.767	23.04
815.941	20.68
816.114	16.07
816.287	18.38
816.46	16.32
816.634	14.95
816.807	14.55
816.98	11.17
817.153	8.66
817.327	4.81
817.5	6
817.673	3.92
817.846	0.93
818.019	6.74
818.192	9.86
818.365	8
818.538	11.56
818.711	13.09
818.884	17.13
819.057	17.62
819.23	19.58
819.403	20.1
819.576	23.2
819.749	23.13
819.922	25.28
820.095	23.99
820.268	28.15
820.441	27.38
820.614	26.4
820.786	26.25
820.959	27.54
821.132	28.58
821.305	28.19
821.477	27.36
821.65	29.32
821.823	29.47
821.996	29.11
822.168	28.26
822.341	28.76
822.514	29.37
822.686	29.27
822.859	28.65
823.031	29.11
823.204	29.35
823.376	29.82
823.549	28.86
823.722	28.88
823.894	28.96
824.067	29.27
824.239	29.04
824.411	28.89
824.584	29.44
824.756	30.56
824.929	29.57
825.101	29.95
825.273	29.84
825.446	30.44
825.618	30.68
825.79	30.81
825.963	30.98
826.135	30.75
826.307	30.94
826.479	30.64
826.652	30.43
826.824	30.55
826.996	30.59
827.168	30.51
827.34	30.37
827.512	29.84
827.684	28.72
827.856	28.31
828.029	28.84
828.201	28.87
828.373	28.74
828.545	29.14
828.717	28.36
828.889	27.77
829.061	27.5
829.232	26.84
829.404	26.93
829.576	28.86
829.748	29.64
829.92	27.66
830.092	28.26
830.264	27.25
830.436	26.22
830.607	27.69
830.779	28.13
830.951	27.61
831.123	26.27
831.294	24.91
831.466	23.18
831.638	23.23
831.809	25.37
831.981	23.45
832.153	24.12
832.324	23.7
832.496	21.79
832.667	17.76
832.839	17.33
833.011	21.81
833.182	21.8
833.354	21.59
833.525	20.85
833.697	21.73
833.868	21.55
834.039	22.55
834.211	22
834.382	24.66
834.554	26.78
834.725	28
834.896	25.93
835.068	23.81
835.239	21.65
835.41	22.26
835.581	20.24
835.753	20.87
835.924	18.66
836.095	19.39
836.266	18.51
836.438	17.26
836.609	15.92
836.78	16.28
836.951	19.06
837.122	22.69
837.293	23.08
837.464	24.35
837.635	23.52
837.806	25.62
837.977	21.32
838.148	21
838.319	18.56
838.49	17.44
838.661	18.49
838.832	17.73
839.003	14.93
839.174	13.01
839.345	13.26
839.516	14.4
839.687	12.22
839.857	13.68
840.028	13.45
840.199	17.02
840.37	14.72
840.54	11.33
840.711	16.28
840.882	17.55
841.053	16.3
841.223	15
841.394	12.74
841.564	12.05
841.735	16.07
841.906	18.03
842.076	11.43
842.247	17.64
842.417	23.9
842.588	17.61
842.758	19.36
842.929	14.55
843.099	17.88
843.27	17.61
843.44	15.05
843.611	14.14
843.781	3.23
843.951	13.99
844.122	8.08
844.292	-1.57
844.462	-7.65
844.633	-12.52
844.803	-10.68
844.973	-20.54
845.144	-26.81
845.314	-31.34
845.484	-28.68
845.654	-25.7
845.824	-29.23
845.995	-13.48
846.165	-12.79
846.335	-7.66
846.505	-2.12
846.675	2.34
846.845	12.81
847.015	8.78
847.185	14.41
847.355	13.51
847.525	6.53
847.695	4.39
847.865	-7.71
848.035	-3.8
848.205	0.22
848.375	-8.05
848.545	-12.66
848.715	-25.58
848.884	-23.21
849.054	-24.39
849.224	-15.04
849.394	-7.42
849.564	0.06
849.733	11.25
849.903	5.77
850.073	6.78
850.243	13.71
850.412	9.51
850.582	14.99
850.752	19.85
850.921	23.54
851.091	21.87
851.26	24.08
851.43	24.22
851.599	21.09
851.769	19.36
851.939	19.17
852.108	18.34
852.278	20.85
852.447	12.59
852.616	9.62
852.786	13.67
852.955	7.8
853.125	4.99
853.294	-5.97
853.463	-7.76
853.633	-1.82
853.802	-13.18
853.971	-27.67
854.141	-31.63
854.31	-14.3
854.479	-10.56
854.648	-20.22
854.818	-16.31
854.987	-7.87
855.156	6.45
855.325	-5.55
855.494	-13.86
855.663	-16.68
855.832	0.23
856.001	3.65
856.171	-13.56
856.34	-8.37
856.509	-4.79
856.678	-12.03
856.847	-12.06
857.016	-17.13
857.185	-5.72
857.353	-2.44
857.522	6.57
857.691	7.36
857.86	4.41
858.029	16.95
858.198	14.26
858.367	6.51
858.535	1.54
858.704	-2.61
858.873	-1.84
859.042	-3.26
859.21	-10
859.379	-12.25
859.548	-14.39
859.717	-13.89
859.885	-39.48
860.054	-40.03
860.222	-21.37
860.391	-16.2
860.56	-26.03
860.728	-33.97
860.897	-37.29
861.065	-16.35
861.234	-14.93
861.402	-27.86
861.571	-16.58
861.739	-7.43
861.908	-11.4
862.076	-13.55
862.244	1.86
862.413	12.66
862.581	22.08
862.749	28.06
862.918	30.77
863.086	19.47
863.254	9.13
863.423	0.33
863.591	1.32
863.759	4.44
863.927	0.44
864.096	5.21
864.264	-7.25
864.432	-5.44
864.6	-18.06
864.768	-46.33
864.936	-36.18
865.104	-14.92
865.272	-6.51
865.44	-20.7
865.608	-22.91
865.776	-27.97
865.944	-20.6
866.112	-13.71
866.28	-26.81
866.448	-23.47
866.616	-31.09
866.784	-47.75
866.952	-51.53
867.12	-44
867.288	-34.19
867.455	-49.49
867.623	-57.86
867.791	-160.61
867.959	-139.04
868.127	-66.59
868.294	-61.34
868.462	-55.09
868.63	-21.83
868.797	-14.93
868.965	-2.73
869.133	-6.63
869.3	0.22
869.468	-1.07
869.636	0.72
869.803	-7.02
869.971	-14.27
870.138	-11.69
870.306	-3.39
870.473	-2.68
870.641	-5.46
870.808	-8.6
870.975	-2.28
871.143	-4.16
871.31	-1.02
871.478	-10.55
871.645	0.42
871.812	-12.55
871.98	-8.74
872.147	-29.85
872.314	-17.05
872.482	-11.53
872.649	-13.75
872.816	-26.92
872.983	-11.6
873.15	-22.22
873.318	-13.54
873.485	-34.08
873.652	-15.57
873.819	-40.94
873.986	-22.52
874.153	-45.63
874.32	-32.09
874.487	-56.16
874.654	-48.37
874.821	-82.28
874.988	-61.63
875.155	-60.85
875.322	-33.04
875.489	-46.61
875.656	-30.19
875.823	-39.33
875.99	-30.76
876.157	-40.91
876.324	-29.74
876.49	-22.85
876.657	-17.07
876.824	-23.79
876.991	-20.6
877.157	-32.36
877.324	-17.26
877.491	-33.95
877.658	-30.83
877.824	-18.96
877.991	-9.06
878.157	-20.03
878.324	-28.93
878.491	-23.03
878.657	-8.79
878.824	-9.44
878.99	6.47
879.157	-3.78
879.323	10.7
879.49	8.42
879.656	4.09
879.823	-2.5
879.989	11.12
880.156	17.55
880.322	15.75
880.488	16.38
880.655	13.63
880.821	4.01
880.987	13.54
881.154	14
881.32	13.04
881.486	11.45
881.652	8.24
881.819	9.88
881.985	13.88
882.151	14.8
882.317	16.94
882.483	16.16
882.649	19.32
882.816	19.98
882.982	21.66
883.148	22.4
883.314	24.14
883.48	26.69
883.646	26.17
883.812	25.76
883.978	26.62
884.144	27.21
884.31	28.77
884.476	29.05
884.642	27.32
884.807	25.49
884.973	26.87
885.139	25
885.305	24.12
885.471	22.61
885.637	22.76
885.802	23.86
885.968	23.38
886.134	24.07
886.3	23.73
886.465	27.26
886.631	29.65
886.797	28.16
886.962	30.12
887.128	30.05
887.293	34.17
887.459	30.94
887.625	29.92
887.79	23.41
887.956	19.93
888.121	19.03
888.287	12.62
888.452	12.33
888.618	12.4
888.783	9
