Data from CB_098_Reflection_3.txt Node
Date: Sat Nov 14 17:39:09 EST 2015
User: robert
Spectrometer: USB4E03001
Autoset integration time: false
Trigger mode: 4
Integration Time (sec): 1.000000E-1
Scans to average: 15
Electric dark correction enabled: true
Nonlinearity correction enabled: false
Boxcar width: 5
Stray light correction enabled: false
XAxis mode: Wavelengths
Stop averaging: false
Number of Pixels in Spectrum: 3648
>>>>>Begin Spectral Data<<<<<
177.566	91.16
177.785	65.02
178.005	-11.51
178.225	254.49
178.445	616.84
178.665	19.27
178.885	-648.45
179.105	151.41
179.324	170.05
179.544	61.04
179.764	44.75
179.984	36.95
180.204	2.62
180.423	32.75
180.643	88.4
180.863	90.8
181.083	59.86
181.302	76.32
181.522	82.27
181.742	81.62
181.961	113.4
182.181	149.09
182.401	418.85
182.621	253.53
182.84	208.63
183.06	77.39
183.279	65.3
183.499	119.74
183.719	91.24
183.938	87.05
184.158	108.13
184.377	105.97
184.597	96.72
184.816	80.53
185.036	117
185.256	136.75
185.475	127.47
185.695	116.81
185.914	97.9
186.134	99.92
186.353	103.19
186.572	99.9
186.792	97.86
187.011	99.59
187.231	102.84
187.45	93
187.67	91.15
187.889	91.92
188.108	104.48
188.328	125.46
188.547	119.04
188.766	119.47
188.986	116.55
189.205	118.94
189.424	101.68
189.644	104.5
189.863	111.68
190.082	101.43
190.302	90.95
190.521	50.12
190.74	37.2
190.959	25.27
191.178	6.15
191.398	-24.69
191.617	14.62
191.836	46.39
192.055	41.94
192.274	12.12
192.494	56.49
192.713	68.13
192.932	169.33
193.151	305
193.37	213.13
193.589	193.25
193.808	306.79
194.027	469.17
194.246	-1386.08
194.465	2312.75
194.685	234.18
194.904	195.03
195.123	132.42
195.342	153.09
195.561	120.71
195.78	112.42
195.999	142.2
196.218	117.69
196.436	114.25
196.655	105.72
196.874	106.71
197.093	114.88
197.312	121.87
197.531	124.28
197.75	132.57
197.969	144.22
198.188	160.25
198.407	134.21
198.625	145.15
198.844	144.71
199.063	138.66
199.282	151.51
199.501	197.15
199.719	171.77
199.938	156.4
200.157	116.48
200.376	114.35
200.594	110.84
200.813	131.01
201.032	115.47
201.251	106.62
201.469	98.54
201.688	76.58
201.907	59.32
202.125	65.44
202.344	100.16
202.563	100.17
202.781	114.3
203	173.33
203.218	203.14
203.437	157.28
203.656	150.11
203.874	112.86
204.093	148.18
204.311	171.73
204.53	166.31
204.748	99.53
204.967	120.65
205.185	103.5
205.404	70.8
205.622	40.19
205.841	50.01
206.059	60.53
206.278	57.39
206.496	69.24
206.715	56.49
206.933	52.74
207.151	79.24
207.37	90.08
207.588	97.43
207.806	101.54
208.025	115.88
208.243	118.89
208.461	149.96
208.68	159.78
208.898	148.54
209.116	131.17
209.335	135.55
209.553	162.5
209.771	148.17
209.989	128.05
210.208	125.32
210.426	120.19
210.644	102.07
210.862	87.76
211.081	87.52
211.299	90.94
211.517	102.72
211.735	103.31
211.953	86.68
212.171	85.97
212.39	86.02
212.608	91.93
212.826	91.23
213.044	97.53
213.262	87.55
213.48	91.59
213.698	91
213.916	101.42
214.134	86.02
214.352	80.17
214.57	71.45
214.788	67.06
215.006	61.61
215.224	70.81
215.442	95.17
215.66	93.27
215.878	86.32
216.096	58.58
216.314	47.95
216.532	80.59
216.75	87.74
216.968	103.84
217.185	165.74
217.403	182.57
217.621	222.15
217.839	139.85
218.057	159.32
218.275	205.31
218.492	239.5
218.71	262.94
218.928	252.27
219.146	342.45
219.363	258.67
219.581	251.65
219.799	286.15
220.017	252.35
220.234	267.16
220.452	283.55
220.67	299.35
220.887	515.15
221.105	725.56
221.323	11551.53
221.54	1123.26
221.758	6408.93
221.976	2437.76
222.193	460.17
222.411	606.66
222.629	970.86
222.846	1196.97
223.064	-1030.78
223.281	912.6
223.499	618.42
223.716	1079.7
223.934	-548.19
224.151	-155.96
224.369	-104.83
224.586	-49.73
224.804	-16.17
225.021	-14.44
225.239	-15.92
225.456	-20.72
225.674	-38.68
225.891	-44.19
226.108	-76.37
226.326	-84.79
226.543	-46.08
226.76	-26.05
226.978	-8.97
227.195	-10.11
227.413	-14.23
227.63	-0.78
227.847	2.85
228.064	14.86
228.282	12.55
228.499	14.47
228.716	9.48
228.934	6.27
229.151	5.74
229.368	4.74
229.585	1.84
229.802	1.99
230.02	-3.52
230.237	-4.31
230.454	-6.48
230.671	-8.03
230.888	-8.4
231.105	-11.98
231.323	-16.12
231.54	-23.7
231.757	-32.51
231.974	-38.26
232.191	-38
232.408	-32.8
232.625	-30.97
232.842	-35.91
233.059	-25.28
233.276	-31
233.493	-28.6
233.71	-21.82
233.927	-8.93
234.144	-3.4
234.361	-2.08
234.578	-5.93
234.795	-0.43
235.012	-2.58
235.229	-7.03
235.446	-17.24
235.663	-14.29
235.879	-13.89
236.096	-18.08
236.313	-25.51
236.53	-26.81
236.747	-19.03
236.964	-21.18
237.181	-29.99
237.397	-30.64
237.614	-31.46
237.831	-29.26
238.048	-29.78
238.264	-33.11
238.481	-29.26
238.698	-17.63
238.915	-13.16
239.131	-16.52
239.348	-14.97
239.565	-12.22
239.781	-9.11
239.998	-7.25
240.215	-3.51
240.431	-4.35
240.648	5.01
240.865	6.16
241.081	4.71
241.298	4.24
241.514	6.11
241.731	6.3
241.947	7.74
242.164	7.86
242.38	9.85
242.597	9.41
242.814	10.09
243.03	7.04
243.246	7
243.463	7.38
243.679	4.81
243.896	4.37
244.112	3.25
244.329	0.11
244.545	0.8
244.762	2.73
244.978	3.5
245.194	4.12
245.411	3.02
245.627	3.02
245.843	1.35
246.06	3.28
246.276	4.03
246.492	5.97
246.709	5.73
246.925	5.04
247.141	3.99
247.357	4.54
247.574	4.43
247.79	5.06
248.006	4.99
248.222	5.28
248.439	5.25
248.655	4.18
248.871	4.31
249.087	5.83
249.303	5.55
249.519	5.33
249.736	3.08
249.952	3.52
250.168	4.5
250.384	3
250.6	3.85
250.816	3.48
251.032	4.79
251.248	0.64
251.464	-2.23
251.68	-2.4
251.896	-2.49
252.112	-2.31
252.328	-4.16
252.544	-6.6
252.76	-8.92
252.976	-11.07
253.192	-10.86
253.408	-11.45
253.624	-9.3
253.84	-7.96
254.056	-8.02
254.272	-8.58
254.487	-7.91
254.703	-7.27
254.919	-7.56
255.135	-2.55
255.351	-5.99
255.567	-4.29
255.782	-3.71
255.998	-3.76
256.214	-7.36
256.43	-5.04
256.646	-4.95
256.861	-2.69
257.077	-2.91
257.293	1.56
257.508	3.78
257.724	6.7
257.94	7.39
258.155	5.87
258.371	4.58
258.587	5.03
258.802	4.77
259.018	5.56
259.234	5.52
259.449	5.49
259.665	5.34
259.88	4.9
260.096	5.29
260.312	4.99
260.527	6.06
260.743	6.11
260.958	6.44
261.174	6.54
261.389	6.01
261.605	5.55
261.82	6.11
262.036	5.28
262.251	4.87
262.466	4.33
262.682	3.98
262.897	1.01
263.113	1.07
263.328	1.41
263.543	-0.55
263.759	-2.34
263.974	-3.3
264.189	-6.1
264.405	-6.35
264.62	-5.99
264.835	-5.89
265.051	-4.35
265.266	-3.47
265.481	-1.9
265.696	-2.5
265.912	0.17
266.127	2.52
266.342	5.13
266.557	6.5
266.773	5.28
266.988	4.72
267.203	5.1
267.418	4.53
267.633	6.1
267.848	5.87
268.064	5.6
268.279	4.54
268.494	3.31
268.709	2.41
268.924	2.58
269.139	3.01
269.354	3.36
269.569	3.96
269.784	3.68
269.999	2.26
270.214	1.71
270.429	0.86
270.644	1.67
270.859	2.21
271.074	0.9
271.289	1.04
271.504	2.29
271.719	2.8
271.934	1.69
272.149	2.43
272.363	3.36
272.578	5.11
272.793	4.52
273.008	3.49
273.223	4.26
273.438	4.18
273.653	4.46
273.867	3.35
274.082	2.92
274.297	3.52
274.512	0.87
274.726	0.09
274.941	-2.64
275.156	1.08
275.371	2.72
275.585	2.32
275.8	2.9
276.015	1.77
276.229	3.28
276.444	3.16
276.659	2.17
276.873	4.63
277.088	5.89
277.302	7.06
277.517	5.99
277.732	4.74
277.946	4.34
278.161	4.24
278.375	4.98
278.59	4.99
278.804	4.74
279.019	4.81
279.233	3.21
279.448	1.21
279.662	1.38
279.877	0.9
280.091	1.96
280.306	1.2
280.52	1.02
280.735	1.48
280.949	0.2
281.163	0.76
281.378	0.94
281.592	2.49
281.806	2.58
282.021	1.96
282.235	2.54
282.449	2.85
282.664	4.01
282.878	5.38
283.092	4.99
283.307	5.41
283.521	4.69
283.735	4.77
283.949	3.61
284.164	4.74
284.378	5.07
284.592	5.5
284.806	5.49
285.02	5.55
285.234	5
285.449	5.12
285.663	5.3
285.877	6.05
286.091	5.63
286.305	6.01
286.519	5.74
286.733	5.06
286.947	5.03
287.161	5.43
287.375	4.87
287.589	5.47
287.803	5.71
288.017	6.32
288.231	5.49
288.445	5.84
288.659	5.6
288.873	4.85
289.087	5.94
289.301	4.45
289.515	3.48
289.729	3.17
289.943	2.05
290.157	0.9
290.371	0.79
290.584	2.11
290.798	1.34
291.012	2.48
291.226	3.27
291.44	3.14
291.654	3.34
291.867	3.12
292.081	3.75
292.295	4.57
292.509	5.14
292.722	4.86
292.936	4.39
293.15	5.97
293.364	5.38
293.577	4.47
293.791	4.87
294.005	5.6
294.218	6.89
294.432	7.14
294.645	6.58
294.859	8.25
295.073	7.81
295.286	6.75
295.5	7.37
295.713	7.23
295.927	7.49
296.14	7.25
296.354	6.52
296.568	5.28
296.781	5.2
296.994	5.57
297.208	3.93
297.421	4.04
297.635	3.86
297.848	3.71
298.062	3.63
298.275	4.15
298.489	4.19
298.702	4.44
298.915	4.37
299.129	5.2
299.342	5.8
299.555	6.96
299.769	7.91
299.982	8.95
300.195	8.2
300.409	8.98
300.622	8.68
300.835	7.72
301.048	7.72
301.262	8.09
301.475	6.17
301.688	5.31
301.901	4.37
302.115	2.37
302.328	3.21
302.541	3.81
302.754	3.61
302.967	3.98
303.18	4.15
303.393	5.15
303.607	5.32
303.82	6.02
304.033	5.94
304.246	6.54
304.459	7.96
304.672	7.99
304.885	7.75
305.098	6.9
305.311	5.97
305.524	6.71
305.737	5.89
305.95	5.77
306.163	5.07
306.376	4.88
306.589	4.9
306.802	2.52
307.015	0.35
307.228	1.13
307.44	1.71
307.653	4.21
307.866	3.73
308.079	3.34
308.292	5.7
308.505	5.83
308.718	7.23
308.93	7.66
309.143	9.33
309.356	10.79
309.569	10.26
309.781	11.33
309.994	9.95
310.207	9.95
310.42	10.09
310.632	8.94
310.845	9.88
311.058	9.96
311.27	9.97
311.483	10.15
311.696	10.21
311.908	10.49
312.121	9.54
312.333	9.52
312.546	9.61
312.759	10.36
312.971	10.68
313.184	9.87
313.396	8.79
313.609	7.6
313.821	7.25
314.034	5.94
314.246	6.15
314.459	7.48
314.671	7.12
314.884	6.33
315.096	5.75
315.309	5.4
315.521	6.93
315.733	7.29
315.946	7.57
316.158	9.43
316.371	9.99
316.583	8.06
316.795	7.17
317.008	8.33
317.22	9.42
317.432	9.25
317.644	7.09
317.857	7.38
318.069	8.17
318.281	8.13
318.494	5.76
318.706	5.94
318.918	6.39
319.13	5.91
319.342	6.24
319.555	5.96
319.767	5.36
319.979	6.41
320.191	6.82
320.403	6.75
320.615	7.92
320.827	7.14
321.039	7.05
321.252	9.77
321.464	10.2
321.676	9.25
321.888	9.19
322.1	9.52
322.312	10.28
322.524	9.22
322.736	9.59
322.948	8.63
323.16	10.43
323.372	9.59
323.584	7.4
323.796	8.2
324.007	8.27
324.219	9.98
324.431	10.84
324.643	10.36
324.855	10.07
325.067	10.49
325.279	10.42
325.491	11.11
325.702	12.22
325.914	12.2
326.126	11.55
326.338	12.39
326.55	13.77
326.761	14.48
326.973	15.39
327.185	16.71
327.396	16.17
327.608	16.79
327.82	16.9
328.032	17.86
328.243	18.37
328.455	19.47
328.666	19.45
328.878	18.39
329.09	18.31
329.301	19.27
329.513	18.37
329.725	17.96
329.936	18.13
330.148	17.65
330.359	16.37
330.571	17.42
330.782	17.92
330.994	18.18
331.205	18.14
331.417	18.58
331.628	18.43
331.84	19.36
332.051	19.76
332.262	19.94
332.474	20.38
332.685	21.21
332.897	22.07
333.108	22.13
333.319	22.13
333.531	21.8
333.742	22.19
333.953	22.98
334.165	22.31
334.376	22.75
334.587	24.37
334.799	25.54
335.01	26.07
335.221	26.07
335.432	26.33
335.644	26.81
335.855	27.1
336.066	26.97
336.277	25.89
336.488	26.51
336.7	26.98
336.911	27.01
337.122	26.32
337.333	26.86
337.544	26.68
337.755	24.97
337.966	25.12
338.177	25.17
338.388	25.55
338.599	26.47
338.811	25.85
339.022	25.3
339.233	24.82
339.444	23.91
339.655	23.35
339.866	23.22
340.076	24.36
340.287	24.61
340.498	24.57
340.709	23.9
340.92	24.38
341.131	24.9
341.342	25.69
341.553	25.58
341.764	26.12
341.975	26.25
342.185	26.81
342.396	27.06
342.607	26.89
342.818	26.86
343.029	27.16
343.239	27.33
343.45	27.87
343.661	27.7
343.872	27.74
344.082	28.52
344.293	29.07
344.504	29.04
344.714	30.06
344.925	30.22
345.136	30.6
345.346	31.09
345.557	30.47
345.768	29.85
345.978	29.42
346.189	28.92
346.399	29.31
346.61	28.96
346.821	28.77
347.031	27.87
347.242	28.44
347.452	28.08
347.663	26.42
347.873	25.93
348.084	26.35
348.294	26.78
348.504	27.52
348.715	26.86
348.925	26.28
349.136	25.71
349.346	25.3
349.557	25.05
349.767	24.91
349.977	26.44
350.188	25.95
350.398	25.02
350.608	24.88
350.819	24.84
351.029	25.02
351.239	24.76
351.449	25.12
351.66	25.04
351.87	24.86
352.08	25.27
352.29	25.2
352.501	26.02
352.711	26.86
352.921	27.17
353.131	27.25
353.341	26.68
353.552	27.61
353.762	27.92
353.972	28.3
354.182	28.26
354.392	27.8
354.602	28.05
354.812	27.89
355.022	27.06
355.232	27.07
355.442	26.95
355.652	27.13
355.862	26.85
356.072	26.66
356.282	26.85
356.492	26.72
356.702	27.01
356.912	26.77
357.122	27.56
357.332	28.35
357.542	27.79
357.752	27.59
357.962	28.24
358.171	27.5
358.381	27.73
358.591	27.21
358.801	26.88
359.011	26.73
359.221	26.74
359.43	25.83
359.64	25.12
359.85	25.63
360.06	25.64
360.269	25.21
360.479	26.04
360.689	25.67
360.899	25.85
361.108	26.19
361.318	26.03
361.528	25.66
361.737	26.13
361.947	26.6
362.156	26.96
362.366	26.88
362.576	26.61
362.785	26.63
362.995	26.77
363.204	26.74
363.414	26.46
363.623	26.66
363.833	26.54
364.042	25.91
364.252	25.94
364.461	25.24
364.671	25.58
364.88	25.7
365.09	25.36
365.299	25.5
365.509	25.22
365.718	24.47
365.927	23.91
366.137	24.32
366.346	24.82
366.555	24.83
366.765	24.19
366.974	23.78
367.183	23.88
367.393	23.74
367.602	23.44
367.811	24.24
368.021	25.21
368.23	25.45
368.439	25.24
368.648	25.02
368.857	24.89
369.067	25.35
369.276	25.14
369.485	24.44
369.694	24.3
369.903	24.29
370.112	23.29
370.321	23.2
370.531	23.58
370.74	23.09
370.949	23.05
371.158	23.27
371.367	23.05
371.576	23.28
371.785	23.56
371.994	23.5
372.203	23.38
372.412	23.85
372.621	23.84
372.83	23.72
373.039	23.77
373.248	24.01
373.457	23.87
373.666	23.55
373.874	23.17
374.083	22.92
374.292	23.02
374.501	22.84
374.71	22.58
374.919	22.14
375.128	22.03
375.336	22.38
375.545	22.02
375.754	21.58
375.963	22.27
376.171	22.54
376.38	22.85
376.589	23.11
376.798	22.56
377.006	22.95
377.215	22.49
377.424	22.34
377.632	22.02
377.841	22.02
378.05	21.85
378.258	21.4
378.467	20.56
378.675	20.27
378.884	19.27
379.093	19.85
379.301	19.23
379.51	19.48
379.718	19.45
379.927	19.73
380.135	19.6
380.344	19.41
380.552	19.11
380.761	19.82
380.969	20.1
381.177	20.68
381.386	20.53
381.594	20.83
381.803	20.76
382.011	20.61
382.219	20
382.428	19.64
382.636	20.15
382.845	20.61
383.053	20.66
383.261	20.6
383.469	20.47
383.678	20.38
383.886	20.37
384.094	20.33
384.302	20.07
384.511	20.28
384.719	20.39
384.927	20.03
385.135	19.5
385.343	19.16
385.552	18.75
385.76	18.62
385.968	18.35
386.176	17.88
386.384	17.96
386.592	17.99
386.8	17.85
387.008	17.66
387.216	17.9
387.424	17.72
387.633	17.82
387.841	17.78
388.049	17.83
388.257	17.89
388.465	17.62
388.672	17.5
388.88	17.37
389.088	17.19
389.296	17.26
389.504	16.47
389.712	16.62
389.92	16.49
390.128	16.56
390.336	16.28
390.544	16.43
390.751	16.49
390.959	16.19
391.167	16.12
391.375	16.37
391.583	15.87
391.79	15.76
391.998	15.68
392.206	15.38
392.414	15.1
392.621	14.93
392.829	14.45
393.037	14.69
393.244	14.76
393.452	14.46
393.66	14.42
393.867	14.39
394.075	14.9
394.283	14.67
394.49	14.74
394.698	14.95
394.905	14.73
395.113	14.87
395.32	14.4
395.528	14.37
395.735	14.61
395.943	14.29
396.15	14.45
396.358	14.19
396.565	14.68
396.773	14.51
396.98	14.15
397.188	14.43
397.395	14.47
397.602	14.78
397.81	14.88
398.017	14.68
398.225	14.94
398.432	15.11
398.639	15.37
398.847	14.76
399.054	14.96
399.261	15.29
399.468	14.96
399.676	15.13
399.883	14.85
400.09	14.7
400.297	14.91
400.505	14.53
400.712	14.28
400.919	13.67
401.126	13.77
401.333	13.77
401.54	13.89
401.748	14.19
401.955	13.55
402.162	13.77
402.369	13.36
402.576	13.09
402.783	13.18
402.99	13.48
403.197	13.56
403.404	13.57
403.611	13.3
403.818	12.91
404.025	12.65
404.232	12.81
404.439	12.98
404.646	13.01
404.853	12.86
405.06	12.79
405.267	12.77
405.474	13
405.681	12.76
405.887	12.63
406.094	12.46
406.301	12.7
406.508	12.67
406.715	12.22
406.922	12.17
407.128	12.5
407.335	12.3
407.542	12.1
407.749	11.85
407.955	11.81
408.162	12.25
408.369	12.08
408.575	11.97
408.782	12
408.989	11.99
409.195	12.14
409.402	12
409.609	11.97
409.815	11.91
410.022	11.82
410.228	12.25
410.435	11.97
410.642	12.33
410.848	12.19
411.055	12.07
411.261	12.03
411.468	11.92
411.674	12.01
411.881	12.34
412.087	12.02
412.294	12.22
412.5	12.01
412.706	11.84
412.913	11.43
413.119	11.51
413.326	11.7
413.532	12.06
413.738	12.21
413.945	12.03
414.151	11.82
414.357	12.25
414.564	12.32
414.77	12.17
414.976	12.35
415.182	12.24
415.389	12.27
415.595	12.09
415.801	11.82
416.007	11.92
416.214	11.8
416.42	12.03
416.626	11.82
416.832	11.8
417.038	11.97
417.244	12.06
417.45	12.42
417.657	12.23
417.863	12.06
418.069	11.98
418.275	11.64
418.481	11.73
418.687	11.69
418.893	11.82
419.099	11.77
419.305	11.68
419.511	11.53
419.717	11.47
419.923	11.6
420.129	11.75
420.335	11.79
420.541	11.94
420.746	11.77
420.952	11.58
421.158	11.41
421.364	11.19
421.57	11.18
421.776	11.16
421.982	11.13
422.187	11.03
422.393	11.02
422.599	11.14
422.805	11.13
423.01	11.43
423.216	11.4
423.422	11.41
423.628	11.51
423.833	11.48
424.039	11.64
424.245	11.62
424.45	11.68
424.656	11.66
424.862	11.52
425.067	11.39
425.273	11.22
425.478	11.23
425.684	11.16
425.889	11.21
426.095	11.31
426.301	11.1
426.506	10.98
426.712	10.97
426.917	11.11
427.123	10.97
427.328	11.16
427.533	11.22
427.739	11.29
427.944	11.27
428.15	11.25
428.355	10.95
428.561	11.01
428.766	11.19
428.971	11.02
429.177	10.83
429.382	10.86
429.587	10.71
429.793	10.69
429.998	10.8
430.203	10.74
430.408	10.79
430.614	10.87
430.819	10.84
431.024	10.84
431.229	10.72
431.434	10.63
431.64	10.72
431.845	10.66
432.05	10.46
432.255	10.42
432.46	10.4
432.665	10.31
432.87	10.42
433.076	10.34
433.281	10.14
433.486	10.32
433.691	10.27
433.896	10.15
434.101	10.17
434.306	10.13
434.511	10.05
434.716	10.16
434.921	10.17
435.126	10.19
435.331	10.21
435.535	10.43
435.74	10.37
435.945	10.46
436.15	10.49
436.355	10.39
436.56	10.46
436.765	10.42
436.97	10.46
437.174	10.61
437.379	10.41
437.584	10.48
437.789	10.49
437.993	10.53
438.198	10.43
438.403	10.57
438.608	10.71
438.812	10.88
439.017	10.89
439.222	10.97
439.426	10.86
439.631	10.91
439.836	10.71
440.04	10.67
440.245	10.54
440.45	10.63
440.654	10.53
440.859	10.54
441.063	10.47
441.268	10.42
441.472	10.25
441.677	10.31
441.881	10.46
442.086	10.58
442.29	10.48
442.495	10.64
442.699	10.61
442.904	10.77
443.108	10.59
443.312	10.53
443.517	10.64
443.721	10.72
443.925	10.63
444.13	10.53
444.334	10.54
444.538	10.61
444.743	10.56
444.947	10.56
445.151	10.46
445.356	10.63
445.56	10.7
445.764	10.76
445.968	10.75
446.173	10.76
446.377	10.59
446.581	10.58
446.785	10.5
446.989	10.48
447.193	10.41
447.398	10.44
447.602	10.45
447.806	10.23
448.01	10.07
448.214	10.15
448.418	9.98
448.622	10
448.826	9.95
449.03	10.07
449.234	10.21
449.438	10.3
449.642	10.21
449.846	10.09
450.05	10.25
450.254	10.25
450.458	10.09
450.662	10.25
450.866	10.37
451.069	10.43
451.273	10.14
451.477	10.25
451.681	10.12
451.885	10.27
452.089	10.25
452.292	10.23
452.496	10.2
452.7	10.29
452.904	10.32
453.107	10.43
453.311	10.42
453.515	10.72
453.719	10.36
453.922	10.26
454.126	10.01
454.33	9.93
454.533	9.78
454.737	9.84
454.94	9.77
455.144	9.69
455.348	9.7
455.551	9.54
455.755	9.31
455.958	9.32
456.162	9.47
456.365	9.56
456.569	9.62
456.772	9.98
456.976	9.99
457.179	10.02
457.383	10
457.586	9.92
457.79	10.12
457.993	10.37
458.196	10.36
458.4	10.28
458.603	10.3
458.807	10.33
459.01	10.23
459.213	10.27
459.417	10.37
459.62	10.24
459.823	10.15
460.026	10.08
460.23	9.93
460.433	9.81
460.636	10
460.839	9.92
461.042	9.92
461.246	9.82
461.449	9.74
461.652	9.57
461.855	9.85
462.058	9.74
462.261	9.77
462.464	9.69
462.668	9.94
462.871	9.69
463.074	10.02
463.277	9.99
463.48	9.79
463.683	9.76
463.886	9.67
464.089	9.38
464.292	9.68
464.495	9.79
464.698	10.02
464.901	9.93
465.104	9.95
465.306	9.73
465.509	9.49
465.712	9.85
465.915	9.86
466.118	9.96
466.321	9.95
466.524	9.82
466.726	9.69
466.929	9.37
467.132	9.32
467.335	9.32
467.538	9.41
467.74	9.49
467.943	9.36
468.146	9.51
468.348	9.54
468.551	9.65
468.754	9.68
468.956	9.72
469.159	9.84
469.362	10.06
469.564	9.96
469.767	9.88
469.969	10.16
470.172	10.14
470.375	9.92
470.577	9.87
470.78	9.76
470.982	10.06
471.185	9.83
471.387	9.88
471.59	9.63
471.792	9.62
471.995	9.68
472.197	9.58
472.399	9.68
472.602	9.75
472.804	9.62
473.007	9.57
473.209	9.32
473.411	9.38
473.614	9.45
473.816	9.52
474.018	9.78
474.22	9.76
474.423	9.75
474.625	9.7
474.827	9.71
475.03	9.77
475.232	9.89
475.434	10.02
475.636	10.13
475.838	10.07
476.04	10.09
476.243	9.88
476.445	9.89
476.647	9.8
476.849	9.68
477.051	9.7
477.253	9.7
477.455	9.52
477.657	9.52
477.859	9.47
478.061	9.33
478.263	9.37
478.465	9.47
478.667	9.39
478.869	9.38
479.071	9.41
479.273	9.5
479.475	9.55
479.677	9.79
479.879	9.68
480.081	9.75
480.283	9.74
480.485	9.64
480.686	9.78
480.888	9.92
481.09	9.9
481.292	10.11
481.494	10.12
481.695	10.3
481.897	10.43
482.099	10.39
482.301	10.46
482.502	10.53
482.704	10.55
482.906	10.48
483.107	10.46
483.309	10.52
483.511	10.44
483.712	10.41
483.914	10.35
484.115	10.29
484.317	10.31
484.519	10.24
484.72	10.19
484.922	10.2
485.123	10.17
485.325	10.13
485.526	10.14
485.728	10.17
485.929	10.16
486.131	10.12
486.332	10.09
486.534	10.09
486.735	10.11
486.936	10.19
487.138	10.21
487.339	10.2
487.541	10.26
487.742	10.24
487.943	10.23
488.144	10.25
488.346	10.27
488.547	10.27
488.748	10.27
488.95	10.33
489.151	10.26
489.352	10.16
489.553	10.23
489.755	10.14
489.956	10.14
490.157	10.11
490.358	10.05
490.559	10.14
490.76	10.1
490.961	10.06
491.163	10.04
491.364	10.1
491.565	10.18
491.766	10.14
491.967	10.18
492.168	10.2
492.369	10.2
492.57	10.23
492.771	10.13
492.972	10.13
493.173	10.15
493.374	10.18
493.575	10.14
493.776	10.14
493.976	10.1
494.177	9.95
494.378	9.97
494.579	9.99
494.78	9.98
494.981	10.06
495.182	10.16
495.382	10.18
495.583	9.98
495.784	10.06
495.985	10.11
496.185	10.12
496.386	10.21
496.587	10.11
496.788	10.11
496.988	10.1
497.189	10.11
497.39	10.13
497.59	10.16
497.791	10.26
497.992	10.29
498.192	10.23
498.393	10.3
498.593	10.34
498.794	10.23
498.994	10.24
499.195	10.16
499.395	10.21
499.596	10.3
499.796	10.48
499.997	10.61
500.197	10.62
500.398	10.73
500.598	10.7
500.799	10.88
500.999	11.11
501.199	11
501.4	11.22
501.6	11.15
501.801	11.1
502.001	11.15
502.201	11.16
502.402	11.23
502.602	11.23
502.802	11.16
503.002	11.1
503.203	11.12
503.403	11.29
503.603	11.32
503.803	11.37
504.003	11.42
504.204	11.29
504.404	11.33
504.604	11.26
504.804	11.25
505.004	11.4
505.204	11.38
505.404	11.42
505.604	11.32
505.804	11.23
506.005	11.28
506.205	11.46
506.405	11.52
506.605	11.59
506.805	11.81
507.005	11.9
507.204	12.04
507.404	12
507.604	11.94
507.804	12.07
508.004	12.14
508.204	12.2
508.404	12.08
508.604	12.3
508.804	12.41
509.003	12.45
509.203	12.54
509.403	12.63
509.603	12.79
509.803	12.97
510.002	13.01
510.202	13.18
510.402	13.16
510.602	13.15
510.801	13.14
511.001	12.95
511.201	12.96
511.4	13.05
511.6	12.97
511.8	13.2
511.999	13.31
512.199	13.43
512.398	13.43
512.598	13.66
512.797	13.88
512.997	13.81
513.197	13.94
513.396	13.99
513.596	14
513.795	14.27
513.994	13.99
514.194	14.02
514.393	14.16
514.593	14.28
514.792	14.38
514.992	14.38
515.191	14.55
515.39	14.75
515.59	14.88
515.789	15
515.988	14.99
516.188	15.36
516.387	15.63
516.586	15.75
516.786	15.68
516.985	15.52
517.184	15.65
517.383	15.63
517.582	15.75
517.782	15.86
517.981	15.95
518.18	16.04
518.379	16.11
518.578	16
518.777	16.06
518.976	16.14
519.176	16.25
519.375	16.34
519.574	16.41
519.773	16.3
519.972	16.31
520.171	16.34
520.37	16.35
520.569	16.31
520.768	16.5
520.967	16.46
521.166	16.58
521.365	16.75
521.564	16.82
521.762	16.93
521.961	17.15
522.16	17.3
522.359	17.49
522.558	17.65
522.757	17.72
522.956	17.71
523.154	17.92
523.353	18.17
523.552	18.33
523.751	18.41
523.949	18.69
524.148	18.79
524.347	18.85
524.546	18.83
524.744	19.08
524.943	19.23
525.142	19.32
525.34	19.3
525.539	19.25
525.737	19.29
525.936	19.35
526.135	19.4
526.333	19.46
526.532	19.55
526.73	19.7
526.929	19.63
527.127	19.69
527.326	19.78
527.524	19.85
527.723	20.03
527.921	20.11
528.12	20.23
528.318	20.22
528.516	20.35
528.715	20.34
528.913	20.35
529.112	20.4
529.31	20.47
529.508	20.51
529.707	20.68
529.905	20.69
530.103	20.71
530.301	20.72
530.5	20.83
530.698	20.82
530.896	21
531.094	21.15
531.293	21.24
531.491	21.23
531.689	21.35
531.887	21.32
532.085	21.4
532.283	21.48
532.481	21.58
532.68	21.6
532.878	21.76
533.076	21.82
533.274	21.93
533.472	22.02
533.67	22.15
533.868	22.19
534.066	22.34
534.264	22.4
534.462	22.51
534.66	22.58
534.858	22.72
535.056	22.7
535.253	22.69
535.451	22.79
535.649	22.92
535.847	22.97
536.045	23.13
536.243	23.16
536.441	23.34
536.638	23.42
536.836	23.51
537.034	23.5
537.232	23.57
537.43	23.67
537.627	23.62
537.825	23.6
538.023	23.64
538.22	23.65
538.418	23.65
538.616	23.67
538.813	23.79
539.011	23.85
539.209	24.03
539.406	24.22
539.604	24.45
539.801	24.66
539.999	24.89
540.196	25.04
540.394	25.17
540.591	25.33
540.789	25.32
540.986	25.44
541.184	25.51
541.381	25.5
541.579	25.51
541.776	25.55
541.974	25.52
542.171	25.5
542.368	25.63
542.566	25.61
542.763	25.71
542.96	25.75
543.158	25.82
543.355	25.94
543.552	26.11
543.75	26.18
543.947	26.25
544.144	26.41
544.341	26.51
544.539	26.52
544.736	26.77
544.933	26.71
545.13	26.77
545.327	26.8
545.524	26.77
545.722	26.75
545.919	26.87
546.116	26.92
546.313	26.89
546.51	26.88
546.707	26.88
546.904	26.84
547.101	26.94
547.298	27.09
547.495	27.01
547.692	27.22
547.889	27.4
548.086	27.46
548.283	27.44
548.48	27.57
548.677	27.64
548.874	27.82
549.07	27.88
549.267	27.86
549.464	27.91
549.661	28.06
549.858	28.03
550.055	28.22
550.251	28.36
550.448	28.37
550.645	28.56
550.842	28.58
551.038	28.8
551.235	28.99
551.432	29.2
551.628	29.42
551.825	29.58
552.022	29.7
552.218	29.52
552.415	29.52
552.612	29.82
552.808	29.7
553.005	29.75
553.201	29.71
553.398	29.7
553.594	29.85
553.791	29.97
553.987	29.82
554.184	29.8
554.38	29.96
554.577	30.27
554.773	30.41
554.97	30.5
555.166	30.69
555.362	30.9
555.559	31.08
555.755	31.18
555.952	31.24
556.148	31.45
556.344	31.48
556.541	31.58
556.737	31.44
556.933	31.43
557.129	31.66
557.326	31.73
557.522	31.8
557.718	31.82
557.914	31.92
558.11	32.01
558.307	32.24
558.503	32.2
558.699	32.31
558.895	32.5
559.091	32.66
559.287	32.87
559.483	32.97
559.679	32.98
559.876	33.01
560.072	33.24
560.268	33.2
560.464	33.35
560.66	33.72
560.856	33.87
561.052	33.96
561.247	33.86
561.443	33.73
561.639	33.95
561.835	33.86
562.031	33.9
562.227	33.85
562.423	33.8
562.619	33.84
562.815	33.9
563.01	34.02
563.206	34.13
563.402	34.32
563.598	34.41
563.793	34.5
563.989	34.61
564.185	34.73
564.381	34.65
564.576	34.94
564.772	34.95
564.968	34.88
565.163	34.92
565.359	34.95
565.555	34.96
565.75	35.25
565.946	35.18
566.141	35.36
566.337	35.64
566.532	35.66
566.728	35.76
566.923	35.69
567.119	35.82
567.314	35.8
567.51	35.9
567.705	35.87
567.901	35.64
568.096	35.87
568.292	36.02
568.487	35.83
568.682	35.74
568.878	35.86
569.073	36.08
569.268	36.39
569.464	36.42
569.659	36.53
569.854	36.69
570.05	37.03
570.245	37.16
570.44	37.17
570.635	37.4
570.831	37.48
571.026	37.22
571.221	37.34
571.416	37.27
571.611	37.42
571.806	37.39
572.002	37.42
572.197	37.5
572.392	37.47
572.587	37.35
572.782	37.23
572.977	37.56
573.172	37.85
573.367	37.78
573.562	37.82
573.757	37.74
573.952	37.75
574.147	37.76
574.342	37.71
574.537	37.7
574.732	37.84
574.927	37.77
575.121	37.58
575.316	37.56
575.511	37.75
575.706	37.72
575.901	37.86
576.096	37.9
576.29	37.96
576.485	37.89
576.68	37.86
576.875	37.95
577.069	38.23
577.264	38.24
577.459	38.35
577.654	38.27
577.848	38.22
578.043	38.37
578.238	38.47
578.432	38.42
578.627	38.6
578.821	38.53
579.016	38.36
579.21	38.17
579.405	38.49
579.6	38.3
579.794	38.14
579.989	38.33
580.183	38.2
580.378	38.18
580.572	38.44
580.766	38.53
580.961	38.71
581.155	38.7
581.35	38.9
581.544	38.81
581.738	38.86
581.933	39.23
582.127	39.16
582.321	39.13
582.516	38.95
582.71	38.95
582.904	39
583.099	39.08
583.293	39.58
583.487	39.58
583.681	39.67
583.875	39.56
584.07	39.23
584.264	39.3
584.458	39.33
584.652	39.5
584.846	39.55
585.04	39.41
585.234	39.44
585.428	39.17
585.623	39.35
585.817	39.24
586.011	39.42
586.205	39.6
586.399	39.57
586.593	39.49
586.787	39.86
586.981	39.7
587.174	39.77
587.368	39.5
587.562	39.47
587.756	39.3
587.95	39.51
588.144	39.62
588.338	39.73
588.532	39.73
588.725	40.04
588.919	39.85
589.113	40.07
589.307	39.93
589.501	40.08
589.694	40.29
589.888	40.59
590.082	40.69
590.275	40.51
590.469	40.38
590.663	40.34
590.856	40.42
591.05	40.28
591.244	40.22
591.437	40.93
591.631	41.18
591.824	41.33
592.018	41.3
592.212	41.19
592.405	41.57
592.599	41.54
592.792	41.49
592.986	41.11
593.179	41.38
593.372	41.35
593.566	40.85
593.759	40.79
593.953	41.03
594.146	40.8
594.339	40.98
594.533	41.03
594.726	41.28
594.92	41.63
595.113	41.85
595.306	41.81
595.499	42.03
595.693	42.09
595.886	42.11
596.079	41.66
596.272	41.88
596.466	41.62
596.659	41.76
596.852	41.78
597.045	41.8
597.238	41.63
597.431	41.75
597.624	41.69
597.818	41.86
598.011	41.89
598.204	41.93
598.397	41.94
598.59	42.06
598.783	41.92
598.976	41.85
599.169	41.79
599.362	42.15
599.555	41.92
599.748	42.03
599.941	41.66
600.134	41.6
600.326	41.46
600.519	41.1
600.712	41.05
600.905	40.84
601.098	40.84
601.291	40.71
601.483	40.52
601.676	40.59
601.869	40.39
602.062	40.49
602.255	40.54
602.447	40.84
602.64	41.13
602.833	41.19
603.025	41.29
603.218	41.36
603.411	41.66
603.603	41.89
603.796	41.77
603.989	42.09
604.181	42.06
604.374	42.09
604.566	42.22
604.759	42.11
604.951	42.28
605.144	42.18
605.336	42.13
605.529	41.94
605.721	41.74
605.914	41.89
606.106	41.76
606.299	41.84
606.491	41.89
606.683	41.68
606.876	41.72
607.068	41.52
607.26	41.61
607.453	41.73
607.645	41.75
607.837	41.8
608.03	42.02
608.222	41.95
608.414	42.1
608.606	42.05
608.799	42.06
608.991	42.15
609.183	42.05
609.375	42.26
609.567	42.29
609.759	42.17
609.952	42.31
610.144	42.22
610.336	42.41
610.528	42.44
610.72	42.56
610.912	42.64
611.104	42.73
611.296	42.84
611.488	42.66
611.68	42.44
611.872	42.6
612.064	42.6
612.256	42.59
612.448	42.22
612.64	42.11
612.832	41.75
613.023	41.87
613.215	41.57
613.407	41.42
613.599	41.47
613.791	41.65
613.983	41.54
614.174	41.55
614.366	41.66
614.558	41.89
614.75	41.78
614.941	41.93
615.133	41.65
615.325	42
615.516	42.48
615.708	42.23
615.9	42.44
616.091	42.75
616.283	42.88
616.475	42.97
616.666	42.62
616.858	42.53
617.049	42.8
617.241	42.82
617.432	42.68
617.624	42.29
617.815	42.49
618.007	42.18
618.198	41.96
618.39	41.58
618.581	41.1
618.773	41.15
618.964	41.36
619.155	41.43
619.347	41.58
619.538	41.56
619.729	42.05
619.921	42.25
620.112	42.28
620.303	42.1
620.494	42.14
620.686	42.61
620.877	42.77
621.068	42.89
621.259	42.79
621.451	42.77
621.642	42.6
621.833	42.25
622.024	42.18
622.215	42.51
622.406	42.9
622.597	42.98
622.788	42.73
622.98	42.78
623.171	42.87
623.362	42.71
623.553	42.77
623.744	43.19
623.935	43.37
624.126	43.43
624.317	43.05
624.508	42.98
624.698	43.07
624.889	42.72
625.08	42.8
625.271	42.65
625.462	42.53
625.653	42.77
625.844	42.51
626.034	42.66
626.225	42.69
626.416	42.95
626.607	43.13
626.798	43.22
626.988	43.63
627.179	43.52
627.37	43.81
627.56	44.09
627.751	43.85
627.942	44.06
628.132	43.72
628.323	43.8
628.514	43.83
628.704	43.68
628.895	43.42
629.085	43.51
629.276	43.6
629.466	43.5
629.657	43.2
629.847	43.25
630.038	42.82
630.228	43.26
630.419	43.27
630.609	43.18
630.8	43.02
630.99	43.2
631.181	42.82
631.371	42.62
631.561	42.56
631.752	42.85
631.942	42.86
632.132	43.53
632.323	43.29
632.513	43.2
632.703	43.19
632.893	43.37
633.084	43.46
633.274	43.67
633.464	44.07
633.654	43.96
633.844	43.86
634.034	43.7
634.225	43.23
634.415	43.38
634.605	43.35
634.795	43.48
634.985	43.43
635.175	43.58
635.365	43.54
635.555	43.6
635.745	43.49
635.935	43.61
636.125	44.06
636.315	44.13
636.505	44.01
636.695	43.76
636.885	43.56
637.075	43.43
637.265	43.33
637.455	43.38
637.644	43.13
637.834	43.06
638.024	42.73
638.214	42.41
638.404	42.5
638.593	42.39
638.783	42.62
638.973	42.95
639.163	43.37
639.352	43.5
639.542	43.71
639.732	43.89
639.921	43.99
640.111	44.33
640.301	44.37
640.49	44.56
640.68	44.77
640.87	44.94
641.059	44.61
641.249	44.37
641.438	44.01
641.628	43.64
641.817	43.63
642.007	43.69
642.196	43.98
642.386	44.05
642.575	43.61
642.764	43.33
642.954	43.24
643.143	43.34
643.333	43.29
643.522	43.15
643.711	43.69
643.901	43.75
644.09	43.65
644.279	43.45
644.469	43.23
644.658	43.3
644.847	43.41
645.036	43.34
645.226	43.54
645.415	43.56
645.604	43.44
645.793	42.93
645.982	42.58
646.171	42.51
646.361	42.28
646.55	42.34
646.739	42.51
646.928	42.48
647.117	42.6
647.306	42.62
647.495	42.51
647.684	43.23
647.873	43.54
648.062	43.97
648.251	44.39
648.44	44.38
648.629	44.86
648.818	45.06
649.007	44.97
649.196	44.93
649.384	44.67
649.573	44.99
649.762	44.71
649.951	44.52
650.14	44.05
650.328	43.95
650.517	44.34
650.706	43.91
650.895	43.69
651.083	44.14
651.272	44.16
651.461	44.38
651.65	43.89
651.838	43.9
652.027	43.84
652.216	44.18
652.404	44.13
652.593	43.98
652.781	43.96
652.97	43.86
653.158	43.7
653.347	43.54
653.535	43.35
653.724	43.69
653.912	43.65
654.101	44.03
654.289	43.98
654.478	44.1
654.666	43.95
654.855	44.04
655.043	44.33
655.231	44.09
655.42	44.02
655.608	44.29
655.796	44.34
655.985	44.59
656.173	44.1
656.361	43.53
656.55	43.2
656.738	43.13
656.926	43.17
657.114	43.29
657.302	43.26
657.491	43.54
657.679	43.46
657.867	43.84
658.055	43.51
658.243	43.52
658.431	43.89
658.619	44.35
658.807	44.64
658.996	44.64
659.184	44.31
659.372	44.53
659.56	44.32
659.748	44.43
659.936	44.24
660.124	44.59
660.311	44.79
660.499	45.34
660.687	45.15
660.875	44.88
661.063	45.07
661.251	45.36
661.439	45.05
661.627	45.33
661.814	45.49
662.002	45.44
662.19	45.04
662.378	45.03
662.565	44.49
662.753	44.37
662.941	44.68
663.129	44.05
663.316	44.11
663.504	44.47
663.692	44.81
663.879	44.35
664.067	44.65
664.254	44.71
664.442	44.81
664.63	45.18
664.817	45.22
665.005	45.19
665.192	45.61
665.38	45.55
665.567	45.49
665.755	45.21
665.942	45.28
666.13	44.85
666.317	44.95
666.504	44.63
666.692	44.3
666.879	44.38
667.067	44.26
667.254	44.32
667.441	44.62
667.629	44.9
667.816	44.93
668.003	44.82
668.19	44.91
668.378	44.87
668.565	45.13
668.752	45.11
668.939	45.1
669.127	45.01
669.314	44.71
669.501	44.23
669.688	44.12
669.875	44.13
670.062	44.3
670.249	44.09
670.436	44.02
670.623	44
670.81	44.12
670.997	44.18
671.184	43.97
671.371	44.47
671.558	44.32
671.745	44.14
671.932	43.89
672.119	43.81
672.306	43.76
672.493	44.23
672.68	44.22
672.867	43.66
673.054	43.43
673.24	43.39
673.427	43.23
673.614	43.66
673.801	43.58
673.988	43.67
674.174	43.99
674.361	44.53
674.548	44.33
674.734	44.47
674.921	44.67
675.108	44.86
675.294	45.5
675.481	45.4
675.668	45.41
675.854	45.82
676.041	45.42
676.227	45.09
676.414	44.96
676.601	44.58
676.787	44.5
676.974	44.49
677.16	44.41
677.347	44.26
677.533	44.5
677.719	44.06
677.906	43.53
678.092	44.14
678.279	44.49
678.465	44.12
678.651	44.07
678.838	44.12
679.024	44.19
679.21	44.35
679.397	44.58
679.583	44.32
679.769	44.47
679.955	44.75
680.142	44.62
680.328	44.53
680.514	44.43
680.7	44.57
680.886	44.49
681.073	44.46
681.259	44.2
681.445	43.68
681.631	43.6
681.817	43.51
682.003	43.47
682.189	43.23
682.375	42.92
682.561	43.21
682.747	43.29
682.933	43.3
683.119	43.88
683.305	44.13
683.491	44.81
683.677	45.49
683.863	46.01
684.049	45.81
684.235	45.94
684.42	46
684.606	46.25
684.792	46.34
684.978	45.9
685.164	45.46
685.349	45.55
685.535	45.05
685.721	44.78
685.907	44.37
686.092	44.82
686.278	44.77
686.464	44.96
686.649	44.43
686.835	44.78
687.021	44.86
687.206	45.15
687.392	44.87
687.577	44.93
687.763	45.39
687.948	45.16
688.134	45.02
688.319	45.06
688.505	45.24
688.69	45.24
688.876	44.98
689.061	45.78
689.247	45.46
689.432	45.11
689.618	44.98
689.803	44.14
689.988	45.2
690.174	45.2
690.359	44.71
690.544	44.31
690.73	44.58
690.915	44.38
691.1	43.88
691.285	44.25
691.471	44.95
691.656	45.33
691.841	45.48
692.026	44.9
692.211	44.56
692.396	45.19
692.582	45.28
692.767	45.43
692.952	45.49
693.137	45.64
693.322	45.02
693.507	44.57
693.692	43.98
693.877	43.94
694.062	43.83
694.247	44.1
694.432	44.05
694.617	43.73
694.802	43.76
694.987	43.85
695.172	43.39
695.357	44.1
695.541	44.53
695.726	44.43
695.911	44.66
696.096	44.53
696.281	44.51
696.466	44.79
696.65	45.6
696.835	45.45
697.02	45.71
697.204	45.9
697.389	45.43
697.574	45.34
697.759	45.62
697.943	45.95
698.128	45.8
698.312	45.9
698.497	45.68
698.682	45.63
698.866	45.43
699.051	45.14
699.235	45.25
699.42	45.66
699.604	45.36
699.789	45.58
699.973	44.96
700.158	44.85
700.342	44.51
700.527	44.47
700.711	43.94
700.895	43.93
701.08	43.88
701.264	43.79
701.448	43.23
701.633	43.65
701.817	42.89
702.001	43.12
702.186	43.7
702.37	43.89
702.554	43.55
702.738	44.1
702.923	43.99
703.107	43.92
703.291	44.01
703.475	43.39
703.659	43.27
703.843	43.71
704.027	43.8
704.212	42.9
704.396	42.77
704.58	42.51
704.764	42.11
704.948	42.5
705.132	42.35
705.316	42.32
705.5	43.81
705.684	44.06
705.868	44.16
706.052	43.51
706.235	44.22
706.419	44.52
706.603	45.43
706.787	45.12
706.971	45.16
707.155	45.93
707.339	46.27
707.522	46.27
707.706	45.56
707.89	45.03
708.074	45.63
708.257	46
708.441	46.31
708.625	45.82
708.808	46.42
708.992	46.26
709.176	46.2
709.359	44.86
709.543	43.76
709.727	43.96
709.91	44.28
710.094	44.26
710.277	44.34
710.461	43.59
710.644	43.94
710.828	43.47
711.011	43.47
711.195	42.69
711.378	43.31
711.562	43.65
711.745	43.92
711.928	44.29
712.112	44.17
712.295	43.71
712.478	44.58
712.662	44.89
712.845	45.04
713.028	44.86
713.212	45.3
713.395	45.02
713.578	45.11
713.761	45.25
713.945	45.45
714.128	45.74
714.311	45.68
714.494	44.78
714.677	43.91
714.86	44.4
715.043	44.64
715.227	44.68
715.41	44.81
715.593	44.51
715.776	44.5
715.959	44.25
716.142	44.18
716.325	43.77
716.508	44.28
716.691	44.67
716.874	44.36
717.057	44.53
717.239	44.22
717.422	44.42
717.605	44.53
717.788	44.08
717.971	43.61
718.154	43.33
718.337	43.49
718.519	43.12
718.702	42.93
718.885	42.83
719.068	41.95
719.25	42.59
719.433	41.7
719.616	41.4
719.798	41.72
719.981	41.3
720.164	41.57
720.346	41.65
720.529	42.17
720.712	41.94
720.894	41.62
721.077	41.88
721.259	40.88
721.442	42.08
721.624	42.26
721.807	41.94
721.989	42.74
722.172	42.13
722.354	42.65
722.537	41.84
722.719	42.93
722.901	44.16
723.084	45.12
723.266	45.9
723.448	45.69
723.631	46.21
723.813	47.22
723.995	46.64
724.178	47.21
724.36	47.31
724.542	47.88
724.724	47.69
724.907	46.55
725.089	46.39
725.271	45.84
725.453	46.1
725.635	45.31
725.817	44.27
725.999	45.4
726.181	45.7
726.364	45.36
726.546	44.58
726.728	44.11
726.91	44.05
727.092	44
727.274	44.22
727.456	44.48
727.638	44.76
727.819	45.47
728.001	45.12
728.183	44.7
728.365	44.81
728.547	45.6
728.729	45.99
728.911	46.37
729.093	46.53
729.274	46.1
729.456	45.65
729.638	45.54
729.82	45.2
730.001	45.54
730.183	44.98
730.365	44.92
730.546	44.74
730.728	44.49
730.91	44.69
731.091	43.89
731.273	44.24
731.455	43.56
731.636	43.42
731.818	43.47
731.999	43.79
732.181	44.45
732.362	44.31
732.544	43.99
732.725	43.58
732.907	43.02
733.088	42.66
733.27	42.6
733.451	42.49
733.633	41.64
733.814	40.97
733.995	40.32
734.177	39.16
734.358	38.89
734.539	38.76
734.721	39.27
734.902	39.34
735.083	39.8
735.264	39.54
735.446	40.87
735.627	42.16
735.808	42.75
735.989	41.58
736.17	42.58
736.351	42.32
736.533	42.51
736.714	42.44
736.895	42.63
737.076	42.64
737.257	43.09
737.438	42.39
737.619	42.1
737.8	42.24
737.981	44.07
738.162	44.11
738.343	44
738.524	44.61
738.705	43.81
738.886	43.2
739.067	43.32
739.247	43.51
739.428	43.24
739.609	43.38
739.79	43.48
739.971	42.57
740.151	42.13
740.332	42.25
740.513	42.57
740.694	43.14
740.874	44.06
741.055	43.28
741.236	43.5
741.417	43.82
741.597	44.83
741.778	44.28
741.958	43.87
742.139	43.76
742.32	44.11
742.5	43.66
742.681	44.4
742.861	44.03
743.042	43.37
743.222	43.61
743.403	43.79
743.583	42.55
743.764	42.16
743.944	41.74
744.124	42.51
744.305	43.17
744.485	42.44
744.666	41.79
744.846	41.46
745.026	42.81
745.207	41.83
745.387	41.47
745.567	40.79
745.747	41.65
745.928	42.83
746.108	42.32
746.288	42.15
746.468	42.38
746.648	41.13
746.829	41.28
747.009	41.61
747.189	41.3
747.369	41.77
747.549	42.16
747.729	42.26
747.909	43.02
748.089	42.76
748.269	42.34
748.449	42.37
748.629	42.79
748.809	42.6
748.989	43.65
749.169	43.46
749.349	42.71
749.529	43.19
749.709	42.66
749.889	42.01
750.068	41.91
750.248	41.64
750.428	40.91
750.608	41.8
750.788	42.86
750.967	41.39
751.147	41.68
751.327	43.02
751.507	43.01
751.686	43.18
751.866	42.87
752.046	43.4
752.225	43.48
752.405	44.87
752.585	45.27
752.764	44.61
752.944	44.98
753.123	45.5
753.303	44.43
753.482	43.35
753.662	43.3
753.841	42.11
754.021	42.24
754.2	42.68
754.38	42.89
754.559	42.89
754.739	41.75
754.918	42.22
755.097	42.14
755.277	43.32
755.456	44.12
755.635	44.34
755.815	45.36
755.994	45.71
756.173	45.13
756.352	44.28
756.532	44
756.711	44.77
756.89	44.5
757.069	45.57
757.248	44.73
757.427	44.8
757.607	44.22
757.786	44.92
757.965	44.23
758.144	44.17
758.323	44.74
758.502	44.88
758.681	44.56
758.86	44.92
759.039	42.73
759.218	42.59
759.397	43.06
759.576	43.57
759.755	42.35
759.934	42.57
760.113	42.14
760.291	41.57
760.47	41.16
760.649	41.3
760.828	41.25
761.007	42.15
761.186	42.12
761.364	42.32
761.543	42.56
761.722	42.63
761.901	42.09
762.079	43.84
762.258	43.44
762.437	43.44
762.615	43.03
762.794	42.57
762.972	42.5
763.151	42.99
763.33	42.89
763.508	42.45
763.687	42.7
763.865	43.28
764.044	42.41
764.222	42.46
764.401	42.16
764.579	42.53
764.758	42.76
764.936	43.33
765.114	42.88
765.293	43.94
765.471	44.23
765.65	43.63
765.828	43.37
766.006	43.63
766.184	44.14
766.363	44.39
766.541	44.48
766.719	44.28
766.898	43.82
767.076	42.94
767.254	41.95
767.432	41.44
767.61	41.95
767.788	41.17
767.967	41.64
768.145	39.99
768.323	40.72
768.501	41.15
768.679	41.22
768.857	41.76
769.035	43.82
769.213	42.94
769.391	41.73
769.569	42.56
769.747	42.6
769.925	42.26
770.103	43.4
770.281	42.34
770.459	42.15
770.636	42.48
770.814	44.21
770.992	44.07
771.17	44.24
771.348	44.85
771.525	45.95
771.703	46.79
771.881	47.02
772.059	45.72
772.236	45.67
772.414	44.69
772.592	44.18
772.769	41.25
772.947	41.17
773.125	42.93
773.302	44.74
773.48	43.51
773.657	43.92
773.835	42.44
774.013	43.47
774.19	42.53
774.368	43.27
774.545	41.81
774.723	39.75
774.9	39.19
775.077	37.12
775.255	35.62
775.432	35.88
775.61	35.71
775.787	36.27
775.964	39.02
776.142	39.39
776.319	39.4
776.496	38.95
776.674	41.02
776.851	41.47
777.028	39.79
777.205	40.66
777.382	39.05
777.56	37.51
777.737	39
777.914	36.42
778.091	35.77
778.268	35.44
778.445	37.27
778.622	37.48
778.8	37.6
778.977	39.47
779.154	33.64
779.331	35.78
779.508	37.55
779.685	35.02
779.862	34.11
780.038	35.3
780.215	34.64
780.392	34.58
780.569	32.74
780.746	32.26
780.923	31.31
781.1	36.79
781.277	34.83
781.453	35.47
781.63	36.48
781.807	38.74
781.984	38.9
782.16	40.42
782.337	42.92
782.514	45.55
782.691	44.67
782.867	44.27
783.044	42.89
783.221	43.76
783.397	42.08
783.574	40.37
783.75	40.7
783.927	43.15
784.103	41.55
784.28	40.94
784.456	43.15
784.633	41.98
784.809	43.87
784.986	43.66
785.162	42.13
785.339	43.15
785.515	42.59
785.692	41.84
785.868	41.16
786.044	42.36
786.221	38.45
786.397	34.12
786.573	38.15
786.749	37.23
786.926	40.08
787.102	39.72
787.278	39.94
787.454	41.76
787.631	42.64
787.807	41.13
787.983	39.84
788.159	41.19
788.335	40.73
788.511	38.79
788.687	37.49
788.863	38.06
789.039	40.65
789.216	38.07
789.392	38.2
789.568	37.93
789.744	36.97
789.919	37.1
790.095	38.05
790.271	38.63
790.447	38.36
790.623	41.5
790.799	42.61
790.975	39.92
791.151	40.16
791.327	42.92
791.502	41.66
791.678	42.4
791.854	39.86
792.03	37.76
792.205	41.62
792.381	41.18
792.557	40.87
792.733	39.26
792.908	39.62
793.084	42.84
793.259	40.1
793.435	39.33
793.611	40.47
793.786	42.66
793.962	44.86
794.137	43
794.313	45.85
794.488	46.02
794.664	46.89
794.839	44.82
795.015	44.17
795.19	44.27
795.366	44
795.541	42.31
795.716	42.4
795.892	37.9
796.067	36.11
796.242	36.36
796.418	34.49
796.593	32.97
796.768	34.53
796.944	34.02
797.119	32.72
797.294	33.33
797.469	34.93
797.644	35.72
797.82	37.81
797.995	39.25
798.17	36.38
798.345	36.62
798.52	36.09
798.695	34.88
798.87	32.92
799.045	34.58
799.22	35.58
799.395	35.99
799.57	37.25
799.745	37.74
799.92	38.49
800.095	41.42
800.27	40.54
800.445	41.01
800.62	43.44
800.795	46.14
800.97	46.51
801.145	46.86
801.319	42.7
801.494	40.02
801.669	41.52
801.844	37.25
802.018	36.78
802.193	39.96
802.368	39.1
802.543	39.37
802.717	37.31
802.892	37.54
803.067	34.91
803.241	38.57
803.416	40.62
803.59	40.11
803.765	44.11
803.94	40.87
804.114	37.09
804.289	36.45
804.463	33.73
804.638	30.96
804.812	30.08
804.986	33.52
805.161	30.98
805.335	28.19
805.51	28.76
805.684	25.34
805.858	27.18
806.033	28.58
806.207	27.32
806.381	31.14
806.556	32.94
806.73	33.18
806.904	29.76
807.078	31.09
807.253	31.79
807.427	29.59
807.601	32.37
807.775	31.88
807.949	31.09
808.123	31.54
808.298	30.5
808.472	32.37
808.646	27.58
808.82	29.65
808.994	30.06
809.168	29.68
809.342	31.64
809.516	31.84
809.69	33.03
809.864	30.68
810.038	33.27
810.212	28.8
810.385	30.32
810.559	35.91
810.733	34.55
810.907	35.31
811.081	35.39
811.255	32.28
811.428	32.75
811.602	29.66
811.776	31.69
811.95	30.4
812.123	36.3
812.297	33.96
812.471	32.85
812.644	32.12
812.818	31.16
812.992	26.41
813.165	30.23
813.339	26.98
813.512	28.18
813.686	32.41
813.86	32.85
814.033	30.62
814.207	30.09
814.38	32.15
814.554	36.38
814.727	38.18
814.9	44.16
815.074	45.17
815.247	43.02
815.421	45.91
815.594	43.43
815.767	42.24
815.941	39.11
816.114	38.02
816.287	37.39
816.46	32.59
816.634	27.5
816.807	25.63
816.98	25.65
817.153	29.06
817.327	27.1
817.5	29.56
817.673	31.09
817.846	34.19
818.019	38.37
818.192	36.28
818.365	38.76
818.538	43.63
818.711	43.57
818.884	39.5
819.057	33.79
819.23	30.93
819.403	27.73
819.576	25.49
819.749	28.36
819.922	25.86
820.095	27.58
820.268	27.39
820.441	27.66
820.614	31.06
820.786	32.61
820.959	38.1
821.132	38.27
821.305	40.06
821.477	42.86
821.65	41.51
821.823	41.69
821.996	42.04
822.168	42.24
822.341	41.92
822.514	42.13
822.686	42.94
822.859	43.34
823.031	44.35
823.204	43.79
823.376	43.29
823.549	44.02
823.722	44.52
823.894	45.6
824.067	46.25
824.239	47.09
824.411	46.86
824.584	46.63
824.756	46.25
824.929	46.27
825.101	46.37
825.273	46.48
825.446	45.93
825.618	45.92
825.79	44.7
825.963	43.53
826.135	42.02
826.307	42.26
826.479	41.24
826.652	40.52
826.824	39.24
826.996	39.05
827.168	38.7
827.34	38.78
827.512	39.11
827.684	38.45
827.856	39.18
828.029	40.18
828.201	40.24
828.373	39.47
828.545	39.51
828.717	40.1
828.889	39.4
829.061	40.7
829.232	40.72
829.404	39.51
829.576	39.68
829.748	40.47
829.92	41.5
830.092	41.08
830.264	41.14
830.436	41.32
830.607	40.41
830.779	42.55
830.951	39.93
831.123	40.93
831.294	39.28
831.466	38.07
831.638	34.74
831.809	30.5
831.981	32.02
832.153	34.6
832.324	33.73
832.496	33.64
832.667	33.76
832.839	32.67
833.011	30.61
833.182	32.48
833.354	32.37
833.525	34.2
833.697	37.21
833.868	36.89
834.039	39.06
834.211	39.17
834.382	40.82
834.554	41.88
834.725	44.86
834.896	42.58
835.068	42.75
835.239	43.61
835.41	44.65
835.581	44.51
835.753	43.77
835.924	40.88
836.095	41.27
836.266	40.56
836.438	38.37
836.609	36.78
836.78	39.91
836.951	40.88
837.122	40.29
837.293	37.6
837.464	35.74
837.635	31.2
837.806	32.13
837.977	27.24
838.148	24.55
838.319	23.68
838.49	24.37
838.661	21.01
838.832	18.17
839.003	14.32
839.174	8.41
839.345	8.68
839.516	11.38
839.687	3.51
839.857	17.2
840.028	19.57
840.199	17.36
840.37	16.63
840.54	22.34
840.711	26.68
840.882	27.78
841.053	32.32
841.223	27.09
841.394	32.44
841.564	39.1
841.735	32.61
841.906	34.12
842.076	31.91
842.247	31.99
842.417	26.3
842.588	23.76
842.758	19.2
842.929	14.99
843.099	12.71
843.27	2.3
843.44	-3.79
843.611	-3.83
843.781	-7.79
843.951	0.79
844.122	-1.88
844.292	1.26
844.462	-5.75
844.633	5.65
844.803	14.58
844.973	20.1
845.144	23.43
845.314	24.11
845.484	28.88
845.654	37.07
845.824	30.01
845.995	24.39
846.165	11.08
846.335	19.83
846.505	9.12
846.675	-3.91
846.845	0.63
847.015	-6.33
847.185	6.47
847.355	-1.87
847.525	-2.43
847.695	0.54
847.865	-2.98
848.035	14.91
848.205	5.62
848.375	18.68
848.545	17.48
848.715	6.43
848.884	20.18
849.054	-0.37
849.224	5.32
849.394	24.11
849.564	10.6
849.733	23.2
849.903	-12.44
850.073	-8.2
850.243	-15.77
850.412	-8.9
850.582	-32.47
850.752	-69.39
850.921	-49.82
851.091	-50.37
851.26	-65.14
851.43	-63.78
851.599	-89.41
851.769	-66.44
851.939	-61.66
852.108	-107.93
852.278	-127.08
852.447	-101.59
852.616	-40.41
852.786	-52.07
852.955	-58.19
853.125	-64.44
853.294	-34.22
853.463	-35.03
853.633	-61.63
853.802	-99.8
853.971	-93.03
854.141	-101.49
854.31	-128.62
854.479	-216.08
854.648	-275.61
854.818	-252.39
854.987	-205
855.156	-262.26
855.325	-198.58
855.494	-196.75
855.663	-235.08
855.832	-297.72
856.001	-300
856.171	-234.91
856.34	-206.91
856.509	-193.94
856.678	-212.48
856.847	-195.68
857.016	-165.66
857.185	-166.27
857.353	-86.28
857.522	-70.48
857.691	-24.78
857.86	-20.47
858.029	-3.44
858.198	10.76
858.367	7.95
858.535	1.81
858.704	-6.58
858.873	2.43
859.042	7.88
859.21	-0.47
859.379	1.33
859.548	-5.97
859.717	-27.87
859.885	-32.52
860.054	-33.49
860.222	-31.58
860.391	-34.9
860.56	-14.48
860.728	-18.07
860.897	-19.4
861.065	-14.1
861.234	-10.91
861.402	-26.72
861.571	-17.92
861.739	-11.98
861.908	-10.63
862.076	-14.21
862.244	-3.14
862.413	-21.73
862.581	-45.63
862.749	-121.78
862.918	-208.04
863.086	-260.7
863.254	-227.8
863.423	-356.99
863.591	-212.1
863.759	-371.83
863.927	-365.82
864.096	-1403.03
864.264	306.62
864.432	389.14
864.6	-300
864.768	-112.49
864.936	49.51
865.104	23.37
865.272	13.42
865.44	-49.91
865.608	-32.5
865.776	-97.4
865.944	-80.43
866.112	-22.84
866.28	-15.94
866.448	-8.3
866.616	25.37
866.784	-0.04
866.952	-7.88
867.12	14.65
867.288	37.93
867.455	49.04
867.623	60.33
867.791	31.94
867.959	19.51
868.127	34.95
868.294	24.16
868.462	-5.36
868.63	-7.2
868.797	-18.29
868.965	-148.91
869.133	-184.1
869.3	-288.19
869.468	-119.9
869.636	-64.83
869.803	-85.5
869.971	-80.26
870.138	-28.97
870.306	-38.74
870.473	-26.32
870.641	-18.39
870.808	-4.45
870.975	-12.36
871.143	11.95
871.31	-18.52
871.478	-64.48
871.645	-12.91
871.812	-32.98
871.98	-113.71
872.147	-130.75
872.314	-92.88
872.482	-86.34
872.649	-163.8
872.816	-82.8
872.983	-302.34
873.15	-117.34
873.318	-84.03
873.485	-139.57
873.652	-147.54
873.819	-43.05
873.986	-35.54
874.153	-42.03
874.32	-51.62
874.487	-28.17
874.654	-21.54
874.821	2.03
874.988	-10.71
875.155	-2.82
875.322	0.31
875.489	2.72
875.656	-12.75
875.823	-6.92
875.99	-5.63
876.157	-2.51
876.324	-0.78
876.49	-1.05
876.657	-23.7
876.824	-13.25
876.991	-42.3
877.157	-48.7
877.324	-34.99
877.491	-0.63
877.658	-8.83
877.824	-14.36
877.991	-20.15
878.157	-21.02
878.324	-37.72
878.491	1.2
878.657	-4.38
878.824	4.67
878.99	18.97
879.157	24.83
879.323	-3.32
879.49	16.78
879.656	-1.16
879.823	9.25
879.989	-5.17
880.156	-20.62
880.322	-31.58
880.488	-7.17
880.655	-6.65
880.821	-26.73
880.987	-19.65
881.154	-13
881.32	-3.95
881.486	2.52
881.652	6.08
881.819	26.69
881.985	35.74
882.151	32.29
882.317	30.04
882.483	32.67
882.649	36.59
882.816	37.28
882.982	39.47
883.148	38.33
883.314	40.2
883.48	38.74
883.646	36
883.812	37.53
883.978	40.21
884.144	39.95
884.31	40.85
884.476	41.3
884.642	41.05
884.807	41.35
884.973	42.93
885.139	42.78
885.305	43.66
885.471	45.7
885.637	46.26
885.802	45
885.968	45.38
886.134	43.15
886.3	40.74
886.465	42.86
886.631	40.51
886.797	38.54
886.962	39.48
887.128	38.22
887.293	35.11
887.459	24.98
887.625	17.52
887.79	18.12
887.956	20.46
888.121	19.92
888.287	7.75
888.452	5.72
888.618	-7.4
888.783	-25.11
