Data from CB_034_Reflection_21-28-43-498.txt Node
Date: Wed Nov 11 21:28:43 EST 2015
User: robert
Spectrometer: USB4E03001
Autoset integration time: false
Trigger mode: 4
Integration Time (sec): 1.000000E-1
Scans to average: 15
Electric dark correction enabled: true
Nonlinearity correction enabled: false
Boxcar width: 5
Stray light correction enabled: false
XAxis mode: Wavelengths
Stop averaging: false
Number of Pixels in Spectrum: 3648
>>>>>Begin Spectral Data<<<<<
177.566	68.34
177.785	174.34
178.005	74.45
178.225	461.77
178.445	50.99
178.665	43.12
178.885	-104.63
179.105	28.91
179.324	124.91
179.544	151.38
179.764	178.98
179.984	164.75
180.204	165.38
180.423	222.32
180.643	149.89
180.863	126.16
181.083	118.44
181.302	109.14
181.522	102.34
181.742	95.73
181.961	120
182.181	117.99
182.401	106.74
182.621	117.56
182.84	91.13
183.06	88.54
183.279	72.93
183.499	83.75
183.719	97.03
183.938	117.15
184.158	119.26
184.377	94.61
184.597	86.06
184.816	90.34
185.036	68.03
185.256	68.55
185.475	89.08
185.695	124.29
185.914	145.79
186.134	138.54
186.353	100.4
186.572	56.59
186.792	60.7
187.011	48.15
187.231	26.96
187.45	6.36
187.67	12.4
187.889	-2.67
188.108	25.56
188.328	11.77
188.547	8.08
188.766	15.48
188.986	16.05
189.205	24.98
189.424	27.51
189.644	54.61
189.863	59.07
190.082	78.24
190.302	81.96
190.521	87.27
190.74	110.14
190.959	87.94
191.178	79.55
191.398	87.03
191.617	84.17
191.836	90.14
192.055	66.02
192.274	56
192.494	49.27
192.713	64.09
192.932	61.41
193.151	52.38
193.37	57.38
193.589	72.49
193.808	63.04
194.027	76.6
194.246	83.87
194.465	94.64
194.685	110.19
194.904	110.86
195.123	99.65
195.342	95.37
195.561	106.63
195.78	143.38
195.999	153.57
196.218	119.24
196.436	101.9
196.655	95.82
196.874	133.72
197.093	122.6
197.312	84.86
197.531	97.08
197.75	104.43
197.969	115.61
198.188	80.95
198.407	89.15
198.625	90.17
198.844	100.29
199.063	111.44
199.282	103.68
199.501	117.44
199.719	163.08
199.938	155.89
200.157	202.63
200.376	87.21
200.594	143.55
200.813	95.64
201.032	126.17
201.251	190.33
201.469	127.16
201.688	119.74
201.907	104.13
202.125	92.55
202.344	81.91
202.563	105.01
202.781	126.18
203	102.31
203.218	94.92
203.437	88.63
203.656	62.9
203.874	61.95
204.093	63.83
204.311	76.74
204.53	86.56
204.748	75
204.967	79.92
205.185	74.71
205.404	74.26
205.622	123.64
205.841	115.32
206.059	113.79
206.278	120.71
206.496	104.91
206.715	90.65
206.933	90.86
207.151	96.23
207.37	89.37
207.588	96.16
207.806	100.39
208.025	94.09
208.243	85.42
208.461	93.5
208.68	92.75
208.898	94.12
209.116	78.86
209.335	78.13
209.553	86.56
209.771	73.51
209.989	56.26
210.208	52.55
210.426	39.63
210.644	50.64
210.862	38.96
211.081	55.59
211.299	55.96
211.517	69.44
211.735	48.61
211.953	57.86
212.171	81.33
212.39	96.82
212.608	95.82
212.826	90.77
213.044	104.59
213.262	102.59
213.48	118.62
213.698	129.51
213.916	163.92
214.134	184.62
214.352	195.26
214.57	121.98
214.788	137.75
215.006	120.86
215.224	97.58
215.442	61.75
215.66	124.87
215.878	76.54
216.096	63.86
216.314	64.76
216.532	70.3
216.75	67.08
216.968	87.59
217.185	84.57
217.403	92.5
217.621	87.08
217.839	81.8
218.057	71.21
218.275	80.1
218.492	86.03
218.71	80.65
218.928	76.64
219.146	82.22
219.363	81.7
219.581	77.99
219.799	54.65
220.017	72.21
220.234	76.84
220.452	74.46
220.67	52.06
220.887	51.47
221.105	62.35
221.323	47.61
221.54	14.81
221.758	18.32
221.976	31.61
222.193	36.97
222.411	35.67
222.629	33.62
222.846	45.21
223.064	49.7
223.281	60.59
223.499	44.56
223.716	60.19
223.934	71.9
224.151	66.49
224.369	63.6
224.586	64.49
224.804	62.74
225.021	72.26
225.239	58.64
225.456	57.14
225.674	36.49
225.891	54
226.108	42.27
226.326	20.72
226.543	28.49
226.76	32.12
226.978	32.89
227.195	37.7
227.413	27.6
227.63	26.14
227.847	22.65
228.064	24.08
228.282	20.5
228.499	18.09
228.716	20.32
228.934	16.81
229.151	13.29
229.368	13.65
229.585	11.03
229.802	11.24
230.02	11.27
230.237	11.03
230.454	11.46
230.671	6.57
230.888	8
231.105	9.39
231.323	12.42
231.54	20.2
231.757	18.64
231.974	21.28
232.191	18.08
232.408	18.37
232.625	19.43
232.842	23.02
233.059	25.63
233.276	24.75
233.493	24.36
233.71	21.53
233.927	17.92
234.144	21.29
234.361	19.62
234.578	24.85
234.795	22.13
235.012	23.57
235.229	19.46
235.446	23.73
235.663	25.22
235.879	24.9
236.096	23.77
236.313	19.81
236.53	21.1
236.747	23.17
236.964	25.27
237.181	30.99
237.397	25.84
237.614	22.57
237.831	19.05
238.048	19.54
238.264	18.15
238.481	18.46
238.698	20.81
238.915	21.02
239.131	20.5
239.348	19.91
239.565	16.07
239.781	18.07
239.998	23.01
240.215	21.59
240.431	19.1
240.648	20.9
240.865	18.98
241.081	20.74
241.298	18.16
241.514	14.6
241.731	14.67
241.947	12.21
242.164	12.2
242.38	10.74
242.597	11.31
242.814	11.64
243.03	11.4
243.246	12.96
243.463	10.54
243.679	11.19
243.896	12.91
244.112	12.94
244.329	17.72
244.545	17.01
244.762	16.73
244.978	17.2
245.194	18.63
245.411	17.21
245.627	17.25
245.843	18.67
246.06	17.67
246.276	16.37
246.492	15.01
246.709	12.89
246.925	14.65
247.141	14.49
247.357	13.92
247.574	12.71
247.79	12.67
248.006	12.75
248.222	12.62
248.439	12.49
248.655	13.85
248.871	13.8
249.087	14.35
249.303	13.77
249.519	14.22
249.736	14.53
249.952	14.42
250.168	15.18
250.384	15.37
250.6	16.75
250.816	17.23
251.032	14.11
251.248	17.21
251.464	15.34
251.68	15.56
251.896	14.79
252.112	14.7
252.328	14.61
252.544	14.4
252.76	11.84
252.976	10.86
253.192	10.63
253.408	11.62
253.624	9.71
253.84	9.93
254.056	8.82
254.272	10.89
254.487	12.03
254.703	14.12
254.919	16.63
255.135	19.47
255.351	20.13
255.567	21.08
255.782	21.18
255.998	21.09
256.214	20.25
256.43	21.64
256.646	21.13
256.861	19.9
257.077	19.7
257.293	16
257.508	16.25
257.724	16.22
257.94	15.4
258.155	14.44
258.371	12.85
258.587	15.09
258.802	14.03
259.018	12.98
259.234	11.9
259.449	11.41
259.665	11.33
259.88	11.48
260.096	10.95
260.312	10.45
260.527	10.48
260.743	10.49
260.958	9.31
261.174	8.87
261.389	9.47
261.605	9.95
261.82	10.19
262.036	11.11
262.251	11.99
262.466	12.33
262.682	13.67
262.897	14.15
263.113	14.69
263.328	15.24
263.543	15.92
263.759	14.47
263.974	15.27
264.189	14.36
264.405	11.86
264.62	10.68
264.835	9.71
265.051	9.26
265.266	11.04
265.481	12.76
265.696	12.76
265.912	12.03
266.127	12.29
266.342	12.5
266.557	13.26
266.773	14.13
266.988	12.94
267.203	11.29
267.418	12.12
267.633	11.51
267.848	10.71
268.064	10.29
268.279	11.58
268.494	12.23
268.709	12.59
268.924	13.58
269.139	14.12
269.354	14.45
269.569	14.69
269.784	14.21
269.999	12.58
270.214	12.08
270.429	12.85
270.644	12.56
270.859	12.76
271.074	11.32
271.289	10.11
271.504	9.9
271.719	9.78
271.934	10.24
272.149	9.82
272.363	10.6
272.578	11.25
272.793	11
273.008	10.48
273.223	8.82
273.438	8.84
273.653	9.69
273.867	10.01
274.082	10.52
274.297	11.16
274.512	12.24
274.726	10.97
274.941	10.4
275.156	11.05
275.371	10.54
275.585	11.54
275.8	12.2
276.015	11.95
276.229	11.72
276.444	12.2
276.659	11.36
276.873	9.84
277.088	12.46
277.302	13.97
277.517	13.14
277.732	13.95
277.946	14.68
278.161	14.48
278.375	14.31
278.59	14.58
278.804	11.94
279.019	12.6
279.233	13.51
279.448	12.53
279.662	10.89
279.877	11.41
280.091	10.05
280.306	10.76
280.52	10.66
280.735	10.81
280.949	9.86
281.163	11.01
281.378	10.35
281.592	9.78
281.806	10.46
282.021	9.07
282.235	8.35
282.449	9.78
282.664	7.96
282.878	7.85
283.092	8.11
283.307	9.41
283.521	9.13
283.735	9.93
283.949	10.1
284.164	10.2
284.378	11.65
284.592	12.98
284.806	12.57
285.02	13.39
285.234	13.07
285.449	12
285.663	10.68
285.877	11.18
286.091	11.22
286.305	10.56
286.519	9.63
286.733	8.74
286.947	8.2
287.161	7.86
287.375	7.86
287.589	8.59
287.803	9.05
288.017	9.17
288.231	9.49
288.445	9.81
288.659	10.31
288.873	10.68
289.087	11.97
289.301	11.46
289.515	11.88
289.729	11.81
289.943	10.56
290.157	10.7
290.371	10.99
290.584	11.43
290.798	11.75
291.012	12.07
291.226	13.18
291.44	13.94
291.654	14.05
291.867	12.83
292.081	12.73
292.295	14.66
292.509	14.62
292.722	13.73
292.936	12.47
293.15	11.67
293.364	11.9
293.577	11.04
293.791	9.41
294.005	9.06
294.218	11.44
294.432	12.62
294.645	12.68
294.859	11.46
295.073	13.31
295.286	13.16
295.5	12.26
295.713	11.74
295.927	10.43
296.14	11.07
296.354	11.49
296.568	11.48
296.781	10.65
296.994	10.36
297.208	11.35
297.421	10.69
297.635	10.87
297.848	11.41
298.062	11.65
298.275	12.72
298.489	12.8
298.702	13.5
298.915	13.24
299.129	14.17
299.342	13.69
299.555	13.86
299.769	14.33
299.982	14.59
300.195	14.58
300.409	14.54
300.622	13.78
300.835	13.11
301.048	11.94
301.262	11.82
301.475	11.12
301.688	12.22
301.901	12.02
302.115	11.37
302.328	12.15
302.541	12.6
302.754	12.82
302.967	13.01
303.18	15.02
303.393	15.35
303.607	15.19
303.82	15.57
304.033	14.6
304.246	14.65
304.459	15.01
304.672	15.02
304.885	15.95
305.098	15.73
305.311	16.86
305.524	15.12
305.737	15.83
305.95	16.04
306.163	16.29
306.376	16.55
306.589	16.66
306.802	17.51
307.015	17.63
307.228	17.13
307.44	17.19
307.653	17.87
307.866	17.97
308.079	18.39
308.292	17.16
308.505	16.15
308.718	16.66
308.93	17.12
309.143	16.1
309.356	15.78
309.569	15.2
309.781	15.83
309.994	14.79
310.207	14.87
310.42	14.53
310.632	16.02
310.845	16.55
311.058	16
311.27	15.75
311.483	15.8
311.696	15.48
311.908	16.52
312.121	15.3
312.333	15.54
312.546	16.3
312.759	16.12
312.971	15.32
313.184	15.58
313.396	15.78
313.609	16.62
313.821	17.16
314.034	17.25
314.246	16.47
314.459	17.62
314.671	17.55
314.884	17.88
315.096	17.79
315.309	17.46
315.521	17.07
315.733	17.73
315.946	15.54
316.158	15
316.371	15.03
316.583	14.64
316.795	14.24
317.008	14.97
317.22	14.3
317.432	13.87
317.644	14.71
317.857	15.58
318.069	15.42
318.281	15.47
318.494	16.25
318.706	17.92
318.918	18.11
319.13	18.35
319.342	17
319.555	16.94
319.767	17.72
319.979	18.38
320.191	17.28
320.403	16.86
320.615	18.55
320.827	18.17
321.039	16.56
321.252	17.37
321.464	17.31
321.676	17.35
321.888	16.94
322.1	15.85
322.312	15.2
322.524	15.7
322.736	15.47
322.948	14.92
323.16	14.37
323.372	14.67
323.584	14.37
323.796	14.82
324.007	15.32
324.219	16.49
324.431	17.12
324.643	17.82
324.855	18.35
325.067	18.76
325.279	19.72
325.491	21.34
325.702	21.4
325.914	22.35
326.126	22.63
326.338	21.65
326.55	20.78
326.761	21.45
326.973	20.45
327.185	20.36
327.396	20.81
327.608	20
327.82	20.57
328.032	21.26
328.243	20.49
328.455	21.02
328.666	22.36
328.878	22.79
329.09	23.16
329.301	23.94
329.513	24.39
329.725	23.94
329.936	25.24
330.148	24.62
330.359	23.69
330.571	24.78
330.782	25.1
330.994	25.78
331.205	26.97
331.417	27.06
331.628	27.47
331.84	26.99
332.051	28.34
332.262	28.09
332.474	29.02
332.685	29.8
332.897	29.53
333.108	29.99
333.319	29.53
333.531	28.91
333.742	28.98
333.953	29.31
334.165	29.09
334.376	28.74
334.587	28.72
334.799	28.81
335.01	28.87
335.221	28.96
335.432	28.86
335.644	28.85
335.855	29.47
336.066	29.48
336.277	29.62
336.488	30.14
336.7	29.43
336.911	29.72
337.122	29.25
337.333	29.45
337.544	29.76
337.755	29.98
337.966	30.27
338.177	29.23
338.388	29.81
338.599	30.39
338.811	30.42
339.022	30.65
339.233	30.79
339.444	30.52
339.655	30.2
339.866	30.08
340.076	29.71
340.287	30.63
340.498	31.82
340.709	31.5
340.92	30.86
341.131	31.27
341.342	32.08
341.553	31.55
341.764	31.43
341.975	31.45
342.185	31.05
342.396	30.21
342.607	29.72
342.818	28.55
343.029	28.07
343.239	28.26
343.45	27.48
343.661	26.34
343.872	26.24
344.082	26.05
344.293	26.04
344.504	26.04
344.714	26.73
344.925	26.19
345.136	26.63
345.346	27.4
345.557	26.59
345.768	26.37
345.978	27.1
346.189	28.25
346.399	28.1
346.61	28
346.821	28.2
347.031	28.51
347.242	27.98
347.452	28.29
347.663	27.68
347.873	28.05
348.084	28.82
348.294	29.21
348.504	28.13
348.715	28.41
348.925	28.64
349.136	27.83
349.346	26.56
349.557	26.88
349.767	27.14
349.977	27.07
350.188	27.21
350.398	26.59
350.608	25.92
350.819	26.94
351.029	26.9
351.239	25.81
351.449	26.98
351.66	26.76
351.87	28.17
352.08	27.88
352.29	27.84
352.501	28.21
352.711	28.64
352.921	28.76
353.131	28.33
353.341	28.29
353.552	29.41
353.762	28.89
353.972	30.23
354.182	28.75
354.392	28.32
354.602	27.93
354.812	26.94
355.022	26.58
355.232	26.49
355.442	25.99
355.652	26.42
355.862	25.97
356.072	25.95
356.282	25.61
356.492	26.83
356.702	27.07
356.912	27.37
357.122	27.64
357.332	28.41
357.542	28.58
357.752	28.38
357.962	28.07
358.171	28.8
358.381	28.85
358.591	28.43
358.801	27.49
359.011	26.74
359.221	26.85
359.43	27.73
359.64	26.49
359.85	26.2
360.06	26.21
360.269	26.26
360.479	26.11
360.689	26
360.899	26.15
361.108	26.33
361.318	26.6
361.528	26.22
361.737	25.4
361.947	26.19
362.156	25.75
362.366	26.01
362.576	25.73
362.785	25.56
362.995	25.12
363.204	25.25
363.414	24.94
363.623	25.2
363.833	25.11
364.042	25.14
364.252	25.29
364.461	25.92
364.671	26.05
364.88	26.13
365.09	25.69
365.299	26.26
365.509	26.07
365.718	26.64
365.927	26.43
366.137	26.45
366.346	26.13
366.555	25.83
366.765	26.09
366.974	25.85
367.183	25.68
367.393	26.41
367.602	26.54
367.811	26.62
368.021	25.88
368.23	25.25
368.439	25.37
368.648	25.55
368.857	25.09
369.067	24.69
369.276	24.43
369.485	24.61
369.694	24.13
369.903	23.32
370.112	22.68
370.321	23.08
370.531	23.69
370.74	24.11
370.949	23.92
371.158	23.2
371.367	23.08
371.576	23.4
371.785	23.57
371.994	23.78
372.203	23.97
372.412	24.43
372.621	24.01
372.83	23.62
373.039	23.12
373.248	23.26
373.457	23.77
373.666	23.73
373.874	23.15
374.083	22.56
374.292	21.39
374.501	21.77
374.71	21.76
374.919	21.73
375.128	22.19
375.336	22.15
375.545	21.79
375.754	22.29
375.963	22.08
376.171	22.24
376.38	22.41
376.589	22.53
376.798	21.83
377.006	21.31
377.215	21.46
377.424	21.16
377.632	20.89
377.841	21.07
378.05	20.25
378.258	20.15
378.467	19.71
378.675	19.55
378.884	19.89
379.093	19.71
379.301	19.72
379.51	19.4
379.718	19.8
379.927	19.73
380.135	19.52
380.344	19.92
380.552	19.98
380.761	19.62
380.969	19.34
381.177	18.97
381.386	18.99
381.594	19.15
381.803	19.38
382.011	18.91
382.219	18.83
382.428	18.99
382.636	18.08
382.845	18.39
383.053	18.81
383.261	18.55
383.469	18.64
383.678	18.48
383.886	18.2
384.094	17.75
384.302	17.99
384.511	18.23
384.719	17.89
384.927	18.56
385.135	18.28
385.343	18.12
385.552	18.45
385.76	18.55
385.968	18.72
386.176	18.71
386.384	18.65
386.592	18.36
386.8	18.2
387.008	18.41
387.216	18.21
387.424	18.08
387.633	18.14
387.841	18.11
388.049	17.94
388.257	18.31
388.465	17.98
388.672	17.98
388.88	17.69
389.088	17.39
389.296	16.84
389.504	16.67
389.712	16.61
389.92	16.24
390.128	15.75
390.336	15.33
390.544	14.7
390.751	14.67
390.959	14.74
391.167	14.63
391.375	14.3
391.583	14.55
391.79	14.48
391.998	14.23
392.206	14.36
392.414	14.48
392.621	14.3
392.829	14.34
393.037	14.2
393.244	13.86
393.452	13.81
393.66	14.18
393.867	14.04
394.075	14.33
394.283	14.35
394.49	14.33
394.698	14.37
394.905	14.87
395.113	14.76
395.32	14.78
395.528	15.15
395.735	15.11
395.943	15.02
396.15	14.97
396.358	14.69
396.565	14.69
396.773	14.59
396.98	14.5
397.188	14.03
397.395	14.24
397.602	14.36
397.81	14.34
398.017	13.86
398.225	13.69
398.432	13.72
398.639	13.75
398.847	13.32
399.054	13.23
399.261	12.99
399.468	13.28
399.676	13
399.883	13.04
400.09	12.6
400.297	13.32
400.505	13.21
400.712	12.91
400.919	12.61
401.126	12.68
401.333	12.55
401.54	12.34
401.748	12.16
401.955	12.24
402.162	12.17
402.369	12.39
402.576	12.11
402.783	12.06
402.99	11.86
403.197	11.71
403.404	11.97
403.611	12.18
403.818	12.51
404.025	12.44
404.232	12.36
404.439	12.11
404.646	11.81
404.853	11.58
405.06	11.51
405.267	11.7
405.474	11.82
405.681	11.47
405.887	11.41
406.094	11.26
406.301	11.29
406.508	11.13
406.715	11.17
406.922	11.62
407.128	11.93
407.335	11.77
407.542	11.79
407.749	11.8
407.955	11.78
408.162	11.54
408.369	11.32
408.575	11.32
408.782	11.74
408.989	12
409.195	11.72
409.402	11.62
409.609	11.94
409.815	11.58
410.022	11.55
410.228	11.65
410.435	11.83
410.642	12.02
410.848	11.63
411.055	11.59
411.261	11.24
411.468	10.97
411.674	11
411.881	10.73
412.087	11.05
412.294	11.09
412.5	11.48
412.706	11.43
412.913	11.2
413.119	11.35
413.326	11.05
413.532	11.42
413.738	11.61
413.945	11.21
414.151	11.52
414.357	11.35
414.564	11.3
414.77	10.91
414.976	10.89
415.182	11.14
415.389	11.35
415.595	11.05
415.801	10.86
416.007	10.91
416.214	10.83
416.42	10.95
416.626	10.93
416.832	10.8
417.038	10.96
417.244	10.86
417.45	10.78
417.657	10.81
417.863	11.08
418.069	10.88
418.275	10.74
418.481	10.79
418.687	10.73
418.893	10.78
419.099	10.86
419.305	10.58
419.511	10.54
419.717	10.53
419.923	10.24
420.129	10.01
420.335	10.16
420.541	10.27
420.746	10.27
420.952	10.06
421.158	9.96
421.364	9.91
421.57	9.82
421.776	9.83
421.982	9.85
422.187	9.92
422.393	9.88
422.599	9.71
422.805	9.61
423.01	9.71
423.216	9.72
423.422	9.73
423.628	9.78
423.833	9.87
424.039	9.79
424.245	9.73
424.45	9.83
424.656	9.85
424.862	9.8
425.067	9.96
425.273	9.83
425.478	9.88
425.684	9.85
425.889	9.7
426.095	9.82
426.301	9.89
426.506	9.93
426.712	9.74
426.917	9.8
427.123	9.88
427.328	9.54
427.533	9.59
427.739	9.5
427.944	9.45
428.15	9.35
428.355	9.21
428.561	9.11
428.766	9.07
428.971	9.32
429.177	9.4
429.382	9.4
429.587	9.68
429.793	9.74
429.998	9.69
430.203	9.82
430.408	10.03
430.614	10.27
430.819	10.16
431.024	10.13
431.229	10.22
431.434	10.24
431.64	10.5
431.845	10.46
432.05	10.4
432.255	10.35
432.46	10.22
432.665	9.97
432.87	9.84
433.076	10.2
433.281	10.35
433.486	10.15
433.691	10.02
433.896	9.85
434.101	9.68
434.306	9.72
434.511	9.8
434.716	9.93
434.921	10.14
435.126	10.15
435.331	9.77
435.535	9.51
435.74	9.57
435.945	9.58
436.15	9.66
436.355	9.8
436.56	9.6
436.765	9.37
436.97	9.47
437.174	9.44
437.379	9.41
437.584	9.48
437.789	9.44
437.993	9.4
438.198	9.29
438.403	9.16
438.608	9.01
438.812	9.05
439.017	9.35
439.222	9.29
439.426	9.27
439.631	9.18
439.836	9.16
440.04	9.07
440.245	8.98
440.45	9.11
440.654	9.19
440.859	9.14
441.063	9.27
441.268	9.04
441.472	9.06
441.677	9
441.881	9.18
442.086	9.27
442.29	9.54
442.495	9.59
442.699	9.42
442.904	9.36
443.108	9.56
443.312	9.48
443.517	9.64
443.721	9.63
443.925	9.64
444.13	9.38
444.334	9.27
444.538	9.15
444.743	9.06
444.947	9.09
445.151	8.88
445.356	8.75
445.56	8.73
445.764	8.81
445.968	8.74
446.173	8.73
446.377	8.83
446.581	8.86
446.785	8.92
446.989	8.92
447.193	9.07
447.398	9.16
447.602	9.27
447.806	9.25
448.01	9.33
448.214	9.33
448.418	9.32
448.622	9.25
448.826	9.14
449.03	9.01
449.234	9.15
449.438	9.11
449.642	9.25
449.846	9.16
450.05	9.48
450.254	9.24
450.458	9.28
450.662	9.37
450.866	9.4
451.069	9.58
451.273	9.53
451.477	9.45
451.681	9.42
451.885	9.33
452.089	9.26
452.292	8.97
452.496	9.03
452.7	8.99
452.904	8.91
453.107	9
453.311	8.86
453.515	8.87
453.719	8.96
453.922	8.88
454.126	8.91
454.33	8.94
454.533	8.86
454.737	8.88
454.94	9.01
455.144	8.94
455.348	8.89
455.551	9.1
455.755	9.18
455.958	9.16
456.162	9.21
456.365	9.36
456.569	9.44
456.772	9.53
456.976	9.34
457.179	9.24
457.383	9.34
457.586	9.24
457.79	9.08
457.993	8.81
458.196	8.68
458.4	8.66
458.603	8.5
458.807	8.46
459.01	8.49
459.213	8.61
459.417	8.58
459.62	8.63
459.823	8.63
460.026	8.68
460.23	8.79
460.433	8.87
460.636	8.9
460.839	8.98
461.042	8.93
461.246	8.88
461.449	8.71
461.652	8.82
461.855	8.92
462.058	9.16
462.261	9.17
462.464	9.31
462.668	9.29
462.871	9.38
463.074	9.15
463.277	9.19
463.48	9.22
463.683	9.62
463.886	9.45
464.089	9.39
464.292	9.26
464.495	9.08
464.698	8.97
464.901	8.86
465.104	8.74
465.306	8.67
465.509	8.58
465.712	8.47
465.915	8.33
466.118	8.33
466.321	8.39
466.524	8.25
466.726	8.23
466.929	8.32
467.132	8.27
467.335	8.43
467.538	8.8
467.74	9.01
467.943	9.05
468.146	9.05
468.348	9.07
468.551	8.86
468.754	9.13
468.956	9.32
469.159	9.14
469.362	9.21
469.564	9.15
469.767	8.98
469.969	9.01
470.172	8.96
470.375	8.9
470.577	9.09
470.78	9.08
470.982	9.05
471.185	9.13
471.387	9.21
471.59	9.22
471.792	9.15
471.995	9.11
472.197	9.12
472.399	8.91
472.602	8.98
472.804	8.87
473.007	8.97
473.209	8.78
473.411	8.55
473.614	8.5
473.816	8.54
474.018	8.59
474.22	8.66
474.423	8.42
474.625	8.59
474.827	8.63
475.03	8.66
475.232	8.71
475.434	8.86
475.636	8.92
475.838	8.87
476.04	8.73
476.243	8.65
476.445	8.57
476.647	8.79
476.849	9.01
477.051	8.99
477.253	9
477.455	8.84
477.657	8.62
477.859	8.68
478.061	8.97
478.263	9
478.465	9.07
478.667	9.06
478.869	9.04
479.071	8.92
479.273	8.95
479.475	8.88
479.677	8.94
479.879	8.97
480.081	9.1
480.283	8.98
480.485	9.1
480.686	8.98
480.888	9.02
481.09	9.03
481.292	9.03
481.494	8.91
481.695	8.85
481.897	8.86
482.099	8.97
482.301	8.8
482.502	8.75
482.704	8.72
482.906	8.74
483.107	8.68
483.309	8.55
483.511	8.55
483.712	8.57
483.914	8.59
484.115	8.54
484.317	8.43
484.519	8.44
484.72	8.45
484.922	8.42
485.123	8.43
485.325	8.42
485.526	8.48
485.728	8.42
485.929	8.41
486.131	8.39
486.332	8.43
486.534	8.46
486.735	8.43
486.936	8.38
487.138	8.42
487.339	8.39
487.541	8.41
487.742	8.47
487.943	8.51
488.144	8.49
488.346	8.46
488.547	8.44
488.748	8.49
488.95	8.48
489.151	8.47
489.352	8.42
489.553	8.4
489.755	8.37
489.956	8.3
490.157	8.28
490.358	8.29
490.559	8.28
490.76	8.22
490.961	8.17
491.163	8.2
491.364	8.24
491.565	8.25
491.766	8.33
491.967	8.39
492.168	8.36
492.369	8.31
492.57	8.21
492.771	8.27
492.972	8.34
493.173	8.38
493.374	8.45
493.575	8.52
493.776	8.49
493.976	8.48
494.177	8.31
494.378	8.45
494.579	8.61
494.78	8.89
494.981	8.86
495.182	8.79
495.382	9
495.583	8.98
495.784	8.98
495.985	9.13
496.185	9.14
496.386	9.42
496.587	9.33
496.788	9.24
496.988	9.08
497.189	9.1
497.39	9.26
497.59	9.18
497.791	9.08
497.992	9.15
498.192	9.17
498.393	9.07
498.593	9.08
498.794	9.09
498.994	9.12
499.195	9.19
499.395	9.39
499.596	9.33
499.796	9.33
499.997	9.56
500.197	9.67
500.398	9.69
500.598	9.66
500.799	9.6
500.999	9.62
501.199	9.73
501.4	9.87
501.6	9.84
501.801	9.76
502.001	9.82
502.201	9.73
502.402	9.66
502.602	9.6
502.802	9.91
503.002	9.89
503.203	9.91
503.403	9.87
503.603	9.87
503.803	9.93
504.003	10.05
504.204	10.21
504.404	10.28
504.604	10.21
504.804	10.48
505.004	10.55
505.204	10.63
505.404	10.71
505.604	10.72
505.804	10.98
506.005	10.93
506.205	11.08
506.405	10.99
506.605	10.98
506.805	11.25
507.005	11.21
507.204	11.12
507.404	11.29
507.604	11.38
507.804	11.49
508.004	11.34
508.204	11.32
508.404	11.31
508.604	11.3
508.804	11.3
509.003	11.37
509.203	11.4
509.403	11.42
509.603	11.38
509.803	11.45
510.002	11.5
510.202	11.7
510.402	11.93
510.602	12.14
510.801	12.16
511.001	12.43
511.201	12.29
511.4	12.35
511.6	12.58
511.8	12.75
511.999	12.95
512.199	13.12
512.398	13.11
512.598	13.19
512.797	13.12
512.997	13.4
513.197	13.33
513.396	13.5
513.596	13.54
513.795	13.51
513.994	13.6
514.194	13.57
514.393	13.55
514.593	13.52
514.792	13.53
514.992	13.61
515.191	13.57
515.39	13.86
515.59	14
515.789	14.1
515.988	14.11
516.188	14.12
516.387	14.23
516.586	14.46
516.786	14.63
516.985	14.77
517.184	14.85
517.383	14.94
517.582	14.9
517.782	14.92
517.981	14.96
518.18	15.18
518.379	15.26
518.578	15.33
518.777	15.38
518.976	15.4
519.176	15.44
519.375	15.65
519.574	15.81
519.773	15.95
519.972	16.06
520.171	16.23
520.37	16.36
520.569	16.4
520.768	16.49
520.967	16.71
521.166	16.87
521.365	16.93
521.564	16.99
521.762	16.99
521.961	16.99
522.16	17.09
522.359	17.03
522.558	16.9
522.757	17.11
522.956	17.21
523.154	17.2
523.353	17.31
523.552	17.43
523.751	17.51
523.949	17.73
524.148	17.83
524.347	17.96
524.546	18.31
524.744	18.51
524.943	18.54
525.142	18.64
525.34	18.76
525.539	18.89
525.737	19.01
525.936	19.11
526.135	19.17
526.333	19.33
526.532	19.43
526.73	19.5
526.929	19.66
527.127	19.83
527.326	19.92
527.524	20
527.723	20.08
527.921	20.15
528.12	20.15
528.318	20.21
528.516	20.24
528.715	20.3
528.913	20.34
529.112	20.41
529.31	20.38
529.508	20.32
529.707	20.35
529.905	20.38
530.103	20.45
530.301	20.56
530.5	20.63
530.698	20.73
530.896	20.82
531.094	20.94
531.293	20.98
531.491	21.09
531.689	21.36
531.887	21.42
532.085	21.65
532.283	21.68
532.481	21.75
532.68	21.72
532.878	21.82
533.076	21.84
533.274	21.86
533.472	21.92
533.67	22.06
533.868	22.16
534.066	22.3
534.264	22.3
534.462	22.43
534.66	22.41
534.858	22.54
535.056	22.66
535.253	22.75
535.451	22.87
535.649	22.97
535.847	23.03
536.045	23.12
536.243	23.07
536.441	23.08
536.638	23.1
536.836	23.35
537.034	23.47
537.232	23.42
537.43	23.57
537.627	23.55
537.825	23.59
538.023	23.62
538.22	23.57
538.418	23.89
538.616	23.97
538.813	24.22
539.011	24.32
539.209	24.44
539.406	24.48
539.604	24.6
539.801	24.72
539.999	24.78
540.196	24.86
540.394	24.86
540.591	24.79
540.789	24.82
540.986	24.7
541.184	24.61
541.381	24.71
541.579	24.76
541.776	24.69
541.974	24.68
542.171	24.73
542.368	24.83
542.566	24.96
542.763	24.96
542.96	24.95
543.158	25.05
543.355	25.19
543.552	25.08
543.75	25.25
543.947	25.26
544.144	25.35
544.341	25.37
544.539	25.29
544.736	25.19
544.933	25.38
545.13	25.71
545.327	25.73
545.524	25.74
545.722	25.84
545.919	25.78
546.116	25.8
546.313	25.93
546.51	25.97
546.707	26.08
546.904	26.3
547.101	26.27
547.298	26.19
547.495	26.26
547.692	26.27
547.889	26.42
548.086	26.62
548.283	26.91
548.48	27
548.677	27.07
548.874	27.16
549.07	27.27
549.267	27.4
549.464	27.63
549.661	27.85
549.858	27.92
550.055	27.83
550.251	27.7
550.448	27.67
550.645	27.86
550.842	27.98
551.038	28.07
551.235	28.06
551.432	28.17
551.628	28.1
551.825	27.99
552.022	28.11
552.218	28.16
552.415	28.48
552.612	28.44
552.808	28.25
553.005	28.42
553.201	28.38
553.398	28.3
553.594	28.38
553.791	28.47
553.987	28.56
554.184	28.48
554.38	28.63
554.577	28.49
554.773	28.69
554.97	28.81
555.166	28.77
555.362	29
555.559	29.32
555.755	29.06
555.952	29.09
556.148	29.27
556.344	29.69
556.541	29.91
556.737	29.93
556.933	30.05
557.129	30.28
557.326	30.32
557.522	30.3
557.718	30.22
557.914	30.44
558.11	30.51
558.307	30.38
558.503	30.28
558.699	30.23
558.895	30.09
559.091	30.17
559.287	30.32
559.483	30.36
559.679	30.51
559.876	30.53
560.072	30.51
560.268	30.33
560.464	30.27
560.66	30.38
560.856	30.32
561.052	30.36
561.247	30.21
561.443	30.15
561.639	30.23
561.835	30.06
562.031	29.94
562.227	29.98
562.423	29.97
562.619	30.2
562.815	30.01
563.01	30.07
563.206	30.25
563.402	30.53
563.598	30.52
563.793	30.51
563.989	30.46
564.185	30.6
564.381	30.69
564.576	30.78
564.772	30.73
564.968	30.84
565.163	30.9
565.359	30.85
565.555	30.8
565.75	30.67
565.946	30.75
566.141	30.9
566.337	30.91
566.532	30.98
566.728	30.99
566.923	31.01
567.119	31.04
567.314	31.1
567.51	31.04
567.705	30.97
567.901	30.91
568.096	30.86
568.292	30.76
568.487	30.74
568.682	30.73
568.878	30.74
569.073	30.87
569.268	30.89
569.464	30.83
569.659	30.77
569.854	30.69
570.05	30.99
570.245	31.19
570.44	31.22
570.635	31.29
570.831	31.4
571.026	31.57
571.221	31.57
571.416	31.57
571.611	31.54
571.806	31.77
572.002	31.76
572.197	31.63
572.392	31.53
572.587	31.73
572.782	31.71
572.977	31.6
573.172	31.51
573.367	31.39
573.562	31.34
573.757	31.48
573.952	31.38
574.147	31.56
574.342	31.63
574.537	31.69
574.732	31.54
574.927	31.68
575.121	31.79
575.316	31.89
575.511	31.99
575.706	32.16
575.901	32.07
576.096	32.15
576.29	32.1
576.485	32.21
576.68	32.26
576.875	32.35
577.069	32.24
577.264	32.24
577.459	32.41
577.654	32.5
577.848	32.51
578.043	32.7
578.238	32.85
578.432	32.9
578.627	32.8
578.821	33.09
579.016	33.23
579.21	33.18
579.405	33.06
579.6	32.82
579.794	32.82
579.989	32.76
580.183	32.47
580.378	32.43
580.572	32.46
580.766	32.72
580.961	32.81
581.155	32.62
581.35	32.66
581.544	32.63
581.738	32.79
581.933	33.02
582.127	32.94
582.321	33.19
582.516	32.81
582.71	32.98
582.904	32.6
583.099	32.13
583.293	32.49
583.487	32.75
583.681	33.03
583.875	32.98
584.07	32.8
584.264	33.01
584.458	32.99
584.652	33.5
584.846	33.3
585.04	33.61
585.234	33.56
585.428	33.51
585.623	33.51
585.817	33.53
586.011	33.49
586.205	33.44
586.399	33.41
586.593	33.56
586.787	33.37
586.981	33.43
587.174	33.28
587.368	33.55
587.562	33.43
587.756	33.46
587.95	33.38
588.144	33.81
588.338	33.9
588.532	34.23
588.725	34.16
588.919	34.45
589.113	34.45
589.307	34.32
589.501	34.17
589.694	34.12
589.888	34.03
590.082	33.99
590.275	33.8
590.469	33.7
590.663	33.27
590.856	33.5
591.05	33.32
591.244	33.35
591.437	33.74
591.631	33.82
591.824	33.89
592.018	33.95
592.212	34.12
592.405	34.08
592.599	34.29
592.792	34.35
592.986	34.03
593.179	34.24
593.372	34.63
593.566	34.51
593.759	34.43
593.953	34.57
594.146	34.63
594.339	34.42
594.533	34.4
594.726	34.17
594.92	34.07
595.113	34.24
595.306	34.05
595.499	33.73
595.693	33.82
595.886	34
596.079	33.79
596.272	33.62
596.466	33.88
596.659	33.9
596.852	34.16
597.045	34.54
597.238	34.54
597.431	34.54
597.624	34.59
597.818	34.69
598.011	34.63
598.204	34.78
598.397	35.07
598.59	35.04
598.783	35.08
598.976	34.91
599.169	34.62
599.362	34.8
599.555	35.19
599.748	35.06
599.941	34.96
600.134	35.03
600.326	35.18
600.519	35.29
600.712	35.28
600.905	35.37
601.098	35.52
601.291	35.81
601.483	35.88
601.676	35.53
601.869	35.46
602.062	35.63
602.255	35.62
602.447	35.61
602.64	35.38
602.833	35.38
603.025	35.34
603.218	35.39
603.411	35.55
603.603	35.46
603.796	35.66
603.989	35.98
604.181	35.86
604.374	35.85
604.566	35.79
604.759	35.96
604.951	35.93
605.144	35.83
605.336	35.76
605.529	35.43
605.721	35.34
605.914	35.34
606.106	35.37
606.299	35.44
606.491	35.45
606.683	35.53
606.876	35.29
607.068	35.28
607.26	35.5
607.453	35.36
607.645	35.49
607.837	35.53
608.03	35.27
608.222	35.01
608.414	35.01
608.606	35.11
608.799	35.16
608.991	35.17
609.183	35.12
609.375	34.89
609.567	35.1
609.759	35.12
609.952	35.24
610.144	35.45
610.336	35.51
610.528	35.29
610.72	35.34
610.912	35.25
611.104	35.32
611.296	35.5
611.488	35.46
611.68	35.6
611.872	35.46
612.064	35.21
612.256	35.13
612.448	35.14
612.64	35.3
612.832	34.84
613.023	34.7
613.215	34.26
613.407	34.19
613.599	34.51
613.791	34.34
613.983	34.67
614.174	34.76
614.366	35.02
614.558	35.12
614.75	35.22
614.941	35.67
615.133	35.94
615.325	36.45
615.516	36.53
615.708	36.57
615.9	36.82
616.091	36.89
616.283	37.1
616.475	36.79
616.666	37.01
616.858	36.9
617.049	37.03
617.241	36.68
617.432	36.52
617.624	36.82
617.815	36.81
618.007	36.61
618.198	36.64
618.39	36.89
618.581	36.94
618.773	36.82
618.964	36.75
619.155	36.67
619.347	36.75
619.538	37.24
619.729	37.08
619.921	37.19
620.112	37.38
620.303	37.33
620.494	37.01
620.686	37.03
620.877	37.02
621.068	37.5
621.259	37.79
621.451	38.09
621.642	37.84
621.833	37.91
622.024	37.91
622.215	37.77
622.406	37.81
622.597	37.79
622.788	37.84
622.98	37.8
623.171	37.46
623.362	37.4
623.553	37.12
623.744	37
623.935	36.71
624.126	36.47
624.317	36.46
624.508	36.24
624.698	36.18
624.889	36.48
625.08	36.52
625.271	36.76
625.462	36.43
625.653	36.59
625.844	36.69
626.034	36.66
626.225	36.96
626.416	36.94
626.607	37.11
626.798	36.82
626.988	36.43
627.179	36.43
627.37	36.13
627.56	36.15
627.751	36.04
627.942	35.95
628.132	36.17
628.323	36.01
628.514	36.05
628.704	35.92
628.895	36.2
629.085	36.48
629.276	36.27
629.466	36.32
629.657	36.7
629.847	37.01
630.038	36.95
630.228	36.73
630.419	36.71
630.609	36.78
630.8	36.79
630.99	36.95
631.181	36.69
631.371	36.6
631.561	36.7
631.752	36.38
631.942	36.55
632.132	36.97
632.323	37.16
632.513	37.36
632.703	37.42
632.893	37.41
633.084	37.27
633.274	37.57
633.464	37.64
633.654	37.71
633.844	37.62
634.034	37.31
634.225	37.32
634.415	37.26
634.605	37.12
634.795	37.07
634.985	37.04
635.175	37.3
635.365	37.34
635.555	37.55
635.745	37.5
635.935	37.44
636.125	37.37
636.315	37.02
636.505	36.91
636.695	36.82
636.885	36.68
637.075	36.85
637.265	36.73
637.455	36.65
637.644	36.69
637.834	36.43
638.024	36.42
638.214	36.88
638.404	36.97
638.593	37.39
638.783	37.44
638.973	37.22
639.163	37.2
639.352	37.23
639.542	37.45
639.732	37.28
639.921	37.43
640.111	37.94
640.301	37.44
640.49	37.71
640.68	37.29
640.87	37.47
641.059	37.83
641.249	37.79
641.438	37.4
641.628	37.03
641.817	37.42
642.007	37.45
642.196	37.51
642.386	37.3
642.575	37.13
642.764	36.98
642.954	37.38
643.143	37.31
643.333	37.62
643.522	38.28
643.711	38.51
643.901	38.37
644.09	38.37
644.279	38.03
644.469	38.46
644.658	38.42
644.847	38.36
645.036	38.01
645.226	37.97
645.415	37.44
645.604	37.09
645.793	36.87
645.982	37.05
646.171	37.17
646.361	37
646.55	36.85
646.739	36.6
646.928	37.05
647.117	36.62
647.306	36.5
647.495	36.58
647.684	36.59
647.873	36.87
648.062	37
648.251	37.06
648.44	37.23
648.629	37.58
648.818	37.39
649.007	37.46
649.196	37.4
649.384	37.67
649.573	37.64
649.762	37.78
649.951	37.31
650.14	36.86
650.328	36.83
650.517	36.68
650.706	36.36
650.895	36.76
651.083	36.3
651.272	36.42
651.461	36.27
651.65	36.59
651.838	36.32
652.027	36.63
652.216	36.82
652.404	36.9
652.593	37.07
652.781	36.99
652.97	36.52
653.158	36.83
653.347	37.12
653.535	37.09
653.724	37.25
653.912	37.65
654.101	37.85
654.289	37.71
654.478	37.77
654.666	37.29
654.855	37.45
655.043	38.06
655.231	37.92
655.42	38.27
655.608	38.83
655.796	38.53
655.985	38.14
656.173	38.07
656.361	37.85
656.55	37.65
656.738	38.23
656.926	38.31
657.114	38.03
657.302	38.14
657.491	37.71
657.679	37.36
657.867	37.53
658.055	37.88
658.243	38.06
658.431	38.04
658.619	38.42
658.807	38.39
658.996	38.09
659.184	38.21
659.372	38.25
659.56	38.51
659.748	38.72
659.936	38.6
660.124	38.47
660.311	38.24
660.499	38.27
660.687	38.09
660.875	38.19
661.063	38.33
661.251	38.23
661.439	38.18
661.627	37.92
661.814	37.98
662.002	38.14
662.19	38.08
662.378	37.79
662.565	38.12
662.753	37.95
662.941	37.44
663.129	37.5
663.316	37.71
663.504	37.52
663.692	37.27
663.879	37.04
664.067	36.54
664.254	36.35
664.442	36.45
664.63	36.31
664.817	36.72
665.005	36.99
665.192	37.2
665.38	37.4
665.567	37.68
665.755	38.05
665.942	37.85
666.13	38.03
666.317	38.17
666.504	38.32
666.692	38.35
666.879	37.55
667.067	38.1
667.254	38.06
667.441	38.42
667.629	38.38
667.816	38.29
668.003	38.4
668.19	38.37
668.378	39.05
668.565	39.46
668.752	39.41
668.939	40.34
669.127	39.54
669.314	39.73
669.501	39.18
669.688	39.45
669.875	39.28
670.062	39.11
670.249	39.36
670.436	38.8
670.623	38.56
670.81	38.99
670.997	38.69
671.184	38.99
671.371	38.78
671.558	38.98
671.745	38.96
671.932	39.4
672.119	39.39
672.306	39.22
672.493	39.51
672.68	38.89
672.867	38.92
673.054	38.64
673.24	38.67
673.427	38.92
673.614	39.08
673.801	39
673.988	39.36
674.174	39.33
674.361	39.92
674.548	39.9
674.734	40.08
674.921	40.13
675.108	40.01
675.294	39.9
675.481	39.67
675.668	39.47
675.854	39.49
676.041	39.02
676.227	39.27
676.414	39.09
676.601	39.27
676.787	39.47
676.974	39.01
677.16	39.69
677.347	39.89
677.533	40.48
677.719	40.64
677.906	40.82
678.092	41.17
678.279	40.95
678.465	40.9
678.651	40.76
678.838	41.17
679.024	41.03
679.21	40.48
679.397	40.38
679.583	39.78
679.769	39.63
679.955	39.29
680.142	38.76
680.328	38.93
680.514	38.98
680.7	38.77
680.886	38.3
681.073	38.2
681.259	38.26
681.445	38.81
681.631	38.55
681.817	38.45
682.003	38.88
682.189	39
682.375	38.82
682.561	38.56
682.747	38.18
682.933	38.5
683.119	38.74
683.305	38.9
683.491	38.31
683.677	38.66
683.863	38.52
684.049	38.32
684.235	38.54
684.42	38.76
684.606	39.09
684.792	39.81
684.978	40.57
685.164	40.62
685.349	40.48
685.535	40.12
685.721	40.34
685.907	40.12
686.092	40.23
686.278	39.73
686.464	39.67
686.649	39.07
686.835	38.99
687.021	38.14
687.206	38.16
687.392	38.08
687.577	38.64
687.763	38.25
687.948	38.89
688.134	38.54
688.319	39.14
688.505	38.93
688.69	39.7
688.876	39.53
689.061	39.44
689.247	39.47
689.432	39.79
689.618	39.53
689.803	40.08
689.988	40.15
690.174	39.84
690.359	39.45
690.544	39.75
690.73	39.28
690.915	39.3
691.1	38.79
691.285	39.13
691.471	39.19
691.656	39.31
691.841	38.96
692.026	38.35
692.211	39.04
692.396	39.21
692.582	39.35
692.767	39.29
692.952	39.45
693.137	39.8
693.322	39.24
693.507	39
693.692	39.07
693.877	39.27
694.062	39.72
694.247	39.34
694.432	38.82
694.617	38.93
694.802	38.82
694.987	37.92
695.172	38.11
695.357	38.72
695.541	38.54
695.726	39.13
695.911	39.02
696.096	38.95
696.281	38.82
696.466	38.86
696.65	38.82
696.835	39.4
697.02	40.43
697.204	40.62
697.389	40.51
697.574	40.64
697.759	40
697.943	40.26
698.128	40.26
698.312	40.7
698.497	41.11
698.682	40.6
698.866	40.43
699.051	40.08
699.235	39.84
699.42	39.05
699.604	38.99
699.789	38.93
699.973	38.74
700.158	38.8
700.342	38.62
700.527	38.62
700.711	39.01
700.895	39.2
701.08	39.25
701.264	39.61
701.448	40.65
701.633	40.76
701.817	41.55
702.001	41.57
702.186	41.65
702.37	41.06
702.554	40.21
702.738	40.34
702.923	39.45
703.107	39.66
703.291	39.32
703.475	38.65
703.659	38.75
703.843	38.12
704.027	38.1
704.212	37.71
704.396	37.98
704.58	38.56
704.764	38.16
704.948	38.24
705.132	37.77
705.316	37.76
705.5	37.88
705.684	37.84
705.868	37.92
706.052	38.2
706.235	38.72
706.419	39.24
706.603	39.45
706.787	39.09
706.971	39.64
707.155	39.71
707.339	39.63
707.522	39.77
707.706	39.79
707.89	39.93
708.074	39.54
708.257	39.61
708.441	39.68
708.625	39.55
708.808	40.48
708.992	40.04
709.176	40.01
709.359	39.96
709.543	39.65
709.727	39.78
709.91	40.18
710.094	40.6
710.277	40.67
710.461	40.35
710.644	40.37
710.828	41.1
711.011	41.83
711.195	42.09
711.378	42.28
711.562	42.03
711.745	42.13
711.928	41.75
712.112	40.95
712.295	40.56
712.478	40.5
712.662	40.92
712.845	40.14
713.028	40
713.212	40.3
713.395	40.22
713.578	40.94
713.761	40.01
713.945	40.3
714.128	40.89
714.311	40.75
714.494	40.73
714.677	40.39
714.86	40.78
715.043	40.12
715.227	40.27
715.41	39.97
715.593	39.34
715.776	39.29
715.959	38.72
716.142	39.03
716.325	39.25
716.508	39.5
716.691	39.98
716.874	39.7
717.057	39.55
717.239	39.27
717.422	39.4
717.605	39.55
717.788	39.96
717.971	39.69
718.154	39.5
718.337	39.36
718.519	39.43
718.702	38.81
718.885	38.37
719.068	39.04
719.25	38.73
719.433	38.99
719.616	39.35
719.798	39.77
719.981	40.38
720.164	39.9
720.346	39.77
720.529	39.5
720.712	39.84
720.894	39.62
721.077	38.86
721.259	38.49
721.442	38.21
721.624	39.01
721.807	38.57
721.989	38.7
722.172	39.03
722.354	39.08
722.537	39.7
722.719	39.52
722.901	38.55
723.084	38.8
723.266	38.89
723.448	39.44
723.631	39.12
723.813	40.02
723.995	39.68
724.178	39.72
724.36	40.26
724.542	40.51
724.724	40.35
724.907	41.79
725.089	41.71
725.271	42.37
725.453	42.37
725.635	42.63
725.817	41.79
725.999	42.16
726.181	42.28
726.364	41.92
726.546	41.75
726.728	42.17
726.91	41.75
727.092	42.02
727.274	42.1
727.456	41.78
727.638	40.96
727.819	41.3
728.001	40.38
728.183	40.22
728.365	40.69
728.547	40.62
728.729	40.11
728.911	40.96
729.093	40.43
729.274	40.86
729.456	41.48
729.638	41.67
729.82	42.34
730.001	42.49
730.183	42.4
730.365	42.89
730.546	43.24
730.728	44.13
730.91	43.73
731.091	44.38
731.273	43.92
731.455	43.04
731.636	43.13
731.818	42.57
731.999	43.23
732.181	42.55
732.362	42.22
732.544	41.28
732.725	40.63
732.907	40.79
733.088	40.7
733.27	40.76
733.451	40.79
733.633	41.11
733.814	40.83
733.995	40.87
734.177	42.33
734.358	41.64
734.539	43.12
734.721	42.61
734.902	41.77
735.083	41.39
735.264	40.62
735.446	41.44
735.627	41.31
735.808	41.87
735.989	41.45
736.17	40.62
736.351	41.32
736.533	39.85
736.714	40.65
736.895	41.89
737.076	43.77
737.257	44.28
737.438	43.95
737.619	44.27
737.8	43.32
737.981	43.22
738.162	44.05
738.343	43.96
738.524	44.73
738.705	44.71
738.886	44.54
739.067	44.6
739.247	44.44
739.428	45.12
739.609	44.43
739.79	45.12
739.971	46.18
740.151	45.36
740.332	45.29
740.513	45.01
740.694	44.24
740.874	43.89
741.055	42.39
741.236	42.44
741.417	41.54
741.597	41.46
741.778	41.55
741.958	40.08
742.139	40.11
742.32	40.35
742.5	39.25
742.681	39.81
742.861	39.43
743.042	40.52
743.222	40.32
743.403	41.03
743.583	41.51
743.764	41.01
743.944	42.14
744.124	41.56
744.305	41.22
744.485	41.19
744.666	40.7
744.846	40.52
745.026	38.78
745.207	40.19
745.387	39.07
745.567	39.92
745.747	41.29
745.928	40.82
746.108	41.25
746.288	40.25
746.468	40.35
746.648	40.23
746.829	39.8
747.009	41.71
747.189	42.11
747.369	42.37
747.549	41.52
747.729	41.12
747.909	39.7
748.089	40.37
748.269	41.09
748.449	41.17
748.629	42.15
748.809	42.85
748.989	42.44
749.169	40.39
749.349	40.94
749.529	40.92
749.709	41.08
749.889	42.3
750.068	42.37
750.248	42.94
750.428	43.53
750.608	43.12
750.788	42.91
750.967	42.38
751.147	43.5
751.327	43.23
751.507	42.99
751.686	42.72
751.866	43.41
752.046	43.21
752.225	43.22
752.405	42.78
752.585	43.46
752.764	44.19
752.944	43.92
753.123	43.76
753.303	44.78
753.482	45.07
753.662	44.54
753.841	44.19
754.021	42.78
754.2	41.59
754.38	41.83
754.559	40.98
754.739	39.96
754.918	39.67
755.097	39.71
755.277	37.86
755.456	38.16
755.635	37.9
755.815	37.4
755.994	38.1
756.173	38.81
756.352	39.88
756.532	39.04
756.711	40.02
756.89	40.19
757.069	39.93
757.248	40.55
757.427	40.05
757.607	41.5
757.786	41.75
757.965	43.37
758.144	43.73
758.323	43.13
758.502	43.42
758.681	43.69
758.86	44.12
759.039	44.31
759.218	44.54
759.397	44.15
759.576	43.25
759.755	43.37
759.934	41.5
760.113	41.84
760.291	41.63
760.47	43.06
760.649	43.04
760.828	43.56
761.007	43.18
761.186	42.81
761.364	42.86
761.543	42.16
761.722	42.16
761.901	42.97
762.079	41.3
762.258	41.54
762.437	40.93
762.615	40.46
762.794	40.5
762.972	39.86
763.151	40.24
763.33	39.74
763.508	39.96
763.687	40.34
763.865	40.02
764.044	40.72
764.222	40.27
764.401	40.26
764.579	40.48
764.758	39.57
764.936	39.78
765.114	40
765.293	40.58
765.471	41.47
765.65	40.57
765.828	40.96
766.006	40.77
766.184	41.14
766.363	40.53
766.541	39.44
766.719	39.71
766.898	40.64
767.076	40.57
767.254	40.68
767.432	40.03
767.61	39.33
767.788	39.31
767.967	40.1
768.145	39.81
768.323	39.41
768.501	40.47
768.679	41.03
768.857	40.72
769.035	40.51
769.213	40.25
769.391	40.44
769.569	41.27
769.747	41.16
769.925	40.82
770.103	40.48
770.281	42.1
770.459	42.05
770.636	42.19
770.814	41.85
770.992	42.6
771.17	43.65
771.348	43.38
771.525	44.9
771.703	44.45
771.881	44.18
772.059	44.07
772.236	43.89
772.414	45.99
772.592	45.45
772.769	47.03
772.947	48.28
773.125	47.6
773.302	46.81
773.48	44.98
773.657	44.71
773.835	44.78
774.013	45.34
774.19	45.62
774.368	43.61
774.545	43.78
774.723	42.19
774.9	39.98
775.077	40.16
775.255	41.08
775.432	41.73
775.61	42.85
775.787	44.08
775.964	44.38
776.142	43.68
776.319	43.8
776.496	42.05
776.674	41.86
776.851	42.53
777.028	42.42
777.205	42.83
777.382	43.64
777.56	42.6
777.737	40.83
777.914	40.39
778.091	41.59
778.268	42.23
778.445	43.97
778.622	44.31
778.8	44.81
778.977	44.13
779.154	44.84
779.331	44.15
779.508	44.95
779.685	45.31
779.862	45.8
780.038	45.63
780.215	44.55
780.392	46.31
780.569	46.62
780.746	44.51
780.923	46.41
781.1	45.21
781.277	46.79
781.453	46.15
781.63	44.8
781.807	44.97
781.984	43.85
782.16	44.7
782.337	43.24
782.514	43.83
782.691	44.56
782.867	43.59
783.044	42.8
783.221	41.67
783.397	39.43
783.574	42.19
783.75	41.93
783.927	44.83
784.103	43.72
784.28	44.5
784.456	43.03
784.633	45.15
784.809	44.69
784.986	46.92
785.162	42.73
785.339	44.82
785.515	42.35
785.692	42.1
785.868	39.52
786.044	39.41
786.221	38.19
786.397	41.5
786.573	40.02
786.749	38.72
786.926	37.87
787.102	44.19
787.278	43.82
787.454	43.47
787.631	42.98
787.807	42.45
787.983	43.82
788.159	44.36
788.335	43.85
788.511	46.01
788.687	46.66
788.863	47.36
789.039	46.38
789.216	46.96
789.392	47.97
789.568	49.48
789.744	50.85
789.919	49.22
790.095	49.99
790.271	49.73
790.447	47.47
790.623	48.95
790.799	46.26
790.975	45.62
791.151	47.36
791.327	48.79
791.502	49.01
791.678	46.62
791.854	47.35
792.03	46.83
792.205	45.4
792.381	45.83
792.557	45.38
792.733	46.5
792.908	45.76
793.084	44.88
793.259	45.28
793.435	43.16
793.611	45.04
793.786	45.88
793.962	45.61
794.137	45.95
794.313	43.81
794.488	41.67
794.664	42.55
794.839	44.05
795.015	42.67
795.19	39.84
795.366	41.7
795.541	41.16
795.716	41.87
795.892	42.58
796.067	42.78
796.242	44.82
796.418	45.7
796.593	46.24
796.768	47.27
796.944	47.23
797.119	48.54
797.294	47.53
797.469	47.58
797.644	47.38
797.82	47.32
797.995	45.52
798.17	46.97
798.345	47.69
798.52	45.33
798.695	44.6
798.87	44.98
799.045	44.12
799.22	43.68
799.395	43.69
799.57	42.23
799.745	42.1
799.92	43.1
800.095	40.63
800.27	41.95
800.445	40.36
800.62	38.57
800.795	38.88
800.97	40.61
801.145	41.54
801.319	42.58
801.494	41.97
801.669	40.57
801.844	41.12
802.018	41.96
802.193	39.52
802.368	42.76
802.543	43.93
802.717	44.83
802.892	42.19
803.067	43.19
803.241	44.55
803.416	45.78
803.59	45.73
803.765	46.06
803.94	44.69
804.114	45.16
804.289	44.13
804.463	45.3
804.638	46.62
804.812	47.2
804.986	47.11
805.161	43.48
805.335	43.64
805.51	43.23
805.684	42.24
805.858	43.49
806.033	45.59
806.207	47.18
806.381	47.01
806.556	43.81
806.73	41.9
806.904	42.28
807.078	46.16
807.253	44.91
807.427	45.82
807.601	46.66
807.775	45.07
807.949	45.2
808.123	43.86
808.298	41.89
808.472	41.72
808.646	44.78
808.82	42.32
808.994	39.9
809.168	39.78
809.342	39.23
809.516	40.62
809.69	41.26
809.864	39.33
810.038	39.56
810.212	41.6
810.385	43.48
810.559	42.86
810.733	43.41
810.907	45.3
811.081	47.58
811.255	47.41
811.428	45.45
811.602	45.97
811.776	46.27
811.95	46.3
812.123	46.64
812.297	46.07
812.471	45.9
812.644	43.78
812.818	40.11
812.992	41.99
813.165	44.47
813.339	46.75
813.512	49.64
813.686	51.51
813.86	50.62
814.033	51.14
814.207	54.9
814.38	57.15
814.554	59.6
814.727	59.39
814.9	57.25
815.074	59.47
815.247	58.02
815.421	54.36
815.594	51.16
815.767	53.5
815.941	49.59
816.114	46.2
816.287	42.22
816.46	40.09
816.634	42.87
816.807	42.99
816.98	40.65
817.153	40.27
817.327	41.55
817.5	41.52
817.673	41.38
817.846	40.62
818.019	39.69
818.192	41.89
818.365	44.04
818.538	45.19
818.711	45.44
818.884	45.84
819.057	46.63
819.23	44.93
819.403	47.94
819.576	46.58
819.749	47.18
819.922	48.92
820.095	48.32
820.268	47.87
820.441	45.91
820.614	44.57
820.786	44.43
820.959	44.97
821.132	46.25
821.305	44.85
821.477	45.09
821.65	44.96
821.823	43.23
821.996	42.8
822.168	42.62
822.341	41.89
822.514	41.88
822.686	42.1
822.859	42.24
823.031	41.76
823.204	42.2
823.376	41.9
823.549	41.95
823.722	42.2
823.894	42.14
824.067	42.2
824.239	42.88
824.411	42.9
824.584	42.75
824.756	42.9
824.929	43.08
825.101	42.47
825.273	42.3
825.446	42.4
825.618	42.76
825.79	42.93
825.963	42.59
826.135	42.47
826.307	42.97
826.479	42.06
826.652	41.12
826.824	40.66
826.996	40.44
827.168	41.63
827.34	42.15
827.512	41.73
827.684	41.06
827.856	40.92
828.029	40.9
828.201	40.45
828.373	40.97
828.545	41.67
828.717	42.86
828.889	42.55
829.061	41.65
829.232	40.83
829.404	42.01
829.576	43.32
829.748	44.26
829.92	44.9
830.092	45.29
830.264	45.85
830.436	46.4
830.607	47.36
830.779	48.99
830.951	49.37
831.123	49.53
831.294	49.64
831.466	49.66
831.638	50.46
831.809	52.2
831.981	52.3
832.153	51.29
832.324	51.1
832.496	47.94
832.667	48.96
832.839	48.46
833.011	49.64
833.182	47.53
833.354	47.2
833.525	45.01
833.697	44.07
833.868	45.94
834.039	46.12
834.211	46.37
834.382	46.41
834.554	45.61
834.725	45.61
834.896	44.36
835.068	44.63
835.239	45.44
835.41	45.69
835.581	43.79
835.753	42.04
835.924	41.94
836.095	40.71
836.266	41.69
836.438	40.9
836.609	40.6
836.78	41.38
836.951	42.24
837.122	42.03
837.293	43.28
837.464	44.85
837.635	44.49
837.806	45.24
837.977	44.63
838.148	44.89
838.319	45.84
838.49	46.48
838.661	48.49
838.832	46.71
839.003	46.07
839.174	42.7
839.345	41.66
839.516	42
839.687	43.46
839.857	45.32
840.028	46.45
840.199	45.08
840.37	48.96
840.54	48.49
840.711	51.53
840.882	52.47
841.053	56.22
841.223	57.28
841.394	58.03
841.564	53.3
841.735	51.4
841.906	48.46
842.076	46.34
842.247	44.4
842.417	43.12
842.588	45.27
842.758	43.69
842.929	40.53
843.099	38.68
843.27	39.66
843.44	41.69
843.611	43.6
843.781	44.8
843.951	47.43
844.122	43.4
844.292	44.59
844.462	46.02
844.633	55.63
844.803	56.97
844.973	56.68
845.144	57.99
845.314	56.79
845.484	56.29
845.654	58.49
845.824	67.57
845.995	72.72
846.165	72.49
846.335	67.3
846.505	62.79
846.675	67.17
846.845	76.71
847.015	84.72
847.185	84.86
847.355	85.07
847.525	78.54
847.695	76.35
847.865	73.4
848.035	69.91
848.205	70.43
848.375	67.2
848.545	64.25
848.715	53.54
848.884	43.86
849.054	44.73
849.224	41.82
849.394	46.51
849.564	43.17
849.733	38.4
849.903	41.28
850.073	35.35
850.243	36.63
850.412	35.5
850.582	31.14
850.752	35.36
850.921	38.86
851.091	37.26
851.26	32.89
851.43	26.74
851.599	28.09
851.769	31.13
851.939	37.34
852.108	34.79
852.278	35.69
852.447	40.54
852.616	40.94
852.786	42.33
852.955	43.65
853.125	52.99
853.294	63.08
853.463	59.49
853.633	60.07
853.802	55.54
853.971	59.93
854.141	57.46
854.31	60.18
854.479	60.22
854.648	54.43
854.818	52.81
854.987	50.93
855.156	48.97
855.325	54.59
855.494	48.23
855.663	58.94
855.832	56.95
856.001	60.63
856.171	64.09
856.34	64.13
856.509	65.54
856.678	68.51
856.847	69.84
857.016	68.3
857.185	63.14
857.353	66.7
857.522	53.06
857.691	51.19
857.86	52.67
858.029	49.67
858.198	47.88
858.367	52.87
858.535	44.31
858.704	42.39
858.873	52.87
859.042	57.68
859.21	48.61
859.379	54
859.548	63.07
859.717	61.3
859.885	62.39
860.054	64.1
860.222	60.42
860.391	66.46
860.56	69.41
860.728	64.5
860.897	67.5
861.065	70.5
861.234	71.75
861.402	71.43
861.571	74.75
861.739	71.85
861.908	78.27
862.076	77.33
862.244	83.13
862.413	76.5
862.581	70.73
862.749	71.45
862.918	78.38
863.086	74.96
863.254	70.06
863.423	67.81
863.591	68.13
863.759	64.02
863.927	65.56
864.096	69.46
864.264	74.37
864.432	80.63
864.6	78.99
864.768	64.85
864.936	71.71
865.104	67.96
865.272	71.18
865.44	69.87
865.608	69.16
865.776	66.41
865.944	50.52
866.112	52.77
866.28	54.27
866.448	49.48
866.616	56.85
866.784	57.06
866.952	61.84
867.12	53
867.288	53.1
867.455	55.03
867.623	62.63
867.791	68.92
867.959	72.43
868.127	69.09
868.294	75.24
868.462	87.52
868.63	93.91
868.797	95.53
868.965	86.39
869.133	91.45
869.3	92.61
869.468	88.22
869.636	82.65
869.803	73.42
869.971	78.39
870.138	69.04
870.306	63.47
870.473	62.59
870.641	54.7
870.808	59.47
870.975	57.26
871.143	53.71
871.31	56.84
871.478	63.49
871.645	58.4
871.812	47.89
871.98	61.07
872.147	70.01
872.314	51.85
872.482	51.79
872.649	50.71
872.816	49.53
872.983	43.71
873.15	45.54
873.318	35.17
873.485	48.86
873.652	53.84
873.819	48.48
873.986	49.13
874.153	56.93
874.32	58.46
874.487	57.49
874.654	63.12
874.821	66.27
874.988	61.5
875.155	63.18
875.322	60.99
875.489	57.64
875.656	59.12
875.823	49.64
875.99	54.83
876.157	57.15
876.324	59.46
876.49	56.9
876.657	68.17
876.824	70.98
876.991	74.49
877.157	81.87
877.324	92.77
877.491	91.82
877.658	102.85
877.824	82.32
877.991	82.52
878.157	82.35
878.324	77.58
878.491	62.32
878.657	65.19
878.824	60.45
878.99	60.05
879.157	57.54
879.323	56.34
879.49	53.07
879.656	59
879.823	56.86
879.989	56.66
880.156	57.97
880.322	60.88
880.488	57.75
880.655	56.19
880.821	51.68
880.987	54
881.154	53.37
881.32	54.45
881.486	53.91
881.652	54.6
881.819	55.78
881.985	55.5
882.151	55.73
882.317	53.78
882.483	52.97
882.649	50.76
882.816	50.47
882.982	49.73
883.148	45.62
883.314	45.97
883.48	44.97
883.646	44.83
883.812	44.93
883.978	42.2
884.144	41.18
884.31	44.08
884.476	44.26
884.642	43.99
884.807	43.21
884.973	44.59
885.139	43.76
885.305	44.27
885.471	43.41
885.637	41.79
885.802	43.56
885.968	46.61
886.134	46.4
886.3	48.66
886.465	48.42
886.631	48.31
886.797	50.66
886.962	52.01
887.128	55.16
887.293	56.74
887.459	63.78
887.625	63.43
887.79	61.83
887.956	56.1
888.121	55.1
888.287	56.07
888.452	61.58
888.618	62.59
888.783	64.02
