Data from CB_099_Reflection_2.txt Node
Date: Sat Nov 14 17:41:39 EST 2015
User: robert
Spectrometer: USB4E03001
Autoset integration time: false
Trigger mode: 4
Integration Time (sec): 1.000000E-1
Scans to average: 15
Electric dark correction enabled: true
Nonlinearity correction enabled: false
Boxcar width: 5
Stray light correction enabled: false
XAxis mode: Wavelengths
Stop averaging: false
Number of Pixels in Spectrum: 3648
>>>>>Begin Spectral Data<<<<<
177.566	18.22
177.785	909.36
178.005	-240.41
178.225	-29.67
178.445	1053.68
178.665	-59.58
178.885	-201.03
179.105	29.82
179.324	18.94
179.544	10.47
179.764	0.32
179.984	-1.45
180.204	-32.45
180.423	-8.67
180.643	8.44
180.863	35.7
181.083	23.19
181.302	50.8
181.522	67.42
181.742	69.03
181.961	115.35
182.181	172.89
182.401	416.22
182.621	264.12
182.84	345.87
183.06	160.41
183.279	88.48
183.499	166.71
183.719	40.57
183.938	10.72
184.158	6.01
184.377	25.61
184.597	4.98
184.816	34.07
185.036	37.72
185.256	39.4
185.475	48.22
185.695	51.37
185.914	41.65
186.134	62.52
186.353	66.3
186.572	62.28
186.792	67.5
187.011	70.82
187.231	68.79
187.45	65.53
187.67	54.98
187.889	68.28
188.108	66.25
188.328	71.06
188.547	61.43
188.766	59.83
188.986	55.19
189.205	32.62
189.424	32.76
189.644	37.56
189.863	39.96
190.082	41.64
190.302	-4.7
190.521	-2.64
190.74	13.99
190.959	2.15
191.178	18.29
191.398	25.18
191.617	44.65
191.836	46.3
192.055	43.4
192.274	53.75
192.494	62.29
192.713	128.01
192.932	129.03
193.151	53.36
193.37	23.14
193.589	-10.77
193.808	22.98
194.027	-114.24
194.246	63.08
194.465	-344.12
194.685	-14.61
194.904	-5.08
195.123	10.45
195.342	3.44
195.561	62.47
195.78	75.17
195.999	89.35
196.218	67.57
196.436	72.45
196.655	67.19
196.874	73.22
197.093	75.34
197.312	71.02
197.531	84.22
197.75	87.38
197.969	85.16
198.188	83.46
198.407	67.76
198.625	78.94
198.844	88.94
199.063	70.81
199.282	86.01
199.501	79.16
199.719	84.42
199.938	70.35
200.157	67.66
200.376	47.06
200.594	65.25
200.813	84.22
201.032	69.71
201.251	67.08
201.469	70.17
201.688	69.61
201.907	64.13
202.125	60.31
202.344	58.75
202.563	52.9
202.781	59.7
203	78.4
203.218	96.04
203.437	103.03
203.656	86.45
203.874	74.78
204.093	105.2
204.311	116.55
204.53	116.62
204.748	97.21
204.967	115.33
205.185	144.89
205.404	102.02
205.622	85.02
205.841	87.21
206.059	89.81
206.278	87.34
206.496	44.32
206.715	63.82
206.933	66.73
207.151	68.36
207.37	60.97
207.588	61.67
207.806	76.5
208.025	77.61
208.243	74.69
208.461	95.76
208.68	97.46
208.898	108.69
209.116	89.56
209.335	99.49
209.553	130.03
209.771	133.86
209.989	102.94
210.208	86.79
210.426	73.17
210.644	72.54
210.862	53.78
211.081	39.19
211.299	42.34
211.517	43.73
211.735	13.08
211.953	17.5
212.171	23
212.39	38.81
212.608	45.42
212.826	43.56
213.044	67
213.262	76.62
213.48	90.44
213.698	82.06
213.916	90
214.134	85.92
214.352	80.63
214.57	81.83
214.788	103.05
215.006	101.16
215.224	115.96
215.442	91.66
215.66	89.98
215.878	96.02
216.096	116.5
216.314	107.63
216.532	146.35
216.75	171.59
216.968	128.07
217.185	106.64
217.403	115.83
217.621	113.37
217.839	98.7
218.057	137.62
218.275	111.28
218.492	116.4
218.71	170.57
218.928	154.11
219.146	198.44
219.363	172.53
219.581	154.56
219.799	180.96
220.017	150.82
220.234	151.96
220.452	125.24
220.67	141.41
220.887	186.82
221.105	129.55
221.323	446.63
221.54	-55.9
221.758	-51.07
221.976	-1.94
222.193	62.1
222.411	124.81
222.629	132.75
222.846	320.08
223.064	-251.73
223.281	399.85
223.499	237.3
223.716	324.02
223.934	-125.74
224.151	-14.37
224.369	-21.82
224.586	-0.29
224.804	12.15
225.021	-6.33
225.239	-12.88
225.456	-21.39
225.674	-24.74
225.891	-24.5
226.108	-62.03
226.326	-88.14
226.543	-50.24
226.76	-24.08
226.978	-16.83
227.195	-25.19
227.413	-19.98
227.63	1.19
227.847	0.9
228.064	8.89
228.282	5.17
228.499	10.84
228.716	11.04
228.934	7.69
229.151	3.95
229.368	5.32
229.585	5.06
229.802	7.84
230.02	7.23
230.237	9.45
230.454	8.82
230.671	10.5
230.888	7.74
231.105	2.91
231.323	3.75
231.54	-0.43
231.757	-4.4
231.974	-1.17
232.191	-1.52
232.408	-0.34
232.625	-3.8
232.842	0.05
233.059	-6.45
233.276	-11.86
233.493	-6.88
233.71	2.2
233.927	14.33
234.144	16.19
234.361	3.31
234.578	-0.49
234.795	-6
235.012	-9.87
235.229	-13.77
235.446	-13.18
235.663	-7.22
235.879	-10.25
236.096	-16.97
236.313	-23.26
236.53	-21.87
236.747	-14.46
236.964	-9.29
237.181	-9.18
237.397	-10.08
237.614	-10.75
237.831	-5.86
238.048	-6.94
238.264	-6.62
238.481	-14.54
238.698	-9.24
238.915	-8.72
239.131	-1.96
239.348	-7.95
239.565	-2.38
239.781	4.48
239.998	4.92
240.215	3.06
240.431	1.6
240.648	7.47
240.865	12.47
241.081	12.47
241.298	10.89
241.514	8.5
241.731	9.72
241.947	10.11
242.164	8.28
242.38	10.29
242.597	11.22
242.814	13.44
243.03	11.91
243.246	11.79
243.463	11.91
243.679	12.42
243.896	13.15
244.112	10.93
244.329	10.94
244.545	11.94
244.762	9.82
244.978	10.88
245.194	6.57
245.411	5.35
245.627	6.4
245.843	4.74
246.06	4.68
246.276	4.63
246.492	7.33
246.709	7.43
246.925	7.46
247.141	8.47
247.357	8.12
247.574	9.12
247.79	10.23
248.006	10.12
248.222	10.24
248.439	10.16
248.655	9.74
248.871	8.43
249.087	8.22
249.303	8.06
249.519	7.22
249.736	6.79
249.952	6.46
250.168	6.48
250.384	5.24
250.6	5.19
250.816	5.16
251.032	8.55
251.248	9.21
251.464	7.07
251.68	8.15
251.896	5.44
252.112	3.51
252.328	2.01
252.544	0.11
252.76	-1.2
252.976	-2.89
253.192	-2.75
253.408	-4.09
253.624	-3.3
253.84	-1.03
254.056	-3.04
254.272	-3.06
254.487	-3.45
254.703	-2.26
254.919	-5.18
255.135	-3.94
255.351	-3.63
255.567	-0.6
255.782	-2.68
255.998	-2.79
256.214	-6.81
256.43	-1.27
256.646	1.23
256.861	3.66
257.077	2.56
257.293	7.55
257.508	9.5
257.724	10.76
257.94	10.14
258.155	9.81
258.371	8.56
258.587	8.01
258.802	6.97
259.018	6.98
259.234	6.99
259.449	6.86
259.665	6.67
259.88	6.07
260.096	6.51
260.312	6.1
260.527	6.77
260.743	6.53
260.958	7.13
261.174	6.72
261.389	6.93
261.605	6.71
261.82	6.87
262.036	4.91
262.251	4.26
262.466	4.41
262.682	3.79
262.897	2.24
263.113	2.87
263.328	3.14
263.543	2.17
263.759	0.01
263.974	-0.17
264.189	-1.73
264.405	0.6
264.62	1.26
264.835	-0.43
265.051	1.95
265.266	2.47
265.481	3.73
265.696	3.19
265.912	4.84
266.127	5.74
266.342	6.3
266.557	7.63
266.773	7.6
266.988	6.71
267.203	6.74
267.418	5.42
267.633	6.53
267.848	5.81
268.064	5.29
268.279	4.16
268.494	3.44
268.709	2.4
268.924	3.64
269.139	2.1
269.354	3.09
269.569	3.07
269.784	2.5
269.999	0.5
270.214	1.3
270.429	1.1
270.644	1.61
270.859	2.71
271.074	2.42
271.289	1.56
271.504	3.34
271.719	3.45
271.934	2.59
272.149	4.77
272.363	6.17
272.578	6.65
272.793	7.2
273.008	6.64
273.223	6.22
273.438	6.16
273.653	6.24
273.867	5.52
274.082	4.69
274.297	6.32
274.512	4.02
274.726	2.02
274.941	1.22
275.156	0.97
275.371	2.93
275.585	3.18
275.8	4.68
276.015	3.8
276.229	4.53
276.444	6.42
276.659	5.25
276.873	7.43
277.088	9.35
277.302	8.1
277.517	8.21
277.732	6.49
277.946	6.17
278.161	4.76
278.375	5.74
278.59	7.21
278.804	6.29
279.019	6.63
279.233	5.75
279.448	3.77
279.662	4.93
279.877	6.47
280.091	7.65
280.306	7.85
280.52	8.45
280.735	8.53
280.949	7.02
281.163	6.65
281.378	6.64
281.592	7.41
281.806	9.71
282.021	9.42
282.235	8.69
282.449	7.52
282.664	8.13
282.878	7.86
283.092	8.01
283.307	8.35
283.521	8.97
283.735	9.61
283.949	8.6
284.164	7.43
284.378	8.43
284.592	8.39
284.806	8.52
285.02	7.88
285.234	7.73
285.449	8
285.663	9.02
285.877	8.32
286.091	7.42
286.305	8.08
286.519	7.8
286.733	6.62
286.947	7.05
287.161	7.97
287.375	8.68
287.589	9.26
287.803	8.67
288.017	7.52
288.231	8.09
288.445	9.85
288.659	9.04
288.873	9.36
289.087	9.7
289.301	8.63
289.515	7.52
289.729	6.3
289.943	5.96
290.157	5.05
290.371	4.81
290.584	5.03
290.798	3.25
291.012	2.62
291.226	2.34
291.44	1.77
291.654	1.81
291.867	2.16
292.081	2.7
292.295	3.48
292.509	4.38
292.722	4.01
292.936	4.32
293.15	5.6
293.364	6.64
293.577	6.88
293.791	8.19
294.005	8.74
294.218	8.74
294.432	8.05
294.645	7.91
294.859	9.35
295.073	10.67
295.286	10.18
295.5	9.75
295.713	9.96
295.927	10.02
296.14	9.6
296.354	9.88
296.568	9.83
296.781	10.47
296.994	11.03
297.208	9.45
297.421	9.35
297.635	9.28
297.848	9.42
298.062	9.45
298.275	10.13
298.489	9.8
298.702	10.27
298.915	10.32
299.129	10.24
299.342	9.67
299.555	10.16
299.769	9.79
299.982	10
300.195	9.79
300.409	9.8
300.622	9.16
300.835	9.18
301.048	8.4
301.262	9.01
301.475	8.08
301.688	8.18
301.901	7.62
302.115	7.11
302.328	7.32
302.541	7.7
302.754	7.6
302.967	8.1
303.18	8.69
303.393	9.02
303.607	8.87
303.82	10.99
304.033	11.31
304.246	11.58
304.459	12.64
304.672	12.78
304.885	12.82
305.098	13.08
305.311	13
305.524	12.82
305.737	11.25
305.95	10.89
306.163	9.03
306.376	7.51
306.589	9.26
306.802	7.23
307.015	6.14
307.228	6.35
307.44	7.09
307.653	7.77
307.866	8.84
308.079	9.59
308.292	10.07
308.505	10.88
308.718	11.9
308.93	11.87
309.143	14.16
309.356	14.09
309.569	14.69
309.781	14.88
309.994	14.32
310.207	13.78
310.42	13.5
310.632	13.56
310.845	13.76
311.058	14.12
311.27	14.59
311.483	14.55
311.696	15.33
311.908	15.22
312.121	13.86
312.333	13.97
312.546	14.15
312.759	14.93
312.971	14.63
313.184	14.69
313.396	13.81
313.609	12.08
313.821	10.94
314.034	10.36
314.246	9.96
314.459	11.11
314.671	10.36
314.884	10.13
315.096	10.2
315.309	9.68
315.521	9.36
315.733	9.77
315.946	10.1
316.158	10.06
316.371	11.6
316.583	10
316.795	9.06
317.008	8.83
317.22	9.73
317.432	9.69
317.644	9.21
317.857	11.62
318.069	12.47
318.281	12.64
318.494	12.59
318.706	10.91
318.918	12.19
319.13	13.63
319.342	14.52
319.555	14.3
319.767	13.82
319.979	15.54
320.191	13.97
320.403	12
320.615	13.29
320.827	12.91
321.039	13.2
321.252	13.87
321.464	14.82
321.676	14.26
321.888	13.73
322.1	13.21
322.312	13.25
322.524	13.25
322.736	14.85
322.948	13.5
323.16	14.6
323.372	15.17
323.584	14.09
323.796	11.88
324.007	12.17
324.219	12.85
324.431	14.06
324.643	13.14
324.855	14.1
325.067	14.32
325.279	14.59
325.491	15.06
325.702	14.55
325.914	15.06
326.126	16.4
326.338	17.61
326.55	18.73
326.761	19.11
326.973	20.28
327.185	21.04
327.396	21.29
327.608	21.67
327.82	20.99
328.032	22.07
328.243	23.36
328.455	24.26
328.666	24.86
328.878	25.39
329.09	26.56
329.301	27.95
329.513	26.43
329.725	26.71
329.936	27.37
330.148	27.85
330.359	27.44
330.571	27.04
330.782	27.39
330.994	26.19
331.205	25.4
331.417	24.36
331.628	23.94
331.84	23.75
332.051	23.5
332.262	23.65
332.474	24.71
332.685	25.3
332.897	25.04
333.108	25.17
333.319	25.75
333.531	25.54
333.742	25.87
333.953	26.58
334.165	26.94
334.376	28.26
334.587	29.1
334.799	27.99
335.01	28.13
335.221	28.32
335.432	28.56
335.644	28.59
335.855	28.34
336.066	28.52
336.277	27.31
336.488	27.08
336.7	26.54
336.911	25.44
337.122	26.22
337.333	26.48
337.544	26.76
337.755	25.34
337.966	25.32
338.177	25.89
338.388	25.9
338.599	26.03
338.811	26.79
339.022	26.59
339.233	26.85
339.444	26.19
339.655	26.37
339.866	26
340.076	26.04
340.287	25.46
340.498	25.1
340.709	25.06
340.92	25.87
341.131	25.37
341.342	25.57
341.553	25.8
341.764	26.8
341.975	26.26
342.185	26.82
342.396	26.97
342.607	27.76
342.818	28.38
343.029	27.96
343.239	27.56
343.45	28.01
343.661	27.71
343.872	27.37
344.082	27.14
344.293	27.61
344.504	27.32
344.714	28.33
344.925	27.81
345.136	27.37
345.346	27.52
345.557	27.27
345.768	27.42
345.978	27.09
346.189	27.92
346.399	27.14
346.61	26.88
346.821	26.84
347.031	26.5
347.242	26.58
347.452	26.59
347.663	25.5
347.873	25.28
348.084	25.06
348.294	25.33
348.504	24.44
348.715	25.17
348.925	25.93
349.136	26.09
349.346	25.01
349.557	25.29
349.767	24.56
349.977	26.45
350.188	26.12
350.398	25.92
350.608	25.93
350.819	26.67
351.029	26.95
351.239	25.84
351.449	25.29
351.66	25.79
351.87	25.72
352.08	26.35
352.29	25.64
352.501	25.45
352.711	26.54
352.921	27.32
353.131	26.7
353.341	26.11
353.552	26
353.762	25.85
353.972	26.37
354.182	26.32
354.392	26.56
354.602	26.99
354.812	28.24
355.022	26.91
355.232	26.62
355.442	26.68
355.652	26.61
355.862	26.77
356.072	27.59
356.282	27.14
356.492	26.93
356.702	27.14
356.912	26.39
357.122	26.54
357.332	27.67
357.542	27.6
357.752	27.46
357.962	27.5
358.171	27.5
358.381	27.15
358.591	27.28
358.801	27.71
359.011	27.16
359.221	27.52
359.43	27.14
359.64	26.2
359.85	25.63
360.06	25.46
360.269	25.49
360.479	26.07
360.689	25.89
360.899	25.8
361.108	25.47
361.318	25.47
361.528	25.02
361.737	24.95
361.947	25.13
362.156	25.36
362.366	25.16
362.576	24.88
362.785	24.3
362.995	24.7
363.204	24.27
363.414	24.27
363.623	24.14
363.833	24.3
364.042	23.74
364.252	23.5
364.461	23.65
364.671	24.06
364.88	24.1
365.09	24.18
365.299	23.53
365.509	23.94
365.718	23.74
365.927	23.8
366.137	23.73
366.346	24.41
366.555	24.6
366.765	24.07
366.974	23.48
367.183	22.92
367.393	23.1
367.602	22.91
367.811	22.86
368.021	22.33
368.23	21.65
368.439	21.25
368.648	21.01
368.857	20.08
369.067	20.39
369.276	20.27
369.485	20.34
369.694	19.69
369.903	20.2
370.112	20.02
370.321	21
370.531	21.65
370.74	21.78
370.949	21.17
371.158	21.91
371.367	21.43
371.576	21.65
371.785	21.59
371.994	21.51
372.203	21.34
372.412	21.06
372.621	20.5
372.83	20.14
373.039	20.35
373.248	20.53
373.457	19.79
373.666	20.25
373.874	19.92
374.083	20.3
374.292	19.76
374.501	19.57
374.71	19.12
374.919	19.32
375.128	19.41
375.336	19.26
375.545	19.44
375.754	19.64
375.963	19.57
376.171	19.64
376.38	19.36
376.589	19.28
376.798	18.93
377.006	19.17
377.215	18.29
377.424	17.86
377.632	17.27
377.841	17.18
378.05	16.81
378.258	16.27
378.467	15.95
378.675	16.04
378.884	16.27
379.093	16.13
379.301	16.02
379.51	16.64
379.718	16.75
379.927	17.16
380.135	17.24
380.344	17.69
380.552	17.74
380.761	17.76
380.969	17.82
381.177	18.01
381.386	17.88
381.594	18.24
381.803	17.79
382.011	17.31
382.219	17.05
382.428	16.51
382.636	16.16
382.845	15.97
383.053	16.35
383.261	16.3
383.469	16.23
383.678	15.99
383.886	15.58
384.094	15.46
384.302	15.55
384.511	15.7
384.719	15.65
384.927	15.45
385.135	15.35
385.343	15.03
385.552	14.8
385.76	14.31
385.968	14.28
386.176	14.16
386.384	14.33
386.592	14.45
386.8	14.09
387.008	14.02
387.216	14.44
387.424	14.2
387.633	14.26
387.841	14.14
388.049	14.78
388.257	14.8
388.465	14.64
388.672	14.2
388.88	13.98
389.088	13.86
389.296	13.66
389.504	13
389.712	13.32
389.92	13.33
390.128	13.28
390.336	12.42
390.544	12.48
390.751	12.41
390.959	12.34
391.167	12.38
391.375	12.47
391.583	12.3
391.79	12.33
391.998	12.29
392.206	11.88
392.414	11.47
392.621	11.6
392.829	11.54
393.037	11.65
393.244	11.79
393.452	11.65
393.66	11.54
393.867	11.71
394.075	12.01
394.283	11.65
394.49	11.58
394.698	11.34
394.905	11.28
395.113	11.06
395.32	10.9
395.528	10.61
395.735	10.53
395.943	10.34
396.15	10.07
396.358	9.58
396.565	9.88
396.773	9.97
396.98	10.28
397.188	10.56
397.395	10.76
397.602	10.76
397.81	11
398.017	10.88
398.225	11.04
398.432	10.88
398.639	11.1
398.847	10.99
399.054	10.81
399.261	10.82
399.468	10.51
399.676	10.59
399.883	10.55
400.09	10.6
400.297	10.63
400.505	10.45
400.712	10.68
400.919	10.18
401.126	9.77
401.333	9.97
401.54	10.26
401.748	10.2
401.955	9.91
402.162	9.84
402.369	9.74
402.576	9.84
402.783	9.95
402.99	9.88
403.197	10.09
403.404	10.17
403.611	9.88
403.818	9.5
404.025	9.51
404.232	9.31
404.439	9.29
404.646	9.21
404.853	9.09
405.06	8.82
405.267	8.77
405.474	8.76
405.681	8.76
405.887	8.88
406.094	8.63
406.301	8.83
406.508	9.07
406.715	8.89
406.922	8.84
407.128	8.83
407.335	8.95
407.542	8.94
407.749	8.98
407.955	8.74
408.162	9.12
408.369	9.53
408.575	9.28
408.782	9
408.989	8.9
409.195	8.87
409.402	8.66
409.609	8.59
409.815	8.55
410.022	8.55
410.228	8.78
410.435	8.6
410.642	8.52
410.848	8.4
411.055	8.71
411.261	8.86
411.468	8.76
411.674	8.97
411.881	9.13
412.087	9.15
412.294	9.14
412.5	9.12
412.706	8.78
412.913	8.74
413.119	9.08
413.326	8.97
413.532	9.21
413.738	9.21
413.945	9.27
414.151	9.26
414.357	9.27
414.564	9.24
414.77	9.2
414.976	9.42
415.182	9.27
415.389	8.85
415.595	8.87
415.801	8.74
416.007	8.64
416.214	8.43
416.42	8.34
416.626	8.31
416.832	8.28
417.038	8.29
417.244	8.16
417.45	8.26
417.657	8.18
417.863	8.17
418.069	8.1
418.275	8.03
418.481	8.07
418.687	8.11
418.893	8.18
419.099	8.26
419.305	8.35
419.511	8.27
419.717	8.2
419.923	8.25
420.129	8.26
420.335	8.09
420.541	8.29
420.746	8.26
420.952	8.22
421.158	8.23
421.364	8.06
421.57	8.07
421.776	8.17
421.982	8.09
422.187	8.05
422.393	8.04
422.599	8.2
422.805	8.11
423.01	8.31
423.216	8.26
423.422	8.21
423.628	8.36
423.833	8.24
424.039	8.21
424.245	8.28
424.45	8.42
424.656	8.24
424.862	8.17
425.067	8.2
425.273	7.97
425.478	8.05
425.684	7.96
425.889	7.76
426.095	7.78
426.301	7.62
426.506	7.52
426.712	7.37
426.917	7.62
427.123	7.57
427.328	7.61
427.533	7.65
427.739	7.53
427.944	7.72
428.15	7.75
428.355	7.48
428.561	7.59
428.766	7.7
428.971	7.68
429.177	7.56
429.382	7.71
429.587	7.58
429.793	7.54
429.998	7.54
430.203	7.22
430.408	7.39
430.614	7.39
430.819	7.36
431.024	7.42
431.229	7.35
431.434	7.31
431.64	7.24
431.845	7.11
432.05	7.18
432.255	7.15
432.46	7.22
432.665	7.1
432.87	7.24
433.076	7.14
433.281	7.1
433.486	7.23
433.691	7.15
433.896	7.17
434.101	7.03
434.306	6.87
434.511	6.93
434.716	7.06
434.921	7.1
435.126	7.11
435.331	7.23
435.535	7.34
435.74	7.38
435.945	7.57
436.15	7.62
436.355	7.85
436.56	8
436.765	8.03
436.97	7.92
437.174	8.02
437.379	8.01
437.584	7.95
437.789	7.94
437.993	7.95
438.198	7.85
438.403	7.77
438.608	7.74
438.812	7.8
439.017	7.71
439.222	7.83
439.426	7.71
439.631	7.54
439.836	7.51
440.04	7.41
440.245	7.48
440.45	7.32
440.654	7.27
440.859	7.31
441.063	7.14
441.268	7.09
441.472	6.96
441.677	7.09
441.881	7.18
442.086	7.3
442.29	7.24
442.495	7.21
442.699	7.34
442.904	7.42
443.108	7.31
443.312	7.31
443.517	7.36
443.721	7.29
443.925	7.09
444.13	7.25
444.334	7.21
444.538	7.13
444.743	7.03
444.947	7.01
445.151	7.07
445.356	7.21
445.56	7.31
445.764	7.52
445.968	7.52
446.173	7.59
446.377	7.42
446.581	7.34
446.785	7.35
446.989	7.35
447.193	7.35
447.398	7.35
447.602	7.35
447.806	7.35
448.01	7.19
448.214	7.23
448.418	6.97
448.622	6.92
448.826	6.84
449.03	7.1
449.234	7.19
449.438	7.26
449.642	7.1
449.846	6.89
450.05	6.69
450.254	6.61
450.458	6.53
450.662	6.88
450.866	6.9
451.069	7.06
451.273	6.82
451.477	6.69
451.681	6.41
451.885	6.49
452.089	6.53
452.292	6.79
452.496	6.65
452.7	6.61
452.904	6.6
453.107	6.65
453.311	6.67
453.515	6.76
453.719	6.71
453.922	6.79
454.126	6.75
454.33	6.81
454.533	6.74
454.737	6.91
454.94	7.07
455.144	6.94
455.348	6.85
455.551	6.75
455.755	6.5
455.958	6.59
456.162	6.48
456.365	6.5
456.569	6.39
456.772	6.42
456.976	6.44
457.179	6.36
457.383	6.33
457.586	6.53
457.79	6.66
457.993	6.84
458.196	6.74
458.4	6.97
458.603	6.87
458.807	7.01
459.01	6.85
459.213	6.89
459.417	7.02
459.62	6.88
459.823	6.79
460.026	6.72
460.23	6.61
460.433	6.59
460.636	6.63
460.839	6.62
461.042	6.47
461.246	6.49
461.449	6.26
461.652	6.07
461.855	6.27
462.058	6.27
462.261	6.36
462.464	6.35
462.668	6.45
462.871	6.35
463.074	6.3
463.277	6.61
463.48	6.64
463.683	6.63
463.886	6.65
464.089	6.57
464.292	6.51
464.495	6.52
464.698	6.64
464.901	6.67
465.104	6.68
465.306	6.88
465.509	6.59
465.712	6.7
465.915	6.91
466.118	6.77
466.321	6.76
466.524	6.91
466.726	6.68
466.929	6.43
467.132	6.38
467.335	6.31
467.538	6.32
467.74	6.27
467.943	6.19
468.146	6.35
468.348	6.5
468.551	6.62
468.754	6.65
468.956	6.72
469.159	6.77
469.362	6.78
469.564	6.81
469.767	6.76
469.969	6.98
470.172	7.28
470.375	7.09
470.577	7.06
470.78	6.91
470.982	6.95
471.185	6.96
471.387	7.02
471.59	7.05
471.792	7.01
471.995	6.83
472.197	6.7
472.399	6.23
472.602	6.18
472.804	6.08
473.007	6.25
473.209	6.2
473.411	6.04
473.614	6.03
473.816	5.9
474.018	5.98
474.22	6.15
474.423	6.26
474.625	6.57
474.827	6.49
475.03	6.65
475.232	6.56
475.434	6.73
475.636	6.84
475.838	6.91
476.04	6.9
476.243	6.86
476.445	6.84
476.647	6.71
476.849	6.69
477.051	6.8
477.253	6.72
477.455	6.55
477.657	6.35
477.859	6.41
478.061	6.41
478.263	6.46
478.465	6.36
478.667	6.43
478.869	6.53
479.071	6.54
479.273	6.51
479.475	6.65
479.677	6.79
479.879	6.73
480.081	6.66
480.283	6.6
480.485	6.67
480.686	6.9
480.888	6.96
481.09	6.98
481.292	6.89
481.494	6.93
481.695	6.96
481.897	6.96
482.099	7.02
482.301	7.08
482.502	7.14
482.704	7.05
482.906	6.99
483.107	6.91
483.309	6.88
483.511	6.87
483.712	6.86
483.914	6.79
484.115	6.79
484.317	6.81
484.519	6.8
484.72	6.73
484.922	6.72
485.123	6.68
485.325	6.69
485.526	6.66
485.728	6.71
485.929	6.69
486.131	6.7
486.332	6.69
486.534	6.67
486.735	6.64
486.936	6.74
487.138	6.77
487.339	6.76
487.541	6.82
487.742	6.85
487.943	6.8
488.144	6.84
488.346	6.83
488.547	6.85
488.748	6.76
488.95	6.81
489.151	6.73
489.352	6.76
489.553	6.83
489.755	6.73
489.956	6.73
490.157	6.79
490.358	6.74
490.559	6.79
490.76	6.8
490.961	6.88
491.163	6.88
491.364	6.92
491.565	6.85
491.766	6.89
491.967	6.92
492.168	6.93
492.369	6.87
492.57	6.89
492.771	6.88
492.972	6.77
493.173	6.73
493.374	6.77
493.575	6.75
493.776	6.79
493.976	6.71
494.177	6.66
494.378	6.75
494.579	6.91
494.78	6.97
494.981	6.92
495.182	7.14
495.382	7.2
495.583	6.96
495.784	6.94
495.985	6.98
496.185	6.95
496.386	6.9
496.587	6.81
496.788	6.72
496.988	6.68
497.189	6.85
497.39	6.94
497.59	7.05
497.791	7.27
497.992	7.4
498.192	7.32
498.393	7.4
498.593	7.49
498.794	7.49
498.994	7.57
499.195	7.45
499.395	7.36
499.596	7.26
499.796	7.23
499.997	7.26
500.197	7.28
500.398	7.34
500.598	7.31
500.799	7.51
500.999	7.55
501.199	7.49
501.4	7.72
501.6	7.63
501.801	7.48
502.001	7.48
502.201	7.46
502.402	7.4
502.602	7.38
502.802	7.35
503.002	7.27
503.203	7.3
503.403	7.31
503.603	7.24
503.803	7.42
504.003	7.61
504.204	7.64
504.404	7.61
504.604	7.71
504.804	7.83
505.004	7.96
505.204	7.9
505.404	8.04
505.604	8.05
505.804	8.16
506.005	8.08
506.205	8.32
506.405	8.36
506.605	8.46
506.805	8.5
507.005	8.62
507.204	8.62
507.404	8.62
507.604	8.54
507.804	8.71
508.004	8.85
508.204	8.99
508.404	8.86
508.604	8.96
508.804	9
509.003	9.12
509.203	9.2
509.403	9.47
509.603	9.55
509.803	9.69
510.002	9.71
510.202	9.71
510.402	9.7
510.602	9.71
510.801	9.79
511.001	9.73
511.201	9.75
511.4	9.7
511.6	9.48
511.8	9.55
511.999	9.55
512.199	9.5
512.398	9.54
512.598	9.7
512.797	9.91
512.997	10
513.197	10.25
513.396	10.29
513.596	10.44
513.795	10.77
513.994	10.83
514.194	10.96
514.393	11.12
514.593	11.31
514.792	11.27
514.992	11.39
515.191	11.35
515.39	11.46
515.59	11.59
515.789	11.75
515.988	11.7
516.188	11.96
516.387	12.22
516.586	12.52
516.786	12.51
516.985	12.69
517.184	12.67
517.383	12.85
517.582	12.64
517.782	12.71
517.981	12.78
518.18	12.94
518.379	12.97
518.578	12.84
518.777	12.79
518.976	12.88
519.176	12.98
519.375	13.06
519.574	13.18
519.773	13.36
519.972	13.47
520.171	13.56
520.37	13.51
520.569	13.64
520.768	13.88
520.967	13.97
521.166	14.11
521.365	14.18
521.564	14.28
521.762	14.34
521.961	14.51
522.16	14.68
522.359	14.82
522.558	15.08
522.757	15.07
522.956	15.16
523.154	15.4
523.353	15.47
523.552	15.68
523.751	15.8
523.949	15.98
524.148	16.06
524.347	16.01
524.546	16.06
524.744	16.27
524.943	16.37
525.142	16.3
525.34	16.34
525.539	16.42
525.737	16.51
525.936	16.62
526.135	16.64
526.333	16.84
526.532	16.96
526.73	17.08
526.929	17.03
527.127	17.27
527.326	17.46
527.524	17.54
527.723	17.73
527.921	17.81
528.12	17.92
528.318	17.99
528.516	18.01
528.715	18.15
528.913	18.22
529.112	18.25
529.31	18.26
529.508	18.36
529.707	18.47
529.905	18.56
530.103	18.6
530.301	18.66
530.5	18.78
530.698	18.83
530.896	18.8
531.094	18.93
531.293	18.97
531.491	19.01
531.689	19.11
531.887	19.14
532.085	19.1
532.283	19.26
532.481	19.37
532.68	19.47
532.878	19.69
533.076	19.81
533.274	19.85
533.472	20
533.67	20.15
533.868	20.15
534.066	20.23
534.264	20.23
534.462	20.23
534.66	20.25
534.858	20.26
535.056	20.23
535.253	20.28
535.451	20.39
535.649	20.57
535.847	20.56
536.045	20.68
536.243	20.76
536.441	20.93
536.638	20.98
536.836	21.09
537.034	21.16
537.232	21.15
537.43	21.2
537.627	21.16
537.825	21.13
538.023	21.16
538.22	21.21
538.418	21.23
538.616	21.35
538.813	21.44
539.011	21.47
539.209	21.49
539.406	21.7
539.604	21.9
539.801	22
539.999	22.2
540.196	22.29
540.394	22.31
540.591	22.4
540.789	22.35
540.986	22.43
541.184	22.6
541.381	22.7
541.579	22.62
541.776	22.69
541.974	22.72
542.171	22.76
542.368	22.83
542.566	22.9
542.763	22.94
542.96	23.06
543.158	23.11
543.355	23.14
543.552	23.23
543.75	23.43
543.947	23.4
544.144	23.53
544.341	23.58
544.539	23.7
544.736	23.88
544.933	24.05
545.13	24.08
545.327	24.2
545.524	24.19
545.722	24.1
545.919	24.2
546.116	24.32
546.313	24.31
546.51	24.26
546.707	24.27
546.904	24.08
547.101	23.89
547.298	23.89
547.495	23.9
547.692	23.88
547.889	23.98
548.086	23.94
548.283	23.91
548.48	23.93
548.677	23.87
548.874	23.82
549.07	23.96
549.267	24.27
549.464	24.46
549.661	24.34
549.858	24.48
550.055	24.52
550.251	24.57
550.448	24.58
550.645	24.75
550.842	24.83
551.038	24.79
551.235	24.96
551.432	24.73
551.628	24.77
551.825	24.93
552.022	24.83
552.218	24.92
552.415	24.72
552.612	24.58
552.808	24.49
553.005	24.48
553.201	24.59
553.398	24.47
553.594	24.58
553.791	24.48
553.987	24.28
554.184	24.27
554.38	24.36
554.577	24.71
554.773	25.01
554.97	24.97
555.166	25.05
555.362	25.01
555.559	25.11
555.755	25.08
555.952	25
556.148	25.11
556.344	25.29
556.541	25.21
556.737	25.01
556.933	24.92
557.129	25.05
557.326	25.18
557.522	25.23
557.718	25.31
557.914	25.32
558.11	25.57
558.307	25.67
558.503	25.55
558.699	25.76
558.895	25.65
559.091	25.7
559.287	25.75
559.483	25.73
559.679	25.68
559.876	25.77
560.072	25.82
560.268	25.59
560.464	25.83
560.66	26.03
560.856	25.92
561.052	26.31
561.247	26.39
561.443	26.38
561.639	26.4
561.835	26.6
562.031	26.63
562.227	26.56
562.423	26.8
562.619	26.75
562.815	26.81
563.01	26.88
563.206	26.8
563.402	26.55
563.598	26.43
563.793	26.6
563.989	26.44
564.185	26.18
564.381	26.25
564.576	26.25
564.772	26.14
564.968	25.91
565.163	25.77
565.359	25.66
565.555	25.94
565.75	26.11
565.946	26.1
566.141	26.15
566.337	26.38
566.532	26.52
566.728	26.56
566.923	26.52
567.119	26.72
567.314	26.74
567.51	26.83
567.705	26.69
567.901	26.67
568.096	26.73
568.292	26.83
568.487	26.7
568.682	26.71
568.878	26.68
569.073	26.8
569.268	26.53
569.464	26.62
569.659	26.67
569.854	26.78
570.05	26.85
570.245	26.9
570.44	26.92
570.635	26.93
570.831	26.98
571.026	26.79
571.221	26.89
571.416	27.05
571.611	26.92
571.806	26.73
572.002	26.87
572.197	27.02
572.392	26.95
572.587	26.8
572.782	26.86
572.977	26.87
573.172	27.17
573.367	26.95
573.562	26.92
573.757	26.89
573.952	26.93
574.147	26.78
574.342	26.7
574.537	26.67
574.732	26.84
574.927	26.91
575.121	26.84
575.316	26.75
575.511	26.98
575.706	27.14
575.901	27.37
576.096	27.59
576.29	27.59
576.485	27.53
576.68	27.44
576.875	27.48
577.069	27.4
577.264	27.63
577.459	27.61
577.654	27.67
577.848	27.61
578.043	27.72
578.238	27.89
578.432	27.93
578.627	28.05
578.821	28.21
579.016	28.08
579.21	28.04
579.405	27.78
579.6	27.78
579.794	27.41
579.989	27.51
580.183	27.4
580.378	27.14
580.572	27.33
580.766	27.27
580.961	27.2
581.155	27.31
581.35	27.58
581.544	27.65
581.738	27.72
581.933	27.95
582.127	27.96
582.321	28.04
582.516	27.86
582.71	27.85
582.904	27.82
583.099	27.87
583.293	28.04
583.487	27.99
583.681	28.02
583.875	28.04
584.07	28.01
584.264	28.09
584.458	28.02
584.652	28.19
584.846	27.93
585.04	27.84
585.234	27.96
585.428	27.76
585.623	27.91
585.817	27.84
586.011	27.82
586.205	27.94
586.399	27.79
586.593	27.76
586.787	28.15
586.981	28.58
587.174	28.68
587.368	28.61
587.562	28.64
587.756	28.36
587.95	28.6
588.144	28.7
588.338	28.74
588.532	28.77
588.725	29.03
588.919	28.91
589.113	28.62
589.307	28.68
589.501	28.79
589.694	28.96
589.888	29.11
590.082	28.95
590.275	28.82
590.469	28.76
590.663	28.65
590.856	28.55
591.05	28.42
591.244	28.56
591.437	28.68
591.631	28.53
591.824	28.55
592.018	28.48
592.212	28.66
592.405	28.73
592.599	28.64
592.792	28.61
592.986	28.48
593.179	28.74
593.372	28.65
593.566	28.72
593.759	28.85
593.953	28.77
594.146	28.76
594.339	28.77
594.533	28.76
594.726	29.04
594.92	29.04
595.113	29.2
595.306	29.03
595.499	29.11
595.693	28.88
595.886	28.87
596.079	28.84
596.272	28.89
596.466	28.68
596.659	28.59
596.852	28.52
597.045	28.67
597.238	28.68
597.431	28.8
597.624	28.76
597.818	28.95
598.011	28.83
598.204	28.9
598.397	28.93
598.59	29.07
598.783	29.32
598.976	29.34
599.169	29.49
599.362	29.35
599.555	29.03
599.748	29.17
599.941	28.82
600.134	29.1
600.326	29.15
600.519	29.13
600.712	29.1
600.905	28.98
601.098	28.82
601.291	28.73
601.483	28.85
601.676	28.87
601.869	28.96
602.062	29.39
602.255	29.23
602.447	28.96
602.64	29.04
602.833	29.15
603.025	29.12
603.218	29.11
603.411	28.99
603.603	28.89
603.796	28.98
603.989	28.97
604.181	28.89
604.374	29
604.566	29.09
604.759	28.8
604.951	28.86
605.144	28.97
605.336	29.16
605.529	29.23
605.721	29.33
605.914	29.32
606.106	29.12
606.299	28.87
606.491	28.8
606.683	28.93
606.876	29.12
607.068	29.1
607.26	29.07
607.453	29.05
607.645	28.99
607.837	28.92
608.03	29.27
608.222	29.46
608.414	29.76
608.606	29.85
608.799	29.74
608.991	30.11
609.183	30.24
609.375	30.54
609.567	30.76
609.759	30.95
609.952	31.4
610.144	31.71
610.336	31.99
610.528	32.12
610.72	32.47
610.912	32.94
611.104	33.19
611.296	33.27
611.488	33.44
611.68	33.42
611.872	33.57
612.064	33.41
612.256	32.99
612.448	32.77
612.64	32.75
612.832	32.52
613.023	32.43
613.215	32.06
613.407	32.19
613.599	31.88
613.791	31.71
613.983	31.38
614.174	31.37
614.366	31.39
614.558	31.47
614.75	31.43
614.941	31.17
615.133	30.88
615.325	30.89
615.516	30.85
615.708	30.67
615.9	30.57
616.091	30.7
616.283	30.56
616.475	30.62
616.666	30.29
616.858	30.21
617.049	30
617.241	29.9
617.432	29.66
617.624	29.18
617.815	28.97
618.007	28.97
618.198	29
618.39	28.77
618.581	28.44
618.773	28.72
618.964	28.8
619.155	29.29
619.347	29.18
619.538	29.2
619.729	29.6
619.921	29.97
620.112	29.9
620.303	29.95
620.494	29.87
620.686	30.04
620.877	29.92
621.068	29.8
621.259	29.6
621.451	30.06
621.642	29.99
621.833	29.88
622.024	29.48
622.215	29.66
622.406	29.46
622.597	29.69
622.788	29.58
622.98	29.67
623.171	29.93
623.362	29.67
623.553	29.4
623.744	29.36
623.935	29.25
624.126	29.42
624.317	29.36
624.508	29.61
624.698	29.77
624.889	29.5
625.08	29.51
625.271	29.52
625.462	29.56
625.653	29.86
625.844	29.98
626.034	30.05
626.225	30.23
626.416	30.15
626.607	30.09
626.798	29.83
626.988	30.47
627.179	30.3
627.37	30.33
627.56	30.48
627.751	30.27
627.942	30.66
628.132	30.52
628.323	30.25
628.514	30.5
628.704	30.59
628.895	30.65
629.085	30.37
629.276	30.51
629.466	30.37
629.657	30.18
629.847	30.03
630.038	29.39
630.228	29.68
630.419	30.14
630.609	30.25
630.8	30.09
630.99	30.16
631.181	30.14
631.371	30.02
631.561	30.04
631.752	30.31
631.942	30.63
632.132	31.17
632.323	30.81
632.513	30.79
632.703	30.5
632.893	30.82
633.084	30.77
633.274	30.39
633.464	30.53
633.654	30.66
633.844	30.56
634.034	30.38
634.225	30.15
634.415	30.36
634.605	29.98
634.795	29.8
634.985	29.5
635.175	29.84
635.365	30.15
635.555	30.18
635.745	29.75
635.935	29.85
636.125	29.85
636.315	29.77
636.505	29.48
636.695	29.45
636.885	29.8
637.075	29.82
637.265	29.65
637.455	29.86
637.644	30.02
637.834	30.13
638.024	30.08
638.214	30.38
638.404	30.07
638.593	30.36
638.783	30.42
638.973	30.34
639.163	30.16
639.352	30.03
639.542	29.64
639.732	29.19
639.921	29.05
640.111	28.82
640.301	28.43
640.49	28.85
640.68	28.8
640.87	28.99
641.059	28.89
641.249	29.28
641.438	29.18
641.628	29.32
641.817	29.71
642.007	30.16
642.196	30.35
642.386	30.81
642.575	30.49
642.764	30.55
642.954	30.68
643.143	30.9
643.333	31.15
643.522	31.04
643.711	31.24
643.901	31.34
644.09	31.11
644.279	31.1
644.469	31.06
644.658	31.21
644.847	31.08
645.036	30.81
645.226	30.44
645.415	30.01
645.604	30.19
645.793	30.21
645.982	30.04
646.171	30.23
646.361	30.19
646.55	29.39
646.739	29.67
646.928	29.72
647.117	29.91
647.306	30.08
647.495	30.14
647.684	30.18
647.873	30.15
648.062	30.1
648.251	29.86
648.44	29.92
648.629	30.68
648.818	30.76
649.007	30.72
649.196	30.48
649.384	30.3
649.573	30.47
649.762	30.79
649.951	30.47
650.14	30.54
650.328	30.56
650.517	30.25
650.706	30.04
650.895	29.89
651.083	30.48
651.272	30.41
651.461	30.68
651.65	30.35
651.838	30.13
652.027	30.58
652.216	30.52
652.404	30.88
652.593	31.22
652.781	31.18
652.97	31.12
653.158	30.64
653.347	30.54
653.535	30.46
653.724	30.63
653.912	30.51
654.101	30.58
654.289	30.22
654.478	29.95
654.666	30.02
654.855	30.32
655.043	30.1
655.231	29.85
655.42	30.4
655.608	30.6
655.796	30.84
655.985	31.11
656.173	30.74
656.361	31.07
656.55	31.24
656.738	31.09
656.926	30.98
657.114	31.07
657.302	31.18
657.491	30.73
657.679	30.42
657.867	30.22
658.055	30.3
658.243	29.97
658.431	29.76
658.619	29.69
658.807	29.86
658.996	29.56
659.184	29.75
659.372	29.93
659.56	29.88
659.748	30.09
659.936	30.21
660.124	29.91
660.311	30.19
660.499	30.6
660.687	30.54
660.875	30.4
661.063	30.48
661.251	30.49
661.439	30.13
661.627	30.59
661.814	30.6
662.002	30.63
662.19	30.85
662.378	31.3
662.565	31.29
662.753	31.51
662.941	31.97
663.129	32.02
663.316	32.1
663.504	32.35
663.692	32.31
663.879	32.25
664.067	31.78
664.254	31.72
664.442	31.37
664.63	31.09
664.817	30.81
665.005	30.38
665.192	30.3
665.38	30.21
665.567	30.16
665.755	30.07
665.942	29.93
666.13	29.94
666.317	29.79
666.504	29.3
666.692	29.51
666.879	29.87
667.067	30.03
667.254	30.52
667.441	30.6
667.629	31.17
667.816	31.56
668.003	31.4
668.19	31.61
668.378	32.03
668.565	32.9
668.752	32.73
668.939	32.55
669.127	32.77
669.314	32.32
669.501	32.64
669.688	32.09
669.875	31.87
670.062	31.88
670.249	32.09
670.436	31.54
670.623	31.45
670.81	31.43
670.997	31.47
671.184	31.11
671.371	31.21
671.558	30.73
671.745	30.83
671.932	30.72
672.119	30.73
672.306	30.56
672.493	30.83
672.68	30.8
672.867	30.97
673.054	30.69
673.24	31.21
673.427	30.89
673.614	31.42
673.801	31.41
673.988	31.15
674.174	31.53
674.361	31.39
674.548	31.26
674.734	31.16
674.921	30.82
675.108	30.82
675.294	30.7
675.481	31.08
675.668	30.54
675.854	30.93
676.041	30.86
676.227	30.72
676.414	30.8
676.601	30.95
676.787	30.87
676.974	30.61
677.16	30.72
677.347	30.59
677.533	30.86
677.719	31.11
677.906	30.62
678.092	31.25
678.279	31.67
678.465	31.52
678.651	31.28
678.838	31.55
679.024	31.93
679.21	31.95
679.397	32.12
679.583	31.55
679.769	31.34
679.955	31.54
680.142	31.41
680.328	30.98
680.514	31.14
680.7	31.15
680.886	30.91
681.073	30.96
681.259	30.85
681.445	30.02
681.631	30.22
681.817	29.87
682.003	29.51
682.189	29.22
682.375	29.01
682.561	28.93
682.747	29.11
682.933	28.79
683.119	28.79
683.305	28.6
683.491	29.26
683.677	29.78
683.863	30.52
684.049	30.64
684.235	30.68
684.42	31.17
684.606	31.39
684.792	31.4
684.978	31.39
685.164	31.24
685.349	31.41
685.535	31.3
685.721	31.08
685.907	30.6
686.092	31.03
686.278	31.23
686.464	31.09
686.649	30.33
686.835	30.89
687.021	31.47
687.206	31.61
687.392	31.83
687.577	31.98
687.763	31.78
687.948	31.85
688.134	31.79
688.319	31.67
688.505	31.87
688.69	32.44
688.876	31.9
689.061	31.83
689.247	32.06
689.432	32.23
689.618	32.03
689.803	32.07
689.988	32.3
690.174	32.18
690.359	32.12
690.544	31.87
690.73	31.93
690.915	31.83
691.1	31.96
691.285	31.49
691.471	31.38
691.656	31.98
691.841	32.26
692.026	31.61
692.211	31.8
692.396	31.66
692.582	31.83
692.767	31.19
692.952	31.4
693.137	30.59
693.322	30.72
693.507	30.47
693.692	29.65
693.877	29.6
694.062	30
694.247	30.15
694.432	30.63
694.617	29.94
694.802	30.44
694.987	30.52
695.172	31.23
695.357	31.51
695.541	32.14
695.726	32.46
695.911	33.07
696.096	33.51
696.281	33.44
696.466	33.05
696.65	33.67
696.835	33.61
697.02	33.19
697.204	32.85
697.389	32.64
697.574	32.42
697.759	32.44
697.943	31.72
698.128	31.68
698.312	31.48
698.497	31.6
698.682	31.75
698.866	32.1
699.051	32.22
699.235	32.19
699.42	32.22
699.604	31.78
699.789	31.55
699.973	31.7
700.158	31.58
700.342	31.81
700.527	32.21
700.711	31.94
700.895	31.33
701.08	31
701.264	31.01
701.448	30.95
701.633	31.35
701.817	30.98
702.001	30.69
702.186	30.6
702.37	30.45
702.554	29.26
702.738	29.51
702.923	30.08
703.107	30.38
703.291	30.08
703.475	29.84
703.659	29.33
703.843	30.33
704.027	30.95
704.212	31.1
704.396	30.54
704.58	31
704.764	30.43
704.948	30.23
705.132	30.54
705.316	31.29
705.5	32.34
705.684	33.14
705.868	33
706.052	32.72
706.235	32.45
706.419	33.07
706.603	33.45
706.787	33.75
706.971	33.8
707.155	33.44
707.339	32.89
707.522	32.58
707.706	32.69
707.89	32.64
708.074	32.63
708.257	33.32
708.441	33
708.625	31.98
708.808	31.95
708.992	31.82
709.176	32.28
709.359	31.96
709.543	31.91
709.727	31.76
709.91	31.66
710.094	31.06
710.277	31.6
710.461	31.97
710.644	32.69
710.828	32.72
711.011	33.44
711.195	32.87
711.378	33.34
711.562	32.39
711.745	32.92
711.928	32.98
712.112	33.17
712.295	32.06
712.478	32.35
712.662	32.29
712.845	32.62
713.028	32.53
713.212	33.09
713.395	32.53
713.578	32.71
713.761	31.91
713.945	32.13
714.128	32.09
714.311	32.14
714.494	31.9
714.677	31.41
714.86	31.89
715.043	31.35
715.227	31.46
715.41	32.2
715.593	32.71
715.776	32.71
715.959	33.24
716.142	33.49
716.325	33.75
716.508	33.12
716.691	33.26
716.874	32.48
717.057	32.19
717.239	31.66
717.422	31.22
717.605	30.94
717.788	30.77
717.971	29.84
718.154	29.39
718.337	28.68
718.519	29.04
718.702	29.59
718.885	29.74
719.068	30.2
719.25	30.65
719.433	30.75
719.616	30.61
719.798	30.63
719.981	30.63
720.164	30.88
720.346	31.36
720.529	30.78
720.712	30.8
720.894	31.02
721.077	31.05
721.259	30.88
721.442	29.96
721.624	29.72
721.807	29.5
721.989	29.54
722.172	29.61
722.354	29.39
722.537	30.5
722.719	30.74
722.901	31.26
723.084	31.16
723.266	31.2
723.448	31.84
723.631	32.44
723.813	33.04
723.995	31.92
724.178	31.92
724.36	32.94
724.542	32.43
724.724	32.28
724.907	31.2
725.089	31.44
725.271	31.46
725.453	32.54
725.635	32.19
725.817	32.76
725.999	33.52
726.181	33.93
726.364	33.43
726.546	33.07
726.728	32.83
726.91	32.3
727.092	32.73
727.274	33.07
727.456	33.5
727.638	34.56
727.819	33.8
728.001	34.23
728.183	33.75
728.365	34.04
728.547	34.57
728.729	34.29
728.911	35.17
729.093	34.34
729.274	33.78
729.456	32.24
729.638	32.26
729.82	32.29
730.001	32.01
730.183	32.6
730.365	32.56
730.546	32.34
730.728	32.4
730.91	32.06
731.091	30.89
731.273	30.91
731.455	32.01
731.636	31
731.818	31.47
731.999	31.26
732.181	31.23
732.362	30.65
732.544	29.41
732.725	29.37
732.907	29.96
733.088	31.14
733.27	30.92
733.451	29.8
733.633	29.97
733.814	29.1
733.995	28.99
734.177	28.3
734.358	28.92
734.539	29.66
734.721	29.59
734.902	28.68
735.083	28.7
735.264	28.94
735.446	30.85
735.627	31.53
735.808	31.85
735.989	31.34
736.17	31.84
736.351	31.48
736.533	32.25
736.714	31.94
736.895	31.86
737.076	32.36
737.257	31.92
737.438	30.97
737.619	29.84
737.8	30.85
737.981	32.11
738.162	31.91
738.343	31.46
738.524	31.73
738.705	31.69
738.886	31.06
739.067	31.03
739.247	31.67
739.428	30.74
739.609	32.13
739.79	31.7
739.971	32.12
740.151	32.37
740.332	32.39
740.513	32.22
740.694	33.12
740.874	33.99
741.055	32.69
741.236	33.34
741.417	33.86
741.597	32.93
741.778	31.94
741.958	30.42
742.139	29.78
742.32	30.16
742.5	30.88
742.681	30.33
742.861	30.24
743.042	30.7
743.222	30.41
743.403	30.14
743.583	30.62
743.764	31.26
743.944	32.04
744.124	32.77
744.305	33.42
744.485	32
744.666	31.93
744.846	32.21
745.026	32.24
745.207	30.95
745.387	31.74
745.567	31.09
745.747	30.65
745.928	31.46
746.108	30.81
746.288	30.28
746.468	31.1
746.648	31.56
746.829	31.08
747.009	31
747.189	31.48
747.369	29.82
747.549	31.06
747.729	30.85
747.909	30.1
748.089	29.34
748.269	28.49
748.449	27.96
748.629	27.87
748.809	27.91
748.989	28.73
749.169	30.52
749.349	31.12
749.529	29.8
749.709	29.69
749.889	29.88
750.068	31.67
750.248	32.17
750.428	32.69
750.608	33.57
750.788	34.11
750.967	33.29
751.147	32.02
751.327	33.68
751.507	33.68
751.686	34.12
751.866	33.99
752.046	32.49
752.225	32.94
752.405	32.32
752.585	32.46
752.764	32.8
752.944	32.83
753.123	33.52
753.303	31.37
753.482	31.83
753.662	31.87
753.841	31.63
754.021	31.57
754.2	31.24
754.38	32.06
754.559	31.54
754.739	31.16
754.918	32.29
755.097	30.9
755.277	32.29
755.456	32.2
755.635	32.19
755.815	31.75
755.994	32.72
756.173	32.53
756.352	32.27
756.532	31.52
756.711	31.82
756.89	31.86
757.069	32.16
757.248	31.25
757.427	31.22
757.607	31.56
757.786	32.8
757.965	32.31
758.144	33.02
758.323	33
758.502	35.42
758.681	34.9
758.86	34.55
759.039	35.43
759.218	35.35
759.397	35.45
759.576	34.83
759.755	33.09
759.934	33.89
760.113	33.65
760.291	33.4
760.47	32.24
760.649	31.54
760.828	31.28
761.007	30.48
761.186	31.64
761.364	31.38
761.543	33.04
761.722	34.41
761.901	33.72
762.079	34.14
762.258	34.53
762.437	34.41
762.615	35.21
762.794	35.56
762.972	35.08
763.151	34.27
763.33	34.02
763.508	32.97
763.687	32.87
763.865	32.51
764.044	31.51
764.222	30.95
764.401	29.99
764.579	30.39
764.758	29.88
764.936	30.63
765.114	31.41
765.293	32.13
765.471	33.19
765.65	33.11
765.828	33.85
766.006	34.59
766.184	35.49
766.363	36.14
766.541	35.52
766.719	36.52
766.898	36.27
767.076	34.22
767.254	33.67
767.432	33.2
767.61	33.24
767.788	32
767.967	32.24
768.145	30.83
768.323	30.05
768.501	30.27
768.679	29.69
768.857	29.46
769.035	30.67
769.213	31.63
769.391	29.69
769.569	29.26
769.747	30.24
769.925	28.73
770.103	28.91
770.281	28.61
770.459	27.25
770.636	28.57
770.814	30.22
770.992	32.41
771.17	30.49
771.348	30.92
771.525	31.73
771.703	32.13
771.881	33.33
772.059	33.97
772.236	35.64
772.414	35.78
772.592	35.27
772.769	32.62
772.947	30.72
773.125	33.02
773.302	34.45
773.48	34.78
773.657	36.32
773.835	37.54
774.013	37.17
774.19	35.63
774.368	36.93
774.545	35.41
774.723	34.06
774.9	35.57
775.077	35.37
775.255	35.74
775.432	34.21
775.61	34.88
775.787	33.56
775.964	32.77
776.142	32.51
776.319	32.62
776.496	31.36
776.674	35.04
776.851	34.67
777.028	32.25
777.205	30.5
777.382	29.85
777.56	27.63
777.737	26.77
777.914	25.44
778.091	25.26
778.268	23.97
778.445	24.84
778.622	24.12
778.8	23.61
778.977	25.49
779.154	22.44
779.331	23.65
779.508	23.97
779.685	24.29
779.862	27.25
780.038	28.96
780.215	29.27
780.392	29.09
780.569	27.19
780.746	27.54
780.923	26.72
781.1	28.95
781.277	30.63
781.453	31.7
781.63	33.4
781.807	32.5
781.984	32.78
782.16	33.81
782.337	34.68
782.514	35.56
782.691	35.05
782.867	35.62
783.044	37.49
783.221	36.89
783.397	35.91
783.574	33.68
783.75	33.46
783.927	34.94
784.103	34.59
784.28	33.86
784.456	34.85
784.633	33.82
784.809	33.06
784.986	33.52
785.162	30.86
785.339	31.32
785.515	31.59
785.692	34.4
785.868	32.39
786.044	31.58
786.221	30.08
786.397	27.78
786.573	29
786.749	29.05
786.926	30.35
787.102	29.4
787.278	30.39
787.454	31.11
787.631	27.52
787.807	28.23
787.983	28.43
788.159	28.47
788.335	27.43
788.511	27.56
788.687	25.73
788.863	25.86
789.039	30.1
789.216	25.44
789.392	25.31
789.568	24.44
789.744	25.03
789.919	25.75
790.095	27.49
790.271	30.41
790.447	32.28
790.623	34.88
790.799	33.37
790.975	29.39
791.151	33.79
791.327	35.34
791.502	37.42
791.678	37.43
791.854	35.93
792.03	35.34
792.205	35.99
792.381	34.14
792.557	34.44
792.733	34.32
792.908	38.22
793.084	35.91
793.259	34.64
793.435	33.87
793.611	34.69
793.786	34.47
793.962	36.79
794.137	36.13
794.313	35.34
794.488	34.79
794.664	36.63
794.839	34.11
795.015	35
795.19	33.9
795.366	34.71
795.541	32.11
795.716	33.4
795.892	29.11
796.067	28.82
796.242	31.63
796.418	30.36
796.593	28.88
796.768	29.88
796.944	28.17
797.119	29.75
797.294	29.99
797.469	32.73
797.644	30.66
797.82	33.12
797.995	32.18
798.17	31.03
798.345	30.37
798.52	28.35
798.695	28.99
798.87	30.25
799.045	29.71
799.22	28.8
799.395	29.97
799.57	33.13
799.745	31.39
799.92	31.1
800.095	30.45
800.27	31.66
800.445	31.43
800.62	26.56
800.795	28.11
800.97	28.96
801.145	29.99
801.319	26.02
801.494	23.02
801.669	22.21
801.844	25.75
802.018	25.66
802.193	27.66
802.368	29.68
802.543	32.19
802.717	32.51
802.892	33.79
803.067	31.76
803.241	34.41
803.416	38.98
803.59	41.2
803.765	40.95
803.94	39.62
804.114	36.89
804.289	34.42
804.463	35.98
804.638	33.34
804.812	29.68
804.986	32.3
805.161	30.56
805.335	28.84
805.51	27.79
805.684	26.58
805.858	27.17
806.033	27.66
806.207	26.39
806.381	25.38
806.556	28.27
806.73	31.92
806.904	31.57
807.078	31.1
807.253	31.84
807.427	32.31
807.601	33.68
807.775	33.25
807.949	33.54
808.123	37.56
808.298	37.2
808.472	36.79
808.646	33.04
808.82	32.81
808.994	29.63
809.168	26.36
809.342	26.37
809.516	26.71
809.69	27.44
809.864	25.62
810.038	26.7
810.212	24.74
810.385	24.82
810.559	30.95
810.733	29.05
810.907	31.42
811.081	32.77
811.255	30.13
811.428	29.01
811.602	28.6
811.776	32.66
811.95	32.49
812.123	35
812.297	33.86
812.471	30.78
812.644	30.33
812.818	29.23
812.992	26.98
813.165	28.75
813.339	29.63
813.512	27.67
813.686	28.36
813.86	29.25
814.033	27.06
814.207	27.84
814.38	25.67
814.554	28.52
814.727	31.92
814.9	33.94
815.074	37.98
815.247	34.77
815.421	35.81
815.594	32.29
815.767	28.13
815.941	29.36
816.114	24.47
816.287	24.54
816.46	24.54
816.634	22.02
816.807	20.5
816.98	18.01
817.153	18.33
817.327	19.06
817.5	22.2
817.673	20.71
817.846	19.96
818.019	26.65
818.192	27.27
818.365	29.28
818.538	34.53
818.711	34.33
818.884	31.23
819.057	29.49
819.23	28.46
819.403	24.11
819.576	27.4
819.749	28.26
819.922	27.4
820.095	27.73
820.268	26.05
820.441	25.19
820.614	26.02
820.786	26.46
820.959	28.76
821.132	29.13
821.305	31.38
821.477	31.62
821.65	31.4
821.823	30.84
821.996	31.79
822.168	31.34
822.341	31.29
822.514	31.62
822.686	32.21
822.859	32.54
823.031	32.66
823.204	31.92
823.376	32.1
823.549	32.7
823.722	33.07
823.894	32.72
824.067	33.41
824.239	32.88
824.411	32.93
824.584	33.13
824.756	32.19
824.929	32.95
825.101	33.03
825.273	32.33
825.446	32.1
825.618	32.08
825.79	31.93
825.963	31.27
826.135	31.21
826.307	30.99
826.479	30.7
826.652	31.38
826.824	30.65
826.996	31.12
827.168	31.6
827.34	30.87
827.512	31.18
827.684	31.48
827.856	32.08
828.029	32.65
828.201	33.27
828.373	33.2
828.545	32.6
828.717	32.68
828.889	32.53
829.061	33.01
829.232	34.08
829.404	32.7
829.576	33.1
829.748	32
829.92	32.07
830.092	31.41
830.264	29.4
830.436	29.65
830.607	28.94
830.779	28.27
830.951	28.41
831.123	26.36
831.294	28.33
831.466	26.83
831.638	27.21
831.809	26.98
831.981	27.57
832.153	30.24
832.324	31.92
832.496	29.8
832.667	30.3
832.839	27.33
833.011	28.83
833.182	26.48
833.354	25.35
833.525	29.34
833.697	30.57
833.868	28.35
834.039	30.46
834.211	30.31
834.382	31.51
834.554	32.47
834.725	34.14
834.896	32.62
835.068	33.72
835.239	35.32
835.41	33.93
835.581	33.43
835.753	34.46
835.924	33.03
836.095	32.58
836.266	31.67
836.438	31.01
836.609	29.16
836.78	30.81
836.951	29.33
837.122	27.32
837.293	23.75
837.464	23.73
837.635	22.2
837.806	21.63
837.977	18.52
838.148	17.76
838.319	17.32
838.49	18.14
838.661	17.05
838.832	19.09
839.003	20.24
839.174	18.75
839.345	13.76
839.516	7.49
839.687	4.13
839.857	17.57
840.028	16.07
840.199	17.04
840.37	16.37
840.54	23.17
840.711	20.93
840.882	18.86
841.053	21.7
841.223	24.58
841.394	32.26
841.564	34.37
841.735	27.39
841.906	29.92
842.076	23.95
842.247	33.81
842.417	22.95
842.588	19.27
842.758	19.21
842.929	21.1
843.099	18.22
843.27	19.31
843.44	18.67
843.611	19.58
843.781	17.39
843.951	22.97
844.122	11.97
844.292	13.3
844.462	15.83
844.633	19.46
844.803	28.01
844.973	34.94
845.144	32.64
845.314	31.34
845.484	45.76
845.654	57.37
845.824	70.87
845.995	74.85
846.165	71.4
846.335	69.16
846.505	63.08
846.675	51.88
846.845	55.56
847.015	48.22
847.185	46.18
847.355	14.98
847.525	10.44
847.695	1.13
847.865	-6.43
848.035	-6.48
848.205	-11.4
848.375	19.12
848.545	3.99
848.715	0.33
848.884	6.15
849.054	-24.63
849.224	2.43
849.394	21.71
849.564	23.39
849.733	44.46
849.903	31.81
850.073	40.84
850.243	20.88
850.412	48.56
850.582	23.32
850.752	-3.04
850.921	27.51
851.091	25.43
851.26	14.12
851.43	-5.35
851.599	-21.85
851.769	-14.29
851.939	-24.82
852.108	-69.83
852.278	-111.06
852.447	-82.97
852.616	-24.39
852.786	-24.9
852.955	-42.85
853.125	-68.65
853.294	-55.53
853.463	-54.58
853.633	-72.49
853.802	-80.01
853.971	-39.6
854.141	-27.64
854.31	-48.56
854.479	-108.9
854.648	-142.41
854.818	-124.87
854.987	-93.98
855.156	-110.81
855.325	-87.93
855.494	-92.1
855.663	-87.52
855.832	-107.14
856.001	-110.76
856.171	-63.39
856.34	-35.02
856.509	5.96
856.678	9.5
856.847	56.94
857.016	67.43
857.185	64.96
857.353	57.59
857.522	76.32
857.691	57.09
857.86	61.39
858.029	64.69
858.198	54.13
858.367	43.65
858.535	36.26
858.704	8.45
858.873	21.16
859.042	26.55
859.21	30.85
859.379	20.52
859.548	20.96
859.717	11.36
859.885	13.46
860.054	18.76
860.222	-11.64
860.391	-2.71
860.56	21.39
860.728	18.04
860.897	17.55
861.065	20.32
861.234	20.19
861.402	24.73
861.571	24.48
861.739	20.8
861.908	21.85
862.076	33.77
862.244	42.79
862.413	21.78
862.581	9.7
862.749	-11.06
862.918	-26.84
863.086	-61.11
863.254	-74.16
863.423	-59.36
863.591	10.68
863.759	35.02
863.927	97.87
864.096	62.37
864.264	-6.04
864.432	-146.77
864.6	387.06
864.768	203.94
864.936	117.54
865.104	71.86
865.272	54.31
865.44	3.22
865.608	7.92
865.776	-33.04
865.944	-37.43
866.112	-5.49
866.28	-4.1
866.448	-20.8
866.616	-21.57
866.784	-4.61
866.952	-9.52
867.12	1.62
867.288	39.25
867.455	26.82
867.623	24.02
867.791	24.04
867.959	29.93
868.127	43.13
868.294	60.33
868.462	36
868.63	28.46
868.797	44.19
868.965	10.25
869.133	-28.14
869.3	-39.72
869.468	6.93
869.636	10.92
869.803	-14.12
869.971	13.63
870.138	25.97
870.306	42.8
870.473	45.21
870.641	30.02
870.808	36.76
870.975	29.87
871.143	49.93
871.31	80.99
871.478	119.75
871.645	90.91
871.812	54.21
871.98	50.74
872.147	83.24
872.314	74.15
872.482	78
872.649	54.18
872.816	45.36
872.983	-23.42
873.15	4.24
873.318	-12.97
873.485	-56.73
873.652	-50.6
873.819	-17.95
873.986	-20.5
874.153	-3.61
874.32	21.07
874.487	20.76
874.654	9.1
874.821	23.54
874.988	26.46
875.155	45.65
875.322	37.39
875.489	28.68
875.656	13.57
875.823	11.94
875.99	1.42
876.157	1.86
876.324	6.2
876.49	26.81
876.657	22.31
876.824	16.57
876.991	-1.01
877.157	12.94
877.324	37.11
877.491	60.04
877.658	69.72
877.824	62.97
877.991	63.67
878.157	57.58
878.324	60.8
878.491	72.01
878.657	61.41
878.824	57.94
878.99	73.09
879.157	73.35
879.323	69.64
879.49	71.18
879.656	72.7
879.823	54.32
879.989	61.63
880.156	49.8
880.322	33.22
880.488	50.66
880.655	59.64
880.821	50.21
880.987	46.32
881.154	43.74
881.32	27.67
881.486	29.69
881.652	35.88
881.819	31.47
881.985	28.62
882.151	22.45
882.317	17.81
882.483	17.05
882.649	19.94
882.816	19.19
882.982	18.9
883.148	21.72
883.314	21.8
883.48	21.27
883.646	21.96
883.812	23.71
883.978	27.04
884.144	27.76
884.31	28.44
884.476	28.5
884.642	29.31
884.807	29.15
884.973	29.32
885.139	29.56
885.305	29.4
885.471	29.8
885.637	27.41
885.802	27.64
885.968	27.44
886.134	28.69
886.3	26.91
886.465	28.32
886.631	28.13
886.797	27.83
886.962	30.51
887.128	31.04
887.293	28.76
887.459	31.88
887.625	27.93
887.79	29.57
887.956	30.52
888.121	33.99
888.287	31.51
888.452	36.22
888.618	34.42
888.783	15.91
