Data from CB_040_Reflection_21-50-17-873.txt Node
Date: Wed Nov 11 21:50:17 EST 2015
User: robert
Spectrometer: USB4E03001
Autoset integration time: false
Trigger mode: 4
Integration Time (sec): 1.000000E-1
Scans to average: 15
Electric dark correction enabled: true
Nonlinearity correction enabled: false
Boxcar width: 5
Stray light correction enabled: false
XAxis mode: Wavelengths
Stop averaging: false
Number of Pixels in Spectrum: 3648
>>>>>Begin Spectral Data<<<<<
177.566	100
177.785	-207.89
178.005	-128.85
178.225	-303.75
178.445	58.49
178.665	91.74
178.885	585.29
179.105	34.2
179.324	91.14
179.544	127.98
179.764	124.28
179.984	94.77
180.204	64.47
180.423	107.02
180.643	89.19
180.863	70.7
181.083	81.92
181.302	94.05
181.522	64.33
181.742	67.62
181.961	72.64
182.181	81.98
182.401	94.73
182.621	110.57
182.84	98.01
183.06	97.48
183.279	97.03
183.499	92.32
183.719	79.61
183.938	115.45
184.158	115.55
184.377	109.3
184.597	113.79
184.816	111.28
185.036	76.43
185.256	89.93
185.475	89.36
185.695	85.79
185.914	104.56
186.134	142.05
186.353	109.1
186.572	86.01
186.792	65.38
187.011	49.98
187.231	54.51
187.45	88.55
187.67	87.49
187.889	74.38
188.108	66.07
188.328	56.85
188.547	57.28
188.766	49.71
188.986	52.24
189.205	50.45
189.424	71.58
189.644	72.82
189.863	90.12
190.082	84.32
190.302	77.49
190.521	99.16
190.74	86.24
190.959	70.39
191.178	66.45
191.398	62.1
191.617	73.11
191.836	55.15
192.055	55.56
192.274	52.72
192.494	34.08
192.713	58.73
192.932	58.73
193.151	73.18
193.37	79.63
193.589	94.66
193.808	104.73
194.027	114.5
194.246	119.25
194.465	87.53
194.685	80.13
194.904	89.43
195.123	79.69
195.342	67.12
195.561	65.64
195.78	80.12
195.999	85.17
196.218	69.84
196.436	47.87
196.655	54.64
196.874	107.34
197.093	116.15
197.312	121.39
197.531	121.19
197.75	114.91
197.969	127.37
198.188	96.18
198.407	85
198.625	100.1
198.844	104.19
199.063	86.82
199.282	81.88
199.501	73.06
199.719	58.84
199.938	68.33
200.157	74.54
200.376	72.93
200.594	97.68
200.813	115.86
201.032	121.59
201.251	161.63
201.469	128.63
201.688	121.24
201.907	103.67
202.125	84.86
202.344	78.67
202.563	91.53
202.781	80.43
203	85.61
203.218	76.94
203.437	88.65
203.656	76.42
203.874	70.56
204.093	55.16
204.311	72.66
204.53	89.81
204.748	94.4
204.967	86.98
205.185	96.38
205.404	92.26
205.622	110.26
205.841	85.87
206.059	88.54
206.278	89.89
206.496	99.42
206.715	92.21
206.933	90.88
207.151	87.36
207.37	89.18
207.588	89.06
207.806	89.46
208.025	90.57
208.243	94.8
208.461	104.28
208.68	115.7
208.898	126.47
209.116	99.69
209.335	104.54
209.553	96.5
209.771	98.02
209.989	85.97
210.208	74.41
210.426	55.71
210.644	50.95
210.862	12.65
211.081	28.82
211.299	5.98
211.517	42.96
211.735	25.9
211.953	35.34
212.171	44.08
212.39	64.4
212.608	87.95
212.826	77.96
213.044	86.25
213.262	95.53
213.48	103.19
213.698	106.09
213.916	118.43
214.134	100
214.352	129.37
214.57	90.64
214.788	100.19
215.006	51.76
215.224	55.03
215.442	16.58
215.66	-36.57
215.878	16.13
216.096	11.03
216.314	18.16
216.532	34.63
216.75	20.97
216.968	36.53
217.185	38.06
217.403	51.26
217.621	45.19
217.839	46.4
218.057	58.4
218.275	63.3
218.492	78.26
218.71	79.84
218.928	71.77
219.146	73.56
219.363	82.68
219.581	106.2
219.799	91.57
220.017	114.96
220.234	123.4
220.452	112.89
220.67	96
220.887	84.64
221.105	60.98
221.323	70.2
221.54	82.74
221.758	66.66
221.976	49.73
222.193	55.14
222.411	53.3
222.629	57.08
222.846	53.18
223.064	40.9
223.281	55.11
223.499	66.71
223.716	61.45
223.934	57.47
224.151	47.81
224.369	50.79
224.586	57.76
224.804	65.96
225.021	65.66
225.239	70.4
225.456	65.37
225.674	48.36
225.891	48.5
226.108	53.95
226.326	51.62
226.543	52.79
226.76	57.65
226.978	37.61
227.195	37.15
227.413	25.69
227.63	22.17
227.847	20.68
228.064	19.86
228.282	12.77
228.499	11.6
228.716	12.93
228.934	13.81
229.151	7.23
229.368	9.99
229.585	10.5
229.802	12.06
230.02	12.06
230.237	11.1
230.454	10.78
230.671	10.88
230.888	11.97
231.105	9.56
231.323	10.65
231.54	14.47
231.757	8.68
231.974	3.48
232.191	0.3
232.408	0.48
232.625	1.81
232.842	3.67
233.059	6.5
233.276	5.59
233.493	11.59
233.71	12.57
233.927	14.04
234.144	19.51
234.361	22.31
234.578	24.7
234.795	25.48
235.012	26.19
235.229	23.18
235.446	25.69
235.663	27.95
235.879	28.43
236.096	24.59
236.313	21.75
236.53	23.67
236.747	27
236.964	26.78
237.181	27.13
237.397	24.97
237.614	31.04
237.831	26.5
238.048	28.19
238.264	23.2
238.481	23.83
238.698	24.99
238.915	24.97
239.131	17.55
239.348	16.44
239.565	15.93
239.781	14.13
239.998	14.64
240.215	13.47
240.431	12.54
240.648	15.77
240.865	13.25
241.081	15.69
241.298	13.51
241.514	14.92
241.731	17.39
241.947	15.95
242.164	17.32
242.38	15.37
242.597	16.12
242.814	16.35
243.03	15.95
243.246	18.03
243.463	18.15
243.679	17.49
243.896	19.09
244.112	17.89
244.329	22.05
244.545	19.92
244.762	20.96
244.978	21.5
245.194	20.03
245.411	18.9
245.627	18.1
245.843	16.65
246.06	17.81
246.276	15.31
246.492	15.13
246.709	12.57
246.925	13.87
247.141	13.79
247.357	13.39
247.574	13.36
247.79	12.93
248.006	12.8
248.222	13.32
248.439	12.91
248.655	14.03
248.871	13.49
249.087	13.61
249.303	14.23
249.519	13.07
249.736	13.6
249.952	13.7
250.168	14.25
250.384	15.35
250.6	14.77
250.816	17.34
251.032	15.92
251.248	17.42
251.464	16.43
251.68	16.32
251.896	17.22
252.112	16.14
252.328	14.96
252.544	15.3
252.76	14.95
252.976	13.38
253.192	10.14
253.408	10.55
253.624	11.65
253.84	12.81
254.056	11.43
254.272	13.47
254.487	14.69
254.703	16.85
254.919	16.2
255.135	15.89
255.351	17.54
255.567	21.04
255.782	21.07
255.998	18.66
256.214	18.32
256.43	18.26
256.646	17.89
256.861	15.45
257.077	13.71
257.293	13.72
257.508	12.93
257.724	12.85
257.94	13.75
258.155	12.76
258.371	11.99
258.587	11.53
258.802	11.25
259.018	9.91
259.234	8.98
259.449	9.86
259.665	9.51
259.88	8.83
260.096	8.79
260.312	8.03
260.527	8.31
260.743	8.52
260.958	8.72
261.174	8
261.389	8.16
261.605	9.54
261.82	9.37
262.036	9.9
262.251	11.19
262.466	11.08
262.682	11.52
262.897	11.5
263.113	10.38
263.328	10.58
263.543	11.72
263.759	12.28
263.974	12
264.189	11.69
264.405	10.78
264.62	10.15
264.835	11.11
265.051	10.52
265.266	11.06
265.481	12.68
265.696	11.61
265.912	11.12
266.127	10.81
266.342	11.35
266.557	10.81
266.773	10.19
266.988	10.59
267.203	8.88
267.418	9.84
267.633	10.09
267.848	10.32
268.064	9.94
268.279	9.89
268.494	8.71
268.709	8.54
268.924	9.53
269.139	9.86
269.354	9.83
269.569	10.77
269.784	10.35
269.999	8.89
270.214	8.33
270.429	9.53
270.644	10.33
270.859	10.97
271.074	11.19
271.289	11.02
271.504	12.04
271.719	11.66
271.934	11.14
272.149	10.81
272.363	11.67
272.578	12.54
272.793	12.32
273.008	12.38
273.223	12.74
273.438	11.5
273.653	12.36
273.867	11.8
274.082	12.67
274.297	13.79
274.512	13.56
274.726	11.46
274.941	11.23
275.156	11.96
275.371	11.06
275.585	11.1
275.8	10.74
276.015	8.3
276.229	8.4
276.444	7.62
276.659	6.49
276.873	7.21
277.088	10.22
277.302	10.2
277.517	8.65
277.732	10.67
277.946	10.53
278.161	13.17
278.375	15.28
278.59	15.54
278.804	14.87
279.019	14.9
279.233	14.22
279.448	13.65
279.662	14.16
279.877	14.78
280.091	14.65
280.306	15.11
280.52	12.72
280.735	12.54
280.949	12.19
281.163	12.27
281.378	12.8
281.592	12.79
281.806	14
282.021	12.15
282.235	12.4
282.449	11.34
282.664	10.8
282.878	10.95
283.092	10.65
283.307	11.83
283.521	12.14
283.735	12.56
283.949	12.98
284.164	11.69
284.378	12.37
284.592	12.1
284.806	11.77
285.02	11.68
285.234	13.12
285.449	12.52
285.663	11.53
285.877	11.53
286.091	11.27
286.305	11.12
286.519	11.22
286.733	10.65
286.947	11.26
287.161	11.32
287.375	11.53
287.589	11.22
287.803	11.87
288.017	11.73
288.231	11.56
288.445	12.68
288.659	12.26
288.873	12.6
289.087	13.26
289.301	13.14
289.515	14.02
289.729	14.3
289.943	13.44
290.157	13.77
290.371	13.9
290.584	14.82
290.798	14.57
291.012	14.91
291.226	15.59
291.44	15.87
291.654	15.59
291.867	14.62
292.081	14.68
292.295	15.86
292.509	15.06
292.722	15.21
292.936	14.55
293.15	14.55
293.364	14.8
293.577	13.82
293.791	13.27
294.005	12.33
294.218	12.12
294.432	12.41
294.645	11.33
294.859	10.97
295.073	9.82
295.286	9.34
295.5	9.39
295.713	9.86
295.927	8.61
296.14	9.56
296.354	10.11
296.568	11.03
296.781	10.52
296.994	11.33
297.208	12.78
297.421	13.92
297.635	14.12
297.848	13.48
298.062	13.59
298.275	14.86
298.489	14.38
298.702	15.02
298.915	15.41
299.129	16.49
299.342	15.91
299.555	15.82
299.769	15.76
299.982	16.04
300.195	16.57
300.409	15.74
300.622	16.22
300.835	16.34
301.048	14.66
301.262	14.33
301.475	13.49
301.688	14.28
301.901	14.22
302.115	14.15
302.328	14.44
302.541	14.48
302.754	15.24
302.967	15.08
303.18	16.74
303.393	18.62
303.607	19.08
303.82	19.1
304.033	18.87
304.246	17.55
304.459	18.62
304.672	18.43
304.885	19.09
305.098	18.61
305.311	18.71
305.524	16.61
305.737	16.38
305.95	15.44
306.163	16.64
306.376	17.48
306.589	17.98
306.802	17.5
307.015	19.22
307.228	18.02
307.44	18.09
307.653	18.64
307.866	19.57
308.079	18.59
308.292	17.19
308.505	16.38
308.718	16.35
308.93	17.22
309.143	17.11
309.356	16.19
309.569	17.1
309.781	17.4
309.994	17.52
310.207	17.29
310.42	17.31
310.632	18.52
310.845	18.53
311.058	18.11
311.27	17.82
311.483	17.68
311.696	17.56
311.908	17.48
312.121	18
312.333	16.89
312.546	17.15
312.759	17.93
312.971	17.86
313.184	17.93
313.396	17.73
313.609	17.71
313.821	18.24
314.034	18.28
314.246	17.51
314.459	17.38
314.671	18.14
314.884	18.71
315.096	18.45
315.309	16.97
315.521	16
315.733	16.96
315.946	16.23
316.158	15.66
316.371	15.27
316.583	15.14
316.795	14.79
317.008	15.57
317.22	15.04
317.432	15.73
317.644	17.87
317.857	19.28
318.069	18.87
318.281	18.68
318.494	19.02
318.706	19.84
318.918	20.81
319.13	21.08
319.342	20.82
319.555	20.97
319.767	21.18
319.979	20.67
320.191	20.39
320.403	20.57
320.615	21.24
320.827	21.24
321.039	20.2
321.252	20.03
321.464	19.29
321.676	19.25
321.888	19.51
322.1	19.29
322.312	19.7
322.524	20.02
322.736	20.47
322.948	20.53
323.16	20.07
323.372	20.67
323.584	21.18
323.796	21.71
324.007	21.69
324.219	21.96
324.431	21.41
324.643	21.15
324.855	21.57
325.067	21.23
325.279	22.33
325.491	23.5
325.702	23.92
325.914	24.23
326.126	24.22
326.338	22.92
326.55	22.77
326.761	23.52
326.973	23.98
327.185	23.5
327.396	24.17
327.608	23.2
327.82	22.97
328.032	23.13
328.243	23.16
328.455	23.66
328.666	25.19
328.878	24.25
329.09	24.03
329.301	23.68
329.513	23.99
329.725	22.55
329.936	23.43
330.148	22.49
330.359	22.45
330.571	23.07
330.782	23.55
330.994	23.35
331.205	24.77
331.417	24.55
331.628	25.65
331.84	25.85
332.051	27.06
332.262	27.15
332.474	29.2
332.685	29.67
332.897	28.39
333.108	27.92
333.319	28.81
333.531	29.38
333.742	30.46
333.953	30.35
334.165	30.15
334.376	30.3
334.587	29.62
334.799	28.94
335.01	29.06
335.221	29.25
335.432	30.04
335.644	28.83
335.855	28.38
336.066	27.7
336.277	28.29
336.488	28.18
336.7	27.24
336.911	27.71
337.122	27.63
337.333	27.36
337.544	28.1
337.755	27.87
337.966	29.01
338.177	28.31
338.388	28.17
338.599	27.47
338.811	27.08
339.022	27.71
339.233	27.91
339.444	27.95
339.655	28.34
339.866	28.49
340.076	28.03
340.287	27.56
340.498	27.78
340.709	28.16
340.92	28.85
341.131	29.43
341.342	29.91
341.553	29.59
341.764	29.12
341.975	28.68
342.185	28.28
342.396	28.55
342.607	28.73
342.818	28.73
343.029	28.5
343.239	28.91
343.45	29.41
343.661	28.88
343.872	28.46
344.082	28.2
344.293	28.06
344.504	27.55
344.714	27.53
344.925	27.09
345.136	27.9
345.346	28.29
345.557	27.26
345.768	26.54
345.978	26.56
346.189	27.39
346.399	27.72
346.61	27.88
346.821	28.1
347.031	27.55
347.242	28.5
347.452	28.04
347.663	27.76
347.873	27.67
348.084	27.74
348.294	27.41
348.504	27.12
348.715	27.15
348.925	27.17
349.136	27.45
349.346	27.65
349.557	26.88
349.767	26.99
349.977	26.44
350.188	26.06
350.398	26.13
350.608	26.25
350.819	26.18
351.029	26.07
351.239	25.51
351.449	26
351.66	25.38
351.87	26.39
352.08	26.32
352.29	27.09
352.501	28.48
352.711	28.6
352.921	28.83
353.131	28.51
353.341	28.14
353.552	28.05
353.762	26.88
353.972	27.71
354.182	26
354.392	26.02
354.602	25.24
354.812	23.74
355.022	23.93
355.232	23.84
355.442	24.28
355.652	25.11
355.862	25.45
356.072	25.92
356.282	26.01
356.492	26.95
356.702	26.82
356.912	27.09
357.122	27.19
357.332	27.17
357.542	27.02
357.752	26.21
357.962	25.83
358.171	25.84
358.381	25.2
358.591	24.93
358.801	24.37
359.011	23.68
359.221	23.97
359.43	24.77
359.64	24.02
359.85	24.25
360.06	24.58
360.269	24.79
360.479	25
360.689	25.42
360.899	25.05
361.108	25.26
361.318	25.65
361.528	25.6
361.737	25.13
361.947	25.66
362.156	25.63
362.366	25.61
362.576	25.21
362.785	25.08
362.995	24.91
363.204	25.27
363.414	25.31
363.623	25.55
363.833	24.66
364.042	24.11
364.252	23.89
364.461	23.32
364.671	23.64
364.88	23.92
365.09	23.48
365.299	23.48
365.509	23.25
365.718	23.22
365.927	22.48
366.137	23.12
366.346	23.75
366.555	23.79
366.765	23.88
366.974	23.41
367.183	22.94
367.393	23.35
367.602	23.54
367.811	23.52
368.021	23.36
368.23	23.37
368.439	22.97
368.648	23.32
368.857	22.77
369.067	22.63
369.276	22.79
369.485	22.74
369.694	22.39
369.903	21.8
370.112	21.53
370.321	21.29
370.531	21.77
370.74	22
370.949	21.31
371.158	21.3
371.367	21.46
371.576	21.44
371.785	21.47
371.994	21.43
372.203	21.76
372.412	21.92
372.621	21.85
372.83	21.06
373.039	20.85
373.248	20.96
373.457	21.11
373.666	21.31
373.874	20.42
374.083	20.12
374.292	19.77
374.501	19.69
374.71	19.48
374.919	19.14
375.128	19.94
375.336	19.9
375.545	19.42
375.754	19.75
375.963	19.04
376.171	19.45
376.38	19.33
376.589	19.3
376.798	19
377.006	19.09
377.215	19.34
377.424	18.9
377.632	18.76
377.841	18.94
378.05	18.38
378.258	18.44
378.467	18.32
378.675	18.49
378.884	18.39
379.093	18.26
379.301	18.12
379.51	18.1
379.718	18.46
379.927	18.79
380.135	18.9
380.344	18.71
380.552	18.77
380.761	18.68
380.969	18.29
381.177	18.45
381.386	18.31
381.594	18.16
381.803	17.7
382.011	17.3
382.219	17.18
382.428	17
382.636	17.33
382.845	17.79
383.053	17.89
383.261	17.87
383.469	17.62
383.678	17.43
383.886	17.16
384.094	17.5
384.302	17.73
384.511	17.64
384.719	17.05
384.927	16.98
385.135	16.71
385.343	16.79
385.552	16.97
385.76	17.23
385.968	17.24
386.176	17.51
386.384	17.38
386.592	17.27
386.8	17.3
387.008	17.77
387.216	17.57
387.424	17.33
387.633	17.26
387.841	17.23
388.049	16.75
388.257	17.46
388.465	17.03
388.672	16.93
388.88	16.38
389.088	16.15
389.296	15.82
389.504	15.65
389.712	15.78
389.92	15.5
390.128	15.43
390.336	15.51
390.544	15.15
390.751	15.6
390.959	16.01
391.167	16.35
391.375	16.21
391.583	16.43
391.79	16.63
391.998	16.54
392.206	16.56
392.414	16.36
392.621	16.33
392.829	16.28
393.037	16.02
393.244	15.8
393.452	15.79
393.66	15.71
393.867	15.79
394.075	15.55
394.283	15.5
394.49	15.5
394.698	15.63
394.905	15.91
395.113	15.75
395.32	15.67
395.528	15.39
395.735	15.4
395.943	15.38
396.15	15.23
396.358	15.17
396.565	15.21
396.773	15.04
396.98	14.92
397.188	14.55
397.395	14.73
397.602	14.96
397.81	15.38
398.017	14.78
398.225	14.71
398.432	14.59
398.639	14.85
398.847	14.61
399.054	14.58
399.261	14.4
399.468	14.57
399.676	14.48
399.883	14.12
400.09	13.3
400.297	13.59
400.505	13.52
400.712	13.65
400.919	13.17
401.126	13.19
401.333	13.26
401.54	13.15
401.748	13.05
401.955	13.12
402.162	13.19
402.369	13.46
402.576	13.38
402.783	13.38
402.99	12.95
403.197	13.01
403.404	12.8
403.611	12.81
403.818	12.85
404.025	12.94
404.232	12.77
404.439	12.8
404.646	12.56
404.853	12.5
405.06	12.65
405.267	12.57
405.474	12.53
405.681	12.58
405.887	12.68
406.094	12.95
406.301	12.81
406.508	12.56
406.715	12.56
406.922	12.82
407.128	13.19
407.335	12.93
407.542	12.88
407.749	12.97
407.955	12.98
408.162	12.73
408.369	12.46
408.575	12.53
408.782	12.99
408.989	13.02
409.195	12.65
409.402	12.06
409.609	12.23
409.815	12.44
410.022	12.25
410.228	12.24
410.435	12.44
410.642	12.36
410.848	11.96
411.055	11.79
411.261	11.78
411.468	12.03
411.674	12.12
411.881	11.91
412.087	12.02
412.294	12.36
412.5	12.57
412.706	12.32
412.913	12.38
413.119	12.7
413.326	12.4
413.532	12.32
413.738	12.33
413.945	12.26
414.151	12.52
414.357	12.25
414.564	12.03
414.77	11.84
414.976	12.04
415.182	12.17
415.389	12
415.595	11.94
415.801	11.81
416.007	11.7
416.214	11.78
416.42	11.61
416.626	11.93
416.832	12.03
417.038	12.2
417.244	11.95
417.45	12.01
417.657	11.97
417.863	12.07
418.069	12.11
418.275	12.15
418.481	12.04
418.687	12.17
418.893	12.01
419.099	12.08
419.305	11.88
419.511	11.91
419.717	11.92
419.923	11.86
420.129	11.83
420.335	11.94
420.541	12.03
420.746	11.83
420.952	11.65
421.158	11.48
421.364	11.17
421.57	11.08
421.776	11.09
421.982	10.9
422.187	10.8
422.393	10.75
422.599	10.59
422.805	10.51
423.01	10.77
423.216	10.75
423.422	10.87
423.628	10.97
423.833	10.87
424.039	10.89
424.245	11.05
424.45	11.18
424.656	11.22
424.862	11.21
425.067	11.26
425.273	11.25
425.478	11.25
425.684	11.23
425.889	11.28
426.095	11.56
426.301	11.46
426.506	11.34
426.712	11.27
426.917	11.19
427.123	11.2
427.328	10.99
427.533	10.83
427.739	10.81
427.944	10.79
428.15	10.74
428.355	10.61
428.561	10.51
428.766	10.46
428.971	10.62
429.177	10.64
429.382	10.6
429.587	10.83
429.793	10.98
429.998	11
430.203	11.03
430.408	11.09
430.614	11.19
430.819	11.36
431.024	11.39
431.229	11.3
431.434	11.04
431.64	11.21
431.845	11.04
432.05	10.94
432.255	10.95
432.46	10.97
432.665	10.91
432.87	10.98
433.076	11.01
433.281	10.98
433.486	11.01
433.691	11.33
433.896	11.19
434.101	11.07
434.306	11.12
434.511	11.07
434.716	11.09
434.921	11.31
435.126	11.18
435.331	11.09
435.535	11.05
435.74	10.98
435.945	10.89
436.15	11.13
436.355	11.44
436.56	11.45
436.765	11.38
436.97	11.37
437.174	11
437.379	11.17
437.584	11.18
437.789	11.23
437.993	11.3
438.198	11.27
438.403	11.08
438.608	10.77
438.812	10.67
439.017	10.85
439.222	11.05
439.426	11.15
439.631	11.05
439.836	11.05
440.04	10.85
440.245	10.84
440.45	10.8
440.654	10.79
440.859	10.8
441.063	10.82
441.268	10.69
441.472	10.59
441.677	10.67
441.881	10.72
442.086	10.65
442.29	10.84
442.495	10.86
442.699	10.97
442.904	10.87
443.108	11
443.312	11.04
443.517	11.23
443.721	11.16
443.925	10.94
444.13	10.86
444.334	10.97
444.538	10.97
444.743	10.82
444.947	10.63
445.151	10.67
445.356	10.67
445.56	10.63
445.764	10.59
445.968	10.43
446.173	10.59
446.377	10.54
446.581	10.43
446.785	10.38
446.989	10.33
447.193	10.45
447.398	10.39
447.602	10.28
447.806	10.31
448.01	10.3
448.214	10.36
448.418	10.26
448.622	10.27
448.826	10.31
449.03	10.32
449.234	10.41
449.438	10.4
449.642	10.45
449.846	10.44
450.05	10.52
450.254	10.38
450.458	10.42
450.662	10.58
450.866	10.48
451.069	10.45
451.273	10.14
451.477	9.97
451.681	9.9
451.885	9.93
452.089	9.97
452.292	9.87
452.496	9.89
452.7	9.97
452.904	9.96
453.107	10.08
453.311	10.07
453.515	10.28
453.719	10.51
453.922	10.56
454.126	10.54
454.33	10.58
454.533	10.65
454.737	10.78
454.94	10.82
455.144	10.62
455.348	10.59
455.551	10.51
455.755	10.48
455.958	10.48
456.162	10.45
456.365	10.53
456.569	10.55
456.772	10.53
456.976	10.23
457.179	10.17
457.383	10.19
457.586	10.26
457.79	10.22
457.993	10
458.196	9.84
458.4	9.7
458.603	9.65
458.807	9.6
459.01	9.64
459.213	9.78
459.417	9.71
459.62	9.79
459.823	9.71
460.026	9.8
460.23	9.89
460.433	9.97
460.636	10.13
460.839	10.19
461.042	10.21
461.246	10.12
461.449	10.09
461.652	10.16
461.855	10.08
462.058	9.97
462.261	9.85
462.464	10.01
462.668	9.98
462.871	9.84
463.074	9.64
463.277	9.54
463.48	9.6
463.683	9.83
463.886	9.64
464.089	9.8
464.292	10.02
464.495	10.09
464.698	10.17
464.901	10.1
465.104	10.26
465.306	10.31
465.509	10.31
465.712	10.43
465.915	10.3
466.118	10.53
466.321	10.4
466.524	10.24
466.726	10.24
466.929	10.1
467.132	10.18
467.335	10.13
467.538	10.41
467.74	10.61
467.943	10.47
468.146	10.41
468.348	10.34
468.551	10.34
468.754	10.58
468.956	10.6
469.159	10.65
469.362	10.61
469.564	10.67
469.767	10.56
469.969	10.58
470.172	10.53
470.375	10.66
470.577	10.68
470.78	10.69
470.982	10.53
471.185	10.66
471.387	10.71
471.59	10.84
471.792	10.71
471.995	10.58
472.197	10.62
472.399	10.45
472.602	10.37
472.804	10.46
473.007	10.61
473.209	10.62
473.411	10.48
473.614	10.29
473.816	10.03
474.018	10.19
474.22	10.2
474.423	10.18
474.625	10.25
474.827	10.39
475.03	10.35
475.232	10.17
475.434	10.13
475.636	10.1
475.838	10.17
476.04	10.2
476.243	10.05
476.445	9.97
476.647	9.85
476.849	10.05
477.051	9.88
477.253	9.8
477.455	9.77
477.657	9.86
477.859	9.88
478.061	10.09
478.263	10.08
478.465	10.25
478.667	10.22
478.869	10.28
479.071	10.24
479.273	10.31
479.475	10.2
479.677	10.37
479.879	10.23
480.081	10.22
480.283	10.11
480.485	10.37
480.686	10.11
480.888	10.23
481.09	10.13
481.292	10.18
481.494	10.15
481.695	10.28
481.897	10.21
482.099	10.22
482.301	10.3
482.502	10.18
482.704	10.04
482.906	10.08
483.107	10.04
483.309	10.05
483.511	9.96
483.712	9.96
483.914	9.92
484.115	9.88
484.317	9.83
484.519	9.79
484.72	9.84
484.922	9.82
485.123	9.82
485.325	9.79
485.526	9.76
485.728	9.8
485.929	9.77
486.131	9.75
486.332	9.82
486.534	9.91
486.735	9.86
486.936	9.86
487.138	9.88
487.339	9.82
487.541	9.88
487.742	9.9
487.943	9.88
488.144	9.89
488.346	9.93
488.547	9.87
488.748	9.84
488.95	9.89
489.151	9.86
489.352	9.88
489.553	9.97
489.755	9.92
489.956	9.94
490.157	10.01
490.358	10.04
490.559	9.94
490.76	9.95
490.961	9.95
491.163	9.94
491.364	9.96
491.565	10.06
491.766	10.1
491.967	10.15
492.168	10.07
492.369	9.99
492.57	9.94
492.771	10
492.972	10
493.173	9.96
493.374	9.94
493.575	9.94
493.776	9.8
493.976	9.82
494.177	9.78
494.378	10.03
494.579	10.15
494.78	10.28
494.981	10.26
495.182	10.28
495.382	10.55
495.583	10.74
495.784	10.73
495.985	10.82
496.185	10.64
496.386	10.76
496.587	10.69
496.788	10.58
496.988	10.56
497.189	10.6
497.39	10.72
497.59	10.65
497.791	10.6
497.992	10.67
498.192	10.61
498.393	10.65
498.593	10.61
498.794	10.6
498.994	10.59
499.195	10.68
499.395	10.88
499.596	10.85
499.796	10.85
499.997	11.1
500.197	11.23
500.398	11.32
500.598	11.37
500.799	11.43
500.999	11.47
501.199	11.64
501.4	11.67
501.6	11.65
501.801	11.53
502.001	11.44
502.201	11.17
502.402	10.89
502.602	10.87
502.802	11.05
503.002	10.93
503.203	10.88
503.403	10.88
503.603	10.95
503.803	11.03
504.003	11.15
504.204	11.37
504.404	11.45
504.604	11.67
504.804	11.8
505.004	11.81
505.204	11.97
505.404	12.08
505.604	12.07
505.804	12.18
506.005	12.1
506.205	12.13
506.405	12.1
506.605	12.05
506.805	12
507.005	12.22
507.204	12.09
507.404	12.17
507.604	12.12
507.804	12.31
508.004	12.14
508.204	12.15
508.404	12.28
508.604	12.37
508.804	12.56
509.003	12.79
509.203	12.63
509.403	12.78
509.603	12.77
509.803	12.91
510.002	12.99
510.202	13.24
510.402	13.41
510.602	13.56
510.801	13.51
511.001	13.66
511.201	13.52
511.4	13.58
511.6	13.78
511.8	13.95
511.999	14.02
512.199	13.9
512.398	13.92
512.598	14.04
512.797	14
512.997	14.15
513.197	14.12
513.396	14.34
513.596	14.5
513.795	14.44
513.994	14.51
514.194	14.55
514.393	14.68
514.593	14.66
514.792	14.68
514.992	14.73
515.191	14.84
515.39	14.97
515.59	15.06
515.789	15.01
515.988	14.99
516.188	14.84
516.387	14.95
516.586	15.19
516.786	15.24
516.985	15.38
517.184	15.32
517.383	15.41
517.582	15.41
517.782	15.29
517.981	15.4
518.18	15.51
518.379	15.7
518.578	15.83
518.777	15.87
518.976	15.91
519.176	15.85
519.375	15.95
519.574	15.95
519.773	16.01
519.972	16.16
520.171	16.2
520.37	16.36
520.569	16.39
520.768	16.28
520.967	16.41
521.166	16.47
521.365	16.59
521.564	16.84
521.762	16.87
521.961	16.98
522.16	17.08
522.359	17.06
522.558	17.05
522.757	16.92
522.956	17.08
523.154	16.94
523.353	16.97
523.552	17.1
523.751	17.14
523.949	17.18
524.148	17.12
524.347	17.26
524.546	17.54
524.744	17.54
524.943	17.67
525.142	17.73
525.34	17.79
525.539	17.81
525.737	17.75
525.936	17.69
526.135	17.83
526.333	18.04
526.532	17.96
526.73	17.94
526.929	17.98
527.127	18.08
527.326	18.08
527.524	18.22
527.723	18.34
527.921	18.45
528.12	18.52
528.318	18.47
528.516	18.4
528.715	18.49
528.913	18.55
529.112	18.66
529.31	18.61
529.508	18.64
529.707	18.63
529.905	18.7
530.103	18.69
530.301	18.65
530.5	18.76
530.698	18.94
530.896	19.02
531.094	19.11
531.293	19.16
531.491	19.36
531.689	19.58
531.887	19.56
532.085	19.59
532.283	19.59
532.481	19.75
532.68	19.77
532.878	19.71
533.076	19.7
533.274	19.6
533.472	19.67
533.67	19.68
533.868	19.64
534.066	19.74
534.264	19.74
534.462	19.81
534.66	19.8
534.858	19.9
535.056	20.02
535.253	20.13
535.451	20.24
535.649	20.19
535.847	20.37
536.045	20.38
536.243	20.48
536.441	20.53
536.638	20.7
536.836	20.81
537.034	20.83
537.232	20.86
537.43	20.82
537.627	20.88
537.825	21.04
538.023	21
538.22	21.15
538.418	21.18
538.616	21.15
538.813	21.26
539.011	21.36
539.209	21.51
539.406	21.57
539.604	21.73
539.801	21.97
539.999	22.04
540.196	22.14
540.394	22.17
540.591	22.16
540.789	22.26
540.986	22.13
541.184	22.08
541.381	22.08
541.579	22.12
541.776	22.1
541.974	22.08
542.171	22.07
542.368	22.06
542.566	22.13
542.763	22.16
542.96	22.19
543.158	22.34
543.355	22.48
543.552	22.45
543.75	22.57
543.947	22.65
544.144	22.56
544.341	22.54
544.539	22.63
544.736	22.56
544.933	22.71
545.13	22.84
545.327	22.81
545.524	22.75
545.722	22.81
545.919	22.63
546.116	22.62
546.313	22.8
546.51	22.95
546.707	23.03
546.904	23.12
547.101	23.12
547.298	23.15
547.495	23.18
547.692	23.26
547.889	23.32
548.086	23.58
548.283	23.65
548.48	23.74
548.677	23.96
548.874	23.99
549.07	24.14
549.267	24.25
549.464	24.55
549.661	24.74
549.858	24.96
550.055	25.2
550.251	25.32
550.448	25.36
550.645	25.54
550.842	25.16
551.038	25.1
551.235	25.19
551.432	25.25
551.628	25.18
551.825	25.06
552.022	25.12
552.218	25.07
552.415	24.98
552.612	25.25
552.808	25.06
553.005	25.39
553.201	25.52
553.398	25.41
553.594	25.39
553.791	25.42
553.987	25.66
554.184	25.58
554.38	25.55
554.577	25.62
554.773	25.58
554.97	25.79
555.166	25.77
555.362	25.89
555.559	26.09
555.755	26.03
555.952	25.97
556.148	26.03
556.344	26.1
556.541	26.38
556.737	26.47
556.933	26.51
557.129	26.62
557.326	26.51
557.522	26.58
557.718	26.6
557.914	26.99
558.11	27.17
558.307	27.21
558.503	27.32
558.699	27.39
558.895	27.3
559.091	27.54
559.287	27.55
559.483	27.7
559.679	27.64
559.876	27.7
560.072	27.68
560.268	27.6
560.464	27.7
560.66	27.5
560.856	27.49
561.052	27.58
561.247	27.4
561.443	27.48
561.639	27.55
561.835	27.75
562.031	27.82
562.227	27.66
562.423	27.82
562.619	27.63
562.815	27.95
563.01	27.95
563.206	28.23
563.402	28.45
563.598	28.48
563.793	28.51
563.989	28.4
564.185	28.41
564.381	28.56
564.576	28.61
564.772	28.53
564.968	28.51
565.163	28.54
565.359	28.45
565.555	28.58
565.75	28.58
565.946	28.62
566.141	28.72
566.337	28.69
566.532	28.83
566.728	28.66
566.923	28.84
567.119	28.98
567.314	29.22
567.51	29.22
567.705	29.16
567.901	29.06
568.096	29.11
568.292	28.98
568.487	28.89
568.682	28.73
568.878	28.9
569.073	28.96
569.268	28.95
569.464	28.83
569.659	28.8
569.854	28.74
570.05	29.06
570.245	29.25
570.44	29.4
570.635	29.68
570.831	29.87
571.026	30.08
571.221	30.19
571.416	30.16
571.611	30.12
571.806	30.29
572.002	30.33
572.197	30.28
572.392	30.24
572.587	30.23
572.782	30.21
572.977	30.31
573.172	30.21
573.367	30.22
573.562	30.16
573.757	30.22
573.952	30.05
574.147	30.22
574.342	30.29
574.537	30.3
574.732	30.5
574.927	30.64
575.121	30.54
575.316	30.46
575.511	30.45
575.706	30.5
575.901	30.49
576.096	30.67
576.29	30.45
576.485	30.39
576.68	30.36
576.875	30.36
577.069	30.3
577.264	30.39
577.459	30.69
577.654	30.88
577.848	30.87
578.043	30.87
578.238	30.94
578.432	31.11
578.627	31.1
578.821	31.68
579.016	31.75
579.21	31.46
579.405	31.29
579.6	30.84
579.794	30.63
579.989	30.84
580.183	30.98
580.378	30.9
580.572	31.03
580.766	31.23
580.961	30.99
581.155	31.01
581.35	31.38
581.544	31.41
581.738	31.67
581.933	32.11
582.127	32.08
582.321	31.99
582.516	31.75
582.71	31.61
582.904	31.35
583.099	31.25
583.293	31.37
583.487	31.25
583.681	31.31
583.875	31.39
584.07	31.05
584.264	31.34
584.458	31.25
584.652	31.83
584.846	31.65
585.04	31.77
585.234	31.72
585.428	31.64
585.623	31.74
585.817	31.77
586.011	31.66
586.205	31.59
586.399	31.39
586.593	31.58
586.787	31.27
586.981	31.38
587.174	31.41
587.368	31.71
587.562	31.62
587.756	31.86
587.95	31.78
588.144	31.98
588.338	32.19
588.532	32.23
588.725	32.38
588.919	32.59
589.113	33.1
589.307	33.26
589.501	33.06
589.694	33.12
589.888	33.22
590.082	33.21
590.275	33.24
590.469	33.05
590.663	32.97
590.856	33.02
591.05	32.97
591.244	32.93
591.437	32.73
591.631	32.76
591.824	32.74
592.018	32.78
592.212	32.93
592.405	32.95
592.599	33.11
592.792	33.28
592.986	33.35
593.179	33.47
593.372	33.51
593.566	33.67
593.759	33.6
593.953	33.75
594.146	33.58
594.339	33.76
594.533	33.75
594.726	33.7
594.92	33.49
595.113	33.52
595.306	33.29
595.499	33.14
595.693	33.07
595.886	33.06
596.079	32.83
596.272	32.63
596.466	32.43
596.659	32.47
596.852	32.57
597.045	32.76
597.238	32.48
597.431	32.42
597.624	32.41
597.818	32.73
598.011	32.57
598.204	32.81
598.397	33.08
598.59	33.13
598.783	33.2
598.976	33.36
599.169	33.15
599.362	33.37
599.555	33.88
599.748	33.77
599.941	33.68
600.134	33.92
600.326	33.67
600.519	33.67
600.712	33.96
600.905	33.64
601.098	33.57
601.291	33.88
601.483	34.01
601.676	33.53
601.869	33.58
602.062	33.46
602.255	33.48
602.447	33.62
602.64	33.51
602.833	33.26
603.025	33.53
603.218	33.47
603.411	33.53
603.603	33.41
603.796	33.79
603.989	34
604.181	34
604.374	33.94
604.566	33.86
604.759	33.84
604.951	33.94
605.144	33.89
605.336	33.91
605.529	33.83
605.721	33.88
605.914	33.93
606.106	33.8
606.299	33.97
606.491	34.01
606.683	34.1
606.876	34.41
607.068	34.32
607.26	34.48
607.453	34.49
607.645	34.61
607.837	34.61
608.03	34.45
608.222	34.69
608.414	34.45
608.606	34.43
608.799	34.5
608.991	34.23
609.183	34.35
609.375	34.2
609.567	34.17
609.759	34.07
609.952	34.32
610.144	34.22
610.336	34.02
610.528	34.09
610.72	34.27
610.912	34.2
611.104	34.26
611.296	34.2
611.488	33.97
611.68	34.08
611.872	34.08
612.064	33.85
612.256	34.14
612.448	34.21
612.64	34.17
612.832	33.65
613.023	33.6
613.215	33.56
613.407	33.57
613.599	33.97
613.791	34.01
613.983	34.64
614.174	34.57
614.366	34.55
614.558	34.72
614.75	34.54
614.941	35.43
615.133	35.72
615.325	35.95
615.516	36.13
615.708	36.24
615.9	36.44
616.091	36.12
616.283	36.38
616.475	36.23
616.666	36.17
616.858	36.3
617.049	36.09
617.241	35.82
617.432	35.78
617.624	35.79
617.815	35.69
618.007	35.48
618.198	35.26
618.39	35.11
618.581	35.04
618.773	35.07
618.964	34.96
619.155	34.8
619.347	35.11
619.538	35.42
619.729	35.27
619.921	35.56
620.112	35.78
620.303	35.86
620.494	35.54
620.686	35.95
620.877	35.99
621.068	36.4
621.259	36.29
621.451	36.36
621.642	36.09
621.833	36.68
622.024	36.52
622.215	36.42
622.406	36.2
622.597	36.72
622.788	36.33
622.98	36.21
623.171	35.83
623.362	36.12
623.553	35.91
623.744	36.01
623.935	35.58
624.126	35.46
624.317	35.21
624.508	35.15
624.698	34.92
624.889	34.98
625.08	34.83
625.271	35.09
625.462	34.89
625.653	34.94
625.844	34.95
626.034	35.12
626.225	35.2
626.416	35.18
626.607	35.46
626.798	35.45
626.988	35.28
627.179	35.22
627.37	35.11
627.56	35.22
627.751	35.26
627.942	35.05
628.132	34.95
628.323	34.8
628.514	34.8
628.704	34.73
628.895	34.81
629.085	35.2
629.276	35.46
629.466	35.44
629.657	35.46
629.847	35.44
630.038	35.52
630.228	35.67
630.419	35.65
630.609	36.06
630.8	35.9
630.99	36.01
631.181	35.76
631.371	35.51
631.561	35.76
631.752	35.77
631.942	35.98
632.132	36.05
632.323	35.66
632.513	36.32
632.703	35.9
632.893	36.07
633.084	35.95
633.274	36
633.464	36.1
633.654	36.12
633.844	35.98
634.034	36.04
634.225	35.93
634.415	35.96
634.605	35.69
634.795	36.15
634.985	36.38
635.175	36.51
635.365	36.63
635.555	36.8
635.745	36.63
635.935	36.76
636.125	36.47
636.315	36.76
636.505	37
636.695	36.78
636.885	36.52
637.075	36.5
637.265	36.33
637.455	36.27
637.644	36.18
637.834	35.91
638.024	35.78
638.214	35.74
638.404	35.83
638.593	35.95
638.783	36.02
638.973	36.09
639.163	36.1
639.352	36.3
639.542	36.63
639.732	36.5
639.921	36.83
640.111	36.98
640.301	36.96
640.49	36.8
640.68	36.92
640.87	37.02
641.059	37.15
641.249	36.84
641.438	36.73
641.628	36.36
641.817	36.83
642.007	36.91
642.196	36.86
642.386	36.89
642.575	36.89
642.764	36.52
642.954	36.64
643.143	36.66
643.333	37.11
643.522	37.6
643.711	37.64
643.901	37.57
644.09	37.84
644.279	37.79
644.469	37.86
644.658	37.74
644.847	37.9
645.036	37.92
645.226	37.64
645.415	37.2
645.604	36.69
645.793	36.54
645.982	36.58
646.171	36.43
646.361	36.82
646.55	37.08
646.739	37.36
646.928	37.05
647.117	36.54
647.306	36.3
647.495	36.72
647.684	36.56
647.873	36.77
648.062	36.81
648.251	36.46
648.44	36.48
648.629	36.46
648.818	36.12
649.007	36.55
649.196	37.17
649.384	37.88
649.573	37.9
649.762	38.47
649.951	38.63
650.14	38.29
650.328	38.42
650.517	38.21
650.706	37.58
650.895	37.78
651.083	37.56
651.272	37.44
651.461	36.94
651.65	36.74
651.838	36.34
652.027	35.85
652.216	36.42
652.404	36.62
652.593	36.64
652.781	37.14
652.97	36.78
653.158	36.6
653.347	36.79
653.535	37.17
653.724	37.3
653.912	37.9
654.101	38.23
654.289	37.65
654.478	37.63
654.666	37.46
654.855	37.6
655.043	37.75
655.231	38.02
655.42	38.03
655.608	37.98
655.796	37.93
655.985	37.28
656.173	37.61
656.361	38.01
656.55	38.11
656.738	38.49
656.926	38.56
657.114	38.27
657.302	38.14
657.491	37.73
657.679	37.59
657.867	37.56
658.055	37.87
658.243	37.8
658.431	37.56
658.619	37.81
658.807	38.04
658.996	37.87
659.184	38.1
659.372	38.11
659.56	38.26
659.748	38.09
659.936	37.92
660.124	37.89
660.311	37.61
660.499	37.62
660.687	37.35
660.875	36.84
661.063	36.87
661.251	37.06
661.439	37.53
661.627	37.58
661.814	37.95
662.002	37.93
662.19	37.89
662.378	37.95
662.565	37.98
662.753	37.92
662.941	37.82
663.129	37.77
663.316	37.66
663.504	37.06
663.692	36.84
663.879	36.5
664.067	36.88
664.254	36.9
664.442	37.43
664.63	37.95
664.817	37.96
665.005	37.99
665.192	38.31
665.38	38.57
665.567	39.04
665.755	39.07
665.942	39.47
666.13	39.54
666.317	39.37
666.504	38.71
666.692	38.34
666.879	38.1
667.067	38.59
667.254	38.16
667.441	37.98
667.629	37.95
667.816	37.95
668.003	37.77
668.19	37.3
668.378	37.74
668.565	38.25
668.752	38.18
668.939	38.51
669.127	38.11
669.314	38.41
669.501	38.17
669.688	37.8
669.875	38.21
670.062	38.1
670.249	38.18
670.436	37.9
670.623	37.78
670.81	37.83
670.997	37.59
671.184	37.68
671.371	37.81
671.558	37.95
671.745	38.3
671.932	37.59
672.119	37.68
672.306	37.6
672.493	37.46
672.68	36.83
672.867	36.39
673.054	36.47
673.24	36.34
673.427	36.37
673.614	36.43
673.801	36.54
673.988	37.5
674.174	36.93
674.361	37.17
674.548	37.28
674.734	37.96
674.921	38.84
675.108	38.84
675.294	39.08
675.481	38.73
675.668	38.56
675.854	38.5
676.041	37.85
676.227	38.67
676.414	38.22
676.601	38.14
676.787	38.05
676.974	37.45
677.16	37.9
677.347	37.91
677.533	38.63
677.719	38.85
677.906	38.88
678.092	38.91
678.279	39.05
678.465	39.49
678.651	39.71
678.838	39.77
679.024	39.59
679.21	39.03
679.397	39.27
679.583	38.95
679.769	38.93
679.955	38.43
680.142	38.38
680.328	38.04
680.514	37.56
680.7	37.73
680.886	37.88
681.073	38.11
681.259	38.66
681.445	38.24
681.631	37.85
681.817	37.76
682.003	38.07
682.189	37.97
682.375	37.9
682.561	38.13
682.747	37.45
682.933	36.82
683.119	36.85
683.305	36.48
683.491	36.85
683.677	37.11
683.863	37
684.049	37.1
684.235	37.17
684.42	37.4
684.606	37.61
684.792	37.81
684.978	38.18
685.164	38.22
685.349	38.17
685.535	37.56
685.721	37.62
685.907	37.45
686.092	37.22
686.278	37
686.464	37.02
686.649	36.81
686.835	37.14
687.021	37.24
687.206	37.44
687.392	37.22
687.577	37.85
687.763	37.52
687.948	38.02
688.134	37.69
688.319	37.78
688.505	38.03
688.69	38.49
688.876	37.88
689.061	38.11
689.247	37.68
689.432	38.24
689.618	37.99
689.803	38.67
689.988	38.74
690.174	39.09
690.359	39.18
690.544	38.39
690.73	37.74
690.915	38.38
691.1	38.01
691.285	38.59
691.471	38.25
691.656	38.29
691.841	38.07
692.026	37.5
692.211	37.5
692.396	37.55
692.582	37.75
692.767	37.88
692.952	37.34
693.137	38.42
693.322	38
693.507	38.33
693.692	37.75
693.877	37.27
694.062	37.95
694.247	37.77
694.432	38.16
694.617	38.08
694.802	38.51
694.987	38.5
695.172	37.63
695.357	37.93
695.541	37.94
695.726	39.26
695.911	39.86
696.096	39.71
696.281	39.83
696.466	39.73
696.65	40.33
696.835	40.13
697.02	40.74
697.204	40.57
697.389	40.57
697.574	40.58
697.759	39.76
697.943	39.03
698.128	38.73
698.312	38.89
698.497	38.62
698.682	38.17
698.866	38.48
699.051	38.26
699.235	37.91
699.42	37.38
699.604	37.42
699.789	37.22
699.973	37.65
700.158	37.77
700.342	37.56
700.527	37.76
700.711	38.11
700.895	37.93
701.08	37.97
701.264	38.51
701.448	38.88
701.633	38.61
701.817	39.29
702.001	39.29
702.186	39.49
702.37	39.49
702.554	39.13
702.738	38.95
702.923	38.25
703.107	38.5
703.291	38.02
703.475	37.9
703.659	37.93
703.843	38.03
704.027	38.21
704.212	38.36
704.396	38.49
704.58	39.11
704.764	38.82
704.948	39.73
705.132	39.18
705.316	39.45
705.5	39.35
705.684	39.48
705.868	39.13
706.052	38.59
706.235	38.51
706.419	38.89
706.603	38.88
706.787	38.91
706.971	38.91
707.155	39.14
707.339	39.7
707.522	39.91
707.706	39.75
707.89	39.69
708.074	39.32
708.257	39.29
708.441	39.22
708.625	39.36
708.808	39.6
708.992	39.5
709.176	39.6
709.359	39.48
709.543	39.66
709.727	39.21
709.91	39.6
710.094	40.42
710.277	40.92
710.461	40.95
710.644	40.43
710.828	40.83
711.011	40.87
711.195	40.47
711.378	39.86
711.562	39.91
711.745	40.36
711.928	39.54
712.112	38.96
712.295	38.23
712.478	37.69
712.662	37.94
712.845	37.73
713.028	37.53
713.212	37.63
713.395	37.61
713.578	37.96
713.761	37.47
713.945	38.7
714.128	39.52
714.311	39.84
714.494	39.99
714.677	40.42
714.86	40.77
715.043	40.8
715.227	41.58
715.41	41.58
715.593	40.52
715.776	40.68
715.959	40.06
716.142	39.85
716.325	39.38
716.508	39.56
716.691	38.93
716.874	38.95
717.057	39.04
717.239	39.04
717.422	39.06
717.605	39.43
717.788	38.36
717.971	38.34
718.154	38.6
718.337	39.02
718.519	38.95
718.702	39.11
718.885	39.01
719.068	38.7
719.25	37.56
719.433	38.19
719.616	38.52
719.798	39.26
719.981	38.38
720.164	36.81
720.346	36.43
720.529	37.3
720.712	37.27
720.894	36.42
721.077	36.98
721.259	37.05
721.442	36.7
721.624	36.59
721.807	37.13
721.989	38.75
722.172	39.62
722.354	40.18
722.537	39.4
722.719	39.51
722.901	39.65
723.084	38.93
723.266	39.56
723.448	39.52
723.631	38.95
723.813	39.54
723.995	38.73
724.178	38.85
724.36	39.08
724.542	39.52
724.724	39.36
724.907	39.09
725.089	39.37
725.271	39.58
725.453	39.77
725.635	40.39
725.817	40.52
725.999	41.04
726.181	40.85
726.364	40.32
726.546	40.45
726.728	41.08
726.91	41.48
727.092	41.33
727.274	41.66
727.456	41.19
727.638	41.44
727.819	40.58
728.001	40
728.183	40.27
728.365	40.32
728.547	40.04
728.729	39.49
728.911	39.56
729.093	39.94
729.274	40.24
729.456	40.59
729.638	40.49
729.82	40.72
730.001	40.22
730.183	40.1
730.365	40.94
730.546	40.03
730.728	41.12
730.91	41.4
731.091	41.22
731.273	40.45
731.455	40.04
731.636	40.03
731.818	40.17
731.999	40.89
732.181	40.95
732.362	39.95
732.544	40.42
732.725	39.63
732.907	40.59
733.088	40.94
733.27	40.41
733.451	40.86
733.633	40.6
733.814	40.79
733.995	39.81
734.177	40.54
734.358	39.84
734.539	40.29
734.721	40
734.902	38.07
735.083	37.2
735.264	37.39
735.446	37.77
735.627	37.41
735.808	37.44
735.989	38.9
736.17	37.93
736.351	39.48
736.533	39.47
736.714	39.72
736.895	40.71
737.076	41.85
737.257	42.43
737.438	42.26
737.619	42.01
737.8	41.33
737.981	40.93
738.162	41.22
738.343	41.11
738.524	40.47
738.705	41.23
738.886	40.96
739.067	40.92
739.247	41.29
739.428	41.01
739.609	42.12
739.79	43.24
739.971	42.77
740.151	42.86
740.332	42.61
740.513	43.65
740.694	42
740.874	42.33
741.055	42.31
741.236	41.57
741.417	41.82
741.597	41.06
741.778	40.47
741.958	40.17
742.139	40.66
742.32	40.72
742.5	40.16
742.681	41
742.861	40.14
743.042	39.78
743.222	39.54
743.403	39.85
743.583	41.49
743.764	40.88
743.944	41.01
744.124	41.37
744.305	41.27
744.485	40.64
744.666	40.44
744.846	41.59
745.026	41.29
745.207	41.87
745.387	40.52
745.567	39.27
745.747	39.88
745.928	41.28
746.108	39.48
746.288	38.91
746.468	39.46
746.648	39.96
746.829	39.28
747.009	39.51
747.189	40.39
747.369	39.92
747.549	39.51
747.729	39.89
747.909	39.1
748.089	39.47
748.269	40.73
748.449	40.86
748.629	41.11
748.809	40.2
748.989	39.95
749.169	38.36
749.349	40.06
749.529	39.67
749.709	39.47
749.889	39.24
750.068	39.84
750.248	39.02
750.428	39.36
750.608	38.91
750.788	39.64
750.967	39.47
751.147	40.88
751.327	39.84
751.507	39.66
751.686	39.64
751.866	39.55
752.046	38.88
752.225	39.33
752.405	39.75
752.585	40.75
752.764	41.03
752.944	42.41
753.123	41.51
753.303	42.32
753.482	42.81
753.662	42.74
753.841	43.22
754.021	43.16
754.2	42.44
754.38	41.96
754.559	40.03
754.739	39.01
754.918	37.86
755.097	39.13
755.277	38.44
755.456	39.6
755.635	38.51
755.815	38.47
755.994	39.23
756.173	38.73
756.352	39.04
756.532	39.43
756.711	40.64
756.89	39.96
757.069	39.15
757.248	39.74
757.427	38.77
757.607	40.42
757.786	40.74
757.965	40.54
758.144	41.19
758.323	41.68
758.502	41.28
758.681	41.11
758.86	41.73
759.039	41.57
759.218	40.99
759.397	41.07
759.576	40.44
759.755	40.2
759.934	41.01
760.113	42.01
760.291	40.41
760.47	41.44
760.649	41.26
760.828	41.96
761.007	42.72
761.186	42.67
761.364	42.8
761.543	42.95
761.722	43.24
761.901	42.74
762.079	41.98
762.258	42.25
762.437	41.9
762.615	41.59
762.794	41.13
762.972	40.48
763.151	40.43
763.33	40.5
763.508	40.73
763.687	40.11
763.865	40.14
764.044	40.37
764.222	40.61
764.401	41.53
764.579	42.08
764.758	41.83
764.936	41.04
765.114	42.1
765.293	41.35
765.471	41.34
765.65	42.04
765.828	41.45
766.006	40.99
766.184	41.09
766.363	39.69
766.541	38.7
766.719	39.56
766.898	40.73
767.076	40.5
767.254	41.83
767.432	42.19
767.61	42.06
767.788	42.33
767.967	42.87
768.145	42.31
768.323	41.6
768.501	42.61
768.679	40.72
768.857	40.72
769.035	41.2
769.213	40.39
769.391	39.41
769.569	38.72
769.747	39.2
769.925	38.25
770.103	38.13
770.281	39.56
770.459	39.19
770.636	42.49
770.814	42.11
770.992	42.01
771.17	41.9
771.348	41.28
771.525	41.79
771.703	42.28
771.881	42.71
772.059	45.52
772.236	45.89
772.414	45.99
772.592	44.24
772.769	45.82
772.947	43.91
773.125	44.05
773.302	43.76
773.48	43.26
773.657	43.25
773.835	42.48
774.013	40.78
774.19	39.8
774.368	38.36
774.545	39.03
774.723	38.25
774.9	39.86
775.077	40.99
775.255	41.47
775.432	41.36
775.61	41.12
775.787	43.74
775.964	43.03
776.142	43.15
776.319	45.2
776.496	44.17
776.674	43.51
776.851	42.88
777.028	42.11
777.205	43.19
777.382	43.79
777.56	43.92
777.737	43.29
777.914	43.62
778.091	45.34
778.268	45.74
778.445	46.29
778.622	46.44
778.8	45.82
778.977	47.32
779.154	43.57
779.331	44.26
779.508	44.44
779.685	44.38
779.862	46.34
780.038	46.14
780.215	45.71
780.392	46.57
780.569	47.36
780.746	47.22
780.923	47.07
781.1	50.01
781.277	48.97
781.453	46.72
781.63	44.15
781.807	41.67
781.984	42.18
782.16	41.53
782.337	41.45
782.514	41.84
782.691	40.95
782.867	40.21
783.044	39.42
783.221	40.13
783.397	41.2
783.574	42.15
783.75	43.23
783.927	41.92
784.103	43.54
784.28	41.58
784.456	39.82
784.633	41.95
784.809	41.27
784.986	42.89
785.162	41.1
785.339	40.95
785.515	42.22
785.692	41.24
785.868	41.86
786.044	42.41
786.221	41.37
786.397	43.05
786.573	43.34
786.749	41.55
786.926	41.89
787.102	47
787.278	47.4
787.454	47.77
787.631	48.34
787.807	48.29
787.983	47.49
788.159	49.55
788.335	49.19
788.511	47.97
788.687	49.24
788.863	48.18
789.039	44.08
789.216	44.33
789.392	43.18
789.568	43.04
789.744	44.1
789.919	42.15
790.095	43.34
790.271	43.96
790.447	43.83
790.623	42.69
790.799	44.47
790.975	44.7
791.151	46.52
791.327	48.31
791.502	50.07
791.678	49.29
791.854	50.23
792.03	50.13
792.205	48.38
792.381	47.52
792.557	49.52
792.733	48.09
792.908	49.56
793.084	47.9
793.259	49.26
793.435	46.32
793.611	45.77
793.786	46.72
793.962	45.17
794.137	45.29
794.313	44.01
794.488	42.31
794.664	43.01
794.839	42.28
795.015	41.68
795.19	39.85
795.366	40.12
795.541	39.49
795.716	38.84
795.892	38.95
796.067	38.75
796.242	41.25
796.418	41.04
796.593	40.46
796.768	40.56
796.944	40.14
797.119	38.49
797.294	39.3
797.469	40.04
797.644	40.27
797.82	41.68
797.995	41.5
798.17	43.54
798.345	45.6
798.52	45.43
798.695	45.48
798.87	44.62
799.045	44.95
799.22	45.88
799.395	45.3
799.57	43.43
799.745	42.86
799.92	42.15
800.095	39.63
800.27	39.44
800.445	38.38
800.62	37.52
800.795	39.61
800.97	39.21
801.145	38.56
801.319	39.6
801.494	40.39
801.669	40.62
801.844	42.3
802.018	44.08
802.193	42.34
802.368	45.78
802.543	46.98
802.717	47.39
802.892	48.11
803.067	47.03
803.241	47.81
803.416	47.24
803.59	46.65
803.765	45.55
803.94	44.05
804.114	42
804.289	40.56
804.463	41.39
804.638	41.6
804.812	40.35
804.986	42.01
805.161	40.05
805.335	42.02
805.51	39.64
805.684	39.99
805.858	39.47
806.033	42.63
806.207	43.53
806.381	43.45
806.556	41.9
806.73	41.35
806.904	39.36
807.078	40.92
807.253	40.09
807.427	41.69
807.601	41.47
807.775	41.37
807.949	42.72
808.123	41.96
808.298	40.98
808.472	40.97
808.646	42.25
808.82	44.38
808.994	43.43
809.168	44.35
809.342	48.4
809.516	49.14
809.69	51.27
809.864	50.65
810.038	48.43
810.212	49.97
810.385	49.36
810.559	49.87
810.733	48.6
810.907	49.4
811.081	47.04
811.255	42.51
811.428	43.61
811.602	42.28
811.776	40.75
811.95	41.32
812.123	41.52
812.297	42.41
812.471	43.63
812.644	45.18
812.818	46.07
812.992	49.33
813.165	51.74
813.339	51.09
813.512	50.9
813.686	51.95
813.86	52.63
814.033	50.14
814.207	51.79
814.38	53.91
814.554	53.82
814.727	51.67
814.9	49.42
815.074	47.21
815.247	46.4
815.421	45.39
815.594	45.42
815.767	47.63
815.941	46.25
816.114	45.93
816.287	43.22
816.46	42.28
816.634	44.51
816.807	45.82
816.98	47.63
817.153	47.54
817.327	48.95
817.5	50.27
817.673	50.47
817.846	51.92
818.019	49.44
818.192	52.55
818.365	49.88
818.538	49.64
818.711	48.77
818.884	47.85
819.057	48.43
819.23	45.11
819.403	44.27
819.576	42.22
819.749	42.16
819.922	43.03
820.095	39.95
820.268	41.9
820.441	40.04
820.614	41.42
820.786	42.47
820.959	40.92
821.132	42.2
821.305	42.2
821.477	41.32
821.65	40.8
821.823	40.35
821.996	40.11
822.168	39.86
822.341	39.71
822.514	39.7
822.686	40.02
822.859	40.33
823.031	40.05
823.204	40.17
823.376	39.51
823.549	40.01
823.722	39.66
823.894	39.89
824.067	40.73
824.239	41.13
824.411	40.41
824.584	40.28
824.756	40.76
824.929	41.11
825.101	40.58
825.273	41.8
825.446	42.02
825.618	43.25
825.79	43.53
825.963	41.9
826.135	41.59
826.307	42.05
826.479	40.96
826.652	40.6
826.824	40.29
826.996	40.69
827.168	41.36
827.34	41.36
827.512	40.73
827.684	40.69
827.856	41.92
828.029	42.11
828.201	42.08
828.373	42.17
828.545	42.27
828.717	42.98
828.889	43.83
829.061	43.15
829.232	43.52
829.404	43.19
829.576	42.92
829.748	42.94
829.92	43.52
830.092	44.45
830.264	46.19
830.436	46.29
830.607	46.26
830.779	44.9
830.951	46.23
831.123	45.84
831.294	45.87
831.466	46.68
831.638	46.53
831.809	46.89
831.981	46.54
832.153	46.27
832.324	48.23
832.496	46.56
832.667	48.79
832.839	45.79
833.011	45.93
833.182	47.36
833.354	45.68
833.525	44.46
833.697	45.16
833.868	45.12
834.039	45.28
834.211	42.03
834.382	42.99
834.554	42.04
834.725	44.55
834.896	44.59
835.068	44.23
835.239	45.27
835.41	45.73
835.581	44.33
835.753	44.12
835.924	42.27
836.095	44.43
836.266	44.58
836.438	43.72
836.609	40.39
836.78	39.88
836.951	38.61
837.122	39.02
837.293	39.73
837.464	39.21
837.635	37.14
837.806	40.71
837.977	41.64
838.148	40.36
838.319	43.24
838.49	44.2
838.661	43.93
838.832	44.96
839.003	45.15
839.174	44.92
839.345	47
839.516	48.73
839.687	47.75
839.857	45.09
840.028	50.66
840.199	47.73
840.37	48.61
840.54	47.35
840.711	47.23
840.882	43.69
841.053	43.41
841.223	47.93
841.394	49.67
841.564	45.77
841.735	45.58
841.906	45.01
842.076	44.77
842.247	45.65
842.417	50.01
842.588	50.46
842.758	51.15
842.929	50.18
843.099	41.15
843.27	44.03
843.44	47.63
843.611	49.7
843.781	45.03
843.951	44.61
844.122	48.09
844.292	42.37
844.462	47.6
844.633	49.39
844.803	53.11
844.973	58.04
845.144	54.9
845.314	51.09
845.484	44.12
845.654	44.01
845.824	46.53
845.995	42.72
846.165	40.5
846.335	38.46
846.505	42.06
846.675	35.67
846.845	35.84
847.015	38.54
847.185	47.11
847.355	52.28
847.525	55.21
847.695	51.62
847.865	51.66
848.035	62.06
848.205	55.68
848.375	57.44
848.545	68.2
848.715	67.86
848.884	61.98
849.054	62.7
849.224	61.09
849.394	61.51
849.564	58.4
849.733	53.87
849.903	53.1
850.073	57.23
850.243	47.53
850.412	39.95
850.582	35.8
850.752	38.08
850.921	32.71
851.091	31.59
851.26	31.39
851.43	33.06
851.599	34.6
851.769	30.77
851.939	33.58
852.108	36.11
852.278	41.51
852.447	46.18
852.616	47.83
852.786	48.44
852.955	57.04
853.125	59.85
853.294	62.93
853.463	66.65
853.633	65.87
853.802	60.3
853.971	60.98
854.141	51.18
854.31	49.42
854.479	46.99
854.648	47.74
854.818	41.97
854.987	42.93
855.156	43.24
855.325	42.99
855.494	43.16
855.663	47.08
855.832	46.73
856.001	49.77
856.171	48.95
856.34	46.74
856.509	44.11
856.678	43.79
856.847	38.92
857.016	39.3
857.185	39.1
857.353	36.3
857.522	35.42
857.691	37.53
857.86	33.86
858.029	33.67
858.198	44.91
858.367	49.42
858.535	44.21
858.704	47.67
858.873	50.74
859.042	61.7
859.21	63.17
859.379	51.68
859.548	54.74
859.717	63.25
859.885	66.71
860.054	62.76
860.222	55.06
860.391	60.4
860.56	60.89
860.728	59.94
860.897	51.79
861.065	53.95
861.234	60.57
861.402	57.36
861.571	51.64
861.739	45.41
861.908	38.65
862.076	42.01
862.244	50.61
862.413	45.97
862.581	39.81
862.749	38.59
862.918	42.37
863.086	43.48
863.254	38.85
863.423	47.91
863.591	51.51
863.759	48.05
863.927	42.44
864.096	33.18
864.264	32.03
864.432	34.15
864.6	36.89
864.768	33.4
864.936	20.79
865.104	24.58
865.272	17.87
865.44	14.07
865.608	16.86
865.776	27.54
865.944	27.87
866.112	33.96
866.28	40.12
866.448	49.02
866.616	41.51
866.784	45.98
866.952	49.12
867.12	49.29
867.288	50.43
867.455	63.56
867.623	67.5
867.791	73.76
867.959	71.47
868.127	61.66
868.294	57.8
868.462	73.02
868.63	82.99
868.797	82.52
868.965	77.92
869.133	79.82
869.3	64.03
869.468	59.23
869.636	57.59
869.803	60.88
869.971	69.61
870.138	66.45
870.306	59.08
870.473	59.82
870.641	61.3
870.808	62.14
870.975	57.67
871.143	56.91
871.31	48.89
871.478	51.67
871.645	47.09
871.812	43.67
871.98	44.89
872.147	49.65
872.314	37.83
872.482	29.98
872.649	37.76
872.816	42.38
872.983	53.59
873.15	70.76
873.318	62.65
873.485	65.8
873.652	58.61
873.819	55.03
873.986	55.14
874.153	59.67
874.32	60.21
874.487	55.68
874.654	60
874.821	64.52
874.988	55.56
875.155	55.63
875.322	46.47
875.489	56.42
875.656	55.19
875.823	56.26
875.99	57.64
876.157	58.5
876.324	59.13
876.49	55
876.657	53.45
876.824	58.85
876.991	61.07
877.157	68.36
877.324	56.55
877.491	64.09
877.658	69.63
877.824	67.75
877.991	64.35
878.157	69.62
878.324	62.68
878.491	55.14
878.657	53.54
878.824	58.01
878.99	64.37
879.157	59.53
879.323	49.59
879.49	48.07
879.656	48.68
879.823	44.96
879.989	43.06
880.156	47.01
880.322	45.29
880.488	42.84
880.655	41.79
880.821	37.93
880.987	41.37
881.154	47.69
881.32	46.68
881.486	49.94
881.652	48.24
881.819	47.21
881.985	44.55
882.151	44.64
882.317	49.39
882.483	46.38
882.649	47.09
882.816	47.15
882.982	45.86
883.148	43.96
883.314	42.83
883.48	42.7
883.646	43
883.812	42.83
883.978	43.25
884.144	41.7
884.31	42.73
884.476	42.92
884.642	42.76
884.807	43.75
884.973	44.85
885.139	44.82
885.305	46.49
885.471	46.24
885.637	48.49
885.802	48.39
885.968	48.05
886.134	49.25
886.3	48.16
886.465	48.74
886.631	47.2
886.797	46.32
886.962	46.56
887.128	46.9
887.293	48.84
887.459	50.19
887.625	50.45
887.79	51.02
887.956	49.51
888.121	52.82
888.287	53.11
888.452	56
888.618	59.1
888.783	60.42
