Data from CB_073_Reflection_1.txt Node
Date: Sat Nov 14 11:17:27 EST 2015
User: robert
Spectrometer: USB4E03001
Autoset integration time: false
Trigger mode: 4
Integration Time (sec): 1.000000E-1
Scans to average: 15
Electric dark correction enabled: true
Nonlinearity correction enabled: false
Boxcar width: 5
Stray light correction enabled: false
XAxis mode: Wavelengths
Stop averaging: false
Number of Pixels in Spectrum: 3648
>>>>>Begin Spectral Data<<<<<
177.566	-325.39
177.785	-526.04
178.005	-1700.52
178.225	-400.92
178.445	-343.57
178.665	-532.87
178.885	-11.43
179.105	-136.78
179.324	-183.52
179.544	-431.55
179.764	-132.95
179.984	-154.11
180.204	-185.56
180.423	-562.43
180.643	-226.93
180.863	-340.1
181.083	-1315.5
181.302	-5584.92
181.522	697.58
181.742	865
181.961	894.78
182.181	141.25
182.401	128.65
182.621	219.18
182.84	917.04
183.06	-3346.1
183.279	-376.97
183.499	-247.27
183.719	-306.76
183.938	-165.77
184.158	-119.76
184.377	-99.21
184.597	-40.59
184.816	-19.6
185.036	-35.09
185.256	-68.74
185.475	-197.59
185.695	-143.84
185.914	-123.84
186.134	-121.01
186.353	-109.68
186.572	-104.75
186.792	-380.08
187.011	2874.79
187.231	-1575.65
187.45	-271.53
187.67	-1006.01
187.889	475.08
188.108	293.53
188.328	263.42
188.547	186.57
188.766	165.87
188.986	142.33
189.205	142.67
189.424	177.51
189.644	159.57
189.863	213.51
190.082	224.79
190.302	289.25
190.521	198.7
190.74	196.61
190.959	684.09
191.178	599.52
191.398	525.3
191.617	1432.5
191.836	5313.98
192.055	983.48
192.274	278.3
192.494	454.45
192.713	19925
192.932	-1746.57
193.151	293575
193.37	384.99
193.589	-10115.93
193.808	-915.59
194.027	-1594.08
194.246	3038.57
194.465	-2277.99
194.685	571.26
194.904	443.96
195.123	258.74
195.342	233.07
195.561	231.82
195.78	744.66
195.999	1417.37
196.218	411.59
196.436	98.96
196.655	100.88
196.874	36.08
197.093	96.79
197.312	165.38
197.531	260.81
197.75	303.07
197.969	825.05
198.188	153.32
198.407	119.36
198.625	170.99
198.844	249.58
199.063	342.46
199.282	624.91
199.501	-2322.27
199.719	-1587.67
199.938	824.01
200.157	596.41
200.376	-3410.78
200.594	-251.05
200.813	-687.35
201.032	-1687.5
201.251	-801.83
201.469	-736.02
201.688	-1690.44
201.907	3016.22
202.125	897.66
202.344	3399.39
202.563	15737.68
202.781	894.76
203	313.92
203.218	230.76
203.437	353.74
203.656	295.63
203.874	764.21
204.093	621.8
204.311	395.07
204.53	731.24
204.748	181.53
204.967	299.09
205.185	246.49
205.404	317.09
205.622	476.05
205.841	288.98
206.059	204.39
206.278	120.03
206.496	210.19
206.715	264.44
206.933	277.34
207.151	339.89
207.37	234.51
207.588	287.44
207.806	304.49
208.025	474.29
208.243	625.1
208.461	-33109.09
208.68	1129.02
208.898	634.59
209.116	398.43
209.335	248.85
209.553	263.84
209.771	237.02
209.989	189.66
210.208	160
210.426	122.97
210.644	110.57
210.862	126.24
211.081	136.84
211.299	96.68
211.517	126.3
211.735	101.38
211.953	94.09
212.171	102.39
212.39	93.3
212.608	97.57
212.826	117.5
213.044	127.3
213.262	122.51
213.48	128.69
213.698	221.78
213.916	119.05
214.134	236.48
214.352	436.45
214.57	217.13
214.788	232.73
215.006	194.27
215.224	290.23
215.442	740.3
215.66	1483.09
215.878	261.81
216.096	95.78
216.314	497.17
216.532	1861.93
216.75	-456.8
216.968	-774.21
217.185	-7815.04
217.403	2099.68
217.621	-133077.78
217.839	-829.6
218.057	-25358.33
218.275	-1072.33
218.492	-196.16
218.71	-2757.91
218.928	1484.42
219.146	926.46
219.363	511.5
219.581	442.37
219.799	-1916.82
220.017	226.31
220.234	269.31
220.452	321.82
220.67	464
220.887	212.51
221.105	403.05
221.323	275.84
221.54	184.68
221.758	161.87
221.976	148.67
222.193	91.06
222.411	89.08
222.629	80.32
222.846	74.15
223.064	62.15
223.281	62.79
223.499	61.36
223.716	54.31
223.934	46.79
224.151	70.78
224.369	78.26
224.586	107.95
224.804	127.71
225.021	125.73
225.239	118.67
225.456	125.96
225.674	118.41
225.891	108.89
226.108	90.36
226.326	83.3
226.543	68.47
226.76	54.86
226.978	42.71
227.195	48.04
227.413	43.47
227.63	47.55
227.847	41.73
228.064	39.52
228.282	35.08
228.499	35.94
228.716	33.8
228.934	33.28
229.151	34.41
229.368	35.27
229.585	28.72
229.802	26.87
230.02	24.35
230.237	24.24
230.454	21.05
230.671	18.58
230.888	19.31
231.105	18.34
231.323	20.17
231.54	23.19
231.757	21.47
231.974	26.96
232.191	32.54
232.408	29.68
232.625	34.35
232.842	37.38
233.059	40.02
233.276	42.96
233.493	44.41
233.71	40.69
233.927	32.42
234.144	35.94
234.361	36.04
234.578	32.6
234.795	32.44
235.012	29.29
235.229	24.49
235.446	28.59
235.663	28.56
235.879	26.2
236.096	31.98
236.313	41.02
236.53	31.98
236.747	32.3
236.964	32.21
237.181	41.63
237.397	46.28
237.614	60.66
237.831	65.07
238.048	67.04
238.264	67.92
238.481	59.11
238.698	51.52
238.915	56.93
239.131	49.17
239.348	48.94
239.565	44.65
239.781	41.84
239.998	37.58
240.215	31.38
240.431	26.32
240.648	28.37
240.865	28.47
241.081	28.5
241.298	25.93
241.514	26.98
241.731	24.25
241.947	22.34
242.164	20.52
242.38	16.34
242.597	15.42
242.814	15.67
243.03	17.3
243.246	17.14
243.463	17.63
243.679	18.13
243.896	16.48
244.112	17.44
244.329	17.81
244.545	20.92
244.762	21.13
244.978	22.99
245.194	21.58
245.411	17.45
245.627	16.97
245.843	18.21
246.06	17.83
246.276	18.03
246.492	19.11
246.709	18.93
246.925	17.43
247.141	18.55
247.357	18.16
247.574	18.34
247.79	17.86
248.006	17.25
248.222	17.65
248.439	16.95
248.655	16.95
248.871	16.24
249.087	16.43
249.303	17.69
249.519	17.14
249.736	19.41
249.952	21.27
250.168	25.48
250.384	26.23
250.6	24.55
250.816	25.75
251.032	24.77
251.248	24.32
251.464	25.25
251.68	21.15
251.896	21.28
252.112	17.91
252.328	16.6
252.544	16.64
252.76	17.84
252.976	16.99
253.192	15.96
253.408	18.7
253.624	18.58
253.84	18.64
254.056	19.8
254.272	20.43
254.487	18.4
254.703	16.64
254.919	13.73
255.135	16.26
255.351	18
255.567	18.85
255.782	19
255.998	17.91
256.214	12.67
256.43	12.5
256.646	13.07
256.861	17.35
257.077	15.7
257.293	16.72
257.508	16.02
257.724	16.89
257.94	17.04
258.155	14.95
258.371	13.88
258.587	15.26
258.802	16.43
259.018	15.36
259.234	14.51
259.449	15.89
259.665	14.85
259.88	13.87
260.096	12.84
260.312	11.71
260.527	12.15
260.743	12.96
260.958	12.91
261.174	13.82
261.389	14.85
261.605	14.11
261.82	12.88
262.036	13.06
262.251	14.46
262.466	15.27
262.682	16.7
262.897	15.94
263.113	16.42
263.328	15.97
263.543	14.44
263.759	14.21
263.974	16.12
264.189	17.29
264.405	14.97
264.62	13.33
264.835	12.21
265.051	15.29
265.266	15.83
265.481	15.28
265.696	18.54
265.912	17.03
266.127	16.19
266.342	15.74
266.557	15.68
266.773	17.26
266.988	17.22
267.203	17.84
267.418	15.53
267.633	15.7
267.848	15.72
268.064	11.79
268.279	10.76
268.494	8.55
268.709	8.15
268.924	10.75
269.139	9.91
269.354	9.97
269.569	8.35
269.784	9.28
269.999	9.18
270.214	9.82
270.429	11.19
270.644	13.16
270.859	13.73
271.074	14.19
271.289	12.04
271.504	13.95
271.719	13.63
271.934	15.15
272.149	15.25
272.363	16.21
272.578	15.21
272.793	15.31
273.008	14.34
273.223	14.6
273.438	13.49
273.653	13.81
273.867	12.75
274.082	13.48
274.297	13.38
274.512	14.3
274.726	13.67
274.941	13.6
275.156	15.04
275.371	15.49
275.585	16.78
275.8	19.54
276.015	18.99
276.229	20.32
276.444	19.81
276.659	19.29
276.873	17.68
277.088	18.09
277.302	18.88
277.517	16.66
277.732	16.45
277.946	16.05
278.161	14.63
278.375	14.66
278.59	12.83
278.804	13.14
279.019	13.84
279.233	14.23
279.448	11.89
279.662	9.67
279.877	10.22
280.091	9.02
280.306	9.19
280.52	8.14
280.735	7.94
280.949	10.28
281.163	10.14
281.378	8.74
281.592	8.57
281.806	8.75
282.021	10.63
282.235	10.83
282.449	11.94
282.664	10.77
282.878	11.39
283.092	11.27
283.307	9.76
283.521	8.14
283.735	9.53
283.949	9.96
284.164	10.58
284.378	10.13
284.592	10.02
284.806	9.37
285.02	9.66
285.234	8.46
285.449	8.53
285.663	8.82
285.877	9.99
286.091	9.44
286.305	10.04
286.519	10.35
286.733	10.71
286.947	12
287.161	12.17
287.375	11.58
287.589	13.87
287.803	15.11
288.017	15.28
288.231	14.7
288.445	15.04
288.659	14.52
288.873	15.66
289.087	16.72
289.301	16.74
289.515	15.99
289.729	15.86
289.943	15.11
290.157	15.24
290.371	15.48
290.584	16.31
290.798	16.23
291.012	16.38
291.226	15.72
291.44	14.61
291.654	12.67
291.867	12.73
292.081	13.98
292.295	13.36
292.509	12.39
292.722	10.47
292.936	8.84
293.15	8.61
293.364	6.84
293.577	6.72
293.791	7.41
294.005	8.29
294.218	10.72
294.432	10.66
294.645	10.93
294.859	10.42
295.073	11.89
295.286	12.74
295.5	12.55
295.713	12.65
295.927	11.95
296.14	10.36
296.354	9.78
296.568	8.97
296.781	8.46
296.994	8.76
297.208	8.85
297.421	9.14
297.635	10.15
297.848	9.99
298.062	10.33
298.275	11
298.489	12.18
298.702	13.23
298.915	12.57
299.129	13.2
299.342	13.48
299.555	14.36
299.769	14.16
299.982	12.3
300.195	13.14
300.409	13.66
300.622	12.73
300.835	11.43
301.048	10.17
301.262	10.8
301.475	10.85
301.688	10.52
301.901	10.29
302.115	9.83
302.328	10.82
302.541	10.09
302.754	10.44
302.967	11.14
303.18	12.22
303.393	12.15
303.607	12.14
303.82	11.55
304.033	11.6
304.246	12.37
304.459	12.65
304.672	12.63
304.885	13.72
305.098	13.19
305.311	13.17
305.524	13.14
305.737	13.22
305.95	13.87
306.163	14.46
306.376	14.68
306.589	13.71
306.802	14.12
307.015	14.6
307.228	14.22
307.44	14.4
307.653	14.43
307.866	14.49
308.079	15.36
308.292	13.71
308.505	13.85
308.718	14.3
308.93	15.48
309.143	15.63
309.356	15.21
309.569	15.36
309.781	15.37
309.994	15.87
310.207	15.99
310.42	15.05
310.632	15.88
310.845	15.55
311.058	15.12
311.27	14.16
311.483	13.65
311.696	13.08
311.908	12.33
312.121	12.51
312.333	12.75
312.546	12.03
312.759	11.87
312.971	11.42
313.184	12.28
313.396	12.09
313.609	12.04
313.821	12.43
314.034	13.06
314.246	12.97
314.459	12.89
314.671	11.27
314.884	11.94
315.096	12.78
315.309	13.18
315.521	12.88
315.733	12.79
315.946	12.44
316.158	11.91
316.371	11.98
316.583	11.61
316.795	10.35
317.008	12.16
317.22	11.39
317.432	11.82
317.644	12.59
317.857	12.67
318.069	13.1
318.281	13.8
318.494	14.76
318.706	15.71
318.918	17.39
319.13	17.84
319.342	16.49
319.555	16.12
319.767	16.24
319.979	15.14
320.191	13.77
320.403	14.73
320.615	16.29
320.827	15.4
321.039	13.51
321.252	15.01
321.464	16.03
321.676	16.95
321.888	18.51
322.1	18.81
322.312	18.69
322.524	19.51
322.736	17.77
322.948	17.27
323.16	17.88
323.372	19.9
323.584	18.56
323.796	18.89
324.007	18.54
324.219	18.74
324.431	19.58
324.643	21.88
324.855	24.08
325.067	24.5
325.279	23.33
325.491	24.18
325.702	24.42
325.914	24.63
326.126	25.48
326.338	24.05
326.55	23.79
326.761	22.84
326.973	21.85
327.185	20.41
327.396	21.96
327.608	24.21
327.82	23.51
328.032	23.34
328.243	24.12
328.455	24.61
328.666	27.12
328.878	27.61
329.09	29.2
329.301	29.35
329.513	29.75
329.725	29.1
329.936	28.03
330.148	27.78
330.359	28.66
330.571	29.28
330.782	28.66
330.994	29.72
331.205	30.24
331.417	30.46
331.628	30.56
331.84	32.03
332.051	33.56
332.262	34.46
332.474	35.26
332.685	35.95
332.897	35.67
333.108	36.07
333.319	34.68
333.531	35.57
333.742	34.8
333.953	35.47
334.165	34.94
334.376	35.19
334.587	36.09
334.799	35.88
335.01	34.81
335.221	34.12
335.432	32.94
335.644	33.71
335.855	33.77
336.066	34.6
336.277	35.57
336.488	35.15
336.7	34.25
336.911	33.66
337.122	34.05
337.333	34.48
337.544	35
337.755	35.55
337.966	35.39
338.177	34.27
338.388	33.48
338.599	32.33
338.811	31.51
339.022	31.33
339.233	30.88
339.444	30.39
339.655	29.53
339.866	30.08
340.076	29.75
340.287	28.5
340.498	28.71
340.709	29.66
340.92	30.27
341.131	31
341.342	30.88
341.553	30.33
341.764	31.9
341.975	32.41
342.185	31.47
342.396	31.78
342.607	32.76
342.818	33.11
343.029	32.74
343.239	32.45
343.45	32.73
343.661	33.1
343.872	33.58
344.082	32.73
344.293	32.33
344.504	32.4
344.714	32.43
344.925	32.71
345.136	32.13
345.346	30.8
345.557	30.12
345.768	29.66
345.978	29.95
346.189	29.91
346.399	29.12
346.61	28.52
346.821	28.28
347.031	28.72
347.242	28.58
347.452	28.25
347.663	28.95
347.873	29.31
348.084	29.35
348.294	28.37
348.504	27.98
348.715	28.98
348.925	29.78
349.136	28.83
349.346	28.04
349.557	27.71
349.767	29.28
349.977	29.66
350.188	29.5
350.398	30.04
350.608	30.56
350.819	31.31
351.029	31.07
351.239	31.69
351.449	32.94
351.66	32.89
351.87	32.79
352.08	31.87
352.29	32.3
352.501	31.86
352.711	30.71
352.921	31.02
353.131	29.36
353.341	29.13
353.552	28.07
353.762	27.34
353.972	27.42
354.182	28.56
354.392	28.25
354.602	28.04
354.812	28.45
355.022	28.49
355.232	28.66
355.442	29.7
355.652	29.76
355.862	29.72
356.072	30.53
356.282	30.29
356.492	29.12
356.702	28.94
356.912	28.78
357.122	30.02
357.332	29.87
357.542	29.39
357.752	28.81
357.962	28.91
358.171	29.22
358.381	28.43
358.591	28.66
358.801	28.75
359.011	28.83
359.221	28.05
359.43	26.84
359.64	26.68
359.85	26.13
360.06	26.66
360.269	26.33
360.479	26.23
360.689	26.46
360.899	26.54
361.108	26.51
361.318	26.27
361.528	26.78
361.737	26.59
361.947	26.93
362.156	27.11
362.366	26.73
362.576	26.53
362.785	26.5
362.995	26.33
363.204	26.3
363.414	26.43
363.623	26.56
363.833	26.7
364.042	26.69
364.252	26.8
364.461	26.58
364.671	26.57
364.88	26.8
365.09	27.05
365.299	26.94
365.509	26.95
365.718	26.1
365.927	26.37
366.137	25.53
366.346	25.91
366.555	25.09
366.765	25.4
366.974	25.53
367.183	24.1
367.393	22.53
367.602	22.56
367.811	22.58
368.021	23.57
368.23	23.41
368.439	23.7
368.648	22.65
368.857	22.98
369.067	22.7
369.276	22.59
369.485	23.95
369.694	25.76
369.903	26.2
370.112	25.91
370.321	25.31
370.531	24.79
370.74	24.77
370.949	25.18
371.158	25.16
371.367	24.91
371.576	24.86
371.785	24.54
371.994	24
372.203	23.49
372.412	23.3
372.621	23.66
372.83	24.21
373.039	24.39
373.248	24.08
373.457	24.57
373.666	24.38
373.874	23.84
374.083	23.59
374.292	23.45
374.501	23.45
374.71	23.35
374.919	23.04
375.128	22.66
375.336	22.33
375.545	22.62
375.754	22.12
375.963	22.2
376.171	22.51
376.38	22.35
376.589	21.56
376.798	20.84
377.006	21.08
377.215	21.18
377.424	21.26
377.632	20.69
377.841	20.53
378.05	20.59
378.258	20.84
378.467	20.44
378.675	20.48
378.884	21.36
379.093	21.43
379.301	21.26
379.51	20.85
379.718	20.8
379.927	21.38
380.135	21
380.344	20.07
380.552	20.24
380.761	20.26
380.969	20.12
381.177	19.48
381.386	20.36
381.594	19.73
381.803	19.62
382.011	19.31
382.219	18.99
382.428	19.25
382.636	19.68
382.845	18.56
383.053	19.2
383.261	19.41
383.469	19.51
383.678	19.12
383.886	19.13
384.094	19.28
384.302	19.34
384.511	19.43
384.719	19.39
384.927	19.36
385.135	19.99
385.343	19.31
385.552	18.95
385.76	18.74
385.968	18.14
386.176	18.06
386.384	17.61
386.592	17.25
386.8	17.01
387.008	16.81
387.216	16.62
387.424	16.58
387.633	16.67
387.841	17.04
388.049	17.61
388.257	17.69
388.465	17.42
388.672	17.79
388.88	17.81
389.088	17.68
389.296	17.58
389.504	17.5
389.712	17.34
389.92	17.12
390.128	17.02
390.336	16.44
390.544	16.52
390.751	16.82
390.959	16.33
391.167	16.29
391.375	16.17
391.583	15.74
391.79	15.88
391.998	15.82
392.206	15.75
392.414	15.23
392.621	15.31
392.829	15.3
393.037	14.91
393.244	14.82
393.452	14.75
393.66	14.89
393.867	15.11
394.075	14.89
394.283	14.4
394.49	14.08
394.698	14.29
394.905	14.1
395.113	14.08
395.32	14.06
395.528	14.26
395.735	14.27
395.943	13.96
396.15	13.93
396.358	13.77
396.565	13.89
396.773	13.94
396.98	13.68
397.188	13.71
397.395	13.51
397.602	13.81
397.81	13.44
398.017	13.4
398.225	13.88
398.432	13.9
398.639	13.72
398.847	13.57
399.054	13.76
399.261	13.84
399.468	13.45
399.676	13.44
399.883	13.05
400.09	13.18
400.297	13.07
400.505	13.01
400.712	12.94
400.919	13.38
401.126	13.58
401.333	13.45
401.54	13.41
401.748	13.76
401.955	13.71
402.162	13.67
402.369	13.6
402.576	13.7
402.783	13.15
402.99	13.44
403.197	12.94
403.404	12.89
403.611	13
403.818	13.09
404.025	12.66
404.232	12.81
404.439	12.91
404.646	12.92
404.853	12.6
405.06	12.8
405.267	12.48
405.474	12.63
405.681	12.88
405.887	12.43
406.094	12.54
406.301	12.65
406.508	12.79
406.715	13.08
406.922	12.92
407.128	13.43
407.335	13.23
407.542	13.14
407.749	13.42
407.955	13.3
408.162	13.45
408.369	13.11
408.575	13.45
408.782	13.25
408.989	12.77
409.195	12.9
409.402	12.63
409.609	12.38
409.815	12.38
410.022	12.04
410.228	12.15
410.435	12.35
410.642	12.63
410.848	12.43
411.055	12.26
411.261	12.49
411.468	12.71
411.674	12.51
411.881	12.67
412.087	12.56
412.294	12.81
412.5	12.66
412.706	12.64
412.913	12.26
413.119	12.12
413.326	11.8
413.532	11.67
413.738	11.26
413.945	10.83
414.151	11.24
414.357	11.38
414.564	11.21
414.77	11.1
414.976	10.96
415.182	11.46
415.389	11.42
415.595	11.42
415.801	11.32
416.007	11.61
416.214	11.75
416.42	11.51
416.626	11.44
416.832	11.43
417.038	11.25
417.244	11.31
417.45	10.86
417.657	10.86
417.863	10.69
418.069	10.8
418.275	10.75
418.481	10.73
418.687	10.68
418.893	10.6
419.099	10.57
419.305	10.57
419.511	10.53
419.717	10.54
419.923	10.39
420.129	10.53
420.335	10.54
420.541	10.56
420.746	10.63
420.952	10.66
421.158	10.66
421.364	10.51
421.57	10.47
421.776	10.44
421.982	10.58
422.187	10.56
422.393	10.5
422.599	10.44
422.805	10.31
423.01	10.29
423.216	10.12
423.422	10.22
423.628	10.31
423.833	10.27
424.039	10.21
424.245	10.19
424.45	10.22
424.656	10.2
424.862	10.2
425.067	10.11
425.273	10.13
425.478	10.15
425.684	9.99
425.889	10.05
426.095	10.19
426.301	10.23
426.506	10.08
426.712	10.14
426.917	10.29
427.123	10.15
427.328	10.24
427.533	10.2
427.739	10.28
427.944	10.42
428.15	10.35
428.355	9.96
428.561	9.96
428.766	9.95
428.971	9.84
429.177	9.66
429.382	9.73
429.587	9.87
429.793	9.78
429.998	9.69
430.203	9.49
430.408	9.57
430.614	9.99
430.819	9.7
431.024	9.65
431.229	9.67
431.434	9.71
431.64	9.57
431.845	9.61
432.05	9.69
432.255	9.53
432.46	9.76
432.665	9.46
432.87	9.3
433.076	9.51
433.281	9.68
433.486	9.57
433.691	9.66
433.896	9.69
434.101	9.4
434.306	9.35
434.511	9.52
434.716	9.4
434.921	9.66
435.126	9.75
435.331	9.59
435.535	9.63
435.74	9.62
435.945	9.56
436.15	9.58
436.355	9.76
436.56	9.88
436.765	10.05
436.97	9.91
437.174	9.94
437.379	9.83
437.584	9.93
437.789	9.81
437.993	10.03
438.198	9.85
438.403	9.86
438.608	9.81
438.812	9.66
439.017	9.47
439.222	9.49
439.426	9.38
439.631	9.34
439.836	9.38
440.04	9.34
440.245	9.4
440.45	9.68
440.654	9.63
440.859	9.54
441.063	9.57
441.268	9.58
441.472	9.57
441.677	9.42
441.881	9.44
442.086	9.5
442.29	9.46
442.495	9.36
442.699	9.28
442.904	9.35
443.108	9.48
443.312	9.48
443.517	9.54
443.721	9.63
443.925	9.77
444.13	9.75
444.334	9.48
444.538	9.55
444.743	9.51
444.947	9.38
445.151	9.37
445.356	9.3
445.56	9.37
445.764	9.19
445.968	9.16
446.173	9.16
446.377	9.03
446.581	9.18
446.785	9.15
446.989	9.23
447.193	9.15
447.398	9.25
447.602	9.09
447.806	8.99
448.01	9.17
448.214	9.33
448.418	9.2
448.622	9.44
448.826	9.42
449.03	9.4
449.234	9.39
449.438	9.59
449.642	9.4
449.846	9.65
450.05	9.6
450.254	9.38
450.458	9.15
450.662	9.34
450.866	9.07
451.069	9.11
451.273	9.12
451.477	8.97
451.681	8.95
451.885	8.91
452.089	9.01
452.292	8.99
452.496	9.06
452.7	9.13
452.904	9.26
453.107	9.45
453.311	9.42
453.515	9.4
453.719	9.56
453.922	9.61
454.126	9.78
454.33	9.53
454.533	9.59
454.737	9.55
454.94	9.53
455.144	9.52
455.348	9.47
455.551	9.4
455.755	9.38
455.958	9.38
456.162	9.31
456.365	9.26
456.569	9.17
456.772	9.08
456.976	9.31
457.179	9.33
457.383	9.18
457.586	9.14
457.79	9.19
457.993	9.21
458.196	9.06
458.4	9.17
458.603	9.04
458.807	9
459.01	9.11
459.213	8.82
459.417	8.88
459.62	8.86
459.823	8.88
460.026	8.78
460.23	8.74
460.433	8.75
460.636	8.71
460.839	8.75
461.042	8.74
461.246	8.77
461.449	8.99
461.652	8.94
461.855	9.01
462.058	9.13
462.261	9.42
462.464	9.35
462.668	9.35
462.871	9.37
463.074	9.35
463.277	9.58
463.48	9.41
463.683	9.41
463.886	9.21
464.089	9.15
464.292	8.96
464.495	8.67
464.698	8.69
464.901	8.58
465.104	8.44
465.306	8.4
465.509	8.43
465.712	8.7
465.915	8.68
466.118	8.66
466.321	8.76
466.524	8.76
466.726	8.79
466.929	8.88
467.132	8.99
467.335	9.14
467.538	9.14
467.74	9.2
467.943	9.05
468.146	8.97
468.348	9.18
468.551	8.98
468.754	8.94
468.956	9.06
469.159	8.91
469.362	9.05
469.564	8.97
469.767	9.16
469.969	9.1
470.172	9.22
470.375	9.36
470.577	9.42
470.78	9.58
470.982	9.62
471.185	9.62
471.387	9.83
471.59	9.64
471.792	9.52
471.995	9.55
472.197	9.47
472.399	9.43
472.602	9.37
472.804	9.26
473.007	9.22
473.209	9.2
473.411	9.13
473.614	9.28
473.816	9.25
474.018	9.43
474.22	9.43
474.423	9.3
474.625	9.24
474.827	9.3
475.03	9.25
475.232	9.28
475.434	9.32
475.636	9.32
475.838	9.06
476.04	9.31
476.243	9.31
476.445	9.14
476.647	9.31
476.849	9.36
477.051	9.28
477.253	9.54
477.455	9.43
477.657	9.58
477.859	9.49
478.061	9.52
478.263	9.46
478.465	9.22
478.667	9.05
478.869	8.87
479.071	8.85
479.273	8.74
479.475	8.53
479.677	8.65
479.879	8.53
480.081	8.48
480.283	8.54
480.485	8.37
480.686	8.6
480.888	8.8
481.09	8.93
481.292	8.89
481.494	8.99
481.695	8.96
481.897	8.91
482.099	8.9
482.301	8.95
482.502	8.89
482.704	8.94
482.906	8.84
483.107	8.79
483.309	8.76
483.511	8.71
483.712	8.76
483.914	8.75
484.115	8.7
484.317	8.68
484.519	8.65
484.72	8.65
484.922	8.6
485.123	8.6
485.325	8.65
485.526	8.68
485.728	8.71
485.929	8.62
486.131	8.58
486.332	8.6
486.534	8.61
486.735	8.63
486.936	8.65
487.138	8.64
487.339	8.64
487.541	8.56
487.742	8.51
487.943	8.47
488.144	8.5
488.346	8.58
488.547	8.54
488.748	8.6
488.95	8.6
489.151	8.63
489.352	8.76
489.553	8.79
489.755	8.88
489.956	8.88
490.157	8.85
490.358	8.86
490.559	8.74
490.76	8.96
490.961	8.83
491.163	8.93
491.364	8.87
491.565	8.84
491.766	8.83
491.967	8.78
492.168	8.78
492.369	8.92
492.57	8.94
492.771	9.13
492.972	9.02
493.173	9.12
493.374	9.16
493.575	9.2
493.776	9.2
493.976	9.24
494.177	9.41
494.378	9.49
494.579	9.58
494.78	9.66
494.981	9.52
495.182	9.65
495.382	9.64
495.583	9.48
495.784	9.53
495.985	9.77
496.185	9.73
496.386	9.77
496.587	9.85
496.788	9.73
496.988	9.58
497.189	9.7
497.39	9.6
497.59	9.65
497.791	9.63
497.992	9.61
498.192	9.48
498.393	9.54
498.593	9.53
498.794	9.51
498.994	9.69
499.195	9.75
499.395	9.68
499.596	9.79
499.796	9.74
499.997	10.06
500.197	10.12
500.398	10.15
500.598	10.03
500.799	10.05
500.999	10.09
501.199	9.9
501.4	9.94
501.6	10.02
501.801	10.08
502.001	10.25
502.201	9.96
502.402	9.93
502.602	9.83
502.802	10.06
503.002	10.08
503.203	10.16
503.403	10.36
503.603	10.39
503.803	10.41
504.003	10.44
504.204	10.41
504.404	10.55
504.604	10.73
504.804	11.05
505.004	10.97
505.204	11.03
505.404	11.08
505.604	11.11
505.804	11.33
506.005	11.32
506.205	11.3
506.405	11.52
506.605	11.69
506.805	11.64
507.005	11.6
507.204	11.62
507.404	11.54
507.604	11.62
507.804	11.5
508.004	11.56
508.204	11.63
508.404	11.68
508.604	11.42
508.804	11.36
509.003	11.46
509.203	11.47
509.403	11.56
509.603	11.62
509.803	11.68
510.002	12.02
510.202	12
510.402	12.21
510.602	12.22
510.801	12.28
511.001	12.37
511.201	12.36
511.4	12.32
511.6	12.54
511.8	12.64
511.999	12.74
512.199	12.53
512.398	12.53
512.598	12.47
512.797	12.73
512.997	12.95
513.197	13.03
513.396	13.24
513.596	13.39
513.795	13.41
513.994	13.52
514.194	13.55
514.393	13.72
514.593	13.85
514.792	13.94
514.992	14
515.191	14.07
515.39	14.11
515.59	14.05
515.789	14.23
515.988	14.33
516.188	14.41
516.387	14.57
516.586	14.73
516.786	14.81
516.985	14.96
517.184	14.98
517.383	15.17
517.582	15.32
517.782	15.38
517.981	15.45
518.18	15.45
518.379	15.62
518.578	15.64
518.777	15.75
518.976	15.86
519.176	15.83
519.375	15.81
519.574	15.89
519.773	15.91
519.972	16.08
520.171	16.34
520.37	16.55
520.569	16.72
520.768	16.87
520.967	16.92
521.166	17.08
521.365	17.27
521.564	17.53
521.762	17.73
521.961	17.87
522.16	18.03
522.359	18.01
522.558	17.97
522.757	17.91
522.956	17.85
523.154	17.88
523.353	17.97
523.552	18.07
523.751	18.1
523.949	18.08
524.148	18.14
524.347	18.24
524.546	18.27
524.744	18.54
524.943	18.68
525.142	18.79
525.34	18.89
525.539	18.94
525.737	19.12
525.936	19.27
526.135	19.39
526.333	19.44
526.532	19.44
526.73	19.47
526.929	19.6
527.127	19.66
527.326	19.77
527.524	19.93
527.723	20.06
527.921	20.1
528.12	20.1
528.318	20.07
528.516	20.17
528.715	20.21
528.913	20.25
529.112	20.22
529.31	20.24
529.508	20.28
529.707	20.28
529.905	20.33
530.103	20.3
530.301	20.31
530.5	20.45
530.698	20.45
530.896	20.64
531.094	20.73
531.293	20.84
531.491	21.02
531.689	21.09
531.887	21.19
532.085	21.14
532.283	21.19
532.481	21.37
532.68	21.4
532.878	21.51
533.076	21.53
533.274	21.47
533.472	21.5
533.67	21.48
533.868	21.54
534.066	21.63
534.264	21.74
534.462	21.79
534.66	21.83
534.858	21.85
535.056	21.99
535.253	21.97
535.451	22.15
535.649	22.27
535.847	22.43
536.045	22.62
536.243	22.74
536.441	22.88
536.638	23.1
536.836	23.13
537.034	23.19
537.232	23.19
537.43	23.23
537.627	23.27
537.825	23.4
538.023	23.36
538.22	23.44
538.418	23.41
538.616	23.41
538.813	23.43
539.011	23.52
539.209	23.59
539.406	23.7
539.604	23.99
539.801	24.1
539.999	24.07
540.196	24.06
540.394	24.1
540.591	24.17
540.789	24.26
540.986	24.21
541.184	24.34
541.381	24.43
541.579	24.4
541.776	24.32
541.974	24.4
542.171	24.46
542.368	24.52
542.566	24.5
542.763	24.48
542.96	24.55
543.158	24.75
543.355	24.73
543.552	24.77
543.75	24.99
543.947	25.15
544.144	25.22
544.341	25.28
544.539	25.39
544.736	25.44
544.933	25.48
545.13	25.35
545.327	25.29
545.524	25.33
545.722	25.34
545.919	25.23
546.116	25.15
546.313	25.2
546.51	25.25
546.707	25.31
546.904	25.41
547.101	25.49
547.298	25.62
547.495	25.73
547.692	25.71
547.889	25.65
548.086	25.75
548.283	25.97
548.48	26.06
548.677	26.1
548.874	26.23
549.07	26.31
549.267	26.53
549.464	26.64
549.661	26.47
549.858	26.61
550.055	27.01
550.251	26.92
550.448	26.8
550.645	26.63
550.842	26.81
551.038	26.57
551.235	26.68
551.432	26.46
551.628	26.63
551.825	26.87
552.022	26.94
552.218	26.85
552.415	27.14
552.612	27.29
552.808	27.44
553.005	27.23
553.201	27.29
553.398	27.41
553.594	27.75
553.791	27.78
553.987	27.92
554.184	28.02
554.38	28.01
554.577	27.81
554.773	27.82
554.97	27.7
555.166	27.99
555.362	27.94
555.559	27.88
555.755	27.82
555.952	27.8
556.148	27.86
556.344	27.93
556.541	27.93
556.737	28.12
556.933	28.29
557.129	28.42
557.326	28.38
557.522	28.73
557.718	28.73
557.914	28.74
558.11	28.74
558.307	28.61
558.503	28.49
558.699	28.63
558.895	28.75
559.091	28.83
559.287	29.25
559.483	29.4
559.679	29.41
559.876	29.27
560.072	29.1
560.268	29.2
560.464	29.18
560.66	29.29
560.856	29.42
561.052	29.41
561.247	29.25
561.443	28.98
561.639	28.81
561.835	28.99
562.031	29.23
562.227	29.35
562.423	29.3
562.619	29.38
562.815	29.73
563.01	29.88
563.206	29.9
563.402	29.98
563.598	30.06
563.793	30.23
563.989	30.25
564.185	30.21
564.381	30.28
564.576	30.52
564.772	30.66
564.968	30.46
565.163	30.35
565.359	30.31
565.555	30.4
565.75	30.43
565.946	30.41
566.141	30.34
566.337	30.36
566.532	30.48
566.728	30.35
566.923	30.24
567.119	30.33
567.314	30.37
567.51	30.48
567.705	30.61
567.901	30.71
568.096	30.76
568.292	30.96
568.487	31.03
568.682	31.06
568.878	31.14
569.073	31.32
569.268	31.07
569.464	31.19
569.659	31.17
569.854	30.88
570.05	30.46
570.245	30.5
570.44	30.55
570.635	30.66
570.831	30.7
571.026	30.8
571.221	30.94
571.416	30.99
571.611	31.03
571.806	31.02
572.002	31.33
572.197	31.55
572.392	31.55
572.587	31.57
572.782	31.5
572.977	31.34
573.172	31.28
573.367	31.23
573.562	31.51
573.757	31.61
573.952	31.52
574.147	31.46
574.342	31.67
574.537	31.66
574.732	31.37
574.927	31.46
575.121	31.64
575.316	31.74
575.511	31.64
575.706	31.53
575.901	31.5
576.096	31.75
576.29	31.68
576.485	31.73
576.68	31.82
576.875	31.94
577.069	31.9
577.264	31.78
577.459	31.85
577.654	31.94
577.848	32
578.043	31.97
578.238	31.84
578.432	31.9
578.627	31.72
578.821	31.77
579.016	31.74
579.21	31.87
579.405	32.07
579.6	32
579.794	32.08
579.989	31.95
580.183	32.27
580.378	32.43
580.572	32.8
580.766	33
580.961	32.98
581.155	33.16
581.35	33.24
581.544	33.22
581.738	33.57
581.933	33.41
582.127	33.67
582.321	33.29
582.516	33.29
582.71	33.01
582.904	32.91
583.099	33.03
583.293	33.04
583.487	33.12
583.681	33.4
583.875	32.85
584.07	33.01
584.264	32.99
584.458	33.19
584.652	32.99
584.846	33.4
585.04	33.33
585.234	33.43
585.428	33.53
585.623	33.48
585.817	33.31
586.011	33.5
586.205	33.48
586.399	33.47
586.593	33.32
586.787	33.61
586.981	33.17
587.174	33.36
587.368	33.3
587.562	33.21
587.756	32.92
587.95	32.97
588.144	32.97
588.338	32.91
588.532	32.76
588.725	32.8
588.919	32.98
589.113	33.07
589.307	33.12
589.501	32.83
589.694	33.06
589.888	33.27
590.082	32.97
590.275	32.96
590.469	33.21
590.663	33.43
590.856	33.44
591.05	33.31
591.244	33.12
591.437	33.25
591.631	33.46
591.824	33.21
592.018	33.32
592.212	33.69
592.405	33.9
592.599	33.78
592.792	33.63
592.986	33.8
593.179	33.86
593.372	33.85
593.566	33.31
593.759	33.39
593.953	33.65
594.146	33.47
594.339	33.57
594.533	33.46
594.726	33.42
594.92	33.5
595.113	33.36
595.306	33.38
595.499	33.56
595.693	33.98
595.886	34.07
596.079	34.11
596.272	34.18
596.466	34.02
596.659	34.04
596.852	34.23
597.045	34.25
597.238	34.22
597.431	34.26
597.624	34.47
597.818	34.24
598.011	34.18
598.204	33.87
598.397	34.1
598.59	34.15
598.783	34.24
598.976	34.21
599.169	34.03
599.362	34.22
599.555	34.11
599.748	33.88
599.941	33.85
600.134	34.04
600.326	34.27
600.519	34.37
600.712	34.46
600.905	34.58
601.098	34.51
601.291	34.93
601.483	34.99
601.676	34.9
601.869	34.76
602.062	34.83
602.255	34.82
602.447	34.87
602.64	34.58
602.833	34.43
603.025	34.32
603.218	34.3
603.411	34.17
603.603	34.11
603.796	34.34
603.989	34.35
604.181	34.42
604.374	34.37
604.566	34.36
604.759	34.31
604.951	34.44
605.144	34.45
605.336	34.52
605.529	34.44
605.721	34.45
605.914	34.53
606.106	34.74
606.299	34.94
606.491	35.17
606.683	35.3
606.876	35.21
607.068	35.4
607.26	35.29
607.453	35.32
607.645	35.27
607.837	35.36
608.03	35.14
608.222	34.96
608.414	34.97
608.606	34.77
608.799	34.77
608.991	35.05
609.183	34.87
609.375	35.2
609.567	35.2
609.759	35.54
609.952	35.37
610.144	35.34
610.336	35.33
610.528	35.26
610.72	35.25
610.912	35.33
611.104	35.35
611.296	35.34
611.488	35.26
611.68	35.62
611.872	35.64
612.064	36.02
612.256	36.26
612.448	36.69
612.64	36.94
612.832	36.93
613.023	36.69
613.215	36.86
613.407	36.71
613.599	36.51
613.791	36.18
613.983	35.89
614.174	35.87
614.366	35.56
614.558	35.26
614.75	35.06
614.941	35.02
615.133	35.03
615.325	35.1
615.516	35.71
615.708	35.9
615.9	36.04
616.091	36.04
616.283	35.8
616.475	35.79
616.666	35.77
616.858	36.06
617.049	35.98
617.241	36.21
617.432	35.9
617.624	35.78
617.815	35.48
618.007	35.43
618.198	35.77
618.39	36.11
618.581	36.37
618.773	36.33
618.964	36.03
619.155	36.08
619.347	36.1
619.538	36.55
619.729	36.35
619.921	36.63
620.112	36.78
620.303	36.48
620.494	36.32
620.686	36.08
620.877	36.1
621.068	35.7
621.259	35.61
621.451	35.35
621.642	34.79
621.833	34.73
622.024	34.52
622.215	34.28
622.406	34.35
622.597	33.95
622.788	34.03
622.98	33.84
623.171	34.15
623.362	34.48
623.553	35.07
623.744	35.09
623.935	35.04
624.126	35.22
624.317	35.32
624.508	35.42
624.698	35.57
624.889	35.81
625.08	36.47
625.271	36.72
625.462	36.37
625.653	35.9
625.844	36
626.034	35.98
626.225	36.32
626.416	35.98
626.607	36.12
626.798	36.36
626.988	36.17
627.179	35.91
627.37	35.7
627.56	35.98
627.751	36.21
627.942	36.41
628.132	36.44
628.323	36.02
628.514	36.57
628.704	36.27
628.895	35.84
629.085	35.92
629.276	35.93
629.466	36.16
629.657	36.04
629.847	35.71
630.038	35.82
630.228	36.28
630.419	36.85
630.609	36.59
630.8	36.56
630.99	36.82
631.181	37.16
631.371	37.16
631.561	37.21
631.752	37.42
631.942	37.69
632.132	37.33
632.323	36.88
632.513	36.47
632.703	36.35
632.893	36.46
633.084	36.35
633.274	36.26
633.464	36.13
633.654	36.3
633.844	36.19
634.034	36.11
634.225	36.13
634.415	36.36
634.605	36.3
634.795	36.29
634.985	36.27
635.175	36.56
635.365	36.46
635.555	36.51
635.745	36.13
635.935	36.33
636.125	36.53
636.315	36.97
636.505	36.74
636.695	36.46
636.885	36.35
637.075	36.72
637.265	36.47
637.455	36.67
637.644	36.8
637.834	37.09
638.024	36.94
638.214	36.75
638.404	36.45
638.593	36.45
638.783	37.05
638.973	37.45
639.163	37.02
639.352	37.01
639.542	36.81
639.732	37.1
639.921	36.92
640.111	37.09
640.301	36.99
640.49	37.2
640.68	37.3
640.87	37.32
641.059	37
641.249	37.22
641.438	37.28
641.628	37.46
641.817	37.35
642.007	37.5
642.196	37.26
642.386	37.44
642.575	37.67
642.764	37.68
642.954	37.34
643.143	37.78
643.333	37.83
643.522	37.91
643.711	37.54
643.901	37.53
644.09	37.39
644.279	37.8
644.469	37.93
644.658	37.6
644.847	37.82
645.036	38.12
645.226	37.78
645.415	37.66
645.604	37.54
645.793	37.49
645.982	37.21
646.171	37.33
646.361	36.94
646.55	37.25
646.739	37.16
646.928	37.09
647.117	37.06
647.306	37.1
647.495	36.98
647.684	37.06
647.873	37.43
648.062	37.59
648.251	37.75
648.44	37.48
648.629	36.78
648.818	36.86
649.007	36.32
649.196	36.05
649.384	35.84
649.573	36.26
649.762	36.25
649.951	35.97
650.14	36.46
650.328	36.22
650.517	36.72
650.706	37.14
650.895	37.12
651.083	38.16
651.272	38.08
651.461	38.51
651.65	37.99
651.838	37.9
652.027	37.91
652.216	37.16
652.404	36.91
652.593	36.87
652.781	36.87
652.97	36.63
653.158	35.95
653.347	36.16
653.535	36.16
653.724	36.53
653.912	36.97
654.101	36.72
654.289	37.29
654.478	37.62
654.666	37.36
654.855	37.17
655.043	37.45
655.231	37.55
655.42	37.65
655.608	37.5
655.796	37.46
655.985	37.4
656.173	37.63
656.361	37.2
656.55	37.03
656.738	37.48
656.926	37.84
657.114	37.76
657.302	38.11
657.491	37.79
657.679	37.87
657.867	37.71
658.055	37.57
658.243	37.39
658.431	37.52
658.619	37.56
658.807	37.51
658.996	37.12
659.184	37.07
659.372	36.81
659.56	37.05
659.748	37.03
659.936	37.24
660.124	37.23
660.311	37.61
660.499	37.68
660.687	37.55
660.875	37.58
661.063	37.69
661.251	37.41
661.439	37.71
661.627	38.13
661.814	37.97
662.002	37.97
662.19	38.37
662.378	38.21
662.565	38.31
662.753	38.7
662.941	38.8
663.129	38.53
663.316	39.43
663.504	39
663.692	38.4
663.879	38.34
664.067	38.06
664.254	37.95
664.442	38.09
664.63	38.28
664.817	38.16
665.005	37.55
665.192	38.54
665.38	38.25
665.567	38.32
665.755	38.25
665.942	38.4
666.13	38.84
666.317	38.59
666.504	38.57
666.692	38.39
666.879	38.28
667.067	39.07
667.254	38.75
667.441	39.1
667.629	39.43
667.816	39.31
668.003	39.68
668.19	39.48
668.378	39.83
668.565	40.09
668.752	40.14
668.939	40.11
669.127	39.93
669.314	39.55
669.501	39.5
669.688	39.44
669.875	39.59
670.062	39.26
670.249	39.02
670.436	39.02
670.623	38.92
670.81	39.02
670.997	39.57
671.184	39.26
671.371	39.51
671.558	39.02
671.745	38.88
671.932	38.69
672.119	38.62
672.306	39.16
672.493	38.81
672.68	38.66
672.867	38.65
673.054	38.15
673.24	38.14
673.427	38.12
673.614	38.27
673.801	38.7
673.988	38.98
674.174	39.11
674.361	39.03
674.548	38.74
674.734	38.37
674.921	37.74
675.108	37.95
675.294	37.87
675.481	37.61
675.668	37.3
675.854	37.05
676.041	36.94
676.227	36.89
676.414	36.84
676.601	37.33
676.787	38.02
676.974	38.68
677.16	38.7
677.347	38.96
677.533	39.3
677.719	39.53
677.906	39.38
678.092	39.49
678.279	39.43
678.465	39.26
678.651	38.88
678.838	38.09
679.024	37.37
679.21	36.69
679.397	36.72
679.583	36.95
679.769	36.5
679.955	36.39
680.142	36.62
680.328	37.05
680.514	36.91
680.7	37.18
680.886	37.52
681.073	37.98
681.259	38.85
681.445	38.76
681.631	38.77
681.817	39.45
682.003	39.53
682.189	39.34
682.375	39.15
682.561	39.71
682.747	39.25
682.933	39.04
683.119	39.23
683.305	38.65
683.491	38.66
683.677	38.59
683.863	38.29
684.049	38.49
684.235	39.2
684.42	39.29
684.606	38.97
684.792	39.67
684.978	40.05
685.164	39.62
685.349	40.17
685.535	40.71
685.721	40.31
685.907	40.06
686.092	39.8
686.278	39.31
686.464	38.74
686.649	39.24
686.835	39.7
687.021	39.96
687.206	40.11
687.392	40.15
687.577	39.78
687.763	40.56
687.948	40.93
688.134	40.88
688.319	40.94
688.505	41.38
688.69	40.87
688.876	39.95
689.061	39.7
689.247	39.77
689.432	39.83
689.618	39.76
689.803	39.16
689.988	39.47
690.174	39.61
690.359	39.27
690.544	39.32
690.73	39.01
690.915	39.61
691.1	39.33
691.285	39.84
691.471	39.35
691.656	38.78
691.841	38.93
692.026	38.62
692.211	38.67
692.396	39.14
692.582	39.84
692.767	40.5
692.952	40.11
693.137	40.14
693.322	39.88
693.507	40.17
693.692	40.98
693.877	40.65
694.062	40.69
694.247	41.41
694.432	41.07
694.617	40.35
694.802	40.16
694.987	40.61
695.172	40.98
695.357	40.56
695.541	40.75
695.726	40.58
695.911	41.31
696.096	41.57
696.281	41.37
696.466	41.47
696.65	41.53
696.835	41.13
697.02	40.11
697.204	40.22
697.389	40.11
697.574	39.99
697.759	40.2
697.943	39.65
698.128	39.65
698.312	39.62
698.497	39.73
698.682	39.77
698.866	39.98
699.051	40.7
699.235	40.64
699.42	40.9
699.604	40.61
699.789	40.33
699.973	40.43
700.158	40.1
700.342	39.65
700.527	39.57
700.711	39.58
700.895	39.74
701.08	39.4
701.264	39.3
701.448	39
701.633	39.39
701.817	40
702.001	40.19
702.186	40.04
702.37	39.89
702.554	40.09
702.738	40.43
702.923	40.2
703.107	40.19
703.291	40.17
703.475	40.8
703.659	40.38
703.843	39.56
704.027	39.62
704.212	39.84
704.396	40.52
704.58	40.13
704.764	38.82
704.948	38.16
705.132	37.76
705.316	37.91
705.5	37.88
705.684	38.13
705.868	38.76
706.052	38.28
706.235	39.15
706.419	38.62
706.603	38.4
706.787	38.52
706.971	39.84
707.155	39.87
707.339	39.49
707.522	39.81
707.706	39.73
707.89	39.52
708.074	40.01
708.257	39.4
708.441	40.1
708.625	41.04
708.808	41.47
708.992	40.5
709.176	41.01
709.359	41.41
709.543	40.49
709.727	40.72
709.91	40.62
710.094	40.57
710.277	40.94
710.461	40.65
710.644	40.13
710.828	40.89
711.011	41.24
711.195	41.36
711.378	41.26
711.562	41.37
711.745	40.66
711.928	40.05
712.112	39.52
712.295	39.2
712.478	38.88
712.662	38.93
712.845	38.36
713.028	38.43
713.212	38.4
713.395	38.14
713.578	38.39
713.761	39.44
713.945	39.83
714.128	40.21
714.311	39.92
714.494	40.04
714.677	39.94
714.86	39.86
715.043	39.66
715.227	39.1
715.41	39.33
715.593	39.78
715.776	39.13
715.959	38.9
716.142	38.72
716.325	39.02
716.508	39.69
716.691	39.22
716.874	39.2
717.057	39.22
717.239	39.52
717.422	40.03
717.605	39.61
717.788	40.08
717.971	41.6
718.154	42.21
718.337	42.34
718.519	41.42
718.702	42.07
718.885	42.15
719.068	41.8
719.25	42.51
719.433	43.19
719.616	43.64
719.798	43.19
719.981	42.04
720.164	41.74
720.346	41.78
720.529	42.3
720.712	41.78
720.894	42.62
721.077	43.32
721.259	42.76
721.442	42.48
721.624	42.81
721.807	43.52
721.989	43.46
722.172	43.27
722.354	43.6
722.537	44.09
722.719	43.81
722.901	43.11
723.084	42.88
723.266	42.87
723.448	42.53
723.631	42.08
723.813	42.58
723.995	42.82
724.178	43.56
724.36	42.6
724.542	41.7
724.724	43.4
724.907	43.51
725.089	44.33
725.271	44.63
725.453	43.47
725.635	43.34
725.817	42.73
725.999	42.65
726.181	42.93
726.364	42.89
726.546	43.53
726.728	43.03
726.91	43.09
727.092	42.52
727.274	42.06
727.456	43.02
727.638	42.31
727.819	42.66
728.001	42.5
728.183	41.49
728.365	42.21
728.547	41.88
728.729	41.78
728.911	42.07
729.093	42.38
729.274	41.45
729.456	41.74
729.638	42.36
729.82	42.11
730.001	41.35
730.183	41.41
730.365	41.22
730.546	40.77
730.728	40.58
730.91	39.79
731.091	40.35
731.273	41.05
731.455	40.71
731.636	41.09
731.818	41.07
731.999	41.4
732.181	41.18
732.362	40.48
732.544	41.45
732.725	41.08
732.907	41.43
733.088	40.14
733.27	41.46
733.451	41.73
733.633	42.19
733.814	42
733.995	42.43
734.177	43.2
734.358	43.76
734.539	43.42
734.721	44.28
734.902	44.48
735.083	45.52
735.264	43.98
735.446	44
735.627	42.88
735.808	42.58
735.989	43.4
736.17	43.11
736.351	43.2
736.533	42.74
736.714	41.9
736.895	41.36
737.076	40.41
737.257	40.63
737.438	39.33
737.619	40.06
737.8	40.47
737.981	39.79
738.162	40.12
738.343	40.32
738.524	41.17
738.705	42.22
738.886	42.33
739.067	42.39
739.247	42.86
739.428	43.01
739.609	42.15
739.79	42.92
739.971	43.26
740.151	43.34
740.332	42.56
740.513	43.06
740.694	42.17
740.874	42.1
741.055	42.3
741.236	42.09
741.417	42.33
741.597	42.56
741.778	42.27
741.958	41.67
742.139	40.8
742.32	40.49
742.5	39.73
742.681	40.31
742.861	40.19
743.042	40.2
743.222	40.95
743.403	41.57
743.583	42.66
743.764	42.68
743.944	42.49
744.124	43.1
744.305	44.82
744.485	43.93
744.666	43.67
744.846	45.21
745.026	45.74
745.207	46.09
745.387	45.29
745.567	45.34
745.747	44.73
745.928	43.96
746.108	44.46
746.288	43.56
746.468	44.81
746.648	46
746.829	45.05
747.009	44.94
747.189	44.24
747.369	44.31
747.549	44.2
747.729	44.52
747.909	45.59
748.089	45.31
748.269	45.25
748.449	45.48
748.629	44.62
748.809	43.71
748.989	43.46
749.169	43.49
749.349	44.38
749.529	43.11
749.709	43.97
749.889	44.76
750.068	44.45
750.248	45.1
750.428	44.86
750.608	44.06
750.788	44.97
750.967	44.96
751.147	44.86
751.327	44.85
751.507	45.42
751.686	44.44
751.866	44.83
752.046	45.03
752.225	44.71
752.405	44.09
752.585	43.24
752.764	43.72
752.944	42.67
753.123	41.91
753.303	42.05
753.482	41.94
753.662	42.67
753.841	40.74
754.021	39.96
754.2	39.91
754.38	40
754.559	40.9
754.739	41.17
754.918	43.31
755.097	44.24
755.277	43.76
755.456	44.19
755.635	43.63
755.815	44.68
755.994	45.43
756.173	45.05
756.352	45.37
756.532	46.33
756.711	44.15
756.89	42.81
757.069	43.12
757.248	42.1
757.427	41.66
757.607	41.58
757.786	40.49
757.965	39.94
758.144	40.48
758.323	40.38
758.502	39.89
758.681	40.47
758.86	41.22
759.039	40.18
759.218	40.29
759.397	39.59
759.576	39.63
759.755	40.37
759.934	40.43
760.113	40.45
760.291	40.3
760.47	40.64
760.649	41.34
760.828	40.62
761.007	41.19
761.186	41.83
761.364	42.06
761.543	42.28
761.722	42.18
761.901	41
762.079	41.47
762.258	41.62
762.437	41.11
762.615	40.8
762.794	40.95
762.972	42.22
763.151	41.5
763.33	41.17
763.508	40.81
763.687	40.99
763.865	42.43
764.044	41.74
764.222	41.37
764.401	41.31
764.579	42.31
764.758	41.75
764.936	41.68
765.114	42.76
765.293	43.59
765.471	43.36
765.65	43.65
765.828	43.4
766.006	44.17
766.184	44.45
766.363	44.49
766.541	43.19
766.719	43.55
766.898	42.71
767.076	41.84
767.254	42.04
767.432	43.09
767.61	42.9
767.788	42.8
767.967	42.13
768.145	42.55
768.323	42.49
768.501	41.79
768.679	42.15
768.857	41.71
769.035	43.38
769.213	43.99
769.391	43.21
769.569	42.68
769.747	42.4
769.925	42.46
770.103	42.14
770.281	42.08
770.459	43.41
770.636	43.14
770.814	44.05
770.992	43.99
771.17	42.97
771.348	43.16
771.525	44.21
771.703	44.61
771.881	45.6
772.059	46.5
772.236	45.22
772.414	44.67
772.592	45
772.769	44.62
772.947	42.27
773.125	42.74
773.302	43.25
773.48	42.8
773.657	42.9
773.835	40.98
774.013	38.86
774.19	40.68
774.368	39.93
774.545	41.14
774.723	40.6
774.9	41.54
775.077	40.94
775.255	41.51
775.432	41.54
775.61	40.7
775.787	40.38
775.964	42.11
776.142	41.12
776.319	43.2
776.496	43.89
776.674	45.01
776.851	44.73
777.028	45.8
777.205	43.57
777.382	44.9
777.56	46.46
777.737	51.09
777.914	49.49
778.091	50.19
778.268	50.14
778.445	49.48
778.622	47.86
778.8	47.94
778.977	47.25
779.154	50.94
779.331	49.43
779.508	50.22
779.685	46.21
779.862	47.24
780.038	47.64
780.215	49.24
780.392	48.69
780.569	50.09
780.746	50.43
780.923	50.17
781.1	47.38
781.277	46.03
781.453	41.88
781.63	42.92
781.807	44.34
781.984	44.33
782.16	41.86
782.337	43.36
782.514	43.43
782.691	43.86
782.867	43.93
783.044	47.01
783.221	50.33
783.397	53.81
783.574	54
783.75	52.88
783.927	55.25
784.103	55.87
784.28	53.46
784.456	51.53
784.633	52.06
784.809	54.29
784.986	50.63
785.162	50.08
785.339	49.76
785.515	49.75
785.692	49.17
785.868	46.68
786.044	48.87
786.221	49.55
786.397	53.35
786.573	51.41
786.749	48.12
786.926	48.47
787.102	46.99
787.278	45.55
787.454	46.75
787.631	47.38
787.807	46.27
787.983	44.21
788.159	45.08
788.335	43.77
788.511	45.93
788.687	46.78
788.863	47.99
789.039	49.39
789.216	50.32
789.392	50.05
789.568	49.15
789.744	50.64
789.919	50.07
790.095	49.1
790.271	47.26
790.447	47.11
790.623	47.75
790.799	48.21
790.975	47.36
791.151	48.05
791.327	45.83
791.502	46.82
791.678	47.47
791.854	47.98
792.03	45.4
792.205	46.91
792.381	43.76
792.557	40.89
792.733	37.66
792.908	38.63
793.084	39.31
793.259	39.66
793.435	39.6
793.611	40.44
793.786	40.47
793.962	43.78
794.137	45.06
794.313	45.28
794.488	48.39
794.664	51.36
794.839	49.94
795.015	48.53
795.19	50.08
795.366	52.37
795.541	50.93
795.716	49
795.892	47.5
796.067	45.12
796.242	47.35
796.418	46.21
796.593	43.9
796.768	46.3
796.944	46.41
797.119	44.85
797.294	42.94
797.469	42.6
797.644	44.11
797.82	45.41
797.995	45.21
798.17	43.8
798.345	41.56
798.52	42.62
798.695	41.16
798.87	39.13
799.045	40.03
799.22	40.75
799.395	42.49
799.57	43.84
799.745	42.01
799.92	42.26
800.095	43.64
800.27	44.81
800.445	43.42
800.62	41.94
800.795	43.5
800.97	46.05
801.145	44.82
801.319	42.21
801.494	39.95
801.669	45.66
801.844	46.02
802.018	44.23
802.193	45.46
802.368	47.09
802.543	45.78
802.717	49.29
802.892	47.31
803.067	49.21
803.241	50.18
803.416	49.26
803.59	45.73
803.765	46.76
803.94	48.5
804.114	47.03
804.289	47.25
804.463	49.2
804.638	45.68
804.812	47.07
804.986	46.25
805.161	46.77
805.335	46.75
805.51	46.33
805.684	46.25
805.858	46.29
806.033	49.13
806.207	46.89
806.381	47.79
806.556	49.48
806.73	49.39
806.904	49.48
807.078	50.7
807.253	54.37
807.427	53
807.601	50.15
807.775	49.95
807.949	49.78
808.123	49.26
808.298	49.06
808.472	48.05
808.646	47.75
808.82	45.28
808.994	42.54
809.168	41.22
809.342	45.3
809.516	47.19
809.69	49.8
809.864	49.16
810.038	51.77
810.212	50.91
810.385	50.55
810.559	49.45
810.733	50.46
810.907	52.02
811.081	49.38
811.255	45.91
811.428	44.07
811.602	39.02
811.776	41.58
811.95	41.88
812.123	44.94
812.297	45.62
812.471	46.67
812.644	48.06
812.818	45.12
812.992	49.7
813.165	50.77
813.339	54
813.512	54.74
813.686	52.3
813.86	52.24
814.033	51.52
814.207	50.18
814.38	47.75
814.554	45.23
814.727	50.32
814.9	49.28
815.074	47.4
815.247	44.95
815.421	44.13
815.594	44.37
815.767	46.14
815.941	45.46
816.114	50.1
816.287	51.34
816.46	53.02
816.634	48.28
816.807	51.05
816.98	53.5
817.153	56.25
817.327	58.65
817.5	58.14
817.673	58.36
817.846	55.73
818.019	54.81
818.192	55.97
818.365	54.96
818.538	57.72
818.711	53.36
818.884	47.7
819.057	45.01
819.23	44
819.403	46.6
819.576	44.04
819.749	48.7
819.922	45.42
820.095	44.53
820.268	44.41
820.441	44.68
820.614	45.08
820.786	48.34
820.959	50.03
821.132	47.85
821.305	44.31
821.477	43.75
821.65	41.43
821.823	42.38
821.996	42.47
822.168	42.14
822.341	41.35
822.514	41.2
822.686	40
822.859	39.56
823.031	39.6
823.204	39.36
823.376	39.3
823.549	39.06
823.722	39.12
823.894	38.51
824.067	38.59
824.239	38.88
824.411	38.59
824.584	39.73
824.756	39.94
824.929	40.28
825.101	40.96
825.273	41.34
825.446	42.24
825.618	41.46
825.79	41.58
825.963	41.1
826.135	40.57
826.307	41.49
826.479	40.85
826.652	40.53
826.824	41.16
826.996	40.23
827.168	40.89
827.34	40.64
827.512	41.95
827.684	42.47
827.856	42.9
828.029	43.04
828.201	42.33
828.373	42.76
828.545	42.84
828.717	42.3
828.889	42.78
829.061	43.27
829.232	43.13
829.404	43.04
829.576	44.87
829.748	46.86
829.92	49
830.092	49.69
830.264	48.47
830.436	49.37
830.607	49.95
830.779	51.43
830.951	50.14
831.123	51.1
831.294	49.37
831.466	47.18
831.638	46.84
831.809	45.24
831.981	45.51
832.153	48.59
832.324	46.47
832.496	46.44
832.667	48.51
832.839	48.95
833.011	46.49
833.182	46.89
833.354	45.83
833.525	43.26
833.697	41.6
833.868	40.21
834.039	39.9
834.211	42.04
834.382	42.98
834.554	41.36
834.725	42.5
834.896	41.95
835.068	43.3
835.239	45.05
835.41	46.16
835.581	46.36
835.753	47.1
835.924	46.45
836.095	44.14
836.266	44.97
836.438	43.21
836.609	42.87
836.78	44.18
836.951	45.72
837.122	43.06
837.293	43.57
837.464	43.09
837.635	45.44
837.806	45.27
837.977	49.03
838.148	47.92
838.319	53.19
838.49	54.62
838.661	52.93
838.832	55.1
839.003	57.6
839.174	56.78
839.345	61.69
839.516	58.42
839.687	62.17
839.857	57.42
840.028	60.88
840.199	57.97
840.37	54.11
840.54	60.44
840.711	53.3
840.882	53.01
841.053	55.82
841.223	55.51
841.394	59.01
841.564	60.5
841.735	69.68
841.906	64.96
842.076	64.99
842.247	62.11
842.417	57.3
842.588	64.91
842.758	69.49
842.929	67.19
843.099	67.89
843.27	62.86
843.44	63.48
843.611	59.9
843.781	60.7
843.951	59.3
844.122	64.25
844.292	63.73
844.462	59.73
844.633	56.77
844.803	54.87
844.973	52.06
845.144	54.14
845.314	48.9
845.484	53.5
845.654	53.08
845.824	57.57
845.995	54.36
846.165	57.49
846.335	59.03
846.505	60.62
846.675	63.53
846.845	66.04
847.015	77.87
847.185	79.27
847.355	63.33
847.525	67.08
847.695	67.31
847.865	71.8
848.035	63.56
848.205	67.65
848.375	68.09
848.545	65.87
848.715	61.32
848.884	57.1
849.054	55.74
849.224	60.72
849.394	59.91
849.564	56.13
849.733	60.96
849.903	66.08
850.073	57.49
850.243	59.2
850.412	62.86
850.582	67.21
850.752	65.31
850.921	66.42
851.091	76.81
851.26	98.05
851.43	86.1
851.599	77.31
851.769	76.94
851.939	86.8
852.108	80.79
852.278	75.45
852.447	77.27
852.616	78.17
852.786	72.95
852.955	66.44
853.125	49.91
853.294	58.3
853.463	59.85
853.633	52.48
853.802	60.24
853.971	72.04
854.141	63.85
854.31	63
854.479	48.7
854.648	59.24
854.818	53.92
854.987	50.46
855.156	42.59
855.325	29.6
855.494	45.86
855.663	24.66
855.832	19.15
856.001	23.21
856.171	12.75
856.34	26.04
856.509	30.26
856.678	33.46
856.847	40.08
857.016	48.77
857.185	59.76
857.353	69.76
857.522	85.74
857.691	79.7
857.86	88.93
858.029	95.99
858.198	91.5
858.367	83.65
858.535	75.36
858.704	83.24
858.873	82.33
859.042	69.34
859.21	65.62
859.379	57.5
859.548	60.26
859.717	58.66
859.885	61.96
860.054	54.41
860.222	43.52
860.391	40.96
860.56	47.01
860.728	52.2
860.897	59.97
861.065	59.97
861.234	56.49
861.402	58.78
861.571	54.34
861.739	59.3
861.908	65.89
862.076	85.39
862.244	89.4
862.413	78.2
862.581	74.84
862.749	75.94
862.918	64.67
863.086	68.67
863.254	68.16
863.423	81.4
863.591	73.65
863.759	69.59
863.927	54.97
864.096	48.19
864.264	56.24
864.432	54.49
864.6	64.88
864.768	76.8
864.936	78.22
865.104	80.44
865.272	78.35
865.44	86.25
865.608	83.48
865.776	92.29
865.944	106.53
866.112	101.31
866.28	108.11
866.448	88.56
866.616	89.85
866.784	74.75
866.952	65.28
867.12	62.21
867.288	59.15
867.455	64.33
867.623	51.94
867.791	43.43
867.959	53.56
868.127	40.4
868.294	45.75
868.462	49.1
868.63	63.82
868.797	70.54
868.965	50.74
869.133	51.54
869.3	56.83
869.468	62.02
869.636	56.42
869.803	57.91
869.971	63.41
870.138	69.74
870.306	70.78
870.473	67.96
870.641	65.3
870.808	72.62
870.975	69.96
871.143	59.8
871.31	53.61
871.478	43.92
871.645	43.25
871.812	42.94
871.98	54.23
872.147	34.16
872.314	34.14
872.482	38.72
872.649	39.85
872.816	39.4
872.983	52.82
873.15	65.38
873.318	80.98
873.485	90.46
873.652	74.63
873.819	58.29
873.986	72.6
874.153	81.89
874.32	96.48
874.487	105.42
874.654	115.19
874.821	120.97
874.988	96.55
875.155	102.07
875.322	74.77
875.489	89.34
875.656	107.4
875.823	101.94
875.99	79.27
876.157	50.44
876.324	39.9
876.49	43.91
876.657	45.77
876.824	48.67
876.991	40.89
877.157	41.99
877.324	52.25
877.491	52.49
877.658	48.75
877.824	52.53
877.991	60.45
878.157	65.04
878.324	69.96
878.491	63.71
878.657	61.4
878.824	66.37
878.99	68.64
879.157	64.78
879.323	59.46
879.49	63.7
879.656	59.86
879.823	65.7
879.989	70.82
880.156	62.76
880.322	61.03
880.488	63.64
880.655	62.76
880.821	66.95
880.987	65.24
881.154	59.85
881.32	61.29
881.486	60.76
881.652	57.7
881.819	52.97
881.985	55.36
882.151	54.09
882.317	52.84
882.483	51.99
882.649	48.75
882.816	47.13
882.982	49.03
883.148	47.84
883.314	48.08
883.48	46.01
883.646	46.09
883.812	45.83
883.978	47.86
884.144	49.02
884.31	47.95
884.476	47.2
884.642	48.36
884.807	48.82
884.973	47.38
885.139	47.06
885.305	47.92
885.471	47.03
885.637	46.66
885.802	43.61
885.968	43.87
886.134	43.84
886.3	44.33
886.465	43.69
886.631	42.32
886.797	46.46
886.962	45.34
887.128	47.32
887.293	52.24
887.459	47.76
887.625	48.47
887.79	49.88
887.956	54.14
888.121	56.36
888.287	58.68
888.452	62.68
888.618	55.98
888.783	63.45
