Data from CB_063_Reflection_3.txt Node
Date: Sat Nov 14 10:35:06 EST 2015
User: robert
Spectrometer: USB4E03001
Autoset integration time: false
Trigger mode: 4
Integration Time (sec): 1.000000E-1
Scans to average: 15
Electric dark correction enabled: true
Nonlinearity correction enabled: false
Boxcar width: 5
Stray light correction enabled: false
XAxis mode: Wavelengths
Stop averaging: false
Number of Pixels in Spectrum: 3648
>>>>>Begin Spectral Data<<<<<
177.566	-285.87
177.785	-461.1
178.005	-1525.84
178.225	-300.54
178.445	-218.65
178.665	-430.11
178.885	-47.2
179.105	-192.56
179.324	-230.85
179.544	-370.5
179.764	-68.29
179.984	-83.23
180.204	-71.9
180.423	-245.65
180.643	-143.63
180.863	-128.18
181.083	-666.73
181.302	-4212.7
181.522	335.89
181.742	492.34
181.961	602.2
182.181	102.87
182.401	87.77
182.621	123.67
182.84	387.2
183.06	382.03
183.279	53.29
183.499	-18.25
183.719	19.77
183.938	9.41
184.158	52.87
184.377	81.53
184.597	74.88
184.816	64.34
185.036	106.86
185.256	123.2
185.475	156.01
185.695	153.27
185.914	267.15
186.134	301.88
186.353	365.31
186.572	254.69
186.792	687.97
187.011	-3024.37
187.231	2982.79
187.45	326.93
187.67	833.14
187.889	-96.92
188.108	57.77
188.328	105.93
188.547	95.54
188.766	104.89
188.986	69.88
189.205	100
189.424	102.85
189.644	125.24
189.863	148.4
190.082	181.31
190.302	200.75
190.521	125.53
190.74	94.65
190.959	104.29
191.178	-0.62
191.398	177.02
191.617	157.35
191.836	659.14
192.055	150.45
192.274	-4.56
192.494	-94.92
192.713	-4635.71
192.932	221.46
193.151	-875
193.37	65.8
193.589	-2856.64
193.808	-156.48
194.027	-449.52
194.246	1454.3
194.465	-650.7
194.685	189.79
194.904	211.77
195.123	166.99
195.342	157.53
195.561	98.51
195.78	270.07
195.999	268.7
196.218	-49.41
196.436	-259.27
196.655	-118.13
196.874	-22.1
197.093	-34.21
197.312	48.89
197.531	22.99
197.75	33.82
197.969	-32.29
198.188	43.72
198.407	60.5
198.625	50.18
198.844	111.7
199.063	127.83
199.282	99.18
199.501	-103.12
199.719	376.54
199.938	7.36
200.157	-37.39
200.376	-129.64
200.594	42.8
200.813	5.12
201.032	-151.49
201.251	21.4
201.469	-8.92
201.688	-97.03
201.907	492.87
202.125	131.34
202.344	230.4
202.563	2549.28
202.781	272.57
203	67
203.218	21.24
203.437	-1.58
203.656	16.32
203.874	-45.4
204.093	-14.34
204.311	2.14
204.53	7.03
204.748	56.67
204.967	78.69
205.185	14.75
205.404	52.38
205.622	203.1
205.841	151.34
206.059	125.19
206.278	118.27
206.496	154.36
206.715	166.72
206.933	122.78
207.151	165.82
207.37	128.74
207.588	145.78
207.806	140.23
208.025	199.87
208.243	181.98
208.461	-11363.64
208.68	535.62
208.898	139.46
209.116	157.36
209.335	128.25
209.553	98.77
209.771	64.09
209.989	69.87
210.208	89.98
210.426	62.59
210.644	78.86
210.862	66.51
211.081	66.45
211.299	60.27
211.517	65.66
211.735	49.33
211.953	49.52
212.171	49.8
212.39	52.08
212.608	17.09
212.826	30.67
213.044	27.75
213.262	36.85
213.48	7.22
213.698	56.3
213.916	18.39
214.134	25.71
214.352	-19.78
214.57	-26.98
214.788	-19.37
215.006	51.23
215.224	57.53
215.442	253.93
215.66	1024.74
215.878	375.71
216.096	149.25
216.314	491.92
216.532	1819.04
216.75	-441.27
216.968	-710.55
217.185	-4950.44
217.403	938.38
217.621	-35000
217.839	-5.7
218.057	-658.33
218.275	35.15
218.492	67.76
218.71	-81.23
218.928	366.38
219.146	320.32
219.363	151.24
219.581	89.26
219.799	-167.29
220.017	104.4
220.234	98.64
220.452	118.12
220.67	122.49
220.887	34.19
221.105	-50.66
221.323	-13.99
221.54	21.25
221.758	29.58
221.976	45.06
222.193	25.13
222.411	12.52
222.629	35.79
222.846	16.73
223.064	23.38
223.281	39.63
223.499	37.04
223.716	31.84
223.934	6.57
224.151	8.51
224.369	8.49
224.586	17.43
224.804	15.72
225.021	22.13
225.239	18.99
225.456	25.64
225.674	28.98
225.891	33.66
226.108	28.94
226.326	42.26
226.543	36.11
226.76	26.13
226.978	28.27
227.195	38.19
227.413	30.32
227.63	35.2
227.847	31.73
228.064	28.46
228.282	29.23
228.499	23.96
228.716	20.47
228.934	20.36
229.151	23.51
229.368	18.97
229.585	18.6
229.802	17.77
230.02	16.5
230.237	18.12
230.454	17.39
230.671	14.18
230.888	18.22
231.105	22.13
231.323	26.96
231.54	26.53
231.757	28.56
231.974	27.37
232.191	30.65
232.408	26.69
232.625	30.35
232.842	28.77
233.059	27.91
233.276	31.55
233.493	27.29
233.71	25.34
233.927	17.32
234.144	15.85
234.361	17.9
234.578	17.07
234.795	11.19
235.012	6.7
235.229	5.08
235.446	9.82
235.663	5.47
235.879	2.99
236.096	-1.89
236.313	6.78
236.53	5.48
236.747	-3.16
236.964	-3.26
237.181	7.13
237.397	9.18
237.614	15.94
237.831	17.98
238.048	18.61
238.264	15.49
238.481	11.58
238.698	8.81
238.915	12.54
239.131	10.28
239.348	6.39
239.565	3.13
239.781	1.62
239.998	-0.72
240.215	-7.13
240.431	-5.86
240.648	-1.24
240.865	3.3
241.081	6.43
241.298	6.23
241.514	9.86
241.731	11.03
241.947	13.04
242.164	12.05
242.38	11.21
242.597	12.1
242.814	9.34
243.03	11.49
243.246	10.79
243.463	9.78
243.679	8.59
243.896	6.71
244.112	4.21
244.329	3.47
244.545	3.93
244.762	3.77
244.978	4.95
245.194	6.61
245.411	3.99
245.627	4.4
245.843	6.47
246.06	7.65
246.276	8.27
246.492	10.72
246.709	10.02
246.925	9.02
247.141	10.21
247.357	10.41
247.574	10.55
247.79	10.19
248.006	9.69
248.222	8.67
248.439	7.74
248.655	7.59
248.871	7.15
249.087	6.74
249.303	7.73
249.519	5.63
249.736	4.5
249.952	4.3
250.168	6.2
250.384	7.3
250.6	8
250.816	11.48
251.032	12.33
251.248	10.19
251.464	10.42
251.68	7.7
251.896	7.77
252.112	8.45
252.328	10.17
252.544	10.01
252.76	9.85
252.976	7.53
253.192	6.88
253.408	6.89
253.624	7.59
253.84	8.27
254.056	9.3
254.272	9.27
254.487	8.56
254.703	6.87
254.919	4.16
255.135	6.42
255.351	11.22
255.567	9.64
255.782	12.25
255.998	13.19
256.214	11.55
256.43	13.86
256.646	16.48
256.861	16.95
257.077	16.41
257.293	14.52
257.508	12.03
257.724	11.34
257.94	11.05
258.155	9.57
258.371	8.56
258.587	8.77
258.802	8.3
259.018	6.96
259.234	7.63
259.449	8.22
259.665	8.59
259.88	8.68
260.096	8.16
260.312	8.34
260.527	7.74
260.743	8.1
260.958	7.84
261.174	8.42
261.389	9.47
261.605	8.44
261.82	7.22
262.036	8.33
262.251	8.92
262.466	8.11
262.682	8.16
262.897	8.58
263.113	9.63
263.328	9.25
263.543	7.32
263.759	6.14
263.974	7.13
264.189	7.39
264.405	4.06
264.62	3.62
264.835	3.78
265.051	5.81
265.266	5.2
265.481	3.31
265.696	5.39
265.912	3.74
266.127	3.46
266.342	3.24
266.557	3.69
266.773	5.55
266.988	4.5
267.203	5.54
267.418	3.17
267.633	3.33
267.848	2.58
268.064	1.81
268.279	3.48
268.494	3.84
268.709	2.46
268.924	3.95
269.139	1.72
269.354	2.29
269.569	1.38
269.784	2.53
269.999	3.18
270.214	5.63
270.429	5.49
270.644	7.15
270.859	5.98
271.074	7.79
271.289	8.25
271.504	8.49
271.719	8.79
271.934	9.87
272.149	9.43
272.363	10.37
272.578	9.11
272.793	9.03
273.008	6.81
273.223	6.79
273.438	6.28
273.653	5.76
273.867	6.46
274.082	6.8
274.297	6.75
274.512	5.87
274.726	4.22
274.941	4.15
275.156	5.38
275.371	7.39
275.585	8.36
275.8	8.75
276.015	6.59
276.229	6.9
276.444	6.48
276.659	5.38
276.873	6.47
277.088	8.11
277.302	8.76
277.517	7.46
277.732	6.81
277.946	7.26
278.161	6.95
278.375	9.05
278.59	8.15
278.804	6.72
279.019	8.95
279.233	8.08
279.448	6.98
279.662	5.56
279.877	6.38
280.091	4.54
280.306	3.84
280.52	1.62
280.735	0.43
280.949	1.62
281.163	2.94
281.378	0.74
281.592	3.25
281.806	2.58
282.021	3.89
282.235	3.94
282.449	5.28
282.664	5.34
282.878	7.27
283.092	6.56
283.307	5.05
283.521	3.52
283.735	4.37
283.949	2.79
284.164	2.76
284.378	2.28
284.592	1.4
284.806	0.67
285.02	0.46
285.234	-1.14
285.449	0.39
285.663	3.02
285.877	3.92
286.091	3.44
286.305	4.03
286.519	4.76
286.733	4.83
286.947	5.84
287.161	7.06
287.375	6.38
287.589	7.7
287.803	8.59
288.017	7.26
288.231	7.39
288.445	8.64
288.659	8.18
288.873	7.93
289.087	8.22
289.301	8.93
289.515	7.56
289.729	9.32
289.943	10.31
290.157	9.19
290.371	9.37
290.584	9.22
290.798	10.24
291.012	9.82
291.226	9.83
291.44	10
291.654	9.22
291.867	9.33
292.081	9.99
292.295	9.36
292.509	10.28
292.722	9.14
292.936	8.65
293.15	7.47
293.364	8.1
293.577	8.16
293.791	8.27
294.005	7.56
294.218	10.78
294.432	10.16
294.645	8.8
294.859	8.01
295.073	9.51
295.286	9.86
295.5	8.88
295.713	8.75
295.927	8.77
296.14	8.06
296.354	8.24
296.568	6.48
296.781	6.42
296.994	6.89
297.208	6.46
297.421	5.99
297.635	6.73
297.848	6.81
298.062	6.24
298.275	6.88
298.489	7.04
298.702	7.4
298.915	6.35
299.129	6.26
299.342	7.04
299.555	7.02
299.769	6.63
299.982	6.21
300.195	7.33
300.409	8
300.622	6.76
300.835	6.03
301.048	5.06
301.262	7.08
301.475	7.31
301.688	6.66
301.901	7.06
302.115	7.36
302.328	7.76
302.541	7.72
302.754	8.8
302.967	9.42
303.18	11.25
303.393	11.62
303.607	10.53
303.82	9.97
304.033	11.83
304.246	12.51
304.459	12.3
304.672	12.26
304.885	12.29
305.098	11.8
305.311	12.44
305.524	12.02
305.737	12.27
305.95	12.9
306.163	13.89
306.376	11.63
306.589	12.05
306.802	12.22
307.015	13.06
307.228	13.22
307.44	12.3
307.653	11.71
307.866	11.99
308.079	13.27
308.292	12.25
308.505	12.81
308.718	14.28
308.93	14.14
309.143	14.73
309.356	13.98
309.569	12.83
309.781	13.5
309.994	13.41
310.207	13.21
310.42	12.58
310.632	13.84
310.845	12.86
311.058	13.29
311.27	12.49
311.483	13.15
311.696	13.36
311.908	13.53
312.121	12.98
312.333	13.84
312.546	12.94
312.759	12.19
312.971	11.41
313.184	11.64
313.396	10.82
313.609	10.91
313.821	10.78
314.034	10.56
314.246	9.95
314.459	11.19
314.671	10.6
314.884	11.09
315.096	12.1
315.309	12.36
315.521	12.64
315.733	11.95
315.946	12.61
316.158	11.57
316.371	11.88
316.583	11.95
316.795	10.91
317.008	12.03
317.22	11.96
317.432	12.47
317.644	13.01
317.857	12.48
318.069	14.25
318.281	14.45
318.494	15.28
318.706	15.34
318.918	17.56
319.13	18.05
319.342	16.2
319.555	17.14
319.767	17.08
319.979	15.27
320.191	15.19
320.403	13.93
320.615	14.18
320.827	13.63
321.039	13.32
321.252	14.1
321.464	14.69
321.676	14.92
321.888	15.52
322.1	14.67
322.312	15.85
322.524	17.42
322.736	16.53
322.948	16.94
323.16	16.28
323.372	17.28
323.584	16.09
323.796	15.91
324.007	16.78
324.219	17.33
324.431	18.13
324.643	20.23
324.855	20.53
325.067	21.5
325.279	21.11
325.491	22.56
325.702	22.72
325.914	22.81
326.126	23.23
326.338	20.76
326.55	20.75
326.761	20.14
326.973	18.95
327.185	18.18
327.396	19.04
327.608	19.53
327.82	18.92
328.032	19.12
328.243	19.59
328.455	19.87
328.666	22.69
328.878	22.51
329.09	24.26
329.301	24.65
329.513	24.83
329.725	24.73
329.936	25.44
330.148	25.9
330.359	25.98
330.571	26.41
330.782	26.16
330.994	26.76
331.205	27
331.417	27.73
331.628	27.71
331.84	29.28
332.051	30.73
332.262	31.02
332.474	30.61
332.685	31.05
332.897	30.98
333.108	32.52
333.319	32.66
333.531	33.52
333.742	32.48
333.953	32.21
334.165	31.27
334.376	31.11
334.587	30.64
334.799	30.79
335.01	29.92
335.221	29.84
335.432	28.63
335.644	27.87
335.855	26.68
336.066	26.67
336.277	27.76
336.488	28.58
336.7	27.77
336.911	28.38
337.122	28.75
337.333	28.77
337.544	28.8
337.755	29.73
337.966	30.79
338.177	30.67
338.388	31.08
338.599	30.79
338.811	29.69
339.022	30.55
339.233	30.66
339.444	30.81
339.655	30.69
339.866	31.02
340.076	30.54
340.287	30.07
340.498	30.54
340.709	29.93
340.92	30.39
341.131	30.57
341.342	30.47
341.553	30.03
341.764	30.86
341.975	31.27
342.185	31.04
342.396	30.89
342.607	31.03
342.818	30.88
343.029	31.24
343.239	31.1
343.45	31.24
343.661	30.99
343.872	30.51
344.082	30.14
344.293	30.59
344.504	30.83
344.714	31.72
344.925	31.75
345.136	32.24
345.346	32.11
345.557	31.72
345.768	31.9
345.978	32.41
346.189	32.53
346.399	31.44
346.61	30.77
346.821	30.73
347.031	30.35
347.242	30.34
347.452	30.29
347.663	30.57
347.873	31.02
348.084	31.17
348.294	30.7
348.504	31.41
348.715	33.01
348.925	32.97
349.136	31.52
349.346	31.28
349.557	31.23
349.767	31.22
349.977	31.64
350.188	31.32
350.398	31.39
350.608	30.78
350.819	30.8
351.029	30.14
351.239	31.19
351.449	32.59
351.66	32.88
351.87	33.04
352.08	32.7
352.29	32.16
352.501	32.51
352.711	31.62
352.921	31.69
353.131	31.64
353.341	31.91
353.552	31.01
353.762	30.7
353.972	30.2
354.182	29.95
354.392	30.33
354.602	30.44
354.812	29.88
355.022	30.73
355.232	31.62
355.442	31.2
355.652	31.26
355.862	31.05
356.072	31.06
356.282	31.12
356.492	31.51
356.702	31.47
356.912	30.99
357.122	32.11
357.332	31.87
357.542	31.11
357.752	31.01
357.962	30.31
358.171	30.79
358.381	30.67
358.591	30.8
358.801	30.1
359.011	29.85
359.221	30.43
359.43	29.85
359.64	29.54
359.85	29.82
360.06	29.98
360.269	29.91
360.479	30.11
360.689	29.95
360.899	29.88
361.108	30.56
361.318	30.06
361.528	29.8
361.737	29.76
361.947	29.9
362.156	29.3
362.366	29.17
362.576	29.42
362.785	28.93
362.995	28.96
363.204	28.71
363.414	28.31
363.623	28.63
363.833	28.97
364.042	28.87
364.252	28.74
364.461	29.01
364.671	28.88
364.88	28.77
365.09	29.18
365.299	29.31
365.509	29.49
365.718	29.33
365.927	29.96
366.137	29
366.346	28.39
366.555	28.27
366.765	28.66
366.974	28.47
367.183	28.53
367.393	27.75
367.602	27.61
367.811	27.46
368.021	27.5
368.23	27.42
368.439	27.79
368.648	27.78
368.857	27.8
369.067	27.47
369.276	27.81
369.485	27.66
369.694	27.97
369.903	27.54
370.112	27.3
370.321	26.68
370.531	26.01
370.74	26.16
370.949	26.22
371.158	26.44
371.367	26.38
371.576	26.16
371.785	26.3
371.994	26.18
372.203	26.43
372.412	26.05
372.621	26.84
372.83	26.48
373.039	26.15
373.248	25.51
373.457	25.19
373.666	24.74
373.874	24.33
374.083	23.87
374.292	23.96
374.501	23.37
374.71	24.03
374.919	23.19
375.128	23.58
375.336	23.88
375.545	24.26
375.754	24.16
375.963	23.96
376.171	23.69
376.38	23.58
376.589	22.92
376.798	23.01
377.006	22.62
377.215	22.53
377.424	22.01
377.632	21.24
377.841	21.45
378.05	21.5
378.258	21.85
378.467	22.29
378.675	21.96
378.884	22.38
379.093	22.51
379.301	23
379.51	23.04
379.718	23.23
379.927	23.72
380.135	23.41
380.344	22.86
380.552	23
380.761	22.67
380.969	22.72
381.177	22.15
381.386	22.74
381.594	22.38
381.803	22.39
382.011	22.25
382.219	21.92
382.428	21.58
382.636	21.87
382.845	20.87
383.053	21.37
383.261	21.35
383.469	21.57
383.678	21.19
383.886	21.04
384.094	21.13
384.302	21.22
384.511	21.51
384.719	21.82
384.927	21.85
385.135	22.34
385.343	21.49
385.552	21.34
385.76	21.35
385.968	21.07
386.176	20.29
386.384	19.57
386.592	18.99
386.8	18.32
387.008	18.53
387.216	18.33
387.424	18.04
387.633	18.37
387.841	18.5
388.049	18.77
388.257	18.64
388.465	18.89
388.672	19.07
388.88	19.4
389.088	19.26
389.296	18.5
389.504	18.47
389.712	18.73
389.92	18.5
390.128	18.76
390.336	18.29
390.544	18.51
390.751	18.72
390.959	19.02
391.167	19.11
391.375	19.5
391.583	19.5
391.79	19.4
391.998	19.46
392.206	19.6
392.414	19.17
392.621	19.31
392.829	18.86
393.037	18.67
393.244	18.37
393.452	18.13
393.66	17.79
393.867	18.14
394.075	18.06
394.283	17.97
394.49	17.67
394.698	17.58
394.905	17.67
395.113	17.84
395.32	17.81
395.528	17.79
395.735	17.89
395.943	17.87
396.15	17.6
396.358	17.53
396.565	17.37
396.773	17.52
396.98	17.94
397.188	17.74
397.395	17.91
397.602	17.9
397.81	17.96
398.017	17.75
398.225	17.97
398.432	17.84
398.639	17.87
398.847	17.68
399.054	17.74
399.261	17.52
399.468	17.39
399.676	17.34
399.883	17.2
400.09	17.51
400.297	17.56
400.505	17.36
400.712	17.47
400.919	17.6
401.126	17.53
401.333	17.41
401.54	17.07
401.748	16.97
401.955	16.74
402.162	16.51
402.369	16.38
402.576	16.42
402.783	16.15
402.99	16.22
403.197	15.85
403.404	15.69
403.611	15.52
403.818	15.7
404.025	15.69
404.232	15.81
404.439	16.07
404.646	15.77
404.853	15.71
405.06	15.65
405.267	15.62
405.474	15.62
405.681	15.86
405.887	15.96
406.094	15.92
406.301	15.99
406.508	16.14
406.715	16.19
406.922	16.25
407.128	16.39
407.335	16.46
407.542	16.3
407.749	16.39
407.955	16.36
408.162	16.31
408.369	16.08
408.575	16.12
408.782	15.89
408.989	15.75
409.195	15.41
409.402	15.31
409.609	15.47
409.815	15.64
410.022	15.6
410.228	15.73
410.435	15.85
410.642	16.37
410.848	16.27
411.055	16.31
411.261	16.44
411.468	17.13
411.674	16.85
411.881	17.05
412.087	16.82
412.294	17.05
412.5	16.95
412.706	16.7
412.913	16.05
413.119	15.93
413.326	15.84
413.532	15.62
413.738	14.96
413.945	14.81
414.151	14.81
414.357	15
414.564	14.77
414.77	14.71
414.976	14.95
415.182	15.46
415.389	15.39
415.595	15.15
415.801	15.14
416.007	15.4
416.214	15.66
416.42	15.64
416.626	15.49
416.832	15.5
417.038	15.58
417.244	15.27
417.45	15.02
417.657	15.15
417.863	15.01
418.069	15.16
418.275	15.18
418.481	15.21
418.687	15.11
418.893	15.06
419.099	15
419.305	14.86
419.511	15.12
419.717	15.03
419.923	14.9
420.129	14.98
420.335	14.98
420.541	14.81
420.746	14.63
420.952	14.66
421.158	14.73
421.364	14.71
421.57	14.73
421.776	14.62
421.982	14.71
422.187	14.66
422.393	14.59
422.599	14.54
422.805	14.53
423.01	14.67
423.216	14.64
423.422	14.63
423.628	14.68
423.833	14.6
424.039	14.56
424.245	14.47
424.45	14.6
424.656	14.66
424.862	14.49
425.067	14.48
425.273	14.54
425.478	14.41
425.684	14.22
425.889	14.2
426.095	14.17
426.301	14.13
426.506	14.17
426.712	14.15
426.917	14.19
427.123	14.25
427.328	14.3
427.533	13.99
427.739	14.03
427.944	14.23
428.15	14.04
428.355	13.94
428.561	14.29
428.766	14.23
428.971	14.11
429.177	14.05
429.382	14.07
429.587	13.99
429.793	14.31
429.998	14.52
430.203	14.46
430.408	14.59
430.614	14.7
430.819	14.34
431.024	14.21
431.229	14.26
431.434	14.15
431.64	14.03
431.845	14.13
432.05	14.08
432.255	13.84
432.46	13.77
432.665	13.58
432.87	13.5
433.076	13.5
433.281	13.75
433.486	13.67
433.691	13.68
433.896	13.83
434.101	13.64
434.306	13.58
434.511	13.67
434.716	13.71
434.921	13.89
435.126	14.03
435.331	13.91
435.535	13.71
435.74	13.7
435.945	13.68
436.15	13.71
436.355	13.99
436.56	13.9
436.765	13.81
436.97	13.93
437.174	14
437.379	13.94
437.584	13.89
437.789	13.96
437.993	14.02
438.198	14.1
438.403	14.13
438.608	14.13
438.812	14.14
439.017	14.06
439.222	13.92
439.426	13.8
439.631	13.68
439.836	13.84
440.04	13.92
440.245	13.84
440.45	13.74
440.654	13.52
440.859	13.32
441.063	13.28
441.268	13.44
441.472	13.45
441.677	13.46
441.881	13.5
442.086	13.42
442.29	13.32
442.495	13.47
442.699	13.55
442.904	13.56
443.108	13.75
443.312	13.68
443.517	13.59
443.721	13.67
443.925	13.65
444.13	13.8
444.334	13.65
444.538	13.69
444.743	13.53
444.947	13.39
445.151	13.54
445.356	13.52
445.56	13.7
445.764	13.57
445.968	13.52
446.173	13.57
446.377	13.43
446.581	13.59
446.785	13.56
446.989	13.61
447.193	13.64
447.398	13.53
447.602	13.32
447.806	13.25
448.01	13.38
448.214	13.42
448.418	13.34
448.622	13.51
448.826	13.42
449.03	13.44
449.234	13.46
449.438	13.61
449.642	13.65
449.846	13.87
450.05	13.84
450.254	13.78
450.458	13.64
450.662	13.68
450.866	13.38
451.069	13.39
451.273	13.38
451.477	13.48
451.681	13.42
451.885	13.26
452.089	13.37
452.292	13.28
452.496	13.29
452.7	13.46
452.904	13.3
453.107	13.45
453.311	13.43
453.515	13.36
453.719	13.17
453.922	13.07
454.126	13.3
454.33	13
454.533	12.97
454.737	12.92
454.94	12.75
455.144	12.96
455.348	12.98
455.551	13.04
455.755	12.82
455.958	12.79
456.162	12.87
456.365	12.64
456.569	12.64
456.772	12.56
456.976	12.68
457.179	12.77
457.383	12.76
457.586	12.72
457.79	12.63
457.993	12.83
458.196	12.94
458.4	13.06
458.603	13.29
458.807	13.34
459.01	13.56
459.213	13.42
459.417	13.49
459.62	13.36
459.823	13.34
460.026	13.39
460.23	13.33
460.433	13.3
460.636	13.25
460.839	13.02
461.042	13.05
461.246	13
461.449	12.99
461.652	12.76
461.855	12.84
462.058	12.81
462.261	12.81
462.464	12.68
462.668	12.71
462.871	12.7
463.074	12.92
463.277	12.76
463.48	12.73
463.683	12.86
463.886	12.83
464.089	12.77
464.292	12.62
464.495	12.58
464.698	12.92
464.901	12.88
465.104	12.72
465.306	12.55
465.509	12.87
465.712	13.02
465.915	13.07
466.118	13.06
466.321	12.95
466.524	13
466.726	13.08
466.929	12.94
467.132	12.81
467.335	12.95
467.538	13.17
467.74	12.93
467.943	12.8
468.146	12.6
468.348	12.78
468.551	12.95
468.754	13.1
468.956	13.11
469.159	13.07
469.362	13.08
469.564	13.07
469.767	13.02
469.969	13.22
470.172	13.39
470.375	13.53
470.577	13.4
470.78	13.28
470.982	13.3
471.185	13.19
471.387	13.55
471.59	13.61
471.792	13.57
471.995	13.6
472.197	13.53
472.399	13.47
472.602	13.4
472.804	13.47
473.007	13.56
473.209	13.73
473.411	13.83
473.614	13.6
473.816	13.68
474.018	13.56
474.22	13.61
474.423	13.64
474.625	13.59
474.827	13.67
475.03	13.74
475.232	13.65
475.434	13.46
475.636	13.37
475.838	13.31
476.04	13.34
476.243	13.37
476.445	13.31
476.647	13.37
476.849	13.35
477.051	13.25
477.253	13.48
477.455	13.5
477.657	13.45
477.859	13.51
478.061	13.47
478.263	13.3
478.465	13.36
478.667	13.3
478.869	13.17
479.071	13.16
479.273	13.05
479.475	12.8
479.677	12.82
479.879	12.78
480.081	12.65
480.283	12.65
480.485	12.76
480.686	12.88
480.888	12.9
481.09	12.96
481.292	12.92
481.494	13.2
481.695	13.24
481.897	13.3
482.099	13.36
482.301	13.41
482.502	13.34
482.704	13.37
482.906	13.22
483.107	13.21
483.309	13.14
483.511	13.13
483.712	13.02
483.914	12.97
484.115	12.92
484.317	12.9
484.519	12.91
484.72	12.94
484.922	12.88
485.123	12.89
485.325	12.88
485.526	12.9
485.728	12.84
485.929	12.85
486.131	12.89
486.332	12.87
486.534	12.86
486.735	12.77
486.936	12.78
487.138	12.72
487.339	12.78
487.541	12.78
487.742	12.84
487.943	12.84
488.144	12.89
488.346	12.88
488.547	12.85
488.748	12.82
488.95	12.87
489.151	12.92
489.352	13.03
489.553	12.95
489.755	12.95
489.956	12.87
490.157	12.95
490.358	12.8
490.559	12.77
490.76	12.88
490.961	12.92
491.163	13.01
491.364	12.89
491.565	12.88
491.766	12.94
491.967	12.89
492.168	12.9
492.369	12.86
492.57	13
492.771	12.97
492.972	12.9
493.173	12.85
493.374	12.82
493.575	12.89
493.776	12.87
493.976	12.89
494.177	12.96
494.378	12.96
494.579	13.05
494.78	12.92
494.981	13.02
495.182	13.05
495.382	13.15
495.583	13.03
495.784	13.1
495.985	13.24
496.185	13.26
496.386	13.24
496.587	13.33
496.788	13.3
496.988	13.25
497.189	13.27
497.39	13.27
497.59	13.35
497.791	13.32
497.992	13.18
498.192	13.16
498.393	13.21
498.593	13.21
498.794	13.21
498.994	13.4
499.195	13.43
499.395	13.53
499.596	13.79
499.796	13.8
499.997	14.04
500.197	14.11
500.398	14.04
500.598	13.87
500.799	14.06
500.999	14
501.199	13.93
501.4	14.06
501.6	14.06
501.801	13.94
502.001	13.96
502.201	13.89
502.402	13.94
502.602	14.05
502.802	14.24
503.002	14.24
503.203	14.39
503.403	14.48
503.603	14.62
503.803	14.64
504.003	14.63
504.204	14.7
504.404	14.88
504.604	15.11
504.804	15.29
505.004	15.24
505.204	15.29
505.404	15.23
505.604	15.13
505.804	15.06
506.005	15.08
506.205	15.1
506.405	15.01
506.605	14.9
506.805	14.85
507.005	14.77
507.204	14.9
507.404	14.83
507.604	14.93
507.804	15.07
508.004	15.21
508.204	15.22
508.404	15.32
508.604	15.4
508.804	15.53
509.003	15.56
509.203	15.59
509.403	15.65
509.603	15.82
509.803	15.83
510.002	15.9
510.202	15.92
510.402	16.18
510.602	16.14
510.801	16.25
511.001	16.18
511.201	16.21
511.4	16.36
511.6	16.36
511.8	16.43
511.999	16.67
512.199	16.6
512.398	16.67
512.598	16.69
512.797	17
512.997	17
513.197	17.14
513.396	17.38
513.596	17.38
513.795	17.56
513.994	17.63
514.194	17.56
514.393	17.7
514.593	17.91
514.792	17.96
514.992	17.97
515.191	18.12
515.39	18.36
515.59	18.45
515.789	18.61
515.988	18.72
516.188	18.69
516.387	19.01
516.586	19.24
516.786	19.29
516.985	19.36
517.184	19.6
517.383	19.78
517.582	19.9
517.782	19.83
517.981	19.96
518.18	19.93
518.379	20.27
518.578	20.23
518.777	20.34
518.976	20.5
519.176	20.65
519.375	20.6
519.574	20.78
519.773	20.88
519.972	21.13
520.171	21.34
520.37	21.57
520.569	21.63
520.768	21.82
520.967	22
521.166	22.15
521.365	22.26
521.564	22.52
521.762	22.68
521.961	22.83
522.16	23.01
522.359	23.01
522.558	23.14
522.757	23.19
522.956	23.4
523.154	23.36
523.353	23.47
523.552	23.73
523.751	23.73
523.949	23.87
524.148	23.91
524.347	24.07
524.546	24.29
524.744	24.62
524.943	24.91
525.142	24.98
525.34	25.27
525.539	25.44
525.737	25.6
525.936	25.81
526.135	25.98
526.333	26.23
526.532	26.24
526.73	26.4
526.929	26.52
527.127	26.72
527.326	26.95
527.524	27.09
527.723	27.29
527.921	27.33
528.12	27.5
528.318	27.61
528.516	27.75
528.715	27.93
528.913	27.97
529.112	28.06
529.31	28.1
529.508	28.17
529.707	28.21
529.905	28.3
530.103	28.49
530.301	28.57
530.5	28.66
530.698	28.7
530.896	28.83
531.094	29.13
531.293	29.28
531.491	29.51
531.689	29.83
531.887	30.05
532.085	30.22
532.283	30.29
532.481	30.57
532.68	30.7
532.878	30.86
533.076	30.99
533.274	31.01
533.472	31.11
533.67	31.11
533.868	31.13
534.066	31.28
534.264	31.37
534.462	31.46
534.66	31.49
534.858	31.59
535.056	31.77
535.253	31.84
535.451	31.99
535.649	32.03
535.847	32.18
536.045	32.35
536.243	32.42
536.441	32.46
536.638	32.57
536.836	32.69
537.034	32.96
537.232	32.96
537.43	32.94
537.627	33.09
537.825	33.29
538.023	33.45
538.22	33.59
538.418	33.7
538.616	33.85
538.813	34
539.011	34.03
539.209	33.91
539.406	34.11
539.604	34.47
539.801	34.56
539.999	34.67
540.196	34.68
540.394	34.67
540.591	34.7
540.789	34.86
540.986	34.78
541.184	34.89
541.381	35.02
541.579	35.09
541.776	35.08
541.974	35.12
542.171	35.21
542.368	35.29
542.566	35.29
542.763	35.29
542.96	35.24
543.158	35.52
543.355	35.57
543.552	35.6
543.75	35.61
543.947	35.74
544.144	35.85
544.341	35.71
544.539	35.77
544.736	35.93
544.933	36.13
545.13	36.29
545.327	36.17
545.524	36.2
545.722	36.22
545.919	36.3
546.116	36.31
546.313	36.28
546.51	36.52
546.707	36.54
546.904	36.65
547.101	36.54
547.298	36.59
547.495	36.76
547.692	36.9
547.889	36.94
548.086	36.94
548.283	37.03
548.48	37.12
548.677	37.06
548.874	37.03
549.07	37.12
549.267	37.29
549.464	37.29
549.661	37.26
549.858	37.29
550.055	37.53
550.251	37.61
550.448	37.54
550.645	37.34
550.842	37.41
551.038	37.56
551.235	37.51
551.432	37.6
551.628	37.64
551.825	37.72
552.022	37.87
552.218	37.84
552.415	37.83
552.612	38.04
552.808	38.33
553.005	38.37
553.201	38.28
553.398	38.24
553.594	38.43
553.791	38.48
553.987	38.48
554.184	38.32
554.38	38.22
554.577	38.31
554.773	38.3
554.97	38.31
555.166	38.42
555.362	38.65
555.559	38.84
555.755	38.87
555.952	38.96
556.148	39.34
556.344	39.56
556.541	39.69
556.737	39.81
556.933	39.72
557.129	39.73
557.326	39.85
557.522	39.86
557.718	39.86
557.914	39.72
558.11	39.82
558.307	39.4
558.503	39.27
558.699	39.32
558.895	39.43
559.091	39.62
559.287	39.67
559.483	39.6
559.679	39.4
559.876	39.34
560.072	39.46
560.268	39.33
560.464	39.49
560.66	39.61
560.856	39.68
561.052	39.69
561.247	39.64
561.443	39.56
561.639	39.7
561.835	40.15
562.031	40.24
562.227	40.13
562.423	40.27
562.619	40.34
562.815	40.46
563.01	40.79
563.206	40.69
563.402	40.76
563.598	40.81
563.793	40.87
563.989	40.82
564.185	40.84
564.381	41.07
564.576	41.34
564.772	41.16
564.968	41.01
565.163	40.66
565.359	40.55
565.555	40.45
565.75	40.5
565.946	40.33
566.141	40.27
566.337	40.26
566.532	40.33
566.728	40.16
566.923	40.23
567.119	40.24
567.314	40.47
567.51	40.61
567.705	40.62
567.901	40.69
568.096	40.59
568.292	40.57
568.487	40.66
568.682	40.45
568.878	40.6
569.073	40.73
569.268	40.79
569.464	40.65
569.659	40.76
569.854	40.93
570.05	40.73
570.245	41.06
570.44	41.18
570.635	41.29
570.831	41.34
571.026	41.13
571.221	41.33
571.416	41.41
571.611	41.3
571.806	41.18
572.002	41.23
572.197	41.36
572.392	41.29
572.587	41.26
572.782	41.2
572.977	41.19
573.172	41.18
573.367	40.97
573.562	41.03
573.757	41.18
573.952	41.14
574.147	41.05
574.342	41.13
574.537	41.29
574.732	41.07
574.927	41.09
575.121	41.14
575.316	41.24
575.511	41.15
575.706	41.03
575.901	40.9
576.096	41.11
576.29	41.11
576.485	41.13
576.68	40.8
576.875	41.01
577.069	40.86
577.264	40.9
577.459	40.75
577.654	40.89
577.848	40.76
578.043	40.85
578.238	41
578.432	41.04
578.627	41.05
578.821	41.44
579.016	41.51
579.21	41.83
579.405	41.57
579.6	41.62
579.794	41.78
579.989	42.15
580.183	42.23
580.378	41.86
580.572	42.03
580.766	42.19
580.961	41.84
581.155	41.78
581.35	41.66
581.544	41.79
581.738	42.08
581.933	42.04
582.127	41.91
582.321	41.82
582.516	41.87
582.71	41.67
582.904	41.79
583.099	41.97
583.293	42.04
583.487	42.09
583.681	42.3
583.875	42.08
584.07	42.19
584.264	42.35
584.458	42.34
584.652	42.39
584.846	42.6
585.04	42.05
585.234	42.01
585.428	41.98
585.623	41.92
585.817	41.79
586.011	41.62
586.205	41.39
586.399	41.53
586.593	41.82
586.787	41.85
586.981	41.69
587.174	41.75
587.368	41.76
587.562	41.85
587.756	41.94
587.95	42.18
588.144	42.42
588.338	42.48
588.532	42.32
588.725	42.3
588.919	42.23
589.113	42.45
589.307	42.73
589.501	42.69
589.694	42.8
589.888	42.79
590.082	42.72
590.275	42.74
590.469	42.96
590.663	43.01
590.856	42.58
591.05	42.83
591.244	42.64
591.437	42.62
591.631	42.67
591.824	42.4
592.018	42.31
592.212	42.39
592.405	42.51
592.599	42.3
592.792	42.45
592.986	42.74
593.179	42.57
593.372	42.75
593.566	42.52
593.759	42.61
593.953	42.74
594.146	42.81
594.339	42.85
594.533	42.78
594.726	42.78
594.92	42.62
595.113	42.66
595.306	42.48
595.499	42.52
595.693	43.06
595.886	43.28
596.079	43.37
596.272	43.43
596.466	43.26
596.659	43.33
596.852	43.59
597.045	43.55
597.238	43.57
597.431	43.79
597.624	43.75
597.818	43.32
598.011	43.09
598.204	43.09
598.397	43.09
598.59	43.14
598.783	42.92
598.976	42.79
599.169	42.74
599.362	42.63
599.555	42.43
599.748	42.28
599.941	42.5
600.134	42.67
600.326	42.52
600.519	42.69
600.712	42.89
600.905	43.12
601.098	43.09
601.291	43.4
601.483	43.42
601.676	43.49
601.869	43.54
602.062	43.38
602.255	43.22
602.447	43.31
602.64	43.07
602.833	42.72
603.025	42.93
603.218	42.87
603.411	42.66
603.603	42.86
603.796	42.91
603.989	42.91
604.181	43.07
604.374	43.3
604.566	43.31
604.759	43.46
604.951	43.61
605.144	43.5
605.336	43.64
605.529	43.8
605.721	43.69
605.914	43.9
606.106	44.01
606.299	44.05
606.491	44.07
606.683	44.09
606.876	43.88
607.068	43.88
607.26	43.76
607.453	43.75
607.645	43.53
607.837	43.79
608.03	43.52
608.222	43.34
608.414	43.19
608.606	42.79
608.799	42.88
608.991	43.07
609.183	43.07
609.375	43.18
609.567	42.88
609.759	42.94
609.952	42.85
610.144	42.84
610.336	42.8
610.528	42.86
610.72	43.11
610.912	43.07
611.104	42.92
611.296	43.05
611.488	43.06
611.68	43.32
611.872	43.34
612.064	43.45
612.256	43.48
612.448	43.83
612.64	43.67
612.832	43.72
613.023	43.54
613.215	43.62
613.407	43.4
613.599	43.23
613.791	43.32
613.983	43.36
614.174	43.14
614.366	43.43
614.558	43.54
614.75	43.93
614.941	43.68
615.133	43.86
615.325	43.84
615.516	44.2
615.708	44.5
615.9	44.55
616.091	44.75
616.283	44.85
616.475	44.66
616.666	44.41
616.858	44.22
617.049	44.12
617.241	44.31
617.432	44.24
617.624	44.33
617.815	44.06
618.007	44.16
618.198	43.86
618.39	43.81
618.581	43.9
618.773	43.57
618.964	43.58
619.155	43.63
619.347	43.25
619.538	43.05
619.729	42.57
619.921	42.7
620.112	42.27
620.303	42.62
620.494	42.54
620.686	42.43
620.877	42.61
621.068	42.5
621.259	42.63
621.451	42.86
621.642	42.91
621.833	43.38
622.024	43.34
622.215	43.44
622.406	43.22
622.597	43.3
622.788	43.33
622.98	43.25
623.171	43.6
623.362	43.57
623.553	43.75
623.744	43.9
623.935	43.38
624.126	43.51
624.317	43.55
624.508	43.34
624.698	43.13
624.889	43.12
625.08	43.68
625.271	43.58
625.462	43.79
625.653	43.42
625.844	43.47
626.034	43.63
626.225	43.56
626.416	43.27
626.607	43.47
626.798	43.82
626.988	43.8
627.179	43.5
627.37	43.27
627.56	43.21
627.751	43.6
627.942	43.64
628.132	43.71
628.323	43.64
628.514	44.02
628.704	43.91
628.895	43.56
629.085	43.52
629.276	43.41
629.466	43.78
629.657	43.75
629.847	43.64
630.038	43.94
630.228	43.96
630.419	43.97
630.609	44.09
630.8	43.8
630.99	44.23
631.181	44.6
631.371	44.91
631.561	44.57
631.752	44.69
631.942	44.75
632.132	44.41
632.323	44.36
632.513	44.39
632.703	44.17
632.893	44.55
633.084	44.37
633.274	44.17
633.464	43.75
633.654	43.71
633.844	43.5
634.034	43.07
634.225	42.94
634.415	42.97
634.605	42.76
634.795	42.63
634.985	43.03
635.175	42.98
635.365	43.14
635.555	43.24
635.745	43.29
635.935	43.52
636.125	43.83
636.315	44.31
636.505	44.02
636.695	44.39
636.885	44.18
637.075	43.89
637.265	43.86
637.455	43.81
637.644	44.23
637.834	44.27
638.024	44.06
638.214	44.09
638.404	43.83
638.593	44.37
638.783	44.4
638.973	44.66
639.163	44.54
639.352	44.5
639.542	44.15
639.732	44.07
639.921	44.36
640.111	44.54
640.301	44.45
640.49	44.63
640.68	44.7
640.87	44.68
641.059	45.1
641.249	45.31
641.438	45.59
641.628	46.17
641.817	46.26
642.007	46.18
642.196	46.19
642.386	46.38
642.575	46.21
642.764	45.9
642.954	45.89
643.143	45.65
643.333	45.66
643.522	45.34
643.711	44.79
643.901	44.57
644.09	44.44
644.279	44.46
644.469	44.4
644.658	44.75
644.847	44.87
645.036	44.91
645.226	45.2
645.415	44.91
645.604	44.81
645.793	45.01
645.982	44.88
646.171	45.01
646.361	44.86
646.55	45.37
646.739	45.06
646.928	44.97
647.117	44.58
647.306	44.45
647.495	44.36
647.684	44.3
647.873	44.52
648.062	44.19
648.251	43.9
648.44	43.83
648.629	43.13
648.818	43.04
649.007	42.98
649.196	42.68
649.384	42.21
649.573	42.17
649.762	42.18
649.951	41.87
650.14	42.78
650.328	42.65
650.517	42.49
650.706	42.97
650.895	42.83
651.083	43.27
651.272	43.99
651.461	44.64
651.65	44.68
651.838	45.06
652.027	45.01
652.216	44.46
652.404	44.55
652.593	44.99
652.781	44.4
652.97	44.68
653.158	44.22
653.347	44
653.535	43.55
653.724	43.95
653.912	44.04
654.101	43.84
654.289	43.8
654.478	43.97
654.666	43.54
654.855	43.99
655.043	43.97
655.231	43.92
655.42	44
655.608	44.26
655.796	43.99
655.985	43.93
656.173	44.06
656.361	44.01
656.55	44.06
656.738	44.34
656.926	44.1
657.114	43.71
657.302	43.86
657.491	43.56
657.679	43.4
657.867	43.47
658.055	43.41
658.243	43.65
658.431	43.71
658.619	43.66
658.807	43.93
658.996	43.85
659.184	43.92
659.372	44.08
659.56	44.25
659.748	44.32
659.936	44.25
660.124	44.3
660.311	44.15
660.499	44
660.687	43.69
660.875	43.43
661.063	43.6
661.251	43.28
661.439	43.11
661.627	43.17
661.814	43.1
662.002	42.93
662.19	42.91
662.378	43.12
662.565	43.51
662.753	44.18
662.941	44.38
663.129	44.2
663.316	45.24
663.504	44.97
663.692	44.68
663.879	44.79
664.067	45.2
664.254	44.86
664.442	44.79
664.63	44.63
664.817	44.72
665.005	44.31
665.192	44.75
665.38	44.03
665.567	44.21
665.755	44.53
665.942	44.12
666.13	43.96
666.317	44.2
666.504	44.13
666.692	44.41
666.879	43.82
667.067	44.44
667.254	44.05
667.441	44.4
667.629	44.36
667.816	43.93
668.003	44.29
668.19	44.3
668.378	44.44
668.565	45.03
668.752	44.73
668.939	45.29
669.127	44.88
669.314	44.66
669.501	44.91
669.688	44.79
669.875	45.32
670.062	45.3
670.249	45.35
670.436	45.49
670.623	44.92
670.81	44.85
670.997	44.41
671.184	44.21
671.371	44.87
671.558	44.36
671.745	44.55
671.932	44.05
672.119	44.01
672.306	44.41
672.493	43.98
672.68	43.95
672.867	44.5
673.054	44.56
673.24	44.61
673.427	44.23
673.614	44.21
673.801	44.51
673.988	45.11
674.174	45.48
674.361	44.8
674.548	45.01
674.734	44.92
674.921	44.1
675.108	43.88
675.294	43.92
675.481	44.06
675.668	44.27
675.854	44.22
676.041	43.87
676.227	43.43
676.414	43.8
676.601	43.61
676.787	43.54
676.974	44.1
677.16	44.17
677.347	44.63
677.533	44.56
677.719	44.83
677.906	44.51
678.092	44.64
678.279	44.99
678.465	44.86
678.651	44.85
678.838	44.63
679.024	44.24
679.21	44.46
679.397	44
679.583	44.18
679.769	43.7
679.955	43.73
680.142	43.45
680.328	43.36
680.514	43.4
680.7	43.27
680.886	43.91
681.073	44.17
681.259	44.34
681.445	44.7
681.631	44.54
681.817	44.76
682.003	44.71
682.189	45.04
682.375	45.1
682.561	45.03
682.747	44.75
682.933	44.24
683.119	44.21
683.305	44.15
683.491	44.07
683.677	44.24
683.863	44.06
684.049	44.18
684.235	44.44
684.42	44.08
684.606	43.62
684.792	44.45
684.978	44.74
685.164	44.47
685.349	44.17
685.535	43.97
685.721	43.61
685.907	43.79
686.092	43.87
686.278	44.02
686.464	44.11
686.649	44.49
686.835	44.8
687.021	45.05
687.206	45.73
687.392	45.89
687.577	46.17
687.763	46.63
687.948	46.78
688.134	46.35
688.319	46.09
688.505	46.39
688.69	46.16
688.876	45.64
689.061	45.13
689.247	45.04
689.432	45.16
689.618	44.94
689.803	44.41
689.988	44.43
690.174	44.94
690.359	44.46
690.544	44.48
690.73	44.92
690.915	44.55
691.1	44.55
691.285	44.42
691.471	44.5
691.656	44.34
691.841	44.54
692.026	44.37
692.211	44.41
692.396	44.81
692.582	45.17
692.767	44.46
692.952	44.7
693.137	45.05
693.322	44.79
693.507	44.42
693.692	44.41
693.877	44.76
694.062	44.8
694.247	44.96
694.432	44.76
694.617	44.39
694.802	45.07
694.987	45.06
695.172	44.98
695.357	44.63
695.541	44.37
695.726	44.72
695.911	44.94
696.096	45.27
696.281	44.94
696.466	45.33
696.65	45.48
696.835	45.41
697.02	45.5
697.204	45.97
697.389	46.08
697.574	46.32
697.759	46.09
697.943	45.42
698.128	45.12
698.312	45.18
698.497	44.81
698.682	44.53
698.866	44.53
699.051	44.53
699.235	44.65
699.42	44.69
699.604	44.61
699.789	45.15
699.973	45.23
700.158	45.25
700.342	45.1
700.527	45.12
700.711	45.27
700.895	45.23
701.08	45.18
701.264	44.59
701.448	44.2
701.633	44.49
701.817	43.9
702.001	44.19
702.186	44.24
702.37	44.23
702.554	44.46
702.738	44.53
702.923	44.78
703.107	45.14
703.291	44.7
703.475	45.78
703.659	45.68
703.843	45.15
704.027	44.5
704.212	44.23
704.396	44.97
704.58	44.78
704.764	44.03
704.948	43.28
705.132	42.89
705.316	43.64
705.5	43.54
705.684	43.31
705.868	43.48
706.052	44.11
706.235	45.15
706.419	44.99
706.603	45.37
706.787	46.04
706.971	46.33
707.155	46.92
707.339	46.22
707.522	46.26
707.706	46.48
707.89	46.95
708.074	46.97
708.257	46.19
708.441	45.62
708.625	45.09
708.808	44.96
708.992	46.03
709.176	45.89
709.359	45.99
709.543	45.42
709.727	45.87
709.91	46.17
710.094	46.37
710.277	47.03
710.461	47.37
710.644	47.68
710.828	48.55
711.011	47.28
711.195	47.85
711.378	47.87
711.562	47.79
711.745	46.75
711.928	45.76
712.112	45.15
712.295	44.43
712.478	44.76
712.662	44.68
712.845	44.04
713.028	44.16
713.212	43.21
713.395	43.42
713.578	43.28
713.761	44.5
713.945	45.22
714.128	45.55
714.311	45.38
714.494	44.77
714.677	44.7
714.86	44.51
715.043	44.61
715.227	44.42
715.41	45
715.593	45.27
715.776	45.11
715.959	44.51
716.142	44.8
716.325	45.21
716.508	45.48
716.691	45.82
716.874	45.93
717.057	45.91
717.239	46.91
717.422	46.44
717.605	46.3
717.788	45.81
717.971	46.95
718.154	46.94
718.337	46.57
718.519	46.24
718.702	45.95
718.885	45.11
719.068	45.57
719.25	44.86
719.433	45.07
719.616	45.79
719.798	45.62
719.981	44.81
720.164	45.01
720.346	45.74
720.529	46.5
720.712	46.65
720.894	47.92
721.077	46.92
721.259	47.21
721.442	47.68
721.624	47.64
721.807	48.29
721.989	47.46
722.172	46.6
722.354	46.17
722.537	46.31
722.719	46.14
722.901	46.18
723.084	47
723.266	46.45
723.448	46.26
723.631	45.17
723.813	44.44
723.995	45.44
724.178	46.41
724.36	46.87
724.542	46.01
724.724	46.52
724.907	46.98
725.089	47.81
725.271	48.51
725.453	47.45
725.635	47.44
725.817	47.26
725.999	47.61
726.181	47.07
726.364	46.43
726.546	47.11
726.728	46.35
726.91	44.89
727.092	44.34
727.274	43.75
727.456	44.14
727.638	44.14
727.819	45.01
728.001	44.49
728.183	43.77
728.365	44.07
728.547	43.87
728.729	44.36
728.911	45.77
729.093	45.85
729.274	45.66
729.456	45.37
729.638	46.07
729.82	45.96
730.001	46.07
730.183	46.48
730.365	46.56
730.546	46.43
730.728	45.98
730.91	45.1
731.091	45.23
731.273	45.31
731.455	45.86
731.636	46.56
731.818	46.63
731.999	46.52
732.181	47.54
732.362	46.53
732.544	46.76
732.725	46.42
732.907	46.55
733.088	45.63
733.27	46.38
733.451	45.72
733.633	44.99
733.814	44.4
733.995	44.68
734.177	43.83
734.358	44.88
734.539	44.75
734.721	45.13
734.902	45.32
735.083	46.85
735.264	46.13
735.446	46.96
735.627	46.47
735.808	47.2
735.989	47.74
736.17	48.11
736.351	48
736.533	47.73
736.714	47.47
736.895	46.8
737.076	45.3
737.257	45.33
737.438	45.28
737.619	46.65
737.8	45.82
737.981	44.97
738.162	45.04
738.343	44.81
738.524	45.56
738.705	46.76
738.886	47.06
739.067	47.82
739.247	48.32
739.428	47.19
739.609	46.01
739.79	47.14
739.971	47.33
740.151	47.3
740.332	47.7
740.513	46.94
740.694	46.1
740.874	45.34
741.055	45.64
741.236	44.97
741.417	45.13
741.597	45.17
741.778	44.38
741.958	43.69
742.139	42.68
742.32	41.49
742.5	41.19
742.681	42.71
742.861	43.92
743.042	43.18
743.222	42.53
743.403	44.31
743.583	45.63
743.764	46.16
743.944	46.05
744.124	46.67
744.305	46.94
744.485	47.51
744.666	46.22
744.846	46.25
745.026	46.59
745.207	47.89
745.387	47.26
745.567	46.75
745.747	45.94
745.928	45.7
746.108	45.96
746.288	46.64
746.468	47.19
746.648	47.23
746.829	46.91
747.009	47.1
747.189	47.61
747.369	46.84
747.549	46.47
747.729	46.94
747.909	47.34
748.089	47.79
748.269	47.99
748.449	47.17
748.629	47.13
748.809	47
748.989	47.11
749.169	46.71
749.349	46.31
749.529	45.73
749.709	46.06
749.889	45.83
750.068	44.95
750.248	44.69
750.428	45.04
750.608	45.62
750.788	45.23
750.967	44.41
751.147	43.41
751.327	44.18
751.507	44.96
751.686	44.27
751.866	45.38
752.046	46.44
752.225	46.18
752.405	45.82
752.585	45.74
752.764	46.35
752.944	46.68
753.123	47.67
753.303	47.3
753.482	46.47
753.662	46.66
753.841	47.27
754.021	45.6
754.2	45.98
754.38	46.04
754.559	44.96
754.739	45.5
754.918	45.36
755.097	45.23
755.277	45.79
755.456	46.53
755.635	47.21
755.815	45.1
755.994	46.24
756.173	44.68
756.352	44.61
756.532	45.92
756.711	44.81
756.89	45.32
757.069	45.49
757.248	43.98
757.427	43.79
757.607	43.28
757.786	44.07
757.965	42.89
758.144	43.11
758.323	43.58
758.502	43.09
758.681	43.13
758.86	43.73
759.039	43.39
759.218	45.26
759.397	45.44
759.576	45.01
759.755	44.67
759.934	45.22
760.113	46.13
760.291	45.9
760.47	46.15
760.649	46.32
760.828	45.7
761.007	45.12
761.186	44.69
761.364	44.45
761.543	45.14
761.722	46.01
761.901	46.49
762.079	47.22
762.258	47.18
762.437	46.82
762.615	45.85
762.794	45.25
762.972	45.92
763.151	44.72
763.33	45.07
763.508	45.41
763.687	45.68
763.865	45.78
764.044	45.28
764.222	45.08
764.401	45.39
764.579	46.18
764.758	46.31
764.936	46.48
765.114	47.09
765.293	46.81
765.471	45.85
765.65	45.49
765.828	45.23
766.006	45.2
766.184	44.66
766.363	44.44
766.541	44.34
766.719	44.63
766.898	43.75
767.076	44.21
767.254	43.79
767.432	44.38
767.61	44.52
767.788	44.62
767.967	43.72
768.145	43.64
768.323	44.21
768.501	43.15
768.679	42.86
768.857	43.02
769.035	42.2
769.213	43.58
769.391	43.85
769.569	43.15
769.747	43.81
769.925	43.57
770.103	44.93
770.281	42.62
770.459	43.65
770.636	43.66
770.814	43.55
770.992	45.81
771.17	45.43
771.348	44.81
771.525	44.54
771.703	44.38
771.881	46.34
772.059	46.16
772.236	46.28
772.414	47.45
772.592	47.26
772.769	46.8
772.947	45.53
773.125	44.36
773.302	45.26
773.48	45.5
773.657	44.37
773.835	44.35
774.013	44.24
774.19	46.34
774.368	44.85
774.545	44.83
774.723	47.24
774.9	47.28
775.077	47.81
775.255	47.76
775.432	48.01
775.61	48.47
775.787	46.64
775.964	46.46
776.142	46.23
776.319	46.28
776.496	46.34
776.674	46.04
776.851	46.5
777.028	44.93
777.205	44
777.382	44.49
777.56	44.79
777.737	46.91
777.914	46.63
778.091	46.39
778.268	45.44
778.445	44.73
778.622	43.08
778.8	42.62
778.977	42.91
779.154	44.34
779.331	44.52
779.508	43.75
779.685	43.46
779.862	44.32
780.038	43.47
780.215	45.97
780.392	46.7
780.569	47.44
780.746	46.74
780.923	46.79
781.1	44.3
781.277	43.1
781.453	42.06
781.63	41.25
781.807	40.51
781.984	40.62
782.16	41.92
782.337	42.46
782.514	41.35
782.691	41.73
782.867	42.26
783.044	44.85
783.221	44.88
783.397	45.81
783.574	44.09
783.75	44.3
783.927	45.52
784.103	44.51
784.28	44.48
784.456	46.28
784.633	46.84
784.809	46.46
784.986	42.89
785.162	43.85
785.339	43.23
785.515	45.64
785.692	46.6
785.868	45.15
786.044	43.61
786.221	43.68
786.397	44.91
786.573	43.44
786.749	44.29
786.926	45.83
787.102	43.84
787.278	43.83
787.454	45.86
787.631	44.24
787.807	45.71
787.983	45.67
788.159	45.6
788.335	43.16
788.511	44.42
788.687	42.92
788.863	45.27
789.039	46.23
789.216	46.34
789.392	45.1
789.568	43.78
789.744	43.51
789.919	44.42
790.095	45.98
790.271	47.26
790.447	46.4
790.623	49.11
790.799	47.59
790.975	47.87
791.151	51.68
791.327	49.68
791.502	50.36
791.678	49.67
791.854	49.98
792.03	46.65
792.205	44.85
792.381	43.73
792.557	41.65
792.733	41.53
792.908	42.74
793.084	41.66
793.259	42.08
793.435	42.86
793.611	42.63
793.786	40.69
793.962	43
794.137	43.19
794.313	42.68
794.488	45.02
794.664	42.7
794.839	43.42
795.015	41.47
795.19	40.27
795.366	42.59
795.541	42.87
795.716	42.09
795.892	39.52
796.067	39.82
796.242	43.61
796.418	42.65
796.593	42.47
796.768	40.57
796.944	41.19
797.119	42.25
797.294	39.97
797.469	39.09
797.644	40.59
797.82	43.68
797.995	44.84
798.17	43.33
798.345	41.92
798.52	44.66
798.695	44.52
798.87	44.43
799.045	43.9
799.22	43.12
799.395	45.8
799.57	45.47
799.745	45.71
799.92	44.7
800.095	45.01
800.27	45.31
800.445	44.41
800.62	43.44
800.795	42.64
800.97	44.64
801.145	47.13
801.319	44.51
801.494	45.53
801.669	44.48
801.844	42.97
802.018	42.44
802.193	41.59
802.368	41.79
802.543	43.55
802.717	45.81
802.892	44.87
803.067	45.02
803.241	45.3
803.416	42.41
803.59	44.37
803.765	46.31
803.94	47.44
804.114	48.66
804.289	49.82
804.463	47.37
804.638	43.97
804.812	42.31
804.986	40.65
805.161	40.9
805.335	44.59
805.51	43
805.684	43.17
805.858	39.75
806.033	39.35
806.207	38.07
806.381	43.63
806.556	44.96
806.73	46.12
806.904	46.98
807.078	48.18
807.253	45.1
807.427	45.22
807.601	43.99
807.775	45.98
807.949	47.56
808.123	47.74
808.298	46.24
808.472	44.87
808.646	45.51
808.82	43.9
808.994	41.59
809.168	43.53
809.342	42.94
809.516	43.87
809.69	45.99
809.864	44.07
810.038	43.43
810.212	42.04
810.385	40.58
810.559	39.27
810.733	38.75
810.907	40.04
811.081	35.91
811.255	36.96
811.428	37.14
811.602	33.53
811.776	34.71
811.95	34.7
812.123	36.12
812.297	38.5
812.471	38.81
812.644	43.68
812.818	43.99
812.992	48.25
813.165	47.26
813.339	46.47
813.512	48.16
813.686	46.69
813.86	47.1
814.033	45.21
814.207	44.9
814.38	45.54
814.554	44.35
814.727	44.4
814.9	45.45
815.074	44.72
815.247	44.4
815.421	43.33
815.594	46.23
815.767	46.52
815.941	44.71
816.114	48.59
816.287	51.39
816.46	50.97
816.634	51.43
816.807	50.12
816.98	49.3
817.153	50.38
817.327	52.52
817.5	47.65
817.673	50.69
817.846	53.99
818.019	52.52
818.192	52.7
818.365	52.57
818.538	54.29
818.711	52.83
818.884	53.2
819.057	52.81
819.23	51.29
819.403	54.25
819.576	53.83
819.749	52.66
819.922	51.31
820.095	50.32
820.268	48.45
820.441	47.43
820.614	47.87
820.786	46.31
820.959	46.79
821.132	46.78
821.305	44.25
821.477	43.07
821.65	43.42
821.823	43.64
821.996	42.89
822.168	43.28
822.341	43.18
822.514	43.33
822.686	43.65
822.859	43.52
823.031	42.95
823.204	43.66
823.376	43.47
823.549	43.67
823.722	43.48
823.894	43.78
824.067	43.45
824.239	43.39
824.411	43.47
824.584	43.88
824.756	44.37
824.929	44.94
825.101	45.02
825.273	45.18
825.446	44.76
825.618	44.7
825.79	45.11
825.963	45.13
826.135	44.89
826.307	44.84
826.479	44.81
826.652	43.75
826.824	43.41
826.996	43.26
827.168	43.51
827.34	43.52
827.512	44.44
827.684	43.88
827.856	43.84
828.029	43.78
828.201	43.26
828.373	42.9
828.545	43.15
828.717	43.46
828.889	43.16
829.061	43.59
829.232	43.16
829.404	42.16
829.576	42.39
829.748	43.57
829.92	44.29
830.092	43.86
830.264	42.74
830.436	42.61
830.607	42.37
830.779	43.37
830.951	41.64
831.123	42.62
831.294	42.67
831.466	41.01
831.638	41.15
831.809	39.66
831.981	38.94
832.153	40.45
832.324	41.47
832.496	41.61
832.667	41.97
832.839	44.07
833.011	43.17
833.182	43.53
833.354	45.41
833.525	43.92
833.697	43.47
833.868	43.76
834.039	43.79
834.211	42.63
834.382	41.8
834.554	39.98
834.725	40.3
834.896	39.17
835.068	37.97
835.239	37.55
835.41	39.28
835.581	38.17
835.753	40.02
835.924	40.5
836.095	40.48
836.266	40.98
836.438	40.22
836.609	39.38
836.78	40.91
836.951	43.7
837.122	41.45
837.293	40.03
837.464	43.37
837.635	42.71
837.806	41.67
837.977	42.69
838.148	43.2
838.319	45.83
838.49	43.8
838.661	44.44
838.832	45.04
839.003	47.77
839.174	45.62
839.345	47.32
839.516	44.92
839.687	49.04
839.857	45.94
840.028	45.31
840.199	46.54
840.37	49.96
840.54	48.15
840.711	47.4
840.882	49.33
841.053	53.67
841.223	50.25
841.394	54.79
841.564	56.79
841.735	58.36
841.906	58.88
842.076	55.92
842.247	50.8
842.417	53.93
842.588	55.43
842.758	57.98
842.929	52.75
843.099	56.3
843.27	50.98
843.44	49.19
843.611	51.04
843.781	51.85
843.951	51.36
844.122	52.65
844.292	48.68
844.462	48.38
844.633	45.38
844.803	46.3
844.973	43.89
845.144	44.59
845.314	37.58
845.484	42.12
845.654	43.47
845.824	47.16
845.995	46.34
846.165	48.58
846.335	48.36
846.505	46.02
846.675	45.71
846.845	43.69
847.015	48.04
847.185	51.56
847.355	39.31
847.525	37.69
847.695	39.39
847.865	43.95
848.035	50.32
848.205	46.89
848.375	47.19
848.545	44.26
848.715	41.77
848.884	35.65
849.054	30.83
849.224	30.46
849.394	33.47
849.564	29.08
849.733	33.59
849.903	28.47
850.073	23.78
850.243	29.32
850.412	34.6
850.582	41.3
850.752	39.39
850.921	37.09
851.091	48.2
851.26	47.64
851.43	51.29
851.599	45.33
851.769	45.67
851.939	46.43
852.108	33.08
852.278	24.93
852.447	14.66
852.616	28.72
852.786	34.53
852.955	35.27
853.125	37.73
853.294	36.74
853.463	36.57
853.633	40.73
853.802	48.75
853.971	68.03
854.141	76.04
854.31	77.93
854.479	74.97
854.648	102.94
854.818	83.09
854.987	71.63
855.156	66.7
855.325	62.03
855.494	52.58
855.663	34.31
855.832	29.29
856.001	16.78
856.171	18.03
856.34	19.16
856.509	13.12
856.678	14.87
856.847	18.77
857.016	25.67
857.185	22.91
857.353	38.98
857.522	49.36
857.691	45.15
857.86	56.89
858.029	60.66
858.198	69.92
858.367	64.66
858.535	52.99
858.704	55.48
858.873	51.87
859.042	56.61
859.21	48.87
859.379	40.16
859.548	38.69
859.717	43.74
859.885	40.92
860.054	17.44
860.222	19.92
860.391	27.63
860.56	30.46
860.728	28.35
860.897	31.17
861.065	28.97
861.234	33.11
861.402	32.65
861.571	31.65
861.739	35.4
861.908	38.76
862.076	41.18
862.244	40.44
862.413	32.36
862.581	38.02
862.749	35.21
862.918	41.16
863.086	51.96
863.254	54.85
863.423	47.92
863.591	45.16
863.759	60.72
863.927	50.44
864.096	49.08
864.264	51.78
864.432	46.83
864.6	52.36
864.768	48.26
864.936	44.76
865.104	42.92
865.272	46.06
865.44	47.27
865.608	39.07
865.776	54.19
865.944	61.75
866.112	68.44
866.28	69.52
866.448	60.25
866.616	71.56
866.784	60.18
866.952	63.7
867.12	74.94
867.288	77.36
867.455	84.99
867.623	71.81
867.791	61.53
867.959	69.88
868.127	57.08
868.294	62.31
868.462	47.51
868.63	43
868.797	45.39
868.965	30.15
869.133	22.72
869.3	31.42
869.468	40.48
869.636	34.38
869.803	35.83
869.971	41.98
870.138	41.52
870.306	44.15
870.473	52.56
870.641	49.37
870.808	53.07
870.975	54.56
871.143	47.09
871.31	42.34
871.478	39.38
871.645	38.23
871.812	46.65
871.98	53.26
872.147	39.45
872.314	31.18
872.482	32.97
872.649	33.27
872.816	31.78
872.983	37.99
873.15	30.77
873.318	42.85
873.485	35.17
873.652	31.13
873.819	24.82
873.986	42.66
874.153	45.72
874.32	43.5
874.487	50.64
874.654	52.79
874.821	53.88
874.988	64.44
875.155	55.08
875.322	50.93
875.489	42.76
875.656	40.1
875.823	17.7
875.99	13.46
876.157	18.43
876.324	10.06
876.49	16.83
876.657	12.23
876.824	20.97
876.991	25.54
877.157	21.03
877.324	23.16
877.491	30.19
877.658	40.66
877.824	40.14
877.991	42.68
878.157	51
878.324	55.79
878.491	56.86
878.657	50.75
878.824	51
878.99	54.3
879.157	56.47
879.323	54.72
879.49	54.22
879.656	59.82
879.823	60.07
879.989	53.33
880.156	48.27
880.322	39.26
880.488	39.65
880.655	38.75
880.821	45.92
880.987	51.17
881.154	53.82
881.32	53.41
881.486	49.34
881.652	52.65
881.819	53.52
881.985	53.81
882.151	56.7
882.317	56.86
882.483	57.84
882.649	54.16
882.816	49.45
882.982	48.54
883.148	46.52
883.314	46.1
883.48	44.9
883.646	44.34
883.812	45.37
883.978	46.11
884.144	45.92
884.31	45.86
884.476	45.79
884.642	45.82
884.807	44.51
884.973	43.38
885.139	44.49
885.305	44.49
885.471	45.08
885.637	44.83
885.802	43.25
885.968	43.03
886.134	42.58
886.3	43.77
886.465	45.22
886.631	44.88
886.797	48.51
886.962	44.34
887.128	45.84
887.293	45.85
887.459	40.72
887.625	42.69
887.79	44.24
887.956	41.79
888.121	39.33
888.287	40.37
888.452	44.82
888.618	39.35
888.783	49.41
