Data from CB_049_Reflection_1.txt Node
Date: Wed Nov 11 22:35:55 EST 2015
User: robert
Spectrometer: USB4E03001
Autoset integration time: false
Trigger mode: 4
Integration Time (sec): 1.000000E-1
Scans to average: 15
Electric dark correction enabled: true
Nonlinearity correction enabled: false
Boxcar width: 5
Stray light correction enabled: false
XAxis mode: Wavelengths
Stop averaging: false
Number of Pixels in Spectrum: 3648
>>>>>Begin Spectral Data<<<<<
177.566	65.24
177.785	128.29
178.005	49.27
178.225	93.17
178.445	10.49
178.665	20.64
178.885	-92.1
179.105	-1.46
179.324	7.82
179.544	39.01
179.764	61.28
179.984	-1.36
180.204	3.46
180.423	-19.81
180.643	-20.08
180.863	5.26
181.083	5.42
181.302	-3.31
181.522	-8.62
181.742	11.25
181.961	-5.75
182.181	-11.45
182.401	3.07
182.621	-11.76
182.84	-1.72
183.06	-8.02
183.279	-22.83
183.499	-3.49
183.719	-6
183.938	1.3
184.158	-14.18
184.377	6.35
184.597	23.57
184.816	37.16
185.036	44.73
185.256	39.34
185.475	64.96
185.695	83.31
185.914	40.78
186.134	73.25
186.353	45.93
186.572	20.29
186.792	12.28
187.011	13.27
187.231	-28.98
187.45	-44.8
187.67	-36.38
187.889	-19.62
188.108	1.35
188.328	16.96
188.547	-5.83
188.766	2.14
188.986	18.08
189.205	11.2
189.424	-15
189.644	-4.66
189.863	-12.54
190.082	-6.94
190.302	-24.34
190.521	-24
190.74	-37.55
190.959	-21.79
191.178	-6.07
191.398	-8.31
191.617	1.69
191.836	4.73
192.055	8.21
192.274	3.54
192.494	-16.11
192.713	7.06
192.932	15.77
193.151	26.6
193.37	21.97
193.589	8.34
193.808	-5.68
194.027	-22.55
194.246	16.76
194.465	19.51
194.685	40.84
194.904	32.65
195.123	6.34
195.342	-12.42
195.561	-13.56
195.78	-1.96
195.999	16.29
196.218	13.53
196.436	27.99
196.655	11.56
196.874	49.08
197.093	8.07
197.312	50.59
197.531	35.36
197.75	39.33
197.969	26.36
198.188	17.4
198.407	-1.92
198.625	2.25
198.844	-10.36
199.063	-26.37
199.282	-61.08
199.501	-79.24
199.719	-134.74
199.938	-69.47
200.157	-171.75
200.376	-66.28
200.594	-67.82
200.813	-17.17
201.032	-40.21
201.251	-30.69
201.469	5.19
201.688	22.86
201.907	16.75
202.125	6.66
202.344	0.71
202.563	1.72
202.781	-5.44
203	-17.3
203.218	-28.88
203.437	-17.59
203.656	-14.56
203.874	-5.07
204.093	-2.37
204.311	3.06
204.53	-16.49
204.748	-6.19
204.967	-0.58
205.185	-4.42
205.404	20.82
205.622	31.59
205.841	34.58
206.059	26.13
206.278	22.96
206.496	25.03
206.715	15.14
206.933	36.29
207.151	28.52
207.37	27.93
207.588	17.23
207.806	11.48
208.025	13.75
208.243	11.22
208.461	23.38
208.68	17.44
208.898	18.95
209.116	30.09
209.335	13.88
209.553	9.91
209.771	24.39
209.989	39.83
210.208	33.75
210.426	33.09
210.644	28.32
210.862	19.52
211.081	38.34
211.299	53.2
211.517	81.12
211.735	87.49
211.953	117
212.171	97.05
212.39	90.69
212.608	93.17
212.826	82.49
213.044	85.05
213.262	82.05
213.48	79.46
213.698	86.94
213.916	59.55
214.134	39
214.352	19.52
214.57	40.86
214.788	94.21
215.006	91.5
215.224	61.61
215.442	22.49
215.66	-10.34
215.878	8.76
216.096	0.44
216.314	-6.63
216.532	8.53
216.75	3.21
216.968	7.21
217.185	6.04
217.403	16.27
217.621	15.84
217.839	29.67
218.057	30.29
218.275	41.03
218.492	50.43
218.71	47.77
218.928	45.58
219.146	49.19
219.363	46.2
219.581	44.97
219.799	22.34
220.017	35.75
220.234	-5.92
220.452	13.6
220.67	11.03
220.887	-20.61
221.105	-32.88
221.323	-57.18
221.54	-64.82
221.758	-35.47
221.976	-26.68
222.193	-5.49
222.411	-18.15
222.629	11.62
222.846	2.26
223.064	-7.91
223.281	7.48
223.499	17.86
223.716	21.08
223.934	35.99
224.151	23.37
224.369	19.02
224.586	19.14
224.804	36.57
225.021	14.89
225.239	16.4
225.456	22
225.674	16.67
225.891	21.41
226.108	18.91
226.326	6.19
226.543	13.85
226.76	16.57
226.978	6.73
227.195	2.8
227.413	10.17
227.63	11.46
227.847	10.8
228.064	8.9
228.282	7.2
228.499	8.53
228.716	8.19
228.934	7.98
229.151	2.83
229.368	2.86
229.585	4.52
229.802	0.7
230.02	-0.65
230.237	-0.4
230.454	1.61
230.671	-2.46
230.888	-6
231.105	-5.82
231.323	-6.72
231.54	-0.81
231.757	-0.17
231.974	-1.95
232.191	-1.57
232.408	-1.52
232.625	-2.46
232.842	-4.7
233.059	-2.8
233.276	2.69
233.493	1.18
233.71	2.94
233.927	4.81
234.144	4.32
234.361	3.96
234.578	7.99
234.795	8.91
235.012	7.53
235.229	7.25
235.446	13.14
235.663	13.61
235.879	13.92
236.096	12.67
236.313	7.03
236.53	7.99
236.747	9.75
236.964	9.85
237.181	12.18
237.397	7.29
237.614	6.24
237.831	-0.42
238.048	-2.37
238.264	-6.26
238.481	-4.15
238.698	-0.91
238.915	1.41
239.131	0.78
239.348	-2.73
239.565	-2.78
239.781	-1.26
239.998	2.98
240.215	4.76
240.431	7.81
240.648	9.78
240.865	6.84
241.081	7.41
241.298	7.01
241.514	5.28
241.731	8.7
241.947	5.6
242.164	8.07
242.38	6.67
242.597	6.97
242.814	6.75
243.03	7.02
243.246	9.05
243.463	9.58
243.679	9.65
243.896	11.39
244.112	11.18
244.329	15.18
244.545	13.52
244.762	13.95
244.978	15.08
245.194	14.09
245.411	13.1
245.627	12.77
245.843	11.66
246.06	10.67
246.276	9.72
246.492	8.53
246.709	8.01
246.925	9.25
247.141	10.25
247.357	9.03
247.574	9.72
247.79	9.6
248.006	10.1
248.222	9.85
248.439	10.87
248.655	11.61
248.871	11.37
249.087	10.69
249.303	10.51
249.519	9.57
249.736	9.63
249.952	8
250.168	8.8
250.384	5.55
250.6	6.46
250.816	5.73
251.032	3.88
251.248	7.77
251.464	8.61
251.68	9.83
251.896	10.01
252.112	9.78
252.328	8.94
252.544	9.43
252.76	10.04
252.976	10.77
253.192	8.49
253.408	8.62
253.624	6.45
253.84	5.86
254.056	4.88
254.272	6.83
254.487	8.62
254.703	9.53
254.919	8.53
255.135	9.1
255.351	6.95
255.567	9.29
255.782	9.9
255.998	10.44
256.214	9.62
256.43	10.02
256.646	7.78
256.861	5.97
257.077	6.92
257.293	5.04
257.508	4.22
257.724	5.74
257.94	6.18
258.155	5.29
258.371	4.91
258.587	6.58
258.802	6.72
259.018	6.86
259.234	6.66
259.449	6.14
259.665	7.01
259.88	7.51
260.096	6.65
260.312	6.5
260.527	7.27
260.743	7.36
260.958	6.32
261.174	6.64
261.389	7.01
261.605	7.4
261.82	8.37
262.036	8.75
262.251	10.04
262.466	11.65
262.682	12.86
262.897	11.17
263.113	10.62
263.328	11.33
263.543	10.67
263.759	8.41
263.974	9.02
264.189	8.27
264.405	6.94
264.62	4.26
264.835	2.77
265.051	1.97
265.266	2.71
265.481	4.23
265.696	5.25
265.912	4.94
266.127	6.44
266.342	5.71
266.557	5.72
266.773	5.34
266.988	5.18
267.203	2.72
267.418	2.74
267.633	3.51
267.848	2.85
268.064	1.33
268.279	1.37
268.494	-0.96
268.709	0.22
268.924	1.66
269.139	3.37
269.354	4.58
269.569	6.39
269.784	6.72
269.999	6.2
270.214	5.96
270.429	7.14
270.644	7.15
270.859	8.13
271.074	7.79
271.289	7.74
271.504	7.31
271.719	6.62
271.934	6.07
272.149	5.89
272.363	7.06
272.578	7.84
272.793	7.15
273.008	6.7
273.223	7.58
273.438	7.37
273.653	7.77
273.867	7.15
274.082	7.82
274.297	8.87
274.512	9.35
274.726	8.08
274.941	8.73
275.156	10.92
275.371	10.65
275.585	9.95
275.8	9.95
276.015	7.56
276.229	7.99
276.444	8.88
276.659	9.46
276.873	9.49
277.088	10.1
277.302	8.93
277.517	8.57
277.732	10.35
277.946	10.61
278.161	11.07
278.375	12.5
278.59	12.26
278.804	10.23
279.019	10.24
279.233	10.43
279.448	10.55
279.662	10.23
279.877	10.29
280.091	8.48
280.306	8.4
280.52	6.73
280.735	7.19
280.949	7.05
281.163	6.37
281.378	4.37
281.592	3.58
281.806	4.9
282.021	4.19
282.235	4.28
282.449	4.53
282.664	4.11
282.878	4.78
283.092	4.05
283.307	5.09
283.521	5.6
283.735	7.14
283.949	7.65
284.164	7.63
284.378	9.33
284.592	8.28
284.806	8.41
285.02	8.86
285.234	8.96
285.449	9.69
285.663	9.45
285.877	10.23
286.091	10.47
286.305	9.67
286.519	8.93
286.733	7.75
286.947	8.19
287.161	8.17
287.375	8.37
287.589	9.25
287.803	8.32
288.017	7.19
288.231	7.21
288.445	7.32
288.659	7.47
288.873	7.61
289.087	8.22
289.301	8.15
289.515	9.37
289.729	8.7
289.943	8.68
290.157	9.02
290.371	9.55
290.584	9.05
290.798	9.59
291.012	9.69
291.226	9.99
291.44	9.6
291.654	9.82
291.867	8.56
292.081	8.48
292.295	8.38
292.509	7.81
292.722	7.9
292.936	7.21
293.15	5.77
293.364	7.61
293.577	6.7
293.791	6.33
294.005	5.13
294.218	5.81
294.432	7.26
294.645	7.97
294.859	8.19
295.073	8.06
295.286	8.44
295.5	8.77
295.713	6.61
295.927	6.75
296.14	7.61
296.354	8.36
296.568	8.27
296.781	7.96
296.994	7.44
297.208	8.38
297.421	8.49
297.635	9.17
297.848	9.07
298.062	9.42
298.275	9.88
298.489	10.2
298.702	10.67
298.915	10.43
299.129	10.97
299.342	10.78
299.555	10.75
299.769	11.29
299.982	10.97
300.195	11.1
300.409	11.24
300.622	11.27
300.835	11.2
301.048	9.84
301.262	10.47
301.475	9.95
301.688	10.66
301.901	9.63
302.115	9.18
302.328	9.47
302.541	9.49
302.754	9.16
302.967	8.95
303.18	8.98
303.393	9.7
303.607	9.89
303.82	9.6
304.033	9.08
304.246	8.18
304.459	8.94
304.672	9.06
304.885	10.11
305.098	11.43
305.311	11.53
305.524	10.88
305.737	10.15
305.95	9.8
306.163	9.72
306.376	10.54
306.589	12
306.802	11.85
307.015	11.9
307.228	10.23
307.44	9.75
307.653	10.65
307.866	11.26
308.079	12.19
308.292	10.79
308.505	11.34
308.718	10.95
308.93	11.22
309.143	10.37
309.356	10.4
309.569	11.28
309.781	11.26
309.994	10.06
310.207	10.29
310.42	10.19
310.632	12.05
310.845	11.96
311.058	11.92
311.27	11.71
311.483	12.24
311.696	12.13
311.908	12.48
312.121	11.97
312.333	11.75
312.546	11.47
312.759	11.16
312.971	10.05
313.184	10.08
313.396	9.14
313.609	8.98
313.821	9.83
314.034	10.59
314.246	9.99
314.459	10.88
314.671	12.22
314.884	13.03
315.096	13.27
315.309	12.09
315.521	10.93
315.733	12.77
315.946	12.31
316.158	10.39
316.371	9.93
316.583	9
316.795	9.2
317.008	9.06
317.22	9.1
317.432	9.81
317.644	11.9
317.857	13.14
318.069	11.4
318.281	11.28
318.494	12.45
318.706	12.81
318.918	13.91
319.13	14.53
319.342	14.29
319.555	13.74
319.767	13.33
319.979	12.51
320.191	12.29
320.403	13.91
320.615	14.01
320.827	13.6
321.039	11.79
321.252	11.3
321.464	10.46
321.676	9.61
321.888	10.08
322.1	9.23
322.312	9.95
322.524	10.48
322.736	9.53
322.948	9.74
323.16	9.08
323.372	9.89
323.584	10.28
323.796	10.46
324.007	10.93
324.219	10.87
324.431	12.13
324.643	12.48
324.855	12.55
325.067	12.59
325.279	13.1
325.491	13.85
325.702	13.38
325.914	13.78
326.126	13.24
326.338	11.81
326.55	11.79
326.761	10.9
326.973	10.78
327.185	10.93
327.396	11.89
327.608	11.6
327.82	12.14
328.032	13.01
328.243	12.97
328.455	13.67
328.666	15.38
328.878	15.74
329.09	16.44
329.301	15.78
329.513	15.07
329.725	13.81
329.936	15.4
330.148	15.08
330.359	15.16
330.571	15.29
330.782	15.82
330.994	16.12
331.205	15.82
331.417	16.32
331.628	16.27
331.84	16.55
332.051	16.7
332.262	15.04
332.474	14.87
332.685	15.08
332.897	15.06
333.108	15.53
333.319	16.15
333.531	17.21
333.742	17.65
333.953	18.39
334.165	18.48
334.376	19.51
334.587	19.97
334.799	20.19
335.01	19.72
335.221	19.57
335.432	19.35
335.644	18.84
335.855	18.06
336.066	17.46
336.277	17.41
336.488	16.98
336.7	15.92
336.911	16.33
337.122	16.28
337.333	17.2
337.544	17.14
337.755	17.16
337.966	17.02
338.177	16.38
338.388	16.55
338.599	16.5
338.811	16.23
339.022	16.18
339.233	15.89
339.444	16.2
339.655	15.49
339.866	15.85
340.076	15.16
340.287	15.86
340.498	16.74
340.709	16.85
340.92	17.2
341.131	18.15
341.342	19.04
341.553	19.17
341.764	18.61
341.975	19.01
342.185	18.07
342.396	18.29
342.607	17.86
342.818	17.33
343.029	16.98
343.239	16.77
343.45	16.54
343.661	16.47
343.872	15.58
344.082	15.54
344.293	15.29
344.504	16.41
344.714	16.93
344.925	16.38
345.136	16.41
345.346	16.73
345.557	16.62
345.768	16.19
345.978	16.02
346.189	17.74
346.399	18.96
346.61	18.75
346.821	18.09
347.031	18.24
347.242	18.99
347.452	19.4
347.663	19.3
347.873	19.26
348.084	19.9
348.294	19.63
348.504	18.22
348.715	16.94
348.925	17.13
349.136	16.7
349.346	15.62
349.557	14.88
349.767	14.63
349.977	14.84
350.188	14.27
350.398	13.56
350.608	13.6
350.819	14.56
351.029	14.56
351.239	14.09
351.449	14.96
351.66	14.67
351.87	15.74
352.08	16.09
352.29	15.89
352.501	17.02
352.711	17.42
352.921	17.51
353.131	16.67
353.341	16.64
353.552	16.93
353.762	16.16
353.972	17.61
354.182	16.72
354.392	16.18
354.602	15.92
354.812	15.11
355.022	15.08
355.232	14.96
355.442	15.33
355.652	15.73
355.862	15.89
356.072	16.23
356.282	15.71
356.492	15.97
356.702	16.03
356.912	15.99
357.122	16.12
357.332	16.21
357.542	15.99
357.752	15.79
357.962	14.96
358.171	15.24
358.381	15.67
358.591	15.04
358.801	14.74
359.011	14.22
359.221	14.78
359.43	15.14
359.64	14.32
359.85	14.91
360.06	14.65
360.269	15.74
360.479	15.21
360.689	15.27
360.899	15.29
361.108	15.56
361.318	16.05
361.528	15.85
361.737	15.8
361.947	16.67
362.156	16.02
362.366	16.44
362.576	15.87
362.785	16.3
362.995	15.77
363.204	15.9
363.414	15.72
363.623	16.01
363.833	15.27
364.042	15.07
364.252	15.53
364.461	15.73
364.671	15.09
364.88	15.47
365.09	15.02
365.299	15.3
365.509	15.44
365.718	15.75
365.927	15.45
366.137	15.27
366.346	15.05
366.555	14.17
366.765	13.89
366.974	14.36
367.183	14.01
367.393	14.23
367.602	14.25
367.811	14.38
368.021	14.16
368.23	13.84
368.439	14.5
368.648	14.85
368.857	14.26
369.067	14.08
369.276	13.72
369.485	13.77
369.694	13.77
369.903	13.51
370.112	13.36
370.321	13.42
370.531	13.13
370.74	13.09
370.949	12.77
371.158	12.89
371.367	13.06
371.576	13.15
371.785	13.3
371.994	12.97
372.203	12.92
372.412	13.36
372.621	13.19
372.83	13.03
373.039	13.2
373.248	12.81
373.457	13.11
373.666	13.22
373.874	13.03
374.083	12.34
374.292	11.83
374.501	12.73
374.71	11.58
374.919	11.52
375.128	12.07
375.336	12.12
375.545	12.51
375.754	12.89
375.963	12.62
376.171	12.68
376.38	12.6
376.589	12.59
376.798	11.03
377.006	11.3
377.215	11.37
377.424	11.17
377.632	10.9
377.841	10.87
378.05	10.32
378.258	10.42
378.467	10.35
378.675	10.47
378.884	10.47
379.093	10.68
379.301	10.89
379.51	10.55
379.718	10.35
379.927	10.27
380.135	9.98
380.344	10.05
380.552	10.3
380.761	9.77
380.969	9.61
381.177	9.79
381.386	9.95
381.594	9.48
381.803	9.52
382.011	9.19
382.219	9.15
382.428	9.23
382.636	8.65
382.845	9.03
383.053	9.09
383.261	8.95
383.469	8.63
383.678	8.4
383.886	8.5
384.094	8.46
384.302	9.03
384.511	8.81
384.719	8.45
384.927	8.72
385.135	8.35
385.343	8.76
385.552	9.05
385.76	9.28
385.968	9.15
386.176	9.22
386.384	8.98
386.592	8.8
386.8	9.21
387.008	9.57
387.216	9.53
387.424	9.51
387.633	9.15
387.841	9.02
388.049	8.71
388.257	8.79
388.465	8.81
388.672	8.88
388.88	8.67
389.088	8.18
389.296	7.59
389.504	7.3
389.712	6.48
389.92	6.58
390.128	6.22
390.336	6.26
390.544	6.42
390.751	6.29
390.959	6.35
391.167	6.34
391.375	6.51
391.583	7.02
391.79	6.87
391.998	7.28
392.206	6.96
392.414	7.05
392.621	6.7
392.829	6.54
393.037	6.39
393.244	6.36
393.452	6.57
393.66	6.45
393.867	6.54
394.075	7.18
394.283	7.1
394.49	7.42
394.698	7.53
394.905	7.87
395.113	7.81
395.32	7.76
395.528	7.79
395.735	7.73
395.943	7.63
396.15	7.57
396.358	7.12
396.565	7.2
396.773	7.07
396.98	7.14
397.188	7.1
397.395	7.21
397.602	7.35
397.81	7.42
398.017	7.19
398.225	6.84
398.432	6.44
398.639	6.56
398.847	6.22
399.054	6.18
399.261	6.1
399.468	6.4
399.676	6.55
399.883	6.64
400.09	6.29
400.297	6.3
400.505	6.43
400.712	6.51
400.919	6.46
401.126	6.57
401.333	6.49
401.54	6.11
401.748	5.7
401.955	5.41
402.162	5.17
402.369	5.37
402.576	5.3
402.783	5.66
402.99	5.21
403.197	4.84
403.404	4.8
403.611	5.04
403.818	5.25
404.025	5.31
404.232	5.5
404.439	5.51
404.646	5.07
404.853	4.88
405.06	4.54
405.267	4.74
405.474	4.72
405.681	4.7
405.887	4.67
406.094	4.76
406.301	5.01
406.508	4.8
406.715	4.97
406.922	5.44
407.128	5.84
407.335	5.77
407.542	5.77
407.749	6.03
407.955	5.94
408.162	5.61
408.369	5.43
408.575	5.04
408.782	5.23
408.989	5.12
409.195	5.03
409.402	4.71
409.609	5.13
409.815	5.29
410.022	5.15
410.228	5.19
410.435	5.37
410.642	5.34
410.848	5.05
411.055	5
411.261	4.97
411.468	5
411.674	5.41
411.881	5.15
412.087	4.83
412.294	5.07
412.5	5.25
412.706	5.11
412.913	5.03
413.119	5.37
413.326	5.4
413.532	5.12
413.738	5.02
413.945	4.45
414.151	4.56
414.357	4.82
414.564	4.74
414.77	4.67
414.976	4.62
415.182	4.63
415.389	4.57
415.595	4.08
415.801	4.5
416.007	4.61
416.214	4.48
416.42	4.45
416.626	4.29
416.832	4.1
417.038	4.25
417.244	4.36
417.45	4.39
417.657	4.52
417.863	4.96
418.069	4.62
418.275	4.6
418.481	4.87
418.687	4.94
418.893	5.1
419.099	5.36
419.305	5.25
419.511	5.3
419.717	5.39
419.923	5.21
420.129	4.91
420.335	5
420.541	4.99
420.746	4.84
420.952	4.62
421.158	4.41
421.364	4.21
421.57	4.08
421.776	4.12
421.982	4.06
422.187	4.07
422.393	4.25
422.599	4.11
422.805	3.96
423.01	3.95
423.216	4.04
423.422	4.15
423.628	4.13
423.833	4.09
424.039	4.05
424.245	4.06
424.45	4.17
424.656	4.17
424.862	4.29
425.067	4.49
425.273	4.6
425.478	4.52
425.684	4.54
425.889	4.57
426.095	4.8
426.301	4.64
426.506	4.63
426.712	4.4
426.917	4.24
427.123	4.05
427.328	3.75
427.533	3.54
427.739	3.56
427.944	3.52
428.15	3.48
428.355	3.32
428.561	3.41
428.766	3.47
428.971	3.82
429.177	3.99
429.382	4.06
429.587	4
429.793	4.04
429.998	4.12
430.203	4.09
430.408	4.07
430.614	4.3
430.819	4.09
431.024	4.1
431.229	4.11
431.434	3.87
431.64	4.09
431.845	4.21
432.05	4.42
432.255	4.29
432.46	4.32
432.665	4.24
432.87	4.17
433.076	4.29
433.281	4.29
433.486	4.13
433.691	4.2
433.896	4.04
434.101	4.05
434.306	3.96
434.511	3.97
434.716	3.91
434.921	4.05
435.126	3.98
435.331	3.83
435.535	3.6
435.74	3.62
435.945	3.6
436.15	3.94
436.355	4.06
436.56	4.14
436.765	4.03
436.97	4.07
437.174	4.05
437.379	4.04
437.584	4.28
437.789	4.36
437.993	4.49
438.198	4.46
438.403	4.11
438.608	4.02
438.812	3.95
439.017	4.09
439.222	4.21
439.426	4.15
439.631	4.1
439.836	4.04
440.04	3.97
440.245	3.74
440.45	3.82
440.654	3.86
440.859	3.85
441.063	3.77
441.268	3.84
441.472	3.84
441.677	3.9
441.881	4.1
442.086	4.03
442.29	4.15
442.495	4.29
442.699	4.27
442.904	4.29
443.108	4.33
443.312	4.39
443.517	4.14
443.721	4.08
443.925	3.89
444.13	3.62
444.334	3.61
444.538	3.7
444.743	3.59
444.947	3.41
445.151	3.5
445.356	3.51
445.56	3.59
445.764	3.87
445.968	3.9
446.173	3.95
446.377	3.94
446.581	4
446.785	3.84
446.989	3.8
447.193	3.97
447.398	3.96
447.602	3.81
447.806	3.82
448.01	3.73
448.214	3.67
448.418	3.71
448.622	3.66
448.826	3.49
449.03	3.58
449.234	3.68
449.438	3.79
449.642	3.7
449.846	3.87
450.05	3.93
450.254	3.79
450.458	3.82
450.662	3.81
450.866	3.84
451.069	4
451.273	3.72
451.477	3.77
451.681	3.5
451.885	3.51
452.089	3.32
452.292	3.12
452.496	3.25
452.7	3.08
452.904	3.14
453.107	3.46
453.311	3.41
453.515	3.47
453.719	3.57
453.922	3.63
454.126	3.63
454.33	3.71
454.533	3.88
454.737	3.92
454.94	4.12
455.144	4
455.348	3.81
455.551	3.96
455.755	3.85
455.958	3.86
456.162	3.88
456.365	4.1
456.569	4.21
456.772	4.03
456.976	3.89
457.179	3.76
457.383	3.77
457.586	3.75
457.79	3.71
457.993	3.82
458.196	3.69
458.4	3.59
458.603	3.4
458.807	3.28
459.01	3.42
459.213	3.35
459.417	3.35
459.62	3.38
459.823	3.31
460.026	3.29
460.23	3.38
460.433	3.32
460.636	3.34
460.839	3.44
461.042	3.52
461.246	3.44
461.449	3.53
461.652	3.5
461.855	3.53
462.058	3.6
462.261	3.54
462.464	3.49
462.668	3.5
462.871	3.52
463.074	3.27
463.277	3.33
463.48	3.36
463.683	3.42
463.886	3.41
464.089	3.49
464.292	3.45
464.495	3.46
464.698	3.57
464.901	3.62
465.104	3.79
465.306	3.89
465.509	3.69
465.712	3.73
465.915	3.78
466.118	3.87
466.321	3.75
466.524	3.98
466.726	3.94
466.929	3.88
467.132	3.83
467.335	3.74
467.538	3.87
467.74	4.01
467.943	3.87
468.146	3.79
468.348	3.76
468.551	3.71
468.754	3.77
468.956	3.82
469.159	3.85
469.362	3.93
469.564	4.15
469.767	3.9
469.969	3.9
470.172	3.86
470.375	3.81
470.577	3.95
470.78	4.15
470.982	3.95
471.185	4.05
471.387	3.81
471.59	3.76
471.792	3.54
471.995	3.62
472.197	3.79
472.399	3.59
472.602	3.49
472.804	3.51
473.007	3.45
473.209	3.52
473.411	3.47
473.614	3.52
473.816	3.33
474.018	3.41
474.22	3.66
474.423	3.4
474.625	3.63
474.827	4.01
475.03	4.08
475.232	3.92
475.434	3.7
475.636	3.61
475.838	3.75
476.04	3.78
476.243	3.61
476.445	3.34
476.647	3.47
476.849	3.61
477.051	3.32
477.253	3.3
477.455	3.26
477.657	3.19
477.859	3.31
478.061	3.46
478.263	3.59
478.465	3.61
478.667	3.5
478.869	3.43
479.071	3.38
479.273	3.49
479.475	3.37
479.677	3.32
479.879	3.54
480.081	3.49
480.283	3.32
480.485	3.41
480.686	3.34
480.888	3.55
481.09	3.62
481.292	3.65
481.494	3.54
481.695	3.56
481.897	3.73
482.099	3.74
482.301	3.63
482.502	3.65
482.704	3.61
482.906	3.65
483.107	3.61
483.309	3.5
483.511	3.5
483.712	3.53
483.914	3.56
484.115	3.55
484.317	3.47
484.519	3.53
484.72	3.56
484.922	3.5
485.123	3.51
485.325	3.5
485.526	3.57
485.728	3.6
485.929	3.63
486.131	3.62
486.332	3.67
486.534	3.7
486.735	3.64
486.936	3.59
487.138	3.68
487.339	3.65
487.541	3.63
487.742	3.64
487.943	3.58
488.144	3.52
488.346	3.44
488.547	3.42
488.748	3.42
488.95	3.42
489.151	3.4
489.352	3.35
489.553	3.38
489.755	3.4
489.956	3.39
490.157	3.41
490.358	3.46
490.559	3.42
490.76	3.39
490.961	3.37
491.163	3.44
491.364	3.47
491.565	3.49
491.766	3.59
491.967	3.61
492.168	3.61
492.369	3.62
492.57	3.55
492.771	3.6
492.972	3.58
493.173	3.63
493.374	3.54
493.575	3.57
493.776	3.55
493.976	3.45
494.177	3.3
494.378	3.42
494.579	3.31
494.78	3.48
494.981	3.44
495.182	3.49
495.382	3.48
495.583	3.64
495.784	3.65
495.985	3.79
496.185	3.73
496.386	3.96
496.587	3.75
496.788	3.87
496.988	3.71
497.189	3.76
497.39	3.82
497.59	3.89
497.791	3.88
497.992	4.03
498.192	3.93
498.393	3.98
498.593	3.97
498.794	4.06
498.994	4.08
499.195	4.21
499.395	4.34
499.596	4.32
499.796	4.26
499.997	4.49
500.197	4.45
500.398	4.51
500.598	4.43
500.799	4.25
500.999	4.29
501.199	4.26
501.4	4.31
501.6	4.24
501.801	4.27
502.001	4.37
502.201	4.21
502.402	4.08
502.602	4.08
502.802	4.13
503.002	4.33
503.203	4.3
503.403	4.33
503.603	4.39
503.803	4.68
504.003	4.61
504.204	4.67
504.404	4.87
504.604	4.9
504.804	5.11
505.004	5.26
505.204	5.34
505.404	5.42
505.604	5.41
505.804	5.42
506.005	5.37
506.205	5.54
506.405	5.61
506.605	5.41
506.805	5.61
507.005	5.55
507.204	5.62
507.404	5.77
507.604	5.87
507.804	6.07
508.004	6.15
508.204	6.06
508.404	6.08
508.604	6.03
508.804	6.18
509.003	6.31
509.203	6.44
509.403	6.31
509.603	6.29
509.803	6.38
510.002	6.4
510.202	6.43
510.402	6.67
510.602	6.73
510.801	6.81
511.001	6.88
511.201	6.75
511.4	6.75
511.6	7.13
511.8	7.19
511.999	7.31
512.199	7.42
512.398	7.5
512.598	7.49
512.797	7.72
512.997	7.95
513.197	7.93
513.396	8.13
513.596	8.28
513.795	8.31
513.994	8.52
514.194	8.43
514.393	8.46
514.593	8.57
514.792	8.53
514.992	8.53
515.191	8.46
515.39	8.66
515.59	8.84
515.789	8.83
515.988	8.83
516.188	8.67
516.387	8.83
516.586	9.2
516.786	9.37
516.985	9.7
517.184	9.79
517.383	10.01
517.582	10.01
517.782	10.02
517.981	10.04
518.18	10.09
518.379	10.37
518.578	10.59
518.777	10.52
518.976	10.71
519.176	10.66
519.375	10.81
519.574	10.88
519.773	11.06
519.972	11.07
520.171	11.27
520.37	11.48
520.569	11.52
520.768	11.5
520.967	11.77
521.166	11.65
521.365	11.9
521.564	11.95
521.762	12.12
521.961	12.29
522.16	12.47
522.359	12.51
522.558	12.61
522.757	12.52
522.956	12.53
523.154	12.5
523.353	12.71
523.552	12.79
523.751	12.86
523.949	12.93
524.148	12.95
524.347	13.18
524.546	13.45
524.744	13.59
524.943	13.87
525.142	14.08
525.34	14.11
525.539	14.24
525.737	14.26
525.936	14.26
526.135	14.43
526.333	14.63
526.532	14.54
526.73	14.52
526.929	14.6
527.127	14.74
527.326	14.83
527.524	14.98
527.723	15.05
527.921	15.17
528.12	15.34
528.318	15.36
528.516	15.35
528.715	15.45
528.913	15.55
529.112	15.63
529.31	15.59
529.508	15.62
529.707	15.64
529.905	15.64
530.103	15.63
530.301	15.57
530.5	15.66
530.698	15.78
530.896	15.91
531.094	15.97
531.293	16.01
531.491	16.26
531.689	16.36
531.887	16.54
532.085	16.83
532.283	16.94
532.481	17.12
532.68	17.15
532.878	17.18
533.076	17.31
533.274	17.33
533.472	17.43
533.67	17.4
533.868	17.49
534.066	17.56
534.264	17.48
534.462	17.56
534.66	17.64
534.858	17.68
535.056	17.84
535.253	17.89
535.451	18.06
535.649	18.05
535.847	18.14
536.045	18.29
536.243	18.26
536.441	18.34
536.638	18.49
536.836	18.57
537.034	18.6
537.232	18.62
537.43	18.67
537.627	18.73
537.825	18.88
538.023	18.87
538.22	18.92
538.418	19.01
538.616	19.12
538.813	19.26
539.011	19.39
539.209	19.62
539.406	19.7
539.604	19.75
539.801	19.83
539.999	19.99
540.196	20.22
540.394	20.26
540.591	20.36
540.789	20.4
540.986	20.38
541.184	20.44
541.381	20.45
541.579	20.44
541.776	20.5
541.974	20.46
542.171	20.44
542.368	20.44
542.566	20.48
542.763	20.51
542.96	20.54
543.158	20.59
543.355	20.62
543.552	20.73
543.75	20.85
543.947	20.83
544.144	21.04
544.341	21.13
544.539	21.24
544.736	21.19
544.933	21.32
545.13	21.42
545.327	21.5
545.524	21.53
545.722	21.62
545.919	21.56
546.116	21.71
546.313	21.78
546.51	21.76
546.707	21.78
546.904	21.98
547.101	22.1
547.298	22.13
547.495	22.12
547.692	22.05
547.889	21.88
548.086	22.02
548.283	22.1
548.48	22.18
548.677	22.33
548.874	22.31
549.07	22.39
549.267	22.15
549.464	22.34
549.661	22.5
549.858	22.78
550.055	23.01
550.251	22.92
550.448	22.95
550.645	22.91
550.842	22.81
551.038	23.03
551.235	23.06
551.432	23.4
551.628	23.41
551.825	23.27
552.022	23.21
552.218	23.12
552.415	23.3
552.612	23.42
552.808	23.33
553.005	23.54
553.201	23.62
553.398	23.48
553.594	23.43
553.791	23.47
553.987	23.63
554.184	23.72
554.38	23.85
554.577	23.92
554.773	23.86
554.97	24.17
555.166	24.11
555.362	24.2
555.559	24.52
555.755	24.51
555.952	24.61
556.148	24.66
556.344	24.72
556.541	24.77
556.737	24.73
556.933	24.87
557.129	24.84
557.326	24.86
557.522	24.79
557.718	24.79
557.914	24.96
558.11	24.83
558.307	24.92
558.503	24.95
558.699	24.8
558.895	24.89
559.091	24.92
559.287	25.11
559.483	25.18
559.679	25.07
559.876	25.22
560.072	25.05
560.268	25.03
560.464	25.02
560.66	25.14
560.856	25.54
561.052	25.44
561.247	25.42
561.443	25.31
561.639	25.37
561.835	25.63
562.031	25.48
562.227	25.53
562.423	25.64
562.619	25.75
562.815	25.67
563.01	25.6
563.206	25.88
563.402	25.88
563.598	25.81
563.793	25.64
563.989	25.49
564.185	25.46
564.381	25.51
564.576	25.75
564.772	25.77
564.968	25.98
565.163	26.03
565.359	25.87
565.555	26.1
565.75	26.06
565.946	26.22
566.141	26.32
566.337	26.21
566.532	26.3
566.728	26.02
566.923	26.15
567.119	26.03
567.314	26.01
567.51	25.95
567.705	25.81
567.901	25.87
568.096	25.86
568.292	25.87
568.487	25.94
568.682	26.09
568.878	26.29
569.073	26.33
569.268	26.54
569.464	26.48
569.659	26.63
569.854	26.82
570.05	26.89
570.245	26.97
570.44	26.99
570.635	27.14
570.831	27.18
571.026	27.2
571.221	27.15
571.416	27.05
571.611	27.04
571.806	27.26
572.002	27.15
572.197	27.24
572.392	27.25
572.587	27.29
572.782	27.26
572.977	26.97
573.172	26.94
573.367	26.98
573.562	26.83
573.757	26.77
573.952	26.46
574.147	26.43
574.342	26.49
574.537	26.45
574.732	26.49
574.927	26.69
575.121	26.9
575.316	26.98
575.511	26.82
575.706	26.98
575.901	27.09
576.096	27.26
576.29	27.4
576.485	27.45
576.68	27.54
576.875	27.62
577.069	27.66
577.264	27.77
577.459	27.9
577.654	28.2
577.848	28.21
578.043	28.56
578.238	28.64
578.432	28.49
578.627	28.31
578.821	28.49
579.016	28.67
579.21	28.49
579.405	28.3
579.6	28.14
579.794	27.69
579.989	27.59
580.183	27.33
580.378	27.4
580.572	27.47
580.766	27.6
580.961	27.78
581.155	27.43
581.35	27.45
581.544	27.62
581.738	27.83
581.933	28.23
582.127	28.52
582.321	28.52
582.516	28.22
582.71	28.53
582.904	28.42
583.099	27.89
583.293	28.3
583.487	28.38
583.681	28.34
583.875	28.26
584.07	28.09
584.264	28.18
584.458	28.28
584.652	28.63
584.846	28.25
585.04	28.42
585.234	28.51
585.428	28.28
585.623	28.26
585.817	28.32
586.011	28.43
586.205	28.51
586.399	28.57
586.593	28.74
586.787	28.79
586.981	29.05
587.174	28.83
587.368	28.98
587.562	29.08
587.756	29.16
587.95	29.11
588.144	29.16
588.338	29.11
588.532	29
588.725	28.97
588.919	28.96
589.113	28.9
589.307	29.13
589.501	29.27
589.694	29.13
589.888	29.1
590.082	29.2
590.275	29.02
590.469	29.01
590.663	29.13
590.856	29.36
591.05	29.15
591.244	29.21
591.437	29.25
591.631	29.25
591.824	29.12
592.018	29.25
592.212	29.1
592.405	29.16
592.599	29.34
592.792	29.17
592.986	28.86
593.179	29.21
593.372	29.38
593.566	29.31
593.759	29.04
593.953	29.49
594.146	29.23
594.339	29.44
594.533	29.54
594.726	29.52
594.92	29.37
595.113	29.38
595.306	29.09
595.499	28.84
595.693	28.85
595.886	29
596.079	28.61
596.272	28.83
596.466	28.87
596.659	28.82
596.852	28.94
597.045	29.1
597.238	28.93
597.431	28.96
597.624	29.19
597.818	29.39
598.011	29.37
598.204	29.73
598.397	29.7
598.59	29.47
598.783	29.61
598.976	29.45
599.169	29.36
599.362	29.68
599.555	30.24
599.748	30.07
599.941	30.09
600.134	30.15
600.326	29.92
600.519	30.11
600.712	30.25
600.905	30.12
601.098	30.26
601.291	30.36
601.483	30.18
601.676	29.67
601.869	29.73
602.062	29.64
602.255	29.8
602.447	30.09
602.64	29.97
602.833	30.12
603.025	30.24
603.218	30.34
603.411	30.43
603.603	30.62
603.796	30.78
603.989	30.88
604.181	30.75
604.374	30.6
604.566	30.24
604.759	30.46
604.951	30.57
605.144	30.39
605.336	30.27
605.529	30.24
605.721	30.23
605.914	30.11
606.106	29.97
606.299	30.23
606.491	30.38
606.683	30.48
606.876	30.2
607.068	30.05
607.26	30.18
607.453	30.12
607.645	30.14
607.837	30.01
608.03	30
608.222	30.15
608.414	29.97
608.606	29.87
608.799	30.03
608.991	30.08
609.183	29.97
609.375	29.64
609.567	29.65
609.759	29.58
609.952	29.67
610.144	29.67
610.336	29.49
610.528	29.24
610.72	29.26
610.912	29.21
611.104	29.08
611.296	29.05
611.488	29.33
611.68	29.3
611.872	29.3
612.064	29.24
612.256	29.25
612.448	29.42
612.64	29.6
612.832	29.72
613.023	29.64
613.215	29.43
613.407	29.46
613.599	29.52
613.791	29.65
613.983	29.94
614.174	30.03
614.366	30.2
614.558	30.27
614.75	30.25
614.941	30.18
615.133	30.25
615.325	30.55
615.516	30.79
615.708	30.53
615.9	30.44
616.091	30.1
616.283	30.32
616.475	30.15
616.666	30.12
616.858	29.84
617.049	29.89
617.241	29.86
617.432	29.92
617.624	29.67
617.815	29.9
618.007	29.93
618.198	30.18
618.39	29.88
618.581	29.87
618.773	29.9
618.964	30.16
619.155	29.99
619.347	30.14
619.538	30.42
619.729	30.57
619.921	30.73
620.112	30.96
620.303	30.98
620.494	30.76
620.686	30.84
620.877	30.98
621.068	31.2
621.259	31.4
621.451	31.44
621.642	31.25
621.833	31.82
622.024	32.15
622.215	32.01
622.406	31.92
622.597	32.05
622.788	32.01
622.98	31.97
623.171	31.91
623.362	31.76
623.553	31.91
623.744	31.9
623.935	31.33
624.126	30.6
624.317	30.29
624.508	30.55
624.698	30.94
624.889	31.37
625.08	31.29
625.271	31.33
625.462	31.18
625.653	30.82
625.844	30.84
626.034	31.03
626.225	31.36
626.416	31.5
626.607	31.25
626.798	30.85
626.988	30.58
627.179	30.6
627.37	30.54
627.56	30.74
627.751	30.61
627.942	30.42
628.132	30.49
628.323	30.58
628.514	30.7
628.704	30.7
628.895	30.81
629.085	30.9
629.276	30.66
629.466	30.46
629.657	30.81
629.847	31.12
630.038	31.11
630.228	31.04
630.419	30.84
630.609	30.83
630.8	30.7
630.99	30.51
631.181	30.12
631.371	30.24
631.561	30.46
631.752	30.2
631.942	30.24
632.132	30.61
632.323	30.49
632.513	31
632.703	30.89
632.893	31.25
633.084	31.29
633.274	31.72
633.464	31.37
633.654	31.61
633.844	31.41
634.034	31.59
634.225	31.59
634.415	31.79
634.605	31.47
634.795	31.67
634.985	31.53
635.175	31.85
635.365	31.77
635.555	32.22
635.745	32.09
635.935	32.24
636.125	32.11
636.315	31.64
636.505	31.33
636.695	30.98
636.885	30.83
637.075	30.71
637.265	30.74
637.455	30.7
637.644	30.59
637.834	30.3
638.024	30.04
638.214	30.07
638.404	30.69
638.593	30.83
638.783	30.96
638.973	31.04
639.163	31.45
639.352	31.09
639.542	31.08
639.732	30.91
639.921	31.3
640.111	31.5
640.301	30.99
640.49	31.14
640.68	31.26
640.87	30.91
641.059	30.89
641.249	30.5
641.438	30.57
641.628	30.6
641.817	31.13
642.007	31.02
642.196	31.45
642.386	31.85
642.575	31.56
642.764	31.26
642.954	31.86
643.143	32.08
643.333	32.43
643.522	32.88
643.711	32.61
643.901	32.72
644.09	32.59
644.279	32.14
644.469	32.21
644.658	31.83
644.847	31.89
645.036	32.36
645.226	32.28
645.415	31.88
645.604	31.61
645.793	31.58
645.982	31.36
646.171	31.68
646.361	31.75
646.55	31.97
646.739	32.16
646.928	32.37
647.117	31.72
647.306	31.75
647.495	32.36
647.684	32.37
647.873	32.57
648.062	32.65
648.251	32.53
648.44	32.56
648.629	32.43
648.818	32.54
649.007	32.34
649.196	32.43
649.384	32.22
649.573	31.94
649.762	31.98
649.951	32.14
650.14	31.89
650.328	32.13
650.517	32.29
650.706	32.12
650.895	32.31
651.083	32.06
651.272	32.02
651.461	31.95
651.65	32.12
651.838	31.86
652.027	31.88
652.216	31.78
652.404	31.74
652.593	31.39
652.781	31.54
652.97	31.13
653.158	31.25
653.347	31.5
653.535	31.44
653.724	31.18
653.912	31.46
654.101	31.56
654.289	31.71
654.478	31.33
654.666	31.24
654.855	31.42
655.043	31.62
655.231	31.65
655.42	31.82
655.608	32.28
655.796	32.43
655.985	31.98
656.173	32.08
656.361	32.15
656.55	32.6
656.738	33.23
656.926	33.27
657.114	33.12
657.302	33.09
657.491	32.99
657.679	32.74
657.867	32.83
658.055	33.09
658.243	33.1
658.431	33.18
658.619	33.19
658.807	33.03
658.996	32.87
659.184	32.9
659.372	32.9
659.56	32.82
659.748	32.86
659.936	32.7
660.124	32.83
660.311	32.56
660.499	32.05
660.687	31.79
660.875	31.41
661.063	31.17
661.251	31.13
661.439	31.49
661.627	31.23
661.814	31.07
662.002	31.18
662.19	30.96
662.378	30.6
662.565	31.11
662.753	31.53
662.941	31.65
663.129	31.83
663.316	32.13
663.504	31.45
663.692	31.32
663.879	31.14
664.067	30.7
664.254	30.73
664.442	31.4
664.63	31.25
664.817	30.91
665.005	31.2
665.192	31.28
665.38	31.33
665.567	31.73
665.755	31.94
665.942	32.55
666.13	32.59
666.317	32.81
666.504	32.53
666.692	32.5
666.879	32.32
667.067	32.17
667.254	31.85
667.441	32.16
667.629	32.34
667.816	32.62
668.003	32.54
668.19	32.61
668.378	32.93
668.565	33.09
668.752	33.31
668.939	33.72
669.127	33.77
669.314	34.15
669.501	33.7
669.688	33.67
669.875	33.82
670.062	33.55
670.249	33.36
670.436	33.2
670.623	33
670.81	32.96
670.997	32.46
671.184	32.3
671.371	32.21
671.558	32.22
671.745	31.79
671.932	31.54
672.119	31.47
672.306	31.82
672.493	31.52
672.68	31.16
672.867	31.4
673.054	31.58
673.24	31.64
673.427	32.04
673.614	32.26
673.801	32.53
673.988	33
674.174	33.38
674.361	33.74
674.548	33.8
674.734	34.48
674.921	34.28
675.108	33.76
675.294	33.66
675.481	33.35
675.668	33.03
675.854	33.13
676.041	32.81
676.227	32.58
676.414	32.07
676.601	32.21
676.787	31.83
676.974	31.94
677.16	32.67
677.347	33.14
677.533	33.09
677.719	33.65
677.906	33.68
678.092	33.81
678.279	34.61
678.465	34.34
678.651	34.7
678.838	34.41
679.024	33.95
679.21	33.51
679.397	33.16
679.583	33.07
679.769	32.75
679.955	32.47
680.142	32.05
680.328	31.14
680.514	31.2
680.7	30.75
680.886	31.05
681.073	31.2
681.259	31.33
681.445	31.13
681.631	30.91
681.817	30.62
682.003	30.93
682.189	30.85
682.375	31.02
682.561	31.2
682.747	30.97
682.933	30.78
683.119	30.91
683.305	31.37
683.491	31.9
683.677	31.85
683.863	31.96
684.049	31.99
684.235	32.02
684.42	32.38
684.606	32.54
684.792	32.84
684.978	33.5
685.164	33.41
685.349	33.42
685.535	33.15
685.721	33.86
685.907	33.78
686.092	33.44
686.278	33.54
686.464	33.54
686.649	33.37
686.835	33.05
687.021	32.83
687.206	32.68
687.392	32.33
687.577	32.42
687.763	31.96
687.948	32.24
688.134	32.33
688.319	32.41
688.505	32.41
688.69	32.87
688.876	32.93
689.061	32.77
689.247	32.58
689.432	32.45
689.618	32.28
689.803	32.56
689.988	32.58
690.174	32.57
690.359	32.32
690.544	31.68
690.73	31.26
690.915	31.64
691.1	31.35
691.285	32.41
691.471	32.89
691.656	33.13
691.841	33.56
692.026	33.2
692.211	33.11
692.396	33.29
692.582	33.74
692.767	33.64
692.952	33.68
693.137	33.86
693.322	32.88
693.507	32.83
693.692	32.59
693.877	32.07
694.062	31.97
694.247	32.03
694.432	32.01
694.617	32
694.802	32.33
694.987	31.87
695.172	32
695.357	32.64
695.541	32.37
695.726	32.71
695.911	32.79
696.096	33.68
696.281	33.78
696.466	34.23
696.65	34.57
696.835	34.64
697.02	35.47
697.204	35.5
697.389	35.38
697.574	35.4
697.759	35.01
697.943	35.15
698.128	34.89
698.312	35.27
698.497	34.83
698.682	34.28
698.866	33.97
699.051	33.47
699.235	33.4
699.42	33.09
699.604	33.1
699.789	33.19
699.973	33.31
700.158	33.17
700.342	32.85
700.527	33.52
700.711	33.54
700.895	34.04
701.08	33.43
701.264	33.51
701.448	33.6
701.633	33.61
701.817	33.74
702.001	33.09
702.186	33.32
702.37	33.41
702.554	32.4
702.738	32.81
702.923	32.01
703.107	33.17
703.291	32.57
703.475	32.68
703.659	32.37
703.843	32.33
704.027	32.51
704.212	32.4
704.396	32.42
704.58	32.36
704.764	31.4
704.948	31.59
705.132	31.5
705.316	31.59
705.5	31.09
705.684	31.26
705.868	31.02
706.052	30.98
706.235	30.59
706.419	30.65
706.603	30.81
706.787	31.75
706.971	32.36
707.155	31.9
707.339	32.45
707.522	32.33
707.706	32.25
707.89	32.82
708.074	32.68
708.257	32.91
708.441	32.73
708.625	32.6
708.808	32.84
708.992	32.31
709.176	32.98
709.359	32.64
709.543	33.45
709.727	33.4
709.91	33.43
710.094	33.45
710.277	33.28
710.461	33.33
710.644	34.41
710.828	34.51
711.011	35.45
711.195	35.23
711.378	35.66
711.562	35.28
711.745	35.42
711.928	34.88
712.112	34.95
712.295	34.94
712.478	34.37
712.662	33.57
712.845	33.17
713.028	32.34
713.212	32.06
713.395	31.48
713.578	31.49
713.761	31.28
713.945	32.07
714.128	32.28
714.311	32.18
714.494	32.43
714.677	32.43
714.86	32.92
715.043	32.75
715.227	33.66
715.41	33.86
715.593	33.38
715.776	32.71
715.959	31.64
716.142	31.25
716.325	31.37
716.508	31.41
716.691	31.71
716.874	31.26
717.057	31.53
717.239	31.16
717.422	31.03
717.605	31.56
717.788	31.37
717.971	32.03
718.154	32.25
718.337	32.52
718.519	32.82
718.702	32.64
718.885	32.46
719.068	32.15
719.25	31.4
719.433	31.79
719.616	31.11
719.798	31.76
719.981	31.07
720.164	31.24
720.346	30.58
720.529	30.64
720.712	30.44
720.894	29.52
721.077	29.53
721.259	29.7
721.442	29.72
721.624	30.27
721.807	31.47
721.989	33.4
722.172	32.44
722.354	32.74
722.537	32.67
722.719	33.71
722.901	34.22
723.084	34.06
723.266	34.15
723.448	34.11
723.631	33.35
723.813	33.47
723.995	32.21
724.178	32.29
724.36	33.21
724.542	33.78
724.724	32.62
724.907	32.94
725.089	32.83
725.271	32.24
725.453	32.44
725.635	33.73
725.817	31.91
725.999	32.1
726.181	32.35
726.364	31.76
726.546	31.11
726.728	31.39
726.91	31.64
727.092	31.44
727.274	32.5
727.456	31.59
727.638	31.09
727.819	31.98
728.001	30.82
728.183	31.44
728.365	31.38
728.547	31.41
728.729	32.37
728.911	32.77
729.093	33.45
729.274	32.93
729.456	33.69
729.638	33.97
729.82	33.85
730.001	34.51
730.183	33.96
730.365	34.17
730.546	33.84
730.728	33.1
730.91	32.83
731.091	32.48
731.273	32.63
731.455	32.41
731.636	32.66
731.818	32.93
731.999	32.03
732.181	31.99
732.362	31.56
732.544	31.77
732.725	32
732.907	31.72
733.088	32.08
733.27	32.22
733.451	31.96
733.633	32.5
733.814	32.61
733.995	33.04
734.177	34.31
734.358	33.73
734.539	34.4
734.721	33.61
734.902	34.33
735.083	34.75
735.264	34.21
735.446	34.77
735.627	32.85
735.808	33.08
735.989	33.41
736.17	32.01
736.351	33.26
736.533	32.39
736.714	33.03
736.895	32.4
737.076	32.3
737.257	32.81
737.438	32.91
737.619	33.36
737.8	32.24
737.981	32.17
738.162	33.47
738.343	32.88
738.524	33.09
738.705	33.4
738.886	32.43
739.067	33.85
739.247	33.04
739.428	32.78
739.609	33.23
739.79	34.17
739.971	34.44
740.151	34.15
740.332	34.79
740.513	33.83
740.694	32.92
740.874	34.42
741.055	32.61
741.236	33.21
741.417	32.12
741.597	32.1
741.778	31.46
741.958	31.29
742.139	30.49
742.32	30.94
742.5	32.36
742.681	33.15
742.861	31.83
743.042	32
743.222	31.98
743.403	33.35
743.583	34.18
743.764	34.31
743.944	33.69
744.124	34.68
744.305	33.39
744.485	31.98
744.666	31.46
744.846	31.6
745.026	31.59
745.207	31.72
745.387	31.45
745.567	30.92
745.747	30.17
745.928	30.86
746.108	29.15
746.288	28.73
746.468	29.81
746.648	29.98
746.829	30.21
747.009	29.53
747.189	29.97
747.369	30.85
747.549	30.81
747.729	32.9
747.909	32.48
748.089	32.64
748.269	33.08
748.449	33.58
748.629	33.57
748.809	33.64
748.989	33.98
749.169	33.03
749.349	32.09
749.529	31.74
749.709	30.59
749.889	31.68
750.068	32.44
750.248	33.89
750.428	34.01
750.608	33.69
750.788	34.42
750.967	34.51
751.147	34.6
751.327	34.94
751.507	34.32
751.686	34.86
751.866	35.04
752.046	34.5
752.225	34.43
752.405	33.69
752.585	34.38
752.764	34.64
752.944	34.58
753.123	35.15
753.303	36.06
753.482	36.91
753.662	36.14
753.841	36.09
754.021	35.67
754.2	34.48
754.38	35.35
754.559	34.46
754.739	33.03
754.918	32.23
755.097	32.16
755.277	31.39
755.456	32.78
755.635	32.79
755.815	31.99
755.994	32.96
756.173	32.66
756.352	32.75
756.532	32.36
756.711	33.14
756.89	33.39
757.069	32.73
757.248	32.33
757.427	30.62
757.607	31.66
757.786	32.05
757.965	32.75
758.144	34.14
758.323	33.51
758.502	33.73
758.681	34.6
758.86	34.38
759.039	34.92
759.218	35.04
759.397	35.51
759.576	35.81
759.755	36.11
759.934	34.22
760.113	33.36
760.291	33.72
760.47	35.08
760.649	34.52
760.828	35.11
761.007	34.89
761.186	34.28
761.364	34.28
761.543	32.96
761.722	32
761.901	33.09
762.079	32.45
762.258	32.09
762.437	31.18
762.615	31.02
762.794	30.78
762.972	30.83
763.151	31.61
763.33	30.98
763.508	31.86
763.687	32.26
763.865	33.13
764.044	33.47
764.222	33.42
764.401	33.55
764.579	34.11
764.758	34.41
764.936	34.08
765.114	33.02
765.293	33.42
765.471	32.89
765.65	32.9
765.828	31.98
766.006	31.99
766.184	31.91
766.363	31.7
766.541	30.54
766.719	31.37
766.898	31.91
767.076	33.22
767.254	34.6
767.432	35.04
767.61	35.84
767.788	35.34
767.967	35.71
768.145	35.62
768.323	34.9
768.501	36.15
768.679	33.87
768.857	33.53
769.035	34.13
769.213	33.24
769.391	32.44
769.569	30.4
769.747	31.12
769.925	30.54
770.103	30.61
770.281	32.4
770.459	32.25
770.636	34.39
770.814	34.24
770.992	33.57
771.17	32.87
771.348	32.69
771.525	34.58
771.703	33.49
771.881	33.28
772.059	34.45
772.236	34.18
772.414	34.13
772.592	33.31
772.769	32.7
772.947	32.63
773.125	32.64
773.302	32.82
773.48	32.16
773.657	32.23
773.835	31.57
774.013	32.13
774.19	32.7
774.368	32.9
774.545	34.25
774.723	34.89
774.9	32.99
775.077	33.93
775.255	32.59
775.432	32.7
775.61	34.14
775.787	36.33
775.964	34.33
776.142	30.57
776.319	29.88
776.496	28.54
776.674	27.75
776.851	29.87
777.028	26.84
777.205	29.95
777.382	29.71
777.56	28.35
777.737	26.86
777.914	27.1
778.091	30.02
778.268	31.19
778.445	30.49
778.622	29.99
778.8	31.24
778.977	32.67
779.154	30.46
779.331	29.84
779.508	31.21
779.685	31.55
779.862	32.8
780.038	32.14
780.215	32.3
780.392	32.38
780.569	34.33
780.746	33.73
780.923	34.63
781.1	35.94
781.277	34.87
781.453	32.62
781.63	31.45
781.807	31.93
781.984	32.42
782.16	32.89
782.337	33.05
782.514	33.85
782.691	33.94
782.867	34.06
783.044	33.69
783.221	35.15
783.397	36.41
783.574	36.6
783.75	34.79
783.927	36.15
784.103	34.91
784.28	36.25
784.456	34.02
784.633	34.26
784.809	33.53
784.986	32.94
785.162	32.55
785.339	31.03
785.515	31.28
785.692	31.71
785.868	32.95
786.044	31.08
786.221	30.25
786.397	31.21
786.573	29.2
786.749	25.94
786.926	28.18
787.102	29.23
787.278	29.12
787.454	29.75
787.631	28.72
787.807	25.76
787.983	27.46
788.159	26.89
788.335	27.49
788.511	29.23
788.687	31.63
788.863	30.44
789.039	30.19
789.216	30.42
789.392	29.85
789.568	30.29
789.744	31.82
789.919	30.48
790.095	31.32
790.271	31.33
790.447	28.8
790.623	28.49
790.799	27.09
790.975	26.67
791.151	28.7
791.327	29.98
791.502	30.26
791.678	29.14
791.854	30.13
792.03	31.46
792.205	29.59
792.381	29.34
792.557	31.88
792.733	32.22
792.908	32.66
793.084	34.05
793.259	34.13
793.435	33.03
793.611	31.83
793.786	33.14
793.962	28.78
794.137	29.11
794.313	28.35
794.488	25.98
794.664	26.93
794.839	27.16
795.015	25.35
795.19	24.52
795.366	23.74
795.541	24.52
795.716	24.5
795.892	27.23
796.067	29.56
796.242	32.22
796.418	31.32
796.593	32.48
796.768	32.97
796.944	34.37
797.119	32.88
797.294	34.88
797.469	35.86
797.644	35.88
797.82	35.58
797.995	34.36
798.17	33.25
798.345	34.82
798.52	33.76
798.695	34.47
798.87	31.48
799.045	33.03
799.22	34.29
799.395	34.73
799.57	32.52
799.745	33.74
799.92	33.34
800.095	34.08
800.27	35.91
800.445	33.91
800.62	33.59
800.795	33.26
800.97	33.98
801.145	31.41
801.319	29.65
801.494	29.78
801.669	28.02
801.844	27.12
802.018	27.72
802.193	26.55
802.368	26.79
802.543	25.82
802.717	30.49
802.892	30.67
803.067	33.47
803.241	36.71
803.416	39.09
803.59	38.7
803.765	39.45
803.94	39.33
804.114	35.59
804.289	38.1
804.463	39.54
804.638	36.64
804.812	35.23
804.986	33.99
805.161	31.33
805.335	32.53
805.51	34.28
805.684	36.58
805.858	36.35
806.033	38.26
806.207	39.07
806.381	39.19
806.556	38.39
806.73	36.68
806.904	36.16
807.078	37.9
807.253	36.05
807.427	34.09
807.601	31.63
807.775	29.05
807.949	29.06
808.123	29.6
808.298	28.8
808.472	29.92
808.646	30.7
808.82	32.07
808.994	28.63
809.168	27.38
809.342	27.03
809.516	29.05
809.69	32.69
809.864	34.69
810.038	28.68
810.212	26.61
810.385	28.38
810.559	29.26
810.733	29.77
810.907	31.71
811.081	32.72
811.255	34.26
811.428	31.92
811.602	29.45
811.776	25.28
811.95	29.06
812.123	30.29
812.297	27.14
812.471	25.71
812.644	23.82
812.818	22.03
812.992	21.92
813.165	18.05
813.339	20.59
813.512	21.87
813.686	26.8
813.86	29.71
814.033	29.48
814.207	33.49
814.38	38.21
814.554	37.55
814.727	36.94
814.9	36.38
815.074	40.96
815.247	40.47
815.421	37.94
815.594	35.32
815.767	32.32
815.941	30.36
816.114	28.07
816.287	24.65
816.46	24.58
816.634	28.6
816.807	29.26
816.98	27.34
817.153	26.98
817.327	28.96
817.5	27.85
817.673	31.41
817.846	32.48
818.019	29.13
818.192	31.87
818.365	32.78
818.538	33.45
818.711	36.91
818.884	35.15
819.057	33.96
819.23	32.28
819.403	36.49
819.576	32.21
819.749	33.41
819.922	33.7
820.095	30.98
820.268	31.46
820.441	29.11
820.614	28.99
820.786	31.39
820.959	33.44
821.132	35.06
821.305	33.33
821.477	34.15
821.65	33.02
821.823	33.91
821.996	34.29
822.168	34.3
822.341	33.98
822.514	32.94
822.686	33.03
822.859	32.95
823.031	33.54
823.204	34
823.376	33.71
823.549	34.33
823.722	34.19
823.894	33.7
824.067	33.63
824.239	34.23
824.411	33.98
824.584	34.08
824.756	34.23
824.929	34.24
825.101	33.35
825.273	33.59
825.446	33.78
825.618	34.38
825.79	35.25
825.963	35.15
826.135	34.51
826.307	34.92
826.479	34.3
826.652	34.38
826.824	33.35
826.996	33.61
827.168	33.81
827.34	34.28
827.512	33.23
827.684	32.78
827.856	32.5
828.029	33.93
828.201	34.6
828.373	34.47
828.545	33.74
828.717	33.93
828.889	34.36
829.061	35.27
829.232	33.82
829.404	34.22
829.576	33.93
829.748	34.53
829.92	34.22
830.092	33.33
830.264	35.87
830.436	35.46
830.607	35.8
830.779	37.04
830.951	35.35
831.123	36.01
831.294	37.5
831.466	38.28
831.638	38.36
831.809	38.07
831.981	40.41
832.153	36.33
832.324	38.76
832.496	38.19
832.667	36.18
832.839	32.69
833.011	33.09
833.182	32.54
833.354	30.17
833.525	28.91
833.697	27.02
833.868	28.31
834.039	27.48
834.211	26.44
834.382	26.16
834.554	27.77
834.725	29.78
834.896	28.71
835.068	27.83
835.239	30.85
835.41	31.14
835.581	31.23
835.753	30.35
835.924	31.52
836.095	31.31
836.266	31.62
836.438	30.68
836.609	32.07
836.78	33.18
836.951	34.94
837.122	33.07
837.293	33.2
837.464	35.63
837.635	34.53
837.806	36.24
837.977	37.1
838.148	35.27
838.319	35.89
838.49	35.46
838.661	34.73
838.832	32.73
839.003	31.77
839.174	32.92
839.345	30.73
839.516	28.79
839.687	26.81
839.857	25.58
840.028	31.29
840.199	30.72
840.37	28.65
840.54	29.46
840.711	30.4
840.882	33.89
841.053	29.88
841.223	34.13
841.394	34.65
841.564	32.43
841.735	34.86
841.906	31.88
842.076	28.88
842.247	33.72
842.417	29.38
842.588	32.24
842.758	28.65
842.929	28.21
843.099	20.83
843.27	22.48
843.44	24.23
843.611	23.29
843.781	15.65
843.951	13.69
844.122	8.01
844.292	13.46
844.462	12.73
844.633	20.1
844.803	25.43
844.973	23.18
845.144	21.78
845.314	22.88
845.484	17.67
845.654	30.54
845.824	34.63
845.995	33.21
846.165	33.81
846.335	25.79
846.505	15.03
846.675	10.63
846.845	20.98
847.015	23.03
847.185	22.06
847.355	28.57
847.525	19.65
847.695	13.75
847.865	19.34
848.035	12.2
848.205	15.24
848.375	24.45
848.545	32.3
848.715	25.07
848.884	19.47
849.054	22.79
849.224	15.94
849.394	14.65
849.564	14.33
849.733	9.95
849.903	15.08
850.073	18.68
850.243	11.84
850.412	6.13
850.582	1.66
850.752	5.63
850.921	0.83
851.091	4.7
851.26	10.69
851.43	8.31
851.599	8.58
851.769	-1.51
851.939	2.5
852.108	4.58
852.278	7.38
852.447	11.67
852.616	13.23
852.786	15.44
852.955	16.95
853.125	17.86
853.294	29.12
853.463	30.14
853.633	36.69
853.802	33.95
853.971	39.11
854.141	25.94
854.31	32.86
854.479	35.76
854.648	32.62
854.818	32.93
854.987	32.2
855.156	28.22
855.325	29.3
855.494	28.37
855.663	28.37
855.832	23.51
856.001	31.85
856.171	28.98
856.34	26.86
856.509	28.13
856.678	27.13
856.847	26.06
857.016	27.61
857.185	27.45
857.353	33.71
857.522	33.44
857.691	29.28
857.86	30.2
858.029	29.46
858.198	34.14
858.367	34.2
858.535	24.99
858.704	28.38
858.873	30
859.042	30.29
859.21	34.08
859.379	29.48
859.548	33.74
859.717	37.01
859.885	45.69
860.054	47.25
860.222	45.92
860.391	57.7
860.56	55.96
860.728	49.3
860.897	51.88
861.065	44.79
861.234	51.77
861.402	52.4
861.571	52.19
861.739	40.75
861.908	37.48
862.076	29.9
862.244	25.6
862.413	14.83
862.581	25.72
862.749	20.28
862.918	23.97
863.086	12.51
863.254	9.96
863.423	4.34
863.591	14.85
863.759	10.19
863.927	14.95
864.096	14.9
864.264	22.06
864.432	12.28
864.6	11.22
864.768	8
864.936	6.79
865.104	13
865.272	14.29
865.44	13.53
865.608	16.27
865.776	22.4
865.944	18.58
866.112	17.93
866.28	27.49
866.448	25.95
866.616	23.06
866.784	25.41
866.952	22.23
867.12	18.67
867.288	18.69
867.455	24.36
867.623	23.4
867.791	24.15
867.959	26.38
868.127	22.72
868.294	31.24
868.462	34.79
868.63	36.77
868.797	40.99
868.965	41.43
869.133	38.86
869.3	30.97
869.468	29.48
869.636	27.41
869.803	24.5
869.971	26.15
870.138	24.75
870.306	26.43
870.473	26.7
870.641	19.41
870.808	21.84
870.975	20.85
871.143	24.29
871.31	24.3
871.478	30.05
871.645	23.78
871.812	22.2
871.98	23.85
872.147	23.37
872.314	23.53
872.482	23.85
872.649	17.24
872.816	19.06
872.983	16.27
873.15	23.42
873.318	17.35
873.485	29.07
873.652	35.74
873.819	27.94
873.986	32.33
874.153	32.41
874.32	34.92
874.487	34.18
874.654	36.75
874.821	40.19
874.988	42.33
875.155	44.75
875.322	38.22
875.489	36.4
875.656	40
875.823	39.44
875.99	38.23
876.157	34.01
876.324	41.81
876.49	45.61
876.657	40.82
876.824	35.58
876.991	33.2
877.157	41.2
877.324	19.25
877.491	21.67
877.658	16.4
877.824	15.69
877.991	17.08
878.157	17.46
878.324	9.98
878.491	1.4
878.657	13.11
878.824	17.69
878.99	17.98
879.157	33.47
879.323	28
879.49	29.03
879.656	30.21
879.823	30.13
879.989	21.18
880.156	21.49
880.322	26.73
880.488	20.78
880.655	19.38
880.821	22.56
880.987	22.5
881.154	24.55
881.32	31.55
881.486	33.31
881.652	36.15
881.819	39.67
881.985	37.22
882.151	35.84
882.317	35.45
882.483	32.84
882.649	31.33
882.816	31.81
882.982	33.26
883.148	28.64
883.314	29.88
883.48	29.37
883.646	28.7
883.812	30.25
883.978	30.34
884.144	31.55
884.31	33.42
884.476	32.95
884.642	31.93
884.807	31.74
884.973	33.05
885.139	32.18
885.305	31.98
885.471	33.03
885.637	32.12
885.802	32.56
885.968	30.23
886.134	30.67
886.3	29.67
886.465	28.65
886.631	27.96
886.797	29.79
886.962	30.14
887.128	32.82
887.293	33.06
887.459	37.16
887.625	40.12
887.79	41.23
887.956	39.6
888.121	41.93
888.287	47.16
888.452	47.99
888.618	46.74
888.783	48.14
