Data from CB_008_Reflection_3.txt Node
Date: Wed Nov 11 18:35:05 EST 2015
User: robert
Spectrometer: USB4E03001
Autoset integration time: false
Trigger mode: 4
Integration Time (sec): 1.000000E-1
Scans to average: 15
Electric dark correction enabled: true
Nonlinearity correction enabled: false
Boxcar width: 5
Stray light correction enabled: false
XAxis mode: Wavelengths
Stop averaging: false
Number of Pixels in Spectrum: 3648
>>>>>Begin Spectral Data<<<<<
177.566	-259.74
177.785	-804.68
178.005	-317.98
178.225	-3503.97
178.445	395.26
178.665	508.27
178.885	5.08
179.105	769.39
179.324	446.16
179.544	-256.09
179.764	-222.94
179.984	-224.1
180.204	438.37
180.423	-190.88
180.643	-296.28
180.863	334.29
181.083	612.4
181.302	102.41
181.522	-46.71
181.742	53.86
181.961	144.38
182.181	92.91
182.401	122.88
182.621	643.89
182.84	191.16
183.06	241.58
183.279	317.54
183.499	903.07
183.719	892.14
183.938	502.81
184.158	1162.57
184.377	-1829.63
184.597	-494.37
184.816	-368.41
185.036	-1050.76
185.256	-356.72
185.475	1006.03
185.695	-13179.31
185.914	411.25
186.134	290.13
186.353	322.44
186.572	443.64
186.792	285.1
187.011	225.31
187.231	211.68
187.45	235.43
187.67	201.03
187.889	2151.58
188.108	696.89
188.328	1239.35
188.547	-864.02
188.766	-1405.05
188.986	624.15
189.205	-41304.55
189.424	933.04
189.644	5726.45
189.863	306.88
190.082	354.22
190.302	240.83
190.521	184.08
190.74	149.29
190.959	108.29
191.178	131.72
191.398	120.12
191.617	79.62
191.836	83.72
192.055	103.29
192.274	124.19
192.494	101.48
192.713	106.5
192.932	91.82
193.151	104.14
193.37	133.98
193.589	117.18
193.808	146.3
194.027	186.38
194.246	243.68
194.465	252.97
194.685	206.08
194.904	234.33
195.123	585.75
195.342	2879.82
195.561	358.69
195.78	309.52
195.999	339.24
196.218	1548.26
196.436	-512.09
196.655	-2112.97
196.874	706.52
197.093	586.98
197.312	763.52
197.531	-211.91
197.75	-310.84
197.969	-56.01
198.188	-20.67
198.407	5.71
198.625	-123.47
198.844	-47.69
199.063	24.51
199.282	8.35
199.501	31.28
199.719	24.04
199.938	-782.03
200.157	144.5
200.376	130.71
200.594	167.96
200.813	-13705.71
201.032	1063.64
201.251	352.43
201.469	414.29
201.688	412.05
201.907	434.37
202.125	343.32
202.344	209.02
202.563	254.67
202.781	314.7
203	262.24
203.218	190.33
203.437	171.69
203.656	149.27
203.874	128
204.093	135.11
204.311	87.72
204.53	78.24
204.748	48.18
204.967	12.84
205.185	13.21
205.404	72.13
205.622	66.14
205.841	82.17
206.059	106.07
206.278	124.37
206.496	46.37
206.715	110.6
206.933	141.66
207.151	148.21
207.37	156.93
207.588	174.04
207.806	72.88
208.025	32.54
208.243	-141.65
208.461	-17.77
208.68	-67.4
208.898	-39.49
209.116	-111.56
209.335	-38.27
209.553	505.77
209.771	-19.8
209.989	1023.04
210.208	660.1
210.426	-23.95
210.644	-34.85
210.862	-53.78
211.081	-132.54
211.299	-95.38
211.517	-276.93
211.735	-206.72
211.953	-502.45
212.171	-167.79
212.39	-867.38
212.608	-3422.66
212.826	484.36
213.044	339.91
213.262	242.41
213.48	165.15
213.698	249.6
213.916	-911.19
214.134	-308.95
214.352	-484.35
214.57	414.3
214.788	184.03
215.006	161.59
215.224	168.55
215.442	126.07
215.66	135.25
215.878	152.13
216.096	169.58
216.314	136.76
216.532	152.9
216.75	144.75
216.968	133.03
217.185	176.34
217.403	210.52
217.621	227.7
217.839	274.81
218.057	4546.73
218.275	-1933.19
218.492	-195.31
218.71	-106.22
218.928	-187.26
219.146	-103.98
219.363	-59.04
219.581	-137.16
219.799	-162.67
220.017	-111.6
220.234	-93.59
220.452	-88.53
220.67	-96.39
220.887	-216.02
221.105	-168.01
221.323	-118.75
221.54	-29.64
221.758	-17.5
221.976	-24.08
222.193	-1.46
222.411	-42.76
222.629	-54
222.846	-115.24
223.064	-48.69
223.281	-40.32
223.499	-59.55
223.716	-86.27
223.934	-467.27
224.151	-981.2
224.369	-541.83
224.586	224250
224.804	-753.87
225.021	-319.03
225.239	-106.55
225.456	-186.89
225.674	-234.61
225.891	-93.51
226.108	-101.18
226.326	-75.85
226.543	-73.68
226.76	-66.55
226.978	-59.89
227.195	-48.02
227.413	-31.96
227.63	-34.61
227.847	-31.33
228.064	-21.46
228.282	-14.6
228.499	-5.08
228.716	-4.63
228.934	-3.23
229.151	-2.29
229.368	0.05
229.585	-5.03
229.802	-4.49
230.02	-6.22
230.237	-7.22
230.454	-7.72
230.671	-8.35
230.888	-14.99
231.105	-15.81
231.323	-14.09
231.54	-10.32
231.757	-19.33
231.974	-17.48
232.191	-18.12
232.408	-15.34
232.625	-18.95
232.842	-19.25
233.059	-13.54
233.276	-10.55
233.493	-6.77
233.71	-9.4
233.927	-10.28
234.144	-1.89
234.361	3.47
234.578	2.95
234.795	8.39
235.012	12.71
235.229	12.29
235.446	-0.03
235.663	-3.59
235.879	1.07
236.096	0.18
236.313	-4.98
236.53	-11.52
236.747	-8.41
236.964	-12.27
237.181	-22.81
237.397	-15.66
237.614	-13.3
237.831	-10.61
238.048	-9.86
238.264	-19.35
238.481	-21.83
238.698	-16.4
238.915	-17.47
239.131	-23.56
239.348	-28.85
239.565	-22.77
239.781	-31.12
239.998	-27.76
240.215	-27.97
240.431	-23.61
240.648	-19.71
240.865	-14.65
241.081	-14.52
241.298	-8.55
241.514	-6.16
241.731	-2.17
241.947	1.07
242.164	3.5
242.38	5.4
242.597	7.27
242.814	6.61
243.03	5.84
243.246	7.02
243.463	8.27
243.679	8.48
243.896	9.03
244.112	7.34
244.329	4.97
244.545	4.31
244.762	2.03
244.978	2.09
245.194	1.56
245.411	3.86
245.627	2.35
245.843	3.15
246.06	4.49
246.276	5.75
246.492	6.2
246.709	7.15
246.925	6.52
247.141	7.34
247.357	8.13
247.574	8.49
247.79	8.94
248.006	8.84
248.222	8.94
248.439	8.58
248.655	9.1
248.871	9.22
249.087	8.38
249.303	8.63
249.519	7.33
249.736	5.58
249.952	4.89
250.168	2.46
250.384	1.41
250.6	1.9
250.816	1.02
251.032	-2.22
251.248	-3.41
251.464	-3.03
251.68	-3.58
251.896	-0.38
252.112	1.04
252.328	1.64
252.544	1.89
252.76	2.29
252.976	1.72
253.192	2.5
253.408	2.02
253.624	3.83
253.84	2.72
254.056	3.4
254.272	0.23
254.487	-1.45
254.703	0.13
254.919	2.9
255.135	0.3
255.351	-2.23
255.567	-5.52
255.782	-4.15
255.998	-1.82
256.214	-3.18
256.43	-0.87
256.646	-1.59
256.861	-0.95
257.077	-2.92
257.293	-8.74
257.508	-5.82
257.724	-4.79
257.94	-3.58
258.155	-4.6
258.371	-5.13
258.587	-1.99
258.802	-2.13
259.018	-0.66
259.234	0.47
259.449	0.87
259.665	2.08
259.88	2.35
260.096	2.18
260.312	2.87
260.527	3.41
260.743	3.07
260.958	2.22
261.174	2.14
261.389	1.52
261.605	0.19
261.82	0.68
262.036	-0.17
262.251	-0.28
262.466	0.62
262.682	-1.66
262.897	-1.43
263.113	-2.07
263.328	-0.86
263.543	0.34
263.759	-0.7
263.974	-0.12
264.189	-2.51
264.405	-2.51
264.62	-3.06
264.835	-4.01
265.051	-1.99
265.266	-3.38
265.481	-2.36
265.696	-4.46
265.912	-5.29
266.127	-3.48
266.342	-2.25
266.557	-3.1
266.773	-1.24
266.988	-2.5
267.203	-3.3
267.418	-3.97
267.633	-3.39
267.848	-2.44
268.064	-1.77
268.279	-1.59
268.494	-2.14
268.709	-1.78
268.924	-0.73
269.139	-1.43
269.354	0.04
269.569	2.48
269.784	2.6
269.999	1.71
270.214	0.52
270.429	0.41
270.644	0.85
270.859	1.53
271.074	1.6
271.289	2.2
271.504	2.46
271.719	2.4
271.934	1.14
272.149	1.71
272.363	2.46
272.578	2.88
272.793	5.08
273.008	4.49
273.223	4.69
273.438	4.37
273.653	4.71
273.867	6.31
274.082	5.23
274.297	5.66
274.512	4.51
274.726	5.04
274.941	5.17
275.156	3.24
275.371	3.39
275.585	1.97
275.8	0.9
276.015	-1.03
276.229	-4.91
276.444	-3.17
276.659	-5
276.873	-4.9
277.088	-6.44
277.302	-6.18
277.517	-6.96
277.732	-7.18
277.946	-6.64
278.161	-5.8
278.375	-3.9
278.59	-0.95
278.804	-2.13
279.019	-0.09
279.233	2.53
279.448	4.39
279.662	4.49
279.877	5.24
280.091	6.2
280.306	7.79
280.52	7.78
280.735	6.64
280.949	5.29
281.163	7.01
281.378	6.58
281.592	5.93
281.806	5.27
282.021	4.91
282.235	3.98
282.449	2.65
282.664	1.94
282.878	1.65
283.092	2.02
283.307	2.81
283.521	3.05
283.735	3.85
283.949	3.38
284.164	3.03
284.378	4.26
284.592	5.75
284.806	6.96
285.02	6.84
285.234	7.57
285.449	7.77
285.663	7.25
285.877	6.4
286.091	5.11
286.305	5.44
286.519	5.81
286.733	5.79
286.947	4.89
287.161	4.31
287.375	4.08
287.589	3.16
287.803	4.2
288.017	4.6
288.231	4
288.445	5.89
288.659	4.82
288.873	4.06
289.087	2.64
289.301	2.98
289.515	3.03
289.729	3.17
289.943	4.28
290.157	2.49
290.371	2.29
290.584	3.56
290.798	2.9
291.012	3.63
291.226	4.42
291.44	4.31
291.654	4.17
291.867	4.72
292.081	3.91
292.295	2.56
292.509	4.18
292.722	3.26
292.936	2.89
293.15	2.76
293.364	3.06
293.577	3.32
293.791	4.68
294.005	5.56
294.218	6.01
294.432	7.54
294.645	7.97
294.859	7.54
295.073	8.15
295.286	8.29
295.5	8.01
295.713	7.09
295.927	7.57
296.14	6.83
296.354	5.99
296.568	4.65
296.781	3.49
296.994	3.2
297.208	2.53
297.421	3.98
297.635	3.87
297.848	4.31
298.062	5.45
298.275	4.57
298.489	4.38
298.702	4.99
298.915	5.31
299.129	5.9
299.342	6.42
299.555	6.06
299.769	5.72
299.982	6.5
300.195	6.83
300.409	5.64
300.622	5.43
300.835	5.77
301.048	5.75
301.262	6.67
301.475	7.44
301.688	8.44
301.901	10.19
302.115	8.9
302.328	8.89
302.541	7.61
302.754	8.64
302.967	8.54
303.18	8.34
303.393	9.22
303.607	10.22
303.82	9.94
304.033	9.48
304.246	9.32
304.459	9.13
304.672	7.74
304.885	8.91
305.098	8.5
305.311	9.03
305.524	8.34
305.737	6.52
305.95	4.89
306.163	5.28
306.376	5.11
306.589	5.99
306.802	6.6
307.015	7.32
307.228	6.03
307.44	6.46
307.653	7.59
307.866	8.41
308.079	9.31
308.292	10.69
308.505	11.51
308.718	11.35
308.93	9.66
309.143	10.29
309.356	10.1
309.569	10.32
309.781	10.49
309.994	9.05
310.207	10.02
310.42	9.63
310.632	8.56
310.845	9.12
311.058	8.88
311.27	9.5
311.483	8.85
311.696	8.84
311.908	9.19
312.121	8.86
312.333	8.93
312.546	9.55
312.759	9.13
312.971	8.54
313.184	6.42
313.396	7.27
313.609	7.56
313.821	7.94
314.034	8.27
314.246	9.61
314.459	9.18
314.671	10.75
314.884	9.59
315.096	10.55
315.309	11.37
315.521	11.44
315.733	10.66
315.946	10.58
316.158	10.27
316.371	9.7
316.583	7.39
316.795	7.58
317.008	7.1
317.22	8.66
317.432	8.69
317.644	7.75
317.857	7.9
318.069	8.72
318.281	8.83
318.494	8.71
318.706	9.19
318.918	10.32
319.13	10.65
319.342	10.33
319.555	8.3
319.767	8.93
319.979	11
320.191	11.09
320.403	10.23
320.615	9.68
320.827	9.93
321.039	9.97
321.252	10.55
321.464	10.36
321.676	9.53
321.888	9.55
322.1	9.94
322.312	9.64
322.524	10.82
322.736	11.05
322.948	10.83
323.16	11.52
323.372	11.07
323.584	10.9
323.796	11.51
324.007	12.98
324.219	12.16
324.431	11.96
324.643	11.67
324.855	11.56
325.067	12.53
325.279	13.13
325.491	12.88
325.702	13.72
325.914	13.37
326.126	13.21
326.338	12.31
326.55	14.41
326.761	14.57
326.973	14.58
327.185	14.44
327.396	13.34
327.608	12.51
327.82	13.19
328.032	14.01
328.243	14.71
328.455	14.87
328.666	16.3
328.878	14.51
329.09	14.52
329.301	13.94
329.513	14.25
329.725	14.43
329.936	14.85
330.148	14.89
330.359	13.31
330.571	13.56
330.782	14.39
330.994	13.69
331.205	15.13
331.417	15.08
331.628	15.8
331.84	16.62
332.051	16.85
332.262	17.23
332.474	17
332.685	18.53
332.897	18.75
333.108	17.76
333.319	18.53
333.531	17.76
333.742	18.15
333.953	18.57
334.165	17.87
334.376	18.36
334.587	19.3
334.799	18.83
335.01	18.9
335.221	19.09
335.432	19.65
335.644	19.35
335.855	20.1
336.066	19.8
336.277	19.9
336.488	20.59
336.7	21.36
336.911	21.58
337.122	22.37
337.333	21.79
337.544	21.88
337.755	21.69
337.966	21.14
338.177	20.99
338.388	21.13
338.599	20.78
338.811	20.76
339.022	20.68
339.233	20.1
339.444	20.38
339.655	21.61
339.866	21.64
340.076	21.88
340.287	22.23
340.498	23.12
340.709	23.81
340.92	24.47
341.131	24.13
341.342	23.6
341.553	23.56
341.764	22.54
341.975	21.57
342.185	21.69
342.396	21.9
342.607	21.68
342.818	20.85
343.029	20.21
343.239	19.79
343.45	20.21
343.661	20.22
343.872	20.55
344.082	20.8
344.293	20.4
344.504	20.41
344.714	19.78
344.925	20.42
345.136	20.56
345.346	21.15
345.557	21.55
345.768	21.37
345.978	22.1
346.189	22.19
346.399	22.98
346.61	23.5
346.821	23.36
347.031	23.49
347.242	23.92
347.452	24.02
347.663	23.52
347.873	22.97
348.084	22.79
348.294	22.64
348.504	21.61
348.715	20.54
348.925	21.18
349.136	21.13
349.346	21.98
349.557	21.25
349.767	21.35
349.977	21.09
350.188	21.66
350.398	22.78
350.608	22.58
350.819	23.76
351.029	24.01
351.239	23.4
351.449	22.46
351.66	22.23
351.87	22.72
352.08	22.2
352.29	23.33
352.501	23.22
352.711	22.6
352.921	21.95
353.131	22.12
353.341	22.93
353.552	23.09
353.762	23.91
353.972	23.28
354.182	22.93
354.392	22.47
354.602	21.76
354.812	20.99
355.022	20.71
355.232	20.74
355.442	20.42
355.652	19.71
355.862	20.12
356.072	19.52
356.282	19.6
356.492	19.71
356.702	20.65
356.912	20.43
357.122	20.59
357.332	20.43
357.542	21.04
357.752	21.08
357.962	21.27
358.171	21.26
358.381	21.39
358.591	21.79
358.801	22.11
359.011	22.36
359.221	21.89
359.43	21.91
359.64	22.35
359.85	23.05
360.06	23.26
360.269	23.66
360.479	23.2
360.689	23.37
360.899	23.24
361.108	23.33
361.318	22.94
361.528	23.69
361.737	23.78
361.947	23.68
362.156	22.73
362.366	22.59
362.576	22.1
362.785	22.01
362.995	22.12
363.204	22.14
363.414	21.32
363.623	21.18
363.833	21.12
364.042	21.24
364.252	21.47
364.461	21.94
364.671	21.71
364.88	21.97
365.09	22.18
365.299	22.1
365.509	21.46
365.718	21.54
365.927	21.36
366.137	21
366.346	20.68
366.555	19.68
366.765	19.04
366.974	19.3
367.183	19.1
367.393	18.46
367.602	17.94
367.811	18.33
368.021	18.38
368.23	18.91
368.439	18.61
368.648	18.75
368.857	19.18
369.067	19.05
369.276	18.82
369.485	18.59
369.694	19.33
369.903	19.45
370.112	19.46
370.321	19.11
370.531	18.21
370.74	17.89
370.949	17.69
371.158	16.92
371.367	16.75
371.576	16.36
371.785	16.34
371.994	16.28
372.203	15.98
372.412	15.99
372.621	16.63
372.83	17.41
373.039	18
373.248	18.71
373.457	19.09
373.666	19.6
373.874	19.47
374.083	19.68
374.292	19.19
374.501	19.11
374.71	18.57
374.919	18.53
375.128	17.9
375.336	17.38
375.545	16.33
375.754	16.02
375.963	15.44
376.171	15.41
376.38	15.45
376.589	15.44
376.798	15.63
377.006	15.86
377.215	15.8
377.424	16.31
377.632	16.91
377.841	17.39
378.05	16.98
378.258	16.63
378.467	16.98
378.675	16.73
378.884	16.49
379.093	16.24
379.301	16.22
379.51	15.91
379.718	15.25
379.927	14.54
380.135	14.31
380.344	15.17
380.552	15.97
380.761	15.93
380.969	15.47
381.177	15.41
381.386	15.51
381.594	15.43
381.803	15.33
382.011	15.79
382.219	15.67
382.428	15.36
382.636	15.54
382.845	15.23
383.053	14.99
383.261	14.88
383.469	15.29
383.678	15.49
383.886	15.52
384.094	15.38
384.302	15.23
384.511	14.95
384.719	15.03
384.927	14.66
385.135	14.69
385.343	14.21
385.552	14.59
385.76	14.27
385.968	14.13
386.176	14.11
386.384	13.83
386.592	13.31
386.8	13.52
387.008	13.26
387.216	12.98
387.424	12.95
387.633	13.14
387.841	12.76
388.049	12.47
388.257	12.56
388.465	12.5
388.672	12.73
388.88	12.86
389.088	12.84
389.296	12.67
389.504	12.6
389.712	12.51
389.92	12.37
390.128	12.38
390.336	12.09
390.544	11.84
390.751	11.48
390.959	11.02
391.167	11.06
391.375	11.17
391.583	11.6
391.79	11.23
391.998	10.93
392.206	10.87
392.414	10.93
392.621	11.14
392.829	11.16
393.037	11.15
393.244	11.3
393.452	11.24
393.66	10.93
393.867	10.74
394.075	11.06
394.283	11
394.49	11.25
394.698	11.38
394.905	11.3
395.113	11.07
395.32	11.37
395.528	11.38
395.735	11.3
395.943	11.09
396.15	11.11
396.358	10.94
396.565	11.03
396.773	10.88
396.98	10.54
397.188	10.42
397.395	10.64
397.602	10.43
397.81	10.51
398.017	10.41
398.225	10.36
398.432	10.41
398.639	10.53
398.847	10.59
399.054	10.43
399.261	10.53
399.468	10.58
399.676	10.26
399.883	9.91
400.09	10.12
400.297	10.18
400.505	10.01
400.712	9.95
400.919	10
401.126	9.78
401.333	10.24
401.54	10.4
401.748	10.36
401.955	10.33
402.162	10.55
402.369	10.31
402.576	10.36
402.783	10.76
402.99	10.48
403.197	10.61
403.404	10.35
403.611	9.58
403.818	9.05
404.025	9.31
404.232	9.66
404.439	9.73
404.646	9.71
404.853	9.61
405.06	9.76
405.267	10.01
405.474	9.78
405.681	10.23
405.887	10.56
406.094	11.01
406.301	10.86
406.508	10.74
406.715	10.45
406.922	10.38
407.128	10.31
407.335	10.03
407.542	9.86
407.749	9.86
407.955	9.41
408.162	9.8
408.369	9.64
408.575	9.4
408.782	9.27
408.989	9.25
409.195	9.54
409.402	9.43
409.609	9.37
409.815	9.16
410.022	8.9
410.228	8.94
410.435	8.75
410.642	8.85
410.848	8.8
411.055	8.84
411.261	8.97
411.468	8.74
411.674	8.85
411.881	8.97
412.087	9.18
412.294	9.54
412.5	9.61
412.706	9.54
412.913	9.23
413.119	9.72
413.326	9.69
413.532	9.72
413.738	9.44
413.945	9.09
414.151	9.18
414.357	9.1
414.564	9.02
414.77	9.1
414.976	8.73
415.182	8.98
415.389	8.73
415.595	8.74
415.801	8.56
416.007	8.74
416.214	8.96
416.42	8.6
416.626	8.71
416.832	8.67
417.038	8.53
417.244	8.53
417.45	8.53
417.657	8.64
417.863	8.63
418.069	8.76
418.275	8.82
418.481	8.86
418.687	8.89
418.893	8.79
419.099	8.86
419.305	9
419.511	9.21
419.717	9.37
419.923	9.19
420.129	9.26
420.335	9.28
420.541	9.25
420.746	9.37
420.952	9.44
421.158	9.4
421.364	9.17
421.57	9.14
421.776	8.95
421.982	8.68
422.187	8.73
422.393	8.56
422.599	8.59
422.805	8.46
423.01	8.29
423.216	8.15
423.422	8.08
423.628	8.21
423.833	8.11
424.039	8.09
424.245	8.16
424.45	8.28
424.656	8.29
424.862	8.35
425.067	8.51
425.273	8.72
425.478	8.9
425.684	9.11
425.889	9.16
426.095	9.17
426.301	9.33
426.506	9.43
426.712	9.35
426.917	9.42
427.123	9.18
427.328	9.16
427.533	9
427.739	8.87
427.944	8.66
428.15	8.65
428.355	8.85
428.561	8.76
428.766	8.6
428.971	8.61
429.177	8.62
429.382	8.61
429.587	8.4
429.793	8.01
429.998	8.05
430.203	8.08
430.408	7.98
430.614	7.69
430.819	7.96
431.024	7.76
431.229	7.66
431.434	7.49
431.64	7.57
431.845	7.72
432.05	8.14
432.255	8.22
432.46	8.01
432.665	7.97
432.87	8.12
433.076	8.08
433.281	8.17
433.486	8.08
433.691	8.03
433.896	7.85
434.101	7.8
434.306	7.73
434.511	7.56
434.716	7.63
434.921	7.68
435.126	7.76
435.331	7.23
435.535	7.42
435.74	7.63
435.945	7.92
436.15	8.31
436.355	8.38
436.56	8.16
436.765	8.11
436.97	8.21
437.174	8.37
437.379	8.2
437.584	8.51
437.789	8.39
437.993	8.28
438.198	8.22
438.403	8
438.608	7.98
438.812	8.1
439.017	8.25
439.222	8.4
439.426	8.26
439.631	8.35
439.836	8.49
440.04	8.48
440.245	8.52
440.45	8.48
440.654	8.53
440.859	8.49
441.063	8.44
441.268	8.57
441.472	8.57
441.677	8.56
441.881	8.39
442.086	8.32
442.29	8.26
442.495	8.23
442.699	8.24
442.904	8.25
443.108	8.31
443.312	8.37
443.517	8.25
443.721	8.32
443.925	8.33
444.13	8.55
444.334	8.67
444.538	8.86
444.743	8.86
444.947	8.76
445.151	8.73
445.356	8.71
445.56	8.52
445.764	8.56
445.968	8.46
446.173	8.41
446.377	8.29
446.581	8.23
446.785	8.15
446.989	8.13
447.193	8.03
447.398	8.01
447.602	8.06
447.806	8.2
448.01	8.16
448.214	8.14
448.418	8.2
448.622	8.29
448.826	8.27
449.03	8.18
449.234	8.02
449.438	8.31
449.642	8.34
449.846	8.19
450.05	8.07
450.254	8.09
450.458	8.05
450.662	7.99
450.866	7.91
451.069	7.91
451.273	8.17
451.477	8.39
451.681	8.12
451.885	8
452.089	7.94
452.292	8.02
452.496	8.13
452.7	8.16
452.904	8.23
453.107	8.05
453.311	7.96
453.515	7.62
453.719	7.57
453.922	7.63
454.126	7.76
454.33	7.75
454.533	7.74
454.737	7.63
454.94	7.35
455.144	7.21
455.348	7.46
455.551	7.35
455.755	7.46
455.958	7.21
456.162	7.12
456.365	7
456.569	7.01
456.772	7.07
456.976	6.84
457.179	6.83
457.383	6.89
457.586	6.76
457.79	6.85
457.993	6.77
458.196	7
458.4	6.99
458.603	7.16
458.807	7.29
459.01	7.36
459.213	7.54
459.417	7.62
459.62	7.68
459.823	7.75
460.026	7.76
460.23	7.8
460.433	7.84
460.636	7.76
460.839	7.78
461.042	7.8
461.246	7.62
461.449	7.45
461.652	7.41
461.855	7.36
462.058	7.24
462.261	7.29
462.464	7.34
462.668	7.42
462.871	7.68
463.074	7.58
463.277	7.46
463.48	7.55
463.683	7.6
463.886	7.64
464.089	7.72
464.292	7.75
464.495	7.49
464.698	7.56
464.901	7.46
465.104	7.54
465.306	7.57
465.509	7.57
465.712	7.51
465.915	7.52
466.118	7.74
466.321	7.66
466.524	7.82
466.726	8.18
466.929	8.22
467.132	7.93
467.335	7.98
467.538	7.93
467.74	8.02
467.943	8.24
468.146	8.2
468.348	7.97
468.551	8.09
468.754	8.07
468.956	7.86
469.159	7.8
469.362	8.06
469.564	7.87
469.767	7.8
469.969	7.82
470.172	7.89
470.375	7.98
470.577	7.88
470.78	7.69
470.982	7.73
471.185	7.76
471.387	7.79
471.59	7.82
471.792	7.87
471.995	8.04
472.197	7.98
472.399	7.88
472.602	8.01
472.804	8.26
473.007	8.41
473.209	8.26
473.411	8.21
473.614	8
473.816	7.76
474.018	7.8
474.22	7.64
474.423	7.68
474.625	7.56
474.827	7.56
475.03	7.4
475.232	7.35
475.434	7.53
475.636	7.72
475.838	7.79
476.04	8.05
476.243	7.98
476.445	8.13
476.647	7.92
476.849	8.21
477.051	8.11
477.253	8.19
477.455	8.13
477.657	8
477.859	8.04
478.061	8.01
478.263	7.99
478.465	8.02
478.667	7.99
478.869	8.11
479.071	7.94
479.273	8.04
479.475	8.05
479.677	8.1
479.879	8.09
480.081	7.98
480.283	7.99
480.485	8.06
480.686	7.98
480.888	7.81
481.09	7.83
481.292	7.89
481.494	7.79
481.695	7.68
481.897	7.76
482.099	7.81
482.301	7.89
482.502	8.01
482.704	7.94
482.906	8.07
483.107	8.1
483.309	8.11
483.511	8.07
483.712	8.05
483.914	8.04
484.115	8
484.317	8.01
484.519	8.01
484.72	7.94
484.922	7.93
485.123	7.83
485.325	7.86
485.526	7.86
485.728	7.85
485.929	7.95
486.131	8.03
486.332	8.04
486.534	8.04
486.735	7.98
486.936	8
487.138	8.03
487.339	8.14
487.541	8.07
487.742	8.08
487.943	8.09
488.144	8.03
488.346	7.99
488.547	8.03
488.748	8
488.95	7.97
489.151	7.94
489.352	7.96
489.553	7.87
489.755	7.97
489.956	7.89
490.157	7.91
490.358	7.95
490.559	7.97
490.76	7.95
490.961	8
491.163	8.01
491.364	8.16
491.565	8.08
491.766	8.12
491.967	8.08
492.168	8.14
492.369	8.11
492.57	8.01
492.771	7.97
492.972	7.92
493.173	7.89
493.374	7.92
493.575	7.77
493.776	7.75
493.976	7.76
494.177	7.7
494.378	7.7
494.579	7.66
494.78	7.86
494.981	7.94
495.182	8.08
495.382	8.09
495.583	8.18
495.784	8.19
495.985	8.3
496.185	8.16
496.386	8.13
496.587	8.08
496.788	7.87
496.988	7.8
497.189	7.86
497.39	7.91
497.59	7.94
497.791	7.85
497.992	7.89
498.192	7.88
498.393	7.95
498.593	8.11
498.794	8.18
498.994	8.45
499.195	8.52
499.395	8.61
499.596	8.5
499.796	8.47
499.997	8.57
500.197	8.51
500.398	8.44
500.598	8.55
500.799	8.41
500.999	8.42
501.199	8.58
501.4	8.58
501.6	8.56
501.801	8.56
502.001	8.63
502.201	8.68
502.402	8.78
502.602	8.79
502.802	8.89
503.002	9.06
503.203	9.05
503.403	8.92
503.603	8.89
503.803	8.75
504.003	8.81
504.204	8.93
504.404	9.18
504.604	9.2
504.804	9.25
505.004	9.08
505.204	9
505.404	8.97
505.604	8.91
505.804	8.9
506.005	8.93
506.205	8.87
506.405	8.81
506.605	8.58
506.805	8.56
507.005	8.65
507.204	8.73
507.404	8.78
507.604	8.98
507.804	9.12
508.004	9.31
508.204	9.46
508.404	9.54
508.604	9.42
508.804	9.52
509.003	9.63
509.203	9.69
509.403	9.62
509.603	9.87
509.803	9.89
510.002	9.97
510.202	9.97
510.402	10.1
510.602	10.14
510.801	10.32
511.001	10.43
511.201	10.42
511.4	10.55
511.6	10.81
511.8	10.79
511.999	10.73
512.199	10.69
512.398	10.64
512.598	10.47
512.797	10.64
512.997	10.56
513.197	10.52
513.396	10.67
513.596	10.77
513.795	10.63
513.994	10.66
514.194	10.78
514.393	10.9
514.593	11.11
514.792	11.31
514.992	11.56
515.191	11.84
515.39	11.96
515.59	12.19
515.789	12.15
515.988	12.45
516.188	12.55
516.387	12.75
516.586	12.83
516.786	12.69
516.985	12.89
517.184	12.79
517.383	12.82
517.582	12.81
517.782	12.75
517.981	12.76
518.18	12.74
518.379	12.77
518.578	12.85
518.777	12.96
518.976	13.12
519.176	13.13
519.375	13.12
519.574	13.24
519.773	13.38
519.972	13.47
520.171	13.5
520.37	13.57
520.569	13.56
520.768	13.51
520.967	13.46
521.166	13.53
521.365	13.57
521.564	13.72
521.762	13.78
521.961	13.63
522.16	13.73
522.359	14.06
522.558	14.27
522.757	14.42
522.956	14.52
523.154	14.68
523.353	14.85
523.552	15
523.751	15.16
523.949	15.26
524.148	15.59
524.347	15.69
524.546	15.71
524.744	15.8
524.943	15.99
525.142	15.99
525.34	16.12
525.539	16.16
525.737	16.23
525.936	16.35
526.135	16.41
526.333	16.37
526.532	16.41
526.73	16.49
526.929	16.61
527.127	16.68
527.326	16.92
527.524	16.97
527.723	17.06
527.921	17.13
528.12	17.15
528.318	17.22
528.516	17.35
528.715	17.39
528.913	17.45
529.112	17.47
529.31	17.49
529.508	17.48
529.707	17.49
529.905	17.56
530.103	17.6
530.301	17.61
530.5	17.71
530.698	17.76
530.896	17.78
531.094	17.96
531.293	18.08
531.491	18.17
531.689	18.28
531.887	18.45
532.085	18.57
532.283	18.64
532.481	18.82
532.68	18.75
532.878	18.78
533.076	18.97
533.274	19.01
533.472	18.97
533.67	19.06
533.868	19.2
534.066	19.29
534.264	19.36
534.462	19.4
534.66	19.49
534.858	19.64
535.056	19.77
535.253	19.88
535.451	19.83
535.649	20.16
535.847	20.32
536.045	20.36
536.243	20.57
536.441	20.6
536.638	20.71
536.836	20.77
537.034	20.91
537.232	20.9
537.43	20.98
537.627	21.06
537.825	20.96
538.023	21.03
538.22	21.06
538.418	20.92
538.616	21.09
538.813	21.22
539.011	21.29
539.209	21.19
539.406	21.36
539.604	21.39
539.801	21.62
539.999	21.72
540.196	21.8
540.394	21.95
540.591	22.1
540.789	22.13
540.986	22.21
541.184	22.33
541.381	22.47
541.579	22.52
541.776	22.65
541.974	22.74
542.171	22.77
542.368	22.78
542.566	22.74
542.763	22.82
542.96	22.84
543.158	22.85
543.355	22.8
543.552	22.8
543.75	22.93
543.947	22.96
544.144	22.98
544.341	23.1
544.539	23.28
544.736	23.52
544.933	23.45
545.13	23.63
545.327	23.77
545.524	23.92
545.722	24.12
545.919	24.19
546.116	24.35
546.313	24.4
546.51	24.54
546.707	24.53
546.904	24.56
547.101	24.7
547.298	24.75
547.495	24.95
547.692	25.09
547.889	25.16
548.086	25.25
548.283	25.19
548.48	25.24
548.677	25.26
548.874	25.42
549.07	25.49
549.267	25.52
549.464	25.58
549.661	25.51
549.858	25.59
550.055	25.81
550.251	25.72
550.448	26
550.645	26.35
550.842	26.38
551.038	26.32
551.235	26.49
551.432	26.7
551.628	26.9
551.825	26.98
552.022	27.1
552.218	27.05
552.415	27.37
552.612	27.37
552.808	27.11
553.005	27.39
553.201	27.64
553.398	27.63
553.594	27.7
553.791	27.59
553.987	27.71
554.184	27.76
554.38	27.78
554.577	27.81
554.773	27.79
554.97	27.96
555.166	27.91
555.362	27.94
555.559	28.11
555.755	28.2
555.952	28.54
556.148	28.6
556.344	28.61
556.541	28.84
556.737	28.9
556.933	28.81
557.129	28.88
557.326	28.91
557.522	28.94
557.718	29.08
557.914	29.25
558.11	29.29
558.307	29.35
558.503	29.56
558.699	29.55
558.895	29.64
559.091	30.07
559.287	30.17
559.483	30.14
559.679	30.31
559.876	30.49
560.072	30.48
560.268	30.42
560.464	30.42
560.66	30.43
560.856	30.5
561.052	30.68
561.247	30.84
561.443	30.97
561.639	31.22
561.835	31.17
562.031	30.98
562.227	31.03
562.423	31.15
562.619	31.6
562.815	31.79
563.01	31.85
563.206	31.83
563.402	31.92
563.598	31.95
563.793	31.93
563.989	32.01
564.185	32.25
564.381	32.45
564.576	32.54
564.772	32.53
564.968	32.51
565.163	32.66
565.359	32.86
565.555	32.75
565.75	32.88
565.946	32.94
566.141	33.03
566.337	33.05
566.532	33.02
566.728	33.21
566.923	33.08
567.119	33.1
567.314	33.38
567.51	33.32
567.705	33.41
567.901	33.34
568.096	33.74
568.292	33.87
568.487	34.09
568.682	34.35
568.878	34.34
569.073	34.53
569.268	34.65
569.464	34.58
569.659	34.65
569.854	34.71
570.05	34.8
570.245	34.49
570.44	34.62
570.635	34.58
570.831	34.55
571.026	34.79
571.221	34.89
571.416	34.92
571.611	34.9
571.806	35.04
572.002	35.08
572.197	35
572.392	35.22
572.587	35.26
572.782	35.2
572.977	35.3
573.172	35.16
573.367	35.16
573.562	35.28
573.757	35.24
573.952	35.38
574.147	35.46
574.342	35.77
574.537	35.68
574.732	35.72
574.927	35.78
575.121	35.76
575.316	35.99
575.511	35.98
575.706	35.94
575.901	36.01
576.096	35.84
576.29	35.92
576.485	36.04
576.68	36
576.875	35.86
577.069	36.03
577.264	35.98
577.459	35.59
577.654	35.94
577.848	35.98
578.043	36
578.238	36.21
578.432	36.21
578.627	36.03
578.821	36.19
579.016	36.45
579.21	36.32
579.405	36.56
579.6	36.94
579.794	36.58
579.989	36.47
580.183	36.76
580.378	36.66
580.572	36.45
580.766	36.61
580.961	36.67
581.155	36.63
581.35	36.76
581.544	36.24
581.738	36.06
581.933	36.23
582.127	36.43
582.321	36.38
582.516	36.52
582.71	37.1
582.904	37.16
583.099	37.25
583.293	37.12
583.487	37.39
583.681	37.72
583.875	37.76
584.07	37.59
584.264	37.66
584.458	37.84
584.652	37.79
584.846	37.48
585.04	37.41
585.234	37.37
585.428	37.22
585.623	37.04
585.817	37.15
586.011	37.09
586.205	37.06
586.399	37.02
586.593	36.69
586.787	36.84
586.981	36.97
587.174	36.88
587.368	37.1
587.562	37.49
587.756	37.65
587.95	37.69
588.144	37.98
588.338	38.22
588.532	38.58
588.725	38.73
588.919	38.59
589.113	38.71
589.307	38.76
589.501	38.9
589.694	38.88
589.888	38.67
590.082	38.47
590.275	38.46
590.469	38.56
590.663	38.71
590.856	38.59
591.05	38.91
591.244	38.7
591.437	38.99
591.631	38.84
591.824	38.81
592.018	38.97
592.212	39.1
592.405	39.02
592.599	38.95
592.792	38.63
592.986	38.88
593.179	38.76
593.372	38.9
593.566	38.6
593.759	38.95
593.953	38.97
594.146	39.12
594.339	39.31
594.533	39.33
594.726	39.43
594.92	39.46
595.113	39.28
595.306	39.32
595.499	39.51
595.693	39.61
595.886	39.41
596.079	39.63
596.272	39.64
596.466	39.89
596.659	40.04
596.852	39.77
597.045	39.94
597.238	40.2
597.431	40.18
597.624	40.15
597.818	40.5
598.011	40.59
598.204	40.51
598.397	40.58
598.59	40.43
598.783	40.45
598.976	40.79
599.169	40.52
599.362	40.33
599.555	40.22
599.748	40.31
599.941	40.15
600.134	40.19
600.326	40.18
600.519	40.01
600.712	39.98
600.905	40.17
601.098	40.13
601.291	40.16
601.483	40.19
601.676	40.62
601.869	40.7
602.062	40.58
602.255	40.44
602.447	40.52
602.64	40.55
602.833	40.62
603.025	40.82
603.218	41
603.411	41.09
603.603	41.3
603.796	41.3
603.989	41.27
604.181	41.21
604.374	41.35
604.566	41.59
604.759	41.89
604.951	41.86
605.144	41.75
605.336	41.57
605.529	41.69
605.721	41.93
605.914	41.88
606.106	41.83
606.299	42.18
606.491	42.2
606.683	42.12
606.876	41.76
607.068	41.76
607.26	41.8
607.453	41.97
607.645	41.76
607.837	41.33
608.03	41.48
608.222	41.67
608.414	41.34
608.606	41.49
608.799	41.54
608.991	41.61
609.183	41.6
609.375	41.42
609.567	41.14
609.759	41.26
609.952	41.35
610.144	41.11
610.336	40.88
610.528	40.9
610.72	40.79
610.912	40.39
611.104	40.41
611.296	40.36
611.488	40.05
611.68	40.33
611.872	40.29
612.064	40.03
612.256	40.15
612.448	40.21
612.64	40.35
612.832	40.14
613.023	40.22
613.215	39.83
613.407	40.01
613.599	40.1
613.791	40.06
613.983	40.21
614.174	40.39
614.366	40.18
614.558	40.49
614.75	40.45
614.941	40.86
615.133	41.03
615.325	41.64
615.516	41.81
615.708	42.32
615.9	42.46
616.091	42.43
616.283	42.45
616.475	42.49
616.666	42.12
616.858	42
617.049	41.83
617.241	41.67
617.432	41.54
617.624	41.47
617.815	41.39
618.007	41.12
618.198	41.24
618.39	41.03
618.581	41.16
618.773	41.2
618.964	41.38
619.155	41.16
619.347	41.53
619.538	41.75
619.729	41.78
619.921	41.78
620.112	41.79
620.303	41.84
620.494	42.17
620.686	41.86
620.877	41.82
621.068	41.72
621.259	41.86
621.451	41.7
621.642	41.41
621.833	41.4
622.024	41.48
622.215	41.58
622.406	41.34
622.597	41.3
622.788	41.73
622.98	41.89
623.171	41.6
623.362	41.84
623.553	41.96
623.744	42.17
623.935	42.09
624.126	41.76
624.317	42.13
624.508	42.35
624.698	42.3
624.889	42.23
625.08	42.32
625.271	42.67
625.462	42.37
625.653	42.28
625.844	41.92
626.034	42.09
626.225	42.24
626.416	41.82
626.607	41.58
626.798	41.71
626.988	41.89
627.179	41.76
627.37	42.04
627.56	42.11
627.751	42.05
627.942	42.22
628.132	42.19
628.323	42.35
628.514	42.77
628.704	42.73
628.895	42.62
629.085	42.27
629.276	42.48
629.466	42.1
629.657	42.09
629.847	42.27
630.038	42.43
630.228	42.27
630.419	42.28
630.609	41.78
630.8	42.22
630.99	42.52
631.181	42.89
631.371	42.77
631.561	42.73
631.752	42.84
631.942	42.63
632.132	42.69
632.323	42.99
632.513	42.7
632.703	43.12
632.893	42.85
633.084	42.8
633.274	42.75
633.464	42.57
633.654	42.59
633.844	42.65
634.034	43.14
634.225	43.29
634.415	43.2
634.605	43.45
634.795	43.65
634.985	43.94
635.175	43.71
635.365	43.59
635.555	43.59
635.745	43.83
635.935	43.66
636.125	43.36
636.315	43.11
636.505	43.16
636.695	43.18
636.885	42.84
637.075	42.54
637.265	42.52
637.455	42.49
637.644	42.81
637.834	42.63
638.024	42.69
638.214	42.49
638.404	42.82
638.593	42.69
638.783	42.44
638.973	42.46
639.163	42.3
639.352	42.26
639.542	42.44
639.732	42.12
639.921	42.48
640.111	42.58
640.301	42.61
640.49	42.34
640.68	42.71
640.87	43.07
641.059	43.64
641.249	43.96
641.438	44.35
641.628	44.32
641.817	44.63
642.007	44.29
642.196	44.4
642.386	44.55
642.575	44.64
642.764	44.23
642.954	44.09
643.143	43.39
643.333	43.02
643.522	43.08
643.711	42.79
643.901	42.65
644.09	42.48
644.279	42.43
644.469	42.7
644.658	42.85
644.847	42.86
645.036	42.88
645.226	43.06
645.415	43.6
645.604	43.37
645.793	43.73
645.982	44.07
646.171	44.29
646.361	44.27
646.55	43.76
646.739	43.26
646.928	43.37
647.117	43.44
647.306	43.4
647.495	43.67
647.684	43.34
647.873	43.46
648.062	42.92
648.251	42.98
648.44	42.8
648.629	42.97
648.818	43.23
649.007	43.23
649.196	42.76
649.384	43.04
649.573	42.17
649.762	42.17
649.951	41.57
650.14	41.58
650.328	41.81
650.517	42.08
650.706	42.46
650.895	42.42
651.083	42.2
651.272	42.71
651.461	42.44
651.65	42.73
651.838	43.17
652.027	43.54
652.216	43.61
652.404	43.66
652.593	43.67
652.781	43.72
652.97	43.59
653.158	43.74
653.347	43.63
653.535	44.02
653.724	43.91
653.912	43.21
654.101	43.11
654.289	43.25
654.478	43.03
654.666	42.7
654.855	42.11
655.043	42.03
655.231	42
655.42	41.81
655.608	41.34
655.796	41.72
655.985	42.38
656.173	42.9
656.361	42.52
656.55	42.69
656.738	42.6
656.926	43.36
657.114	43.59
657.302	43.79
657.491	43.93
657.679	43.75
657.867	43.84
658.055	43.83
658.243	43.44
658.431	43.46
658.619	43.15
658.807	43.06
658.996	42.4
659.184	42.52
659.372	42.44
659.56	42.49
659.748	42.6
659.936	42.34
660.124	42.22
660.311	42.08
660.499	42.33
660.687	42.47
660.875	42.51
661.063	42.95
661.251	42.81
661.439	42.83
661.627	42.88
661.814	43.16
662.002	43.17
662.19	43.39
662.378	43.5
662.565	43.24
662.753	43.57
662.941	44.04
663.129	44.17
663.316	43.98
663.504	43.64
663.692	43.34
663.879	43.32
664.067	43.36
664.254	43.09
664.442	43.43
664.63	43.65
664.817	43.5
665.005	43.5
665.192	43.17
665.38	43.28
665.567	43.8
665.755	43.66
665.942	43.68
666.13	43.42
666.317	43.83
666.504	43.72
666.692	44.08
666.879	43.83
667.067	43.86
667.254	44.13
667.441	44.25
667.629	43.97
667.816	44.36
668.003	43.91
668.19	44.25
668.378	44.05
668.565	44.28
668.752	44.43
668.939	44.63
669.127	44.37
669.314	44.08
669.501	44.16
669.688	44.14
669.875	43.99
670.062	43.96
670.249	43.86
670.436	43.98
670.623	43.35
670.81	42.86
670.997	43.07
671.184	42.92
671.371	42.97
671.558	42.56
671.745	42.8
671.932	42.79
672.119	43.32
672.306	43.68
672.493	43.49
672.68	43.57
672.867	43.54
673.054	42.84
673.24	42.67
673.427	42.53
673.614	42.56
673.801	42.83
673.988	43.18
674.174	43.16
674.361	42.89
674.548	42.95
674.734	43.34
674.921	43.41
675.108	43.82
675.294	43.94
675.481	44.05
675.668	44.25
675.854	43.59
676.041	43.34
676.227	42.95
676.414	42.8
676.601	42.56
676.787	42.33
676.974	42.66
677.16	42.07
677.347	42.28
677.533	41.97
677.719	42.29
677.906	42.63
678.092	42.36
678.279	42.47
678.465	42.91
678.651	42.85
678.838	43.15
679.024	43.23
679.21	43.93
679.397	43.99
679.583	43.99
679.769	43.8
679.955	43.86
680.142	43.93
680.328	44.16
680.514	43.5
680.7	43.79
680.886	43.48
681.073	43.49
681.259	43.15
681.445	43.3
681.631	43.52
681.817	43.26
682.003	43.32
682.189	43.53
682.375	43.3
682.561	43.8
682.747	43.73
682.933	43.53
683.119	42.63
683.305	42.36
683.491	42.62
683.677	42.52
683.863	43.19
684.049	43.18
684.235	42.9
684.42	42.98
684.606	42.66
684.792	42.27
684.978	42.58
685.164	43
685.349	43.82
685.535	43.4
685.721	43.49
685.907	43.11
686.092	43.12
686.278	43.27
686.464	43.19
686.649	43
686.835	42.76
687.021	42.73
687.206	42.93
687.392	42.53
687.577	42.45
687.763	42.53
687.948	42.57
688.134	42.08
688.319	42.26
688.505	42.03
688.69	42.54
688.876	43.21
689.061	43.05
689.247	43.3
689.432	43.45
689.618	43.69
689.803	43.23
689.988	43.41
690.174	43.75
690.359	43.7
690.544	44.1
690.73	44.21
690.915	44.23
691.1	44.37
691.285	44.32
691.471	44.23
691.656	44.21
691.841	45.34
692.026	44.77
692.211	44.35
692.396	44.05
692.582	44.32
692.767	43.96
692.952	43.86
693.137	44.01
693.322	43.65
693.507	43.4
693.692	42.52
693.877	41.81
694.062	42.42
694.247	42.26
694.432	42.7
694.617	42.51
694.802	42.77
694.987	42.38
695.172	42.26
695.357	42.31
695.541	42.04
695.726	42.45
695.911	42.23
696.096	42.24
696.281	42.97
696.466	43.2
696.65	42.66
696.835	43.01
697.02	42.99
697.204	43.43
697.389	43.24
697.574	43.91
697.759	44.13
697.943	43.91
698.128	43.89
698.312	43.67
698.497	43.88
698.682	44.4
698.866	44.02
699.051	44.39
699.235	44.14
699.42	44.69
699.604	44.29
699.789	44.41
699.973	44.65
700.158	44.51
700.342	44.81
700.527	44.23
700.711	43.91
700.895	44.43
701.08	44.37
701.264	44.56
701.448	44.11
701.633	44.08
701.817	43.73
702.001	43.99
702.186	43.73
702.37	43.49
702.554	43.61
702.738	44.21
702.923	43.79
703.107	43.8
703.291	43.41
703.475	44
703.659	44.43
703.843	44.71
704.027	44.97
704.212	45.57
704.396	45.63
704.58	45.26
704.764	44.37
704.948	44.43
705.132	43.77
705.316	43.75
705.5	43.23
705.684	42.95
705.868	42.64
706.052	42.4
706.235	41.94
706.419	42.09
706.603	42.45
706.787	43.01
706.971	42.49
707.155	42.97
707.339	42.89
707.522	42.96
707.706	43.14
707.89	43.12
708.074	43.07
708.257	43.04
708.441	42.23
708.625	42.33
708.808	41.92
708.992	42.42
709.176	42.96
709.359	43.79
709.543	43.92
709.727	43.85
709.91	43.87
710.094	43.98
710.277	44.14
710.461	44.86
710.644	44.94
710.828	44.71
711.011	44.22
711.195	43.64
711.378	43.39
711.562	43.2
711.745	43.25
711.928	43.18
712.112	42.98
712.295	43.34
712.478	43.46
712.662	43.38
712.845	44.03
713.028	44.45
713.212	43.71
713.395	43.44
713.578	43.62
713.761	42.92
713.945	43.27
714.128	43.58
714.311	42.85
714.494	43.12
714.677	43.43
714.86	42.87
715.043	42.99
715.227	43.43
715.41	43.56
715.593	43.51
715.776	44.61
715.959	44.25
716.142	44.3
716.325	44.6
716.508	44.03
716.691	44.01
716.874	43.93
717.057	43.05
717.239	43.31
717.422	43.31
717.605	43.11
717.788	42.57
717.971	42.8
718.154	42.53
718.337	42.69
718.519	42.8
718.702	42.42
718.885	42.97
719.068	43.7
719.25	43.91
719.433	44.26
719.616	44.12
719.798	43.1
719.981	43.22
720.164	42.83
720.346	43.25
720.529	43.28
720.712	43.21
720.894	43.12
721.077	43.8
721.259	43.34
721.442	43.47
721.624	43.65
721.807	44.92
721.989	44.4
722.172	44.58
722.354	44.02
722.537	44.1
722.719	44.05
722.901	44.35
723.084	43.34
723.266	44.13
723.448	43.33
723.631	42.7
723.813	42.52
723.995	43.88
724.178	43.57
724.36	42.99
724.542	42.67
724.724	42.71
724.907	41.94
725.089	41.93
725.271	41.04
725.453	41.78
725.635	43.67
725.817	44.64
725.999	43.74
726.181	43.95
726.364	44.76
726.546	44.66
726.728	43.95
726.91	45.05
727.092	45.26
727.274	46.17
727.456	46.25
727.638	45.32
727.819	45.46
728.001	45.51
728.183	45.57
728.365	44.92
728.547	44.93
728.729	45.18
728.911	44.52
729.093	44.07
729.274	43.41
729.456	42.25
729.638	42.14
729.82	41.16
730.001	40.13
730.183	39.94
730.365	40.06
730.546	40.19
730.728	40.31
730.91	40.43
731.091	40.79
731.273	40.51
731.455	40.63
731.636	40.04
731.818	39.64
731.999	40.1
732.181	41.66
732.362	41.95
732.544	41.95
732.725	42.71
732.907	42.4
733.088	42.04
733.27	42.84
733.451	42.91
733.633	42.41
733.814	43.01
733.995	43.41
734.177	42.4
734.358	41.73
734.539	41.39
734.721	41.07
734.902	41.69
735.083	42.49
735.264	42.86
735.446	43.79
735.627	44.65
735.808	44.34
735.989	43.91
736.17	43.27
736.351	44.13
736.533	44.42
736.714	44.71
736.895	43.92
737.076	43.4
737.257	42.68
737.438	42.31
737.619	41.79
737.8	41.59
737.981	43.33
738.162	43.53
738.343	43.53
738.524	43.5
738.705	43.03
738.886	42.77
739.067	42.38
739.247	41.82
739.428	41.74
739.609	42.29
739.79	42.03
739.971	41.68
740.151	41.68
740.332	41.08
740.513	40.7
740.694	40.35
740.874	41.19
741.055	41.55
741.236	42.17
741.417	43.48
741.597	44.14
741.778	45.46
741.958	45.32
742.139	44.19
742.32	44.53
742.5	46.17
742.681	45.89
742.861	44.74
743.042	45.45
743.222	44.98
743.403	43.43
743.583	43.49
743.764	42.69
743.944	42.29
744.124	43.65
744.305	43.43
744.485	42.52
744.666	42.6
744.846	42.49
745.026	42.07
745.207	42.94
745.387	43.15
745.567	42.08
745.747	41.41
745.928	40.97
746.108	40.68
746.288	39.86
746.468	39.28
746.648	38.79
746.829	40.2
747.009	40.12
747.189	40.12
747.369	38.86
747.549	38.63
747.729	39.66
747.909	39.81
748.089	41.17
748.269	42.09
748.449	41.98
748.629	43.09
748.809	43.29
748.989	43.49
749.169	43.67
749.349	43.79
749.529	43.85
749.709	44.04
749.889	43.79
750.068	43.23
750.248	43.67
750.428	43.7
750.608	43.28
750.788	42.84
750.967	42.14
751.147	41.74
751.327	42
751.507	43.04
751.686	42.64
751.866	42.54
752.046	41.64
752.225	42.08
752.405	41.92
752.585	42.01
752.764	41.57
752.944	42.7
753.123	41.95
753.303	41.88
753.482	41.22
753.662	41.5
753.841	42.17
754.021	42.19
754.2	41.92
754.38	41.73
754.559	41.96
754.739	42.32
754.918	40.91
755.097	41.52
755.277	41.39
755.456	42.12
755.635	41.21
755.815	40.58
755.994	40.88
756.173	40.36
756.352	41.18
756.532	40.79
756.711	40.69
756.89	41.23
757.069	41.66
757.248	41.98
757.427	42.76
757.607	42.89
757.786	42.68
757.965	42.86
758.144	41.96
758.323	42.35
758.502	42.25
758.681	42.7
758.86	43.02
759.039	42.97
759.218	44.64
759.397	43.5
759.576	43.84
759.755	44.23
759.934	45.31
760.113	46.44
760.291	46.09
760.47	47.14
760.649	46.63
760.828	46.31
761.007	45.98
761.186	45.29
761.364	44.34
761.543	45.76
761.722	44.32
761.901	43.08
762.079	44.06
762.258	43.96
762.437	43.14
762.615	43.42
762.794	44.73
762.972	44.45
763.151	43.97
763.33	45.09
763.508	43.76
763.687	45.39
763.865	45.14
764.044	44.17
764.222	43.33
764.401	43.12
764.579	42.63
764.758	42.02
764.936	42.07
765.114	41.76
765.293	41.72
765.471	42.44
765.65	41.52
765.828	41.66
766.006	42.52
766.184	43.46
766.363	43.75
766.541	43.77
766.719	43.23
766.898	42.72
767.076	43.61
767.254	42.33
767.432	41.75
767.61	42.96
767.788	41.98
767.967	40.11
768.145	39.58
768.323	39.44
768.501	40.02
768.679	40.95
768.857	40.91
769.035	39.7
769.213	39.76
769.391	39.34
769.569	38.21
769.747	40.1
769.925	41.82
770.103	41.56
770.281	40.81
770.459	40.18
770.636	38.24
770.814	39.14
770.992	39.56
771.17	41.04
771.348	42.19
771.525	42.13
771.703	41.97
771.881	39.36
772.059	40.75
772.236	41.68
772.414	42.73
772.592	42.45
772.769	42.61
772.947	42.69
773.125	40.45
773.302	39.56
773.48	39.06
773.657	38.2
773.835	40.11
774.013	40.07
774.19	39.14
774.368	37.6
774.545	39.56
774.723	40.31
774.9	38.34
775.077	36.94
775.255	36.85
775.432	34.25
775.61	35.74
775.787	35.35
775.964	35.24
776.142	35.97
776.319	36.86
776.496	36.73
776.674	35.74
776.851	38.56
777.028	41.67
777.205	41.24
777.382	43.73
777.56	41.67
777.737	41.58
777.914	41.01
778.091	41.79
778.268	41.02
778.445	40.29
778.622	40.04
778.8	38.34
778.977	37.49
779.154	55.43
779.331	55.25
779.508	57.7
779.685	59.05
779.862	59.77
780.038	59.36
780.215	58.07
780.392	58.57
780.569	57.01
780.746	58.88
780.923	58.23
781.1	35.66
781.277	38.38
781.453	37.16
781.63	34.33
781.807	32.61
781.984	33.02
782.16	34.1
782.337	33.63
782.514	34.88
782.691	34.4
782.867	36.85
783.044	40.79
783.221	40.14
783.397	38.34
783.574	39.78
783.75	41.03
783.927	41.05
784.103	43.73
784.28	42.12
784.456	42.73
784.633	42.63
784.809	41.86
784.986	40.89
785.162	39.51
785.339	39.2
785.515	38.58
785.692	36.27
785.868	35.24
786.044	31.99
786.221	32.63
786.397	33.37
786.573	34.31
786.749	36.25
786.926	37.81
787.102	38.01
787.278	40.3
787.454	41.39
787.631	41.9
787.807	43.38
787.983	45.9
788.159	48.29
788.335	49.06
788.511	50.7
788.687	49.05
788.863	49.26
789.039	48.59
789.216	48.84
789.392	48.62
789.568	48.9
789.744	46.94
789.919	45.56
790.095	44.11
790.271	42.09
790.447	39.32
790.623	37.7
790.799	36.98
790.975	36.9
791.151	34.87
791.327	34.77
791.502	37.6
791.678	40.18
791.854	40.26
792.03	39.54
792.205	39.93
792.381	38.35
792.557	41.78
792.733	42.87
792.908	45.67
793.084	44.64
793.259	45.01
793.435	42.56
793.611	41.06
793.786	41.31
793.962	40.66
794.137	41.69
794.313	43.85
794.488	41.56
794.664	41.8
794.839	40.43
795.015	41.63
795.19	42.77
795.366	41.46
795.541	42.68
795.716	43.42
795.892	43.63
796.067	42.39
796.242	43.09
796.418	43.77
796.593	41.74
796.768	39.55
796.944	39.03
797.119	37.05
797.294	37.73
797.469	37.07
797.644	36.48
797.82	36.5
797.995	37.64
798.17	36.63
798.345	35.78
798.52	36.73
798.695	38.85
798.87	40.55
799.045	40.68
799.22	40.2
799.395	39.87
799.57	39.76
799.745	40.46
799.92	39.94
800.095	38.75
800.27	40.04
800.445	39.43
800.62	38.13
800.795	34.49
800.97	32.73
801.145	33.96
801.319	33.98
801.494	33.42
801.669	32.3
801.844	32.24
802.018	31.9
802.193	30.77
802.368	30.64
802.543	31.77
802.717	32.88
802.892	33.05
803.067	35.66
803.241	38.59
803.416	38.3
803.59	39.46
803.765	37.31
803.94	39.11
804.114	38.51
804.289	37.19
804.463	35.67
804.638	35.77
804.812	39.33
804.986	33.65
805.161	31
805.335	31.7
805.51	29.33
805.684	27.62
805.858	27.89
806.033	28.76
806.207	31.67
806.381	28.86
806.556	30.17
806.73	27.78
806.904	30.2
807.078	30.81
807.253	30.99
807.427	32.55
807.601	35.84
807.775	34.92
807.949	34.59
808.123	32.42
808.298	33.04
808.472	32.88
808.646	35.37
808.82	36.31
808.994	35.42
809.168	35.16
809.342	35.76
809.516	32.72
809.69	28.54
809.864	31.7
810.038	29.36
810.212	34.6
810.385	35.71
810.559	32.04
810.733	29.58
810.907	27.51
811.081	27.9
811.255	25.42
811.428	29.05
811.602	33.83
811.776	32.31
811.95	33.17
812.123	31.11
812.297	28.52
812.471	31.94
812.644	31.12
812.818	30.94
812.992	31.11
813.165	37.34
813.339	38.61
813.512	40.63
813.686	40.49
813.86	40.92
814.033	41.3
814.207	45.02
814.38	44.77
814.554	46.63
814.727	49.05
814.9	48.49
815.074	45.13
815.247	45.1
815.421	42.9
815.594	42.19
815.767	42.35
815.941	44.03
816.114	44.46
816.287	40.96
816.46	41.37
816.634	39.57
816.807	36.63
816.98	39.58
817.153	39.68
817.327	39.29
817.5	39.55
817.673	41.25
817.846	40.45
818.019	38.84
818.192	41.2
818.365	39.35
818.538	41.76
818.711	42.59
818.884	39.76
819.057	36.54
819.23	35.15
819.403	34.78
819.576	34.78
819.749	34.17
819.922	33.67
820.095	30.99
820.268	32.62
820.441	31.49
820.614	32.37
820.786	33.92
820.959	36.56
821.132	37.75
821.305	38.58
821.477	38.91
821.65	39.45
821.823	40.71
821.996	41.55
822.168	41.9
822.341	42.29
822.514	42.41
822.686	41.98
822.859	41.94
823.031	42.7
823.204	42.92
823.376	43.38
823.549	43.59
823.722	43.03
823.894	43.21
824.067	43.13
824.239	42.9
824.411	43.26
824.584	43.73
824.756	43.82
824.929	43.36
825.101	43.09
825.273	43.3
825.446	42.52
825.618	42.75
825.79	42.9
825.963	43.08
826.135	43.56
826.307	44.02
826.479	43.92
826.652	43.95
826.824	43.95
826.996	43.54
827.168	42.69
827.34	43.36
827.512	43.79
827.684	43.69
827.856	43.56
828.029	43.59
828.201	42.92
828.373	41.64
828.545	41.11
828.717	41.6
828.889	42.24
829.061	42.31
829.232	42.32
829.404	41.96
829.576	40.93
829.748	41.4
829.92	40.33
830.092	39.95
830.264	41.59
830.436	42.85
830.607	42.8
830.779	42.52
830.951	41.97
831.123	38.48
831.294	39.35
831.466	38.52
831.638	37.5
831.809	37.92
831.981	35.68
832.153	36.63
832.324	37.51
832.496	37.61
832.667	34.58
832.839	34.74
833.011	41.04
833.182	38.25
833.354	42.31
833.525	41.2
833.697	41.05
833.868	42.1
834.039	40.02
834.211	38.44
834.382	37.39
834.554	40.1
834.725	39.96
834.896	37.32
835.068	41.33
835.239	39.94
835.41	41.42
835.581	42.13
835.753	41.19
835.924	42.72
836.095	41.91
836.266	42.42
836.438	41.87
836.609	41.44
836.78	43.79
836.951	37.69
837.122	37.3
837.293	36.13
837.464	36.29
837.635	38.68
837.806	38.28
837.977	37.26
838.148	36.86
838.319	35.55
838.49	35.68
838.661	32.92
838.832	35.86
839.003	34.69
839.174	31.87
839.345	28.67
839.516	27.96
839.687	26.34
839.857	27.17
840.028	22.76
840.199	21.66
840.37	22.38
840.54	20.01
840.711	22.31
840.882	24.47
841.053	25.07
841.223	23.85
841.394	22.31
841.564	22.08
841.735	23.48
841.906	22.15
842.076	21.78
842.247	24.18
842.417	29.51
842.588	31.69
842.758	29.84
842.929	37.27
843.099	39.33
843.27	41.83
843.44	39.51
843.611	38.19
843.781	41.75
843.951	47.13
844.122	42.75
844.292	38.55
844.462	37.32
844.633	40.09
844.803	35.63
844.973	33.87
845.144	30.92
845.314	31.74
845.484	32.9
845.654	30.77
845.824	18.88
845.995	22.92
846.165	24.65
846.335	31.4
846.505	26.92
846.675	26.6
846.845	23.38
847.015	17.26
847.185	20.08
847.355	9.2
847.525	2.72
847.695	2.85
847.865	5.35
848.035	12.26
848.205	-2.55
848.375	-9.69
848.545	-22.06
848.715	-13.38
848.884	-11.69
849.054	-27.41
849.224	-10.61
849.394	-0.72
849.564	20.93
849.733	4.07
849.903	4.89
850.073	5.2
850.243	15.47
850.412	11.63
850.582	3.86
850.752	1.32
850.921	14.46
851.091	5.9
851.26	13.8
851.43	-38.48
851.599	-6.3
851.769	-38.8
851.939	-36.04
852.108	-53.08
852.278	-11
852.447	-8.2
852.616	11.48
852.786	12.35
852.955	19.12
853.125	14.58
853.294	42.33
853.463	43.99
853.633	53.71
853.802	39.23
853.971	54.66
854.141	46.53
854.31	55.46
854.479	47.14
854.648	41.04
854.818	36.95
854.987	30.07
855.156	18.8
855.325	13.67
855.494	15.28
855.663	23.96
855.832	12.07
856.001	5.46
856.171	-2.92
856.34	-14.56
856.509	-15.26
856.678	-23.74
856.847	-10.27
857.016	4.15
857.185	17.5
857.353	18.69
857.522	16.87
857.691	21.77
857.86	24.64
858.029	28.1
858.198	30.74
858.367	26.91
858.535	25.1
858.704	21.75
858.873	-1.85
859.042	-28.79
859.21	-30.06
859.379	-34.47
859.548	-30.78
859.717	-29.32
859.885	-15.61
860.054	7.58
860.222	14.34
860.391	20.4
860.56	-7.71
860.728	15.78
860.897	25.39
861.065	12.92
861.234	19.99
861.402	15.95
861.571	14.24
861.739	4.1
861.908	-4.63
862.076	-21.11
862.244	-0.58
862.413	8.38
862.581	3.36
862.749	-8.6
862.918	-3.82
863.086	-24.95
863.254	-17.24
863.423	-40.05
863.591	-16.1
863.759	-54.34
863.927	-15.74
864.096	-44.68
864.264	-87.69
864.432	-79.88
864.6	-71.64
864.768	-52.35
864.936	-22.19
865.104	-21.32
865.272	-11.79
865.44	-29.39
865.608	-8.05
865.776	-20.35
865.944	-8.65
866.112	9.47
866.28	15.45
866.448	15.01
866.616	15.51
866.784	12.39
866.952	13.54
867.12	-2.71
867.288	16.67
867.455	15.85
867.623	14.54
867.791	29.67
867.959	22.93
868.127	18.49
868.294	19.08
868.462	36.87
868.63	26.61
868.797	35.28
868.965	39.49
869.133	29.16
869.3	30.19
869.468	32.01
869.636	17.21
869.803	25.78
869.971	39.61
870.138	44.46
870.306	35.78
870.473	35.66
870.641	23.66
870.808	36.41
870.975	30.73
871.143	27.35
871.31	7.13
871.478	20.43
871.645	18.07
871.812	-0.78
871.98	-6.4
872.147	-16.18
872.314	0.29
872.482	0.83
872.649	-10.15
872.816	6.7
872.983	16.61
873.15	30.15
873.318	13.11
873.485	6.07
873.652	6.68
873.819	10.86
873.986	25.36
874.153	25.54
874.32	22.55
874.487	17.12
874.654	15.22
874.821	8.25
874.988	10.64
875.155	22.82
875.322	29.06
875.489	25.33
875.656	36.64
875.823	31.61
875.99	25.2
876.157	27.68
876.324	37.19
876.49	29.43
876.657	30.61
876.824	24.08
876.991	8.38
877.157	9.96
877.324	11.21
877.491	9.5
877.658	15.29
877.824	19.65
877.991	22.59
878.157	-3.55
878.324	3.38
878.491	-15.4
878.657	13.79
878.824	41.58
878.99	29.6
879.157	8.17
879.323	14.11
879.49	15.59
879.656	10.12
879.823	7.64
879.989	16.03
880.156	12.71
880.322	18.58
880.488	7.76
880.655	13.51
880.821	16.15
880.987	26.35
881.154	23.96
881.32	27.8
881.486	31.1
881.652	39.68
881.819	37.66
881.985	38.52
882.151	40.16
882.317	43.91
882.483	43.84
882.649	43.32
882.816	43.96
882.982	43.55
883.148	41.99
883.314	40.44
883.48	39.2
883.646	41.26
883.812	41
883.978	41.64
884.144	40.64
884.31	39.48
884.476	39.71
884.642	39.45
884.807	40.27
884.973	38.84
885.139	38.74
885.305	38.09
885.471	37.74
885.637	38.37
885.802	35.52
885.968	35.58
886.134	35.61
886.3	36.89
886.465	32.52
886.631	32.87
886.797	32.43
886.962	32.96
887.128	32.6
887.293	28.56
887.459	26.53
887.625	29.37
887.79	21.37
887.956	17.07
888.121	9.97
888.287	15.24
888.452	7.15
888.618	1.6
888.783	-3.54
