Data from CB_040_Reflection_21-50-10-373.txt Node
Date: Wed Nov 11 21:50:10 EST 2015
User: robert
Spectrometer: USB4E03001
Autoset integration time: false
Trigger mode: 4
Integration Time (sec): 1.000000E-1
Scans to average: 15
Electric dark correction enabled: true
Nonlinearity correction enabled: false
Boxcar width: 5
Stray light correction enabled: false
XAxis mode: Wavelengths
Stop averaging: false
Number of Pixels in Spectrum: 3648
>>>>>Begin Spectral Data<<<<<
177.566	-254.11
177.785	-2025
178.005	315.16
178.225	416.38
178.445	43.53
178.665	27.69
178.885	467.85
179.105	-113.39
179.324	-82.95
179.544	12.13
179.764	-59.23
179.984	-26.85
180.204	7.46
180.423	30.07
180.643	33.62
180.863	59.66
181.083	60.61
181.302	70.09
181.522	62.44
181.742	61.56
181.961	71.56
182.181	78.62
182.401	81.66
182.621	69.37
182.84	45.58
183.06	46.67
183.279	34.77
183.499	46.16
183.719	30.9
183.938	42.23
184.158	47.77
184.377	46.83
184.597	60.16
184.816	63.77
185.036	52.54
185.256	70.63
185.475	84.57
185.695	64.22
185.914	28.35
186.134	70.46
186.353	22.04
186.572	-21.7
186.792	-48.13
187.011	-81.05
187.231	-71.72
187.45	-100.82
187.67	-95.98
187.889	-57.73
188.108	-2.71
188.328	1.99
188.547	-3.45
188.766	3.25
188.986	20.33
189.205	18.84
189.424	33.17
189.644	11.17
189.863	19.24
190.082	22.62
190.302	27.37
190.521	29.98
190.74	27.22
190.959	29.84
191.178	28.54
191.398	21.26
191.617	29.84
191.836	27.19
192.055	37.94
192.274	29.9
192.494	20.67
192.713	4.7
192.932	14.45
193.151	22.19
193.37	21.22
193.589	30.99
193.808	58.21
194.027	42.03
194.246	34.29
194.465	40.36
194.685	44.57
194.904	64.98
195.123	76.92
195.342	69.32
195.561	59.24
195.78	55.95
195.999	61.09
196.218	43.68
196.436	43.91
196.655	70.01
196.874	72.14
197.093	89.4
197.312	61.6
197.531	49.39
197.75	46.48
197.969	52.72
198.188	45.41
198.407	44.76
198.625	50.67
198.844	49.48
199.063	48.05
199.282	53.16
199.501	37.27
199.719	45.21
199.938	70.41
200.157	130.18
200.376	94.27
200.594	152.48
200.813	111.43
201.032	90.96
201.251	135.08
201.469	111.84
201.688	96.3
201.907	85.71
202.125	60.28
202.344	50.21
202.563	51.24
202.781	32.5
203	16.61
203.218	2.41
203.437	28.93
203.656	40.57
203.874	35.41
204.093	28.1
204.311	23.14
204.53	27.34
204.748	34.89
204.967	44.17
205.185	50.85
205.404	67.7
205.622	89.76
205.841	81.33
206.059	48.4
206.278	56.02
206.496	65.8
206.715	69.98
206.933	65.37
207.151	56.13
207.37	45.84
207.588	38.21
207.806	29.51
208.025	26.26
208.243	12.18
208.461	34.87
208.68	29.88
208.898	14.81
209.116	12.68
209.335	1.45
209.553	-3.81
209.771	-2.59
209.989	10.49
210.208	3.19
210.426	-3.49
210.644	22.23
210.862	-7.01
211.081	27.2
211.299	64.39
211.517	89.56
211.735	92.15
211.953	122.44
212.171	123.26
212.39	131.65
212.608	120.17
212.826	111.48
213.044	102.75
213.262	108.58
213.48	116.63
213.698	83.95
213.916	87.11
214.134	83.06
214.352	53.42
214.57	27.14
214.788	-4.9
215.006	4.97
215.224	2.56
215.442	-22.28
215.66	-30.44
215.878	-0.62
216.096	24.07
216.314	-1.83
216.532	-0.4
216.75	0.72
216.968	32.59
217.185	30.89
217.403	30.45
217.621	30.7
217.839	22.59
218.057	22.38
218.275	23.3
218.492	21.48
218.71	33.2
218.928	29.8
219.146	32.65
219.363	15.69
219.581	20.38
219.799	4.21
220.017	25.85
220.234	16.29
220.452	16
220.67	18.83
220.887	2.23
221.105	-30.34
221.323	-55.63
221.54	-43.36
221.758	-10.2
221.976	-1.72
222.193	14.97
222.411	4.7
222.629	9.73
222.846	8.02
223.064	-4.3
223.281	24.12
223.499	25.71
223.716	31.56
223.934	34.12
224.151	15.41
224.369	6.73
224.586	0.65
224.804	-5.31
225.021	-8.96
225.239	-5.7
225.456	1.62
225.674	-4.9
225.891	15.96
226.108	20.75
226.326	3.5
226.543	11.12
226.76	16.63
226.978	9.52
227.195	8.56
227.413	16.27
227.63	21.01
227.847	13.75
228.064	11.61
228.282	6.02
228.499	4.16
228.716	10.76
228.934	10.27
229.151	7.74
229.368	7.86
229.585	8.83
229.802	7.03
230.02	5.69
230.237	9.12
230.454	8.54
230.671	6.81
230.888	6.34
231.105	7.23
231.323	9.72
231.54	13.48
231.757	15.27
231.974	14.77
232.191	15.17
232.408	15.35
232.625	15.11
232.842	13.7
233.059	13.54
233.276	17.3
233.493	9.55
233.71	13.4
233.927	9.83
234.144	8.71
234.361	10.21
234.578	10.78
234.795	8.4
235.012	6.91
235.229	10.69
235.446	15.77
235.663	12.63
235.879	13.64
236.096	7.79
236.313	8.36
236.53	9.92
236.747	11.95
236.964	15.27
237.181	17.46
237.397	15.75
237.614	16.07
237.831	13.6
238.048	19.35
238.264	21.82
238.481	20.36
238.698	21.76
238.915	22.44
239.131	15.42
239.348	13.57
239.565	13.72
239.781	12.79
239.998	12.84
240.215	13.7
240.431	10.56
240.648	10.41
240.865	8.89
241.081	10.9
241.298	11.13
241.514	10.57
241.731	11.94
241.947	10.53
242.164	11.16
242.38	8.45
242.597	8.53
242.814	7.51
243.03	8.94
243.246	10
243.463	8.79
243.679	8.17
243.896	11.53
244.112	10.84
244.329	13.26
244.545	13.73
244.762	17.01
244.978	16.82
245.194	16.38
245.411	13.46
245.627	13.21
245.843	13.43
246.06	13.23
246.276	12.41
246.492	11
246.709	9.18
246.925	10
247.141	10.12
247.357	10.61
247.574	11.84
247.79	12.26
248.006	12.73
248.222	12.97
248.439	12.65
248.655	13.31
248.871	14.09
249.087	15.02
249.303	15.51
249.519	14.51
249.736	13.94
249.952	12.33
250.168	12.91
250.384	12.92
250.6	11.65
250.816	12.39
251.032	9.84
251.248	11.37
251.464	9.55
251.68	9.93
251.896	12.2
252.112	12.44
252.328	11.49
252.544	10.26
252.76	11.16
252.976	11.93
253.192	10.63
253.408	11.81
253.624	10.85
253.84	10.9
254.056	10.73
254.272	13.51
254.487	13.47
254.703	16.38
254.919	18.14
255.135	17.38
255.351	17.41
255.567	20.46
255.782	19.94
255.998	18.99
256.214	20.78
256.43	20.4
256.646	17.53
256.861	16.07
257.077	14.77
257.293	12.18
257.508	13.16
257.724	12.21
257.94	12.24
258.155	11.89
258.371	11.54
258.587	12.85
258.802	12.31
259.018	10.9
259.234	11
259.449	11.64
259.665	11.79
259.88	11.47
260.096	11.5
260.312	10.12
260.527	10.7
260.743	10.65
260.958	9.29
261.174	8.81
261.389	9.32
261.605	9.69
261.82	9.17
262.036	10.09
262.251	9.94
262.466	10.84
262.682	12.6
262.897	11.26
263.113	10.87
263.328	10.88
263.543	10.64
263.759	9.63
263.974	9.58
264.189	10.15
264.405	9.72
264.62	7.8
264.835	6.94
265.051	6.45
265.266	5.59
265.481	7.18
265.696	8.24
265.912	10.21
266.127	11.46
266.342	11.66
266.557	12.24
266.773	10.16
266.988	11.12
267.203	9.56
267.418	9.2
267.633	10.96
267.848	10.85
268.064	9.72
268.279	9.22
268.494	8.66
268.709	8.42
268.924	8.57
269.139	9.94
269.354	10.83
269.569	11.39
269.784	12.17
269.999	11.22
270.214	10.79
270.429	12.16
270.644	12.8
270.859	13.52
271.074	12.54
271.289	12.98
271.504	13.95
271.719	12.92
271.934	12.86
272.149	12.09
272.363	11.92
272.578	11.84
272.793	12.09
273.008	11.27
273.223	10.32
273.438	11
273.653	10.88
273.867	10.19
274.082	10.33
274.297	11.2
274.512	11.75
274.726	11.37
274.941	12.91
275.156	12.88
275.371	12.3
275.585	12.46
275.8	11.64
276.015	10.28
276.229	10.98
276.444	10.9
276.659	10.27
276.873	9.13
277.088	10.48
277.302	9.09
277.517	7.69
277.732	8.75
277.946	7.52
278.161	9.04
278.375	9.56
278.59	8.8
278.804	8.74
279.019	8.62
279.233	9.66
279.448	8.4
279.662	9.54
279.877	10.77
280.091	11.4
280.306	14.02
280.52	13.02
280.735	14.29
280.949	13.91
281.163	13.96
281.378	13.58
281.592	12.55
281.806	13.93
282.021	11.39
282.235	10.69
282.449	10.01
282.664	7.45
282.878	6.85
283.092	5.91
283.307	6.79
283.521	6.06
283.735	6.54
283.949	8.32
284.164	7.58
284.378	9.21
284.592	10.25
284.806	10.99
285.02	11.11
285.234	11.82
285.449	11.48
285.663	10.27
285.877	10.13
286.091	10.56
286.305	8.97
286.519	8.72
286.733	8.67
286.947	8.57
287.161	7.4
287.375	8.53
287.589	9.07
287.803	9.29
288.017	9.98
288.231	10.77
288.445	10.44
288.659	11.26
288.873	12.4
289.087	12.4
289.301	11.91
289.515	13.14
289.729	13
289.943	12
290.157	11.97
290.371	11.27
290.584	11.51
290.798	12.12
291.012	12.36
291.226	12.89
291.44	12.47
291.654	11.8
291.867	10.83
292.081	10.33
292.295	10.69
292.509	10.62
292.722	11.44
292.936	10.56
293.15	9.66
293.364	10.14
293.577	8.41
293.791	8.89
294.005	8.61
294.218	10.47
294.432	11.21
294.645	10.99
294.859	9.52
295.073	9.12
295.286	9.75
295.5	9.15
295.713	8.62
295.927	8.02
296.14	7.97
296.354	8.66
296.568	7.74
296.781	7.89
296.994	8.72
297.208	10.54
297.421	9.93
297.635	9.5
297.848	10.15
298.062	9.75
298.275	10.76
298.489	11.39
298.702	11.57
298.915	12.42
299.129	13.58
299.342	12.22
299.555	12.31
299.769	13.54
299.982	14.67
300.195	14.64
300.409	15.76
300.622	16.06
300.835	14.58
301.048	13.02
301.262	11.82
301.475	10.35
301.688	11.92
301.901	10.44
302.115	10.7
302.328	10.11
302.541	10.86
302.754	9.6
302.967	9.37
303.18	10.72
303.393	12.55
303.607	12.49
303.82	12.35
304.033	11.45
304.246	11.11
304.459	11.27
304.672	11.31
304.885	11.05
305.098	11.86
305.311	11.65
305.524	11.23
305.737	10.9
305.95	11.41
306.163	11.16
306.376	12.33
306.589	13.21
306.802	12.99
307.015	14.34
307.228	13.75
307.44	13.9
307.653	15.38
307.866	15.63
308.079	15.98
308.292	15.07
308.505	16.13
308.718	16.19
308.93	16.25
309.143	15.74
309.356	14.83
309.569	14.89
309.781	15.16
309.994	13.88
310.207	14.04
310.42	14.32
310.632	16.12
310.845	16.06
311.058	15.56
311.27	15.89
311.483	15.88
311.696	16.02
311.908	16.05
312.121	15.65
312.333	15.81
312.546	15.53
312.759	15.33
312.971	13.45
313.184	12.44
313.396	12.51
313.609	12.77
313.821	13.54
314.034	13.2
314.246	13.23
314.459	13.42
314.671	13.8
314.884	13.96
315.096	13.98
315.309	13.71
315.521	13.58
315.733	13.36
315.946	12.02
316.158	11.04
316.371	11.05
316.583	11.64
316.795	12.79
317.008	12.41
317.22	13.23
317.432	13.92
317.644	14.39
317.857	15.42
318.069	16.29
318.281	15.77
318.494	17.01
318.706	18.1
318.918	17.94
319.13	17.28
319.342	17.17
319.555	16.72
319.767	16.06
319.979	16.78
320.191	16.53
320.403	15.64
320.615	16.98
320.827	15.02
321.039	14.55
321.252	13.95
321.464	13.86
321.676	13.78
321.888	14.1
322.1	14.09
322.312	13.44
322.524	14.45
322.736	14.95
322.948	14.47
323.16	15.66
323.372	15.12
323.584	14.17
323.796	14.62
324.007	14.94
324.219	15.69
324.431	15.01
324.643	15.66
324.855	14.86
325.067	14.43
325.279	15.5
325.491	16.43
325.702	16.33
325.914	17.84
326.126	17.2
326.338	15.96
326.55	15.29
326.761	16.6
326.973	16.13
327.185	17.07
327.396	17.64
327.608	16.86
327.82	16.83
328.032	16.99
328.243	16.76
328.455	17.97
328.666	18.77
328.878	17.67
329.09	17.27
329.301	17.14
329.513	15.98
329.725	14.72
329.936	15.73
330.148	15.46
330.359	15.12
330.571	15.62
330.782	13.75
330.994	14.23
331.205	15.58
331.417	15.93
331.628	16.92
331.84	17.27
332.051	18.38
332.262	17.18
332.474	17.53
332.685	18.32
332.897	18.28
333.108	20.67
333.319	21.82
333.531	22.2
333.742	21.98
333.953	21.7
334.165	21.82
334.376	22.37
334.587	22.67
334.799	22.14
335.01	22.53
335.221	22.35
335.432	21.36
335.644	20.27
335.855	19.92
336.066	20.06
336.277	20.28
336.488	20.56
336.7	19.89
336.911	19.99
337.122	20.27
337.333	20.24
337.544	21.07
337.755	21.48
337.966	22.17
338.177	21.85
338.388	21.14
338.599	21.31
338.811	20.34
339.022	20.57
339.233	20.27
339.444	20.37
339.655	20.16
339.866	19.68
340.076	19.16
340.287	18.98
340.498	19.16
340.709	20.17
340.92	20.01
341.131	20.06
341.342	20.25
341.553	20.75
341.764	19.75
341.975	19.73
342.185	19.6
342.396	19.6
342.607	20.09
342.818	20.09
343.029	20
343.239	20.39
343.45	20.83
343.661	20.46
343.872	19.82
344.082	19.81
344.293	19.69
344.504	19.41
344.714	19.25
344.925	18.51
345.136	18.4
345.346	18.85
345.557	18.32
345.768	18.25
345.978	19.42
346.189	20.4
346.399	20.11
346.61	19.85
346.821	20
347.031	20.52
347.242	20.75
347.452	20.82
347.663	20.33
347.873	20.65
348.084	20.76
348.294	20.18
348.504	20.32
348.715	21
348.925	21.72
349.136	20.62
349.346	19.5
349.557	20.03
349.767	20.1
349.977	19.88
350.188	19.4
350.398	19.39
350.608	19.31
350.819	18.65
351.029	18.87
351.239	17.54
351.449	18.43
351.66	18.26
351.87	18.1
352.08	18.26
352.29	18.24
352.501	19.08
352.711	19.79
352.921	19.18
353.131	19.63
353.341	19.53
353.552	20.46
353.762	19.96
353.972	21.05
354.182	20.29
354.392	20.45
354.602	19.9
354.812	18.78
355.022	18.04
355.232	18.19
355.442	17.82
355.652	17.69
355.862	17.49
356.072	17.79
356.282	17.24
356.492	17.8
356.702	17.3
356.912	17.18
357.122	17.55
357.332	18.84
357.542	19.1
357.752	19.04
357.962	18.84
358.171	19.18
358.381	19.53
358.591	19.19
358.801	18.37
359.011	18.02
359.221	18.43
359.43	18.88
359.64	17.21
359.85	17.39
360.06	17.02
360.269	16.96
360.479	16.59
360.689	16.6
360.899	17.02
361.108	17.5
361.318	17.88
361.528	18.01
361.737	17.19
361.947	17.33
362.156	16.7
362.366	17.05
362.576	16.93
362.785	17.26
362.995	17.02
363.204	17.12
363.414	16.66
363.623	16.43
363.833	15.9
364.042	15.66
364.252	16.33
364.461	16.52
364.671	16.52
364.88	16.89
365.09	16.43
365.299	16.61
365.509	16.15
365.718	16.88
365.927	17.07
366.137	17.22
366.346	18.13
366.555	17.59
366.765	17.99
366.974	17.87
367.183	17.48
367.393	17.7
367.602	17.78
367.811	18.35
368.021	17.98
368.23	17.76
368.439	17.83
368.648	17.85
368.857	17.53
369.067	16.75
369.276	16.67
369.485	16.97
369.694	17.07
369.903	17.09
370.112	16.64
370.321	16.46
370.531	16.56
370.74	16.64
370.949	16.54
371.158	16.46
371.367	17.19
371.576	17.55
371.785	17.38
371.994	17.36
372.203	16.7
372.412	16.88
372.621	16.94
372.83	16.42
373.039	16.4
373.248	15.84
373.457	16.18
373.666	15.68
373.874	14.92
374.083	14.63
374.292	13.88
374.501	14.09
374.71	13.49
374.919	13.39
375.128	13.93
375.336	13.54
375.545	13.06
375.754	13.12
375.963	13.39
376.171	13.4
376.38	12.85
376.589	13.05
376.798	12.69
377.006	12.76
377.215	13.02
377.424	13.07
377.632	13.07
377.841	13.56
378.05	13.49
378.258	13.06
378.467	13.27
378.675	14.02
378.884	13.94
379.093	13.77
379.301	13.87
379.51	13.58
379.718	13.33
379.927	13.43
380.135	13.31
380.344	12.82
380.552	12.76
380.761	12
380.969	11.62
381.177	11.86
381.386	11.86
381.594	12.08
381.803	11.88
382.011	11.87
382.219	11.93
382.428	12.03
382.636	12.62
382.845	12.93
383.053	13.23
383.261	13.19
383.469	12.54
383.678	12.78
383.886	12.27
384.094	12.38
384.302	12.7
384.511	12.8
384.719	12.96
384.927	12.67
385.135	12.83
385.343	12.74
385.552	13.07
385.76	13.49
385.968	13.09
386.176	13.05
386.384	12.94
386.592	12.58
386.8	12.41
387.008	12.4
387.216	12.33
387.424	12.02
387.633	12.23
387.841	11.92
388.049	11.31
388.257	11.74
388.465	11.94
388.672	12.15
388.88	12.17
389.088	11.91
389.296	11.63
389.504	11.37
389.712	11.23
389.92	10.96
390.128	10.96
390.336	11.4
390.544	11.22
390.751	11.25
390.959	11.1
391.167	11.1
391.375	11.4
391.583	11.61
391.79	11.49
391.998	11.27
392.206	11.46
392.414	11.53
392.621	11.13
392.829	11.15
393.037	11.04
393.244	10.7
393.452	10.5
393.66	10.48
393.867	10.26
394.075	10.38
394.283	10.3
394.49	10.18
394.698	9.99
394.905	10.2
395.113	10.06
395.32	9.73
395.528	10.17
395.735	10.01
395.943	9.86
396.15	9.81
396.358	9.83
396.565	10.4
396.773	10.25
396.98	10.48
397.188	10.47
397.395	10.45
397.602	10.88
397.81	11
398.017	11.16
398.225	10.79
398.432	10.78
398.639	10.77
398.847	10.62
399.054	10.64
399.261	10.18
399.468	10.38
399.676	10.51
399.883	10.28
400.09	9.34
400.297	9.07
400.505	9.18
400.712	8.92
400.919	8.81
401.126	8.72
401.333	8.68
401.54	8.79
401.748	8.66
401.955	8.76
402.162	8.95
402.369	9.22
402.576	9.53
402.783	9.68
402.99	9.51
403.197	9.28
403.404	9.09
403.611	9.15
403.818	9.21
404.025	9.28
404.232	9.44
404.439	9.23
404.646	9.09
404.853	8.97
405.06	8.86
405.267	9.2
405.474	9.16
405.681	9.21
405.887	9.45
406.094	9.73
406.301	9.5
406.508	9.09
406.715	9.07
406.922	9.8
407.128	9.74
407.335	9.62
407.542	9.46
407.749	9.79
407.955	9.48
408.162	9.1
408.369	8.72
408.575	8.78
408.782	9.01
408.989	9.17
409.195	8.44
409.402	8.24
409.609	8.55
409.815	8.65
410.022	8.81
410.228	8.96
410.435	9.22
410.642	9.4
410.848	9.36
411.055	9.46
411.261	9.4
411.468	9.59
411.674	9.91
411.881	9.75
412.087	9.58
412.294	9.49
412.5	9.64
412.706	9.43
412.913	9.21
413.119	9.31
413.326	9
413.532	8.99
413.738	9.11
413.945	8.59
414.151	8.59
414.357	8.68
414.564	8.53
414.77	8.78
414.976	8.82
415.182	8.9
415.389	8.74
415.595	8.81
415.801	8.72
416.007	8.64
416.214	8.73
416.42	8.9
416.626	8.68
416.832	8.66
417.038	8.5
417.244	8.37
417.45	8.33
417.657	8.41
417.863	8.44
418.069	8.36
418.275	8.52
418.481	8.44
418.687	8.43
418.893	8.54
419.099	8.71
419.305	8.52
419.511	8.49
419.717	8.55
419.923	8.54
420.129	8.54
420.335	8.65
420.541	8.59
420.746	8.6
420.952	8.41
421.158	8.28
421.364	8.01
421.57	8
421.776	8.1
421.982	8.07
422.187	8.02
422.393	8.01
422.599	7.94
422.805	7.95
423.01	7.96
423.216	7.98
423.422	8.12
423.628	8.18
423.833	8.21
424.039	8.24
424.245	8.22
424.45	8.4
424.656	8.37
424.862	8.29
425.067	8.38
425.273	8.47
425.478	8.43
425.684	8.41
425.889	8.33
426.095	8.4
426.301	8.17
426.506	8.15
426.712	7.8
426.917	7.62
427.123	7.6
427.328	7.29
427.533	7.13
427.739	7.24
427.944	7.25
428.15	7.45
428.355	7.42
428.561	7.59
428.766	7.78
428.971	7.99
429.177	8.23
429.382	8.29
429.587	8.34
429.793	8.52
429.998	8.54
430.203	8.28
430.408	8.28
430.614	8.37
430.819	8.37
431.024	8.23
431.229	8.36
431.434	8.27
431.64	8.48
431.845	8.64
432.05	8.65
432.255	8.5
432.46	8.66
432.665	8.37
432.87	8.42
433.076	8.59
433.281	8.52
433.486	8.26
433.691	8.2
433.896	8.08
434.101	8.04
434.306	8.03
434.511	8.04
434.716	8.01
434.921	8.22
435.126	8
435.331	7.72
435.535	7.69
435.74	7.61
435.945	7.58
436.15	7.65
436.355	7.63
436.56	7.68
436.765	7.6
436.97	7.71
437.174	7.69
437.379	7.83
437.584	7.96
437.789	8.14
437.993	8.42
438.198	8.51
438.403	8.42
438.608	8.32
438.812	8.24
439.017	8.34
439.222	8.34
439.426	8.28
439.631	8.15
439.836	8.2
440.04	7.99
440.245	7.89
440.45	7.86
440.654	7.98
440.859	7.98
441.063	8.08
441.268	8.1
441.472	8.05
441.677	8.08
441.881	8.24
442.086	8.19
442.29	8.26
442.495	8.33
442.699	8.42
442.904	8.3
443.108	8.46
443.312	8.44
443.517	8.47
443.721	8.54
443.925	8.46
444.13	8.41
444.334	8.31
444.538	8.28
444.743	8.11
444.947	7.89
445.151	7.96
445.356	7.92
445.56	7.85
445.764	7.96
445.968	7.93
446.173	7.99
446.377	7.91
446.581	8.07
446.785	8.08
446.989	8.14
447.193	8.39
447.398	8.23
447.602	8
447.806	7.97
448.01	7.84
448.214	7.87
448.418	7.8
448.622	7.73
448.826	7.45
449.03	7.54
449.234	7.55
449.438	7.29
449.642	7.44
449.846	7.74
450.05	7.77
450.254	7.64
450.458	7.7
450.662	7.86
450.866	7.73
451.069	7.8
451.273	7.52
451.477	7.39
451.681	7.51
451.885	7.49
452.089	7.12
452.292	7.13
452.496	7.28
452.7	7.34
452.904	7.35
453.107	7.61
453.311	7.64
453.515	7.76
453.719	8
453.922	7.96
454.126	7.95
454.33	8.24
454.533	8.22
454.737	8.36
454.94	8.24
455.144	8.05
455.348	8.11
455.551	8.16
455.755	8.19
455.958	8.23
456.162	8.27
456.365	8.46
456.569	8.5
456.772	8.55
456.976	8.27
457.179	8.23
457.383	8.26
457.586	8.13
457.79	8.02
457.993	7.93
458.196	7.69
458.4	7.58
458.603	7.4
458.807	7.4
459.01	7.31
459.213	7.33
459.417	7.38
459.62	7.48
459.823	7.54
460.026	7.56
460.23	7.63
460.433	7.72
460.636	7.71
460.839	7.79
461.042	7.69
461.246	7.73
461.449	7.77
461.652	7.73
461.855	7.67
462.058	7.55
462.261	7.72
462.464	7.75
462.668	7.73
462.871	7.88
463.074	7.52
463.277	7.56
463.48	7.9
463.683	8.02
463.886	7.79
464.089	7.7
464.292	7.7
464.495	7.45
464.698	7.36
464.901	7.34
465.104	7.37
465.306	7.68
465.509	7.63
465.712	7.38
465.915	7.31
466.118	7.41
466.321	7.48
466.524	7.57
466.726	7.67
466.929	7.86
467.132	7.72
467.335	7.68
467.538	7.71
467.74	7.9
467.943	7.89
468.146	7.84
468.348	7.87
468.551	7.75
468.754	7.8
468.956	7.79
469.159	7.63
469.362	7.71
469.564	7.79
469.767	7.75
469.969	7.71
470.172	7.56
470.375	7.65
470.577	7.69
470.78	7.76
470.982	7.76
471.185	8
471.387	8.17
471.59	8.3
471.792	8.1
471.995	7.89
472.197	7.88
472.399	7.62
472.602	7.53
472.804	7.67
473.007	7.7
473.209	7.69
473.411	7.36
473.614	7.14
473.816	6.96
474.018	7.19
474.22	7.28
474.423	7.18
474.625	7.49
474.827	7.76
475.03	7.72
475.232	7.72
475.434	7.56
475.636	7.54
475.838	7.65
476.04	7.57
476.243	7.38
476.445	7.22
476.647	7.22
476.849	7.48
477.051	7.21
477.253	7.12
477.455	7.13
477.657	7.05
477.859	7.19
478.061	7.32
478.263	7.42
478.465	7.52
478.667	7.58
478.869	7.58
479.071	7.4
479.273	7.58
479.475	7.71
479.677	7.66
479.879	7.8
480.081	7.68
480.283	7.55
480.485	7.59
480.686	7.43
480.888	7.51
481.09	7.66
481.292	7.74
481.494	7.69
481.695	7.63
481.897	7.65
482.099	7.62
482.301	7.65
482.502	7.59
482.704	7.53
482.906	7.5
483.107	7.52
483.309	7.38
483.511	7.36
483.712	7.39
483.914	7.37
484.115	7.34
484.317	7.34
484.519	7.34
484.72	7.37
484.922	7.33
485.123	7.42
485.325	7.4
485.526	7.45
485.728	7.42
485.929	7.35
486.131	7.36
486.332	7.44
486.534	7.48
486.735	7.5
486.936	7.44
487.138	7.53
487.339	7.41
487.541	7.47
487.742	7.5
487.943	7.48
488.144	7.43
488.346	7.4
488.547	7.39
488.748	7.33
488.95	7.24
489.151	7.22
489.352	7.18
489.553	7.23
489.755	7.15
489.956	7.16
490.157	7.25
490.358	7.32
490.559	7.26
490.76	7.22
490.961	7.25
491.163	7.36
491.364	7.38
491.565	7.42
491.766	7.41
491.967	7.48
492.168	7.43
492.369	7.34
492.57	7.29
492.771	7.41
492.972	7.44
493.173	7.42
493.374	7.47
493.575	7.55
493.776	7.48
493.976	7.54
494.177	7.43
494.378	7.4
494.579	7.49
494.78	7.53
494.981	7.36
495.182	7.24
495.382	7.43
495.583	7.34
495.784	7.33
495.985	7.49
496.185	7.51
496.386	7.52
496.587	7.49
496.788	7.51
496.988	7.37
497.189	7.42
497.39	7.46
497.59	7.39
497.791	7.37
497.992	7.32
498.192	7.3
498.393	7.23
498.593	7.38
498.794	7.41
498.994	7.3
499.195	7.46
499.395	7.53
499.596	7.52
499.796	7.36
499.997	7.6
500.197	7.68
500.398	7.68
500.598	7.55
500.799	7.53
500.999	7.56
501.199	7.75
501.4	7.79
501.6	7.89
501.801	7.99
502.001	8.12
502.201	7.93
502.402	7.78
502.602	7.86
502.802	8.13
503.002	8.08
503.203	8.09
503.403	8.05
503.603	8.16
503.803	8.29
504.003	8.2
504.204	8.41
504.404	8.5
504.604	8.57
504.804	8.67
505.004	8.79
505.204	8.82
505.404	8.96
505.604	8.91
505.804	9.01
506.005	8.85
506.205	9.01
506.405	8.95
506.605	8.86
506.805	9.05
507.005	9.01
507.204	8.92
507.404	9.04
507.604	9.06
507.804	9.17
508.004	9.05
508.204	9.05
508.404	9.14
508.604	9.11
508.804	9.33
509.003	9.5
509.203	9.45
509.403	9.45
509.603	9.38
509.803	9.43
510.002	9.41
510.202	9.5
510.402	9.63
510.602	9.72
510.801	9.76
511.001	9.76
511.201	9.56
511.4	9.62
511.6	9.77
511.8	9.84
511.999	9.91
512.199	9.99
512.398	10.09
512.598	10.14
512.797	10.1
512.997	10.3
513.197	10.27
513.396	10.37
513.596	10.56
513.795	10.49
513.994	10.62
514.194	10.57
514.393	10.53
514.593	10.47
514.792	10.53
514.992	10.62
515.191	10.51
515.39	10.57
515.59	10.7
515.789	10.67
515.988	10.74
516.188	10.67
516.387	10.82
516.586	11.07
516.786	11.07
516.985	11.23
517.184	11.15
517.383	11.35
517.582	11.27
517.782	11.21
517.981	11.26
518.18	11.22
518.379	11.39
518.578	11.53
518.777	11.53
518.976	11.74
519.176	11.69
519.375	11.83
519.574	11.8
519.773	12.02
519.972	12.07
520.171	12.04
520.37	12.22
520.569	12.15
520.768	12.1
520.967	12.25
521.166	12.2
521.365	12.33
521.564	12.48
521.762	12.55
521.961	12.58
522.16	12.73
522.359	12.8
522.558	12.75
522.757	12.8
522.956	12.93
523.154	12.89
523.353	12.97
523.552	13.08
523.751	13.1
523.949	13.16
524.148	13.02
524.347	13.13
524.546	13.23
524.744	13.29
524.943	13.38
525.142	13.37
525.34	13.44
525.539	13.48
525.737	13.49
525.936	13.39
526.135	13.54
526.333	13.74
526.532	13.73
526.73	13.76
526.929	13.93
527.127	13.99
527.326	13.99
527.524	14.12
527.723	14.16
527.921	14.17
528.12	14.28
528.318	14.24
528.516	14.23
528.715	14.27
528.913	14.3
529.112	14.31
529.31	14.3
529.508	14.36
529.707	14.33
529.905	14.35
530.103	14.37
530.301	14.37
530.5	14.4
530.698	14.48
530.896	14.6
531.094	14.69
531.293	14.74
531.491	14.89
531.689	14.93
531.887	14.92
532.085	15.12
532.283	15.14
532.481	15.27
532.68	15.28
532.878	15.29
533.076	15.31
533.274	15.36
533.472	15.41
533.67	15.48
533.868	15.58
534.066	15.74
534.264	15.65
534.462	15.75
534.66	15.72
534.858	15.81
535.056	15.87
535.253	15.99
535.451	16.1
535.649	16.11
535.847	16.21
536.045	16.27
536.243	16.27
536.441	16.33
536.638	16.37
536.836	16.49
537.034	16.52
537.232	16.76
537.43	16.73
537.627	16.79
537.825	16.89
538.023	16.83
538.22	16.83
538.418	17.01
538.616	16.99
538.813	17.12
539.011	17.16
539.209	17.27
539.406	17.1
539.604	17.21
539.801	17.22
539.999	17.3
540.196	17.46
540.394	17.52
540.591	17.46
540.789	17.65
540.986	17.6
541.184	17.55
541.381	17.61
541.579	17.73
541.776	17.64
541.974	17.6
542.171	17.65
542.368	17.69
542.566	17.79
542.763	17.89
542.96	17.84
543.158	17.87
543.355	18.02
543.552	18.05
543.75	18.1
543.947	18.23
544.144	18.41
544.341	18.41
544.539	18.4
544.736	18.21
544.933	18.28
545.13	18.41
545.327	18.64
545.524	18.67
545.722	18.68
545.919	18.66
546.116	18.72
546.313	18.74
546.51	18.91
546.707	19.09
546.904	19.43
547.101	19.43
547.298	19.56
547.495	19.5
547.692	19.65
547.889	19.79
548.086	19.95
548.283	19.98
548.48	20.11
548.677	20.1
548.874	20
549.07	19.95
549.267	19.93
549.464	19.94
549.661	20.21
549.858	20.35
550.055	20.43
550.251	20.45
550.448	20.68
550.645	20.75
550.842	20.7
551.038	20.8
551.235	20.85
551.432	21
551.628	21.08
551.825	20.92
552.022	20.68
552.218	20.57
552.415	20.69
552.612	20.69
552.808	20.67
553.005	20.86
553.201	20.92
553.398	20.89
553.594	20.9
553.791	20.8
553.987	20.93
554.184	21.08
554.38	21.27
554.577	21.36
554.773	21.46
554.97	21.72
555.166	21.8
555.362	21.88
555.559	22.03
555.755	21.84
555.952	22.04
556.148	22.12
556.344	22.17
556.541	22.18
556.737	22.18
556.933	22.24
557.129	22.16
557.326	22.23
557.522	22.3
557.718	22.4
557.914	22.85
558.11	23.08
558.307	23.15
558.503	23.24
558.699	23.39
558.895	23.33
559.091	23.45
559.287	23.57
559.483	23.51
559.679	23.44
559.876	23.45
560.072	23.45
560.268	23.31
560.464	23.49
560.66	23.53
560.856	23.33
561.052	23.43
561.247	23.36
561.443	23.17
561.639	23.23
561.835	23.51
562.031	23.43
562.227	23.47
562.423	23.35
562.619	23.12
562.815	23.12
563.01	23.34
563.206	23.47
563.402	23.74
563.598	24.01
563.793	23.98
563.989	23.98
564.185	24.21
564.381	24.29
564.576	24.36
564.772	24.7
564.968	24.67
565.163	24.67
565.359	24.43
565.555	24.34
565.75	24.33
565.946	24.31
566.141	24.3
566.337	24.28
566.532	24.3
566.728	24.5
566.923	24.45
567.119	24.76
567.314	25.03
567.51	25.17
567.705	25.13
567.901	25.19
568.096	25.46
568.292	25.49
568.487	25.57
568.682	25.54
568.878	25.46
569.073	25.41
569.268	25.4
569.464	25.26
569.659	25.53
569.854	25.56
570.05	25.73
570.245	25.79
570.44	25.89
570.635	25.94
570.831	26.08
571.026	26.3
571.221	26.4
571.416	26.46
571.611	26.44
571.806	26.52
572.002	26.61
572.197	26.54
572.392	26.38
572.587	26.24
572.782	26.15
572.977	26.16
573.172	26.14
573.367	25.98
573.562	25.87
573.757	25.9
573.952	25.89
574.147	25.9
574.342	26.03
574.537	26.11
574.732	26.23
574.927	26.48
575.121	26.52
575.316	26.53
575.511	26.75
575.706	26.77
575.901	26.9
576.096	26.76
576.29	26.93
576.485	26.92
576.68	27.04
576.875	27.19
577.069	26.96
577.264	26.94
577.459	27.05
577.654	27.07
577.848	27.01
578.043	26.93
578.238	27.01
578.432	27.04
578.627	26.99
578.821	27.05
579.016	27.15
579.21	27.13
579.405	27.14
579.6	27.07
579.794	27.03
579.989	27.23
580.183	27.41
580.378	27.32
580.572	27.05
580.766	27.15
580.961	27.48
581.155	27.25
581.35	27.63
581.544	27.79
581.738	27.77
581.933	28.1
582.127	28
582.321	27.61
582.516	27.77
582.71	28
582.904	27.82
583.099	27.27
583.293	27.47
583.487	27.17
583.681	27.27
583.875	27.12
584.07	27.13
584.264	27.39
584.458	27.8
584.652	27.5
584.846	27.24
585.04	27.35
585.234	27.41
585.428	27.23
585.623	27.57
585.817	27.32
586.011	27.5
586.205	27.18
586.399	27.01
586.593	27.29
586.787	27.51
586.981	27.66
587.174	27.88
587.368	27.99
587.562	28.12
587.756	28.01
587.95	28
588.144	28.41
588.338	28.58
588.532	28.81
588.725	28.61
588.919	28.92
589.113	29.19
589.307	28.96
589.501	29.24
589.694	29.36
589.888	29.29
590.082	29.47
590.275	29.37
590.469	29.1
590.663	28.78
590.856	28.85
591.05	28.73
591.244	28.71
591.437	28.76
591.631	28.74
591.824	28.61
592.018	28.84
592.212	28.75
592.405	28.71
592.599	28.93
592.792	28.96
592.986	29.12
593.179	29.4
593.372	29.57
593.566	29.72
593.759	29.64
593.953	29.88
594.146	29.94
594.339	29.91
594.533	29.7
594.726	29.65
594.92	29.61
595.113	29.43
595.306	29.1
595.499	28.79
595.693	28.89
595.886	28.89
596.079	28.75
596.272	28.57
596.466	28.7
596.659	28.79
596.852	28.98
597.045	29.24
597.238	29.33
597.431	29.37
597.624	29.53
597.818	29.5
598.011	29.56
598.204	29.75
598.397	29.81
598.59	29.73
598.783	29.76
598.976	29.83
599.169	29.82
599.362	29.81
599.555	30.27
599.748	30.08
599.941	30.43
600.134	30.6
600.326	30.51
600.519	30.97
600.712	31.28
600.905	31.26
601.098	31.3
601.291	31.36
601.483	31.17
601.676	30.64
601.869	30.8
602.062	30.4
602.255	30.34
602.447	30.36
602.64	30.14
602.833	30.1
603.025	30.18
603.218	30.14
603.411	30.17
603.603	30.19
603.796	30.54
603.989	30.67
604.181	30.77
604.374	30.74
604.566	30.58
604.759	30.64
604.951	30.66
605.144	30.61
605.336	30.61
605.529	30.53
605.721	30.62
605.914	30.52
606.106	30.46
606.299	30.64
606.491	30.64
606.683	30.81
606.876	30.92
607.068	30.72
607.26	30.98
607.453	30.87
607.645	30.99
607.837	31.22
608.03	30.94
608.222	30.78
608.414	30.43
608.606	30.36
608.799	30.44
608.991	30.29
609.183	30.46
609.375	30.14
609.567	30.1
609.759	29.97
609.952	29.83
610.144	30.03
610.336	29.96
610.528	29.87
610.72	29.9
610.912	29.88
611.104	29.69
611.296	29.59
611.488	29.61
611.68	29.67
611.872	29.75
612.064	29.56
612.256	29.33
612.448	29.32
612.64	29.3
612.832	29.05
613.023	28.88
613.215	28.78
613.407	29
613.599	29.17
613.791	29.42
613.983	29.77
614.174	29.93
614.366	30.36
614.558	30.84
614.75	31.2
614.941	31.74
615.133	31.7
615.325	31.88
615.516	31.75
615.708	31.68
615.9	31.63
616.091	31.23
616.283	31.41
616.475	31.36
616.666	31.19
616.858	31.15
617.049	31.13
617.241	31.32
617.432	31.27
617.624	31.24
617.815	31.3
618.007	31.26
618.198	31.64
618.39	31.47
618.581	31.39
618.773	31.48
618.964	31.27
619.155	30.97
619.347	31.01
619.538	31.49
619.729	31.62
619.921	31.9
620.112	31.91
620.303	31.74
620.494	31.7
620.686	31.68
620.877	31.81
621.068	32.3
621.259	32.61
621.451	32.71
621.642	32.43
621.833	32.96
622.024	33.03
622.215	33.04
622.406	33.1
622.597	33.25
622.788	33.2
622.98	33.21
623.171	32.84
623.362	32.88
623.553	32.82
623.744	32.87
623.935	32.41
624.126	32.05
624.317	31.94
624.508	32.01
624.698	31.88
624.889	32.27
625.08	31.98
625.271	32.06
625.462	31.85
625.653	31.78
625.844	31.62
626.034	31.71
626.225	31.98
626.416	32.08
626.607	32.03
626.798	31.99
626.988	31.7
627.179	31.73
627.37	31.82
627.56	31.89
627.751	31.86
627.942	32.28
628.132	32.15
628.323	32.14
628.514	32.19
628.704	32.2
628.895	32.32
629.085	32.6
629.276	32.66
629.466	32.46
629.657	32.69
629.847	32.97
630.038	32.54
630.228	32.68
630.419	32.59
630.609	32.56
630.8	32.47
630.99	32.31
631.181	31.92
631.371	31.65
631.561	31.95
631.752	31.71
631.942	31.54
632.132	31.66
632.323	31.34
632.513	31.33
632.703	31.45
632.893	31.5
633.084	31.66
633.274	31.99
633.464	32.25
633.654	31.93
633.844	31.75
634.034	31.88
634.225	31.88
634.415	32.06
634.605	32.13
634.795	32.13
634.985	32.23
635.175	32.24
635.365	32.3
635.555	32.27
635.745	32.71
635.935	33.04
636.125	32.86
636.315	32.94
636.505	32.82
636.695	32.81
636.885	32.75
637.075	32.46
637.265	32.81
637.455	32.39
637.644	32.6
637.834	32.16
638.024	32.08
638.214	31.97
638.404	32.13
638.593	32.58
638.783	32.17
638.973	32.33
639.163	32.46
639.352	32.23
639.542	32.78
639.732	32.59
639.921	32.89
640.111	33.06
640.301	33.35
640.49	33.42
640.68	33.32
640.87	33.72
641.059	33.77
641.249	33.76
641.438	33.47
641.628	33.16
641.817	33.06
642.007	32.86
642.196	32.74
642.386	32.45
642.575	32.61
642.764	32.2
642.954	32.8
643.143	32.52
643.333	32.81
643.522	33.34
643.711	33.46
643.901	34.03
644.09	34.32
644.279	34.19
644.469	34.36
644.658	33.7
644.847	34.01
645.036	33.72
645.226	33.88
645.415	33.51
645.604	33.1
645.793	32.95
645.982	32.87
646.171	32.9
646.361	32.9
646.55	33.08
646.739	33.37
646.928	33.29
647.117	32.86
647.306	32.76
647.495	33.17
647.684	33.36
647.873	33.38
648.062	33.44
648.251	33.28
648.44	33.36
648.629	33.6
648.818	33.57
649.007	33.57
649.196	33.49
649.384	33.72
649.573	33.69
649.762	33.82
649.951	34.12
650.14	33.92
650.328	34.21
650.517	34.65
650.706	34.29
650.895	34.35
651.083	34.3
651.272	34.52
651.461	34.12
651.65	34.01
651.838	33.77
652.027	33.66
652.216	33.6
652.404	33.57
652.593	33.06
652.781	33.01
652.97	32.83
653.158	32.81
653.347	32.82
653.535	32.64
653.724	32.67
653.912	32.73
654.101	32.89
654.289	33.15
654.478	33.08
654.666	32.67
654.855	32.76
655.043	32.86
655.231	32.87
655.42	33.08
655.608	33.7
655.796	33.45
655.985	33.41
656.173	33.13
656.361	32.93
656.55	32.72
656.738	33.39
656.926	33.35
657.114	33.3
657.302	33.41
657.491	33.5
657.679	33.23
657.867	33.5
658.055	33.72
658.243	34
658.431	33.77
658.619	33.79
658.807	33.47
658.996	33.66
659.184	33.67
659.372	33.51
659.56	33.31
659.748	33.42
659.936	33.06
660.124	33.21
660.311	32.71
660.499	32.75
660.687	32.77
660.875	33.17
661.063	33.24
661.251	33.46
661.439	34.09
661.627	34.17
661.814	34.39
662.002	34.8
662.19	34.42
662.378	34.46
662.565	34.52
662.753	34.46
662.941	34.19
663.129	33.83
663.316	34.08
663.504	33.34
663.692	33.22
663.879	32.77
664.067	32.59
664.254	32.65
664.442	33.15
664.63	33.41
664.817	33.75
665.005	34.1
665.192	34.55
665.38	34.16
665.567	34.63
665.755	34.73
665.942	35.3
666.13	35.76
666.317	35.87
666.504	35.81
666.692	35.5
666.879	34.75
667.067	34.86
667.254	34.67
667.441	34.99
667.629	35.2
667.816	35.36
668.003	35.11
668.19	34.67
668.378	34.68
668.565	34.81
668.752	34.95
668.939	35.49
669.127	35.06
669.314	35.14
669.501	34.91
669.688	34.82
669.875	34.84
670.062	34.88
670.249	34.86
670.436	35.01
670.623	34.62
670.81	34.95
670.997	35.26
671.184	35.18
671.371	34.76
671.558	34.71
671.745	34.67
671.932	34.34
672.119	34.27
672.306	34.15
672.493	33.67
672.68	33.95
672.867	33.56
673.054	32.89
673.24	32.77
673.427	33.25
673.614	33.69
673.801	33.84
673.988	34.55
674.174	34.29
674.361	35.08
674.548	35.52
674.734	35.45
674.921	35.85
675.108	35.74
675.294	35.97
675.481	35.65
675.668	35.43
675.854	35.14
676.041	34.63
676.227	34.65
676.414	34
676.601	33.94
676.787	33.75
676.974	33.87
677.16	34.32
677.347	34.58
677.533	35.34
677.719	35.43
677.906	35.37
678.092	35.39
678.279	35.85
678.465	36.3
678.651	35.97
678.838	36.32
679.024	35.72
679.21	35.43
679.397	35.4
679.583	34.88
679.769	34.86
679.955	34.8
680.142	34.51
680.328	34.33
680.514	33.8
680.7	34.15
680.886	34.3
681.073	34.16
681.259	34.69
681.445	34.83
681.631	34.86
681.817	34.54
682.003	34.65
682.189	34.94
682.375	34.8
682.561	35.01
682.747	35.02
682.933	34.7
683.119	34.99
683.305	34.91
683.491	34.57
683.677	34.59
683.863	34.57
684.049	35.2
684.235	35.27
684.42	35.94
684.606	36.35
684.792	36.01
684.978	36.09
685.164	36.4
685.349	36.28
685.535	36.36
685.721	36.36
685.907	36.07
686.092	35.19
686.278	35.56
686.464	35.64
686.649	35.13
686.835	35.18
687.021	35.26
687.206	34.73
687.392	34.19
687.577	34.37
687.763	34.4
687.948	34.82
688.134	34.81
688.319	34.18
688.505	33.42
688.69	34
688.876	34.21
689.061	34.08
689.247	34.47
689.432	35.04
689.618	34.8
689.803	35.31
689.988	35.74
690.174	36.18
690.359	36.23
690.544	36.03
690.73	35.76
690.915	36.06
691.1	36.29
691.285	36.68
691.471	36.82
691.656	36.82
691.841	36.27
692.026	35.37
692.211	35.39
692.396	35.09
692.582	35.8
692.767	35.8
692.952	35.78
693.137	35.66
693.322	34.76
693.507	34.41
693.692	34.51
693.877	34.03
694.062	34.62
694.247	34.54
694.432	34.82
694.617	34.45
694.802	34.68
694.987	33.97
695.172	33.73
695.357	34.77
695.541	35.22
695.726	35.66
695.911	36.24
696.096	36.28
696.281	35.57
696.466	35.87
696.65	35.97
696.835	35.8
697.02	36.94
697.204	37.11
697.389	36.76
697.574	36.56
697.759	36.31
697.943	36.26
698.128	36.4
698.312	37.09
698.497	37.16
698.682	37.14
698.866	37.1
699.051	36.34
699.235	36.42
699.42	36.22
699.604	36
699.789	35.62
699.973	35.89
700.158	35.85
700.342	35.8
700.527	35.95
700.711	35.95
700.895	36.39
701.08	36.67
701.264	36.89
701.448	37.53
701.633	38.08
701.817	38.53
702.001	38.69
702.186	38.63
702.37	38.28
702.554	37.9
702.738	37.67
702.923	36.98
703.107	37.32
703.291	37.47
703.475	36.55
703.659	36.71
703.843	37.46
704.027	36.88
704.212	36.84
704.396	36.91
704.58	36.81
704.764	36.6
704.948	36.36
705.132	36.06
705.316	34.78
705.5	35.02
705.684	34.69
705.868	34.14
706.052	33.82
706.235	33.82
706.419	34.13
706.603	33.48
706.787	34.03
706.971	34.28
707.155	34.54
707.339	35.03
707.522	35.05
707.706	34.94
707.89	35.16
708.074	35.52
708.257	36.17
708.441	36.17
708.625	36.63
708.808	36.63
708.992	36.5
709.176	36.52
709.359	36.42
709.543	37.04
709.727	36.55
709.91	36.49
710.094	36.77
710.277	36.35
710.461	36.48
710.644	37.51
710.828	37.34
711.011	37.97
711.195	37.47
711.378	37.42
711.562	37.15
711.745	37.68
711.928	37.38
712.112	36.72
712.295	36.68
712.478	36.3
712.662	35.46
712.845	35.41
713.028	35.58
713.212	35.64
713.395	35.75
713.578	35.97
713.761	35.59
713.945	36.26
714.128	36.51
714.311	36.36
714.494	36.35
714.677	36.42
714.86	36.89
715.043	36.35
715.227	37.23
715.41	37.76
715.593	37.23
715.776	37.33
715.959	36.42
716.142	36.68
716.325	36.48
716.508	36.65
716.691	36.91
716.874	37.2
717.057	37.12
717.239	36.79
717.422	36.44
717.605	36.01
717.788	35.17
717.971	34.89
718.154	35.58
718.337	35.72
718.519	36
718.702	35.86
718.885	35.58
719.068	35.97
719.25	35.78
719.433	35.54
719.616	36.56
719.798	37.23
719.981	37.86
720.164	36.69
720.346	36.53
720.529	36.33
720.712	36.26
720.894	35.5
721.077	35.49
721.259	34.87
721.442	34.43
721.624	33.87
721.807	34.81
721.989	35.63
722.172	35.63
722.354	35.76
722.537	35.58
722.719	36.05
722.901	36.61
723.084	35.78
723.266	36.05
723.448	37.08
723.631	36.9
723.813	36.5
723.995	35.96
724.178	36.5
724.36	36.12
724.542	37.15
724.724	36.51
724.907	35.73
725.089	35.61
725.271	35.18
725.453	34.6
725.635	35.07
725.817	34.83
725.999	34.81
726.181	34.61
726.364	35.27
726.546	34.13
726.728	34.58
726.91	35.27
727.092	35.99
727.274	36.68
727.456	36.48
727.638	35.73
727.819	35.59
728.001	35.51
728.183	35.41
728.365	36
728.547	36.08
728.729	35.76
728.911	36.15
729.093	35.61
729.274	35.35
729.456	35.87
729.638	36.81
729.82	36.87
730.001	36.4
730.183	36.42
730.365	35.84
730.546	36.11
730.728	37.66
730.91	37.09
731.091	37.46
731.273	37.54
731.455	37.35
731.636	37.5
731.818	37.92
731.999	38.01
732.181	37.54
732.362	38.36
732.544	38.13
732.725	36.72
732.907	37.05
733.088	37.63
733.27	37.76
733.451	37.83
733.633	37.86
733.814	38.07
733.995	38.12
734.177	38.71
734.358	37.26
734.539	37.15
734.721	37
734.902	36.57
735.083	35.77
735.264	34.74
735.446	35.02
735.627	35.56
735.808	35.66
735.989	36.55
736.17	36.05
736.351	37.01
736.533	37.92
736.714	38.01
736.895	38.79
737.076	38.16
737.257	38.87
737.438	38.98
737.619	38.41
737.8	37.57
737.981	37.29
738.162	38.16
738.343	37.63
738.524	37.09
738.705	36.85
738.886	36.91
739.067	38.97
739.247	39.74
739.428	39.27
739.609	39.14
739.79	40.26
739.971	39.71
740.151	39.39
740.332	39.98
740.513	40.36
740.694	40.42
740.874	40.62
741.055	38.84
741.236	38.12
741.417	38.56
741.597	38.63
741.778	37.63
741.958	38.73
742.139	38.25
742.32	37.8
742.5	37.94
742.681	37.89
742.861	37.5
743.042	37.73
743.222	38.37
743.403	38.01
743.583	38.63
743.764	38.17
743.944	36.6
744.124	37.29
744.305	37.08
744.485	36.03
744.666	36.32
744.846	35.54
745.026	36.16
745.207	36.75
745.387	37.49
745.567	37.29
745.747	38.06
745.928	38.74
746.108	37.95
746.288	38.18
746.468	37.97
746.648	38.17
746.829	37.54
747.009	37.59
747.189	37.39
747.369	36.22
747.549	35.3
747.729	35.1
747.909	35.36
748.089	35.78
748.269	36.41
748.449	36.95
748.629	38.16
748.809	37.99
748.989	38.17
749.169	36.84
749.349	37.09
749.529	36.8
749.709	37.21
749.889	36.54
750.068	36.99
750.248	37.38
750.428	36.48
750.608	34.92
750.788	35.68
750.967	35.36
751.147	35.7
751.327	36.66
751.507	37.02
751.686	37.14
751.866	38.15
752.046	37.66
752.225	36.83
752.405	36.53
752.585	36.7
752.764	37.88
752.944	37.98
753.123	38.41
753.303	38.51
753.482	38.74
753.662	38.02
753.841	37.56
754.021	38.23
754.2	38.16
754.38	39.06
754.559	39.45
754.739	36.82
754.918	35.37
755.097	35.26
755.277	33.76
755.456	33.75
755.635	33.71
755.815	33.79
755.994	33.35
756.173	32.69
756.352	34.18
756.532	33.96
756.711	36.1
756.89	36.03
757.069	36.95
757.248	37.73
757.427	37.03
757.607	37.71
757.786	37.61
757.965	37.14
758.144	37.83
758.323	36.14
758.502	35.57
758.681	36.12
758.86	38.05
759.039	36.62
759.218	36.4
759.397	36.69
759.576	36.9
759.755	36.91
759.934	36.9
760.113	37.74
760.291	38.75
760.47	39.15
760.649	38.61
760.828	39.04
761.007	38.96
761.186	39.16
761.364	39.53
761.543	38.42
761.722	37.96
761.901	37.57
762.079	36.62
762.258	36.32
762.437	36.78
762.615	36.13
762.794	35.52
762.972	36.09
763.151	36.57
763.33	35.83
763.508	36.1
763.687	36.53
763.865	38
764.044	38.5
764.222	38.31
764.401	38.13
764.579	38.83
764.758	38.5
764.936	38.06
765.114	38.39
765.293	38.88
765.471	39.41
765.65	39.54
765.828	38.28
766.006	37.24
766.184	37.14
766.363	35.9
766.541	35.09
766.719	35.99
766.898	37
767.076	35.67
767.254	36.03
767.432	35.47
767.61	35.11
767.788	35.17
767.967	36.34
768.145	35.48
768.323	35.09
768.501	34.93
768.679	33.82
768.857	32.88
769.035	33.16
769.213	32.97
769.391	32.55
769.569	30.89
769.747	30.98
769.925	29.45
770.103	30.32
770.281	31.71
770.459	31.64
770.636	32.56
770.814	32.32
770.992	33.61
771.17	33.83
771.348	34.45
771.525	35.82
771.703	36.76
771.881	37.87
772.059	38.02
772.236	39.06
772.414	40.16
772.592	39.42
772.769	40.18
772.947	39.4
773.125	39.27
773.302	38.82
773.48	40
773.657	38.89
773.835	39.05
774.013	39.54
774.19	37.87
774.368	36.83
774.545	36.69
774.723	35.12
774.9	36.43
775.077	37.39
775.255	38.53
775.432	37.95
775.61	39.27
775.787	40.42
775.964	39.98
776.142	40.36
776.319	40.07
776.496	38.35
776.674	38.2
776.851	37.21
777.028	34.29
777.205	35.27
777.382	34.93
777.56	34.16
777.737	31.29
777.914	30.21
778.091	31.23
778.268	32.48
778.445	33.31
778.622	35.36
778.8	34.61
778.977	35.44
779.154	32.41
779.331	32.66
779.508	33.1
779.685	33.51
779.862	34.71
780.038	34.49
780.215	34.18
780.392	35.52
780.569	34.26
780.746	34.05
780.923	34.63
781.1	36.65
781.277	37.31
781.453	34.43
781.63	33.83
781.807	35.52
781.984	36.17
782.16	36.07
782.337	36.16
782.514	36
782.691	35.48
782.867	35.73
783.044	35.01
783.221	34.15
783.397	35.8
783.574	38.25
783.75	36.88
783.927	37.64
784.103	37.71
784.28	37.71
784.456	37.79
784.633	39.34
784.809	39.29
784.986	38.69
785.162	37.5
785.339	38.03
785.515	35.28
785.692	33.85
785.868	33.59
786.044	33.21
786.221	32.15
786.397	33.35
786.573	32.73
786.749	31.78
786.926	32.31
787.102	35.64
787.278	33.63
787.454	32.94
787.631	33.65
787.807	31.6
787.983	31.36
788.159	32.11
788.335	32.13
788.511	32.17
788.687	31.99
788.863	32.95
789.039	30.26
789.216	31.91
789.392	33.03
789.568	33.31
789.744	35.96
789.919	35.36
790.095	36.01
790.271	35.56
790.447	35.01
790.623	34.32
790.799	33.65
790.975	35.3
791.151	36.97
791.327	38.58
791.502	39.33
791.678	37.33
791.854	39.31
792.03	37.41
792.205	36.88
792.381	37.5
792.557	40.91
792.733	40.03
792.908	39.3
793.084	38.81
793.259	38.49
793.435	37.54
793.611	38.09
793.786	38.38
793.962	39.39
794.137	39.48
794.313	40.25
794.488	40.17
794.664	41.02
794.839	40.23
795.015	37.41
795.19	38.75
795.366	39.11
795.541	38.98
795.716	39.93
795.892	38.82
796.067	38.36
796.242	36.05
796.418	33.06
796.593	34.31
796.768	35.99
796.944	39.84
797.119	39.02
797.294	38.11
797.469	36.88
797.644	33.11
797.82	35.94
797.995	34.49
798.17	37.1
798.345	39.21
798.52	38.01
798.695	39.04
798.87	33.11
799.045	31.39
799.22	32.1
799.395	32.96
799.57	33.97
799.745	32.6
799.92	34.26
800.095	33.77
800.27	32.36
800.445	32.42
800.62	29.55
800.795	34.28
800.97	35.95
801.145	34.4
801.319	36.33
801.494	36.03
801.669	35.55
801.844	37.18
802.018	38.19
802.193	38.71
802.368	38.75
802.543	38.96
802.717	38.56
802.892	35.76
803.067	37.63
803.241	37.41
803.416	38.95
803.59	38.51
803.765	38.13
803.94	37.35
804.114	35.97
804.289	39.08
804.463	40.82
804.638	41.5
804.812	41.51
804.986	41.81
805.161	40.82
805.335	43.06
805.51	45.39
805.684	42.93
805.858	40.72
806.033	42.97
806.207	42.02
806.381	41.33
806.556	39.99
806.73	40.69
806.904	39.92
807.078	41.49
807.253	37.21
807.427	34.76
807.601	37.14
807.775	36
807.949	34.34
808.123	35.01
808.298	33.29
808.472	35.02
808.646	37.48
808.82	38.5
808.994	36.31
809.168	38.38
809.342	41.5
809.516	39.76
809.69	41.79
809.864	42.69
810.038	39.95
810.212	40.28
810.385	39.67
810.559	38.17
810.733	37.35
810.907	38.61
811.081	39.37
811.255	36.99
811.428	38.71
811.602	38.33
811.776	36.95
811.95	37.98
812.123	37.94
812.297	34.32
812.471	35.55
812.644	35.42
812.818	33.79
812.992	30.45
813.165	30.88
813.339	30.09
813.512	32.13
813.686	33.96
813.86	33.33
814.033	36.82
814.207	40.85
814.38	42.43
814.554	45.77
814.727	44.98
814.9	47.35
815.074	47.94
815.247	48.2
815.421	46.72
815.594	44.16
815.767	47.1
815.941	44.19
816.114	40.75
816.287	39.56
816.46	35.33
816.634	37.86
816.807	35.67
816.98	36.36
817.153	37.08
817.327	39.1
817.5	40.64
817.673	38.67
817.846	40.43
818.019	42.17
818.192	42.68
818.365	42.46
818.538	45.91
818.711	49.34
818.884	49.87
819.057	50.81
819.23	47.36
819.403	48.81
819.576	44.73
819.749	42.73
819.922	41.2
820.095	40.29
820.268	42
820.441	37.96
820.614	37.49
820.786	36.83
820.959	35.65
821.132	37.16
821.305	36.72
821.477	38.22
821.65	38.29
821.823	38.95
821.996	38.94
822.168	37.65
822.341	37.91
822.514	37.6
822.686	37.86
822.859	38.39
823.031	38.23
823.204	38.77
823.376	38.66
823.549	38.84
823.722	38.93
823.894	38.08
824.067	38.75
824.239	38.9
824.411	39.02
824.584	38.94
824.756	39
824.929	39.07
825.101	37.45
825.273	37.03
825.446	36.94
825.618	36.79
825.79	37.12
825.963	36.44
826.135	35.88
826.307	35.82
826.479	35.53
826.652	35.07
826.824	35.42
826.996	36.91
827.168	38.1
827.34	38.77
827.512	38.1
827.684	38.98
827.856	40.23
828.029	41.15
828.201	41.01
828.373	41.19
828.545	41.32
828.717	41.94
828.889	41.39
829.061	41.01
829.232	40.6
829.404	41.92
829.576	42.1
829.748	41.33
829.92	41.22
830.092	41.97
830.264	42.91
830.436	42.6
830.607	41.58
830.779	42.03
830.951	42.2
831.123	41.68
831.294	40.78
831.466	40.89
831.638	40.96
831.809	42.74
831.981	43.1
832.153	40.69
832.324	42.49
832.496	40.3
832.667	39.73
832.839	38.88
833.011	39.56
833.182	41.55
833.354	40.37
833.525	37.32
833.697	36.06
833.868	36.06
834.039	37.62
834.211	34.41
834.382	34.09
834.554	34.79
834.725	35.3
834.896	34.94
835.068	33.62
835.239	35.76
835.41	38.64
835.581	38.21
835.753	38.33
835.924	37.42
836.095	38.94
836.266	39.33
836.438	38.23
836.609	39.01
836.78	39.98
836.951	40.68
837.122	39.6
837.293	38.08
837.464	37.93
837.635	37.01
837.806	38.13
837.977	40.47
838.148	39.67
838.319	40.45
838.49	38.96
838.661	36.82
838.832	35.35
839.003	35.39
839.174	38.03
839.345	38.7
839.516	37.74
839.687	36.93
839.857	36.41
840.028	41.72
840.199	45.51
840.37	46.39
840.54	52.58
840.711	53.66
840.882	51.61
841.053	49.17
841.223	51.87
841.394	56.77
841.564	55.71
841.735	52.28
841.906	51.23
842.076	42.68
842.247	42.33
842.417	38.74
842.588	39.66
842.758	40.37
842.929	37.29
843.099	33.71
843.27	30.37
843.44	30.95
843.611	33.86
843.781	29.21
843.951	31.95
844.122	32.85
844.292	32.23
844.462	33.95
844.633	33.07
844.803	36.02
844.973	32.88
845.144	31.85
845.314	29.03
845.484	25.55
845.654	34.06
845.824	39.61
845.995	36.15
846.165	34.89
846.335	29.94
846.505	30.21
846.675	34.09
846.845	38.42
847.015	34.29
847.185	40.49
847.355	48.76
847.525	47.61
847.695	35.85
847.865	36.29
848.035	32.75
848.205	28.8
848.375	34.29
848.545	38.62
848.715	44.5
848.884	42.87
849.054	45.92
849.224	47.22
849.394	40.84
849.564	46.67
849.733	41.65
849.903	43.88
850.073	52.03
850.243	40.99
850.412	33.07
850.582	28.06
850.752	30.8
850.921	25.63
851.091	23.68
851.26	28.42
851.43	23.63
851.599	26.06
851.769	23.79
851.939	19.74
852.108	18.34
852.278	17.65
852.447	20.8
852.616	19.51
852.786	23.06
852.955	22
853.125	18.54
853.294	29
853.463	31.65
853.633	26.51
853.802	34.38
853.971	42.18
854.141	36.89
854.31	32.52
854.479	30.27
854.648	24.71
854.818	26.47
854.987	30.65
855.156	26.91
855.325	29.97
855.494	34.3
855.663	32.34
855.832	32.12
856.001	34.99
856.171	30.14
856.34	33.38
856.509	35.39
856.678	32.98
856.847	31.21
857.016	29.29
857.185	30.65
857.353	32.87
857.522	29.83
857.691	25.19
857.86	27.28
858.029	32.35
858.198	37.21
858.367	37.43
858.535	33.88
858.704	37.98
858.873	44.63
859.042	40.22
859.21	45.59
859.379	46.32
859.548	51.9
859.717	60.75
859.885	66.96
860.054	62.37
860.222	63.55
860.391	67.83
860.56	66.72
860.728	58.39
860.897	62.71
861.065	59.85
861.234	67.1
861.402	65.71
861.571	62.91
861.739	60.06
861.908	65.02
862.076	58.62
862.244	63.74
862.413	59.83
862.581	63.07
862.749	58.58
862.918	55.28
863.086	44.72
863.254	42.61
863.423	42.56
863.591	41.27
863.759	37.87
863.927	33.29
864.096	30.57
864.264	29.86
864.432	33.12
864.6	31.97
864.768	22.57
864.936	20.51
865.104	19.26
865.272	17.88
865.44	14.07
865.608	14.46
865.776	25.49
865.944	24.73
866.112	26.89
866.28	30.12
866.448	34.62
866.616	46.96
866.784	44.08
866.952	45.16
867.12	41.37
867.288	38.88
867.455	41.85
867.623	40.3
867.791	41.06
867.959	46.61
868.127	39.12
868.294	42.41
868.462	43.11
868.63	59.85
868.797	61.16
868.965	56.19
869.133	59.27
869.3	59.95
869.468	65.22
869.636	63.3
869.803	65.69
869.971	77.96
870.138	70.88
870.306	62.34
870.473	55.62
870.641	54.63
870.808	55.51
870.975	53.96
871.143	55.49
871.31	55.83
871.478	58.51
871.645	52.73
871.812	40.09
871.98	46.7
872.147	51.39
872.314	48.28
872.482	39.45
872.649	36.3
872.816	34.08
872.983	31.53
873.15	37.83
873.318	32.54
873.485	37.48
873.652	37.36
873.819	35.83
873.986	37.76
874.153	41.57
874.32	45.55
874.487	52.21
874.654	56.99
874.821	66.05
874.988	53.99
875.155	50.84
875.322	46.78
875.489	54.58
875.656	51.57
875.823	51.37
875.99	54.63
876.157	61.93
876.324	61.99
876.49	63.91
876.657	59.8
876.824	77.25
876.991	86.68
877.157	87.42
877.324	85.29
877.491	92.7
877.658	85.31
877.824	71.07
877.991	70.13
878.157	71.71
878.324	76.04
878.491	64.84
878.657	48.67
878.824	42.79
878.99	49.63
879.157	46.54
879.323	44.3
879.49	43.18
879.656	48.57
879.823	40.46
879.989	30.88
880.156	25.42
880.322	29.39
880.488	31.62
880.655	30.67
880.821	27.07
880.987	27.96
881.154	29.24
881.32	29.75
881.486	29.47
881.652	30.63
881.819	34.7
881.985	37.1
882.151	35.63
882.317	36.06
882.483	37.31
882.649	37.72
882.816	39.26
882.982	37.81
883.148	38.19
883.314	37.95
883.48	38.02
883.646	37.9
883.812	37.82
883.978	37.14
884.144	36.49
884.31	37.6
884.476	38.26
884.642	37.44
884.807	38.21
884.973	37.5
885.139	37.58
885.305	37.92
885.471	36.22
885.637	36.61
885.802	37.34
885.968	36.45
886.134	33.78
886.3	30.59
886.465	30.12
886.631	26.56
886.797	27.24
886.962	28.32
887.128	26.53
887.293	27.41
887.459	26.11
887.625	27.89
887.79	29.96
887.956	31.69
888.121	33.97
888.287	34.43
888.452	38.31
888.618	36.42
888.783	27.88
