Data from CB_032_Reflection_21-21-54-035.txt Node
Date: Wed Nov 11 21:21:54 EST 2015
User: robert
Spectrometer: USB4E03001
Autoset integration time: false
Trigger mode: 4
Integration Time (sec): 1.000000E-1
Scans to average: 15
Electric dark correction enabled: true
Nonlinearity correction enabled: false
Boxcar width: 5
Stray light correction enabled: false
XAxis mode: Wavelengths
Stop averaging: false
Number of Pixels in Spectrum: 3648
>>>>>Begin Spectral Data<<<<<
177.566	88.41
177.785	1107.24
178.005	-280.32
178.225	-440.61
178.445	125.08
178.665	86.76
178.885	358.31
179.105	-22.05
179.324	23.91
179.544	72.32
179.764	71.6
179.984	42.03
180.204	78.88
180.423	117.32
180.643	46.82
180.863	49.03
181.083	34.34
181.302	4.66
181.522	5.52
181.742	16.94
181.961	13.66
182.181	15.28
182.401	21.5
182.621	-6.81
182.84	-1.1
183.06	19.36
183.279	29.19
183.499	38.39
183.719	62.18
183.938	60.69
184.158	60.94
184.377	62.14
184.597	71.56
184.816	77.6
185.036	68.28
185.256	67.99
185.475	56.2
185.695	30.33
185.914	-23.34
186.134	16.37
186.353	4.97
186.572	-0.55
186.792	-26.6
187.011	-24.41
187.231	-32.56
187.45	-41.36
187.67	-63.25
187.889	-27.26
188.108	18.72
188.328	37.23
188.547	6.13
188.766	-3.06
188.986	-10.12
189.205	-20.05
189.424	-26.86
189.644	-39.01
189.863	-26.74
190.082	-2.15
190.302	-21.68
190.521	-44.39
190.74	-53.48
190.959	-10.01
191.178	16.85
191.398	4.23
191.617	27.04
191.836	22.36
192.055	23.55
192.274	7.79
192.494	-10.06
192.713	22.19
192.932	32.22
193.151	37.9
193.37	27.47
193.589	25.9
193.808	42.42
194.027	24.46
194.246	37.95
194.465	54.53
194.685	72.45
194.904	80.11
195.123	57.03
195.342	47.01
195.561	44.04
195.78	44.18
195.999	59.44
196.218	38.52
196.436	48.26
196.655	81.56
196.874	84.49
197.093	85.64
197.312	76.7
197.531	81.02
197.75	63.73
197.969	78.82
198.188	66.83
198.407	61.33
198.625	59.45
198.844	51.04
199.063	31.99
199.282	33.53
199.501	47.35
199.719	42.06
199.938	44.09
200.157	55.55
200.376	32.49
200.594	52.62
200.813	63.96
201.032	89.79
201.251	139.9
201.469	127.22
201.688	130.49
201.907	87.9
202.125	77.24
202.344	68.47
202.563	75.46
202.781	85
203	62.49
203.218	42.91
203.437	49.32
203.656	42.19
203.874	36.38
204.093	11.51
204.311	13.09
204.53	-4.58
204.748	21.81
204.967	35.19
205.185	43.26
205.404	49.71
205.622	52.91
205.841	44.7
206.059	20.33
206.278	21.53
206.496	42.02
206.715	39.6
206.933	45.47
207.151	37.39
207.37	29.88
207.588	17.29
207.806	17.01
208.025	18.39
208.243	12.03
208.461	31.19
208.68	33.28
208.898	34.88
209.116	24.82
209.335	20.39
209.553	15.5
209.771	23.08
209.989	23.88
210.208	18.07
210.426	34.19
210.644	24.3
210.862	8.43
211.081	23.89
211.299	-1.7
211.517	38.96
211.735	28.12
211.953	49.74
212.171	39.87
212.39	47.84
212.608	73.21
212.826	52.89
213.044	71.19
213.262	63.03
213.48	53.25
213.698	68.78
213.916	48.18
214.134	42.62
214.352	20.24
214.57	37.41
214.788	27.99
215.006	0.91
215.224	28.1
215.442	14.02
215.66	52.57
215.878	66.01
216.096	50.54
216.314	72.08
216.532	87.41
216.75	70.22
216.968	81.83
217.185	76.21
217.403	66.69
217.621	65.93
217.839	61.99
218.057	58.12
218.275	72.02
218.492	88.3
218.71	76.32
218.928	70.2
219.146	65.71
219.363	64.17
219.581	81.92
219.799	77.98
220.017	76.18
220.234	53.61
220.452	64.02
220.67	45.95
220.887	17.58
221.105	11.33
221.323	12.61
221.54	41.93
221.758	35.77
221.976	17.06
222.193	24.86
222.411	25.95
222.629	32.84
222.846	28.23
223.064	9.43
223.281	31.6
223.499	35.31
223.716	33.03
223.934	41.79
224.151	37.74
224.369	38.57
224.586	40.24
224.804	38.88
225.021	37.95
225.239	34.33
225.456	43.99
225.674	35.7
225.891	40.27
226.108	52.85
226.326	28.99
226.543	27.96
226.76	26.88
226.978	16.12
227.195	13.09
227.413	12.97
227.63	21.3
227.847	16.7
228.064	14.26
228.282	10.95
228.499	7.91
228.716	11.62
228.934	12.12
229.151	9.04
229.368	10.72
229.585	12.4
229.802	14.52
230.02	9.02
230.237	11.23
230.454	11.46
230.671	11.82
230.888	11.4
231.105	10.72
231.323	13.54
231.54	20.96
231.757	18.18
231.974	15.7
232.191	12.63
232.408	14.6
232.625	11.86
232.842	8.17
233.059	11.74
233.276	10.22
233.493	11.76
233.71	12.71
233.927	9.23
234.144	12.75
234.361	13.8
234.578	15.16
234.795	14.67
235.012	16.59
235.229	18.12
235.446	17.68
235.663	18.72
235.879	19.3
236.096	10.54
236.313	12.2
236.53	15
236.747	14.67
236.964	15.69
237.181	21.07
237.397	18.53
237.614	22.73
237.831	18.34
238.048	19.66
238.264	14.22
238.481	18.03
238.698	16.86
238.915	13.01
239.131	11.27
239.348	6.9
239.565	5.36
239.781	7.97
239.998	9.97
240.215	10.24
240.431	9.51
240.648	15.17
240.865	13.57
241.081	16.54
241.298	18.6
241.514	17.8
241.731	21.31
241.947	18.91
242.164	19.2
242.38	16.66
242.597	17.62
242.814	17.97
243.03	16.74
243.246	17.4
243.463	14.96
243.679	14.88
243.896	18.29
244.112	17.22
244.329	20.17
244.545	18.94
244.762	16.58
244.978	17.42
245.194	16.02
245.411	15
245.627	15.85
245.843	16.49
246.06	15.48
246.276	13.29
246.492	12.68
246.709	11.68
246.925	12.64
247.141	14.47
247.357	12.82
247.574	13.03
247.79	13.16
248.006	12.56
248.222	12.01
248.439	12.15
248.655	13
248.871	12.25
249.087	11.75
249.303	11.19
249.519	10.83
249.736	11.96
249.952	11.67
250.168	11.97
250.384	11.86
250.6	12.48
250.816	11.62
251.032	8.03
251.248	11.02
251.464	11.35
251.68	11.82
251.896	11.46
252.112	11.1
252.328	10.53
252.544	10.25
252.76	10.63
252.976	10.74
253.192	10.77
253.408	11.42
253.624	11.98
253.84	13.51
254.056	13.34
254.272	15.67
254.487	15.22
254.703	16.47
254.919	19.63
255.135	21.59
255.351	22.18
255.567	23.53
255.782	24.97
255.998	20.81
256.214	20.46
256.43	21.23
256.646	18.26
256.861	17.27
257.077	16.82
257.293	12.45
257.508	11.53
257.724	12.42
257.94	11.64
258.155	10.91
258.371	10.92
258.587	10.65
258.802	9.36
259.018	9.35
259.234	9.73
259.449	10.02
259.665	10.66
259.88	10.72
260.096	9.72
260.312	8.93
260.527	9.34
260.743	9.03
260.958	8.77
261.174	8.69
261.389	9.58
261.605	10.1
261.82	9.88
262.036	9.92
262.251	11.54
262.466	12.68
262.682	13.57
262.897	14.04
263.113	14.95
263.328	14.68
263.543	14.4
263.759	13.39
263.974	15.18
264.189	14.86
264.405	14.41
264.62	10.91
264.835	9.32
265.051	10.44
265.266	9.28
265.481	9.44
265.696	10.81
265.912	12.26
266.127	11.15
266.342	9.1
266.557	10.11
266.773	8.67
266.988	8.88
267.203	8.58
267.418	7.71
267.633	8.95
267.848	9.89
268.064	8.64
268.279	7.71
268.494	6.01
268.709	6.71
268.924	7.24
269.139	8.99
269.354	10.1
269.569	10.12
269.784	11.57
269.999	10.62
270.214	10.78
270.429	11.81
270.644	11.94
270.859	13.9
271.074	12.89
271.289	12.25
271.504	12.44
271.719	11.35
271.934	11.47
272.149	10.78
272.363	10.76
272.578	9.56
272.793	9.47
273.008	9.4
273.223	9.77
273.438	9.46
273.653	10.17
273.867	10.24
274.082	10.18
274.297	10.97
274.512	10.9
274.726	9.5
274.941	11.4
275.156	11.47
275.371	10.73
275.585	10.38
275.8	10.5
276.015	10.46
276.229	10.04
276.444	9.69
276.659	9.08
276.873	9.01
277.088	11.43
277.302	10.15
277.517	9.36
277.732	10.48
277.946	10.24
278.161	11.62
278.375	10.72
278.59	10.06
278.804	10.44
279.019	9.56
279.233	9.92
279.448	8.38
279.662	9.32
279.877	9.5
280.091	9.76
280.306	9.83
280.52	8.76
280.735	9.17
280.949	8.49
281.163	8.53
281.378	9.75
281.592	9.13
281.806	11.04
282.021	9.15
282.235	10.2
282.449	9.58
282.664	8.17
282.878	7.93
283.092	7.63
283.307	9.22
283.521	9.81
283.735	9.37
283.949	10.68
284.164	9.47
284.378	10.17
284.592	9.76
284.806	9.83
285.02	11.47
285.234	12.35
285.449	12.41
285.663	12.29
285.877	11.65
286.091	11.42
286.305	10.68
286.519	10.52
286.733	10.9
286.947	10.94
287.161	10.81
287.375	10.83
287.589	10.15
287.803	9.93
288.017	8.42
288.231	10.06
288.445	10.99
288.659	11.26
288.873	12.53
289.087	12.7
289.301	12.22
289.515	13.73
289.729	13.94
289.943	13.26
290.157	13.72
290.371	14.41
290.584	13.5
290.798	13.94
291.012	13.98
291.226	13.55
291.44	13.92
291.654	13.38
291.867	12.04
292.081	11.28
292.295	13.41
292.509	12.1
292.722	12.62
292.936	11.46
293.15	10.86
293.364	10.96
293.577	10.62
293.791	10.6
294.005	10.38
294.218	10.88
294.432	13.09
294.645	11.2
294.859	11.17
295.073	10.48
295.286	11
295.5	11.05
295.713	10.99
295.927	10.84
296.14	11.03
296.354	11.79
296.568	12.77
296.781	11.08
296.994	11.99
297.208	13.58
297.421	13.75
297.635	14.03
297.848	13.97
298.062	14.01
298.275	15.59
298.489	15.31
298.702	16.81
298.915	16.44
299.129	17.85
299.342	18.02
299.555	18.29
299.769	19.37
299.982	19.78
300.195	19.97
300.409	20.58
300.622	19.26
300.835	18.98
301.048	16.52
301.262	15.83
301.475	14.33
301.688	14.68
301.901	13.91
302.115	13.49
302.328	13.8
302.541	13.85
302.754	12.62
302.967	12.64
303.18	14.3
303.393	14.88
303.607	15.23
303.82	15.12
304.033	14.82
304.246	14.05
304.459	14.32
304.672	13.6
304.885	14.35
305.098	15.91
305.311	16.8
305.524	15.01
305.737	16.05
305.95	16.11
306.163	16.74
306.376	17.77
306.589	18.69
306.802	18.8
307.015	19.88
307.228	19.4
307.44	19.38
307.653	18.88
307.866	20.4
308.079	19.66
308.292	19.84
308.505	19.53
308.718	19.09
308.93	19.21
309.143	19.29
309.356	18.4
309.569	18.22
309.781	17.29
309.994	17.2
310.207	16.83
310.42	16.77
310.632	17.83
310.845	18.13
311.058	17.39
311.27	17.32
311.483	17.05
311.696	17.24
311.908	17.55
312.121	17.62
312.333	16.99
312.546	16.67
312.759	16.93
312.971	16.01
313.184	15.44
313.396	15.54
313.609	16.63
313.821	16.01
314.034	16.8
314.246	16.38
314.459	16.62
314.671	16.93
314.884	17.74
315.096	17.75
315.309	16.71
315.521	17.64
315.733	18.97
315.946	17.41
316.158	17.92
316.371	17.11
316.583	16.64
316.795	17.97
317.008	18.66
317.22	18.44
317.432	19.03
317.644	19.82
317.857	20.72
318.069	19.39
318.281	18.27
318.494	18.94
318.706	20.52
318.918	20.97
319.13	21.1
319.342	19.7
319.555	19.7
319.767	19.3
319.979	19.22
320.191	18.03
320.403	18.97
320.615	20.09
320.827	19.62
321.039	18.17
321.252	18.4
321.464	17.74
321.676	16.93
321.888	17.25
322.1	16.73
322.312	17.12
322.524	17.78
322.736	17.58
322.948	18.06
323.16	18.12
323.372	18.41
323.584	18.34
323.796	17.94
324.007	19.41
324.219	19.51
324.431	19.65
324.643	20.17
324.855	19.82
325.067	19.92
325.279	20.16
325.491	20.81
325.702	21.15
325.914	21.18
326.126	21.52
326.338	21.14
326.55	21.05
326.761	22.68
326.973	22.89
327.185	23.86
327.396	24.4
327.608	24.11
327.82	24.17
328.032	25
328.243	25.68
328.455	26.55
328.666	28.09
328.878	27.48
329.09	27.01
329.301	25.94
329.513	24.77
329.725	24.34
329.936	24.96
330.148	25.09
330.359	23.66
330.571	23.11
330.782	22.44
330.994	22.13
331.205	23.55
331.417	22.58
331.628	24.02
331.84	24.17
332.051	24.2
332.262	23.47
332.474	23.52
332.685	24.39
332.897	24.41
333.108	26
333.319	26.98
333.531	27.21
333.742	27.76
333.953	28.08
334.165	28.91
334.376	29.33
334.587	29.2
334.799	28.84
335.01	28.95
335.221	28.97
335.432	28.85
335.644	27.39
335.855	26.87
336.066	26.21
336.277	26.26
336.488	25.61
336.7	24.74
336.911	25.43
337.122	26.14
337.333	25.68
337.544	26.11
337.755	25.21
337.966	26.01
338.177	26.15
338.388	26.59
338.599	26.77
338.811	26.97
339.022	26.83
339.233	26.89
339.444	26.28
339.655	27.31
339.866	28.17
340.076	28.09
340.287	28.2
340.498	27.41
340.709	28.32
340.92	27.81
341.131	28.01
341.342	28.88
341.553	28.98
341.764	28.49
341.975	27.92
342.185	27.03
342.396	26.81
342.607	25.96
342.818	26.43
343.029	25.74
343.239	25.24
343.45	24.47
343.661	24.5
343.872	23.72
344.082	24.55
344.293	24.82
344.504	25.05
344.714	25.33
344.925	25.36
345.136	25.51
345.346	25.61
345.557	25.82
345.768	25.84
345.978	26.16
346.189	27.19
346.399	26.42
346.61	25.95
346.821	25.85
347.031	25.69
347.242	26.34
347.452	26.97
347.663	27.4
347.873	27.86
348.084	28.41
348.294	28.03
348.504	27.28
348.715	27.6
348.925	27.62
349.136	27.19
349.346	27.56
349.557	27.15
349.767	26.31
349.977	26.01
350.188	25.78
350.398	25.47
350.608	25.68
350.819	26.02
351.029	26.2
351.239	25.72
351.449	26.44
351.66	26.08
351.87	26.54
352.08	26.92
352.29	26.92
352.501	27
352.711	27.28
352.921	27.37
353.131	26.97
353.341	26.52
353.552	26.91
353.762	25.85
353.972	26.27
354.182	25.47
354.392	25.2
354.602	24.82
354.812	23.86
355.022	23.22
355.232	22.9
355.442	23.36
355.652	23.95
355.862	23.91
356.072	24.59
356.282	24.35
356.492	24.61
356.702	24.55
356.912	24.8
357.122	25.26
357.332	26.36
357.542	26.34
357.752	26.13
357.962	25.56
358.171	25.48
358.381	25.47
358.591	24.86
358.801	24.62
359.011	24.01
359.221	23.79
359.43	24.07
359.64	23.45
359.85	23.28
360.06	22.66
360.269	22.47
360.479	22.63
360.689	22.42
360.899	22.32
361.108	22.98
361.318	23.29
361.528	23.16
361.737	22.43
361.947	22.52
362.156	22.51
362.366	23.13
362.576	23.22
362.785	23.64
362.995	23.38
363.204	23.75
363.414	23.56
363.623	23.49
363.833	23.4
364.042	23.69
364.252	24.13
364.461	23.95
364.671	23.66
364.88	23.97
365.09	23.29
365.299	23.49
365.509	23.79
365.718	23.71
365.927	23.97
366.137	24.05
366.346	24.12
366.555	23.73
366.765	23.8
366.974	23.41
367.183	23.15
367.393	23.24
367.602	23.07
367.811	22.34
368.021	21.47
368.23	20.84
368.439	21.05
368.648	21.21
368.857	20.48
369.067	20.07
369.276	20.26
369.485	20.49
369.694	20.57
369.903	20.31
370.112	20.58
370.321	20.89
370.531	21.1
370.74	20.87
370.949	20.24
371.158	20.35
371.367	20.67
371.576	20.81
371.785	20.39
371.994	20.21
372.203	20.49
372.412	20.67
372.621	20.54
372.83	20.04
373.039	20.06
373.248	20.19
373.457	20.55
373.666	20.16
373.874	20.2
374.083	19.58
374.292	18.69
374.501	18.72
374.71	17.71
374.919	17.84
375.128	18.19
375.336	17.97
375.545	17.75
375.754	17.47
375.963	17.03
376.171	16.53
376.38	16.93
376.589	17.46
376.798	16.85
377.006	17.39
377.215	17.41
377.424	17.23
377.632	16.9
377.841	16.83
378.05	16.4
378.258	16.86
378.467	16.64
378.675	16.66
378.884	16.42
379.093	16.57
379.301	16.48
379.51	16.18
379.718	16.35
379.927	16.5
380.135	16.53
380.344	16.91
380.552	16.71
380.761	16.26
380.969	15.79
381.177	16.04
381.386	16.09
381.594	16.11
381.803	16.04
382.011	15.57
382.219	15.14
382.428	15.18
382.636	14.9
382.845	15.3
383.053	15.97
383.261	15.98
383.469	15.35
383.678	15.25
383.886	14.72
384.094	14.45
384.302	15.05
384.511	15.04
384.719	14.83
384.927	14.89
385.135	14.41
385.343	14.32
385.552	14.66
385.76	15.18
385.968	15.05
386.176	15.27
386.384	15.32
386.592	14.93
386.8	15.27
387.008	15.62
387.216	15.18
387.424	15.55
387.633	15.24
387.841	14.73
388.049	13.84
388.257	13.93
388.465	13.62
388.672	13.48
388.88	13.3
389.088	13.15
389.296	12.65
389.504	12.66
389.712	12.12
389.92	12.18
390.128	12.16
390.336	12.73
390.544	12.81
390.751	13.06
390.959	13.34
391.167	13.36
391.375	13.34
391.583	13.37
391.79	13.49
391.998	13.49
392.206	13.43
392.414	13.65
392.621	13.4
392.829	13.18
393.037	13.14
393.244	12.95
393.452	12.94
393.66	12.62
393.867	12.69
394.075	12.62
394.283	12.48
394.49	12.61
394.698	12.6
394.905	12.56
395.113	12.26
395.32	12.09
395.528	11.85
395.735	11.6
395.943	11.83
396.15	11.59
396.358	11.52
396.565	11.92
396.773	11.65
396.98	11.46
397.188	11.56
397.395	11.69
397.602	11.69
397.81	12.19
398.017	12.29
398.225	12.08
398.432	11.95
398.639	12
398.847	11.31
399.054	11.14
399.261	11
399.468	11.1
399.676	11.15
399.883	11.33
400.09	10.5
400.297	10.46
400.505	10.18
400.712	10.03
400.919	9.78
401.126	10.03
401.333	9.91
401.54	9.9
401.748	9.51
401.955	9.64
402.162	9.33
402.369	10.02
402.576	9.94
402.783	10.24
402.99	10.15
403.197	9.97
403.404	9.7
403.611	10.21
403.818	10.28
404.025	10.54
404.232	10.3
404.439	10
404.646	9.52
404.853	9.34
405.06	9.28
405.267	9.26
405.474	9.3
405.681	9.32
405.887	9.16
406.094	8.95
406.301	8.72
406.508	8.69
406.715	8.74
406.922	9.04
407.128	9.5
407.335	9.3
407.542	9.27
407.749	9.29
407.955	9.3
408.162	9.07
408.369	8.96
408.575	8.93
408.782	9.06
408.989	9.45
409.195	9.28
409.402	9.05
409.609	9.11
409.815	9
410.022	9.13
410.228	9.04
410.435	8.93
410.642	8.79
410.848	8.42
411.055	8.54
411.261	8.02
411.468	7.93
411.674	7.91
411.881	7.94
412.087	8.44
412.294	8.87
412.5	9.11
412.706	8.99
412.913	9.15
413.119	9.46
413.326	9.38
413.532	9.53
413.738	9.92
413.945	9.44
414.151	9.21
414.357	8.53
414.564	8.13
414.77	8.13
414.976	8.38
415.182	8.46
415.389	8.21
415.595	7.99
415.801	7.88
416.007	7.44
416.214	7.38
416.42	7.47
416.626	7.83
416.832	7.67
417.038	7.74
417.244	7.53
417.45	7.58
417.657	7.88
417.863	7.84
418.069	7.9
418.275	8.16
418.481	8.29
418.687	8.33
418.893	8.28
419.099	8.44
419.305	8.26
419.511	8.34
419.717	8.29
419.923	8.02
420.129	8.04
420.335	8.12
420.541	8.1
420.746	7.97
420.952	7.85
421.158	7.65
421.364	7.4
421.57	7.34
421.776	7.29
421.982	7.18
422.187	7.21
422.393	7.17
422.599	6.98
422.805	6.73
423.01	6.87
423.216	6.84
423.422	6.87
423.628	6.96
423.833	6.8
424.039	6.8
424.245	6.91
424.45	6.95
424.656	6.91
424.862	6.94
425.067	7.1
425.273	7.13
425.478	7.18
425.684	7.33
425.889	7.2
426.095	7.42
426.301	7.42
426.506	7.48
426.712	7.32
426.917	7.09
427.123	7.03
427.328	6.81
427.533	6.64
427.739	6.72
427.944	6.63
428.15	6.77
428.355	6.76
428.561	6.74
428.766	6.41
428.971	6.59
429.177	6.87
429.382	6.92
429.587	7.03
429.793	7.15
429.998	6.87
430.203	6.79
430.408	6.82
430.614	6.85
430.819	6.76
431.024	7.08
431.229	7.11
431.434	6.94
431.64	7.13
431.845	7.25
432.05	7.2
432.255	7.18
432.46	7.25
432.665	6.97
432.87	7.05
433.076	7.25
433.281	6.97
433.486	6.8
433.691	6.82
433.896	6.61
434.101	6.47
434.306	6.32
434.511	6.25
434.716	6.15
434.921	6.42
435.126	6.3
435.331	5.96
435.535	5.9
435.74	5.83
435.945	5.7
436.15	5.91
436.355	5.97
436.56	6.08
436.765	6.02
436.97	6.29
437.174	6.22
437.379	6.23
437.584	6.47
437.789	6.64
437.993	6.92
438.198	7
438.403	6.92
438.608	6.9
438.812	6.86
439.017	7.19
439.222	7.12
439.426	7.06
439.631	7
439.836	7.06
440.04	6.9
440.245	6.77
440.45	6.83
440.654	6.89
440.859	6.78
441.063	6.77
441.268	6.6
441.472	6.48
441.677	6.6
441.881	6.73
442.086	6.69
442.29	6.8
442.495	6.78
442.699	6.86
442.904	6.75
443.108	6.83
443.312	6.91
443.517	7.01
443.721	7.05
443.925	6.82
444.13	6.7
444.334	6.55
444.538	6.46
444.743	6.45
444.947	6.36
445.151	6.28
445.356	6.35
445.56	6.23
445.764	6.33
445.968	6.3
446.173	6.32
446.377	6.25
446.581	6.29
446.785	6.27
446.989	6.27
447.193	6.39
447.398	6.38
447.602	6.28
447.806	6.41
448.01	6.27
448.214	6.27
448.418	6.2
448.622	6.27
448.826	6.25
449.03	6.45
449.234	6.54
449.438	6.56
449.642	6.63
449.846	6.6
450.05	6.65
450.254	6.53
450.458	6.72
450.662	6.91
450.866	6.86
451.069	6.73
451.273	6.55
451.477	6.31
451.681	6.25
451.885	6.21
452.089	6.12
452.292	5.84
452.496	5.83
452.7	5.7
452.904	5.65
453.107	5.81
453.311	5.83
453.515	5.89
453.719	6.12
453.922	6.03
454.126	6.11
454.33	6.35
454.533	6.49
454.737	6.69
454.94	6.55
455.144	6.56
455.348	6.52
455.551	6.68
455.755	6.54
455.958	6.63
456.162	6.57
456.365	6.6
456.569	6.57
456.772	6.67
456.976	6.46
457.179	6.54
457.383	6.55
457.586	6.44
457.79	6.37
457.993	6.43
458.196	6.24
458.4	6.29
458.603	6.31
458.807	6.23
459.01	6.23
459.213	6.27
459.417	6.32
459.62	6.34
459.823	6.31
460.026	6.32
460.23	6.33
460.433	6.25
460.636	6.22
460.839	6.28
461.042	6.36
461.246	6.21
461.449	6.29
461.652	6.26
461.855	6.24
462.058	6.43
462.261	6.37
462.464	6.36
462.668	6.52
462.871	6.63
463.074	6.49
463.277	6.38
463.48	6.54
463.683	6.63
463.886	6.55
464.089	6.57
464.292	6.35
464.495	6.25
464.698	6.4
464.901	6.39
465.104	6.4
465.306	6.33
465.509	6.28
465.712	6.3
465.915	6.18
466.118	6.38
466.321	6.42
466.524	6.46
466.726	6.55
466.929	6.43
467.132	6.28
467.335	6.18
467.538	6.43
467.74	6.47
467.943	6.49
468.146	6.45
468.348	6.33
468.551	6.21
468.754	6.3
468.956	6.33
469.159	6.33
469.362	6.42
469.564	6.61
469.767	6.44
469.969	6.55
470.172	6.42
470.375	6.51
470.577	6.61
470.78	6.7
470.982	6.83
471.185	6.85
471.387	6.82
471.59	6.86
471.792	6.59
471.995	6.58
472.197	6.69
472.399	6.56
472.602	6.6
472.804	6.55
473.007	6.7
473.209	6.47
473.411	6.58
473.614	6.56
473.816	6.52
474.018	6.52
474.22	6.55
474.423	6.3
474.625	6.42
474.827	6.69
475.03	6.61
475.232	6.31
475.434	6.22
475.636	6.11
475.838	6.21
476.04	6.09
476.243	6.11
476.445	5.96
476.647	6.11
476.849	6.3
477.051	5.91
477.253	5.77
477.455	5.89
477.657	5.98
477.859	5.97
478.061	6.07
478.263	6.23
478.465	6.28
478.667	6.21
478.869	6.11
479.071	6.03
479.273	6.27
479.475	6.47
479.677	6.44
479.879	6.41
480.081	6.57
480.283	6.51
480.485	6.58
480.686	6.43
480.888	6.62
481.09	6.69
481.292	6.71
481.494	6.48
481.695	6.43
481.897	6.35
482.099	6.36
482.301	6.2
482.502	6.18
482.704	6.1
482.906	6.13
483.107	6.11
483.309	6
483.511	5.94
483.712	5.99
483.914	5.99
484.115	6.05
484.317	6.01
484.519	6.01
484.72	6.05
484.922	6.02
485.123	6.05
485.325	6.01
485.526	6.08
485.728	6.14
485.929	6.16
486.131	6.18
486.332	6.17
486.534	6.24
486.735	6.24
486.936	6.13
487.138	6.14
487.339	6.11
487.541	6.18
487.742	6.19
487.943	6.18
488.144	6.16
488.346	6.08
488.547	6.07
488.748	6.01
488.95	5.96
489.151	5.95
489.352	6.07
489.553	6.1
489.755	6.07
489.956	6.03
490.157	5.93
490.358	5.92
490.559	5.97
490.76	5.96
490.961	5.98
491.163	6.09
491.364	6.08
491.565	6.06
491.766	6.09
491.967	6.14
492.168	6.14
492.369	6.21
492.57	6.17
492.771	6.18
492.972	6.19
493.173	6.16
493.374	6.1
493.575	6.17
493.776	6.11
493.976	6.11
494.177	5.93
494.378	6.01
494.579	5.95
494.78	5.95
494.981	5.85
495.182	5.94
495.382	6.02
495.583	6.13
495.784	6.12
495.985	6.14
496.185	6.2
496.386	6.27
496.587	6.2
496.788	6.28
496.988	6.22
497.189	6.39
497.39	6.38
497.59	6.44
497.791	6.48
497.992	6.61
498.192	6.66
498.393	6.54
498.593	6.65
498.794	6.72
498.994	6.76
499.195	6.9
499.395	6.97
499.596	7.02
499.796	7.04
499.997	7.22
500.197	7.18
500.398	7.32
500.598	7.48
500.799	7.37
500.999	7.36
501.199	7.53
501.4	7.54
501.6	7.46
501.801	7.43
502.001	7.4
502.201	7.28
502.402	7.23
502.602	7.2
502.802	7.14
503.002	7.28
503.203	7.35
503.403	7.29
503.603	7.54
503.803	7.86
504.003	7.98
504.204	8.18
504.404	8.4
504.604	8.44
504.804	8.61
505.004	8.91
505.204	9.08
505.404	9.14
505.604	9.23
505.804	9.16
506.005	9.02
506.205	9.07
506.405	9.11
506.605	9.03
506.805	9.24
507.005	9.23
507.204	9.15
507.404	9.14
507.604	9.28
507.804	9.44
508.004	9.5
508.204	9.52
508.404	9.64
508.604	9.7
508.804	9.85
509.003	10.05
509.203	10.15
509.403	10.23
509.603	10.44
509.803	10.62
510.002	10.71
510.202	10.86
510.402	11.08
510.602	11.19
510.801	11.27
511.001	11.34
511.201	11.26
511.4	11.27
511.6	11.48
511.8	11.5
511.999	11.44
512.199	11.47
512.398	11.63
512.598	11.75
512.797	11.85
512.997	12.07
513.197	12.12
513.396	12.11
513.596	12.27
513.795	12.32
513.994	12.48
514.194	12.63
514.393	12.83
514.593	12.81
514.792	12.86
514.992	13.05
515.191	13.01
515.39	13.15
515.59	13.47
515.789	13.5
515.988	13.53
516.188	13.43
516.387	13.6
516.586	13.82
516.786	14
516.985	14.18
517.184	14.25
517.383	14.53
517.582	14.63
517.782	14.72
517.981	14.84
518.18	14.9
518.379	15.09
518.578	15.22
518.777	15.13
518.976	15.21
519.176	15.2
519.375	15.27
519.574	15.25
519.773	15.38
519.972	15.44
520.171	15.6
520.37	15.79
520.569	15.97
520.768	15.91
520.967	16.21
521.166	16.37
521.365	16.55
521.564	16.75
521.762	16.94
521.961	16.98
522.16	17.06
522.359	17
522.558	16.99
522.757	17.08
522.956	17.27
523.154	17.26
523.353	17.28
523.552	17.57
523.751	17.63
523.949	17.72
524.148	17.82
524.347	18.02
524.546	18.31
524.744	18.57
524.943	18.58
525.142	18.62
525.34	18.63
525.539	18.73
525.737	18.67
525.936	18.67
526.135	18.85
526.333	18.93
526.532	18.95
526.73	18.96
526.929	18.94
527.127	19.05
527.326	19.1
527.524	19.28
527.723	19.35
527.921	19.45
528.12	19.57
528.318	19.59
528.516	19.67
528.715	19.74
528.913	19.79
529.112	19.91
529.31	19.91
529.508	19.98
529.707	20.03
529.905	20.08
530.103	20.09
530.301	20.08
530.5	20.11
530.698	20.21
530.896	20.31
531.094	20.41
531.293	20.4
531.491	20.57
531.689	20.67
531.887	20.72
532.085	20.9
532.283	20.94
532.481	21.08
532.68	21.09
532.878	21.16
533.076	21.26
533.274	21.36
533.472	21.47
533.67	21.55
533.868	21.62
534.066	21.63
534.264	21.61
534.462	21.75
534.66	21.85
534.858	22.1
535.056	22.15
535.253	22.19
535.451	22.29
535.649	22.31
535.847	22.36
536.045	22.57
536.243	22.72
536.441	22.69
536.638	22.87
536.836	22.82
537.034	22.6
537.232	22.61
537.43	22.66
537.627	22.65
537.825	22.8
538.023	22.81
538.22	22.77
538.418	22.79
538.616	22.93
538.813	22.88
539.011	23.05
539.209	23.41
539.406	23.43
539.604	23.58
539.801	23.75
539.999	23.73
540.196	23.88
540.394	23.81
540.591	23.84
540.789	23.86
540.986	23.85
541.184	23.86
541.381	23.83
541.579	23.94
541.776	23.93
541.974	23.87
542.171	23.91
542.368	23.96
542.566	24.11
542.763	24.26
542.96	24.28
543.158	24.39
543.355	24.48
543.552	24.58
543.75	24.6
543.947	24.59
544.144	24.73
544.341	24.84
544.539	24.78
544.736	24.7
544.933	24.72
545.13	24.91
545.327	25.02
545.524	24.9
545.722	24.91
545.919	24.86
546.116	24.94
546.313	24.98
546.51	24.96
546.707	25.24
546.904	25.48
547.101	25.42
547.298	25.44
547.495	25.28
547.692	25.48
547.889	25.46
548.086	25.75
548.283	25.77
548.48	25.86
548.677	26.03
548.874	25.83
549.07	25.75
549.267	25.7
549.464	25.84
549.661	26.07
549.858	26.07
550.055	26.18
550.251	26.13
550.448	26.28
550.645	26.26
550.842	26.12
551.038	26.33
551.235	26.39
551.432	26.64
551.628	26.52
551.825	26.56
552.022	26.49
552.218	26.48
552.415	26.57
552.612	26.73
552.808	26.57
553.005	26.78
553.201	26.73
553.398	26.64
553.594	26.57
553.791	26.77
553.987	26.64
554.184	26.8
554.38	26.95
554.577	26.8
554.773	26.67
554.97	26.93
555.166	26.7
555.362	26.97
555.559	27.09
555.755	27.16
555.952	27.28
556.148	27.48
556.344	27.58
556.541	27.48
556.737	27.61
556.933	27.84
557.129	27.96
557.326	28.04
557.522	27.67
557.718	27.59
557.914	27.64
558.11	27.67
558.307	27.57
558.503	27.46
558.699	27.58
558.895	27.56
559.091	27.43
559.287	27.56
559.483	27.56
559.679	27.79
559.876	28.17
560.072	28.22
560.268	28.11
560.464	28.28
560.66	28.14
560.856	28.36
561.052	28.34
561.247	28.33
561.443	28.25
561.639	28.26
561.835	28.23
562.031	28.04
562.227	27.99
562.423	27.7
562.619	27.69
562.815	27.93
563.01	27.78
563.206	28.12
563.402	28.28
563.598	28.13
563.793	28.21
563.989	28.16
564.185	28.21
564.381	28.17
564.576	28.61
564.772	28.62
564.968	28.57
565.163	28.55
565.359	28.46
565.555	28.49
565.75	28.53
565.946	28.59
566.141	28.62
566.337	28.6
566.532	28.64
566.728	28.4
566.923	28.48
567.119	28.66
567.314	28.86
567.51	28.67
567.705	28.4
567.901	28.28
568.096	28.29
568.292	28.32
568.487	28.25
568.682	28.34
568.878	28.58
569.073	28.57
569.268	28.71
569.464	28.49
569.659	28.48
569.854	28.75
570.05	29.09
570.245	29.24
570.44	29.26
570.635	29.5
570.831	29.54
571.026	29.39
571.221	29.52
571.416	29.38
571.611	29.45
571.806	29.7
572.002	29.57
572.197	29.45
572.392	29.42
572.587	29.52
572.782	29.34
572.977	29.18
573.172	29.21
573.367	29.15
573.562	29.07
573.757	29.12
573.952	28.95
574.147	29.07
574.342	29.28
574.537	29.33
574.732	29.19
574.927	29.34
575.121	29.57
575.316	29.65
575.511	29.57
575.706	29.61
575.901	29.58
576.096	29.7
576.29	29.75
576.485	29.52
576.68	29.25
576.875	29.37
577.069	29.39
577.264	29.31
577.459	29.33
577.654	29.38
577.848	29.5
578.043	29.66
578.238	29.9
578.432	30.09
578.627	30.22
578.821	30.7
579.016	30.88
579.21	30.74
579.405	30.58
579.6	30.5
579.794	30.44
579.989	30.41
580.183	30.32
580.378	30.19
580.572	30.05
580.766	30.16
580.961	29.93
581.155	29.44
581.35	29.33
581.544	29.63
581.738	29.86
581.933	30.06
582.127	30.12
582.321	30.01
582.516	29.77
582.71	29.8
582.904	29.64
583.099	29.61
583.293	30.08
583.487	30.21
583.681	30.12
583.875	30.03
584.07	30.1
584.264	30.38
584.458	30.51
584.652	30.54
584.846	30.18
585.04	30.39
585.234	30.42
585.428	30.34
585.623	30.54
585.817	30.8
586.011	30.75
586.205	30.63
586.399	30.51
586.593	30.54
586.787	30.42
586.981	30.61
587.174	30.3
587.368	30.3
587.562	30.39
587.756	30.37
587.95	30.23
588.144	30.38
588.338	30.25
588.532	30.12
588.725	29.93
588.919	30.36
589.113	30.53
589.307	30.65
589.501	30.83
589.694	30.79
589.888	30.6
590.082	30.67
590.275	30.63
590.469	30.84
590.663	30.58
590.856	30.84
591.05	30.68
591.244	30.69
591.437	30.68
591.631	30.75
591.824	30.68
592.018	31.07
592.212	30.82
592.405	30.71
592.599	30.68
592.792	30.77
592.986	30.89
593.179	31.09
593.372	31.25
593.566	31.28
593.759	30.96
593.953	30.88
594.146	30.69
594.339	30.86
594.533	31.08
594.726	30.94
594.92	30.94
595.113	30.75
595.306	30.64
595.499	30.59
595.693	30.61
595.886	30.96
596.079	30.97
596.272	30.96
596.466	30.94
596.659	30.66
596.852	30.85
597.045	31.01
597.238	30.94
597.431	30.74
597.624	30.8
597.818	31.05
598.011	30.78
598.204	30.97
598.397	30.91
598.59	30.76
598.783	30.81
598.976	30.72
599.169	30.57
599.362	30.85
599.555	31.37
599.748	31.38
599.941	31.12
600.134	31.14
600.326	31.04
600.519	31.34
600.712	31.59
600.905	31.84
601.098	32.01
601.291	32.16
601.483	31.85
601.676	31.53
601.869	31.38
602.062	31.46
602.255	31.66
602.447	31.77
602.64	31.77
602.833	31.74
603.025	31.67
603.218	31.46
603.411	31.61
603.603	31.76
603.796	31.71
603.989	31.82
604.181	31.85
604.374	31.73
604.566	31.76
604.759	31.75
604.951	31.83
605.144	31.84
605.336	31.78
605.529	31.65
605.721	31.53
605.914	31.62
606.106	31.33
606.299	31.36
606.491	31.29
606.683	31.2
606.876	30.97
607.068	30.76
607.26	30.9
607.453	31.05
607.645	31.14
607.837	31.24
608.03	31.23
608.222	31.49
608.414	31.39
608.606	31.56
608.799	31.55
608.991	31.57
609.183	31.55
609.375	31.43
609.567	31.28
609.759	31.21
609.952	31.29
610.144	31.33
610.336	31.27
610.528	31.1
610.72	31.19
610.912	31.17
611.104	31.17
611.296	31.1
611.488	30.98
611.68	31.26
611.872	31.23
612.064	31.03
612.256	30.66
612.448	30.68
612.64	31.04
612.832	30.7
613.023	30.76
613.215	30.56
613.407	30.56
613.599	30.8
613.791	30.76
613.983	31.16
614.174	31.34
614.366	31.79
614.558	31.99
614.75	31.89
614.941	32.38
615.133	32.41
615.325	32.36
615.516	32.46
615.708	32.42
615.9	32.29
616.091	31.86
616.283	31.67
616.475	31.66
616.666	31.5
616.858	31.41
617.049	31.61
617.241	31.66
617.432	32.15
617.624	32.57
617.815	32.37
618.007	32.4
618.198	32.67
618.39	32.81
618.581	32.85
618.773	32.8
618.964	32.75
619.155	32.42
619.347	32.38
619.538	32.46
619.729	32.24
619.921	32.41
620.112	32.62
620.303	32.66
620.494	32.69
620.686	32.59
620.877	32.59
621.068	32.65
621.259	32.64
621.451	32.4
621.642	32.26
621.833	32.29
622.024	32.65
622.215	32.64
622.406	32.68
622.597	32.6
622.788	32.57
622.98	32.73
623.171	32.58
623.362	32.69
623.553	33
623.744	33.05
623.935	32.83
624.126	32.37
624.317	32.39
624.508	32.1
624.698	32.36
624.889	32.57
625.08	32.4
625.271	32.47
625.462	32.33
625.653	32.07
625.844	32.23
626.034	32.45
626.225	32.34
626.416	31.93
626.607	31.83
626.798	31.6
626.988	31.39
627.179	31.38
627.37	31.57
627.56	31.76
627.751	31.7
627.942	31.66
628.132	31.64
628.323	31.76
628.514	32.18
628.704	32.27
628.895	32.2
629.085	32.37
629.276	32.27
629.466	32.19
629.657	32.21
629.847	32.65
630.038	32.34
630.228	32.52
630.419	32.22
630.609	32.27
630.8	32.15
630.99	32.31
631.181	31.82
631.371	31.83
631.561	32.07
631.752	32.07
631.942	31.95
632.132	32.19
632.323	31.73
632.513	32.31
632.703	32.1
632.893	32.51
633.084	32.29
633.274	32.51
633.464	32.3
633.654	32.2
633.844	31.95
634.034	31.86
634.225	31.82
634.415	32.3
634.605	32.23
634.795	32.48
634.985	32.09
635.175	32.4
635.365	32.78
635.555	32.95
635.745	32.95
635.935	32.88
636.125	32.88
636.315	32.72
636.505	32.39
636.695	32.4
636.885	32.02
637.075	32.42
637.265	32.4
637.455	32.3
637.644	32.68
637.834	32.35
638.024	32.57
638.214	32.66
638.404	32.84
638.593	33.18
638.783	32.94
638.973	33.38
639.163	33.24
639.352	33.61
639.542	33.8
639.732	33.33
639.921	33.45
640.111	33.51
640.301	33.48
640.49	33.54
640.68	33.53
640.87	33.46
641.059	33.22
641.249	33.05
641.438	32.77
641.628	32.55
641.817	32.93
642.007	33.14
642.196	33.35
642.386	33.29
642.575	33.21
642.764	32.74
642.954	33.21
643.143	33.68
643.333	34.08
643.522	34.18
643.711	34.04
643.901	34.02
644.09	34.48
644.279	34.22
644.469	34.23
644.658	34.19
644.847	34.74
645.036	35.11
645.226	34.73
645.415	34.28
645.604	34.07
645.793	34.15
645.982	34.19
646.171	33.55
646.361	33.4
646.55	33.55
646.739	33.47
646.928	33.71
647.117	32.89
647.306	32.79
647.495	33.09
647.684	33.23
647.873	32.81
648.062	33.09
648.251	33.21
648.44	33.63
648.629	33.89
648.818	33.8
649.007	33.02
649.196	33.3
649.384	33.02
649.573	33.12
649.762	33.26
649.951	33.88
650.14	33.52
650.328	33.83
650.517	33.68
650.706	33.11
650.895	33.64
651.083	33.87
651.272	33.8
651.461	33.9
651.65	33.72
651.838	33.51
652.027	33.33
652.216	33.42
652.404	33.18
652.593	32.7
652.781	33.24
652.97	33.16
653.158	33.22
653.347	33.41
653.535	33.32
653.724	33.33
653.912	33.33
654.101	33.39
654.289	33.52
654.478	33.59
654.666	33.73
654.855	33.38
655.043	33.05
655.231	32.8
655.42	32.73
655.608	33.17
655.796	33.14
655.985	33.06
656.173	33.38
656.361	33.17
656.55	33.01
656.738	33.25
656.926	33.35
657.114	33.51
657.302	33.46
657.491	33.79
657.679	33.91
657.867	33.97
658.055	33.72
658.243	33.5
658.431	33.95
658.619	34.42
658.807	34.67
658.996	34.76
659.184	34.65
659.372	34.98
659.56	34.68
659.748	34.48
659.936	34.32
660.124	34.5
660.311	34.26
660.499	33.76
660.687	33.23
660.875	33.04
661.063	32.86
661.251	33.02
661.439	33.21
661.627	33.07
661.814	33.24
662.002	33.73
662.19	33.69
662.378	33.87
662.565	33.85
662.753	33.81
662.941	33.36
663.129	33.32
663.316	33.03
663.504	32.25
663.692	32.62
663.879	32.24
664.067	31.89
664.254	32.26
664.442	32.55
664.63	32.93
664.817	33.83
665.005	34.8
665.192	35.14
665.38	35.48
665.567	36.21
665.755	36.26
665.942	36.82
666.13	36.89
666.317	36.47
666.504	36.01
666.692	35.95
666.879	35.24
667.067	35.02
667.254	34.89
667.441	35.28
667.629	35
667.816	34.59
668.003	34.2
668.19	34.32
668.378	34.86
668.565	35.35
668.752	35.23
668.939	35.45
669.127	34.67
669.314	34.76
669.501	33.86
669.688	33.88
669.875	34.18
670.062	34.51
670.249	34.17
670.436	34.16
670.623	34.05
670.81	34.25
670.997	34.3
671.184	34.98
671.371	34.91
671.558	34.96
671.745	35.14
671.932	35.26
672.119	35.08
672.306	34.97
672.493	34.41
672.68	34.05
672.867	34.25
673.054	33.81
673.24	33.43
673.427	33.92
673.614	34.09
673.801	34.13
673.988	34.45
674.174	34.17
674.361	34.75
674.548	35.11
674.734	35.31
674.921	35.15
675.108	34.83
675.294	34.62
675.481	33.95
675.668	34.23
675.854	34.17
676.041	33.6
676.227	33.43
676.414	33.22
676.601	32.86
676.787	32.87
676.974	32.71
677.16	32.78
677.347	33.16
677.533	33.57
677.719	33.7
677.906	33.59
678.092	33.56
678.279	34.16
678.465	34.45
678.651	34.63
678.838	34.58
679.024	34.19
679.21	34.24
679.397	33.86
679.583	33.58
679.769	33.38
679.955	33.26
680.142	33
680.328	33
680.514	32.84
680.7	32.96
680.886	33.1
681.073	33.43
681.259	34.09
681.445	34.65
681.631	34.7
681.817	34.9
682.003	35.35
682.189	35.83
682.375	35.57
682.561	35.26
682.747	34.91
682.933	34.98
683.119	34.93
683.305	34.8
683.491	34.65
683.677	34.33
683.863	34.04
684.049	33.75
684.235	33.85
684.42	33.95
684.606	34.15
684.792	34.25
684.978	34.68
685.164	34.44
685.349	34.08
685.535	33.87
685.721	34.37
685.907	34.2
686.092	34.4
686.278	34.28
686.464	34.13
686.649	34.32
686.835	34.32
687.021	33.98
687.206	34.39
687.392	34.61
687.577	35
687.763	34.6
687.948	34.75
688.134	34.3
688.319	33.98
688.505	33.99
688.69	34.34
688.876	34.29
689.061	34.27
689.247	33.92
689.432	33.62
689.618	33.51
689.803	34.05
689.988	34.4
690.174	34.71
690.359	34.61
690.544	34.45
690.73	33.89
690.915	34.44
691.1	34.09
691.285	34.51
691.471	35.1
691.656	35.42
691.841	35.26
692.026	34.86
692.211	34.88
692.396	35.07
692.582	35.65
692.767	35.84
692.952	35.24
693.137	35.75
693.322	35.21
693.507	35.12
693.692	34.83
693.877	35.24
694.062	35.16
694.247	34.94
694.432	35.19
694.617	35.1
694.802	34.86
694.987	34.62
695.172	34.36
695.357	35.44
695.541	35.18
695.726	35.44
695.911	34.83
696.096	35.66
696.281	35.11
696.466	35.67
696.65	35.16
696.835	34.79
697.02	35.91
697.204	35.7
697.389	35.17
697.574	35.36
697.759	34.71
697.943	34.73
698.128	34.73
698.312	35.01
698.497	34.71
698.682	34.99
698.866	34.96
699.051	34.49
699.235	34.51
699.42	34.12
699.604	34.01
699.789	33.98
699.973	34.07
700.158	33.66
700.342	33.66
700.527	33.55
700.711	33.49
700.895	34.41
701.08	34.04
701.264	34.21
701.448	34.29
701.633	33.96
701.817	34.4
702.001	34.68
702.186	34.69
702.37	34.74
702.554	34.01
702.738	34
702.923	32.87
703.107	33.54
703.291	33.21
703.475	34.03
703.659	34.32
703.843	34.96
704.027	34.83
704.212	34.79
704.396	34.23
704.58	34.88
704.764	34.4
704.948	34.73
705.132	34.07
705.316	34.36
705.5	33.49
705.684	33.45
705.868	32.9
706.052	32.73
706.235	32.58
706.419	33.74
706.603	33.76
706.787	33.7
706.971	33.91
707.155	34.17
707.339	34.92
707.522	35.41
707.706	35.56
707.89	35.2
708.074	34.99
708.257	35.85
708.441	35.31
708.625	35.75
708.808	36.61
708.992	36.51
709.176	36.92
709.359	36.01
709.543	36.01
709.727	35.46
709.91	35.6
710.094	35.75
710.277	35.08
710.461	35.27
710.644	34.08
710.828	34.2
711.011	34.76
711.195	34.22
711.378	34.63
711.562	34.89
711.745	35.68
711.928	35.73
712.112	35.48
712.295	35.35
712.478	35.56
712.662	36.37
712.845	36.19
713.028	35.93
713.212	35.95
713.395	35.26
713.578	34.76
713.761	33.99
713.945	34.34
714.128	34.67
714.311	35.15
714.494	34.95
714.677	35.31
714.86	34.93
715.043	34.43
715.227	34.74
715.41	35.35
715.593	36.22
715.776	36.51
715.959	35.86
716.142	35.65
716.325	35.44
716.508	35.29
716.691	35.08
716.874	35.38
717.057	35.33
717.239	35.53
717.422	34.95
717.605	34.16
717.788	33.61
717.971	33.38
718.154	33.48
718.337	33.15
718.519	33.47
718.702	32.81
718.885	33.29
719.068	33.19
719.25	32.81
719.433	33.25
719.616	33.45
719.798	33.51
719.981	33.93
720.164	33.23
720.346	33.78
720.529	32.92
720.712	33.19
720.894	32.11
721.077	32.37
721.259	32.82
721.442	32.72
721.624	32.6
721.807	33.78
721.989	34.63
722.172	35.39
722.354	35.11
722.537	36.57
722.719	37.54
722.901	37.88
723.084	38.65
723.266	38.73
723.448	38.54
723.631	38.73
723.813	38.84
723.995	37.87
724.178	37.89
724.36	38.16
724.542	37.3
724.724	35.94
724.907	35.79
725.089	35.23
725.271	34.99
725.453	34.91
725.635	35.23
725.817	34.16
725.999	34.37
726.181	34.1
726.364	33.67
726.546	34.15
726.728	35.17
726.91	34.9
727.092	34.52
727.274	33.94
727.456	34.37
727.638	33.78
727.819	34.48
728.001	34.22
728.183	34.28
728.365	34.79
728.547	35.27
728.729	35.68
728.911	36
729.093	36.18
729.274	37.03
729.456	36.7
729.638	36.53
729.82	36.03
730.001	36.35
730.183	36.96
730.365	37.64
730.546	36.79
730.728	36.72
730.91	36.75
731.091	37.19
731.273	37.36
731.455	37.58
731.636	38.53
731.818	39.28
731.999	39.28
732.181	38.51
732.362	38.14
732.544	37.56
732.725	36.67
732.907	36.99
733.088	37.23
733.27	36.45
733.451	36.72
733.633	36
733.814	35.9
733.995	34.55
734.177	34.85
734.358	34.18
734.539	34.65
734.721	34.53
734.902	34.52
735.083	33.22
735.264	33.12
735.446	33.34
735.627	33.71
735.808	33.45
735.989	35.09
736.17	34.94
736.351	35.25
736.533	35.68
736.714	36.32
736.895	36.56
737.076	37.34
737.257	38.06
737.438	38.4
737.619	38.64
737.8	37.37
737.981	36.55
738.162	36.55
738.343	36.98
738.524	36.91
738.705	36.93
738.886	36.59
739.067	37.22
739.247	36.56
739.428	35.32
739.609	35.61
739.79	37.27
739.971	37.47
740.151	38.04
740.332	37.49
740.513	37.3
740.694	37.04
740.874	37.28
741.055	36.53
741.236	36.75
741.417	36.5
741.597	35.71
741.778	35.55
741.958	36.12
742.139	35.71
742.32	35.85
742.5	36.15
742.681	36.43
742.861	35.29
743.042	36.05
743.222	36.39
743.403	37.99
743.583	39.08
743.764	38.79
743.944	38.23
744.124	38.33
744.305	39.43
744.485	39.08
744.666	39.01
744.846	39.74
745.026	40.28
745.207	42.39
745.387	40.86
745.567	40.15
745.747	39.69
745.928	40.85
746.108	40.87
746.288	39.5
746.468	38.66
746.648	38.43
746.829	37.98
747.009	38.07
747.189	35.91
747.369	35.3
747.549	36.17
747.729	37.22
747.909	36.62
748.089	36.91
748.269	37.18
748.449	37.51
748.629	37.53
748.809	37.09
748.989	36.55
749.169	36.42
749.349	38.5
749.529	38.21
749.709	38.49
749.889	38.03
750.068	38.58
750.248	39.43
750.428	40.26
750.608	40.8
750.788	40.85
750.967	40.78
751.147	40.31
751.327	39.07
751.507	37.62
751.686	36.54
751.866	36.96
752.046	36.1
752.225	35.78
752.405	35.77
752.585	36.28
752.764	37.47
752.944	37.63
753.123	38.71
753.303	40.14
753.482	40.63
753.662	41.04
753.841	41.81
754.021	42.03
754.2	41.17
754.38	41.37
754.559	39.16
754.739	37.93
754.918	37.01
755.097	36.41
755.277	35.21
755.456	35.82
755.635	34.45
755.815	33.79
755.994	33.79
756.173	33.27
756.352	33.44
756.532	34.03
756.711	35.71
756.89	35.81
757.069	36.1
757.248	35.95
757.427	35.89
757.607	37.69
757.786	37.95
757.965	38.77
758.144	38.97
758.323	37.94
758.502	38.83
758.681	38.65
758.86	38.52
759.039	38.25
759.218	38.94
759.397	39.06
759.576	38.04
759.755	36.92
759.934	36.22
760.113	37.08
760.291	37.48
760.47	37.78
760.649	36.99
760.828	37.69
761.007	37.69
761.186	35.46
761.364	34.43
761.543	35.23
761.722	35.26
761.901	34.37
762.079	34.66
762.258	34.9
762.437	34.13
762.615	33.56
762.794	32.63
762.972	32.82
763.151	34.38
763.33	34.54
763.508	34.29
763.687	34.65
763.865	34.45
764.044	34.4
764.222	34.3
764.401	34.63
764.579	35.68
764.758	36.1
764.936	35.54
765.114	35.51
765.293	36.1
765.471	35.9
765.65	35.88
765.828	35.64
766.006	34.92
766.184	34.54
766.363	33.71
766.541	32.13
766.719	32.32
766.898	33.05
767.076	33.38
767.254	33.77
767.432	34.59
767.61	34.73
767.788	35.86
767.967	35.12
768.145	34.58
768.323	34.08
768.501	34.6
768.679	33.46
768.857	32.41
769.035	31.52
769.213	30.78
769.391	30.77
769.569	29.6
769.747	28.51
769.925	28.35
770.103	30.19
770.281	31.93
770.459	33.52
770.636	35.23
770.814	34.9
770.992	34.22
771.17	33.78
771.348	32.84
771.525	34.91
771.703	36.7
771.881	37.54
772.059	37.37
772.236	37.48
772.414	37.95
772.592	36.58
772.769	37.48
772.947	39.03
773.125	39.12
773.302	39.15
773.48	36.04
773.657	34.58
773.835	35.53
774.013	35.86
774.19	36.79
774.368	35.79
774.545	36.88
774.723	37.93
774.9	38.17
775.077	39.66
775.255	40.3
775.432	41.34
775.61	40.8
775.787	41.55
775.964	39.76
776.142	38.14
776.319	36.75
776.496	35.84
776.674	35.74
776.851	35.38
777.028	33.28
777.205	34.46
777.382	37.2
777.56	38.44
777.737	36.45
777.914	36.68
778.091	37.96
778.268	39.28
778.445	40.36
778.622	40.67
778.8	40.47
778.977	40.24
779.154	39.27
779.331	37.64
779.508	37.88
779.685	38.48
779.862	39.39
780.038	39.21
780.215	39.02
780.392	38.17
780.569	35.69
780.746	37.64
780.923	38.82
781.1	38.96
781.277	38.24
781.453	36.78
781.63	36.5
781.807	36.6
781.984	36.52
782.16	38.12
782.337	39.08
782.514	41.28
782.691	38.4
782.867	38.9
783.044	37.12
783.221	37.85
783.397	38.58
783.574	38.63
783.75	37.73
783.927	38.63
784.103	37.69
784.28	35.78
784.456	35.75
784.633	37
784.809	36.63
784.986	35.91
785.162	36.31
785.339	36.03
785.515	38.05
785.692	38.2
785.868	38.72
786.044	38.28
786.221	39.21
786.397	39.54
786.573	38.27
786.749	36.59
786.926	38.91
787.102	38.83
787.278	38.59
787.454	36.4
787.631	35.69
787.807	33.49
787.983	34.04
788.159	34.52
788.335	32.47
788.511	34.07
788.687	33.77
788.863	33.72
789.039	33.43
789.216	33.69
789.392	34.56
789.568	35.65
789.744	36.75
789.919	34.97
790.095	34.65
790.271	36.04
790.447	35.46
790.623	35.78
790.799	34.86
790.975	34.87
791.151	35.96
791.327	36.88
791.502	37.03
791.678	35.31
791.854	35.37
792.03	33.54
792.205	31.67
792.381	31.03
792.557	32.37
792.733	32.09
792.908	31.54
793.084	31.41
793.259	30.33
793.435	30.99
793.611	33.05
793.786	35.53
793.962	36.35
794.137	39.27
794.313	38.19
794.488	36.82
794.664	36.61
794.839	37.39
795.015	38.46
795.19	38.66
795.366	37.66
795.541	35.29
795.716	35.83
795.892	38.24
796.067	37.97
796.242	39.09
796.418	39.36
796.593	41.37
796.768	40.58
796.944	41.4
797.119	42.17
797.294	42.36
797.469	42.56
797.644	40.7
797.82	40.78
797.995	38.79
798.17	41.13
798.345	41.76
798.52	40.24
798.695	41.2
798.87	38.8
799.045	37.88
799.22	37.48
799.395	40.39
799.57	40.52
799.745	40.62
799.92	43.36
800.095	43.33
800.27	43.06
800.445	43.05
800.62	42.27
800.795	42.99
800.97	44.73
801.145	42.13
801.319	40.74
801.494	39.29
801.669	38.84
801.844	37.71
802.018	36.14
802.193	34.89
802.368	35.73
802.543	36.77
802.717	35.61
802.892	32.48
803.067	33.08
803.241	33.36
803.416	34.2
803.59	33.23
803.765	31.49
803.94	29.34
804.114	28.82
804.289	28.81
804.463	26.71
804.638	28.46
804.812	28.75
804.986	32.33
805.161	31.1
805.335	30.76
805.51	31.05
805.684	32.46
805.858	34.4
806.033	38.33
806.207	37.82
806.381	39.57
806.556	39
806.73	37.31
806.904	36.59
807.078	40.03
807.253	41.05
807.427	39.92
807.601	41.54
807.775	42.18
807.949	41.3
808.123	40.57
808.298	38.48
808.472	36.87
808.646	38.88
808.82	37.37
808.994	35.86
809.168	36.95
809.342	37.82
809.516	36.91
809.69	35.37
809.864	34.19
810.038	34.71
810.212	36.27
810.385	38.09
810.559	39.55
810.733	40.63
810.907	38.51
811.081	36.91
811.255	36.24
811.428	35.29
811.602	35.79
811.776	37.44
811.95	38.29
812.123	41.41
812.297	40.26
812.471	39.15
812.644	39.48
812.818	41.12
812.992	41.13
813.165	43.8
813.339	44.14
813.512	45.47
813.686	44.29
813.86	45.08
814.033	42.94
814.207	45.15
814.38	47.68
814.554	49.54
814.727	46.14
814.9	44.42
815.074	44.3
815.247	46.48
815.421	43.84
815.594	44.02
815.767	45.1
815.941	44.01
816.114	46.2
816.287	45.73
816.46	42.59
816.634	45.09
816.807	45.04
816.98	44
817.153	44.17
817.327	45.09
817.5	42.42
817.673	37.17
817.846	36.56
818.019	31.37
818.192	31.27
818.365	33.53
818.538	32.89
818.711	36.82
818.884	35.43
819.057	31.28
819.23	32.74
819.403	37.59
819.576	38.49
819.749	38.36
819.922	38.35
820.095	35.77
820.268	35.27
820.441	35.83
820.614	36.13
820.786	36.95
820.959	38.07
821.132	36.84
821.305	35.42
821.477	35.72
821.65	34.88
821.823	34.92
821.996	34.46
822.168	35
822.341	34.68
822.514	34.69
822.686	34.87
822.859	34.76
823.031	35.54
823.204	35.9
823.376	35.68
823.549	36
823.722	36.24
823.894	36.66
824.067	36.73
824.239	36.66
824.411	36.54
824.584	36.45
824.756	36.45
824.929	35.68
825.101	34.69
825.273	34.51
825.446	35.14
825.618	34.89
825.79	35.24
825.963	35.07
826.135	35.03
826.307	34.8
826.479	34.01
826.652	33.63
826.824	33.98
826.996	34.48
827.168	35.37
827.34	34.94
827.512	35.29
827.684	35.27
827.856	35.01
828.029	35.65
828.201	35.15
828.373	35.64
828.545	36.41
828.717	36.85
828.889	37.38
829.061	36.65
829.232	37.4
829.404	37.17
829.576	38.07
829.748	38.4
829.92	38.76
830.092	39.37
830.264	39.51
830.436	39.25
830.607	39.67
830.779	39.9
830.951	41.17
831.123	40.91
831.294	40.81
831.466	39.5
831.638	40.1
831.809	41.19
831.981	42.44
832.153	43.44
832.324	45.43
832.496	45.21
832.667	44.36
832.839	42.83
833.011	43.19
833.182	44.72
833.354	42.03
833.525	41.39
833.697	38.31
833.868	37.89
834.039	38.49
834.211	34.77
834.382	34.16
834.554	35.89
834.725	35.11
834.896	34.39
835.068	33.51
835.239	35.66
835.41	36.54
835.581	37.39
835.753	36.66
835.924	34.49
836.095	35.88
836.266	35.54
836.438	32.95
836.609	35.55
836.78	35.72
836.951	35.27
837.122	35.21
837.293	34.49
837.464	35.03
837.635	34.97
837.806	36.95
837.977	38.09
838.148	37.24
838.319	39.51
838.49	40.17
838.661	40.46
838.832	41.66
839.003	40.12
839.174	39.37
839.345	41.33
839.516	44.15
839.687	44.04
839.857	44.66
840.028	47.42
840.199	48.52
840.37	47.14
840.54	48.37
840.711	50.48
840.882	50.68
841.053	48.03
841.223	50.77
841.394	48.19
841.564	49.42
841.735	47.32
841.906	45.36
842.076	41.75
842.247	44.06
842.417	42.36
842.588	40.32
842.758	41.38
842.929	39.11
843.099	30.99
843.27	32.41
843.44	30.08
843.611	33.7
843.781	35.52
843.951	39.52
844.122	37.24
844.292	42.24
844.462	44.49
844.633	50.96
844.803	49.3
844.973	47.49
845.144	50.67
845.314	46.58
845.484	40.42
845.654	46.22
845.824	46.57
845.995	44.41
846.165	37.2
846.335	28.21
846.505	21.3
846.675	28.91
846.845	33.54
847.015	28.37
847.185	38.37
847.355	47.83
847.525	44.33
847.695	32.29
847.865	33.96
848.035	37.03
848.205	43.63
848.375	51.41
848.545	54.48
848.715	54.31
848.884	48.3
849.054	47.05
849.224	42.52
849.394	34.58
849.564	40.07
849.733	31.58
849.903	34.83
850.073	30.81
850.243	23.86
850.412	18.9
850.582	17.74
850.752	21.53
850.921	16.89
851.091	24.11
851.26	29.72
851.43	31.06
851.599	33.16
851.769	27.74
851.939	28.51
852.108	28.18
852.278	29.56
852.447	33.05
852.616	31.81
852.786	38.72
852.955	29.47
853.125	27.69
853.294	28.95
853.463	28.63
853.633	28.56
853.802	31.98
853.971	33.23
854.141	29.41
854.31	22.28
854.479	18.16
854.648	11.43
854.818	22.26
854.987	20.81
855.156	22.18
855.325	29.12
855.494	29.74
855.663	30.23
855.832	33.13
856.001	33.4
856.171	40.56
856.34	44.82
856.509	47.75
856.678	49.28
856.847	49.34
857.016	44.91
857.185	45.22
857.353	47
857.522	45.27
857.691	36.37
857.86	45.15
858.029	43.66
858.198	48.08
858.367	54.82
858.535	42.19
858.704	45.38
858.873	51.74
859.042	55.89
859.21	56.93
859.379	55.46
859.548	65.42
859.717	61.11
859.885	58.62
860.054	55.24
860.222	50.3
860.391	55.34
860.56	57.13
860.728	52.91
860.897	49.49
861.065	54.11
861.234	57.49
861.402	52.47
861.571	50.96
861.739	51.58
861.908	56.74
862.076	50.52
862.244	51.45
862.413	42.69
862.581	42.59
862.749	42.02
862.918	46.14
863.086	42.2
863.254	47.33
863.423	44.22
863.591	47.53
863.759	41.84
863.927	47.94
864.096	44.57
864.264	47.67
864.432	54.86
864.6	54.62
864.768	44.06
864.936	40.82
865.104	42.53
865.272	45.5
865.44	34.45
865.608	26.45
865.776	24.55
865.944	20.78
866.112	27.01
866.28	25.43
866.448	30.55
866.616	28.31
866.784	27.38
866.952	19.19
867.12	18.06
867.288	21.01
867.455	32.52
867.623	36.73
867.791	46.01
867.959	49.6
868.127	47.47
868.294	49.28
868.462	68.94
868.63	96.36
868.797	102.77
868.965	89.33
869.133	85.04
869.3	78.97
869.468	77.18
869.636	63.48
869.803	58.16
869.971	59.94
870.138	51.41
870.306	44.05
870.473	33.51
870.641	28.11
870.808	28.22
870.975	28.54
871.143	29.24
871.31	34.25
871.478	41.44
871.645	39.49
871.812	38.74
871.98	40.04
872.147	38.57
872.314	47.48
872.482	48.82
872.649	41.55
872.816	46.54
872.983	46.53
873.15	43.65
873.318	33.31
873.485	41.06
873.652	41.33
873.819	40.02
873.986	45.22
874.153	44.42
874.32	45.67
874.487	55.84
874.654	48.61
874.821	54.55
874.988	52.16
875.155	54.88
875.322	43.26
875.489	43.1
875.656	46.53
875.823	38.06
875.99	36.79
876.157	39.03
876.324	32.79
876.49	40.07
876.657	32.83
876.824	27.48
876.991	36.64
877.157	49.8
877.324	48.17
877.491	45.56
877.658	41.83
877.824	38.23
877.991	39.69
878.157	46.99
878.324	43.58
878.491	29.73
878.657	33.76
878.824	30.11
878.99	31.16
879.157	30.34
879.323	32.64
879.49	37.33
879.656	39.89
879.823	31.93
879.989	22.18
880.156	19.71
880.322	27.44
880.488	32.36
880.655	30.22
880.821	24.39
880.987	27.67
881.154	32.19
881.32	33.16
881.486	34.15
881.652	38.17
881.819	36.14
881.985	38.39
882.151	35.49
882.317	33.74
882.483	36.7
882.649	37.58
882.816	37.57
882.982	34.37
883.148	33.31
883.314	33.61
883.48	33.83
883.646	36.27
883.812	35.56
883.978	37.7
884.144	37.23
884.31	36.99
884.476	36.58
884.642	35.47
884.807	36.57
884.973	36.3
885.139	36.04
885.305	35.07
885.471	32.6
885.637	34.35
885.802	34.14
885.968	33.95
886.134	33.19
886.3	33.78
886.465	33.68
886.631	30.41
886.797	33.26
886.962	34.72
887.128	36.45
887.293	39.35
887.459	42.68
887.625	40.53
887.79	42.45
887.956	39.96
888.121	39.93
888.287	43.91
888.452	49.65
888.618	46.95
888.783	41.5
