Data from CB_021_Reflection_1.txt Node
Date: Wed Nov 11 20:09:34 EST 2015
User: robert
Spectrometer: USB4E03001
Autoset integration time: false
Trigger mode: 4
Integration Time (sec): 1.000000E-1
Scans to average: 15
Electric dark correction enabled: true
Nonlinearity correction enabled: false
Boxcar width: 5
Stray light correction enabled: false
XAxis mode: Wavelengths
Stop averaging: false
Number of Pixels in Spectrum: 3648
>>>>>Begin Spectral Data<<<<<
177.566	-84.81
177.785	-106
178.005	421.01
178.225	44.35
178.445	9.75
178.665	22.06
178.885	-19.55
179.105	47.83
179.324	-6.12
179.544	56.32
179.764	-19.3
179.984	-230.59
180.204	11940
180.423	236.33
180.643	-345.7
180.863	112.77
181.083	29.98
181.302	93
181.522	191.93
181.742	-793.09
181.961	-206.97
182.181	-2037.2
182.401	997.98
182.621	25.09
182.84	-30.74
183.06	-86.79
183.279	-301.97
183.499	-162.99
183.719	-102.59
183.938	-106.4
184.158	-89.78
184.377	-71.43
184.597	-89.91
184.816	-41.53
185.036	-55.04
185.256	-28.14
185.475	36.33
185.695	17.18
185.914	11.14
186.134	-1108.29
186.353	2382.51
186.572	361.91
186.792	317.33
187.011	1057.88
187.231	1292.95
187.45	546.77
187.67	375.44
187.889	362.03
188.108	246.08
188.328	375.74
188.547	600.63
188.766	613.68
188.986	2034
189.205	2356.31
189.424	533.29
189.644	279.12
189.863	267.34
190.082	590.97
190.302	84.9
190.521	174.51
190.74	41.27
190.959	49.11
191.178	61.11
191.398	37.59
191.617	66.54
191.836	42.22
192.055	97.61
192.274	167.01
192.494	194.18
192.713	495.72
192.932	580.45
193.151	-66.85
193.37	-4.06
193.589	-37.66
193.808	-78.08
194.027	6.28
194.246	196.15
194.465	98.5
194.685	176.99
194.904	106.17
195.123	13.28
195.342	38.74
195.561	-119.83
195.78	-2100
195.999	-32.55
196.218	-105.29
196.436	-632.05
196.655	1282.45
196.874	729.55
197.093	1577.66
197.312	-433.09
197.531	977.94
197.75	479.7
197.969	444.48
198.188	784.81
198.407	358.4
198.625	379.72
198.844	511.86
199.063	-1494.77
199.282	-843.92
199.501	-368.47
199.719	-246.09
199.938	-270.11
200.157	1134.45
200.376	-43.17
200.594	65.04
200.813	-9.36
201.032	36.74
201.251	49.9
201.469	136.15
201.688	30.57
201.907	-21.52
202.125	6.45
202.344	-93.54
202.563	-7.76
202.781	-62.33
203	-19.54
203.218	48.55
203.437	61.71
203.656	27.09
203.874	126.14
204.093	574.44
204.311	568.35
204.53	237.17
204.748	320.99
204.967	381.61
205.185	7049.52
205.404	-201.63
205.622	-38.88
205.841	21.69
206.059	-5.05
206.278	37.4
206.496	31.61
206.715	-43.59
206.933	-10.6
207.151	-8.56
207.37	-85.14
207.588	-58.95
207.806	-3.03
208.025	-41.46
208.243	185.61
208.461	50.12
208.68	60.7
208.898	665.96
209.116	285.45
209.335	1448.49
209.553	288.44
209.771	709.54
209.989	-710.09
210.208	-133
210.426	-126.13
210.644	-133.24
210.862	-306.64
211.081	-155.72
211.299	72.17
211.517	142.98
211.735	597.41
211.953	171.59
212.171	314.46
212.39	-2013.97
212.608	-252.6
212.826	-104.81
213.044	-113.82
213.262	-129.67
213.48	-84.94
213.698	-49.98
213.916	-72.27
214.134	-5.2
214.352	-53.87
214.57	24.04
214.788	-28.66
215.006	-23.1
215.224	152.44
215.442	386.15
215.66	272.72
215.878	328.76
216.096	115.74
216.314	144.68
216.532	270.84
216.75	256.13
216.968	132.25
217.185	136.7
217.403	123.32
217.621	194.87
217.839	53.43
218.057	56.92
218.275	82.14
218.492	-133.63
218.71	180.28
218.928	159.24
219.146	233.52
219.363	1016.18
219.581	-463.55
219.799	-107.87
220.017	-259.32
220.234	-208.14
220.452	-263.89
220.67	-521.66
220.887	3945.4
221.105	-606.71
221.323	-109.97
221.54	-79.35
221.758	-355.55
221.976	-94.21
222.193	-89.78
222.411	-14.24
222.629	2.55
222.846	-37.2
223.064	39.84
223.281	95.15
223.499	84.27
223.716	68.47
223.934	21.64
224.151	27.12
224.369	33.22
224.586	36.62
224.804	29.75
225.021	18.42
225.239	24.53
225.456	-15.7
225.674	-48.74
225.891	-52.06
226.108	-42.57
226.326	-17.18
226.543	8.39
226.76	11.82
226.978	7.88
227.195	2.65
227.413	12.29
227.63	17.19
227.847	13.39
228.064	11.81
228.282	9.71
228.499	8.68
228.716	11.86
228.934	10.54
229.151	10.6
229.368	11.22
229.585	15.57
229.802	13.41
230.02	10.03
230.237	11.98
230.454	13.77
230.671	10.44
230.888	12.03
231.105	15.4
231.323	11.77
231.54	9.45
231.757	8.45
231.974	-0.05
232.191	-4.41
232.408	1.13
232.625	2.87
232.842	0.93
233.059	1.11
233.276	6.91
233.493	1.79
233.71	4.61
233.927	6.95
234.144	1.46
234.361	3.43
234.578	2.38
234.795	-4.29
235.012	-4.11
235.229	-5.79
235.446	-0.5
235.663	-9.1
235.879	-12.18
236.096	-4.05
236.313	-13.96
236.53	0.49
236.747	9.99
236.964	9.68
237.181	9.51
237.397	9.86
237.614	10.04
237.831	9.2
238.048	3.71
238.264	-0.48
238.481	0.86
238.698	-0.21
238.915	-6.95
239.131	-15.02
239.348	-6.06
239.565	1.88
239.781	-2.89
239.998	-4.32
240.215	-1.5
240.431	0.72
240.648	0.81
240.865	-0.51
241.081	3.2
241.298	3.73
241.514	5.49
241.731	8.03
241.947	5.62
242.164	6.36
242.38	8.55
242.597	7.57
242.814	8.72
243.03	10.24
243.246	10.73
243.463	10.19
243.679	7.96
243.896	8.31
244.112	7.51
244.329	10.69
244.545	11.62
244.762	11.27
244.978	14.15
245.194	16.47
245.411	16.46
245.627	15.53
245.843	15.66
246.06	15.46
246.276	15.37
246.492	12.76
246.709	10.75
246.925	10.74
247.141	10.74
247.357	9.76
247.574	9.55
247.79	9.32
248.006	8.47
248.222	9.86
248.439	10.31
248.655	9.6
248.871	10.37
249.087	11.07
249.303	11.09
249.519	10.95
249.736	10.79
249.952	9.96
250.168	11.32
250.384	12.26
250.6	8.92
250.816	8.34
251.032	9.74
251.248	10.27
251.464	10.51
251.68	9.84
251.896	8.49
252.112	9.25
252.328	10.16
252.544	7.54
252.76	6.84
252.976	8.23
253.192	8.99
253.408	7.27
253.624	6.17
253.84	5.14
254.056	3.2
254.272	3.46
254.487	3.21
254.703	-3.96
254.919	-1.99
255.135	-3.78
255.351	-8.03
255.567	-5.75
255.782	-2.94
255.998	-3
256.214	-7.06
256.43	-4.66
256.646	-2.42
256.861	-3.19
257.077	1.69
257.293	-1.92
257.508	0.66
257.724	4.68
257.94	4.36
258.155	4.71
258.371	3.89
258.587	5.6
258.802	5.5
259.018	6.54
259.234	6.08
259.449	7.4
259.665	8.29
259.88	8.66
260.096	7.68
260.312	8.43
260.527	7.99
260.743	9.22
260.958	9.91
261.174	10.18
261.389	9.57
261.605	10.94
261.82	10
262.036	11.5
262.251	10.95
262.466	11.97
262.682	9.71
262.897	8.88
263.113	9.42
263.328	9.3
263.543	7.59
263.759	8.75
263.974	6.64
264.189	7.12
264.405	5.83
264.62	5.68
264.835	5.43
265.051	5.1
265.266	5.33
265.481	3.74
265.696	2.15
265.912	4.28
266.127	2.41
266.342	2.71
266.557	2.59
266.773	1.59
266.988	2.56
267.203	0.68
267.418	1.82
267.633	2.67
267.848	3.44
268.064	4.34
268.279	4.81
268.494	4.8
268.709	5.5
268.924	5.44
269.139	5.75
269.354	4.91
269.569	3.76
269.784	4.69
269.999	5.43
270.214	5.25
270.429	4.91
270.644	4.13
270.859	4.21
271.074	4.01
271.289	4.4
271.504	4.55
271.719	4.88
271.934	5.81
272.149	4.9
272.363	5.08
272.578	4.76
272.793	4.69
273.008	4.98
273.223	5.2
273.438	4.2
273.653	3.1
273.867	2.1
274.082	3.23
274.297	4.05
274.512	5.34
274.726	5.32
274.941	5.11
275.156	5.42
275.371	4.29
275.585	4.75
275.8	5.19
276.015	6.78
276.229	9.46
276.444	11.38
276.659	11.86
276.873	9.59
277.088	8.31
277.302	7.39
277.517	7.96
277.732	7.42
277.946	8.3
278.161	7.48
278.375	6.29
278.59	5.02
278.804	-0
279.019	0.05
279.233	0.88
279.448	1.91
279.662	3.51
279.877	3.87
280.091	5.43
280.306	4.32
280.52	7.32
280.735	7.49
280.949	8
281.163	8.55
281.378	8.47
281.592	9.59
281.806	8.13
282.021	8.33
282.235	7.15
282.449	7.09
282.664	8.26
282.878	8.14
283.092	7.29
283.307	5.46
283.521	5.08
283.735	4.27
283.949	2.83
284.164	4.03
284.378	5.33
284.592	6.15
284.806	5.04
285.02	4.82
285.234	3.67
285.449	4.28
285.663	4.94
285.877	5.05
286.091	5.39
286.305	6.74
286.519	7.02
286.733	6.16
286.947	5.95
287.161	5.63
287.375	5.67
287.589	6.36
287.803	6.48
288.017	7.67
288.231	8.03
288.445	8.46
288.659	7.12
288.873	6.7
289.087	6.44
289.301	4.87
289.515	7.28
289.729	6.82
289.943	6.18
290.157	7.3
290.371	6.64
290.584	7.96
290.798	7.99
291.012	7.88
291.226	7.73
291.44	6.55
291.654	7.66
291.867	6.85
292.081	6.46
292.295	8.08
292.509	7.3
292.722	7.27
292.936	6.58
293.15	6.15
293.364	7.75
293.577	8.27
293.791	10.04
294.005	11.15
294.218	11.57
294.432	12.71
294.645	11.01
294.859	11.46
295.073	12.09
295.286	12.24
295.5	13.03
295.713	12.03
295.927	12.01
296.14	10.89
296.354	10.1
296.568	9.44
296.781	8.92
296.994	8.65
297.208	8.73
297.421	8.06
297.635	8.13
297.848	7.5
298.062	8.56
298.275	9.36
298.489	10.2
298.702	10.61
298.915	11.47
299.129	10.44
299.342	11.15
299.555	10.94
299.769	11.49
299.982	10.99
300.195	10.2
300.409	9.3
300.622	7.73
300.835	7.19
301.048	7.49
301.262	6.26
301.475	7.81
301.688	8.35
301.901	8.17
302.115	7.89
302.328	8.65
302.541	11.07
302.754	11.69
302.967	12
303.18	12.79
303.393	12.02
303.607	12.93
303.82	12.58
304.033	11.67
304.246	11.28
304.459	11.43
304.672	10.43
304.885	9.92
305.098	9.93
305.311	9.62
305.524	8.88
305.737	10.1
305.95	10.41
306.163	10.06
306.376	10.4
306.589	9.77
306.802	10.25
307.015	10.51
307.228	10.85
307.44	9.94
307.653	8.66
307.866	7.48
308.079	7.14
308.292	6.66
308.505	6.09
308.718	6.15
308.93	6.55
309.143	5.78
309.356	7.1
309.569	6.56
309.781	6.68
309.994	8.85
310.207	9.98
310.42	10.01
310.632	9.37
310.845	10.26
311.058	11.32
311.27	11.9
311.483	11.96
311.696	11.91
311.908	11.27
312.121	11.36
312.333	10.22
312.546	9.82
312.759	9.19
312.971	9.5
313.184	9.13
313.396	8.7
313.609	9.08
313.821	8.86
314.034	7.98
314.246	8.3
314.459	8.35
314.671	8.95
314.884	8.94
315.096	9.72
315.309	10.17
315.521	11.2
315.733	9.62
315.946	8.97
316.158	9.32
316.371	8.81
316.583	8.77
316.795	9.96
317.008	11.1
317.22	10.16
317.432	9.35
317.644	9.43
317.857	8.55
318.069	9.66
318.281	9.55
318.494	9.97
318.706	11.58
318.918	11.43
319.13	10.56
319.342	8.77
319.555	9.71
319.767	9.74
319.979	8.9
320.191	8.95
320.403	9.32
320.615	10.02
320.827	8.5
321.039	7.91
321.252	8.82
321.464	8.68
321.676	9.57
321.888	9.53
322.1	9.73
322.312	10.3
322.524	10.57
322.736	10.44
322.948	9.45
323.16	10.61
323.372	11.95
323.584	12
323.796	12.6
324.007	12.25
324.219	13.15
324.431	13.16
324.643	14.17
324.855	14.74
325.067	15.43
325.279	15.39
325.491	15.64
325.702	14.68
325.914	15.15
326.126	15.7
326.338	16.32
326.55	16.61
326.761	16.81
326.973	17.27
327.185	16.97
327.396	16.85
327.608	17.66
327.82	17.31
328.032	17.02
328.243	15.96
328.455	15.66
328.666	16.54
328.878	16.6
329.09	17.48
329.301	17.42
329.513	17.81
329.725	17.86
329.936	18
330.148	18.81
330.359	19.13
330.571	20.32
330.782	20.4
330.994	18.98
331.205	18.83
331.417	18.02
331.628	16.03
331.84	15.13
332.051	16.07
332.262	17.03
332.474	17.57
332.685	18.09
332.897	17.16
333.108	17.09
333.319	18.42
333.531	18.45
333.742	19.11
333.953	20.95
334.165	22.73
334.376	21.95
334.587	20.7
334.799	19.72
335.01	19.43
335.221	20.58
335.432	20.37
335.644	19.42
335.855	19.36
336.066	19.69
336.277	18.01
336.488	16.62
336.7	16.7
336.911	16.9
337.122	16.2
337.333	16.93
337.544	16.45
337.755	16.24
337.966	17.13
338.177	17.05
338.388	17.46
338.599	18.31
338.811	18.85
339.022	19.09
339.233	20.11
339.444	21.38
339.655	20.88
339.866	20.51
340.076	21.01
340.287	19.88
340.498	20.58
340.709	19.24
340.92	19.62
341.131	19.33
341.342	18.8
341.553	18.84
341.764	19.3
341.975	19.27
342.185	19.45
342.396	20.07
342.607	20.77
342.818	19.95
343.029	21.04
343.239	20.61
343.45	21.24
343.661	20.88
343.872	20.57
344.082	19.79
344.293	19.79
344.504	19.74
344.714	19.13
344.925	19.63
345.136	19.24
345.346	18.37
345.557	18.53
345.768	17.45
345.978	18.9
346.189	18.84
346.399	19
346.61	18.81
346.821	18.29
347.031	17.98
347.242	17.22
347.452	17.96
347.663	17.69
347.873	17.53
348.084	17.95
348.294	16.72
348.504	17
348.715	17.13
348.925	17.79
349.136	17.81
349.346	17.68
349.557	17.69
349.767	17.46
349.977	18.18
350.188	17.86
350.398	18.01
350.608	18.58
350.819	17.94
351.029	18.09
351.239	17
351.449	17.65
351.66	17.82
351.87	18.67
352.08	18.54
352.29	18.59
352.501	18.85
352.711	18.68
352.921	18.59
353.131	18.77
353.341	18.19
353.552	19.49
353.762	18.8
353.972	18.89
354.182	17.78
354.392	17.82
354.602	17.11
354.812	17.27
355.022	17.56
355.232	17.53
355.442	17.94
355.652	18.67
355.862	18.41
356.072	19.42
356.282	19.55
356.492	19.84
356.702	19.93
356.912	19.44
357.122	18.99
357.332	19.04
357.542	18.68
357.752	18.51
357.962	18.98
358.171	18.51
358.381	17.95
358.591	17.5
358.801	17.63
359.011	17.28
359.221	17.59
359.43	17.68
359.64	17.98
359.85	18.25
360.06	17.84
360.269	17.39
360.479	17.04
360.689	16.76
360.899	16.91
361.108	16.45
361.318	16.54
361.528	16.94
361.737	16.86
361.947	16.53
362.156	16.25
362.366	16.2
362.576	15.93
362.785	15.95
362.995	16.12
363.204	15.81
363.414	15.73
363.623	15.92
363.833	14.97
364.042	14.68
364.252	14.67
364.461	14.29
364.671	14.58
364.88	13.83
365.09	13.96
365.299	14.07
365.509	13.95
365.718	14.29
365.927	14.61
366.137	15.48
366.346	15.56
366.555	15.19
366.765	15.1
366.974	15.01
367.183	15.29
367.393	15.66
367.602	15.74
367.811	15.8
368.021	15.73
368.23	15.13
368.439	14.85
368.648	15.03
368.857	14.64
369.067	14.68
369.276	14.76
369.485	15.32
369.694	14.83
369.903	14.51
370.112	14.51
370.321	14.59
370.531	14.35
370.74	14.68
370.949	14.77
371.158	15.15
371.367	14.77
371.576	14.46
371.785	13.75
371.994	13.7
372.203	13.73
372.412	14.09
372.621	13.67
372.83	13.83
373.039	12.93
373.248	13
373.457	12.8
373.666	13.13
373.874	13.11
374.083	13.16
374.292	12.86
374.501	12.77
374.71	12.66
374.919	12.79
375.128	12.05
375.336	13.15
375.545	12.94
375.754	12.93
375.963	13.04
376.171	12.8
376.38	12.87
376.589	12.89
376.798	12.53
377.006	12.46
377.215	12.33
377.424	12.69
377.632	11.99
377.841	11.55
378.05	11.04
378.258	10.93
378.467	11.17
378.675	10.61
378.884	10.96
379.093	11.31
379.301	11.06
379.51	11.08
379.718	10.67
379.927	11.01
380.135	10.91
380.344	11.46
380.552	11.63
380.761	11.49
380.969	12.14
381.177	11.91
381.386	11.6
381.594	11.57
381.803	11.13
382.011	11.57
382.219	11.37
382.428	11.56
382.636	11.28
382.845	10.95
383.053	10.58
383.261	10.26
383.469	9.86
383.678	9.98
383.886	9.82
384.094	10.18
384.302	10.41
384.511	10.32
384.719	10.41
384.927	10.36
385.135	10.14
385.343	10.27
385.552	10.46
385.76	10.33
385.968	10.21
386.176	10.24
386.384	9.82
386.592	9.12
386.8	8.87
387.008	8.84
387.216	8.48
387.424	8.82
387.633	8.45
387.841	8.12
388.049	8.4
388.257	8.18
388.465	8.29
388.672	8.59
388.88	8.97
389.088	9.23
389.296	9.07
389.504	9.42
389.712	9.05
389.92	9.29
390.128	9.41
390.336	9.28
390.544	9.38
390.751	9.14
390.959	8.82
391.167	8.59
391.375	8.19
391.583	8.1
391.79	7.79
391.998	7.84
392.206	7.86
392.414	8.05
392.621	8.08
392.829	8.23
393.037	8.46
393.244	8.49
393.452	8.24
393.66	8.52
393.867	8.35
394.075	8.49
394.283	8.02
394.49	7.97
394.698	7.68
394.905	7.6
395.113	7.5
395.32	7.12
395.528	6.99
395.735	7.16
395.943	6.78
396.15	6.84
396.358	6.65
396.565	6.98
396.773	6.62
396.98	6.73
397.188	6.79
397.395	6.69
397.602	6.89
397.81	6.73
398.017	6.75
398.225	6.99
398.432	7.29
398.639	7.53
398.847	7.4
399.054	7.87
399.261	7.83
399.468	7.56
399.676	7.32
399.883	7.27
400.09	7.43
400.297	7.5
400.505	7.52
400.712	7.03
400.919	7.08
401.126	7.4
401.333	7.08
401.54	6.84
401.748	6.82
401.955	6.93
402.162	6.63
402.369	6.39
402.576	6.26
402.783	5.89
402.99	5.89
403.197	5.87
403.404	5.91
403.611	5.82
403.818	5.88
404.025	6.1
404.232	5.98
404.439	6.21
404.646	6.36
404.853	6.14
405.06	6.21
405.267	6.35
405.474	6.25
405.681	6.29
405.887	6.19
406.094	6.2
406.301	6.15
406.508	6.13
406.715	6.33
406.922	6.57
407.128	6.71
407.335	6.98
407.542	6.7
407.749	6.56
407.955	6.37
408.162	6.62
408.369	6.45
408.575	6.27
408.782	6.25
408.989	5.97
409.195	5.8
409.402	5.95
409.609	5.58
409.815	5.76
410.022	5.76
410.228	5.84
410.435	5.7
410.642	5.83
410.848	5.77
411.055	5.6
411.261	5.5
411.468	5.67
411.674	5.57
411.881	5.55
412.087	5.5
412.294	5.6
412.5	5.43
412.706	5.6
412.913	5.52
413.119	5.61
413.326	5.71
413.532	5.66
413.738	5.43
413.945	5.25
414.151	5.35
414.357	5.38
414.564	5.21
414.77	5.33
414.976	5.05
415.182	5.18
415.389	5.37
415.595	5.47
415.801	5.22
416.007	5.23
416.214	5.43
416.42	5.41
416.626	5.43
416.832	5.66
417.038	5.53
417.244	5.74
417.45	5.83
417.657	5.69
417.863	5.86
418.069	6.11
418.275	6
418.481	5.86
418.687	5.88
418.893	5.78
419.099	5.74
419.305	5.63
419.511	5.49
419.717	5.36
419.923	5.36
420.129	5.26
420.335	5.33
420.541	5.39
420.746	5.45
420.952	5.36
421.158	5.42
421.364	5.44
421.57	5.59
421.776	5.68
421.982	5.55
422.187	5.48
422.393	5.39
422.599	5.26
422.805	5.26
423.01	5.17
423.216	5.24
423.422	5.06
423.628	4.99
423.833	5.01
424.039	4.71
424.245	4.83
424.45	4.9
424.656	5.05
424.862	5
425.067	4.95
425.273	4.94
425.478	4.89
425.684	5.09
425.889	5.02
426.095	4.81
426.301	5
426.506	4.99
426.712	4.9
426.917	4.73
427.123	4.77
427.328	4.85
427.533	5.05
427.739	4.87
427.944	4.82
428.15	4.91
428.355	4.93
428.561	5.1
428.766	4.95
428.971	5.05
429.177	5.04
429.382	4.95
429.587	4.99
429.793	4.65
429.998	4.69
430.203	4.59
430.408	4.49
430.614	4.64
430.819	4.41
431.024	4.56
431.229	4.6
431.434	4.75
431.64	4.69
431.845	4.66
432.05	4.67
432.255	4.74
432.46	4.95
432.665	4.98
432.87	5.05
433.076	5.09
433.281	5.06
433.486	4.9
433.691	4.78
433.896	4.89
434.101	4.77
434.306	4.94
434.511	4.88
434.716	4.63
434.921	4.5
435.126	4.35
435.331	4.25
435.535	4.15
435.74	4.03
435.945	3.96
436.15	3.89
436.355	3.93
436.56	3.8
436.765	3.82
436.97	3.99
437.174	3.88
437.379	4.19
437.584	4.17
437.789	4.4
437.993	4.43
438.198	4.57
438.403	4.61
438.608	4.52
438.812	4.6
439.017	4.72
439.222	4.62
439.426	4.81
439.631	4.63
439.836	4.74
440.04	4.69
440.245	4.81
440.45	4.75
440.654	4.65
440.859	4.62
441.063	4.52
441.268	4.59
441.472	4.74
441.677	4.68
441.881	4.61
442.086	4.71
442.29	4.6
442.495	4.58
442.699	4.64
442.904	4.64
443.108	4.85
443.312	4.94
443.517	4.75
443.721	4.7
443.925	4.67
444.13	4.62
444.334	4.32
444.538	4.31
444.743	4.14
444.947	4.14
445.151	4.35
445.356	4.35
445.56	4.24
445.764	4.22
445.968	4.14
446.173	4.14
446.377	4.24
446.581	4.42
446.785	4.49
446.989	4.7
447.193	4.64
447.398	4.55
447.602	4.51
447.806	4.53
448.01	4.58
448.214	4.67
448.418	4.69
448.622	4.74
448.826	4.72
449.03	4.64
449.234	4.35
449.438	4.36
449.642	4.43
449.846	4.32
450.05	4.28
450.254	4.3
450.458	4.19
450.662	4.17
450.866	4.13
451.069	3.9
451.273	4.01
451.477	4.1
451.681	4.12
451.885	4.02
452.089	4.13
452.292	4.29
452.496	4.28
452.7	4.3
452.904	4.25
453.107	4.02
453.311	4.09
453.515	3.95
453.719	4.11
453.922	4.11
454.126	4.04
454.33	3.97
454.533	3.91
454.737	3.87
454.94	3.85
455.144	3.83
455.348	3.86
455.551	3.83
455.755	3.94
455.958	3.85
456.162	3.59
456.365	3.67
456.569	3.84
456.772	3.84
456.976	4.03
457.179	4.04
457.383	4.22
457.586	4.34
457.79	4.39
457.993	4.12
458.196	4.28
458.4	4.62
458.603	4.51
458.807	4.5
459.01	4.5
459.213	4.3
459.417	4.34
459.62	4.32
459.823	4.17
460.026	4.13
460.23	4.33
460.433	4.26
460.636	4.13
460.839	4.26
461.042	4.19
461.246	4.08
461.449	4.11
461.652	4.15
461.855	4.2
462.058	4.4
462.261	4.55
462.464	4.62
462.668	4.58
462.871	4.52
463.074	4.61
463.277	4.63
463.48	4.76
463.683	4.79
463.886	4.58
464.089	4.23
464.292	4.05
464.495	4.06
464.698	3.94
464.901	3.91
465.104	3.94
465.306	3.8
465.509	3.65
465.712	3.8
465.915	3.85
466.118	3.94
466.321	4.28
466.524	4.42
466.726	4.42
466.929	4.37
467.132	4.27
467.335	4.27
467.538	4.21
467.74	4.22
467.943	4.2
468.146	4.2
468.348	4.37
468.551	4.2
468.754	4.26
468.956	4.21
469.159	4.23
469.362	4.38
469.564	4.54
469.767	4.58
469.969	4.65
470.172	4.59
470.375	4.62
470.577	4.35
470.78	4.53
470.982	4.45
471.185	4.46
471.387	4.61
471.59	4.55
471.792	4.53
471.995	4.42
472.197	4.36
472.399	4.5
472.602	4.4
472.804	4.62
473.007	4.58
473.209	4.59
473.411	4.54
473.614	4.35
473.816	4.41
474.018	4.1
474.22	4.13
474.423	3.99
474.625	3.97
474.827	4.04
475.03	3.83
475.232	3.79
475.434	3.74
475.636	3.55
475.838	3.67
476.04	3.81
476.243	4.03
476.445	4.25
476.647	4.32
476.849	4.24
477.051	4
477.253	4.18
477.455	4.17
477.657	4.23
477.859	4.43
478.061	4.25
478.263	4.09
478.465	3.95
478.667	3.83
478.869	3.86
479.071	3.77
479.273	3.82
479.475	3.57
479.677	3.5
479.879	3.38
480.081	3.3
480.283	3.55
480.485	3.62
480.686	3.76
480.888	3.73
481.09	3.77
481.292	3.81
481.494	3.83
481.695	4.08
481.897	4.09
482.099	4.21
482.301	4.32
482.502	4.28
482.704	4.36
482.906	4.4
483.107	4.32
483.309	4.3
483.511	4.27
483.712	4.28
483.914	4.28
484.115	4.3
484.317	4.27
484.519	4.25
484.72	4.25
484.922	4.24
485.123	4.2
485.325	4.24
485.526	4.24
485.728	4.26
485.929	4.28
486.131	4.23
486.332	4.3
486.534	4.32
486.735	4.34
486.936	4.27
487.138	4.21
487.339	4.21
487.541	4.23
487.742	4.27
487.943	4.29
488.144	4.28
488.346	4.26
488.547	4.13
488.748	4.1
488.95	4.13
489.151	4.18
489.352	4.21
489.553	4.26
489.755	4.23
489.956	4.19
490.157	4.14
490.358	4.12
490.559	4.12
490.76	4.19
490.961	4.26
491.163	4.13
491.364	4.14
491.565	4.04
491.766	4.02
491.967	4.09
492.168	4.16
492.369	4.2
492.57	4.15
492.771	4.13
492.972	4.18
493.173	4.11
493.374	4.18
493.575	4.14
493.776	4.2
493.976	4.2
494.177	4.03
494.378	3.97
494.579	3.84
494.78	4.02
494.981	4.11
495.182	4.07
495.382	4
495.583	3.96
495.784	3.89
495.985	3.96
496.185	3.85
496.386	3.83
496.587	3.83
496.788	3.85
496.988	3.78
497.189	3.79
497.39	3.66
497.59	3.75
497.791	3.76
497.992	3.76
498.192	3.69
498.393	3.76
498.593	3.92
498.794	3.88
498.994	4
499.195	4.1
499.395	4.2
499.596	4.5
499.796	4.43
499.997	4.31
500.197	4.43
500.398	4.52
500.598	4.67
500.799	4.53
500.999	4.62
501.199	4.52
501.4	4.6
501.6	4.49
501.801	4.2
502.001	4.29
502.201	4.6
502.402	4.73
502.602	4.66
502.802	4.61
503.002	4.72
503.203	4.79
503.403	4.86
503.603	4.73
503.803	4.7
504.003	4.96
504.204	4.95
504.404	5.04
504.604	4.96
504.804	5.18
505.004	5.33
505.204	5.47
505.404	5.56
505.604	5.69
505.804	5.6
506.005	5.74
506.205	5.57
506.405	5.77
506.605	5.57
506.805	5.5
507.005	5.49
507.204	5.29
507.404	5.09
507.604	5.1
507.804	5.02
508.004	5.11
508.204	5.17
508.404	5.31
508.604	5.21
508.804	5.33
509.003	5.49
509.203	5.44
509.403	5.65
509.603	5.87
509.803	5.74
510.002	5.88
510.202	6.15
510.402	6.14
510.602	6.32
510.801	6.37
511.001	6.43
511.201	6.51
511.4	6.6
511.6	6.59
511.8	6.69
511.999	6.83
512.199	6.88
512.398	6.83
512.598	6.99
512.797	6.93
512.997	6.89
513.197	6.94
513.396	7.05
513.596	7
513.795	6.85
513.994	6.92
514.194	7.04
514.393	7.17
514.593	7.15
514.792	7.08
514.992	7.16
515.191	7.43
515.39	7.6
515.59	7.63
515.789	7.87
515.988	8.04
516.188	8.18
516.387	8.16
516.586	8.15
516.786	8.37
516.985	8.56
517.184	8.56
517.383	8.66
517.582	8.63
517.782	8.65
517.981	8.75
518.18	9.03
518.379	8.93
518.578	9.02
518.777	9.05
518.976	9.16
519.176	9.14
519.375	9.24
519.574	9.37
519.773	9.44
519.972	9.41
520.171	9.33
520.37	9.28
520.569	9.29
520.768	9.34
520.967	9.38
521.166	9.4
521.365	9.5
521.564	9.68
521.762	9.64
521.961	9.78
522.16	10.07
522.359	10.24
522.558	10.34
522.757	10.64
522.956	10.81
523.154	11.13
523.353	11.11
523.552	11.21
523.751	11.23
523.949	11.41
524.148	11.46
524.347	11.47
524.546	11.6
524.744	11.68
524.943	11.75
525.142	11.86
525.34	11.88
525.539	11.97
525.737	12
525.936	12.09
526.135	12.16
526.333	12.25
526.532	12.27
526.73	12.38
526.929	12.59
527.127	12.74
527.326	12.9
527.524	12.92
527.723	13.09
527.921	13.21
528.12	13.31
528.318	13.37
528.516	13.45
528.715	13.58
528.913	13.64
529.112	13.67
529.31	13.62
529.508	13.61
529.707	13.7
529.905	13.76
530.103	13.83
530.301	13.87
530.5	13.92
530.698	14
530.896	14.06
531.094	14.12
531.293	14.23
531.491	14.43
531.689	14.62
531.887	14.81
532.085	14.88
532.283	15.03
532.481	15.17
532.68	15.27
532.878	15.41
533.076	15.49
533.274	15.6
533.472	15.58
533.67	15.66
533.868	15.63
534.066	15.66
534.264	15.77
534.462	15.86
534.66	15.97
534.858	16
535.056	16.06
535.253	16.09
535.451	16.19
535.649	16.39
535.847	16.47
536.045	16.67
536.243	16.77
536.441	16.78
536.638	16.8
536.836	16.78
537.034	16.93
537.232	16.99
537.43	17.1
537.627	17.13
537.825	17.09
538.023	17.21
538.22	17.09
538.418	17.16
538.616	17.2
538.813	17.21
539.011	17.33
539.209	17.42
539.406	17.51
539.604	17.65
539.801	17.73
539.999	17.94
540.196	17.98
540.394	18.17
540.591	18.26
540.789	18.36
540.986	18.37
541.184	18.36
541.381	18.42
541.579	18.5
541.776	18.5
541.974	18.61
542.171	18.65
542.368	18.71
542.566	18.76
542.763	18.82
542.96	18.8
543.158	18.95
543.355	19.14
543.552	19.23
543.75	19.27
543.947	19.38
544.144	19.42
544.341	19.43
544.539	19.56
544.736	19.69
544.933	19.74
545.13	19.98
545.327	20.07
545.524	19.91
545.722	19.86
545.919	19.82
546.116	19.98
546.313	20.06
546.51	20.13
546.707	20.21
546.904	20.24
547.101	20.34
547.298	20.3
547.495	20.23
547.692	20.39
547.889	20.49
548.086	20.57
548.283	20.6
548.48	20.56
548.677	20.65
548.874	20.56
549.07	20.67
549.267	20.61
549.464	20.83
549.661	21.04
549.858	21.11
550.055	21.19
550.251	21.29
550.448	21.42
550.645	21.69
550.842	21.72
551.038	21.82
551.235	21.95
551.432	21.9
551.628	21.72
551.825	21.71
552.022	21.82
552.218	21.9
552.415	22.04
552.612	21.97
552.808	21.76
553.005	21.97
553.201	22.1
553.398	21.95
553.594	22.21
553.791	22.24
553.987	22.37
554.184	22.25
554.38	22.13
554.577	22.15
554.773	22
554.97	22.14
555.166	21.96
555.362	21.86
555.559	22.02
555.755	21.92
555.952	21.98
556.148	21.94
556.344	22.23
556.541	22.32
556.737	22.52
556.933	22.84
557.129	23.05
557.326	23.1
557.522	23.01
557.718	22.93
557.914	23.04
558.11	23.3
558.307	23.47
558.503	23.35
558.699	23.39
558.895	23.34
559.091	23.33
559.287	23.27
559.483	23.4
559.679	23.67
559.876	23.78
560.072	23.8
560.268	23.98
560.464	24.02
560.66	24.14
560.856	24.47
561.052	24.32
561.247	24.47
561.443	24.46
561.639	24.37
561.835	24.28
562.031	24.26
562.227	24.2
562.423	23.98
562.619	24.07
562.815	23.93
563.01	23.71
563.206	23.97
563.402	23.91
563.598	24.01
563.793	24.24
563.989	24.41
564.185	24.38
564.381	24.52
564.576	24.46
564.772	24.36
564.968	24.61
565.163	24.82
565.359	24.62
565.555	24.65
565.75	24.92
565.946	24.88
566.141	25
566.337	25.36
566.532	25.42
566.728	25.45
566.923	25.6
567.119	25.6
567.314	25.66
567.51	25.96
567.705	25.88
567.901	25.54
568.096	25.77
568.292	25.67
568.487	25.52
568.682	25.51
568.878	25.68
569.073	25.65
569.268	25.6
569.464	25.48
569.659	25.29
569.854	25.59
570.05	25.75
570.245	25.55
570.44	25.7
570.635	25.74
570.831	25.83
571.026	25.97
571.221	25.99
571.416	26.1
571.611	26.24
571.806	26.36
572.002	26.22
572.197	26.32
572.392	26.28
572.587	26.31
572.782	26.3
572.977	26.33
573.172	26.42
573.367	26.57
573.562	26.46
573.757	26.43
573.952	26.46
574.147	26.6
574.342	26.75
574.537	26.85
574.732	26.89
574.927	26.88
575.121	26.95
575.316	26.77
575.511	26.54
575.706	26.66
575.901	26.79
576.096	26.63
576.29	26.49
576.485	26.32
576.68	26.58
576.875	26.43
577.069	26.53
577.264	26.45
577.459	26.76
577.654	26.99
577.848	26.98
578.043	26.98
578.238	27.3
578.432	27.41
578.627	27.39
578.821	27.13
579.016	27.35
579.21	27.29
579.405	27.21
579.6	27
579.794	26.97
579.989	27.18
580.183	27.16
580.378	26.82
580.572	26.7
580.766	26.8
580.961	26.75
581.155	26.52
581.35	26.48
581.544	26.57
581.738	26.67
581.933	26.8
582.127	26.92
582.321	26.96
582.516	27.69
582.71	27.93
582.904	27.79
583.099	28.13
583.293	28.43
583.487	28.45
583.681	28.4
583.875	28.5
584.07	28.51
584.264	28.32
584.458	28.06
584.652	27.62
584.846	27.84
585.04	28.14
585.234	28
585.428	27.89
585.623	28.05
585.817	28.6
586.011	28.39
586.205	28.43
586.399	28.55
586.593	28.89
586.787	28.88
586.981	28.38
587.174	28.23
587.368	28.34
587.562	28.45
587.756	28.51
587.95	28.33
588.144	28.31
588.338	27.93
588.532	27.82
588.725	27.74
588.919	27.87
589.113	28.19
589.307	28.26
589.501	27.83
589.694	27.67
589.888	27.69
590.082	27.55
590.275	27.77
590.469	28.11
590.663	28.35
590.856	28.55
591.05	28.57
591.244	28.55
591.437	28.26
591.631	28.65
591.824	28.68
592.018	28.5
592.212	28.46
592.405	28.3
592.599	28.45
592.792	28.5
592.986	28.5
593.179	28.59
593.372	28.71
593.566	29.21
593.759	29.46
593.953	29.66
594.146	29.7
594.339	29.55
594.533	29.85
594.726	29.61
594.92	29.52
595.113	29.49
595.306	29.25
595.499	29.26
595.693	29.29
595.886	29.02
596.079	29.04
596.272	29.1
596.466	29.21
596.659	29.11
596.852	29.22
597.045	29.17
597.238	29.11
597.431	29.45
597.624	29.36
597.818	29.34
598.011	29.38
598.204	29.21
598.397	29.46
598.59	29.69
598.783	29.65
598.976	29.6
599.169	29.69
599.362	29.72
599.555	29.41
599.748	29.52
599.941	29.55
600.134	29.75
600.326	29.67
600.519	29.57
600.712	29.33
600.905	29.34
601.098	29.29
601.291	28.88
601.483	28.73
601.676	28.69
601.869	28.68
602.062	28.72
602.255	28.51
602.447	28.7
602.64	28.64
602.833	28.85
603.025	28.95
603.218	29.05
603.411	29.2
603.603	29.34
603.796	29.51
603.989	29.36
604.181	29.08
604.374	29.23
604.566	29.27
604.759	29.32
604.951	29.31
605.144	29.18
605.336	29.14
605.529	29.24
605.721	29.44
605.914	29.48
606.106	29.64
606.299	29.92
606.491	29.91
606.683	30.05
606.876	30.22
607.068	30.36
607.26	30.51
607.453	30.63
607.645	30.86
607.837	30.39
608.03	30.17
608.222	30.23
608.414	30.18
608.606	30.14
608.799	29.99
608.991	29.97
609.183	29.83
609.375	29.71
609.567	29.74
609.759	29.57
609.952	29.7
610.144	29.82
610.336	29.73
610.528	29.66
610.72	29.86
610.912	29.93
611.104	29.92
611.296	29.85
611.488	29.89
611.68	30.13
611.872	30.25
612.064	30.44
612.256	30.69
612.448	30.94
612.64	31.07
612.832	30.5
613.023	30.46
613.215	30.23
613.407	30.24
613.599	30.27
613.791	29.91
613.983	29.66
614.174	29.71
614.366	29.5
614.558	29.51
614.75	29.5
614.941	30.1
615.133	30.08
615.325	30.45
615.516	30.67
615.708	30.67
615.9	30.64
616.091	30.86
616.283	30.83
616.475	30.87
616.666	30.66
616.858	30.4
617.049	30.2
617.241	30.47
617.432	30.01
617.624	29.9
617.815	30.03
618.007	30.19
618.198	30.27
618.39	30.2
618.581	30.07
618.773	30.26
618.964	30.48
619.155	30.36
619.347	30.38
619.538	30.48
619.729	30.58
619.921	30.83
620.112	30.82
620.303	30.29
620.494	30.22
620.686	30.36
620.877	30.46
621.068	30.89
621.259	31.16
621.451	31.21
621.642	31.49
621.833	30.91
622.024	30.62
622.215	30.81
622.406	31.29
622.597	31.36
622.788	31.01
622.98	30.91
623.171	30.77
623.362	30.48
623.553	30.21
623.744	30.05
623.935	31.02
624.126	31.1
624.317	30.76
624.508	30.44
624.698	30.46
624.889	30.68
625.08	30.42
625.271	30.58
625.462	30.92
625.653	31.09
625.844	31.07
626.034	30.7
626.225	30.7
626.416	30.83
626.607	31.14
626.798	30.97
626.988	31.17
627.179	31.52
627.37	31.48
627.56	31.39
627.751	31.45
627.942	31.56
628.132	31.8
628.323	31.98
628.514	32.04
628.704	32.13
628.895	32.38
629.085	32.13
629.276	31.84
629.466	31.64
629.657	31.83
629.847	31.9
630.038	32.01
630.228	31.92
630.419	31.8
630.609	32
630.8	31.76
630.99	31.65
631.181	31.65
631.371	31.76
631.561	31.66
631.752	31.53
631.942	31.28
632.132	31.23
632.323	31.16
632.513	31.27
632.703	30.92
632.893	31.17
633.084	31.48
633.274	31.46
633.464	31.68
633.654	31.96
633.844	32.01
634.034	32.29
634.225	32.33
634.415	32.28
634.605	31.96
634.795	32.17
634.985	32.11
635.175	32.12
635.365	32.33
635.555	32.42
635.745	32.06
635.935	32.07
636.125	31.7
636.315	31.44
636.505	31.59
636.695	31.56
636.885	31.55
637.075	31.35
637.265	31.26
637.455	31.08
637.644	30.9
637.834	31.38
638.024	31.26
638.214	31.52
638.404	32.04
638.593	32.06
638.783	32.23
638.973	32.33
639.163	32.84
639.352	32.99
639.542	33.51
639.732	33.58
639.921	33.37
640.111	33.38
640.301	33.47
640.49	32.95
640.68	32.4
640.87	32.92
641.059	32.76
641.249	32.71
641.438	32.47
641.628	31.99
641.817	32.18
642.007	32.14
642.196	31.94
642.386	31.93
642.575	32.16
642.764	32.6
642.954	32.04
643.143	32.03
643.333	31.97
643.522	32.07
643.711	31.95
643.901	31.71
644.09	31.3
644.279	31.01
644.469	31.01
644.658	30.83
644.847	30.98
645.036	30.86
645.226	30.98
645.415	31.33
645.604	31.36
645.793	31.66
645.982	31.67
646.171	31.97
646.361	32.61
646.55	32.51
646.739	32.53
646.928	32.55
647.117	32.86
647.306	32.77
647.495	32.34
647.684	32.11
647.873	32.13
648.062	32.01
648.251	32.06
648.44	32.17
648.629	32.29
648.818	32.34
649.007	32.19
649.196	31.9
649.384	31.91
649.573	31.8
649.762	32.01
649.951	31.79
650.14	31.75
650.328	32.16
650.517	32.22
650.706	31.81
650.895	31.82
651.083	31.78
651.272	32.06
651.461	32.32
651.65	32.26
651.838	32.39
652.027	33.08
652.216	33.13
652.404	33.03
652.593	33.23
652.781	33.97
652.97	33.77
653.158	33.47
653.347	33.48
653.535	33.22
653.724	33.26
653.912	32.9
654.101	32.95
654.289	33.45
654.478	33.18
654.666	32.74
654.855	32.73
655.043	32.7
655.231	32.86
655.42	32.96
655.608	33.29
655.796	33.14
655.985	33.61
656.173	33.31
656.361	32.46
656.55	32.41
656.738	31.84
656.926	31.73
657.114	32.1
657.302	32.31
657.491	32.53
657.679	32.04
657.867	32.13
658.055	32.1
658.243	32.01
658.431	32.38
658.619	32.68
658.807	33.24
658.996	33.05
659.184	32.82
659.372	32.8
659.56	32.62
659.748	33.17
659.936	33.58
660.124	33.37
660.311	33.44
660.499	33.44
660.687	33.25
660.875	33.56
661.063	33.73
661.251	34.01
661.439	33.86
661.627	33.89
661.814	33.41
662.002	33.03
662.19	33.37
662.378	33.34
662.565	33.58
662.753	33.59
662.941	32.96
663.129	32.76
663.316	33.02
663.504	33.39
663.692	33.62
663.879	34.21
664.067	34.22
664.254	34.03
664.442	33.97
664.63	33.77
664.817	33.57
665.005	33.58
665.192	33.47
665.38	33.05
665.567	32.9
665.755	32.6
665.942	32.2
666.13	31.84
666.317	32
666.504	31.89
666.692	32.17
666.879	31.82
667.067	32.06
667.254	32.43
667.441	32.57
667.629	32.57
667.816	32.94
668.003	32.87
668.19	33.04
668.378	32.64
668.565	32.83
668.752	32.48
668.939	33.16
669.127	33.32
669.314	33.22
669.501	33.15
669.688	33.4
669.875	32.89
670.062	32.84
670.249	32.92
670.436	33.29
670.623	33.33
670.81	33.58
670.997	33.35
671.184	33.42
671.371	32.9
671.558	33.18
671.745	33.38
671.932	34.05
672.119	34.1
672.306	34.33
672.493	33.89
672.68	34.12
672.867	34.31
673.054	34.19
673.24	34.42
673.427	35.23
673.614	35.04
673.801	34.75
673.988	34.13
674.174	34.48
674.361	34.72
674.548	35.15
674.734	34.82
674.921	35.05
675.108	34.84
675.294	34.54
675.481	34.03
675.668	33.87
675.854	33.55
676.041	33.48
676.227	33.71
676.414	33.57
676.601	33.94
676.787	34.06
676.974	33.41
677.16	33.65
677.347	33.56
677.533	33.59
677.719	33.64
677.906	33.98
678.092	34.18
678.279	33.58
678.465	33.31
678.651	32.65
678.838	32.09
679.024	31.91
679.21	32.03
679.397	32.26
679.583	32.25
679.769	32.35
679.955	32.06
680.142	32.75
680.328	33.07
680.514	33.62
680.7	33.88
680.886	34.4
681.073	34.63
681.259	34.77
681.445	34.66
681.631	34.68
681.817	34.58
682.003	34.63
682.189	33.76
682.375	33.59
682.561	33.47
682.747	33.68
682.933	33.55
683.119	33.42
683.305	33.2
683.491	32.87
683.677	32.89
683.863	33.11
684.049	33.16
684.235	33.68
684.42	33.87
684.606	33.62
684.792	33.94
684.978	34.12
685.164	34.43
685.349	34.56
685.535	35.1
685.721	34.79
685.907	34.83
686.092	35.12
686.278	34.93
686.464	34.86
686.649	34.84
686.835	34.08
687.021	33.67
687.206	33.36
687.392	33.8
687.577	33.3
687.763	34.06
687.948	34.34
688.134	34.07
688.319	34.35
688.505	34.19
688.69	34.17
688.876	33.81
689.061	33.66
689.247	33.96
689.432	33.73
689.618	34.42
689.803	33.81
689.988	33.63
690.174	33.72
690.359	33.25
690.544	32.95
690.73	32.79
690.915	33.07
691.1	33.53
691.285	33.48
691.471	33.39
691.656	32.77
691.841	32.85
692.026	32.65
692.211	33.21
692.396	33.89
692.582	34.21
692.767	34.42
692.952	34.65
693.137	34.49
693.322	34.34
693.507	34.3
693.692	34.53
693.877	34.35
694.062	34.62
694.247	34.25
694.432	33.75
694.617	33.52
694.802	34.17
694.987	33.89
695.172	34.54
695.357	34.78
695.541	34.51
695.726	33.86
695.911	33.94
696.096	33.57
696.281	33.66
696.466	33.43
696.65	34.05
696.835	33.79
697.02	33.63
697.204	33.05
697.389	33.32
697.574	33.67
697.759	34.32
697.943	34.65
698.128	34.82
698.312	34.84
698.497	35.1
698.682	34.48
698.866	34.13
699.051	34.46
699.235	34.65
699.42	34.66
699.604	34.62
699.789	34.29
699.973	34.09
700.158	33.95
700.342	33.49
700.527	33.28
700.711	34.24
700.895	34.4
701.08	34.74
701.264	34.58
701.448	33.84
701.633	34.27
701.817	34.27
702.001	34.2
702.186	34.17
702.37	34.89
702.554	35.07
702.738	34.7
702.923	35.33
703.107	34.73
703.291	35
703.475	35.66
703.659	35.36
703.843	35.46
704.027	35.53
704.212	35.33
704.396	34.95
704.58	34.65
704.764	34.37
704.948	33.87
705.132	34.13
705.316	34.68
705.5	34.66
705.684	34.79
705.868	35.46
706.052	36.18
706.235	37.39
706.419	37.78
706.603	37.95
706.787	37.44
706.971	37.37
707.155	37.01
707.339	35.98
707.522	35.56
707.706	34.66
707.89	33.88
708.074	33.5
708.257	32.32
708.441	31.86
708.625	31.25
708.808	32.21
708.992	31.93
709.176	32.76
709.359	33.39
709.543	33.57
709.727	34.21
709.91	34.69
710.094	35.21
710.277	35.91
710.461	36.07
710.644	36.44
710.828	36.01
711.011	36.17
711.195	35.73
711.378	35.57
711.562	35.47
711.745	35.35
711.928	35.17
712.112	34.3
712.295	33.62
712.478	33.91
712.662	34.05
712.845	33.96
713.028	34.21
713.212	33.9
713.395	33.67
713.578	34.64
713.761	35.17
713.945	34.68
714.128	34.82
714.311	35.04
714.494	34.71
714.677	35.59
714.86	35.61
715.043	35.24
715.227	35.04
715.41	35.38
715.593	35.36
715.776	35.2
715.959	35.69
716.142	36.08
716.325	36.41
716.508	36.32
716.691	35.1
716.874	34.71
717.057	34.77
717.239	35.84
717.422	36.27
717.605	35.62
717.788	35.39
717.971	34.81
718.154	34.92
718.337	34.21
718.519	34.45
718.702	34.57
718.885	34.9
719.068	34.72
719.25	34.07
719.433	33.33
719.616	32.76
719.798	32.9
719.981	33.48
720.164	32.48
720.346	32.26
720.529	32.05
720.712	32.41
720.894	33.17
721.077	35.04
721.259	35.33
721.442	35.34
721.624	36.03
721.807	35.48
721.989	35.31
722.172	35.98
722.354	35.97
722.537	36.33
722.719	36.05
722.901	36.2
723.084	34.75
723.266	34.19
723.448	34.59
723.631	34.79
723.813	35.34
723.995	35.59
724.178	36.62
724.36	37.65
724.542	37.45
724.724	37.28
724.907	36.49
725.089	36.12
725.271	35.86
725.453	35.49
725.635	35.26
725.817	34.65
725.999	34.45
726.181	33.51
726.364	33.89
726.546	33.04
726.728	33.64
726.91	33.87
727.092	34.93
727.274	35.16
727.456	35.66
727.638	35.18
727.819	35.76
728.001	35.92
728.183	36.36
728.365	35.52
728.547	36.54
728.729	36.39
728.911	35.44
729.093	35.52
729.274	35.64
729.456	35.64
729.638	35.73
729.82	35.48
730.001	36.04
730.183	36.42
730.365	35.86
730.546	35.37
730.728	35.3
730.91	36.05
731.091	35.3
731.273	35.75
731.455	35.32
731.636	34.92
731.818	34.32
731.999	34.05
732.181	33.02
732.362	33.76
732.544	33.56
732.725	34.04
732.907	33.31
733.088	33.19
733.27	32.1
733.451	32.35
733.633	33.12
733.814	33.42
733.995	32.62
734.177	32.29
734.358	32.7
734.539	33.08
734.721	32.52
734.902	34.2
735.083	33.74
735.264	34.41
735.446	35.11
735.627	35
735.808	35.3
735.989	35.56
736.17	35.43
736.351	34.24
736.533	34.2
736.714	34.69
736.895	34.01
737.076	34.79
737.257	35.47
737.438	34.82
737.619	34.72
737.8	34.7
737.981	35.16
738.162	35.72
738.343	36.28
738.524	36.29
738.705	36.14
738.886	35.43
739.067	34.91
739.247	34.28
739.428	34.32
739.609	34.95
739.79	35.39
739.971	35.69
740.151	35.93
740.332	36.82
740.513	37.22
740.694	37.35
740.874	38.06
741.055	37.75
741.236	38.08
741.417	38.08
741.597	37.59
741.778	37.02
741.958	36.78
742.139	36.71
742.32	36.83
742.5	37.11
742.681	37.45
742.861	37.59
743.042	37.81
743.222	36.89
743.403	37.3
743.583	38.63
743.764	37.7
743.944	37.59
744.124	38.24
744.305	37.22
744.485	36.95
744.666	37.47
744.846	37.8
745.026	38.77
745.207	40.03
745.387	40.31
745.567	38.82
745.747	40.51
745.928	39.87
746.108	39.69
746.288	40.31
746.468	39.3
746.648	38.45
746.829	38.6
747.009	38.2
747.189	37.58
747.369	37.51
747.549	36.51
747.729	36.56
747.909	37.09
748.089	37.03
748.269	36.45
748.449	36.73
748.629	36.18
748.809	35.36
748.989	35.36
749.169	34.71
749.349	33.76
749.529	34.65
749.709	33.69
749.889	33.34
750.068	32.38
750.248	33.6
750.428	33.47
750.608	33.66
750.788	33.36
750.967	32.92
751.147	33.27
751.327	32.81
751.507	33.64
751.686	34.13
751.866	35.31
752.046	35.69
752.225	34.29
752.405	36.85
752.585	37.5
752.764	37.59
752.944	37.84
753.123	38.13
753.303	38.58
753.482	37.41
753.662	36.94
753.841	36.53
754.021	36.74
754.2	37.27
754.38	35.68
754.559	35.15
754.739	34.97
754.918	34
755.097	33.64
755.277	33.43
755.456	34.17
755.635	33.71
755.815	33.85
755.994	33.82
756.173	33.52
756.352	32.45
756.532	32.64
756.711	33.29
756.89	34.26
757.069	35.31
757.248	36.82
757.427	36.51
757.607	37.68
757.786	37.73
757.965	37.53
758.144	37.42
758.323	36.8
758.502	36.63
758.681	36.25
758.86	36.64
759.039	35.99
759.218	34.86
759.397	36.2
759.576	36.15
759.755	35.8
759.934	36.21
760.113	35.83
760.291	37.2
760.47	37.9
760.649	37.36
760.828	36.4
761.007	35.73
761.186	35.29
761.364	33.81
761.543	33.42
761.722	32.89
761.901	32.79
762.079	35.4
762.258	35.11
762.437	34.68
762.615	35.96
762.794	36.81
762.972	37.9
763.151	38.51
763.33	38.53
763.508	38.67
763.687	38.86
763.865	39.28
764.044	37.96
764.222	38.21
764.401	37.74
764.579	37.71
764.758	37.72
764.936	37.38
765.114	36.82
765.293	37.66
765.471	37.48
765.65	37.68
765.828	37.03
766.006	37.2
766.184	37.18
766.363	36.89
766.541	36.25
766.719	35.53
766.898	35.88
767.076	36.67
767.254	36.24
767.432	36.06
767.61	36.1
767.788	35.85
767.967	34.59
768.145	35.94
768.323	36.88
768.501	36.36
768.679	36.4
768.857	35.82
769.035	34.08
769.213	32.46
769.391	32.69
769.569	33.03
769.747	33.82
769.925	34.05
770.103	33.11
770.281	32.79
770.459	33.08
770.636	35.12
770.814	35.95
770.992	37.15
771.17	37.91
771.348	38.76
771.525	37.32
771.703	37.87
771.881	38.75
772.059	37.62
772.236	38.16
772.414	38.48
772.592	36.81
772.769	35.85
772.947	34.72
773.125	34.82
773.302	34.13
773.48	35.31
773.657	34.18
773.835	33.84
774.013	33.88
774.19	34.19
774.368	34.68
774.545	32.92
774.723	33.24
774.9	34.02
775.077	34.27
775.255	34.6
775.432	34.16
775.61	35.85
775.787	36.28
775.964	36.46
776.142	35.6
776.319	34.94
776.496	36.07
776.674	34.84
776.851	35.87
777.028	36.27
777.205	35.65
777.382	35.57
777.56	34.45
777.737	32.12
777.914	33.71
778.091	32.72
778.268	33.74
778.445	35.27
778.622	35.06
778.8	34.86
778.977	34.57
779.154	37.95
779.331	38.57
779.508	37.41
779.685	39.44
779.862	37.41
780.038	39.27
780.215	38.65
780.392	38.18
780.569	40.45
780.746	39.9
780.923	39.13
781.1	35.26
781.277	34.87
781.453	34.93
781.63	35.2
781.807	36.31
781.984	35.11
782.16	35.09
782.337	34.46
782.514	31.89
782.691	31.66
782.867	29.55
783.044	30.05
783.221	30.74
783.397	32.85
783.574	32.61
783.75	32.2
783.927	32.57
784.103	32.03
784.28	30.8
784.456	31.48
784.633	29.85
784.809	30.72
784.986	32.21
785.162	33.18
785.339	32.71
785.515	32.93
785.692	32.91
785.868	33.49
786.044	35.54
786.221	34.69
786.397	37.42
786.573	38.05
786.749	40.78
786.926	42.95
787.102	42.6
787.278	43.06
787.454	44.04
787.631	44.36
787.807	45.43
787.983	42.04
788.159	45.25
788.335	43.6
788.511	45.74
788.687	43.14
788.863	39.67
789.039	38.28
789.216	36.88
789.392	37.01
789.568	34.94
789.744	32.43
789.919	34.28
790.095	34.6
790.271	32.35
790.447	30.77
790.623	34.44
790.799	34.29
790.975	33.25
791.151	34.41
791.327	33.48
791.502	34.72
791.678	36.49
791.854	36.79
792.03	35.26
792.205	36.75
792.381	37.9
792.557	34.73
792.733	35.92
792.908	35.66
793.084	36.93
793.259	34.42
793.435	35.75
793.611	34.5
793.786	34.04
793.962	35.47
794.137	35.48
794.313	34.09
794.488	36.39
794.664	35.06
794.839	36.15
795.015	35.3
795.19	39.22
795.366	41.14
795.541	41.36
795.716	40.45
795.892	38.32
796.067	39.07
796.242	41.72
796.418	42.26
796.593	41.99
796.768	41.25
796.944	38.31
797.119	37.24
797.294	35.4
797.469	35.5
797.644	37.33
797.82	39.22
797.995	38.95
798.17	36.78
798.345	35.02
798.52	34.86
798.695	37.06
798.87	39.15
799.045	37.7
799.22	35.67
799.395	36.96
799.57	35.41
799.745	33.02
799.92	33.96
800.095	38.21
800.27	39.65
800.445	38.78
800.62	39.66
800.795	40.56
800.97	41.23
801.145	41.82
801.319	38.81
801.494	38.1
801.669	39.32
801.844	37.6
802.018	31.16
802.193	30.49
802.368	33.79
802.543	30.39
802.717	30.18
802.892	31.7
803.067	31.16
803.241	33.8
803.416	36.83
803.59	36.99
803.765	36.65
803.94	39.37
804.114	37.71
804.289	36.39
804.463	37.07
804.638	36.17
804.812	36.17
804.986	39.11
805.161	36.39
805.335	35.12
805.51	34.65
805.684	36.01
805.858	35.75
806.033	38.8
806.207	36.07
806.381	37.46
806.556	36.98
806.73	35.68
806.904	32.19
807.078	34.87
807.253	33.27
807.427	36.61
807.601	36.2
807.775	37.71
807.949	36.84
808.123	39.05
808.298	37.85
808.472	36.14
808.646	36.1
808.82	39.39
808.994	39.07
809.168	41.8
809.342	40.4
809.516	37.99
809.69	38
809.864	38.01
810.038	42.28
810.212	41.05
810.385	44.43
810.559	47.27
810.733	43.65
810.907	41.42
811.081	41.99
811.255	42.55
811.428	48.89
811.602	45.03
811.776	44.12
811.95	41.03
812.123	42.81
812.297	40.5
812.471	34.79
812.644	35.15
812.818	39.04
812.992	34.13
813.165	30.87
813.339	29.15
813.512	33.99
813.686	33.12
813.86	34.62
814.033	33.89
814.207	36.38
814.38	38.84
814.554	40.4
814.727	37.18
814.9	40.39
815.074	40.17
815.247	36.57
815.421	34.98
815.594	36.04
815.767	35.51
815.941	35.73
816.114	32.54
816.287	36.33
816.46	39.83
816.634	41.12
816.807	41.25
816.98	40.01
817.153	42.62
817.327	41.68
817.5	41.1
817.673	37.32
817.846	34.95
818.019	37.14
818.192	34.26
818.365	25.47
818.538	28.33
818.711	28
818.884	30.1
819.057	27.18
819.23	27.23
819.403	26.27
819.576	26.75
819.749	28.3
819.922	30.17
820.095	31.35
820.268	34.99
820.441	32.22
820.614	31.45
820.786	31.53
820.959	31.94
821.132	32.73
821.305	34.38
821.477	36.17
821.65	36.85
821.823	37.5
821.996	37.94
822.168	38.36
822.341	38.86
822.514	39.49
822.686	39.83
822.859	40.1
823.031	40.47
823.204	39.54
823.376	39.3
823.549	39.15
823.722	38.21
823.894	38.06
824.067	37.59
824.239	37.25
824.411	36.98
824.584	37.1
824.756	36.93
824.929	36.71
825.101	37.35
825.273	36.48
825.446	36.15
825.618	36.54
825.79	36.4
825.963	36.33
826.135	36.18
826.307	35.81
826.479	35.03
826.652	36.04
826.824	35.66
826.996	35.09
827.168	35.36
827.34	34.83
827.512	33.54
827.684	32.56
827.856	32.76
828.029	32.47
828.201	31.29
828.373	31.1
828.545	30.06
828.717	31.15
828.889	31.65
829.061	32.08
829.232	32.09
829.404	34.07
829.576	35
829.748	33.77
829.92	33.89
830.092	35.71
830.264	36.21
830.436	36.71
830.607	35.61
830.779	36.56
830.951	36.59
831.123	37.08
831.294	37.95
831.466	37.2
831.638	41.06
831.809	40.7
831.981	41.52
832.153	41.05
832.324	37.7
832.496	35.06
832.667	32.89
832.839	31.91
833.011	32.87
833.182	30.47
833.354	29.36
833.525	28.11
833.697	27.04
833.868	25.72
834.039	27.38
834.211	29
834.382	31.87
834.554	34.45
834.725	35.97
834.896	37.19
835.068	35.4
835.239	36.61
835.41	38.7
835.581	41.24
835.753	42.26
835.924	40.62
836.095	40.19
836.266	37.46
836.438	35.6
836.609	34.2
836.78	32.6
836.951	34.78
837.122	33.52
837.293	30.35
837.464	27.73
837.635	29.32
837.806	31.02
837.977	30.07
838.148	31.71
838.319	29.66
838.49	28.56
838.661	29.32
838.832	28.45
839.003	33.3
839.174	32.26
839.345	35.87
839.516	31.97
839.687	29.32
839.857	27.78
840.028	28.84
840.199	32.08
840.37	30.54
840.54	33.48
840.711	33.26
840.882	26.75
841.053	27.84
841.223	23.44
841.394	25.55
841.564	30.16
841.735	34.94
841.906	34.6
842.076	30.09
842.247	35.54
842.417	35.56
842.588	33.86
842.758	39.46
842.929	39.94
843.099	41.48
843.27	39.13
843.44	37.03
843.611	32.44
843.781	30.75
843.951	35.21
844.122	30.22
844.292	24.49
844.462	30.06
844.633	24.35
844.803	21.35
844.973	24.33
845.144	20.33
845.314	12.73
845.484	20.27
845.654	14.59
845.824	19.66
845.995	26.4
846.165	20.45
846.335	20.04
846.505	16.4
846.675	23.87
846.845	36.41
847.015	41.82
847.185	48.04
847.355	44.75
847.525	51.22
847.695	51.77
847.865	51.14
848.035	52.88
848.205	52.5
848.375	53.57
848.545	43.5
848.715	36.21
848.884	33.26
849.054	34.42
849.224	38.79
849.394	37.52
849.564	32.84
849.733	34.92
849.903	37.99
850.073	40.47
850.243	45.27
850.412	47.39
850.582	40.83
850.752	46.38
850.921	40.65
851.091	38.16
851.26	35.89
851.43	32.09
851.599	32.95
851.769	37.67
851.939	37.55
852.108	33.63
852.278	27.58
852.447	27.78
852.616	12.18
852.786	11.6
852.955	17.94
853.125	11.3
853.294	10.13
853.463	1.4
853.633	2.23
853.802	-5.56
853.971	-9.73
854.141	-11.25
854.31	-9.91
854.479	3.01
854.648	1.61
854.818	-13.42
854.987	3.17
855.156	7.89
855.325	27.86
855.494	12.61
855.663	5.04
855.832	18.98
856.001	13.66
856.171	7.09
856.34	0.3
856.509	6.31
856.678	10.62
856.847	2.69
857.016	7.01
857.185	-0.52
857.353	8.32
857.522	14.03
857.691	14.97
857.86	28.97
858.029	29.59
858.198	44.42
858.367	39.81
858.535	35.59
858.704	41.99
858.873	41.76
859.042	41.07
859.21	47.06
859.379	45.17
859.548	53.17
859.717	46.49
859.885	63.7
860.054	50.87
860.222	61.7
860.391	66.05
860.56	60.29
860.728	55.71
860.897	59.37
861.065	63.2
861.234	52.4
861.402	29.33
861.571	38.61
861.739	27.11
861.908	26.82
862.076	13.17
862.244	8.92
862.413	14.24
862.581	18.32
862.749	11.56
862.918	20.56
863.086	25.12
863.254	24.38
863.423	12.51
863.591	11.31
863.759	15.02
863.927	18.32
864.096	25.33
864.264	18.77
864.432	21.51
864.6	28.78
864.768	-0.28
864.936	6.9
865.104	13.11
865.272	29.24
865.44	33.04
865.608	39.25
865.776	39.3
865.944	45.32
866.112	52.5
866.28	42.64
866.448	30.97
866.616	41.24
866.784	34.52
866.952	37.3
867.12	41.98
867.288	51.75
867.455	35.36
867.623	25.75
867.791	-14.22
867.959	-21.2
868.127	26.55
868.294	18.04
868.462	25.29
868.63	20.05
868.797	32.88
868.965	30.02
869.133	9.68
869.3	13.54
869.468	30
869.636	22.79
869.803	23
869.971	15.2
870.138	24.25
870.306	13.26
870.473	19.21
870.641	10.64
870.808	-7.12
870.975	4.14
871.143	-3.1
871.31	-1.1
871.478	10.65
871.645	8.81
871.812	-6.4
871.98	16.56
872.147	22.51
872.314	32.11
872.482	25.48
872.649	27.42
872.816	30.02
872.983	47.06
873.15	27.18
873.318	30.96
873.485	25.15
873.652	31.62
873.819	-1.16
873.986	5.83
874.153	-12.58
874.32	-11.49
874.487	1.19
874.654	2.26
874.821	-28.59
874.988	9.57
875.155	13.57
875.322	27.57
875.489	21.22
875.656	38.28
875.823	33.09
875.99	40.19
876.157	52.08
876.324	40.49
876.49	43.33
876.657	48.24
876.824	47.87
876.991	41.71
877.157	39.27
877.324	23.72
877.491	16.88
877.658	19.17
877.824	5.74
877.991	10.07
878.157	11.73
878.324	-2.09
878.491	-1.28
878.657	-0.22
878.824	-7.28
878.99	4.61
879.157	11.36
879.323	27.39
879.49	20.47
879.656	38.72
879.823	21.61
879.989	31.79
880.156	34.16
880.322	31.68
880.488	25.93
880.655	30.82
880.821	17.91
880.987	28.45
881.154	23.62
881.32	24.26
881.486	24.06
881.652	29.46
881.819	30.66
881.985	29.96
882.151	27.98
882.317	30.08
882.483	31.06
882.649	34.49
882.816	32.51
882.982	32.68
883.148	32.9
883.314	32.34
883.48	33.86
883.646	32.22
883.812	34.3
883.978	35.74
884.144	36.5
884.31	36.46
884.476	35.7
884.642	36.56
884.807	34.53
884.973	34
885.139	33.19
885.305	30.48
885.471	29.37
885.637	28.83
885.802	27.84
885.968	27.81
886.134	27.64
886.3	27.81
886.465	29.81
886.631	32.51
886.797	36.42
886.962	42.45
887.128	41.52
887.293	44.03
887.459	43.33
887.625	45.84
887.79	47.07
887.956	42.15
888.121	43.12
888.287	39.01
888.452	40.81
888.618	37.63
888.783	24.02
