Data from CB_096_Reflection_2.txt Node
Date: Sat Nov 14 17:30:09 EST 2015
User: robert
Spectrometer: USB4E03001
Autoset integration time: false
Trigger mode: 4
Integration Time (sec): 1.000000E-1
Scans to average: 15
Electric dark correction enabled: true
Nonlinearity correction enabled: false
Boxcar width: 5
Stray light correction enabled: false
XAxis mode: Wavelengths
Stop averaging: false
Number of Pixels in Spectrum: 3648
>>>>>Begin Spectral Data<<<<<
177.566	-16.27
177.785	1574.38
178.005	-317.95
178.225	-78.32
178.445	108.42
178.665	-55.93
178.885	-102.06
179.105	-32.12
179.324	-191.1
179.544	-9.44
179.764	-29.91
179.984	-13.13
180.204	-68.5
180.423	-16.4
180.643	-8.33
180.863	-55.82
181.083	-41.09
181.302	-45.56
181.522	-14.68
181.742	10.72
181.961	-35.07
182.181	-20.02
182.401	-176.12
182.621	-78.85
182.84	-151.81
183.06	-24.54
183.279	6.07
183.499	-3.72
183.719	-29.97
183.938	-65.86
184.158	-57.65
184.377	-16.24
184.597	-11.57
184.816	14.32
185.036	25.92
185.256	11.08
185.475	13.82
185.695	16.79
185.914	30.85
186.134	45.8
186.353	62.78
186.572	64.15
186.792	60.39
187.011	46.57
187.231	29.29
187.45	27.23
187.67	27.06
187.889	22.16
188.108	10.2
188.328	16.3
188.547	10.76
188.766	-7.75
188.986	10.03
189.205	-0.98
189.424	12.81
189.644	20.12
189.863	23.17
190.082	9.49
190.302	-8.46
190.521	13.72
190.74	-8.21
190.959	-44.95
191.178	-47.79
191.398	-77.03
191.617	-68.82
191.836	-58.96
192.055	-0.58
192.274	-44.37
192.494	8.22
192.713	20.92
192.932	84.83
193.151	154.7
193.37	119.19
193.589	67.4
193.808	180.94
194.027	266.52
194.246	-295.15
194.465	-61.11
194.685	83.59
194.904	6.64
195.123	7.26
195.342	-32.32
195.561	-5.72
195.78	9.28
195.999	30.2
196.218	3.63
196.436	21.2
196.655	31.17
196.874	32.19
197.093	30.63
197.312	37.62
197.531	43.09
197.75	42.12
197.969	49.7
198.188	33.59
198.407	34.27
198.625	45.32
198.844	57.61
199.063	44.61
199.282	44.52
199.501	32.28
199.719	45.52
199.938	35.3
200.157	38.05
200.376	27.91
200.594	48.66
200.813	34.84
201.032	26.85
201.251	14.89
201.469	23.2
201.688	23.06
201.907	17.92
202.125	8.2
202.344	21.61
202.563	-2.24
202.781	-3.06
203	5.46
203.218	10.09
203.437	42.51
203.656	25.48
203.874	36.86
204.093	68.97
204.311	63.31
204.53	48.92
204.748	30.46
204.967	49.45
205.185	50.05
205.404	18.47
205.622	11.77
205.841	-14.69
206.059	-9.78
206.278	-4.61
206.496	-14.6
206.715	-20.37
206.933	2.69
207.151	19.1
207.37	14.44
207.588	7.83
207.806	21.68
208.025	47.82
208.243	59.23
208.461	63.57
208.68	56.6
208.898	51.92
209.116	39.44
209.335	40.3
209.553	19.42
209.771	33.5
209.989	37.9
210.208	22.33
210.426	0.66
210.644	-10.1
210.862	-1.78
211.081	-18.25
211.299	-17.28
211.517	3.7
211.735	-18.27
211.953	12.17
212.171	10.66
212.39	21.71
212.608	31.03
212.826	41.23
213.044	51.4
213.262	40.15
213.48	41.74
213.698	58.6
213.916	61.93
214.134	57.82
214.352	53.89
214.57	51.38
214.788	42.46
215.006	33.38
215.224	41.44
215.442	44.57
215.66	53.34
215.878	39.67
216.096	-8.99
216.314	-10.24
216.532	-2.61
216.75	6.64
216.968	-6.34
217.185	-3.93
217.403	-14.85
217.621	-71.82
217.839	-67.67
218.057	-125.14
218.275	-27
218.492	24.94
218.71	57.55
218.928	69.29
219.146	92.32
219.363	87.75
219.581	82.75
219.799	94.79
220.017	86.63
220.234	117.25
220.452	119.28
220.67	134.52
220.887	176.55
221.105	241.77
221.323	4008.59
221.54	398.9
221.758	2454.29
221.976	1112.99
222.193	278.63
222.411	325.05
222.629	551.74
222.846	638.79
223.064	-535.04
223.281	607.42
223.499	414.25
223.716	596.58
223.934	-422.71
224.151	-110.37
224.369	-48.88
224.586	-2.54
224.804	-2.68
225.021	8.8
225.239	-1.8
225.456	1.96
225.674	3.63
225.891	10.54
226.108	-19.48
226.326	0.07
226.543	26.53
226.76	21.98
226.978	25.37
227.195	19.23
227.413	0.76
227.63	5.94
227.847	5.02
228.064	13.58
228.282	13.15
228.499	14.26
228.716	11.09
228.934	6.28
229.151	5.17
229.368	2.01
229.585	-1.14
229.802	3.22
230.02	0.82
230.237	3.17
230.454	1.93
230.671	1.6
230.888	4.45
231.105	1.35
231.323	1.51
231.54	-2.58
231.757	-3.66
231.974	-1.44
232.191	-0.38
232.408	3.39
232.625	-0.67
232.842	2.94
233.059	1.66
233.276	-9.75
233.493	-4.77
233.71	-0.24
233.927	9.7
234.144	12.03
234.361	8.67
234.578	3.46
234.795	7.87
235.012	6.23
235.229	-1.05
235.446	-4.93
235.663	-3.37
235.879	-2.25
236.096	-3.44
236.313	-10.18
236.53	-5.06
236.747	2.23
236.964	5.84
237.181	-1.94
237.397	-5.17
237.614	-4.9
237.831	-1.67
238.048	1.57
238.264	-2.14
238.481	-10.01
238.698	-2.87
238.915	-1.85
239.131	-5.19
239.348	-9.09
239.565	-7.41
239.781	-3.95
239.998	-4.42
240.215	-4.59
240.431	-7.37
240.648	-2.67
240.865	0.3
241.081	-0.85
241.298	-0.5
241.514	0.91
241.731	2.27
241.947	2.39
242.164	2.43
242.38	4.64
242.597	4.79
242.814	8.15
243.03	8.71
243.246	10.03
243.463	9.73
243.679	8.75
243.896	10.18
244.112	10.21
244.329	10.93
244.545	11.49
244.762	11.89
244.978	14.66
245.194	9.89
245.411	7.42
245.627	6.96
245.843	7.69
246.06	7.31
246.276	7.2
246.492	7.47
246.709	7.09
246.925	6.24
247.141	5.92
247.357	5.74
247.574	6.52
247.79	6.82
248.006	7.48
248.222	7.21
248.439	7.36
248.655	6.3
248.871	5.56
249.087	5.95
249.303	7.13
249.519	7.62
249.736	6.47
249.952	7.03
250.168	9.57
250.384	7.49
250.6	8.32
250.816	6.8
251.032	8.96
251.248	9.79
251.464	8.66
251.68	5.76
251.896	4.36
252.112	3.22
252.328	1.46
252.544	-2.75
252.76	-2.73
252.976	-5.6
253.192	-4.83
253.408	-7.37
253.624	-5.9
253.84	-4.95
254.056	-4.71
254.272	-6.11
254.487	-5.34
254.703	-3.7
254.919	-3.6
255.135	-3.72
255.351	-4.31
255.567	-0.84
255.782	2.99
255.998	2.47
256.214	-1.45
256.43	1.39
256.646	2.39
256.861	4.7
257.077	4.29
257.293	8.42
257.508	10.3
257.724	12.62
257.94	13.06
258.155	10.94
258.371	8.9
258.587	9
258.802	9.04
259.018	8.5
259.234	8.49
259.449	8.47
259.665	7.53
259.88	7.02
260.096	7.14
260.312	5.66
260.527	6.31
260.743	6.15
260.958	7.09
261.174	6.54
261.389	7.28
261.605	7.43
261.82	7.44
262.036	7.9
262.251	7.74
262.466	7.47
262.682	8.73
262.897	7.23
263.113	7.55
263.328	7.91
263.543	7.65
263.759	4.93
263.974	1.44
264.189	0.33
264.405	-1.94
264.62	-1.35
264.835	-2.36
265.051	-2.09
265.266	-0.84
265.481	0.68
265.696	-0.67
265.912	0.27
266.127	2.55
266.342	5.66
266.557	5.72
266.773	5.57
266.988	5.33
267.203	6.75
267.418	6.72
267.633	7.83
267.848	8.04
268.064	8.84
268.279	8.26
268.494	6.77
268.709	5.8
268.924	7.58
269.139	7.69
269.354	8.77
269.569	9.24
269.784	9.33
269.999	8.29
270.214	7.26
270.429	6.55
270.644	6.96
270.859	7.81
271.074	7.72
271.289	6.01
271.504	7.03
271.719	6.81
271.934	5.22
272.149	5.32
272.363	5.28
272.578	5.98
272.793	5.81
273.008	4.6
273.223	4.43
273.438	3.83
273.653	5.05
273.867	4.97
274.082	3.4
274.297	3.49
274.512	1.83
274.726	-0.58
274.941	-1.7
275.156	-0.8
275.371	2.06
275.585	3.4
275.8	4.77
276.015	3.43
276.229	3.15
276.444	3.83
276.659	4.23
276.873	6.33
277.088	8.93
277.302	8.25
277.517	7.58
277.732	6.15
277.946	4.56
278.161	3.56
278.375	4.5
278.59	5.4
278.804	4.81
279.019	4.84
279.233	3.78
279.448	2.7
279.662	3.26
279.877	1.9
280.091	3.12
280.306	3.59
280.52	4.17
280.735	3.65
280.949	2.85
281.163	3.26
281.378	3.73
281.592	4.93
281.806	5.93
282.021	6.16
282.235	7.41
282.449	6.08
282.664	5.97
282.878	6.33
283.092	7.25
283.307	7.33
283.521	7.28
283.735	6.31
283.949	5.4
284.164	5.51
284.378	6.95
284.592	6.67
284.806	8.34
285.02	8.85
285.234	8.21
285.449	7.91
285.663	8.38
285.877	8.78
286.091	8.13
286.305	8.19
286.519	7.91
286.733	7.11
286.947	7.15
287.161	6.64
287.375	6.05
287.589	7.4
287.803	7.96
288.017	7.41
288.231	7.59
288.445	8.68
288.659	8.56
288.873	7.94
289.087	8.53
289.301	8.27
289.515	7.45
289.729	7.19
289.943	4.58
290.157	2.95
290.371	3.07
290.584	3.29
290.798	3.35
291.012	4.69
291.226	5.91
291.44	5.23
291.654	5.16
291.867	4.89
292.081	6.07
292.295	8.06
292.509	7.86
292.722	8.33
292.936	8.5
293.15	10.24
293.364	9.27
293.577	8.73
293.791	8.95
294.005	9.69
294.218	9.26
294.432	8.12
294.645	7.47
294.859	9.44
295.073	8.56
295.286	7.33
295.5	6.32
295.713	5.95
295.927	6.28
296.14	5.97
296.354	5.76
296.568	6.83
296.781	7.44
296.994	7.68
297.208	6.34
297.421	6.38
297.635	6.11
297.848	6.01
298.062	6.45
298.275	7.02
298.489	7.08
298.702	6.51
298.915	6.06
299.129	7.18
299.342	7.56
299.555	8.61
299.769	9.27
299.982	10.02
300.195	10.18
300.409	10.45
300.622	8.46
300.835	9.03
301.048	9.53
301.262	10.08
301.475	7.45
301.688	6.92
301.901	6.24
302.115	6.66
302.328	7.98
302.541	8
302.754	7.73
302.967	8.63
303.18	8.19
303.393	8.46
303.607	8.38
303.82	8.53
304.033	8.96
304.246	9.35
304.459	8.46
304.672	7.45
304.885	6.53
305.098	7.11
305.311	6.73
305.524	6.02
305.737	6.14
305.95	6.1
306.163	5.92
306.376	5.05
306.589	5.39
306.802	5.06
307.015	4.28
307.228	5.71
307.44	6.49
307.653	7.58
307.866	7.96
308.079	8.07
308.292	8.52
308.505	9.56
308.718	9.83
308.93	10.09
309.143	10.28
309.356	11.27
309.569	11.07
309.781	11.09
309.994	11.26
310.207	12
310.42	11.94
310.632	12.12
310.845	11.63
311.058	12.19
311.27	11.57
311.483	12.22
311.696	12.18
311.908	11.95
312.121	11.35
312.333	10.33
312.546	10.11
312.759	10.28
312.971	9.99
313.184	10.95
313.396	9.73
313.609	9.96
313.821	9.32
314.034	8.31
314.246	8.45
314.459	8.05
314.671	8.47
314.884	8.85
315.096	7.79
315.309	7.38
315.521	6.76
315.733	8.16
315.946	7.98
316.158	7.92
316.371	9.66
316.583	8.58
316.795	8.84
317.008	9.52
317.22	9.33
317.432	10.44
317.644	8.88
317.857	9.47
318.069	9.25
318.281	8.79
318.494	8.81
318.706	7.92
318.918	7.7
319.13	7.19
319.342	7.57
319.555	6.62
319.767	5.25
319.979	5.62
320.191	5.88
320.403	5.5
320.615	6.85
320.827	6.88
321.039	6.55
321.252	8.83
321.464	9.75
321.676	9.08
321.888	9.37
322.1	10.45
322.312	11.52
322.524	10.87
322.736	12.21
322.948	11.23
323.16	11.2
323.372	10.99
323.584	9.66
323.796	9.46
324.007	9.17
324.219	10.54
324.431	10.12
324.643	10.47
324.855	11.58
325.067	11.52
325.279	12.23
325.491	13.98
325.702	14.68
325.914	15.64
326.126	15.63
326.338	16.7
326.55	17.47
326.761	18.82
326.973	19.63
327.185	20.32
327.396	20.85
327.608	20.59
327.82	19.74
328.032	20.57
328.243	20.54
328.455	21.99
328.666	21.79
328.878	22.03
329.09	21.84
329.301	22.17
329.513	20.91
329.725	20.2
329.936	20.77
330.148	21.15
330.359	20.26
330.571	20.73
330.782	19.97
330.994	21.74
331.205	21.65
331.417	22.2
331.628	22.39
331.84	21.89
332.051	22.74
332.262	24.39
332.474	25.44
332.685	27.43
332.897	27.99
333.108	28.37
333.319	27.34
333.531	26.7
333.742	28.06
333.953	28.28
334.165	28.73
334.376	29.85
334.587	29.76
334.799	30.3
335.01	30.19
335.221	30.91
335.432	31.64
335.644	32.87
335.855	34.03
336.066	33.42
336.277	33.22
336.488	33.46
336.7	31.86
336.911	30.84
337.122	30.35
337.333	30.5
337.544	29.81
337.755	29.21
337.966	29.34
338.177	29.53
338.388	30.03
338.599	30.7
338.811	31.3
339.022	32.19
339.233	33.32
339.444	32.76
339.655	32.63
339.866	32.91
340.076	33.47
340.287	32.39
340.498	31.48
340.709	30.79
340.92	31.51
341.131	31.53
341.342	31.68
341.553	31.27
341.764	31.77
341.975	31.95
342.185	31.79
342.396	31.28
342.607	31.46
342.818	31.2
343.029	30.73
343.239	29.86
343.45	30.11
343.661	29.91
343.872	29.79
344.082	30.21
344.293	29.95
344.504	31.06
344.714	31.27
344.925	31.02
345.136	31.86
345.346	32.26
345.557	32.46
345.768	31.95
345.978	31.43
346.189	31.68
346.399	31.48
346.61	31.24
346.821	30.32
347.031	30.85
347.242	31.27
347.452	30.22
347.663	29.39
347.873	29.4
348.084	29.6
348.294	29.75
348.504	28.83
348.715	28.97
348.925	28.71
349.136	28.77
349.346	28.03
349.557	28.19
349.767	28.61
349.977	29.33
350.188	28.34
350.398	28.72
350.608	29.44
350.819	30.16
351.029	29.73
351.239	30.3
351.449	30.45
351.66	30.21
351.87	29.92
352.08	30.13
352.29	30.89
352.501	31.03
352.711	30.88
352.921	30.83
353.131	31.07
353.341	31.1
353.552	31.07
353.762	31.19
353.972	32.12
354.182	31.49
354.392	30.59
354.602	29.62
354.812	29.78
355.022	29.67
355.232	29.47
355.442	29.24
355.652	29.73
355.862	29.61
356.072	28.99
356.282	28.36
356.492	29.53
356.702	29.74
356.912	29.9
357.122	30.68
357.332	30.77
357.542	30.89
357.752	30.87
357.962	30.98
358.171	30.88
358.381	32.02
358.591	32.28
358.801	31.79
359.011	31.75
359.221	31.87
359.43	31.53
359.64	31.24
359.85	30.74
360.06	30.49
360.269	30.07
360.479	30.05
360.689	29.49
360.899	29.22
361.108	29.06
361.318	29.6
361.528	29.47
361.737	29.36
361.947	29.18
362.156	29.52
362.366	29.48
362.576	29.1
362.785	29.07
362.995	28.97
363.204	28.67
363.414	28.73
363.623	28.36
363.833	28.11
364.042	28.01
364.252	28.41
364.461	27.93
364.671	27.97
364.88	28.33
365.09	28.23
365.299	28.25
365.509	28.47
365.718	28.23
365.927	28.31
366.137	28.68
366.346	28.48
366.555	28.71
366.765	29.01
366.974	28.99
367.183	29.18
367.393	29.13
367.602	28.9
367.811	29.04
368.021	29.03
368.23	28.84
368.439	28.82
368.648	29.15
368.857	28.54
369.067	27.92
369.276	27.17
369.485	26.61
369.694	27.01
369.903	26.98
370.112	26.7
370.321	27.27
370.531	27.32
370.74	27.25
370.949	27.04
371.158	27.6
371.367	28.36
371.576	28.43
371.785	28.52
371.994	27.7
372.203	27.47
372.412	27.4
372.621	27.09
372.83	27.22
373.039	27.15
373.248	26.98
373.457	26.17
373.666	25.61
373.874	24.97
374.083	24.76
374.292	25.22
374.501	25.3
374.71	24.77
374.919	24.21
375.128	24.17
375.336	24.57
375.545	24.63
375.754	25.28
375.963	25.28
376.171	26.04
376.38	26.67
376.589	26.88
376.798	26.75
377.006	27.09
377.215	26.88
377.424	26.56
377.632	26.42
377.841	26.62
378.05	26.05
378.258	25.87
378.467	26.01
378.675	25.26
378.884	24.63
379.093	24.4
379.301	24.38
379.51	24.83
379.718	25.09
379.927	24.69
380.135	24.86
380.344	25.16
380.552	24.77
380.761	24.52
380.969	24.68
381.177	25.22
381.386	25.26
381.594	25.57
381.803	25.32
382.011	24.67
382.219	24.9
382.428	24.15
382.636	23.82
382.845	24.44
383.053	24.91
383.261	24.74
383.469	24.1
383.678	24.13
383.886	23.9
384.094	24.22
384.302	24.51
384.511	24.01
384.719	24.15
384.927	23.84
385.135	23.32
385.343	22.85
385.552	22.7
385.76	22.54
385.968	22.56
386.176	21.99
386.384	21.53
386.592	21.13
386.8	20.99
387.008	20.71
387.216	20.88
387.424	20.86
387.633	21.09
387.841	20.97
388.049	21.35
388.257	21.26
388.465	21.48
388.672	21.31
388.88	21.48
389.088	21.58
389.296	21.62
389.504	21.44
389.712	21.56
389.92	21.08
390.128	20.93
390.336	20.67
390.544	20.79
390.751	20.66
390.959	20.32
391.167	20.46
391.375	20.4
391.583	20.05
391.79	19.99
391.998	19.89
392.206	20.12
392.414	19.86
392.621	19.5
392.829	19.05
393.037	19.19
393.244	19.35
393.452	18.78
393.66	18.89
393.867	18.98
394.075	19
394.283	18.82
394.49	18.39
394.698	18.54
394.905	18.59
395.113	18.51
395.32	18.52
395.528	18.41
395.735	18.68
395.943	18.11
396.15	18.19
396.358	18.26
396.565	18.42
396.773	18.7
396.98	18.75
397.188	19.18
397.395	19.26
397.602	19.19
397.81	19.11
398.017	18.99
398.225	19.17
398.432	19.01
398.639	18.86
398.847	18.99
399.054	18.84
399.261	18.92
399.468	18.61
399.676	18.56
399.883	18.59
400.09	18.69
400.297	18.53
400.505	18.6
400.712	18.48
400.919	18.19
401.126	17.74
401.333	17.74
401.54	17.55
401.748	17.47
401.955	17.25
402.162	17.09
402.369	17.01
402.576	17.13
402.783	17.33
402.99	17.43
403.197	17.59
403.404	17.5
403.611	17.28
403.818	17.45
404.025	17.34
404.232	17.53
404.439	17.4
404.646	17.6
404.853	17.66
405.06	17.27
405.267	17.47
405.474	17.42
405.681	17.37
405.887	17.58
406.094	17.33
406.301	17.39
406.508	17.45
406.715	17.38
406.922	17.18
407.128	17.41
407.335	17.62
407.542	17.25
407.749	17.41
407.955	17.58
408.162	17.78
408.369	17.82
408.575	17.77
408.782	17.63
408.989	17.67
409.195	18.05
409.402	17.81
409.609	17.85
409.815	17.95
410.022	17.89
410.228	17.93
410.435	17.53
410.642	17.73
410.848	17.63
411.055	17.52
411.261	17.55
411.468	17.44
411.674	17.28
411.881	17.04
412.087	17.11
412.294	17.07
412.5	17.12
412.706	17.26
412.913	17.15
413.119	17.36
413.326	17.43
413.532	17.53
413.738	17.31
413.945	17.18
414.151	17.12
414.357	16.91
414.564	16.9
414.77	16.73
414.976	16.46
415.182	16.24
415.389	16.24
415.595	16.45
415.801	16.2
416.007	16.36
416.214	16.29
416.42	16.48
416.626	16.67
416.832	16.69
417.038	16.78
417.244	16.91
417.45	16.95
417.657	16.71
417.863	16.6
418.069	16.66
418.275	16.45
418.481	16.66
418.687	16.77
418.893	16.85
419.099	16.69
419.305	16.59
419.511	16.44
419.717	16.45
419.923	16.46
420.129	16.39
420.335	16.43
420.541	16.61
420.746	16.61
420.952	16.37
421.158	16.29
421.364	16.26
421.57	16.24
421.776	16.26
421.982	16.2
422.187	16.22
422.393	16.33
422.599	16.28
422.805	16.05
423.01	16.1
423.216	16.17
423.422	16.08
423.628	16.25
423.833	16.22
424.039	16.41
424.245	16.49
424.45	16.58
424.656	16.42
424.862	16.38
425.067	16.42
425.273	16.32
425.478	16.29
425.684	16.35
425.889	16.19
426.095	16.46
426.301	16.16
426.506	16.17
426.712	16.12
426.917	16.31
427.123	16.31
427.328	16.43
427.533	16.37
427.739	16.57
427.944	16.46
428.15	16.5
428.355	16.02
428.561	16.26
428.766	16.29
428.971	16.1
429.177	15.91
429.382	16.02
429.587	15.79
429.793	15.65
429.998	15.52
430.203	15.38
430.408	15.59
430.614	15.64
430.819	15.45
431.024	15.32
431.229	15.39
431.434	15.29
431.64	15.26
431.845	15.32
432.05	15.45
432.255	15.37
432.46	15.58
432.665	15.33
432.87	15.5
433.076	15.56
433.281	15.54
433.486	15.54
433.691	15.55
433.896	15.52
434.101	15.49
434.306	15.51
434.511	15.6
434.716	15.53
434.921	15.64
435.126	15.57
435.331	15.67
435.535	15.64
435.74	15.73
435.945	15.81
436.15	15.69
436.355	15.83
436.56	15.9
436.765	15.82
436.97	15.8
437.174	15.79
437.379	15.78
437.584	15.67
437.789	15.76
437.993	15.8
438.198	15.79
438.403	16.03
438.608	15.94
438.812	15.98
439.017	15.88
439.222	16
439.426	15.87
439.631	15.74
439.836	15.76
440.04	15.89
440.245	15.85
440.45	15.85
440.654	15.74
440.859	15.76
441.063	15.73
441.268	15.74
441.472	15.65
441.677	15.85
441.881	16.06
442.086	16.07
442.29	15.82
442.495	15.89
442.699	15.95
442.904	15.9
443.108	15.77
443.312	15.73
443.517	15.78
443.721	15.71
443.925	15.54
444.13	15.43
444.334	15.54
444.538	15.67
444.743	15.5
444.947	15.44
445.151	15.55
445.356	15.62
445.56	15.62
445.764	15.79
445.968	15.9
446.173	15.85
446.377	15.72
446.581	15.66
446.785	15.64
446.989	15.67
447.193	15.61
447.398	15.63
447.602	15.85
447.806	15.82
448.01	15.7
448.214	15.68
448.418	15.71
448.622	15.76
448.826	15.62
449.03	15.68
449.234	15.83
449.438	15.87
449.642	15.87
449.846	15.47
450.05	15.44
450.254	15.33
450.458	15.18
450.662	15.29
450.866	15.34
451.069	15.54
451.273	15.3
451.477	15.13
451.681	15.15
451.885	15.05
452.089	15
452.292	14.94
452.496	14.92
452.7	14.97
452.904	14.97
453.107	14.96
453.311	15
453.515	15.19
453.719	15.2
453.922	15.08
454.126	14.9
454.33	15.08
454.533	15.11
454.737	15.14
454.94	15.21
455.144	15.08
455.348	15.17
455.551	15.14
455.755	15.05
455.958	15
456.162	15.07
456.365	15.23
456.569	15.29
456.772	15.38
456.976	15.31
457.179	15.16
457.383	15.1
457.586	15.12
457.79	15.01
457.993	15.04
458.196	14.96
458.4	15.2
458.603	15.05
458.807	14.98
459.01	14.98
459.213	15.18
459.417	15.39
459.62	15.4
459.823	15.32
460.026	15.28
460.23	15.29
460.433	15.38
460.636	15.36
460.839	15.58
461.042	15.58
461.246	15.59
461.449	15.49
461.652	15.28
461.855	15.31
462.058	15.25
462.261	15.34
462.464	15.27
462.668	15.22
462.871	15.01
463.074	14.86
463.277	15.01
463.48	14.99
463.683	14.93
463.886	15.08
464.089	14.9
464.292	14.95
464.495	15.06
464.698	15.19
464.901	15.22
465.104	15.33
465.306	15.3
465.509	15.04
465.712	14.96
465.915	14.96
466.118	14.76
466.321	14.86
466.524	14.93
466.726	14.93
466.929	14.73
467.132	15.02
467.335	14.99
467.538	15.15
467.74	15.22
467.943	15.33
468.146	15.59
468.348	15.85
468.551	15.98
468.754	15.99
468.956	15.85
469.159	15.98
469.362	15.89
469.564	15.85
469.767	15.55
469.969	15.71
470.172	15.77
470.375	15.47
470.577	15.49
470.78	15.44
470.982	15.66
471.185	15.83
471.387	15.84
471.59	15.72
471.792	15.6
471.995	15.83
472.197	15.54
472.399	15.22
472.602	15.36
472.804	15.07
473.007	14.92
473.209	14.78
473.411	14.57
473.614	14.74
473.816	14.68
474.018	14.92
474.22	15.02
474.423	15.31
474.625	15.55
474.827	15.53
475.03	15.73
475.232	15.88
475.434	15.86
475.636	15.92
475.838	15.86
476.04	15.95
476.243	15.73
476.445	15.53
476.647	15.59
476.849	15.51
477.051	15.46
477.253	15.35
477.455	15.41
477.657	15.35
477.859	15.38
478.061	15.28
478.263	15.33
478.465	15.34
478.667	15.44
478.869	15.23
479.071	15.27
479.273	15.35
479.475	15.44
479.677	15.39
479.879	15.38
480.081	15.36
480.283	15.4
480.485	15.3
480.686	15.51
480.888	15.49
481.09	15.62
481.292	15.63
481.494	15.64
481.695	15.66
481.897	15.68
482.099	15.71
482.301	15.74
482.502	15.77
482.704	15.75
482.906	15.74
483.107	15.76
483.309	15.72
483.511	15.74
483.712	15.74
483.914	15.72
484.115	15.75
484.317	15.79
484.519	15.76
484.72	15.73
484.922	15.7
485.123	15.66
485.325	15.65
485.526	15.66
485.728	15.62
485.929	15.55
486.131	15.54
486.332	15.53
486.534	15.46
486.735	15.47
486.936	15.5
487.138	15.57
487.339	15.53
487.541	15.6
487.742	15.61
487.943	15.67
488.144	15.76
488.346	15.77
488.547	15.73
488.748	15.72
488.95	15.75
489.151	15.67
489.352	15.64
489.553	15.73
489.755	15.61
489.956	15.56
490.157	15.49
490.358	15.4
490.559	15.43
490.76	15.45
490.961	15.49
491.163	15.49
491.364	15.56
491.565	15.54
491.766	15.53
491.967	15.55
492.168	15.63
492.369	15.67
492.57	15.69
492.771	15.64
492.972	15.57
493.173	15.55
493.374	15.52
493.575	15.55
493.776	15.56
493.976	15.53
494.177	15.37
494.378	15.31
494.579	15.48
494.78	15.47
494.981	15.46
495.182	15.74
495.382	15.74
495.583	15.77
495.784	15.75
495.985	15.77
496.185	15.68
496.386	15.95
496.587	15.96
496.788	15.78
496.988	15.91
497.189	16.1
497.39	15.98
497.59	16.03
497.791	16.11
497.992	16.16
498.192	16.1
498.393	16.22
498.593	16.23
498.794	16.2
498.994	16.31
499.195	16.22
499.395	16.08
499.596	16.23
499.796	16.28
499.997	16.34
500.197	16.25
500.398	16.39
500.598	16.37
500.799	16.38
500.999	16.41
501.199	16.23
501.4	16.28
501.6	16.29
501.801	16.07
502.001	16.05
502.201	15.76
502.402	15.9
502.602	15.81
502.802	15.92
503.002	16.04
503.203	16.32
503.403	16.5
503.603	16.64
503.803	16.71
504.003	16.78
504.204	16.84
504.404	17.22
504.604	17.33
504.804	17.49
505.004	17.42
505.204	17.28
505.404	17.25
505.604	17.24
505.804	17.29
506.005	17.31
506.205	17.54
506.405	17.58
506.605	17.51
506.805	17.51
507.005	17.59
507.204	17.75
507.404	17.73
507.604	17.74
507.804	17.77
508.004	17.64
508.204	17.68
508.404	17.71
508.604	17.92
508.804	18.11
509.003	18.3
509.203	18.25
509.403	18.48
509.603	18.6
509.803	18.68
510.002	18.78
510.202	19
510.402	19.11
510.602	19.09
510.801	19.06
511.001	18.99
511.201	18.87
511.4	18.94
511.6	18.82
511.8	19.02
511.999	19.11
512.199	19.1
512.398	19.02
512.598	19.02
512.797	19.18
512.997	19.15
513.197	19.27
513.396	19.39
513.596	19.56
513.795	19.78
513.994	19.75
514.194	19.77
514.393	19.93
514.593	20.15
514.792	20.33
514.992	20.31
515.191	20.44
515.39	20.55
515.59	20.61
515.789	20.65
515.988	20.69
516.188	20.9
516.387	21.05
516.586	21.16
516.786	21.2
516.985	21.29
517.184	21.4
517.383	21.5
517.582	21.5
517.782	21.61
517.981	21.64
518.18	21.61
518.379	21.61
518.578	21.57
518.777	21.61
518.976	21.7
519.176	21.71
519.375	21.8
519.574	21.92
519.773	21.95
519.972	21.96
520.171	22.06
520.37	22.06
520.569	22.16
520.768	22.31
520.967	22.36
521.166	22.45
521.365	22.58
521.564	22.56
521.762	22.56
521.961	22.76
522.16	22.86
522.359	23.07
522.558	23.24
522.757	23.25
522.956	23.3
523.154	23.44
523.353	23.48
523.552	23.52
523.751	23.7
523.949	23.85
524.148	23.85
524.347	23.88
524.546	23.85
524.744	23.9
524.943	23.92
525.142	23.86
525.34	23.91
525.539	23.88
525.737	23.99
525.936	24.06
526.135	24.06
526.333	24.16
526.532	24.31
526.73	24.41
526.929	24.39
527.127	24.55
527.326	24.69
527.524	24.73
527.723	24.98
527.921	24.97
528.12	25.02
528.318	25.06
528.516	25.09
528.715	25.15
528.913	25.16
529.112	25.21
529.31	25.22
529.508	25.27
529.707	25.35
529.905	25.32
530.103	25.43
530.301	25.4
530.5	25.51
530.698	25.51
530.896	25.54
531.094	25.66
531.293	25.84
531.491	25.9
531.689	25.98
531.887	26.02
532.085	26.15
532.283	26.2
532.481	26.34
532.68	26.39
532.878	26.53
533.076	26.56
533.274	26.54
533.472	26.56
533.67	26.67
533.868	26.74
534.066	26.75
534.264	26.78
534.462	26.87
534.66	26.92
534.858	26.98
535.056	27.02
535.253	27.06
535.451	27.23
535.649	27.35
535.847	27.4
536.045	27.43
536.243	27.6
536.441	27.68
536.638	27.74
536.836	27.84
537.034	27.91
537.232	27.94
537.43	28.07
537.627	27.99
537.825	28
538.023	28.06
538.22	28.1
538.418	28.07
538.616	28.09
538.813	28.11
539.011	28.16
539.209	28.23
539.406	28.39
539.604	28.42
539.801	28.59
539.999	28.73
540.196	28.77
540.394	28.91
540.591	29
540.789	29.01
540.986	29.18
541.184	29.26
541.381	29.32
541.579	29.33
541.776	29.43
541.974	29.58
542.171	29.68
542.368	29.81
542.566	29.86
542.763	30.03
542.96	30.11
543.158	30.16
543.355	30.26
543.552	30.38
543.75	30.47
543.947	30.46
544.144	30.43
544.341	30.44
544.539	30.41
544.736	30.49
544.933	30.47
545.13	30.43
545.327	30.4
545.524	30.36
545.722	30.38
545.919	30.51
546.116	30.78
546.313	30.82
546.51	30.81
546.707	30.9
546.904	31
547.101	31.05
547.298	31.27
547.495	31.29
547.692	31.52
547.889	31.78
548.086	31.88
548.283	31.77
548.48	31.75
548.677	31.85
548.874	32.07
549.07	32.07
549.267	32.22
549.464	32.36
549.661	32.54
549.858	32.5
550.055	32.36
550.251	32.35
550.448	32.56
550.645	32.99
550.842	33.18
551.038	33.23
551.235	33.6
551.432	33.69
551.628	33.68
551.825	33.84
552.022	33.99
552.218	34.08
552.415	34.12
552.612	34.05
552.808	33.96
553.005	34.08
553.201	34.16
553.398	34.06
553.594	34.14
553.791	34.34
553.987	34.38
554.184	34.42
554.38	34.55
554.577	34.88
554.773	35.24
554.97	35.42
555.166	35.46
555.362	35.55
555.559	35.7
555.755	35.83
555.952	35.87
556.148	35.88
556.344	36.02
556.541	36
556.737	35.85
556.933	35.65
557.129	35.67
557.326	35.84
557.522	35.93
557.718	36.09
557.914	36.22
558.11	36.45
558.307	36.62
558.503	36.56
558.699	36.62
558.895	36.78
559.091	36.87
559.287	37.06
559.483	37.08
559.679	37.07
559.876	36.97
560.072	36.78
560.268	36.63
560.464	36.93
560.66	37.18
560.856	37.4
561.052	37.68
561.247	37.92
561.443	38.1
561.639	38.18
561.835	38.2
562.031	38.4
562.227	38.57
562.423	38.52
562.619	38.5
562.815	38.48
563.01	38.5
563.206	38.43
563.402	38.36
563.598	38.2
563.793	38.29
563.989	38.49
564.185	38.35
564.381	38.36
564.576	38.79
564.772	38.71
564.968	38.68
565.163	38.73
565.359	38.84
565.555	38.93
565.75	39.16
565.946	39.24
566.141	39.17
566.337	39.38
566.532	39.52
566.728	39.58
566.923	39.58
567.119	39.85
567.314	39.89
567.51	39.81
567.705	39.76
567.901	39.72
568.096	39.86
568.292	40.1
568.487	40.16
568.682	40.03
568.878	39.97
569.073	40.17
569.268	40.16
569.464	40.17
569.659	40.31
569.854	40.56
570.05	40.65
570.245	40.77
570.44	40.87
570.635	40.77
570.831	40.89
571.026	40.92
571.221	40.94
571.416	40.89
571.611	41.03
571.806	41.1
572.002	41.19
572.197	41.25
572.392	41.14
572.587	41.12
572.782	41.34
572.977	41.58
573.172	41.63
573.367	41.5
573.562	41.55
573.757	41.5
573.952	41.44
574.147	41.32
574.342	41.4
574.537	41.4
574.732	41.5
574.927	41.53
575.121	41.45
575.316	41.36
575.511	41.63
575.706	41.89
575.901	42.1
576.096	42.23
576.29	42.41
576.485	42.55
576.68	42.66
576.875	42.65
577.069	42.47
577.264	42.45
577.459	42.58
577.654	42.73
577.848	42.48
578.043	42.41
578.238	42.64
578.432	42.66
578.627	42.62
578.821	42.45
579.016	42.29
579.21	42.37
579.405	42.58
579.6	42.76
579.794	42.53
579.989	42.71
580.183	42.61
580.378	42.3
580.572	42.39
580.766	42.44
580.961	42.6
581.155	42.62
581.35	42.52
581.544	42.54
581.738	42.38
581.933	42.43
582.127	42.44
582.321	42.53
582.516	42.68
582.71	42.78
582.904	42.93
583.099	43.02
583.293	43.4
583.487	43.87
583.681	43.5
583.875	43.5
584.07	43.54
584.264	43.59
584.458	43.85
584.652	43.97
584.846	43.96
585.04	43.61
585.234	43.74
585.428	43.75
585.623	43.75
585.817	44.03
586.011	44.12
586.205	44.33
586.399	44.28
586.593	43.96
586.787	43.98
586.981	43.98
587.174	44.02
587.368	43.74
587.562	43.13
587.756	42.91
587.95	43.02
588.144	43.19
588.338	43.16
588.532	43.33
588.725	43.51
588.919	43.53
589.113	43.44
589.307	43.55
589.501	43.86
589.694	44.41
589.888	44.77
590.082	44.51
590.275	44.31
590.469	44.15
590.663	43.84
590.856	44.02
591.05	43.94
591.244	44.04
591.437	44.07
591.631	44.01
591.824	43.99
592.018	43.8
592.212	44.2
592.405	44.39
592.599	44.55
592.792	44.69
592.986	44.61
593.179	44.79
593.372	44.78
593.566	44.85
593.759	44.81
593.953	44.92
594.146	44.89
594.339	44.79
594.533	44.75
594.726	44.66
594.92	44.81
595.113	44.85
595.306	44.75
595.499	44.67
595.693	44.63
595.886	44.7
596.079	44.45
596.272	44.58
596.466	44.53
596.659	44.63
596.852	44.81
597.045	45
597.238	45.06
597.431	45.11
597.624	45.13
597.818	45.12
598.011	45.24
598.204	45.36
598.397	45.13
598.59	45.25
598.783	45.27
598.976	45.22
599.169	45.08
599.362	44.82
599.555	44.75
599.748	45.08
599.941	44.97
600.134	45.12
600.326	45.22
600.519	45.19
600.712	45.29
600.905	45.08
601.098	44.93
601.291	44.67
601.483	44.81
601.676	44.69
601.869	44.6
602.062	44.6
602.255	44.2
602.447	44.26
602.64	44.61
602.833	44.45
603.025	44.84
603.218	44.94
603.411	45.14
603.603	45.18
603.796	45.3
603.989	45.1
604.181	45.22
604.374	45.63
604.566	45.72
604.759	45.64
604.951	45.94
605.144	45.61
605.336	45.74
605.529	45.74
605.721	45.69
605.914	45.7
606.106	45.99
606.299	45.97
606.491	45.7
606.683	45.51
606.876	45.44
607.068	45.29
607.26	45.36
607.453	45.18
607.645	45.06
607.837	45.22
608.03	45.35
608.222	45.36
608.414	45.62
608.606	45.7
608.799	45.51
608.991	45.82
609.183	45.72
609.375	45.98
609.567	46.12
609.759	46.35
609.952	46.39
610.144	46.42
610.336	46.51
610.528	46.28
610.72	46.15
610.912	46.38
611.104	46.28
611.296	46.37
611.488	46.31
611.68	46.24
611.872	46.11
612.064	46.08
612.256	45.84
612.448	45.41
612.64	45.34
612.832	45.29
613.023	45.35
613.215	45.2
613.407	45.03
613.599	44.79
613.791	44.89
613.983	44.64
614.174	44.65
614.366	44.99
614.558	45.53
614.75	45.76
614.941	45.68
615.133	45.59
615.325	45.76
615.516	45.86
615.708	46.11
615.9	45.87
616.091	46.37
616.283	46.42
616.475	46.61
616.666	46.16
616.858	46.24
617.049	46.52
617.241	46.64
617.432	46.51
617.624	46.74
617.815	46.53
618.007	46.62
618.198	46.33
618.39	46.05
618.581	45.63
618.773	45.55
618.964	45.56
619.155	45.76
619.347	45.75
619.538	45.68
619.729	45.68
619.921	45.94
620.112	45.78
620.303	45.74
620.494	45.92
620.686	46.12
620.877	46.48
621.068	46.43
621.259	46.06
621.451	45.91
621.642	46.02
621.833	45.98
622.024	46.12
622.215	46.58
622.406	46.56
622.597	46.62
622.788	46.54
622.98	46.34
623.171	46.55
623.362	46.62
623.553	46.72
623.744	46.81
623.935	46.59
624.126	46.32
624.317	45.87
624.508	46.36
624.698	46.26
624.889	45.96
625.08	46.07
625.271	46.02
625.462	45.97
625.653	46.24
625.844	46.27
626.034	46.51
626.225	46.6
626.416	46.5
626.607	46.27
626.798	46.27
626.988	46.8
627.179	46.87
627.37	46.86
627.56	47.05
627.751	46.9
627.942	46.97
628.132	46.81
628.323	46.85
628.514	46.95
628.704	47.03
628.895	46.98
629.085	46.75
629.276	46.67
629.466	46.73
629.657	46.44
629.847	46.34
630.038	46.01
630.228	46.22
630.419	46.34
630.609	46.74
630.8	46.53
630.99	46.82
631.181	46.48
631.371	46.6
631.561	46.72
631.752	46.87
631.942	46.77
632.132	47.05
632.323	46.83
632.513	46.9
632.703	46.76
632.893	47.06
633.084	46.92
633.274	47.13
633.464	46.86
633.654	46.65
633.844	46.68
634.034	46.93
634.225	46.96
634.415	47.08
634.605	46.87
634.795	46.78
634.985	46.75
635.175	47.01
635.365	47.01
635.555	47.09
635.745	46.86
635.935	47.01
636.125	46.92
636.315	46.78
636.505	46.43
636.695	46.21
636.885	46.1
637.075	46.03
637.265	45.87
637.455	46.08
637.644	46.15
637.834	46.33
638.024	46.03
638.214	46.41
638.404	46.49
638.593	46.8
638.783	46.75
638.973	47.13
639.163	47.26
639.352	47.16
639.542	47.04
639.732	47.32
639.921	47.14
640.111	47.43
640.301	46.86
640.49	47.11
640.68	47.2
640.87	47.27
641.059	47.04
641.249	46.9
641.438	47.09
641.628	46.9
641.817	46.94
642.007	47.12
642.196	47.68
642.386	48.11
642.575	47.49
642.764	47.47
642.954	47.94
643.143	47.81
643.333	48.01
643.522	47.48
643.711	47.87
643.901	47.42
644.09	47.16
644.279	46.44
644.469	46.28
644.658	46.33
644.847	46.3
645.036	45.82
645.226	45.98
645.415	46.01
645.604	46.25
645.793	45.81
645.982	45.81
646.171	46.29
646.361	46.43
646.55	46.35
646.739	46.63
646.928	46.58
647.117	47
647.306	46.97
647.495	46.55
647.684	46.57
647.873	47
648.062	46.95
648.251	46.77
648.44	46.68
648.629	46.93
648.818	46.94
649.007	47.21
649.196	47.43
649.384	47.48
649.573	47.66
649.762	47.97
649.951	47.88
650.14	47.93
650.328	47.76
650.517	47.65
650.706	47.67
650.895	47.58
651.083	47.49
651.272	46.83
651.461	47.08
651.65	46.98
651.838	46.84
652.027	47.03
652.216	47.18
652.404	47.82
652.593	47.89
652.781	47.74
652.97	48.14
653.158	47.99
653.347	48.21
653.535	48.04
653.724	48.11
653.912	47.84
654.101	47.95
654.289	47.98
654.478	47.64
654.666	47.72
654.855	47.72
655.043	47.77
655.231	47.75
655.42	48.18
655.608	48.18
655.796	48.22
655.985	48.47
656.173	47.57
656.361	47.62
656.55	47.3
656.738	47.02
656.926	46.95
657.114	46.45
657.302	46.54
657.491	46.17
657.679	46.28
657.867	46.39
658.055	46.33
658.243	46.29
658.431	46.11
658.619	46.39
658.807	46.7
658.996	46.49
659.184	46.55
659.372	46.51
659.56	46.46
659.748	46.63
659.936	46.58
660.124	46.76
660.311	47.26
660.499	47.35
660.687	47.2
660.875	47.57
661.063	47.93
661.251	48.13
661.439	48.03
661.627	47.99
661.814	47.87
662.002	48.34
662.19	48.13
662.378	48.29
662.565	48.47
662.753	48.82
662.941	48.81
663.129	48.71
663.316	48.72
663.504	48.93
663.692	49.31
663.879	49.33
664.067	48.9
664.254	49.11
664.442	48.78
664.63	48.73
664.817	48.3
665.005	47.98
665.192	47.84
665.38	47.83
665.567	47.95
665.755	47.88
665.942	47.41
666.13	47.12
666.317	47.13
666.504	47.13
666.692	47.33
666.879	47.61
667.067	47.37
667.254	47.88
667.441	48.06
667.629	48.06
667.816	48.34
668.003	48.57
668.19	48.59
668.378	48.24
668.565	48.26
668.752	48.18
668.939	48.4
669.127	48.41
669.314	47.87
669.501	47.8
669.688	47.73
669.875	47.23
670.062	47.05
670.249	47.34
670.436	47.5
670.623	47.7
670.81	47.8
670.997	47.49
671.184	47.56
671.371	47.85
671.558	47.52
671.745	47.17
671.932	47.69
672.119	47.76
672.306	47.53
672.493	47.61
672.68	47.87
672.867	47.54
673.054	47.42
673.24	47.71
673.427	47.37
673.614	47.5
673.801	47.97
673.988	47.36
674.174	47.19
674.361	47.36
674.548	47.46
674.734	47.28
674.921	47.34
675.108	47.23
675.294	47.1
675.481	46.97
675.668	46.91
675.854	46.84
676.041	47.13
676.227	47.43
676.414	47.44
676.601	46.94
676.787	46.87
676.974	46.26
677.16	46.66
677.347	46.78
677.533	47.42
677.719	47.55
677.906	47.3
678.092	47.96
678.279	48.31
678.465	48.1
678.651	48.06
678.838	48.06
679.024	48.42
679.21	48.17
679.397	48.21
679.583	47.65
679.769	47.09
679.955	47.01
680.142	46.86
680.328	46.76
680.514	47.23
680.7	47.48
680.886	47.54
681.073	47.73
681.259	47.52
681.445	46.81
681.631	47.01
681.817	47.36
682.003	47.5
682.189	47.17
682.375	46.96
682.561	46.75
682.747	46.85
682.933	46.54
683.119	46.52
683.305	46.95
683.491	47.43
683.677	47.87
683.863	48.37
684.049	48.69
684.235	48.76
684.42	48.86
684.606	49.13
684.792	48.95
684.978	48.83
685.164	48.6
685.349	48.69
685.535	48.61
685.721	48.52
685.907	48.16
686.092	48.7
686.278	48.06
686.464	48.2
686.649	47.13
686.835	47.39
687.021	47.17
687.206	47.43
687.392	47.27
687.577	47.71
687.763	47.72
687.948	47.39
688.134	46.55
688.319	47.38
688.505	46.89
688.69	47.16
688.876	46.84
689.061	47.8
689.247	47.77
689.432	47.49
689.618	46.8
689.803	46.63
689.988	47.02
690.174	46.77
690.359	45.84
690.544	46.12
690.73	46.41
690.915	46.88
691.1	46.02
691.285	46.03
691.471	46.06
691.656	46.36
691.841	46.26
692.026	46.07
692.211	45.81
692.396	46.26
692.582	46.57
692.767	46.21
692.952	45.75
693.137	45.85
693.322	45.91
693.507	46.1
693.692	46.29
693.877	46.48
694.062	46.88
694.247	47.84
694.432	48.35
694.617	47.8
694.802	48.24
694.987	48.48
695.172	48.83
695.357	49.36
695.541	49.42
695.726	49.72
695.911	49.55
696.096	49.11
696.281	48.28
696.466	47.99
696.65	48.16
696.835	47.93
697.02	47.34
697.204	47.36
697.389	46.84
697.574	46.57
697.759	46.18
697.943	46.51
698.128	46.72
698.312	46.89
698.497	46.77
698.682	46.52
698.866	46.41
699.051	46.69
699.235	46.43
699.42	46.57
699.604	46.41
699.789	46.62
699.973	46.2
700.158	46.2
700.342	46.15
700.527	46.39
700.711	46.58
700.895	46.67
701.08	46.36
701.264	46.73
701.448	46.41
701.633	46.85
701.817	46.1
702.001	46.14
702.186	46.35
702.37	46.83
702.554	46.5
702.738	46.54
702.923	46.61
703.107	47.21
703.291	47
703.475	47.11
703.659	47.26
703.843	47.96
704.027	48.37
704.212	47.98
704.396	47.57
704.58	47.92
704.764	48.32
704.948	47.97
705.132	47.49
705.316	48.12
705.5	48.2
705.684	47.92
705.868	48.14
706.052	47.91
706.235	48.09
706.419	48.11
706.603	48.34
706.787	47.76
706.971	48.64
707.155	49.49
707.339	49.05
707.522	49.87
707.706	49.61
707.89	49.4
708.074	49.14
708.257	48.74
708.441	48.84
708.625	48.11
708.808	48.66
708.992	48.64
709.176	48.14
709.359	47.99
709.543	47.62
709.727	48.63
709.91	48.56
710.094	49.36
710.277	49.3
710.461	49.06
710.644	49.74
710.828	49.54
711.011	49.06
711.195	48.66
711.378	48.76
711.562	48.81
711.745	48.32
711.928	48.43
712.112	47.96
712.295	47.7
712.478	48.71
712.662	48.02
712.845	47.71
713.028	47.72
713.212	47.67
713.395	47.36
713.578	46.61
713.761	46.75
713.945	46.51
714.128	45.96
714.311	47.21
714.494	46.85
714.677	47.12
714.86	47.65
715.043	47.55
715.227	48.28
715.41	48.15
715.593	48.45
715.776	48.1
715.959	48.85
716.142	49.12
716.325	48.22
716.508	47.51
716.691	47.55
716.874	47.3
717.057	47.86
717.239	47.61
717.422	48.54
717.605	48.37
717.788	48.16
717.971	47.06
718.154	46.73
718.337	46.53
718.519	47
718.702	47.3
718.885	47
719.068	45.99
719.25	45.74
719.433	45.18
719.616	45.14
719.798	46.04
719.981	45.58
720.164	46.37
720.346	47.01
720.529	46.73
720.712	46.33
720.894	46.49
721.077	46.79
721.259	46.54
721.442	45.57
721.624	44.86
721.807	44.23
721.989	45.67
722.172	44.68
722.354	43.93
722.537	44.18
722.719	44.3
722.901	44.48
723.084	45.62
723.266	45.82
723.448	45.89
723.631	47.27
723.813	47.12
723.995	44.98
724.178	45.94
724.36	47.03
724.542	46.94
724.724	46.07
724.907	45.76
725.089	45
725.271	45.73
725.453	46.92
725.635	46.87
725.817	46.53
725.999	47.97
726.181	47.62
726.364	47.55
726.546	48.03
726.728	48.9
726.91	48.6
727.092	48.34
727.274	48.51
727.456	47.82
727.638	46.81
727.819	48.2
728.001	48.19
728.183	48.34
728.365	48.21
728.547	47.98
728.729	46.68
728.911	47.66
729.093	48.34
729.274	48.53
729.456	49.13
729.638	49.8
729.82	48.87
730.001	49.02
730.183	50.4
730.365	49.27
730.546	48.9
730.728	50.1
730.91	49.91
731.091	48.22
731.273	47.44
731.455	46.44
731.636	46.01
731.818	46.3
731.999	46.36
732.181	45.07
732.362	46.17
732.544	46.17
732.725	46.34
732.907	46.22
733.088	47.21
733.27	47.43
733.451	47.56
733.633	47.22
733.814	46.83
733.995	47
734.177	46.26
734.358	46.93
734.539	47.18
734.721	46.75
734.902	46.76
735.083	46.79
735.264	46.92
735.446	48.47
735.627	49.39
735.808	50.04
735.989	48.1
736.17	48.77
736.351	47.11
736.533	46.65
736.714	47.24
736.895	46.31
737.076	46.38
737.257	46.08
737.438	45.08
737.619	44.42
737.8	43.83
737.981	45.98
738.162	45.53
738.343	45.86
738.524	45.93
738.705	45.27
738.886	45.54
739.067	45.27
739.247	45.45
739.428	44.94
739.609	44.9
739.79	45.35
739.971	45.48
740.151	45.95
740.332	46.45
740.513	46.94
740.694	47.57
740.874	48.04
741.055	47.85
741.236	47.27
741.417	47.9
741.597	48.25
741.778	47.99
741.958	47.22
742.139	46.67
742.32	45.44
742.5	44.32
742.681	43.5
742.861	43.63
743.042	44.08
743.222	44.71
743.403	44.68
743.583	44.89
743.764	44.12
743.944	44.34
744.124	44.56
744.305	45.87
744.485	46.88
744.666	47.14
744.846	47.3
745.026	47.45
745.207	47.32
745.387	46.45
745.567	46.42
745.747	47.25
745.928	47.39
746.108	48.1
746.288	48.67
746.468	48.29
746.648	48.48
746.829	47.66
747.009	48.32
747.189	49.3
747.369	49.24
747.549	49.53
747.729	48.78
747.909	48.98
748.089	48.19
748.269	46.5
748.449	46.2
748.629	46.37
748.809	47.11
748.989	47.36
749.169	45.37
749.349	45.64
749.529	45.26
749.709	45.6
749.889	45.04
750.068	44.59
750.248	44.16
750.428	45.41
750.608	45.19
750.788	45.17
750.967	45.26
751.147	45.92
751.327	47.96
751.507	47.86
751.686	47.89
751.866	48.14
752.046	48.25
752.225	49.22
752.405	48.73
752.585	49.73
752.764	49.13
752.944	48.77
753.123	49.25
753.303	47
753.482	46.6
753.662	47.05
753.841	47.17
754.021	47.4
754.2	47.35
754.38	46.86
754.559	45.98
754.739	46.77
754.918	46
755.097	45.32
755.277	46.34
755.456	47.54
755.635	46.82
755.815	47.29
755.994	47.86
756.173	47.4
756.352	48.62
756.532	48.61
756.711	48
756.89	49
757.069	49.62
757.248	48.56
757.427	47.55
757.607	46.95
757.786	46.32
757.965	46.4
758.144	47.52
758.323	46.23
758.502	46.9
758.681	46.52
758.86	46.35
759.039	46.27
759.218	46.71
759.397	47.09
759.576	47.21
759.755	47.11
759.934	47.23
760.113	46.19
760.291	46.37
760.47	46.46
760.649	46.48
760.828	47.06
761.007	45.99
761.186	46.04
761.364	46.45
761.543	48.3
761.722	48.87
761.901	48.79
762.079	49.71
762.258	49.39
762.437	48.68
762.615	49.16
762.794	48.71
762.972	48.99
763.151	48.94
763.33	48.81
763.508	48.05
763.687	48.48
763.865	47.71
764.044	47.58
764.222	47.63
764.401	47.17
764.579	47.07
764.758	46.98
764.936	47.2
765.114	48.51
765.293	49
765.471	50.03
765.65	49.35
765.828	50.09
766.006	50.68
766.184	50.48
766.363	51.03
766.541	52.2
766.719	53.25
766.898	53.63
767.076	52.25
767.254	51.87
767.432	51
767.61	50.49
767.788	50.74
767.967	50.96
768.145	50.33
768.323	50.2
768.501	49.42
768.679	47.53
768.857	47.85
769.035	48.28
769.213	48.52
769.391	48.5
769.569	48.64
769.747	47.98
769.925	45.84
770.103	47.63
770.281	47.44
770.459	46.88
770.636	48.39
770.814	48.31
770.992	49.03
771.17	48.29
771.348	47.46
771.525	48.82
771.703	48.77
771.881	49.66
772.059	49.52
772.236	48.08
772.414	47.08
772.592	45.55
772.769	46.09
772.947	47.21
773.125	48.68
773.302	50.47
773.48	51.5
773.657	51.84
773.835	52.35
774.013	50.86
774.19	50.65
774.368	52.13
774.545	50.74
774.723	48.66
774.9	47.68
775.077	45.36
775.255	44.41
775.432	41.4
775.61	41.75
775.787	40.06
775.964	42.5
776.142	43.9
776.319	44.01
776.496	45.18
776.674	47.24
776.851	45.84
777.028	45.42
777.205	46.07
777.382	45.63
777.56	44.8
777.737	45.61
777.914	42.42
778.091	42.37
778.268	40.56
778.445	40.39
778.622	40.25
778.8	39.7
778.977	41.32
779.154	42.4
779.331	43.85
779.508	43.78
779.685	42.81
779.862	47.17
780.038	47.46
780.215	48.98
780.392	50.13
780.569	49.17
780.746	50.89
780.923	49.79
781.1	46.97
781.277	46.47
781.453	48.4
781.63	50.19
781.807	48.08
781.984	49.57
782.16	49.61
782.337	48.97
782.514	46.46
782.691	45.33
782.867	45.42
783.044	44.46
783.221	44.54
783.397	42.12
783.574	39.74
783.75	40.32
783.927	41.27
784.103	42.65
784.28	44.02
784.456	48.07
784.633	45.94
784.809	47.11
784.986	48.81
785.162	47.4
785.339	47.81
785.515	49.32
785.692	47.93
785.868	44.21
786.044	40.4
786.221	37.14
786.397	36.2
786.573	38.31
786.749	37.97
786.926	39.14
787.102	40.26
787.278	42.44
787.454	41.64
787.631	42.72
787.807	45.5
787.983	47.75
788.159	49.46
788.335	46.52
788.511	46.99
788.687	46.5
788.863	46.87
789.039	48.35
789.216	43.18
789.392	43.88
789.568	43.29
789.744	42.68
789.919	40.44
790.095	41.89
790.271	43.85
790.447	44.9
790.623	47.22
790.799	48.19
790.975	45.6
791.151	50.11
791.327	52.41
791.502	51.78
791.678	51.67
791.854	54.11
792.03	51.99
792.205	54.84
792.381	51.6
792.557	52.45
792.733	50.3
792.908	51.97
793.084	51.86
793.259	49.01
793.435	49.73
793.611	48.71
793.786	50.41
793.962	50.07
794.137	48.09
794.313	49.76
794.488	45.99
794.664	46.55
794.839	45.11
795.015	46.85
795.19	47.59
795.366	46.71
795.541	47.32
795.716	45.62
795.892	44.47
796.067	44.38
796.242	43.87
796.418	45.4
796.593	43.99
796.768	44.38
796.944	42.22
797.119	42.85
797.294	42.93
797.469	43.46
797.644	41.91
797.82	41.78
797.995	40.19
798.17	41.1
798.345	40.58
798.52	41.56
798.695	40.62
798.87	41.11
799.045	41.08
799.22	43.02
799.395	42.56
799.57	46.22
799.745	47.17
799.92	46.72
800.095	47.44
800.27	45.57
800.445	45.08
800.62	44.16
800.795	43.45
800.97	43.25
801.145	44.41
801.319	43.35
801.494	39.58
801.669	42.1
801.844	43.01
802.018	44.78
802.193	48.53
802.368	49.99
802.543	50.41
802.717	53.04
802.892	51.74
803.067	51.45
803.241	53.16
803.416	54.99
803.59	51.6
803.765	54.38
803.94	51.81
804.114	47.05
804.289	42.41
804.463	40.84
804.638	39.06
804.812	39.34
804.986	40.64
805.161	39.68
805.335	39.56
805.51	40.59
805.684	38.24
805.858	39.01
806.033	39.11
806.207	41.01
806.381	45.85
806.556	44.74
806.73	46.22
806.904	43.79
807.078	45.54
807.253	45.12
807.427	45.71
807.601	48.38
807.775	46.59
807.949	47.25
808.123	45.97
808.298	45.03
808.472	44.8
808.646	43.27
808.82	40.22
808.994	37.45
809.168	37.01
809.342	35.48
809.516	34.75
809.69	34.94
809.864	34.21
810.038	38.54
810.212	37.05
810.385	36.49
810.559	39.41
810.733	40.32
810.907	41.05
811.081	40.81
811.255	37.02
811.428	33.4
811.602	34.46
811.776	36.73
811.95	34.37
812.123	39.11
812.297	38.79
812.471	39.77
812.644	41.08
812.818	41.83
812.992	40
813.165	43.7
813.339	48.46
813.512	46.86
813.686	49.42
813.86	51.23
814.033	48.79
814.207	51.91
814.38	47.72
814.554	49.57
814.727	50.22
814.9	50.15
815.074	52.94
815.247	45.38
815.421	51.26
815.594	47.49
815.767	45.89
815.941	47.82
816.114	44.82
816.287	44.13
816.46	41.47
816.634	37.54
816.807	39.38
816.98	40.22
817.153	47.31
817.327	42.04
817.5	42.39
817.673	43.46
817.846	39.41
818.019	44.35
818.192	46.31
818.365	49.67
818.538	55.1
818.711	51.76
818.884	45.86
819.057	38.77
819.23	38.81
819.403	38.88
819.576	36.49
819.749	38.61
819.922	37.61
820.095	37.92
820.268	34.73
820.441	33.71
820.614	38.25
820.786	43.33
820.959	47.07
821.132	46.47
821.305	47.11
821.477	48.47
821.65	48.14
821.823	47
821.996	46.75
822.168	47.97
822.341	47.63
822.514	46.57
822.686	45.46
822.859	45.76
823.031	46.01
823.204	45.27
823.376	44.79
823.549	44.88
823.722	45.14
823.894	45.33
824.067	44.77
824.239	44.79
824.411	45
824.584	45.21
824.756	44.37
824.929	43.95
825.101	45.24
825.273	45.59
825.446	45.28
825.618	45.28
825.79	45.43
825.963	45
826.135	44.71
826.307	44.44
826.479	44.52
826.652	44.72
826.824	44.4
826.996	43.02
827.168	42.42
827.34	41.76
827.512	42.57
827.684	41.74
827.856	42.13
828.029	42.35
828.201	42.37
828.373	42.17
828.545	41.98
828.717	42.1
828.889	41.68
829.061	42.07
829.232	42.28
829.404	40.65
829.576	39.82
829.748	39.54
829.92	39.93
830.092	39.38
830.264	38.75
830.436	37.68
830.607	38.43
830.779	39.17
830.951	39.05
831.123	39.81
831.294	39.26
831.466	37.71
831.638	36.93
831.809	35.69
831.981	37.94
832.153	37.53
832.324	35.01
832.496	35.99
832.667	34.63
832.839	32.32
833.011	33.53
833.182	33.67
833.354	36.46
833.525	38.34
833.697	41.18
833.868	42.14
834.039	42.72
834.211	46.26
834.382	45.37
834.554	48.88
834.725	50.81
834.896	48.55
835.068	50.25
835.239	50.97
835.41	51.05
835.581	47.3
835.753	46.78
835.924	46.77
836.095	45.73
836.266	45.46
836.438	43.4
836.609	41.16
836.78	42.44
836.951	43.42
837.122	42.37
837.293	41.74
837.464	43.72
837.635	39.97
837.806	37.36
837.977	37.51
838.148	35.72
838.319	33.11
838.49	37
838.661	38.15
838.832	34.04
839.003	29.92
839.174	23.96
839.345	25.1
839.516	26.31
839.687	23.76
839.857	31.68
840.028	36.73
840.199	42.03
840.37	41.38
840.54	41.72
840.711	44.6
840.882	45.91
841.053	48.55
841.223	46.45
841.394	50.13
841.564	54.64
841.735	50.45
841.906	47.93
842.076	43.73
842.247	42.28
842.417	43.3
842.588	40.53
842.758	43.34
842.929	40.62
843.099	35.46
843.27	33.49
843.44	33.54
843.611	33.78
843.781	32.4
843.951	37.04
844.122	40.83
844.292	35.5
844.462	32.99
844.633	36.96
844.803	45.28
844.973	59.35
845.144	67.23
845.314	70.48
845.484	81.8
845.654	89.75
845.824	85.07
845.995	83.78
846.165	82.9
846.335	86.45
846.505	87.04
846.675	78.4
846.845	84.53
847.015	68.41
847.185	63.05
847.355	50.46
847.525	48.42
847.695	56.81
847.865	44.98
848.035	41.31
848.205	41.62
848.375	42.96
848.545	49.19
848.715	31.36
848.884	25.93
849.054	18.11
849.224	18.96
849.394	20.85
849.564	31.2
849.733	47.02
849.903	32.71
850.073	49.82
850.243	60.35
850.412	61.61
850.582	41.48
850.752	30.97
850.921	48.56
851.091	46.76
851.26	41.06
851.43	32.72
851.599	30.64
851.769	53.19
851.939	21.53
852.108	-0.95
852.278	-13.38
852.447	28.79
852.616	51.8
852.786	49.71
852.955	62.23
853.125	71
853.294	64.32
853.463	57.41
853.633	78.7
853.802	118.58
853.971	90.4
854.141	47.71
854.31	34.3
854.479	28.25
854.648	23.78
854.818	-21.85
854.987	-29.34
855.156	-33.22
855.325	-11.59
855.494	-30.41
855.663	-58.22
855.832	-84.93
856.001	-45.93
856.171	-27.93
856.34	12.02
856.509	-2.28
856.678	19.28
856.847	61.42
857.016	73.82
857.185	72.98
857.353	65.15
857.522	69.24
857.691	75.08
857.86	93.69
858.029	100.78
858.198	81.45
858.367	82.2
858.535	66.38
858.704	59.37
858.873	66.21
859.042	72.44
859.21	67.75
859.379	56.87
859.548	38.9
859.717	33.36
859.885	35.03
860.054	37.3
860.222	29.98
860.391	35.28
860.56	36.34
860.728	48.56
860.897	48.39
861.065	61.9
861.234	65.76
861.402	69.3
861.571	68.49
861.739	69.53
861.908	74.9
862.076	73.09
862.244	94.43
862.413	91.07
862.581	79.86
862.749	80.92
862.918	56.34
863.086	66.87
863.254	123.72
863.423	238.86
863.591	175.55
863.759	183.65
863.927	275.75
864.096	418.18
864.264	-145.91
864.432	-271.72
864.6	783.16
864.768	364.76
864.936	233.47
865.104	163.63
865.272	74.78
865.44	69
865.608	76.8
865.776	81.4
865.944	76.14
866.112	69.1
866.28	85.59
866.448	84.77
866.616	103.27
866.784	81.97
866.952	73.11
867.12	95.13
867.288	105.43
867.455	98
867.623	111.68
867.791	107.44
867.959	119.94
868.127	112.32
868.294	94.25
868.462	73.07
868.63	86.08
868.797	70.95
868.965	52.7
869.133	41.88
869.3	19.46
869.468	-2.6
869.636	8.29
869.803	-11.48
869.971	-1.86
870.138	43.25
870.306	51.04
870.473	47.55
870.641	61.59
870.808	53.49
870.975	37.79
871.143	54.6
871.31	76.44
871.478	74.55
871.645	41.11
871.812	30.32
871.98	0.07
872.147	-19.07
872.314	44.04
872.482	44.12
872.649	114.82
872.816	143.29
872.983	218.95
873.15	139.54
873.318	127.86
873.485	246.82
873.652	258.51
873.819	154.57
873.986	115.11
874.153	92.48
874.32	93.06
874.487	67.04
874.654	46.86
874.821	48.75
874.988	48.7
875.155	57.77
875.322	43.74
875.489	49.12
875.656	50.3
875.823	43.34
875.99	56.84
876.157	59.34
876.324	78.71
876.49	84.21
876.657	97.1
876.824	76.18
876.991	68.69
877.157	69.91
877.324	77.8
877.491	85.15
877.658	90.3
877.824	70.96
877.991	80.68
878.157	82.48
878.324	80.78
878.491	57.93
878.657	61.56
878.824	73.38
878.99	93.81
879.157	78.77
879.323	54.11
879.49	71.1
879.656	90.95
879.823	84.88
879.989	70.03
880.156	70.51
880.322	78.9
880.488	80.36
880.655	80.32
880.821	60.14
880.987	63.12
881.154	74.94
881.32	68.85
881.486	50.41
881.652	47.95
881.819	49.8
881.985	46.49
882.151	44.48
882.317	41.57
882.483	38.87
882.649	41.54
882.816	40.32
882.982	37.77
883.148	35.61
883.314	38.81
883.48	39.35
883.646	38.3
883.812	38.9
883.978	39.33
884.144	39.83
884.31	40.08
884.476	40.81
884.642	41.24
884.807	42.78
884.973	43.47
885.139	43.07
885.305	43.21
885.471	44.71
885.637	44.55
885.802	44.62
885.968	46.14
886.134	48.8
886.3	48.5
886.465	48.24
886.631	47.07
886.797	49.34
886.962	48.72
887.128	48.6
887.293	46.28
887.459	44.07
887.625	50.37
887.79	47.48
887.956	43.59
888.121	44.71
888.287	49.99
888.452	54.67
888.618	52.04
888.783	60.58
