Data from CB_044_Reflection_00006.txt Node
Date: Wed Nov 11 22:17:21 EST 2015
User: robert
Spectrometer: USB4E03001
Autoset integration time: false
Trigger mode: 4
Integration Time (sec): 1.000000E-1
Scans to average: 15
Electric dark correction enabled: true
Nonlinearity correction enabled: false
Boxcar width: 5
Stray light correction enabled: false
XAxis mode: Wavelengths
Stop averaging: false
Number of Pixels in Spectrum: 3648
>>>>>Begin Spectral Data<<<<<
177.566	-99
177.785	-141.45
178.005	58.19
178.225	371.33
178.445	37.24
178.665	59.92
178.885	638.15
179.105	-115.64
179.324	-25.11
179.544	30.77
179.764	41.11
179.984	45.67
180.204	66.12
180.423	91.49
180.643	71.19
180.863	61.37
181.083	61.08
181.302	61.11
181.522	42.46
181.742	48.78
181.961	52.33
182.181	50.84
182.401	53.64
182.621	48.32
182.84	36.18
183.06	33.24
183.279	42.22
183.499	50.52
183.719	45.75
183.938	48.27
184.158	30.09
184.377	42.44
184.597	32.95
184.816	58.94
185.036	72.69
185.256	80.82
185.475	101.28
185.695	89.5
185.914	80.77
186.134	133.29
186.353	152.09
186.572	100.54
186.792	74.25
187.011	77.78
187.231	66.34
187.45	58.95
187.67	39.99
187.889	9.05
188.108	45.57
188.328	51.33
188.547	21.86
188.766	30.36
188.986	31.46
189.205	20.41
189.424	35.48
189.644	18.93
189.863	33.66
190.082	64.05
190.302	68.98
190.521	44.07
190.74	59.17
190.959	93.03
191.178	75.92
191.398	71.06
191.617	90.28
191.836	81.49
192.055	70.84
192.274	58.36
192.494	43.63
192.713	41.81
192.932	63.65
193.151	34.17
193.37	8.57
193.589	0.63
193.808	8.97
194.027	-10.66
194.246	18.57
194.465	37.86
194.685	45.88
194.904	37.09
195.123	42.74
195.342	10.33
195.561	31.18
195.78	44.7
195.999	62.38
196.218	55
196.436	45.69
196.655	26.36
196.874	5.21
197.093	-12.24
197.312	25.21
197.531	16.08
197.75	49.29
197.969	55.99
198.188	38.23
198.407	25.69
198.625	20.62
198.844	32.52
199.063	20.62
199.282	10.4
199.501	6.99
199.719	-22.36
199.938	4.07
200.157	-24.62
200.376	16.47
200.594	39.57
200.813	46.91
201.032	66.89
201.251	82.38
201.469	93.57
201.688	94.5
201.907	82.4
202.125	74.35
202.344	66.53
202.563	65.59
202.781	43.36
203	30.12
203.218	21.39
203.437	5.19
203.656	23.41
203.874	33.6
204.093	26.28
204.311	40.34
204.53	35.65
204.748	20.76
204.967	21.88
205.185	20.49
205.404	30.48
205.622	37.17
205.841	55.02
206.059	31.04
206.278	44.59
206.496	45.41
206.715	38.06
206.933	44.72
207.151	52.3
207.37	42.39
207.588	43.26
207.806	53.27
208.025	66.01
208.243	60.77
208.461	66.13
208.68	58.68
208.898	75.72
209.116	58.08
209.335	64.01
209.553	81.89
209.771	94.65
209.989	97.11
210.208	74.2
210.426	51.24
210.644	55.52
210.862	54.3
211.081	62.77
211.299	76.43
211.517	110.04
211.735	82.56
211.953	72.41
212.171	85.35
212.39	89.74
212.608	107.49
212.826	100.2
213.044	111.12
213.262	108.3
213.48	119.3
213.698	97.03
213.916	99.54
214.134	87.33
214.352	84.86
214.57	66.14
214.788	85.91
215.006	40.37
215.224	52.67
215.442	11.45
215.66	37.06
215.878	32.92
216.096	44.41
216.314	48.83
216.532	80.71
216.75	91.11
216.968	96.86
217.185	75
217.403	87.84
217.621	84.77
217.839	80.65
218.057	73.59
218.275	82.05
218.492	84.38
218.71	76.97
218.928	78.29
219.146	74.33
219.363	79.65
219.581	93.11
219.799	84.09
220.017	86.7
220.234	68.2
220.452	86.13
220.67	78.93
220.887	72.01
221.105	67.71
221.323	44.39
221.54	36.46
221.758	30.35
221.976	30.87
222.193	27.23
222.411	19.6
222.629	26.59
222.846	10.34
223.064	-6.38
223.281	-0.32
223.499	9.73
223.716	16.51
223.934	15.17
224.151	8.87
224.369	1
224.586	-7.12
224.804	-6.58
225.021	-14.65
225.239	-8.64
225.456	-6.44
225.674	-1.86
225.891	4.74
226.108	10.8
226.326	-8.89
226.543	-9.36
226.76	-6.32
226.978	-6.2
227.195	-4.21
227.413	3.13
227.63	10.68
227.847	15.64
228.064	12.64
228.282	8.81
228.499	6.8
228.716	11.78
228.934	14.62
229.151	10.89
229.368	11.01
229.585	11.77
229.802	9.56
230.02	5.49
230.237	2.98
230.454	3.46
230.671	4.19
230.888	3.62
231.105	6.23
231.323	6.14
231.54	12.92
231.757	13.17
231.974	10.2
232.191	12.96
232.408	17.73
232.625	17.85
232.842	17.42
233.059	22.98
233.276	26.92
233.493	24.02
233.71	20.65
233.927	19.11
234.144	20.93
234.361	25.8
234.578	26.41
234.795	26.84
235.012	29.71
235.229	29.81
235.446	27.98
235.663	27.32
235.879	26.07
236.096	27.43
236.313	24.92
236.53	26.57
236.747	28.67
236.964	25.39
237.181	26.47
237.397	21.78
237.614	23.17
237.831	21.04
238.048	18.36
238.264	18.44
238.481	19.92
238.698	19.08
238.915	16.12
239.131	13.04
239.348	14.43
239.565	13.46
239.781	14
239.998	14.71
240.215	14.95
240.431	15.25
240.648	19.22
240.865	14.04
241.081	16.21
241.298	17.24
241.514	15.43
241.731	18.22
241.947	15.05
242.164	14.46
242.38	11.74
242.597	11.8
242.814	11.18
243.03	10.58
243.246	13.28
243.463	13.7
243.679	13.9
243.896	17.07
244.112	16.08
244.329	19.44
244.545	19.45
244.762	20.89
244.978	21.21
245.194	21.26
245.411	18.9
245.627	16.37
245.843	15.68
246.06	14.09
246.276	11.8
246.492	10.35
246.709	8.94
246.925	10.83
247.141	11.58
247.357	10.7
247.574	10.83
247.79	10.66
248.006	11.32
248.222	11.38
248.439	11.19
248.655	11.82
248.871	11.98
249.087	12.04
249.303	11.1
249.519	10.52
249.736	10.98
249.952	11.08
250.168	14.04
250.384	12.53
250.6	11.35
250.816	14.39
251.032	11.82
251.248	14.7
251.464	13.47
251.68	13.69
251.896	15.11
252.112	13.91
252.328	12.85
252.544	11.1
252.76	11.95
252.976	10.64
253.192	7.57
253.408	9.67
253.624	9.08
253.84	10.74
254.056	10.17
254.272	11.18
254.487	11.63
254.703	11.31
254.919	9.84
255.135	8.22
255.351	9.46
255.567	11.44
255.782	11.88
255.998	9.73
256.214	10.38
256.43	12.88
256.646	9.17
256.861	8.73
257.077	10.16
257.293	10.33
257.508	11.15
257.724	13.45
257.94	13.85
258.155	12.65
258.371	11.99
258.587	11.01
258.802	9.87
259.018	10.19
259.234	9.7
259.449	9.32
259.665	9.51
259.88	9.66
260.096	8.62
260.312	7.79
260.527	7.86
260.743	7.88
260.958	7.93
261.174	7.37
261.389	7.19
261.605	7.46
261.82	8.86
262.036	9.28
262.251	10.37
262.466	10.67
262.682	12.1
262.897	11.79
263.113	12
263.328	12.12
263.543	13.56
263.759	13.41
263.974	14.01
264.189	12.6
264.405	11.55
264.62	7.97
264.835	8.11
265.051	7.22
265.266	9.02
265.481	8.91
265.696	8.37
265.912	8.38
266.127	8.36
266.342	8.95
266.557	8.1
266.773	7.65
266.988	9.1
267.203	7.75
267.418	8.28
267.633	8.23
267.848	8.77
268.064	9.04
268.279	8.35
268.494	7.5
268.709	8.59
268.924	9.15
269.139	9.89
269.354	10.91
269.569	12.32
269.784	13.21
269.999	11.91
270.214	11.82
270.429	11.88
270.644	12.2
270.859	13.09
271.074	11.62
271.289	11.51
271.504	12.53
271.719	11.2
271.934	10.4
272.149	9.37
272.363	10.66
272.578	10.53
272.793	11.23
273.008	11.02
273.223	10.84
273.438	10.57
273.653	11.33
273.867	10.47
274.082	10.39
274.297	10.54
274.512	10.95
274.726	9.12
274.941	10.58
275.156	11.67
275.371	11.07
275.585	10.79
275.8	10.95
276.015	10.16
276.229	11.04
276.444	11.24
276.659	12.13
276.873	12.45
277.088	14.09
277.302	13.39
277.517	10.77
277.732	11.87
277.946	12.62
278.161	14.34
278.375	14.54
278.59	14.35
278.804	14.44
279.019	13.81
279.233	12.94
279.448	12.04
279.662	10.71
279.877	10.64
280.091	10.3
280.306	10.99
280.52	9.3
280.735	9.16
280.949	8.3
281.163	8.94
281.378	7.55
281.592	7.53
281.806	7.64
282.021	7.75
282.235	7.66
282.449	6.93
282.664	5.27
282.878	4.05
283.092	3.94
283.307	4.76
283.521	4.3
283.735	5.25
283.949	5.64
284.164	6.78
284.378	6.75
284.592	7.48
284.806	8.59
285.02	8.86
285.234	11.04
285.449	10.6
285.663	9.76
285.877	10.14
286.091	10.57
286.305	10.52
286.519	9.7
286.733	10.03
286.947	10.27
287.161	9.98
287.375	10.06
287.589	9.63
287.803	10.17
288.017	10.35
288.231	10.78
288.445	11.21
288.659	10.62
288.873	11.24
289.087	11.1
289.301	10.24
289.515	11.07
289.729	11.51
289.943	10.54
290.157	10.52
290.371	11.16
290.584	10.78
290.798	10.28
291.012	11.4
291.226	11.08
291.44	11.28
291.654	11.85
291.867	10.6
292.081	10.54
292.295	11.26
292.509	10.88
292.722	9.28
292.936	8.21
293.15	8.09
293.364	7.56
293.577	7.06
293.791	7.22
294.005	6.31
294.218	7.45
294.432	8.4
294.645	8.69
294.859	8.4
295.073	9.35
295.286	9.14
295.5	9.41
295.713	9.29
295.927	8.61
296.14	8.28
296.354	9.29
296.568	8.58
296.781	7.91
296.994	7.92
297.208	9.32
297.421	9.07
297.635	10.11
297.848	9.77
298.062	9.67
298.275	10.47
298.489	11.18
298.702	11.8
298.915	12.58
299.129	13.94
299.342	13.5
299.555	12.96
299.769	13.37
299.982	12.92
300.195	13.68
300.409	13.89
300.622	13.78
300.835	12.61
301.048	11.43
301.262	10.78
301.475	9.24
301.688	10.17
301.901	10.69
302.115	10.65
302.328	11.66
302.541	11.72
302.754	11.41
302.967	11.57
303.18	13.16
303.393	13.14
303.607	12.38
303.82	12.27
304.033	11.31
304.246	10.93
304.459	11.88
304.672	11.18
304.885	10.57
305.098	10.62
305.311	10.79
305.524	9.32
305.737	10.16
305.95	10.97
306.163	11.91
306.376	12.81
306.589	12.75
306.802	12.05
307.015	11.57
307.228	12.05
307.44	13.68
307.653	14.71
307.866	14.81
308.079	14.4
308.292	14.15
308.505	13.67
308.718	14.44
308.93	15.27
309.143	14.86
309.356	14.97
309.569	15.12
309.781	14.1
309.994	13.66
310.207	13.97
310.42	13.56
310.632	14.53
310.845	14.5
311.058	13.85
311.27	13.31
311.483	13.74
311.696	13.95
311.908	14.69
312.121	14.84
312.333	14.57
312.546	14.72
312.759	14.94
312.971	14.4
313.184	14.44
313.396	13.76
313.609	14.21
313.821	14.19
314.034	14.8
314.246	13.65
314.459	13.94
314.671	13.68
314.884	13.96
315.096	14.64
315.309	14.28
315.521	13.95
315.733	15.68
315.946	14.64
316.158	14.73
316.371	14.57
316.583	14.59
316.795	14.66
317.008	15.61
317.22	15.03
317.432	14.47
317.644	15.37
317.857	15.88
318.069	15.01
318.281	14.94
318.494	15.37
318.706	16.33
318.918	16.12
319.13	16.55
319.342	15.79
319.555	15.6
319.767	15.47
319.979	15.19
320.191	15.6
320.403	16.12
320.615	16.01
320.827	14.74
321.039	13.45
321.252	14.62
321.464	14.26
321.676	13.85
321.888	13.84
322.1	14.26
322.312	14.69
322.524	14.54
322.736	13.18
322.948	13.37
323.16	13.87
323.372	14.12
323.584	13.53
323.796	14.15
324.007	14.57
324.219	15.58
324.431	15.67
324.643	15.35
324.855	15.98
325.067	17.4
325.279	18.27
325.491	19.6
325.702	19.42
325.914	19.8
326.126	18.7
326.338	18.59
326.55	18.13
326.761	19.02
326.973	19.92
327.185	20
327.396	20.55
327.608	20.14
327.82	19.8
328.032	21.25
328.243	22.02
328.455	23.71
328.666	25.51
328.878	25.33
329.09	24.42
329.301	23.93
329.513	23.32
329.725	22.04
329.936	23.42
330.148	22.95
330.359	21.52
330.571	21.75
330.782	20.87
330.994	20.06
331.205	21.9
331.417	22.93
331.628	22.97
331.84	23.65
332.051	25.02
332.262	25.22
332.474	26.28
332.685	27.5
332.897	27.22
333.108	29.33
333.319	29.7
333.531	29.33
333.742	29.34
333.953	29.91
334.165	30.03
334.376	30.74
334.587	30.19
334.799	29.97
335.01	29.87
335.221	30.31
335.432	29.43
335.644	29.19
335.855	28.94
336.066	29.23
336.277	29.82
336.488	30.01
336.7	29.34
336.911	29.56
337.122	29.96
337.333	29.66
337.544	29.57
337.755	29.21
337.966	29.3
338.177	29.45
338.388	29.12
338.599	29.07
338.811	28.65
339.022	28.39
339.233	29.12
339.444	28.51
339.655	28.77
339.866	28.16
340.076	28.16
340.287	28.56
340.498	29.28
340.709	30.15
340.92	29.91
341.131	30.79
341.342	30.7
341.553	29.99
341.764	30.16
341.975	29.82
342.185	30.46
342.396	30.98
342.607	30.68
342.818	29.89
343.029	29.23
343.239	29.66
343.45	29.18
343.661	28.94
343.872	29.26
344.082	29.19
344.293	29.44
344.504	28.88
344.714	28.56
344.925	27.99
345.136	28.14
345.346	28.01
345.557	27.24
345.768	26.96
345.978	28.01
346.189	28.43
346.399	28.41
346.61	28.2
346.821	28.62
347.031	28.61
347.242	29.63
347.452	29.92
347.663	30.8
347.873	30.53
348.084	31.2
348.294	30.53
348.504	29.45
348.715	29.82
348.925	30.09
349.136	29.26
349.346	29.25
349.557	29.32
349.767	29.03
349.977	28.51
350.188	28.45
350.398	27.39
350.608	27.53
350.819	28.5
351.029	28.3
351.239	27.41
351.449	28.55
351.66	28.08
351.87	28.08
352.08	28.18
352.29	27.74
352.501	28.57
352.711	29.19
352.921	29.45
353.131	29.09
353.341	29.26
353.552	30.31
353.762	28.9
353.972	30.13
354.182	29.62
354.392	29.85
354.602	30.31
354.812	30.15
355.022	29.85
355.232	30.11
355.442	30.1
355.652	30.16
355.862	30.28
356.072	31.45
356.282	30.65
356.492	31.43
356.702	31.55
356.912	31.15
357.122	30.89
357.332	31.61
357.542	31.21
357.752	31.2
357.962	30.78
358.171	30.26
358.381	29.77
358.591	29.34
358.801	28.98
359.011	27.91
359.221	28.16
359.43	28.51
359.64	27.8
359.85	27.61
360.06	26.97
360.269	27.37
360.479	27.52
360.689	27.63
360.899	27.59
361.108	27.45
361.318	28.02
361.528	28.17
361.737	27.5
361.947	27.31
362.156	27
362.366	27.31
362.576	26.98
362.785	26.88
362.995	26.73
363.204	27.02
363.414	26.93
363.623	26.81
363.833	26.07
364.042	26.34
364.252	27.12
364.461	27.21
364.671	27.5
364.88	27.71
365.09	27.57
365.299	27.37
365.509	27.42
365.718	27.37
365.927	27.36
366.137	27.58
366.346	27.66
366.555	27.23
366.765	27.44
366.974	27.06
367.183	27.17
367.393	27.82
367.602	28.06
367.811	27.79
368.021	27.52
368.23	27.32
368.439	27.51
368.648	27.55
368.857	26.86
369.067	26.32
369.276	26.08
369.485	25.78
369.694	25.27
369.903	25.07
370.112	25.05
370.321	25.13
370.531	24.99
370.74	25.05
370.949	24.72
371.158	24.62
371.367	24.97
371.576	25.11
371.785	24.5
371.994	24.64
372.203	24.65
372.412	24.86
372.621	25
372.83	24.72
373.039	24.57
373.248	24.24
373.457	24.69
373.666	24.75
373.874	24.49
374.083	24.28
374.292	23.6
374.501	23.49
374.71	22.96
374.919	22.6
375.128	23.12
375.336	22.49
375.545	22.77
375.754	22.5
375.963	21.69
376.171	21.45
376.38	21.28
376.589	21.53
376.798	21.38
377.006	21.47
377.215	21.85
377.424	21.32
377.632	21.38
377.841	20.95
378.05	20.73
378.258	21.37
378.467	21.39
378.675	21.96
378.884	21.86
379.093	21.63
379.301	21.18
379.51	20.55
379.718	20.6
379.927	20.48
380.135	20.55
380.344	20.67
380.552	20.4
380.761	19.89
380.969	19.5
381.177	19.29
381.386	19.24
381.594	19.35
381.803	18.81
382.011	18.72
382.219	18.64
382.428	18.86
382.636	18.35
382.845	18.19
383.053	18.08
383.261	17.82
383.469	17.77
383.678	17.37
383.886	17.47
384.094	17.56
384.302	18.17
384.511	17.85
384.719	17.63
384.927	17.97
385.135	17.95
385.343	18.05
385.552	18.36
385.76	18.31
385.968	18.17
386.176	18.04
386.384	18.31
386.592	17.65
386.8	18.23
387.008	18.23
387.216	18.13
387.424	18.05
387.633	17.9
387.841	17.8
388.049	17.3
388.257	17.81
388.465	17.9
388.672	17.66
388.88	17.44
389.088	17.38
389.296	17.18
389.504	16.86
389.712	16.83
389.92	16.96
390.128	16.47
390.336	16.57
390.544	16.48
390.751	16.29
390.959	16.37
391.167	16.28
391.375	16.1
391.583	16.37
391.79	16.45
391.998	16.26
392.206	16.32
392.414	16.53
392.621	16.21
392.829	16.02
393.037	15.77
393.244	15.44
393.452	15.73
393.66	15.59
393.867	15.41
394.075	15.51
394.283	15.6
394.49	15.66
394.698	15.67
394.905	16.31
395.113	16.14
395.32	16.28
395.528	16.73
395.735	16.47
395.943	16.18
396.15	15.89
396.358	15.83
396.565	16.09
396.773	15.94
396.98	16.04
397.188	15.75
397.395	15.96
397.602	16
397.81	15.85
398.017	15.76
398.225	15.82
398.432	16.31
398.639	16.31
398.847	15.78
399.054	15.75
399.261	15.62
399.468	15.74
399.676	15.97
399.883	15.93
400.09	15.5
400.297	15.48
400.505	15.45
400.712	15.06
400.919	15.07
401.126	15.2
401.333	14.84
401.54	14.57
401.748	14.37
401.955	14.1
402.162	13.88
402.369	14.09
402.576	14.4
402.783	14.52
402.99	13.88
403.197	13.69
403.404	13.57
403.611	13.87
403.818	13.94
404.025	13.94
404.232	13.83
404.439	13.9
404.646	13.56
404.853	13.15
405.06	13.22
405.267	13.53
405.474	13.5
405.681	13.49
405.887	13.23
406.094	13.13
406.301	13.11
406.508	13.17
406.715	13.31
406.922	13.72
407.128	14.06
407.335	13.8
407.542	13.58
407.749	13.58
407.955	13.46
408.162	13.65
408.369	13.46
408.575	13.42
408.782	13.44
408.989	13.33
409.195	12.98
409.402	12.62
409.609	12.76
409.815	12.9
410.022	13.08
410.228	13.07
410.435	12.98
410.642	13.15
410.848	12.94
411.055	13.15
411.261	12.79
411.468	12.75
411.674	12.9
411.881	12.74
412.087	12.81
412.294	12.77
412.5	13.2
412.706	13.2
412.913	13.19
413.119	13.41
413.326	13.18
413.532	13.45
413.738	13.59
413.945	13.07
414.151	13.32
414.357	13.16
414.564	12.65
414.77	12.19
414.976	12.33
415.182	12.47
415.389	12.04
415.595	11.58
415.801	11.38
416.007	11.39
416.214	11.44
416.42	11.34
416.626	11.35
416.832	11.5
417.038	11.57
417.244	11.22
417.45	11.1
417.657	11.37
417.863	11.64
418.069	11.67
418.275	11.69
418.481	11.85
418.687	11.83
418.893	11.83
419.099	12.15
419.305	12.04
419.511	12.14
419.717	12.17
419.923	12.05
420.129	11.93
420.335	11.92
420.541	11.9
420.746	11.89
420.952	11.81
421.158	11.76
421.364	11.47
421.57	11.38
421.776	11.44
421.982	11.32
422.187	11.24
422.393	11.14
422.599	11.16
422.805	11.02
423.01	10.99
423.216	10.88
423.422	10.8
423.628	10.8
423.833	10.81
424.039	10.73
424.245	10.93
424.45	11.11
424.656	11.3
424.862	11.17
425.067	11.41
425.273	11.44
425.478	11.46
425.684	11.6
425.889	11.72
426.095	11.75
426.301	11.75
426.506	11.73
426.712	11.52
426.917	11.43
427.123	11.61
427.328	11.28
427.533	11.16
427.739	11.3
427.944	11.32
428.15	11.2
428.355	11.27
428.561	11.31
428.766	11.03
428.971	11
429.177	11.09
429.382	11
429.587	11.12
429.793	11.28
429.998	11.1
430.203	10.98
430.408	10.9
430.614	10.73
430.819	10.55
431.024	10.71
431.229	10.93
431.434	10.8
431.64	10.89
431.845	10.9
432.05	10.9
432.255	10.82
432.46	10.86
432.665	10.87
432.87	11.13
433.076	11.4
433.281	11.5
433.486	11.35
433.691	11.48
433.896	11.38
434.101	11.31
434.306	11.12
434.511	11.23
434.716	11.22
434.921	11.35
435.126	11.2
435.331	10.84
435.535	10.62
435.74	10.54
435.945	10.22
436.15	10.51
436.355	10.55
436.56	10.8
436.765	10.67
436.97	10.72
437.174	10.59
437.379	10.6
437.584	10.84
437.789	10.85
437.993	11.09
438.198	11.15
438.403	10.95
438.608	10.9
438.812	10.82
439.017	11
439.222	10.96
439.426	11.06
439.631	10.97
439.836	10.9
440.04	10.8
440.245	10.6
440.45	10.55
440.654	10.55
440.859	10.5
441.063	10.49
441.268	10.46
441.472	10.46
441.677	10.34
441.881	10.45
442.086	10.52
442.29	10.62
442.495	10.65
442.699	10.62
442.904	10.46
443.108	10.5
443.312	10.52
443.517	10.48
443.721	10.59
443.925	10.37
444.13	10.23
444.334	10.18
444.538	10.11
444.743	10.13
444.947	9.96
445.151	10.06
445.356	10.04
445.56	9.98
445.764	10.06
445.968	9.96
446.173	10.09
446.377	10.04
446.581	10.01
446.785	10.05
446.989	10.08
447.193	10.29
447.398	10.13
447.602	10.03
447.806	10.04
448.01	10.07
448.214	10.07
448.418	10.1
448.622	10.2
448.826	10.08
449.03	10.19
449.234	10.29
449.438	10.38
449.642	10.56
449.846	10.76
450.05	10.8
450.254	10.55
450.458	10.65
450.662	10.75
450.866	10.64
451.069	10.65
451.273	10.21
451.477	10
451.681	9.9
451.885	9.79
452.089	9.68
452.292	9.6
452.496	9.58
452.7	9.49
452.904	9.43
453.107	9.65
453.311	9.8
453.515	10.09
453.719	10.13
453.922	10.08
454.126	10.14
454.33	10.23
454.533	10.45
454.737	10.63
454.94	10.7
455.144	10.48
455.348	10.25
455.551	10.24
455.755	10.01
455.958	10.23
456.162	10.24
456.365	10.44
456.569	10.34
456.772	10
456.976	9.8
457.179	9.75
457.383	9.85
457.586	9.88
457.79	9.8
457.993	9.82
458.196	9.75
458.4	9.7
458.603	9.59
458.807	9.71
459.01	9.78
459.213	9.83
459.417	9.79
459.62	9.79
459.823	9.78
460.026	9.87
460.23	9.95
460.433	9.88
460.636	9.91
460.839	9.88
461.042	9.86
461.246	9.89
461.449	9.83
461.652	9.83
461.855	10.03
462.058	10.18
462.261	10.17
462.464	10.31
462.668	10.39
462.871	10.48
463.074	10.48
463.277	10.59
463.48	10.86
463.683	11.17
463.886	11
464.089	10.95
464.292	10.89
464.495	10.71
464.698	10.62
464.901	10.58
465.104	10.62
465.306	10.46
465.509	10.33
465.712	10.05
465.915	9.97
466.118	10.06
466.321	10.09
466.524	10.05
466.726	9.98
466.929	9.98
467.132	9.91
467.335	9.84
467.538	10.17
467.74	10.41
467.943	10.48
468.146	10.54
468.348	10.51
468.551	10.5
468.754	10.6
468.956	10.75
469.159	10.62
469.362	10.62
469.564	10.61
469.767	10.42
469.969	10.24
470.172	10.08
470.375	9.97
470.577	10.24
470.78	10.24
470.982	10.16
471.185	10.32
471.387	10.5
471.59	10.44
471.792	10.37
471.995	10.36
472.197	10.5
472.399	10.48
472.602	10.45
472.804	10.4
473.007	10.38
473.209	10.33
473.411	10.27
473.614	10.25
473.816	10.22
474.018	10.29
474.22	10.25
474.423	10.03
474.625	9.97
474.827	10.08
475.03	10.05
475.232	9.93
475.434	9.93
475.636	9.75
475.838	9.8
476.04	9.82
476.243	9.84
476.445	9.73
476.647	9.74
476.849	10.05
477.051	9.94
477.253	9.84
477.455	9.88
477.657	9.89
477.859	10.05
478.061	9.95
478.263	9.96
478.465	10.04
478.667	10.08
478.869	10.08
479.071	10.02
479.273	10.04
479.475	10.05
479.677	10.02
479.879	9.98
480.081	9.94
480.283	10.03
480.485	10.23
480.686	10.12
480.888	10.23
481.09	10.28
481.292	10.28
481.494	10.13
481.695	10.13
481.897	10.12
482.099	10.14
482.301	10.1
482.502	10.03
482.704	9.94
482.906	9.86
483.107	9.86
483.309	9.72
483.511	9.7
483.712	9.77
483.914	9.75
484.115	9.73
484.317	9.68
484.519	9.67
484.72	9.71
484.922	9.63
485.123	9.69
485.325	9.64
485.526	9.72
485.728	9.73
485.929	9.7
486.131	9.7
486.332	9.74
486.534	9.81
486.735	9.77
486.936	9.78
487.138	9.8
487.339	9.78
487.541	9.82
487.742	9.87
487.943	9.82
488.144	9.88
488.346	9.83
488.547	9.76
488.748	9.73
488.95	9.77
489.151	9.71
489.352	9.74
489.553	9.74
489.755	9.69
489.956	9.66
490.157	9.64
490.358	9.61
490.559	9.59
490.76	9.66
490.961	9.71
491.163	9.76
491.364	9.68
491.565	9.73
491.766	9.78
491.967	9.83
492.168	9.76
492.369	9.79
492.57	9.7
492.771	9.83
492.972	9.8
493.173	9.73
493.374	9.73
493.575	9.78
493.776	9.69
493.976	9.67
494.177	9.65
494.378	9.89
494.579	10
494.78	10.05
494.981	9.89
495.182	9.92
495.382	10.06
495.583	10.05
495.784	10.19
495.985	10.42
496.185	10.37
496.386	10.38
496.587	10.17
496.788	10.03
496.988	9.92
497.189	10
497.39	10.15
497.59	10.04
497.791	10.09
497.992	10.09
498.192	10.03
498.393	9.94
498.593	10.03
498.794	10.08
498.994	10.04
499.195	10.37
499.395	10.48
499.596	10.46
499.796	10.56
499.997	10.68
500.197	10.69
500.398	10.72
500.598	10.74
500.799	10.58
500.999	10.51
501.199	10.75
501.4	10.6
501.6	10.59
501.801	10.49
502.001	10.53
502.201	10.51
502.402	10.55
502.602	10.53
502.802	10.72
503.002	10.94
503.203	11.14
503.403	11.12
503.603	11.28
503.803	11.54
504.003	11.64
504.204	11.78
504.404	11.96
504.604	11.97
504.804	12.25
505.004	12.47
505.204	12.49
505.404	12.5
505.604	12.53
505.804	12.71
506.005	12.67
506.205	12.68
506.405	12.76
506.605	12.6
506.805	12.66
507.005	12.48
507.204	12.44
507.404	12.54
507.604	12.6
507.804	12.77
508.004	12.57
508.204	12.53
508.404	12.65
508.604	12.74
508.804	12.91
509.003	13.23
509.203	13.32
509.403	13.41
509.603	13.51
509.803	13.6
510.002	13.63
510.202	13.8
510.402	14.12
510.602	14.35
510.801	14.24
511.001	14.2
511.201	14.11
511.4	14.19
511.6	14.38
511.8	14.46
511.999	14.58
512.199	14.67
512.398	14.89
512.598	14.83
512.797	14.93
512.997	15.3
513.197	15.44
513.396	15.55
513.596	15.72
513.795	15.79
513.994	15.92
514.194	15.99
514.393	16.1
514.593	16.03
514.792	16.07
514.992	16.12
515.191	16.23
515.39	16.34
515.59	16.42
515.789	16.59
515.988	16.73
516.188	16.7
516.387	16.81
516.586	17.09
516.786	17.27
516.985	17.46
517.184	17.65
517.383	17.72
517.582	17.85
517.782	18.04
517.981	18.01
518.18	18.1
518.379	18.44
518.578	18.67
518.777	18.68
518.976	18.84
519.176	18.83
519.375	18.92
519.574	19.07
519.773	19.24
519.972	19.38
520.171	19.68
520.37	19.71
520.569	19.72
520.768	19.8
520.967	20.18
521.166	20.23
521.365	20.67
521.564	20.89
521.762	21.07
521.961	21.2
522.16	21.26
522.359	21.4
522.558	21.7
522.757	21.8
522.956	21.82
523.154	21.72
523.353	21.9
523.552	22.04
523.751	22.1
523.949	22.22
524.148	22.36
524.347	22.63
524.546	22.92
524.744	23.01
524.943	23.23
525.142	23.51
525.34	23.74
525.539	23.93
525.737	24
525.936	24.19
526.135	24.4
526.333	24.54
526.532	24.56
526.73	24.59
526.929	24.72
527.127	24.93
527.326	25.02
527.524	25.21
527.723	25.33
527.921	25.49
528.12	25.57
528.318	25.6
528.516	25.68
528.715	25.82
528.913	25.94
529.112	26.06
529.31	26.03
529.508	26.12
529.707	26.19
529.905	26.21
530.103	26.21
530.301	26.33
530.5	26.51
530.698	26.69
530.896	26.81
531.094	26.94
531.293	27.04
531.491	27.29
531.689	27.49
531.887	27.54
532.085	27.85
532.283	27.99
532.481	28.06
532.68	28.06
532.878	28.14
533.076	28.33
533.274	28.36
533.472	28.47
533.67	28.52
533.868	28.66
534.066	28.85
534.264	28.87
534.462	28.99
534.66	29.16
534.858	29.35
535.056	29.61
535.253	29.7
535.451	29.93
535.649	30.06
535.847	30.31
536.045	30.4
536.243	30.39
536.441	30.46
536.638	30.68
536.836	30.7
537.034	30.73
537.232	30.68
537.43	30.69
537.627	30.79
537.825	31.08
538.023	31.06
538.22	31.21
538.418	31.42
538.616	31.44
538.813	31.49
539.011	31.67
539.209	31.87
539.406	31.98
539.604	32.25
539.801	32.34
539.999	32.38
540.196	32.48
540.394	32.37
540.591	32.43
540.789	32.63
540.986	32.56
541.184	32.56
541.381	32.64
541.579	32.68
541.776	32.64
541.974	32.65
542.171	32.61
542.368	32.74
542.566	32.82
542.763	32.82
542.96	32.78
543.158	32.91
543.355	33.02
543.552	33.09
543.75	33.21
543.947	33.12
544.144	33.23
544.341	33.25
544.539	33.25
544.736	33.37
544.933	33.57
545.13	33.82
545.327	33.96
545.524	33.89
545.722	33.91
545.919	33.93
546.116	34.25
546.313	34.34
546.51	34.5
546.707	34.6
546.904	34.74
547.101	34.79
547.298	34.82
547.495	34.73
547.692	34.77
547.889	34.75
548.086	34.84
548.283	34.89
548.48	35.02
548.677	35.08
548.874	35.07
549.07	35.11
549.267	35.3
549.464	35.43
549.661	35.76
549.858	36.19
550.055	36.37
550.251	36.4
550.448	36.37
550.645	36.23
550.842	36.31
551.038	36.45
551.235	36.57
551.432	36.46
551.628	36.44
551.825	36.25
552.022	36.2
552.218	36.27
552.415	36.44
552.612	36.65
552.808	36.84
553.005	36.93
553.201	36.87
553.398	36.58
553.594	36.71
553.791	36.85
553.987	37.02
554.184	37.02
554.38	37.13
554.577	37.2
554.773	37.33
554.97	37.35
555.166	37.47
555.362	37.78
555.559	38.29
555.755	38.24
555.952	38.4
556.148	38.74
556.344	38.9
556.541	38.94
556.737	38.78
556.933	38.81
557.129	39.08
557.326	38.87
557.522	38.82
557.718	38.67
557.914	38.85
558.11	38.79
558.307	38.8
558.503	38.7
558.699	38.77
558.895	38.9
559.091	39.07
559.287	39.06
559.483	39.27
559.679	39.39
559.876	39.61
560.072	39.54
560.268	39.53
560.464	39.51
560.66	39.66
560.856	39.79
561.052	39.85
561.247	39.8
561.443	39.62
561.639	39.69
561.835	39.78
562.031	39.98
562.227	40.04
562.423	40
562.619	40
562.815	40.02
563.01	39.82
563.206	40.05
563.402	40.04
563.598	40.25
563.793	40.19
563.989	39.88
564.185	39.7
564.381	39.86
564.576	39.87
564.772	39.86
564.968	39.98
565.163	40.11
565.359	40.02
565.555	40.14
565.75	40.08
565.946	40.02
566.141	40.22
566.337	40.21
566.532	40.15
566.728	40.2
566.923	40.31
567.119	40.37
567.314	40.56
567.51	40.31
567.705	40.23
567.901	40.24
568.096	40.4
568.292	40.43
568.487	40.4
568.682	40.52
568.878	40.6
569.073	40.51
569.268	40.55
569.464	40.39
569.659	40.62
569.854	40.6
570.05	40.78
570.245	41.03
570.44	40.98
570.635	41.13
570.831	41.1
571.026	41.42
571.221	41.47
571.416	41.44
571.611	41.54
571.806	41.62
572.002	41.62
572.197	41.58
572.392	41.41
572.587	41.48
572.782	41.46
572.977	41.47
573.172	41.21
573.367	41.22
573.562	41.16
573.757	41.25
573.952	41.44
574.147	41.71
574.342	41.73
574.537	41.78
574.732	41.85
574.927	42.01
575.121	42.01
575.316	42.18
575.511	42.2
575.706	42.09
575.901	42.1
576.096	41.93
576.29	41.95
576.485	41.97
576.68	41.97
576.875	42.15
577.069	42.07
577.264	42.02
577.459	42
577.654	42.06
577.848	42.13
578.043	42.03
578.238	42.06
578.432	41.87
578.627	42.03
578.821	42.31
579.016	42.19
579.21	42.11
579.405	42.12
579.6	42.1
579.794	42.25
579.989	42.38
580.183	42.38
580.378	42.63
580.572	42.78
580.766	42.7
580.961	42.83
581.155	42.69
581.35	42.88
581.544	42.98
581.738	42.93
581.933	42.67
582.127	42.87
582.321	42.87
582.516	42.81
582.71	42.66
582.904	42.63
583.099	42.28
583.293	42.45
583.487	42.31
583.681	42.48
583.875	42.47
584.07	42.66
584.264	42.62
584.458	42.48
584.652	42.44
584.846	42.47
585.04	42.7
585.234	42.64
585.428	42.76
585.623	42.84
585.817	43.2
586.011	43.27
586.205	43.14
586.399	43.2
586.593	43.56
586.787	43.48
586.981	43.41
587.174	43.3
587.368	43.37
587.562	43.43
587.756	43.61
587.95	43.35
588.144	43.34
588.338	43.41
588.532	43.61
588.725	43.59
588.919	43.51
589.113	43.88
589.307	43.72
589.501	43.81
589.694	43.77
589.888	43.6
590.082	43.39
590.275	43.44
590.469	43.55
590.663	43.28
590.856	43.33
591.05	43.63
591.244	43.44
591.437	43.57
591.631	43.81
591.824	43.73
592.018	43.61
592.212	43.6
592.405	43.68
592.599	43.73
592.792	43.94
592.986	43.79
593.179	43.77
593.372	43.73
593.566	43.55
593.759	43.33
593.953	43.36
594.146	43.56
594.339	43.61
594.533	43.73
594.726	43.58
594.92	43.55
595.113	43.7
595.306	43.71
595.499	43.85
595.693	44.01
595.886	44.04
596.079	44.03
596.272	44.08
596.466	44.33
596.659	44.44
596.852	44.59
597.045	44.54
597.238	44.36
597.431	44.19
597.624	44.19
597.818	44.33
598.011	44.18
598.204	44.4
598.397	44.34
598.59	44.12
598.783	43.99
598.976	43.93
599.169	43.82
599.362	44.22
599.555	44.36
599.748	44.33
599.941	44.21
600.134	44.36
600.326	44.02
600.519	44.09
600.712	44.1
600.905	44.03
601.098	43.98
601.291	44.27
601.483	43.94
601.676	43.8
601.869	43.76
602.062	43.77
602.255	43.91
602.447	43.79
602.64	43.86
602.833	43.97
603.025	44.14
603.218	44.24
603.411	44.36
603.603	44.31
603.796	44.66
603.989	44.83
604.181	44.78
604.374	44.8
604.566	44.89
604.759	45.05
604.951	45.17
605.144	45.07
605.336	44.97
605.529	44.57
605.721	44.7
605.914	44.59
606.106	44.41
606.299	44.81
606.491	44.77
606.683	44.89
606.876	44.93
607.068	44.78
607.26	44.91
607.453	45.14
607.645	45.39
607.837	45.4
608.03	45.39
608.222	45.45
608.414	45.29
608.606	45.16
608.799	45.07
608.991	44.81
609.183	44.98
609.375	44.93
609.567	44.65
609.759	44.77
609.952	44.79
610.144	44.7
610.336	44.57
610.528	44.33
610.72	44.33
610.912	44.41
611.104	44.43
611.296	44.1
611.488	43.83
611.68	43.91
611.872	43.81
612.064	43.88
612.256	43.86
612.448	43.95
612.64	44.02
612.832	43.9
613.023	43.94
613.215	43.8
613.407	44.06
613.599	44.37
613.791	44.58
613.983	45.2
614.174	45.07
614.366	45.41
614.558	45.62
614.75	45.82
614.941	46.31
615.133	46.25
615.325	46.36
615.516	46.44
615.708	46.28
615.9	46.22
616.091	45.62
616.283	45.95
616.475	45.79
616.666	45.63
616.858	45.46
617.049	45.47
617.241	45.51
617.432	45.71
617.624	45.96
617.815	46
618.007	45.84
618.198	46.09
618.39	45.63
618.581	45.64
618.773	45.84
618.964	45.64
619.155	45.43
619.347	45.38
619.538	45.46
619.729	45.08
619.921	45.17
620.112	45.57
620.303	45.29
620.494	45.36
620.686	45.44
620.877	45.61
621.068	45.78
621.259	45.73
621.451	46.03
621.642	45.79
621.833	46.22
622.024	46.35
622.215	46.23
622.406	46.63
622.597	46.83
622.788	46.8
622.98	46.67
623.171	46.87
623.362	47.22
623.553	47.25
623.744	47.51
623.935	47.35
624.126	47.17
624.317	47.09
624.508	46.95
624.698	46.83
624.889	47.04
625.08	46.92
625.271	46.72
625.462	46.49
625.653	46.2
625.844	45.98
626.034	45.95
626.225	46.12
626.416	46.12
626.607	46.13
626.798	46.07
626.988	45.96
627.179	45.79
627.37	45.75
627.56	45.76
627.751	45.64
627.942	45.77
628.132	45.49
628.323	45.38
628.514	45.45
628.704	45.4
628.895	45.45
629.085	45.55
629.276	45.67
629.466	45.78
629.657	46.03
629.847	46.36
630.038	46.39
630.228	46.55
630.419	46.6
630.609	46.58
630.8	46.54
630.99	46.6
631.181	46.43
631.371	46.38
631.561	46.42
631.752	46.42
631.942	46.39
632.132	46.12
632.323	46.16
632.513	46.28
632.703	46.54
632.893	46.53
633.084	46.17
633.274	46.09
633.464	46.22
633.654	46.12
633.844	45.81
634.034	45.61
634.225	45.92
634.415	46.07
634.605	45.91
634.795	45.93
634.985	46
635.175	46.41
635.365	46.51
635.555	46.43
635.745	46.86
635.935	47.03
636.125	46.94
636.315	46.59
636.505	46.11
636.695	46.17
636.885	45.87
637.075	46
637.265	45.83
637.455	45.56
637.644	45.77
637.834	44.95
638.024	44.96
638.214	45.09
638.404	45.03
638.593	45.42
638.783	45.14
638.973	45.23
639.163	45.19
639.352	45.26
639.542	45.7
639.732	45.87
639.921	46.59
640.111	46.66
640.301	46.51
640.49	46.71
640.68	46.85
640.87	47.14
641.059	47.05
641.249	46.67
641.438	46.44
641.628	46.42
641.817	46.09
642.007	46.03
642.196	46.12
642.386	46.49
642.575	46.95
642.764	46.88
642.954	47.12
643.143	47.24
643.333	47.69
643.522	47.88
643.711	47.6
643.901	47.78
644.09	47.57
644.279	47.18
644.469	47.26
644.658	46.61
644.847	46.91
645.036	47.05
645.226	47
645.415	46.67
645.604	46.49
645.793	46.57
645.982	46.52
646.171	46.76
646.361	46.57
646.55	46.64
646.739	47.23
646.928	46.95
647.117	46.29
647.306	46.05
647.495	46.33
647.684	46.34
647.873	46.23
648.062	46.3
648.251	46.11
648.44	46.96
648.629	46.96
648.818	46.72
649.007	46.62
649.196	46.91
649.384	47.46
649.573	47.67
649.762	48.06
649.951	48.13
650.14	48.02
650.328	48.1
650.517	47.58
650.706	47.4
650.895	47.78
651.083	47.57
651.272	47.39
651.461	46.74
651.65	46.63
651.838	46.49
652.027	46.82
652.216	46.71
652.404	46.53
652.593	46.67
652.781	46.85
652.97	46.42
653.158	46.65
653.347	46.93
653.535	47.29
653.724	47.14
653.912	46.93
654.101	46.68
654.289	47.04
654.478	47.24
654.666	46.93
654.855	46.71
655.043	46.98
655.231	46.95
655.42	46.96
655.608	46.93
655.796	46.93
655.985	47.43
656.173	47.43
656.361	47.23
656.55	47.02
656.738	47.32
656.926	47.21
657.114	46.91
657.302	46.92
657.491	46.83
657.679	46.9
657.867	47.04
658.055	47.11
658.243	47.11
658.431	46.68
658.619	46.9
658.807	46.92
658.996	46.98
659.184	46.78
659.372	46.75
659.56	46.69
659.748	46.56
659.936	46.54
660.124	46.42
660.311	46.57
660.499	46.45
660.687	46.36
660.875	46.13
661.063	46.45
661.251	46.8
661.439	46.91
661.627	47.07
661.814	47.17
662.002	47.17
662.19	47.01
662.378	46.95
662.565	47.7
662.753	47.61
662.941	47.63
663.129	47.43
663.316	47.72
663.504	47.7
663.692	47.59
663.879	47.63
664.067	47.19
664.254	47.19
664.442	47.19
664.63	47.21
664.817	47.56
665.005	47.47
665.192	47.36
665.38	47.12
665.567	47.23
665.755	47.36
665.942	47.59
666.13	47.53
666.317	47.64
666.504	47.55
666.692	47.39
666.879	47.35
667.067	47.56
667.254	47.26
667.441	47.55
667.629	47.6
667.816	47.47
668.003	47.47
668.19	47.37
668.378	47.61
668.565	47.58
668.752	47.5
668.939	47.77
669.127	47.87
669.314	48.35
669.501	47.92
669.688	48.17
669.875	48.27
670.062	48.21
670.249	48.75
670.436	48.06
670.623	48.14
670.81	48.07
670.997	48.04
671.184	47.4
671.371	47.2
671.558	47.02
671.745	46.73
671.932	46.61
672.119	46.53
672.306	45.93
672.493	46.17
672.68	45.76
672.867	45.55
673.054	45
673.24	45.5
673.427	45.99
673.614	46.43
673.801	46.36
673.988	46.9
674.174	46.83
674.361	47.05
674.548	46.76
674.734	47.12
674.921	47.73
675.108	47.6
675.294	47.73
675.481	47.57
675.668	47.7
675.854	47.67
676.041	47.04
676.227	46.97
676.414	46.79
676.601	46.87
676.787	46.82
676.974	46.4
677.16	46.65
677.347	46.77
677.533	46.49
677.719	46.35
677.906	46.54
678.092	47.24
678.279	47.66
678.465	48.12
678.651	48.82
678.838	48.92
679.024	48.69
679.21	48.46
679.397	48.78
679.583	48.74
679.769	48.28
679.955	48.19
680.142	47.91
680.328	47.35
680.514	47.31
680.7	47.46
680.886	47.21
681.073	47.22
681.259	47.57
681.445	46.93
681.631	46.87
681.817	47.25
682.003	47.27
682.189	46.83
682.375	47.21
682.561	47
682.747	46.38
682.933	46.56
683.119	46.97
683.305	47.03
683.491	47.62
683.677	47.84
683.863	47.88
684.049	47.54
684.235	48.07
684.42	47.78
684.606	48.5
684.792	48.61
684.978	49.22
685.164	48.9
685.349	48.77
685.535	48.26
685.721	48.13
685.907	47.76
686.092	48
686.278	47.51
686.464	48.13
686.649	47.75
686.835	47.78
687.021	47.23
687.206	47.24
687.392	46.96
687.577	47.21
687.763	47.25
687.948	47.53
688.134	47.27
688.319	47.23
688.505	46.99
688.69	47.12
688.876	46.85
689.061	46.99
689.247	47.26
689.432	47.84
689.618	47.91
689.803	48.34
689.988	48.27
690.174	48.45
690.359	48.28
690.544	47.46
690.73	47.16
690.915	47.45
691.1	47.83
691.285	48.1
691.471	47.82
691.656	47.91
691.841	47.47
692.026	47.36
692.211	47.47
692.396	48.23
692.582	49.5
692.767	49.35
692.952	49.19
693.137	48.54
693.322	47.96
693.507	47.88
693.692	47.05
693.877	47.11
694.062	47.58
694.247	46.97
694.432	46.63
694.617	45.9
694.802	46.35
694.987	46.58
695.172	46.77
695.357	47.45
695.541	47.15
695.726	48.47
695.911	48.49
696.096	48.81
696.281	49.24
696.466	49.27
696.65	49.69
696.835	49.16
697.02	49.35
697.204	49.12
697.389	48.46
697.574	48.96
697.759	48.4
697.943	48.29
698.128	47.44
698.312	47.6
698.497	47.8
698.682	47.64
698.866	47.95
699.051	47.68
699.235	47.42
699.42	47.45
699.604	47.34
699.789	47.2
699.973	47.57
700.158	48.02
700.342	48.5
700.527	48.21
700.711	48.21
700.895	48.64
701.08	48.74
701.264	49.12
701.448	49.17
701.633	49.05
701.817	49.36
702.001	49.3
702.186	49.44
702.37	48.39
702.554	48.05
702.738	48.11
702.923	47.95
703.107	48
703.291	47.85
703.475	47.98
703.659	48.01
703.843	48.17
704.027	47.65
704.212	47.43
704.396	47.84
704.58	48.89
704.764	48.68
704.948	47.74
705.132	47.67
705.316	48.22
705.5	48.17
705.684	48.37
705.868	48.53
706.052	48.26
706.235	48.3
706.419	48.42
706.603	48.05
706.787	47.85
706.971	48.78
707.155	48.58
707.339	48.25
707.522	48.33
707.706	48.47
707.89	48.51
708.074	49.35
708.257	49.89
708.441	49.46
708.625	49.46
708.808	49.86
708.992	49.5
709.176	49.96
709.359	50.02
709.543	50.25
709.727	49.61
709.91	49.52
710.094	49.54
710.277	48.9
710.461	49.21
710.644	49.14
710.828	49.13
711.011	49.16
711.195	48.77
711.378	48.31
711.562	48.29
711.745	48.55
711.928	47.67
712.112	47.05
712.295	47.14
712.478	47.12
712.662	46.7
712.845	46.41
713.028	46.79
713.212	46.87
713.395	46.85
713.578	47.47
713.761	47.34
713.945	48.35
714.128	49.08
714.311	49.05
714.494	49.17
714.677	49.84
714.86	50.38
715.043	49.53
715.227	50.01
715.41	49.91
715.593	48.99
715.776	48.75
715.959	48.1
716.142	48.11
716.325	48.12
716.508	48.3
716.691	48.33
716.874	47.92
717.057	48.24
717.239	48.11
717.422	48.53
717.605	48.36
717.788	47.72
717.971	47.41
718.154	46.78
718.337	46.63
718.519	46.41
718.702	45.94
718.885	46.09
719.068	45.73
719.25	45.91
719.433	46.54
719.616	47.61
719.798	48.67
719.981	48.38
720.164	48.36
720.346	48.43
720.529	49.03
720.712	48.69
720.894	48.13
721.077	48.33
721.259	47.81
721.442	47.04
721.624	46.67
721.807	46.86
721.989	48.05
722.172	47.75
722.354	47.54
722.537	47.39
722.719	48.2
722.901	47.88
723.084	48.05
723.266	47.37
723.448	47.66
723.631	48.5
723.813	49.07
723.995	48.81
724.178	49.29
724.36	50.36
724.542	50.3
724.724	50.29
724.907	51.43
725.089	51.29
725.271	52.3
725.453	51.38
725.635	49.83
725.817	48.79
725.999	49.04
726.181	49
726.364	48.52
726.546	48.34
726.728	48.13
726.91	48.15
727.092	47.4
727.274	46.96
727.456	47.52
727.638	47.86
727.819	48.46
728.001	47.71
728.183	47.91
728.365	47.64
728.547	47.95
728.729	48.46
728.911	47.95
729.093	49.08
729.274	49.25
729.456	49.2
729.638	48.57
729.82	48.21
730.001	49.09
730.183	48.85
730.365	49.72
730.546	49.54
730.728	49.43
730.91	49.84
731.091	50.06
731.273	50.39
731.455	50.93
731.636	51.93
731.818	52.1
731.999	52.12
732.181	51.61
732.362	51.51
732.544	50.64
732.725	50.8
732.907	49.94
733.088	49.48
733.27	49.44
733.451	48.92
733.633	49.18
733.814	49.26
733.995	49.59
734.177	49.89
734.358	48.8
734.539	49.98
734.721	49.75
734.902	50.2
735.083	49.97
735.264	49.4
735.446	50.42
735.627	49.92
735.808	49.01
735.989	49.13
736.17	49.32
736.351	49.96
736.533	49.19
736.714	49.05
736.895	50.07
737.076	50.71
737.257	51.62
737.438	51.18
737.619	51.43
737.8	51.33
737.981	50.38
738.162	50.55
738.343	49.91
738.524	50.24
738.705	49.82
738.886	48.97
739.067	49.17
739.247	48.89
739.428	49.48
739.609	48.79
739.79	50.63
739.971	50.29
740.151	50.11
740.332	51.03
740.513	50.46
740.694	49.78
740.874	49.71
741.055	48.07
741.236	48.24
741.417	46.24
741.597	45.61
741.778	45.88
741.958	46.83
742.139	46.15
742.32	44.97
742.5	44.99
742.681	46.85
742.861	46.23
743.042	46.94
743.222	46.63
743.403	48.33
743.583	50.66
743.764	48.86
743.944	48.56
744.124	49.64
744.305	49.07
744.485	48.32
744.666	48.06
744.846	48.82
745.026	48.46
745.207	49.77
745.387	48.53
745.567	47.21
745.747	48.18
745.928	47.77
746.108	46.22
746.288	47.83
746.468	49.67
746.648	49.38
746.829	48.35
747.009	50
747.189	48.33
747.369	49.27
747.549	49.11
747.729	48.78
747.909	47.66
748.089	48.53
748.269	48.5
748.449	46.73
748.629	46.69
748.809	48.26
748.989	47.63
749.169	47.58
749.349	47.36
749.529	47.24
749.709	47.7
749.889	49.11
750.068	50.12
750.248	49.78
750.428	51.41
750.608	51.12
750.788	50.71
750.967	50.81
751.147	51.03
751.327	51.23
751.507	51.37
751.686	51.13
751.866	50.74
752.046	50.45
752.225	51.3
752.405	51.07
752.585	51.74
752.764	52.53
752.944	53.26
753.123	53.15
753.303	53.57
753.482	54.12
753.662	53.26
753.841	54.15
754.021	53.34
754.2	52.73
754.38	51.97
754.559	51.32
754.739	49.37
754.918	47.97
755.097	48.65
755.277	47.73
755.456	47.66
755.635	48.8
755.815	47.6
755.994	47.77
756.173	47.29
756.352	47.99
756.532	47.06
756.711	49.01
756.89	49.67
757.069	49.31
757.248	49.24
757.427	48.35
757.607	48.03
757.786	48.34
757.965	48.3
758.144	49
758.323	48.22
758.502	48.55
758.681	47.77
758.86	46.78
759.039	47.69
759.218	48.14
759.397	48.34
759.576	47.71
759.755	47.66
759.934	47.8
760.113	48.44
760.291	47.54
760.47	48.05
760.649	47.76
760.828	48.65
761.007	47.87
761.186	47.29
761.364	47.05
761.543	47.27
761.722	48.15
761.901	48.22
762.079	47.82
762.258	48.79
762.437	49.51
762.615	50.22
762.794	51.01
762.972	51.46
763.151	51.13
763.33	51.27
763.508	51.09
763.687	50.98
763.865	50.92
764.044	50.56
764.222	50.59
764.401	50.72
764.579	50.58
764.758	49.26
764.936	47.97
765.114	48.5
765.293	48.04
765.471	48.13
765.65	47.86
765.828	47.38
766.006	46.84
766.184	46.24
766.363	45.34
766.541	44.98
766.719	45.75
766.898	46.44
767.076	46.35
767.254	47.56
767.432	47.51
767.61	47.14
767.788	47.3
767.967	47.08
768.145	47.65
768.323	46.68
768.501	46.85
768.679	44.98
768.857	45.2
769.035	46.25
769.213	45.55
769.391	46.66
769.569	46.47
769.747	47.67
769.925	49.01
770.103	49.44
770.281	50.24
770.459	49.49
770.636	50.97
770.814	50.4
770.992	49.85
771.17	49.4
771.348	47.45
771.525	47.43
771.703	46.1
771.881	45.08
772.059	45.19
772.236	45.27
772.414	46.93
772.592	46.17
772.769	47.74
772.947	48.41
773.125	49.61
773.302	51.54
773.48	51.13
773.657	51.69
773.835	51.92
774.013	52.19
774.19	52.6
774.368	51.4
774.545	51.6
774.723	49.71
774.9	49.35
775.077	48.67
775.255	48.03
775.432	46.98
775.61	48.22
775.787	48.38
775.964	47
776.142	45.09
776.319	45.39
776.496	44.46
776.674	45.56
776.851	44.09
777.028	43.76
777.205	45.31
777.382	47.43
777.56	46.17
777.737	46.85
777.914	48.23
778.091	48.86
778.268	48.75
778.445	50.85
778.622	49.24
778.8	50.44
778.977	49.98
779.154	48.35
779.331	47.88
779.508	49.1
779.685	50.19
779.862	49.13
780.038	49.65
780.215	48.15
780.392	47.56
780.569	49.36
780.746	49.86
780.923	50.04
781.1	49.79
781.277	49.92
781.453	48.37
781.63	45.82
781.807	47.22
781.984	46.7
782.16	48.48
782.337	48.54
782.514	49.06
782.691	47.96
782.867	48.73
783.044	49.29
783.221	48.82
783.397	48.63
783.574	51.02
783.75	49.45
783.927	49.21
784.103	49
784.28	48.95
784.456	47.91
784.633	47.92
784.809	48.69
784.986	46.77
785.162	45.71
785.339	45.2
785.515	42.37
785.692	42.49
785.868	43.51
786.044	43.1
786.221	42.55
786.397	43.91
786.573	43.5
786.749	41.92
786.926	43.46
787.102	47.3
787.278	47.69
787.454	48.89
787.631	50.07
787.807	49.12
787.983	49.99
788.159	50.45
788.335	48.68
788.511	49.46
788.687	49.23
788.863	50.23
789.039	48.94
789.216	49.35
789.392	48.99
789.568	48.43
789.744	51.21
789.919	50.14
790.095	49.92
790.271	50.05
790.447	49.51
790.623	49.16
790.799	48.18
790.975	47.24
791.151	47.7
791.327	49.58
791.502	49.35
791.678	46.62
791.854	47.44
792.03	49.65
792.205	49.05
792.381	49.2
792.557	49.83
792.733	49.1
792.908	48.6
793.084	50.91
793.259	50.17
793.435	50.07
793.611	51.44
793.786	52.23
793.962	48.69
794.137	50.37
794.313	48.81
794.488	47.52
794.664	46.11
794.839	47.48
795.015	45.76
795.19	42.95
795.366	43.07
795.541	41.85
795.716	40.07
795.892	40.99
796.067	40.17
796.242	40.8
796.418	40.76
796.593	43.09
796.768	43.47
796.944	42.89
797.119	45.17
797.294	45.44
797.469	46.11
797.644	48.1
797.82	48.2
797.995	48.12
798.17	49.35
798.345	52.3
798.52	52.51
798.695	52.73
798.87	51
799.045	51.19
799.22	51.5
799.395	52.9
799.57	49.82
799.745	53.12
799.92	52.74
800.095	52.71
800.27	53.62
800.445	50.93
800.62	48.53
800.795	48.87
800.97	48.54
801.145	47.53
801.319	47.3
801.494	48.1
801.669	44.62
801.844	44.82
802.018	45.55
802.193	42.84
802.368	45.74
802.543	46.39
802.717	47.46
802.892	46.28
803.067	48.77
803.241	49.63
803.416	49.61
803.59	50.48
803.765	51.07
803.94	48.61
804.114	47.11
804.289	48.16
804.463	48.04
804.638	49.92
804.812	50.28
804.986	51.01
805.161	49
805.335	51.62
805.51	51.02
805.684	51.49
805.858	51.65
806.033	53.79
806.207	52.29
806.381	54.62
806.556	52.85
806.73	51.76
806.904	49.02
807.078	50.78
807.253	46.53
807.427	45.48
807.601	45.33
807.775	45.99
807.949	47.58
808.123	49.75
808.298	47.07
808.472	48.55
808.646	50.62
808.82	50.71
808.994	46.53
809.168	49.15
809.342	52.4
809.516	51.75
809.69	53.04
809.864	52.73
810.038	47.74
810.212	50.01
810.385	50.57
810.559	48.46
810.733	49.45
810.907	53.14
811.081	54.49
811.255	51.89
811.428	51.33
811.602	49.03
811.776	48.05
811.95	51.83
812.123	51.99
812.297	49.56
812.471	50.54
812.644	50.11
812.818	49.72
812.992	48.71
813.165	49.15
813.339	50.55
813.512	52.89
813.686	52.59
813.86	54.85
814.033	54.09
814.207	55.06
814.38	57.85
814.554	60.05
814.727	59.11
814.9	59.88
815.074	60.73
815.247	61.89
815.421	57.21
815.594	57.44
815.767	56.47
815.941	53.04
816.114	52.63
816.287	51.14
816.46	47.01
816.634	46.13
816.807	44.46
816.98	42.61
817.153	42.58
817.327	46.85
817.5	47.37
817.673	46.57
817.846	50.03
818.019	48.68
818.192	46.73
818.365	47.11
818.538	49.8
818.711	51.89
818.884	52.15
819.057	52.21
819.23	52.11
819.403	50.91
819.576	48.55
819.749	48.88
819.922	49.62
820.095	48.58
820.268	49.28
820.441	49.18
820.614	49.54
820.786	50.35
820.959	48.49
821.132	48.14
821.305	46.74
821.477	46.89
821.65	46.26
821.823	46.61
821.996	47.75
822.168	47.35
822.341	46.3
822.514	46.03
822.686	45.94
822.859	46.42
823.031	47.14
823.204	47.85
823.376	47.76
823.549	47.9
823.722	47.8
823.894	47.33
824.067	48.04
824.239	48.31
824.411	48.51
824.584	48.39
824.756	48.56
824.929	47.44
825.101	46.39
825.273	46.71
825.446	46.46
825.618	46.66
825.79	46.7
825.963	46.38
826.135	46.47
826.307	45.95
826.479	45.27
826.652	44.34
826.824	44.74
826.996	45.81
827.168	45.99
827.34	45.78
827.512	45.75
827.684	46.36
827.856	46.8
828.029	47.83
828.201	48.36
828.373	48.81
828.545	49.15
828.717	48.95
828.889	50.3
829.061	49.22
829.232	50.13
829.404	50.5
829.576	50.29
829.748	49.26
829.92	47.96
830.092	47.34
830.264	48.74
830.436	49.72
830.607	50
830.779	48.9
830.951	51.32
831.123	50.86
831.294	50.64
831.466	52.1
831.638	54.12
831.809	55.96
831.981	56.67
832.153	55.67
832.324	58.09
832.496	57.79
832.667	57.97
832.839	55.72
833.011	57.04
833.182	56.94
833.354	53.82
833.525	51.57
833.697	51.62
833.868	51.14
834.039	50.97
834.211	47.66
834.382	47.68
834.554	47.01
834.725	47.36
834.896	44.71
835.068	45.1
835.239	46.37
835.41	47.7
835.581	46.6
835.753	45.48
835.924	45.83
836.095	47.99
836.266	47.76
836.438	47.46
836.609	49.85
836.78	52.11
836.951	53.77
837.122	54.32
837.293	54.42
837.464	55.5
837.635	55.66
837.806	56.86
837.977	56.81
838.148	56.31
838.319	57.56
838.49	55.07
838.661	54.14
838.832	51.66
839.003	48.35
839.174	46.11
839.345	42.46
839.516	41.84
839.687	39.41
839.857	40.47
840.028	42.99
840.199	43.52
840.37	44.11
840.54	47.83
840.711	46.6
840.882	47.9
841.053	47.59
841.223	48.99
841.394	52.68
841.564	53.97
841.735	51.31
841.906	49.39
842.076	45.14
842.247	43.73
842.417	34.94
842.588	34.15
842.758	37.5
842.929	36.78
843.099	38.95
843.27	39.4
843.44	39.62
843.611	39.68
843.781	42.91
843.951	46.35
844.122	49.19
844.292	51.56
844.462	51.98
844.633	51.41
844.803	52.65
844.973	50.63
845.144	45.86
845.314	43.44
845.484	42.09
845.654	39.74
845.824	39.98
845.995	34.46
846.165	41.26
846.335	37.69
846.505	30.82
846.675	30.88
846.845	35.54
847.015	41.55
847.185	48.39
847.355	53.33
847.525	55.55
847.695	42.97
847.865	45.37
848.035	41.69
848.205	51.99
848.375	58.73
848.545	60.17
848.715	62.22
848.884	58.88
849.054	55.88
849.224	54.38
849.394	56.14
849.564	64.67
849.733	65.72
849.903	65.56
850.073	63.54
850.243	54.49
850.412	48.74
850.582	45.24
850.752	45.54
850.921	42.49
851.091	39.18
851.26	32.4
851.43	30.35
851.599	33.26
851.769	29.4
851.939	29.95
852.108	31.61
852.278	34.52
852.447	35.31
852.616	34.18
852.786	37.17
852.955	35.34
853.125	42.56
853.294	49.03
853.463	47.41
853.633	47.92
853.802	40.78
853.971	46.46
854.141	38.03
854.31	36.59
854.479	32.66
854.648	25.88
854.818	33.11
854.987	30.91
855.156	27.41
855.325	28.23
855.494	27.75
855.663	37.88
855.832	35.09
856.001	35.93
856.171	36.95
856.34	38.09
856.509	43
856.678	40.4
856.847	40.02
857.016	39.02
857.185	35.12
857.353	39.79
857.522	32.24
857.691	23.86
857.86	33.96
858.029	29.83
858.198	28.98
858.367	32.46
858.535	33.61
858.704	41.94
858.873	49.9
859.042	56.46
859.21	55.9
859.379	57.84
859.548	71.38
859.717	64.51
859.885	68.53
860.054	79.81
860.222	81.22
860.391	80.3
860.56	75.62
860.728	67.55
860.897	69.18
861.065	67.36
861.234	70.36
861.402	65.51
861.571	65.61
861.739	62.49
861.908	51.66
862.076	38.12
862.244	33.9
862.413	35.14
862.581	45.02
862.749	37.49
862.918	43.74
863.086	36.2
863.254	44.45
863.423	49.78
863.591	49.56
863.759	50.25
863.927	51.85
864.096	57.75
864.264	46.18
864.432	42.05
864.6	45.63
864.768	33.64
864.936	23.92
865.104	20.3
865.272	21.75
865.44	27.82
865.608	21.48
865.776	24.11
865.944	11.73
866.112	18.26
866.28	23.49
866.448	21.85
866.616	27.37
866.784	33.94
866.952	35.71
867.12	24.89
867.288	20.22
867.455	29.19
867.623	34.34
867.791	43.88
867.959	47.24
868.127	42.12
868.294	40.55
868.462	44.79
868.63	53.64
868.797	55.07
868.965	62.72
869.133	65.59
869.3	61.66
869.468	56.15
869.636	49.86
869.803	53.41
869.971	57.15
870.138	65.36
870.306	67.76
870.473	64.49
870.641	66.85
870.808	67.28
870.975	68.9
871.143	71.71
871.31	78.58
871.478	82.67
871.645	78.54
871.812	79.28
871.98	66.16
872.147	56.85
872.314	51.58
872.482	40.17
872.649	36.37
872.816	34.71
872.983	32.06
873.15	34.54
873.318	31.93
873.485	41.06
873.652	37.99
873.819	45.36
873.986	53.47
874.153	53.33
874.32	55.68
874.487	58.09
874.654	61.94
874.821	66.51
874.988	67.66
875.155	69.83
875.322	63.96
875.489	62.93
875.656	61.09
875.823	56.26
875.99	60.03
876.157	65.24
876.324	63.76
876.49	61.64
876.657	68.24
876.824	58.8
876.991	60.17
877.157	63.11
877.324	78.14
877.491	72.26
877.658	69.39
877.824	64.03
877.991	51.66
878.157	55.3
878.324	51.3
878.491	29.92
878.657	42.75
878.824	38.92
878.99	36.38
879.157	29.23
879.323	36.39
879.49	39.44
879.656	48.75
879.823	52.59
879.989	43.89
880.156	50.54
880.322	54.74
880.488	47.75
880.655	45.84
880.821	46.73
880.987	53.54
881.154	53.32
881.32	54.69
881.486	52.61
881.652	52.01
881.819	56.45
881.985	49.8
882.151	48.79
882.317	51.95
882.483	54.68
882.649	55.01
882.816	53.47
882.982	51.85
883.148	50.05
883.314	49.18
883.48	48.33
883.646	46.24
883.812	46.78
883.978	46.3
884.144	46.38
884.31	46.72
884.476	46.41
884.642	46.43
884.807	49.1
884.973	49.01
885.139	48.16
885.305	48.63
885.471	48.99
885.637	49.77
885.802	51.41
885.968	51.14
886.134	50.58
886.3	50.83
886.465	50.79
886.631	44.89
886.797	47.26
886.962	48.11
887.128	49.33
887.293	51.2
887.459	52.35
887.625	51.89
887.79	51.64
887.956	50.92
888.121	50.79
888.287	50.19
888.452	56.43
888.618	50.23
888.783	50.24
