Data from CB_011_Reflection_2.txt Node
Date: Wed Nov 11 18:47:21 EST 2015
User: robert
Spectrometer: USB4E03001
Autoset integration time: false
Trigger mode: 4
Integration Time (sec): 1.000000E-1
Scans to average: 15
Electric dark correction enabled: true
Nonlinearity correction enabled: false
Boxcar width: 5
Stray light correction enabled: false
XAxis mode: Wavelengths
Stop averaging: false
Number of Pixels in Spectrum: 3648
>>>>>Begin Spectral Data<<<<<
177.566	203.09
177.785	570.7
178.005	267.48
178.225	2305.3
178.445	-324.74
178.665	-454.14
178.885	-116.13
179.105	-73.98
179.324	-11.5
179.544	119.99
179.764	128.64
179.984	143.59
180.204	-195.47
180.423	309.85
180.643	404.65
180.863	-692.14
181.083	-1360.33
181.302	-217.07
181.522	-491.92
181.742	-368.97
181.961	323.38
182.181	150.78
182.401	187.88
182.621	965.64
182.84	198.83
183.06	175.44
183.279	209.66
183.499	573.92
183.719	612.5
183.938	372.29
184.158	637.22
184.377	-762.46
184.597	-222.08
184.816	-153.95
185.036	-456.48
185.256	-155.41
185.475	694.13
185.695	-7985.06
185.914	333.82
186.134	177.66
186.353	158.38
186.572	294.99
186.792	214.25
187.011	133.13
187.231	140.66
187.45	217.74
187.67	213.3
187.889	2079.11
188.108	718
188.328	790.55
188.547	-683.54
188.766	-1224.24
188.986	450.92
189.205	-24427.27
189.424	771.44
189.644	3904.13
189.863	200.31
190.082	172.29
190.302	100.02
190.521	12.56
190.74	37.17
190.959	32.99
191.178	44.72
191.398	51.67
191.617	62.35
191.836	68.24
192.055	72.31
192.274	75.51
192.494	86.74
192.713	88.29
192.932	101.44
193.151	104.18
193.37	131.21
193.589	114.94
193.808	126.36
194.027	131.21
194.246	156.54
194.465	183.52
194.685	150.86
194.904	166.27
195.123	399.51
195.342	1522.65
195.561	252.89
195.78	195.86
195.999	228.25
196.218	641.84
196.436	-294.51
196.655	-409.8
196.874	164.7
197.093	186.52
197.312	291.39
197.531	74.45
197.75	13.52
197.969	70.78
198.188	73.15
198.407	116.87
198.625	141.97
198.844	301.06
199.063	82.38
199.282	54.57
199.501	46.79
199.719	152.79
199.938	-453.91
200.157	94.02
200.376	152.85
200.594	255.73
200.813	-13757.14
201.032	851.82
201.251	252.74
201.469	240.3
201.688	217.93
201.907	211.98
202.125	224.36
202.344	127.5
202.563	159.98
202.781	196.66
203	166.77
203.218	139.1
203.437	125.52
203.656	120.44
203.874	109.4
204.093	121.05
204.311	101.78
204.53	92.2
204.748	74.62
204.967	100.72
205.185	91.15
205.404	119.25
205.622	120.43
205.841	144.54
206.059	149.47
206.278	133.03
206.496	85.16
206.715	126.86
206.933	183.16
207.151	124.02
207.37	70.65
207.588	17.69
207.806	-56.61
208.025	-156.62
208.243	-170.66
208.461	28.95
208.68	71.39
208.898	79.1
209.116	113.32
209.335	91.92
209.553	-271.16
209.771	253.71
209.989	-3421.74
210.208	-1523.58
210.426	-662.98
210.644	-166.92
210.862	-100.84
211.081	-47.26
211.299	-54.38
211.517	-91.76
211.735	-99.84
211.953	-144.07
212.171	-24.65
212.39	-354.2
212.608	-2221.09
212.826	252.52
213.044	206.75
213.262	177.42
213.48	201.27
213.698	236.66
213.916	-1087.44
214.134	-368.52
214.352	-946.45
214.57	315.22
214.788	145.86
215.006	86.75
215.224	125.51
215.442	98.74
215.66	96.32
215.878	90.03
216.096	100.46
216.314	79.31
216.532	82.29
216.75	88.02
216.968	102.78
217.185	116.21
217.403	167.01
217.621	204.39
217.839	251.3
218.057	3843.72
218.275	-1163.79
218.492	-122.07
218.71	-93.25
218.928	-91.14
219.146	-39.61
219.363	-10.82
219.581	-53.78
219.799	-32.36
220.017	-22.2
220.234	-11.62
220.452	-44.52
220.67	-93.5
220.887	-230.91
221.105	-140.34
221.323	-185.56
221.54	-64.83
221.758	-62.92
221.976	-66.37
222.193	-60.5
222.411	-107.81
222.629	-144.29
222.846	-119.91
223.064	-74.26
223.281	-40.75
223.499	-59.64
223.716	-53.73
223.934	-444.69
224.151	-600.27
224.369	-224.89
224.586	53425
224.804	178.61
225.021	144.49
225.239	24.68
225.456	-28.08
225.674	-133.71
225.891	-17.68
226.108	1.61
226.326	1.09
226.543	-6.54
226.76	-11.78
226.978	1.79
227.195	-3.03
227.413	-1.2
227.63	2.84
227.847	0.7
228.064	1.88
228.282	1.65
228.499	2.11
228.716	3.92
228.934	2.38
229.151	2.46
229.368	3.01
229.585	0.46
229.802	1.01
230.02	2.45
230.237	2.65
230.454	6.82
230.671	5.17
230.888	0.65
231.105	1.48
231.323	4.27
231.54	4.29
231.757	-7.84
231.974	-2.88
232.191	-7.74
232.408	-7.16
232.625	-13.45
232.842	-19.77
233.059	-12.24
233.276	-3.75
233.493	-4.35
233.71	-7.76
233.927	-1.47
234.144	7.57
234.361	6.07
234.578	12.96
234.795	9.44
235.012	14.39
235.229	18.9
235.446	13.89
235.663	3.47
235.879	10.56
236.096	10.71
236.313	-2.53
236.53	-1.06
236.747	3.89
236.964	0.23
237.181	-5.09
237.397	0.99
237.614	-0.02
237.831	-1.68
238.048	5.08
238.264	-6.32
238.481	-10.61
238.698	-8.12
238.915	-10.19
239.131	-11.2
239.348	-21.7
239.565	-17.7
239.781	-24.61
239.998	-20.19
240.215	-18.75
240.431	-16.88
240.648	-12
240.865	-4.57
241.081	-3.67
241.298	-2.89
241.514	-3.83
241.731	0.4
241.947	1.57
242.164	4.52
242.38	4.17
242.597	5.16
242.814	5.05
243.03	3.03
243.246	2.19
243.463	2.6
243.679	4.16
243.896	3.21
244.112	2.15
244.329	1.22
244.545	1.1
244.762	3.33
244.978	4.31
245.194	3.13
245.411	4.51
245.627	1.71
245.843	2.66
246.06	4.31
246.276	5.51
246.492	5.9
246.709	7.11
246.925	5.86
247.141	5
247.357	5.19
247.574	5.83
247.79	6.34
248.006	7.98
248.222	8.36
248.439	7.49
248.655	8.38
248.871	8.82
249.087	8.56
249.303	9.31
249.519	9.85
249.736	8.06
249.952	9.23
250.168	6.62
250.384	3.42
250.6	1.64
250.816	1.11
251.032	-1.53
251.248	-2.84
251.464	-2.84
251.68	-4.28
251.896	-5.27
252.112	-3.31
252.328	-2.06
252.544	1.54
252.76	1.39
252.976	2.79
253.192	2.23
253.408	2.12
253.624	2.35
253.84	0.86
254.056	2.25
254.272	2.69
254.487	3.49
254.703	2.89
254.919	3.26
255.135	2.33
255.351	-0.06
255.567	0.42
255.782	2.86
255.998	3.07
256.214	2.82
256.43	4.24
256.646	4.52
256.861	1.37
257.077	-1.2
257.293	-5.31
257.508	-3.17
257.724	-1.78
257.94	-1.37
258.155	-0.87
258.371	-0.34
258.587	1.27
258.802	0.63
259.018	1.3
259.234	2.67
259.449	3.65
259.665	4.15
259.88	4.66
260.096	4.47
260.312	4.5
260.527	4.7
260.743	5
260.958	4.36
261.174	4.64
261.389	4.01
261.605	3.79
261.82	4
262.036	3.58
262.251	3.66
262.466	4.86
262.682	3.49
262.897	2.41
263.113	0.51
263.328	2.69
263.543	3.09
263.759	2.59
263.974	1.43
264.189	-0.06
264.405	-0.12
264.62	-0.33
264.835	-2.71
265.051	-0.56
265.266	-3.85
265.481	-2.85
265.696	-6.89
265.912	-8.32
266.127	-7.85
266.342	-8.85
266.557	-10.51
266.773	-7.73
266.988	-8.41
267.203	-8.28
267.418	-8.45
267.633	-7.34
267.848	-7.09
268.064	-6.18
268.279	-5.38
268.494	-4.24
268.709	-0.65
268.924	1.01
269.139	1.29
269.354	3.06
269.569	5.38
269.784	5.58
269.999	6.25
270.214	6.56
270.429	6.06
270.644	5.03
270.859	4.52
271.074	3.69
271.289	4.21
271.504	2.84
271.719	2.16
271.934	0.58
272.149	0.99
272.363	1.57
272.578	1.42
272.793	3.01
273.008	2.85
273.223	3.34
273.438	3.88
273.653	3.4
273.867	4.19
274.082	3.13
274.297	3.66
274.512	2.73
274.726	3.23
274.941	3.38
275.156	1.91
275.371	2.25
275.585	0.02
275.8	-2.13
276.015	-3.78
276.229	-6.68
276.444	-4.97
276.659	-6.71
276.873	-6.51
277.088	-7.61
277.302	-6.64
277.517	-6.42
277.732	-6.73
277.946	-6.21
278.161	-5.93
278.375	-4.32
278.59	-1.16
278.804	-0.84
279.019	1.46
279.233	3.68
279.448	3.84
279.662	2.07
279.877	2.16
280.091	3.55
280.306	4.56
280.52	5.2
280.735	4.44
280.949	5.18
281.163	5.27
281.378	4.23
281.592	3.7
281.806	2.67
282.021	2.63
282.235	2.92
282.449	1.19
282.664	1.38
282.878	1.41
283.092	2.96
283.307	1.76
283.521	2.49
283.735	4.18
283.949	2.65
284.164	4.2
284.378	5.28
284.592	5.11
284.806	5.64
285.02	4.75
285.234	5.29
285.449	4.32
285.663	4.24
285.877	4.03
286.091	2.91
286.305	3.19
286.519	3.88
286.733	4.14
286.947	4.71
287.161	4.46
287.375	5.27
287.589	4.3
287.803	4.92
288.017	5.02
288.231	3.75
288.445	3.51
288.659	3.44
288.873	3.72
289.087	3.04
289.301	3.89
289.515	4.33
289.729	4.31
289.943	4.51
290.157	3.96
290.371	3.47
290.584	4.12
290.798	4.62
291.012	4.98
291.226	3.4
291.44	3.5
291.654	3.76
291.867	4.26
292.081	3.03
292.295	3.34
292.509	3.44
292.722	4.01
292.936	3.09
293.15	3.88
293.364	4.81
293.577	5.88
293.791	6.53
294.005	4.34
294.218	5.23
294.432	7.93
294.645	8.03
294.859	8.27
295.073	7.23
295.286	7.3
295.5	6.67
295.713	6.43
295.927	6.82
296.14	6.48
296.354	7.25
296.568	6.92
296.781	4.95
296.994	3.95
297.208	3.64
297.421	5.93
297.635	6.37
297.848	6.87
298.062	7.55
298.275	6.21
298.489	5.69
298.702	5.53
298.915	6.12
299.129	7.16
299.342	8.29
299.555	9.23
299.769	8.27
299.982	8.38
300.195	8.51
300.409	6.34
300.622	8.13
300.835	8.36
301.048	9.1
301.262	7.77
301.475	7.14
301.688	7.04
301.901	6.71
302.115	6.84
302.328	6.45
302.541	6
302.754	7.84
302.967	5.48
303.18	6.36
303.393	7.72
303.607	8.39
303.82	8.76
304.033	8.52
304.246	8.15
304.459	6.44
304.672	6.66
304.885	6.7
305.098	6.07
305.311	8.53
305.524	7.39
305.737	5.13
305.95	5.49
306.163	7.43
306.376	8.58
306.589	9.88
306.802	11.45
307.015	11.82
307.228	10.84
307.44	10.75
307.653	10.06
307.866	10.28
308.079	10.87
308.292	10.66
308.505	10.24
308.718	9.14
308.93	8.2
309.143	8.43
309.356	7.5
309.569	7.91
309.781	8.02
309.994	7.65
310.207	9.08
310.42	8.76
310.632	8.9
310.845	8.53
311.058	9.27
311.27	8.85
311.483	8.2
311.696	9.29
311.908	9.51
312.121	10.66
312.333	10.55
312.546	11.4
312.759	10.93
312.971	10.54
313.184	9.14
313.396	8.88
313.609	10.45
313.821	11.68
314.034	11.08
314.246	11.51
314.459	10.84
314.671	11.59
314.884	9.86
315.096	11.59
315.309	11.3
315.521	12.35
315.733	11.44
315.946	10.67
316.158	9.42
316.371	9.44
316.583	9.02
316.795	9.33
317.008	9.05
317.22	8.85
317.432	8.34
317.644	7.5
317.857	7.74
318.069	8.44
318.281	7.72
318.494	7.83
318.706	7.58
318.918	7.39
319.13	5.97
319.342	5.69
319.555	4.88
319.767	3.29
319.979	5.74
320.191	5.5
320.403	5.98
320.615	7.9
320.827	7.72
321.039	9.17
321.252	9.39
321.464	10.03
321.676	10.05
321.888	10.29
322.1	10.92
322.312	10.3
322.524	10.33
322.736	10.26
322.948	8.45
323.16	9.98
323.372	8.99
323.584	8.54
323.796	8.03
324.007	8.01
324.219	8.9
324.431	10.11
324.643	9.47
324.855	9.64
325.067	9.66
325.279	9.85
325.491	8.63
325.702	9.22
325.914	9.76
326.126	9.73
326.338	9.67
326.55	9.46
326.761	9.93
326.973	11.39
327.185	12.05
327.396	11.71
327.608	11.74
327.82	13.6
328.032	13.86
328.243	14.29
328.455	14.84
328.666	15.92
328.878	15.43
329.09	14.52
329.301	13.01
329.513	13.53
329.725	14.21
329.936	14.57
330.148	12.73
330.359	11.91
330.571	12.09
330.782	12.05
330.994	12.25
331.205	13.21
331.417	13.09
331.628	12.08
331.84	11.12
332.051	10.8
332.262	10.23
332.474	11.16
332.685	12.36
332.897	12
333.108	12.05
333.319	12.7
333.531	12.31
333.742	12.38
333.953	14.89
334.165	14.27
334.376	13.84
334.587	14.84
334.799	14.84
335.01	14.26
335.221	15.27
335.432	15.51
335.644	14.54
335.855	15.35
336.066	15.57
336.277	13.85
336.488	14.41
336.7	14.75
336.911	14.87
337.122	15.02
337.333	15.15
337.544	14.39
337.755	15.04
337.966	14.52
338.177	13.79
338.388	13.13
338.599	13.94
338.811	13.76
339.022	13.58
339.233	12.84
339.444	12.9
339.655	13.72
339.866	13.81
340.076	13.72
340.287	14.46
340.498	15.01
340.709	15.79
340.92	15.12
341.131	14.08
341.342	14.21
341.553	14.27
341.764	13.91
341.975	12.9
342.185	12.41
342.396	12.14
342.607	11.43
342.818	10.22
343.029	9.71
343.239	9.78
343.45	10.9
343.661	11.52
343.872	11.87
344.082	11.82
344.293	11.99
344.504	11.96
344.714	12.41
344.925	12.94
345.136	13.69
345.346	14.87
345.557	14.62
345.768	14.85
345.978	14.29
346.189	14.41
346.399	14.95
346.61	14.92
346.821	15.23
347.031	14.58
347.242	14.77
347.452	14.68
347.663	14.17
347.873	15.19
348.084	14.58
348.294	14.32
348.504	13.62
348.715	13.6
348.925	13.86
349.136	14.18
349.346	14.39
349.557	14.79
349.767	14.98
349.977	14.09
350.188	14.47
350.398	14.87
350.608	15.04
350.819	15.28
351.029	14.87
351.239	14.73
351.449	14.24
351.66	14.67
351.87	14.43
352.08	14.34
352.29	14.35
352.501	13.15
352.711	12.49
352.921	12.61
353.131	13.4
353.341	13.64
353.552	13.7
353.762	13.83
353.972	13.35
354.182	12.84
354.392	12.79
354.602	13.32
354.812	13.4
355.022	14.55
355.232	14.29
355.442	13.75
355.652	13.51
355.862	13.75
356.072	13.54
356.282	14.08
356.492	13.92
356.702	14.28
356.912	13.91
357.122	13.63
357.332	12.88
357.542	13.26
357.752	13.72
357.962	13.32
358.171	13.28
358.381	13.16
358.591	12.79
358.801	13.11
359.011	12.81
359.221	12.86
359.43	13.01
359.64	13.84
359.85	14.48
360.06	14.66
360.269	14.54
360.479	14.61
360.689	14.96
360.899	14.66
361.108	14.68
361.318	15.02
361.528	14.98
361.737	15.08
361.947	14.89
362.156	13.85
362.366	13.46
362.576	13.65
362.785	13.2
362.995	13.24
363.204	13.53
363.414	13.01
363.623	12.55
363.833	12.71
364.042	13.14
364.252	12.93
364.461	13.56
364.671	13.09
364.88	13.03
365.09	12.95
365.299	12.42
365.509	12.02
365.718	12.48
365.927	12.07
366.137	12.08
366.346	11.56
366.555	11.17
366.765	10.84
366.974	11.41
367.183	11.45
367.393	11.05
367.602	11.47
367.811	12.02
368.021	11.84
368.23	12.24
368.439	11.68
368.648	12.31
368.857	12.42
369.067	11.97
369.276	11.95
369.485	12.24
369.694	12.78
369.903	12.76
370.112	12.54
370.321	12.5
370.531	12.04
370.74	11.78
370.949	11.45
371.158	11.34
371.367	11.67
371.576	11.12
371.785	10.94
371.994	10.98
372.203	11
372.412	11.2
372.621	11.73
372.83	12.78
373.039	13.14
373.248	13.61
373.457	13.85
373.666	14.05
373.874	14.27
374.083	14.71
374.292	14.61
374.501	14.08
374.71	13.26
374.919	12.81
375.128	12.07
375.336	11.87
375.545	10.47
375.754	9.67
375.963	9.69
376.171	9.91
376.38	8.97
376.589	9.05
376.798	9.1
377.006	8.89
377.215	8.7
377.424	8.68
377.632	8.79
377.841	9.04
378.05	9.06
378.258	8.29
378.467	8.03
378.675	7.91
378.884	7.47
379.093	7.55
379.301	8.24
379.51	8.36
379.718	7.87
379.927	7.86
380.135	8.14
380.344	8.46
380.552	9.02
380.761	8.74
380.969	8.91
381.177	9.19
381.386	9.32
381.594	8.94
381.803	8.7
382.011	9.25
382.219	9.18
382.428	8.67
382.636	8.92
382.845	8.69
383.053	9.25
383.261	9.15
383.469	9.33
383.678	9.4
383.886	9.62
384.094	9.39
384.302	9.1
384.511	8.92
384.719	9.32
384.927	9.22
385.135	9.53
385.343	9
385.552	9.6
385.76	9.28
385.968	9.05
386.176	8.76
386.384	8.99
386.592	9.15
386.8	9.42
387.008	9.01
387.216	8.97
387.424	8.95
387.633	9.07
387.841	8.51
388.049	8.16
388.257	8.28
388.465	8.21
388.672	8
388.88	7.55
389.088	7.38
389.296	7.69
389.504	7.49
389.712	7.13
389.92	7.2
390.128	7.2
390.336	7.22
390.544	6.98
390.751	7.15
390.959	6.96
391.167	7.14
391.375	7.36
391.583	7.49
391.79	7.53
391.998	7.53
392.206	7.35
392.414	7.72
392.621	7.99
392.829	8.31
393.037	7.92
393.244	8.1
393.452	7.77
393.66	7.48
393.867	7.04
394.075	7.1
394.283	6.89
394.49	7.06
394.698	7.13
394.905	7
395.113	6.61
395.32	6.96
395.528	7.02
395.735	7.3
395.943	7.23
396.15	7.35
396.358	7.31
396.565	7.64
396.773	7.51
396.98	6.91
397.188	6.8
397.395	7.24
397.602	7.07
397.81	6.88
398.017	6.96
398.225	7.13
398.432	7.4
398.639	7.52
398.847	7.48
399.054	7.28
399.261	7.55
399.468	7.68
399.676	7.42
399.883	7.47
400.09	7.67
400.297	7.72
400.505	7.22
400.712	7.2
400.919	7.27
401.126	7.24
401.333	7.56
401.54	7.51
401.748	7.32
401.955	7.24
402.162	7.29
402.369	7.18
402.576	7.35
402.783	7.77
402.99	7.96
403.197	8.15
403.404	8.18
403.611	8.42
403.818	8.67
404.025	9.31
404.232	9.72
404.439	9.76
404.646	9.96
404.853	9.92
405.06	10.04
405.267	9.75
405.474	9.39
405.681	9.5
405.887	8.98
406.094	8.74
406.301	8.23
406.508	7.91
406.715	8.02
406.922	8.07
407.128	8.02
407.335	7.85
407.542	7.74
407.749	7.62
407.955	7.53
408.162	7.94
408.369	7.97
408.575	8.03
408.782	7.97
408.989	7.37
409.195	7.21
409.402	7.37
409.609	7.38
409.815	7.66
410.022	7.68
410.228	7.39
410.435	7.13
410.642	7.07
410.848	7.15
411.055	6.93
411.261	7.02
411.468	7.1
411.674	6.71
411.881	6.67
412.087	6.59
412.294	6.66
412.5	6.95
412.706	7
412.913	6.6
413.119	6.48
413.326	6.51
413.532	6.78
413.738	6.52
413.945	6.35
414.151	6.59
414.357	6.46
414.564	6.53
414.77	6.47
414.976	6.41
415.182	6.74
415.389	6.78
415.595	7.09
415.801	6.84
416.007	6.94
416.214	6.98
416.42	6.74
416.626	6.73
416.832	6.88
417.038	6.79
417.244	6.79
417.45	6.8
417.657	6.73
417.863	6.69
418.069	6.91
418.275	7.05
418.481	7.11
418.687	7.17
418.893	7.34
419.099	7.23
419.305	7.47
419.511	7.61
419.717	7.7
419.923	7.8
420.129	7.67
420.335	7.59
420.541	7.46
420.746	7.55
420.952	7.53
421.158	7.49
421.364	7.47
421.57	7.35
421.776	7.05
421.982	6.94
422.187	6.88
422.393	6.87
422.599	6.94
422.805	6.92
423.01	6.89
423.216	6.86
423.422	6.69
423.628	6.71
423.833	6.73
424.039	6.95
424.245	7.02
424.45	7.08
424.656	7.04
424.862	7.01
425.067	7.06
425.273	7.1
425.478	7.12
425.684	7.26
425.889	7.22
426.095	7.03
426.301	7.03
426.506	7.02
426.712	6.94
426.917	7.01
427.123	6.95
427.328	6.88
427.533	6.7
427.739	6.54
427.944	6.32
428.15	6.27
428.355	6.71
428.561	6.51
428.766	6.35
428.971	6.3
429.177	6.19
429.382	6.08
429.587	6.2
429.793	6.09
429.998	6.49
430.203	6.67
430.408	6.55
430.614	6.24
430.819	6.61
431.024	6.53
431.229	6.64
431.434	6.72
431.64	6.6
431.845	6.59
432.05	6.89
432.255	6.81
432.46	6.69
432.665	6.77
432.87	6.89
433.076	6.94
433.281	7.14
433.486	7.24
433.691	7.42
433.896	7.96
434.101	8.32
434.306	8.98
434.511	9.47
434.716	10.15
434.921	10.95
435.126	11.62
435.331	11.92
435.535	12.59
435.74	13.06
435.945	13.46
436.15	13.41
436.355	13.29
436.56	12.53
436.765	11.93
436.97	11.29
437.174	10.54
437.379	9.75
437.584	9.13
437.789	8.31
437.993	7.76
438.198	7.25
438.403	7.04
438.608	6.73
438.812	6.71
439.017	6.62
439.222	6.67
439.426	6.57
439.631	6.44
439.836	6.6
440.04	6.71
440.245	6.63
440.45	6.61
440.654	6.63
440.859	6.61
441.063	6.58
441.268	6.68
441.472	6.72
441.677	6.82
441.881	6.87
442.086	6.72
442.29	6.68
442.495	6.78
442.699	6.64
442.904	6.54
443.108	6.61
443.312	6.64
443.517	6.58
443.721	6.53
443.925	6.43
444.13	6.62
444.334	6.87
444.538	6.92
444.743	6.9
444.947	6.93
445.151	6.98
445.356	7.1
445.56	7.1
445.764	7.04
445.968	7
446.173	7.07
446.377	6.96
446.581	6.85
446.785	6.8
446.989	6.77
447.193	6.88
447.398	6.88
447.602	6.72
447.806	6.72
448.01	6.75
448.214	6.79
448.418	6.69
448.622	6.77
448.826	6.72
449.03	6.76
449.234	6.68
449.438	6.67
449.642	6.66
449.846	6.6
450.05	6.63
450.254	6.78
450.458	6.63
450.662	6.69
450.866	6.72
451.069	6.63
451.273	6.54
451.477	6.62
451.681	6.68
451.885	6.5
452.089	6.43
452.292	6.36
452.496	6.4
452.7	6.36
452.904	6.4
453.107	6.24
453.311	6.38
453.515	6.4
453.719	6.45
453.922	6.41
454.126	6.58
454.33	6.73
454.533	6.74
454.737	6.71
454.94	6.75
455.144	6.53
455.348	6.35
455.551	6.15
455.755	6.17
455.958	6.12
456.162	6.09
456.365	5.88
456.569	5.66
456.772	5.64
456.976	5.33
457.179	5.4
457.383	5.63
457.586	5.87
457.79	5.97
457.993	5.8
458.196	5.66
458.4	5.79
458.603	6.04
458.807	6.32
459.01	6.36
459.213	6.48
459.417	6.36
459.62	6.42
459.823	6.41
460.026	6.47
460.23	6.67
460.433	6.71
460.636	6.64
460.839	6.53
461.042	6.43
461.246	6.33
461.449	6.45
461.652	6.54
461.855	6.46
462.058	6.4
462.261	6.24
462.464	6.16
462.668	6.27
462.871	6.26
463.074	6.39
463.277	6.3
463.48	6.53
463.683	6.34
463.886	6.39
464.089	6.35
464.292	6.41
464.495	6.54
464.698	6.79
464.901	6.74
465.104	6.72
465.306	6.62
465.509	6.57
465.712	6.31
465.915	6.45
466.118	6.67
466.321	6.65
466.524	6.65
466.726	6.68
466.929	6.4
467.132	6.31
467.335	6.37
467.538	6.47
467.74	6.72
467.943	7.04
468.146	6.92
468.348	6.73
468.551	7.01
468.754	7.09
468.956	6.99
469.159	7.13
469.362	7.17
469.564	7.26
469.767	7.35
469.969	7.38
470.172	7.12
470.375	7.12
470.577	7.09
470.78	6.89
470.982	6.61
471.185	6.82
471.387	6.78
471.59	6.77
471.792	6.75
471.995	6.72
472.197	6.59
472.399	6.74
472.602	6.82
472.804	6.98
473.007	6.96
473.209	7.26
473.411	7.04
473.614	6.86
473.816	6.98
474.018	6.91
474.22	6.84
474.423	6.88
474.625	6.84
474.827	6.75
475.03	6.64
475.232	6.65
475.434	6.45
475.636	6.74
475.838	6.78
476.04	6.87
476.243	6.77
476.445	6.83
476.647	6.74
476.849	6.9
477.051	6.97
477.253	7.01
477.455	7.22
477.657	7.23
477.859	7.16
478.061	7.23
478.263	7.11
478.465	7.07
478.667	7.06
478.869	7.13
479.071	6.93
479.273	6.95
479.475	6.9
479.677	6.67
479.879	6.74
480.081	6.84
480.283	6.72
480.485	6.8
480.686	6.99
480.888	7.09
481.09	7.07
481.292	7.24
481.494	7.32
481.695	7.3
481.897	7.5
482.099	7.63
482.301	7.64
482.502	7.78
482.704	7.81
482.906	7.91
483.107	7.98
483.309	8.02
483.511	8.09
483.712	8.14
483.914	8.16
484.115	8.18
484.317	8.22
484.519	8.26
484.72	8.29
484.922	8.34
485.123	8.31
485.325	8.33
485.526	8.4
485.728	8.38
485.929	8.51
486.131	8.64
486.332	8.68
486.534	8.66
486.735	8.65
486.936	8.7
487.138	8.68
487.339	8.69
487.541	8.56
487.742	8.59
487.943	8.6
488.144	8.54
488.346	8.55
488.547	8.52
488.748	8.57
488.95	8.57
489.151	8.5
489.352	8.52
489.553	8.46
489.755	8.6
489.956	8.47
490.157	8.4
490.358	8.34
490.559	8.25
490.76	8.28
490.961	8.24
491.163	8.21
491.364	8.29
491.565	8.22
491.766	8.33
491.967	8.26
492.168	8.37
492.369	8.37
492.57	8.3
492.771	8.23
492.972	8.18
493.173	8.14
493.374	8.14
493.575	8
493.776	7.97
493.976	7.8
494.177	7.7
494.378	7.6
494.579	7.45
494.78	7.57
494.981	7.64
495.182	7.65
495.382	7.61
495.583	7.64
495.784	7.65
495.985	7.77
496.185	7.83
496.386	7.68
496.587	7.55
496.788	7.57
496.988	7.52
497.189	7.41
497.39	7.38
497.59	7.47
497.791	7.35
497.992	7.51
498.192	7.46
498.393	7.51
498.593	7.63
498.794	7.72
498.994	7.88
499.195	7.8
499.395	7.97
499.596	7.86
499.796	7.76
499.997	7.66
500.197	7.34
500.398	7.27
500.598	7.2
500.799	7.3
500.999	7.25
501.199	7.24
501.4	7.19
501.6	7.13
501.801	7.19
502.001	7.07
502.201	7.16
502.402	7.41
502.602	7.36
502.802	7.36
503.002	7.39
503.203	7.43
503.403	7.35
503.603	7.41
503.803	7.33
504.003	7.29
504.204	7.48
504.404	7.74
504.604	7.71
504.804	7.83
505.004	7.82
505.204	7.64
505.404	7.5
505.604	7.5
505.804	7.55
506.005	7.62
506.205	7.75
506.405	7.71
506.605	7.69
506.805	7.66
507.005	7.76
507.204	7.81
507.404	8.01
507.604	8.06
507.804	8.16
508.004	8.22
508.204	8.33
508.404	8.3
508.604	8.22
508.804	8.21
509.003	8.23
509.203	8.2
509.403	8.11
509.603	8.09
509.803	8.29
510.002	8.37
510.202	8.34
510.402	8.3
510.602	8.34
510.801	8.5
511.001	8.59
511.201	8.64
511.4	8.81
511.6	8.99
511.8	8.97
511.999	8.85
512.199	8.81
512.398	8.94
512.598	8.95
512.797	9.04
512.997	9.1
513.197	8.98
513.396	9.07
513.596	8.97
513.795	8.95
513.994	8.99
514.194	9.05
514.393	9.07
514.593	9.24
514.792	9.29
514.992	9.35
515.191	9.37
515.39	9.45
515.59	9.6
515.789	9.65
515.988	9.65
516.188	9.78
516.387	9.93
516.586	10.01
516.786	9.87
516.985	10.08
517.184	10.06
517.383	10.11
517.582	10.15
517.782	10.11
517.981	10.2
518.18	10.27
518.379	10.28
518.578	10.35
518.777	10.44
518.976	10.53
519.176	10.54
519.375	10.65
519.574	10.7
519.773	10.78
519.972	10.82
520.171	10.82
520.37	10.83
520.569	10.92
520.768	10.99
520.967	10.9
521.166	10.87
521.365	10.8
521.564	10.8
521.762	10.88
521.961	10.83
522.16	11.07
522.359	11.34
522.558	11.72
522.757	11.79
522.956	11.76
523.154	11.91
523.353	12.03
523.552	12.12
523.751	12.22
523.949	12.28
524.148	12.53
524.347	12.48
524.546	12.45
524.744	12.41
524.943	12.52
525.142	12.64
525.34	12.73
525.539	12.77
525.737	12.88
525.936	12.9
526.135	12.95
526.333	12.88
526.532	12.93
526.73	12.93
526.929	12.99
527.127	13.01
527.326	13.09
527.524	13.19
527.723	13.34
527.921	13.36
528.12	13.52
528.318	13.53
528.516	13.62
528.715	13.69
528.913	13.77
529.112	13.82
529.31	13.85
529.508	13.94
529.707	13.93
529.905	13.94
530.103	14.02
530.301	13.89
530.5	13.99
530.698	14.09
530.896	14.11
531.094	14.19
531.293	14.23
531.491	14.25
531.689	14.24
531.887	14.39
532.085	14.55
532.283	14.56
532.481	14.8
532.68	14.87
532.878	14.95
533.076	15.06
533.274	15.1
533.472	15.11
533.67	15.15
533.868	15.26
534.066	15.3
534.264	15.23
534.462	15.35
534.66	15.36
534.858	15.29
535.056	15.33
535.253	15.43
535.451	15.6
535.649	15.8
535.847	16.15
536.045	16.27
536.243	16.64
536.441	16.96
536.638	17.09
536.836	17.42
537.034	17.9
537.232	18.11
537.43	18.4
537.627	18.69
537.825	19.12
538.023	19.63
538.22	20.2
538.418	20.65
538.616	21.29
538.813	22.26
539.011	23.1
539.209	23.99
539.406	25.16
539.604	26.32
539.801	27.4
539.999	28.43
540.196	29.26
540.394	29.97
540.591	30.62
540.789	31.16
540.986	31.56
541.184	32.01
541.381	32.32
541.579	32.6
541.776	32.79
541.974	33.01
542.171	33.17
542.368	33.4
542.566	33.72
542.763	34.01
542.96	34.4
543.158	34.78
543.355	35.31
543.552	36.13
543.75	37.03
543.947	38.33
544.144	39.92
544.341	41.74
544.539	43.78
544.736	45.91
544.933	48.13
545.13	50.55
545.327	52.82
545.524	54.5
545.722	55.71
545.919	56.47
546.116	56.58
546.313	56.1
546.51	55.15
546.707	53.96
546.904	52.5
547.101	50.95
547.298	48.82
547.495	46.93
547.692	45.21
547.889	43.57
548.086	42.14
548.283	40.95
548.48	39.87
548.677	39.06
548.874	38.16
549.07	37.39
549.267	36.76
549.464	36.25
549.661	35.72
549.858	35.29
550.055	34.66
550.251	34.05
550.448	33.26
550.645	32.66
550.842	31.9
551.038	31.28
551.235	30.63
551.432	29.78
551.628	29.15
551.825	28.59
552.022	27.91
552.218	27.32
552.415	26.78
552.612	26.13
552.808	25.57
553.005	25.07
553.201	24.49
553.398	24.12
553.594	23.75
553.791	23.59
553.987	23.14
554.184	22.9
554.38	22.64
554.577	22.43
554.773	22.35
554.97	22.22
555.166	22.11
555.362	22.25
555.559	22.25
555.755	22.13
555.952	22.15
556.148	22.19
556.344	21.91
556.541	22.03
556.737	21.93
556.933	21.65
557.129	21.54
557.326	21.5
557.522	21.2
557.718	20.97
557.914	21.15
558.11	20.68
558.307	20.67
558.503	20.73
558.699	20.59
558.895	20.7
559.091	20.83
559.287	20.69
559.483	20.65
559.679	20.71
559.876	20.69
560.072	20.56
560.268	20.64
560.464	20.48
560.66	20.59
560.856	20.6
561.052	20.61
561.247	20.74
561.443	20.67
561.639	20.84
561.835	20.78
562.031	20.94
562.227	21.08
562.423	21.17
562.619	21.3
562.815	21.25
563.01	21.26
563.206	21.41
563.402	21.39
563.598	21.52
563.793	21.38
563.989	21.44
564.185	21.33
564.381	21.07
564.576	21.13
564.772	21.2
564.968	21.06
565.163	21.03
565.359	20.66
565.555	20.48
565.75	20.6
565.946	20.77
566.141	20.7
566.337	20.74
566.532	20.89
566.728	20.93
566.923	20.95
567.119	20.96
567.314	21.01
567.51	21.27
567.705	21.45
567.901	21.4
568.096	21.33
568.292	21.37
568.487	21.48
568.682	21.65
568.878	21.52
569.073	21.36
569.268	21.55
569.464	21.66
569.659	21.59
569.854	21.62
570.05	21.55
570.245	21.49
570.44	21.55
570.635	21.41
570.831	21.24
571.026	21.5
571.221	21.68
571.416	21.58
571.611	21.51
571.806	21.54
572.002	21.45
572.197	21.63
572.392	21.72
572.587	21.77
572.782	21.82
572.977	21.95
573.172	21.87
573.367	21.91
573.562	21.91
573.757	21.83
573.952	21.81
574.147	21.85
574.342	21.92
574.537	22.05
574.732	22.33
574.927	22.79
575.121	23.25
575.316	23.78
575.511	24.23
575.706	24.76
575.901	25.59
576.096	26.27
576.29	27.31
576.485	28.04
576.68	28.71
576.875	29.19
577.069	29.6
577.264	29.86
577.459	30.3
577.654	31.05
577.848	31.66
578.043	32
578.238	32.61
578.432	32.82
578.627	33.42
578.821	33.81
579.016	34.36
579.21	34.62
579.405	35.26
579.6	35.37
579.794	35.22
579.989	35.09
580.183	34.81
580.378	34.61
580.572	34.42
580.766	34.23
580.961	34.46
581.155	34.39
581.35	34.17
581.544	33.95
581.738	34.18
581.933	34.06
582.127	34.33
582.321	34.99
582.516	35.38
582.71	35.7
582.904	35.95
583.099	35.73
583.293	35.97
583.487	36.61
583.681	36.6
583.875	36.66
584.07	36.71
584.264	36.82
584.458	36.94
584.652	36.94
584.846	37.13
585.04	37.33
585.234	37.59
585.428	37.96
585.623	38.53
585.817	39.15
586.011	39.8
586.205	40.62
586.399	41.41
586.593	41.82
586.787	42.3
586.981	42.74
587.174	42.86
587.368	43.08
587.562	42.59
587.756	41.74
587.95	40.97
588.144	40.04
588.338	39.19
588.532	38.28
588.725	37.23
588.919	36.01
589.113	35.09
589.307	34.35
589.501	33.68
589.694	33.52
589.888	33.25
590.082	33.02
590.275	33.2
590.469	33.41
590.663	33.41
590.856	33.82
591.05	34.81
591.244	35.21
591.437	35.8
591.631	36.52
591.824	37.12
592.018	37.87
592.212	38.74
592.405	39.38
592.599	39.8
592.792	40.37
592.986	40.66
593.179	40.3
593.372	40.28
593.566	39.64
593.759	39.13
593.953	38.4
594.146	37.82
594.339	37.06
594.533	36
594.726	35.03
594.92	34.25
595.113	33.12
595.306	32.53
595.499	31.93
595.693	31.62
595.886	31.01
596.079	30.64
596.272	30.21
596.466	30.17
596.659	30.01
596.852	29.92
597.045	29.84
597.238	30.28
597.431	30.37
597.624	30.56
597.818	30.99
598.011	31.45
598.204	31.92
598.397	32.48
598.59	32.88
598.783	33.55
598.976	34.3
599.169	34.79
599.362	35.12
599.555	35.52
599.748	35.63
599.941	35.49
600.134	35.33
600.326	35.14
600.519	34.97
600.712	34.62
600.905	33.88
601.098	33.19
601.291	32.52
601.483	32.11
601.676	31.75
601.869	31.16
602.062	30.83
602.255	30.38
602.447	29.98
602.64	29.46
602.833	29.09
603.025	28.99
603.218	29.03
603.411	28.89
603.603	28.51
603.796	28.22
603.989	28.19
604.181	28.09
604.374	28.34
604.566	28.45
604.759	28.54
604.951	28.62
605.144	28.74
605.336	28.69
605.529	29
605.721	29.41
605.914	29.91
606.106	30.42
606.299	31.21
606.491	31.74
606.683	32.58
606.876	33.48
607.068	34.72
607.26	35.95
607.453	37.5
607.645	38.92
607.837	40.54
608.03	42.66
608.222	44.96
608.414	47.28
608.606	50.42
608.799	54.47
608.991	59.28
609.183	64.8
609.375	71.55
609.567	79.09
609.759	87.34
609.952	96.41
610.144	105.95
610.336	115.93
610.528	126.17
610.72	135.66
610.912	145.11
611.104	153.25
611.296	160.23
611.488	165.11
611.68	168.33
611.872	170.28
612.064	169.36
612.256	166.88
612.448	163.34
612.64	158.62
612.832	152.81
613.023	145.54
613.215	137.97
613.407	130.74
613.599	124.53
613.791	118.52
613.983	112.4
614.174	107.54
614.366	102.58
614.558	98.01
614.75	93.3
614.941	89.33
615.133	85.37
615.325	82.29
615.516	79.07
615.708	75.72
615.9	72.43
616.091	68.96
616.283	65.7
616.475	62.53
616.666	59.4
616.858	56.61
617.049	54.11
617.241	51.69
617.432	49.56
617.624	47.57
617.815	45.86
618.007	44.33
618.198	43.24
618.39	41.89
618.581	40.8
618.773	40.29
618.964	39.87
619.155	39.31
619.347	39.45
619.538	39.13
619.729	39.44
619.921	39.43
620.112	39.57
620.303	39.54
620.494	40.07
620.686	40.49
620.877	40.22
621.068	40.35
621.259	40.63
621.451	40.74
621.642	40.9
621.833	41.04
622.024	41.21
622.215	41.18
622.406	41.45
622.597	41.32
622.788	41.5
622.98	41.86
623.171	41.99
623.362	42.05
623.553	42.41
623.744	42.83
623.935	42.58
624.126	42.78
624.317	42.81
624.508	42.97
624.698	43.05
624.889	42.82
625.08	42.77
625.271	42.51
625.462	42.29
625.653	41.76
625.844	41.4
626.034	41.31
626.225	41
626.416	40.72
626.607	40.5
626.798	40.18
626.988	40.06
627.179	40
627.37	40.24
627.56	40.15
627.751	40.54
627.942	40.69
628.132	40.96
628.323	41.23
628.514	42.11
628.704	42.7
628.895	43.83
629.085	44.64
629.276	45.41
629.466	46.37
629.657	47.51
629.847	48.57
630.038	49.8
630.228	50.6
630.419	51.56
630.609	51.52
630.8	51.71
630.99	51.71
631.181	51.54
631.371	51.24
631.561	49.74
631.752	48.42
631.942	46.68
632.132	45.05
632.323	43.46
632.513	41.49
632.703	40.06
632.893	38.19
633.084	36.64
633.274	35.28
633.464	33.69
633.654	32.81
633.844	32.08
634.034	31.2
634.225	30.74
634.415	30.26
634.605	29.97
634.795	29.75
634.985	29.96
635.175	29.68
635.365	29.22
635.555	29.04
635.745	29.06
635.935	28.97
636.125	28.81
636.315	28.59
636.505	28.55
636.695	28.43
636.885	28.11
637.075	27.61
637.265	27.43
637.455	27.75
637.644	27.79
637.834	27.86
638.024	28.02
638.214	28.19
638.404	28.02
638.593	27.69
638.783	27.89
638.973	28.19
639.163	28.32
639.352	28.68
639.542	28.78
639.732	28.74
639.921	28.96
640.111	28.87
640.301	29.07
640.49	29.17
640.68	29.58
640.87	29.57
641.059	30.12
641.249	30.46
641.438	30.14
641.628	30.13
641.817	30.36
642.007	29.87
642.196	29.99
642.386	29.84
642.575	30.04
642.764	30.06
642.954	30.02
643.143	29.24
643.333	29.13
643.522	28.98
643.711	28.82
643.901	28.57
644.09	28.87
644.279	28.76
644.469	29.03
644.658	28.83
644.847	28.81
645.036	28.23
645.226	28.52
645.415	28.33
645.604	28.39
645.793	28.44
645.982	28.57
646.171	28.26
646.361	27.88
646.55	28
646.739	28.12
646.928	28.04
647.117	28.2
647.306	27.9
647.495	27.96
647.684	27.99
647.873	28.21
648.062	28.3
648.251	28.84
648.44	29.51
648.629	29.76
648.818	30.02
649.007	30.05
649.196	30.43
649.384	31.08
649.573	31.72
649.762	32.65
649.951	32.76
650.14	32.83
650.328	33.34
650.517	33.47
650.706	33.46
650.895	33.29
651.083	33.08
651.272	33.22
651.461	33.13
651.65	32.89
651.838	32.18
652.027	32.09
652.216	31.72
652.404	31.03
652.593	30.94
652.781	30.87
652.97	30.73
653.158	30.38
653.347	29.95
653.535	29.84
653.724	29.28
653.912	28.84
654.101	28.39
654.289	28.68
654.478	28.97
654.666	28.64
654.855	28.12
655.043	28.37
655.231	28.74
655.42	29.36
655.608	28.98
655.796	28.94
655.985	29.28
656.173	29.47
656.361	29.45
656.55	29.22
656.738	28.85
656.926	28.89
657.114	28.75
657.302	28.85
657.491	28.37
657.679	28.64
657.867	28.95
658.055	28.8
658.243	28.72
658.431	28.26
658.619	28.39
658.807	28.48
658.996	28.18
659.184	28.09
659.372	28.04
659.56	27.83
659.748	27.46
659.936	27.25
660.124	27.16
660.311	27.4
660.499	28.24
660.687	28.09
660.875	28.4
661.063	29.03
661.251	28.88
661.439	28.96
661.627	29.3
661.814	30
662.002	30
662.19	30.55
662.378	30.86
662.565	30.34
662.753	30.55
662.941	30.36
663.129	30.09
663.316	30.05
663.504	29.94
663.692	29.97
663.879	29.7
664.067	29.72
664.254	29.57
664.442	28.99
664.63	28.88
664.817	28.66
665.005	28.59
665.192	28.27
665.38	29.06
665.567	29.12
665.755	28.8
665.942	28.94
666.13	29.17
666.317	28.8
666.504	28.9
666.692	29.08
666.879	29.26
667.067	29.05
667.254	29.33
667.441	28.41
667.629	28.81
667.816	28.79
668.003	28.72
668.19	28.39
668.378	28.53
668.565	28.53
668.752	28.58
668.939	28.5
669.127	28.51
669.314	28.48
669.501	28.71
669.688	28.11
669.875	28.18
670.062	28.06
670.249	28.42
670.436	28.34
670.623	27.78
670.81	27.64
670.997	27.47
671.184	27.5
671.371	27.52
671.558	27.28
671.745	27.68
671.932	27.56
672.119	27.7
672.306	27.82
672.493	27.7
672.68	27.65
672.867	27.59
673.054	27.4
673.24	27.06
673.427	26.88
673.614	26.7
673.801	26.34
673.988	26.39
674.174	25.86
674.361	25.58
674.548	25.91
674.734	26.37
674.921	26.08
675.108	26.14
675.294	26.76
675.481	26.8
675.668	27.19
675.854	27.21
676.041	27.26
676.227	27.56
676.414	27.11
676.601	26.46
676.787	26.57
676.974	26.82
677.16	27.24
677.347	27.16
677.533	26.7
677.719	26.89
677.906	27.4
678.092	27.08
678.279	26.8
678.465	27.14
678.651	27.77
678.838	27.86
679.024	27.97
679.21	27.56
679.397	27.32
679.583	27.55
679.769	27.33
679.955	27.32
680.142	27.81
680.328	27.83
680.514	27.49
680.7	27.5
680.886	27.07
681.073	27.35
681.259	27.44
681.445	27.4
681.631	27.62
681.817	27.87
682.003	27.29
682.189	27.24
682.375	27.5
682.561	28.11
682.747	28.11
682.933	28.12
683.119	27.4
683.305	27.18
683.491	27.46
683.677	27.55
683.863	27.46
684.049	28.17
684.235	28
684.42	28.08
684.606	27.6
684.792	27.68
684.978	28.16
685.164	28.56
685.349	29.46
685.535	29.47
685.721	29.34
685.907	29.57
686.092	29.16
686.278	29.74
686.464	30.07
686.649	30.69
686.835	30.78
687.021	30.85
687.206	30.87
687.392	30.06
687.577	30.33
687.763	30.39
687.948	30.2
688.134	30.29
688.319	29.75
688.505	29.22
688.69	29.13
688.876	28.88
689.061	29.01
689.247	29.16
689.432	29.82
689.618	29.88
689.803	29.61
689.988	29.86
690.174	29.68
690.359	29.99
690.544	29.94
690.73	29.84
690.915	29.85
691.1	29.33
691.285	29.34
691.471	28.98
691.656	28.98
691.841	29.52
692.026	29.25
692.211	29.15
692.396	28.65
692.582	28.85
692.767	28.75
692.952	29.35
693.137	30.15
693.322	30.13
693.507	30.29
693.692	30.05
693.877	29.53
694.062	29.34
694.247	29.63
694.432	29.65
694.617	29.85
694.802	29.7
694.987	28.51
695.172	28.07
695.357	27.99
695.541	27.26
695.726	26.96
695.911	27.11
696.096	27.7
696.281	27.21
696.466	27.2
696.65	26.98
696.835	27.53
697.02	27.79
697.204	27.42
697.389	27.13
697.574	27.38
697.759	27.11
697.943	26.55
698.128	25.93
698.312	26.32
698.497	26.29
698.682	26.08
698.866	25.86
699.051	25.44
699.235	25.53
699.42	25.78
699.604	25.46
699.789	25.68
699.973	26.17
700.158	26.04
700.342	25.99
700.527	26.24
700.711	26.21
700.895	26.2
701.08	26.38
701.264	26.45
701.448	26.32
701.633	26.99
701.817	27.35
702.001	27.9
702.186	28.27
702.37	28.12
702.554	29.07
702.738	29.38
702.923	29.26
703.107	30.05
703.291	30.3
703.475	31.28
703.659	31.21
703.843	31.1
704.027	31.09
704.212	31.61
704.396	32.88
704.58	32.51
704.764	33.37
704.948	34.62
705.132	35.5
705.316	36.29
705.5	36.46
705.684	36.89
705.868	38.22
706.052	38.93
706.235	39.85
706.419	40.35
706.603	40.99
706.787	41.48
706.971	41.04
707.155	41.12
707.339	41.2
707.522	41.93
707.706	42.7
707.89	42.63
708.074	42.34
708.257	42.56
708.441	41.87
708.625	41.7
708.808	41.36
708.992	40.95
709.176	40.29
709.359	39.66
709.543	38.68
709.727	37.73
709.91	36.82
710.094	36.28
710.277	35.54
710.461	35.64
710.644	35.32
710.828	34.78
711.011	35.76
711.195	36.59
711.378	37.19
711.562	36.63
711.745	37.15
711.928	37.24
712.112	38.35
712.295	38.33
712.478	38.14
712.662	37.8
712.845	37.54
713.028	36.39
713.212	34.63
713.395	33.54
713.578	33.04
713.761	31.81
713.945	31.14
714.128	29.74
714.311	29.22
714.494	28.69
714.677	28.35
714.86	27.97
715.043	27.7
715.227	27.79
715.41	28.06
715.593	28.09
715.776	28.42
715.959	27.96
716.142	27.61
716.325	27.51
716.508	27.12
716.691	27
716.874	26.74
717.057	26.35
717.239	26.5
717.422	25.58
717.605	25.45
717.788	25.06
717.971	24.91
718.154	24.47
718.337	23.59
718.519	23.96
718.702	23.59
718.885	24.2
719.068	24.19
719.25	23.69
719.433	24.17
719.616	24.83
719.798	25.07
719.981	26.14
720.164	26.6
720.346	27.18
720.529	26.99
720.712	26.48
720.894	26.4
721.077	26.49
721.259	26.97
721.442	26.53
721.624	26.03
721.807	26.27
721.989	25.31
722.172	24.56
722.354	24.77
722.537	24.83
722.719	25.68
722.901	26.05
723.084	26.13
723.266	25.88
723.448	27.28
723.631	27.38
723.813	27.09
723.995	27.92
724.178	28.44
724.36	28.2
724.542	28.13
724.724	28.66
724.907	28.09
725.089	28.15
725.271	27.45
725.453	26.54
725.635	27.25
725.817	27.07
725.999	26.58
726.181	27.14
726.364	27.16
726.546	26.93
726.728	25.73
726.91	25.53
727.092	25.23
727.274	25.7
727.456	26.03
727.638	26.03
727.819	26.6
728.001	26.4
728.183	26.54
728.365	25.55
728.547	25.76
728.729	26.36
728.911	26.82
729.093	27.1
729.274	27.88
729.456	27.93
729.638	27.31
729.82	26.76
730.001	26.89
730.183	26.58
730.365	27.83
730.546	28.59
730.728	27.91
730.91	27.84
731.091	28
731.273	27.57
731.455	27
731.636	26.25
731.818	25.96
731.999	25.78
732.181	26.52
732.362	26.41
732.544	25.94
732.725	26.66
732.907	26.42
733.088	26.91
733.27	27.18
733.451	26.05
733.633	27.4
733.814	28.33
733.995	29.2
734.177	28.34
734.358	28.41
734.539	27.3
734.721	27.65
734.902	28.2
735.083	27.48
735.264	27.9
735.446	29.36
735.627	28.53
735.808	27.51
735.989	26.6
736.17	26.95
736.351	26.21
736.533	26.76
736.714	26.16
736.895	26.09
737.076	25.9
737.257	24.81
737.438	24.64
737.619	24.43
737.8	25.33
737.981	27.01
738.162	26.99
738.343	28.14
738.524	28.14
738.705	27.46
738.886	27.07
739.067	27.11
739.247	27.86
739.428	28.6
739.609	28.7
739.79	28.56
739.971	27.73
740.151	27.86
740.332	27.16
740.513	28.18
740.694	28.76
740.874	28.02
741.055	27.15
741.236	26.46
741.417	26.31
741.597	26.96
741.778	26.79
741.958	25.85
742.139	25.63
742.32	25
742.5	25.88
742.681	24.92
742.861	25.66
743.042	27.69
743.222	28.59
743.403	27.92
743.583	27.35
743.764	27.27
743.944	27.53
744.124	27.47
744.305	29.13
744.485	28.1
744.666	28.1
744.846	27.36
745.026	26.82
745.207	26.04
745.387	26.6
745.567	26.3
745.747	26.49
745.928	27.16
746.108	26.63
746.288	25.63
746.468	24.48
746.648	25.54
746.829	26.42
747.009	26.59
747.189	27.5
747.369	27.45
747.549	28.3
747.729	28.69
747.909	28.33
748.089	28.92
748.269	30.15
748.449	30.36
748.629	30.66
748.809	31.49
748.989	30.52
749.169	30.04
749.349	29.76
749.529	30.21
749.709	30.25
749.889	30.32
750.068	29.32
750.248	29.02
750.428	28.54
750.608	28.08
750.788	27.37
750.967	27.85
751.147	27.12
751.327	26.15
751.507	25.53
751.686	25.06
751.866	24.16
752.046	24.14
752.225	24.3
752.405	24.82
752.585	25.9
752.764	25.55
752.944	25.89
753.123	24.57
753.303	25.86
753.482	25.08
753.662	25.63
753.841	27.26
754.021	27.9
754.2	28.63
754.38	28.3
754.559	27.65
754.739	27.51
754.918	27.05
755.097	28.74
755.277	27.23
755.456	28.27
755.635	27.4
755.815	27.25
755.994	27.28
756.173	25.16
756.352	25.57
756.532	26.09
756.711	26.32
756.89	26.88
757.069	27.76
757.248	29.28
757.427	28.79
757.607	28.26
757.786	26.99
757.965	26.48
758.144	27
758.323	26.97
758.502	26.17
758.681	26.48
758.86	26.48
759.039	25.84
759.218	25.66
759.397	26.08
759.576	26.09
759.755	26.34
759.934	27.5
760.113	27.69
760.291	28.24
760.47	27.95
760.649	27.92
760.828	27.29
761.007	27.27
761.186	27.6
761.364	27.34
761.543	27.51
761.722	27.43
761.901	26.78
762.079	27.13
762.258	27.04
762.437	27.24
762.615	26.6
762.794	28.25
762.972	28.4
763.151	27.84
763.33	28.05
763.508	28.9
763.687	29.32
763.865	29.75
764.044	29.79
764.222	29.22
764.401	29.17
764.579	29.15
764.758	28.15
764.936	27.68
765.114	27.53
765.293	27.56
765.471	27.37
765.65	26.81
765.828	26.14
766.006	25.47
766.184	24.92
766.363	25.12
766.541	25.96
766.719	25.28
766.898	25.2
767.076	26.11
767.254	24.74
767.432	24.19
767.61	24.58
767.788	24.44
767.967	23.51
768.145	24.57
768.323	25.31
768.501	25.07
768.679	25.77
768.857	25.65
769.035	25.91
769.213	27.4
769.391	25.64
769.569	26.22
769.747	26.19
769.925	27.61
770.103	27.26
770.281	25.42
770.459	25.27
770.636	24.53
770.814	25.45
770.992	24.22
771.17	25.32
771.348	28.12
771.525	29
771.703	30.5
771.881	30.13
772.059	29.86
772.236	31.33
772.414	31.58
772.592	30.71
772.769	29.86
772.947	30.31
773.125	28.24
773.302	27.71
773.48	24.88
773.657	22.69
773.835	22.89
774.013	23.87
774.19	23.61
774.368	22.61
774.545	25.2
774.723	27.45
774.9	27.3
775.077	28.52
775.255	29.62
775.432	29.46
775.61	31.17
775.787	30.15
775.964	30.33
776.142	29.75
776.319	30.58
776.496	28.94
776.674	26.09
776.851	26.88
777.028	25.83
777.205	23.66
777.382	26.57
777.56	25.44
777.737	27.02
777.914	27.04
778.091	27.45
778.268	25.31
778.445	25.54
778.622	27.36
778.8	26.59
778.977	27.83
779.154	46.12
779.331	45.22
779.508	44.74
779.685	43.1
779.862	42.91
780.038	44.28
780.215	43.89
780.392	44.72
780.569	43.76
780.746	45.1
780.923	42.16
781.1	21.39
781.277	22.84
781.453	24.64
781.63	25.13
781.807	24.86
781.984	22.04
782.16	23.87
782.337	23.42
782.514	21.15
782.691	20.05
782.867	22.59
783.044	25.11
783.221	24.85
783.397	23.1
783.574	24.49
783.75	22.94
783.927	23.38
784.103	25.02
784.28	25.56
784.456	27.97
784.633	30.29
784.809	30.18
784.986	29.65
785.162	28.34
785.339	27.57
785.515	25.66
785.692	25.83
785.868	25.09
786.044	23.9
786.221	22.75
786.397	23.56
786.573	21.07
786.749	21.75
786.926	19.82
787.102	17.95
787.278	20.28
787.454	21.25
787.631	21.52
787.807	25.63
787.983	27.25
788.159	28.11
788.335	25.74
788.511	29
788.687	27.52
788.863	29.06
789.039	31.18
789.216	30.07
789.392	29.2
789.568	27.23
789.744	24.88
789.919	23.66
790.095	22.66
790.271	24.75
790.447	21.25
790.623	21.28
790.799	22.21
790.975	22.06
791.151	20.71
791.327	21.6
791.502	24.65
791.678	24.61
791.854	24.38
792.03	25.55
792.205	25
792.381	23.73
792.557	25.86
792.733	25.33
792.908	25.25
793.084	25.84
793.259	27.44
793.435	25
793.611	25.54
793.786	24.97
793.962	24.95
794.137	25.04
794.313	23.77
794.488	22.25
794.664	21.77
794.839	21.09
795.015	22.52
795.19	23.13
795.366	23.59
795.541	24.62
795.716	23.7
795.892	22.56
796.067	21.81
796.242	23.89
796.418	26.29
796.593	25.61
796.768	25.24
796.944	25.18
797.119	24.04
797.294	26.43
797.469	26.23
797.644	28.12
797.82	28.56
797.995	30.34
798.17	30.67
798.345	27.5
798.52	28.05
798.695	27.83
798.87	27.76
799.045	27.78
799.22	27.68
799.395	25.04
799.57	24.23
799.745	24.8
799.92	24.25
800.095	22.05
800.27	22.27
800.445	23.52
800.62	21.39
800.795	19.13
800.97	19.82
801.145	19.48
801.319	21.34
801.494	21.6
801.669	18.17
801.844	18.09
802.018	18.73
802.193	20.66
802.368	21.8
802.543	24.73
802.717	26.46
802.892	23.99
803.067	22.59
803.241	23.71
803.416	23.69
803.59	25.35
803.765	25.27
803.94	27.53
804.114	26.12
804.289	22.22
804.463	21.5
804.638	20.1
804.812	19.72
804.986	19.03
805.161	20.3
805.335	21.04
805.51	21.06
805.684	19.28
805.858	18.63
806.033	20.07
806.207	21.67
806.381	22.67
806.556	24.84
806.73	25.27
806.904	27.46
807.078	24.87
807.253	24.43
807.427	22.55
807.601	24.82
807.775	23.63
807.949	24.74
808.123	23.76
808.298	22.69
808.472	24.12
808.646	26.66
808.82	27.03
808.994	26.57
809.168	22.74
809.342	24.56
809.516	21.09
809.69	20.26
809.864	21.91
810.038	18.34
810.212	21.71
810.385	17.02
810.559	15.33
810.733	11.81
810.907	11.81
811.081	16.62
811.255	15.75
811.428	18.07
811.602	19.61
811.776	15.76
811.95	18.95
812.123	18.95
812.297	22.26
812.471	22.39
812.644	21.15
812.818	22.79
812.992	20.61
813.165	24.63
813.339	29.39
813.512	31.61
813.686	33.39
813.86	31.82
814.033	29.64
814.207	30.46
814.38	30.71
814.554	35.03
814.727	30.26
814.9	30.83
815.074	30.6
815.247	25.15
815.421	22.36
815.594	20.76
815.767	22.08
815.941	20.21
816.114	18.06
816.287	16.69
816.46	17.14
816.634	23.39
816.807	23.8
816.98	24.8
817.153	27.74
817.327	28.22
817.5	32.62
817.673	34.79
817.846	35.46
818.019	37.39
818.192	38.84
818.365	35.28
818.538	32.76
818.711	33.78
818.884	32.07
819.057	29.17
819.23	28.05
819.403	24.83
819.576	24.76
819.749	26.57
819.922	23.87
820.095	22.71
820.268	24.68
820.441	25.17
820.614	23.87
820.786	23.42
820.959	25.48
821.132	26.54
821.305	25.35
821.477	26
821.65	24.86
821.823	25.07
821.996	25.4
822.168	24.98
822.341	25.95
822.514	26.47
822.686	26.2
822.859	25.2
823.031	25.33
823.204	26.03
823.376	25.54
823.549	25.94
823.722	26.09
823.894	26.12
824.067	25.85
824.239	24.54
824.411	24.16
824.584	24.56
824.756	25.52
824.929	25.74
825.101	25.3
825.273	25.04
825.446	25.22
825.618	25.47
825.79	26.06
825.963	25.98
826.135	27.14
826.307	27.95
826.479	28.17
826.652	28.04
826.824	27.61
826.996	27.92
827.168	28.28
827.34	27.59
827.512	28.32
827.684	27.63
827.856	28.64
828.029	28.14
828.201	27.53
828.373	26.03
828.545	25.93
828.717	26.99
828.889	27.82
829.061	28.71
829.232	28.63
829.404	27.5
829.576	26.21
829.748	26.26
829.92	25.6
830.092	26.18
830.264	28.64
830.436	28.2
830.607	26.79
830.779	25.02
830.951	23.53
831.123	23.79
831.294	25.21
831.466	27.63
831.638	26.15
831.809	28.69
831.981	27.11
832.153	26.43
832.324	29.52
832.496	30.47
832.667	28.74
832.839	29.24
833.011	32.04
833.182	30.29
833.354	30.23
833.525	31.03
833.697	30.77
833.868	28.01
834.039	27.8
834.211	26.48
834.382	25.45
834.554	27.26
834.725	27.41
834.896	25.62
835.068	26.38
835.239	24.65
835.41	22.77
835.581	21.65
835.753	22.98
835.924	23.5
836.095	23.22
836.266	24.7
836.438	25.89
836.609	25.58
836.78	25.14
836.951	22.16
837.122	20.74
837.293	23.98
837.464	25.91
837.635	30.3
837.806	29.32
837.977	24.82
838.148	24.13
838.319	22.07
838.49	20.32
838.661	22.13
838.832	25.25
839.003	30.41
839.174	24.78
839.345	23.05
839.516	18.22
839.687	14.46
839.857	14.93
840.028	8.32
840.199	11.03
840.37	11.19
840.54	7.73
840.711	9.76
840.882	8.02
841.053	12.5
841.223	9.07
841.394	10.52
841.564	16.44
841.735	20.85
841.906	22.37
842.076	17.69
842.247	19.22
842.417	19.29
842.588	14.83
842.758	18.32
842.929	14.65
843.099	19.25
843.27	17.8
843.44	9.46
843.611	10.56
843.781	9.88
843.951	13.26
844.122	14.54
844.292	21.11
844.462	23.29
844.633	17.93
844.803	20.02
844.973	19.14
845.144	19.75
845.314	26.44
845.484	24.09
845.654	24.52
845.824	21.67
845.995	26.04
846.165	20.64
846.335	27.41
846.505	31.34
846.675	36.56
846.845	32.62
847.015	31.37
847.185	35.96
847.355	34.59
847.525	41.94
847.695	41.56
847.865	36
848.035	33.84
848.205	26.16
848.375	18.94
848.545	4.65
848.715	15.82
848.884	16.53
849.054	0.98
849.224	-5.94
849.394	-1.22
849.564	-1.41
849.733	-20.62
849.903	-16.27
850.073	-30.64
850.243	-13.53
850.412	-4.9
850.582	-16.09
850.752	-40.38
850.921	-22.69
851.091	-15.46
851.26	-26.19
851.43	-51.9
851.599	-26.46
851.769	-39.04
851.939	-28.17
852.108	-49.81
852.278	-28.17
852.447	-44.28
852.616	-9.38
852.786	-8.43
852.955	-0.64
853.125	-2.62
853.294	9.57
853.463	13.37
853.633	15.25
853.802	17.02
853.971	17.59
854.141	8.36
854.31	20.23
854.479	11.59
854.648	18.43
854.818	19.51
854.987	15.19
855.156	13.35
855.325	8.99
855.494	9.04
855.663	19.1
855.832	13.89
856.001	13.5
856.171	21.77
856.34	19.93
856.509	6.08
856.678	-4.41
856.847	-7.14
857.016	14.41
857.185	30.86
857.353	34.31
857.522	8.96
857.691	22.38
857.86	24.03
858.029	16.27
858.198	13.92
858.367	17.27
858.535	6.34
858.704	25
858.873	-3
859.042	-38.77
859.21	-58
859.379	-60.71
859.548	-55.5
859.717	-40.17
859.885	-21.69
860.054	2.74
860.222	13.85
860.391	36.6
860.56	16.97
860.728	14.89
860.897	28.21
861.065	27.74
861.234	42.03
861.402	38.73
861.571	37.01
861.739	24.5
861.908	7.57
862.076	-25.42
862.244	-8.11
862.413	-9
862.581	-16.98
862.749	-15.49
862.918	-24.41
863.086	-35.3
863.254	-47.51
863.423	-90.95
863.591	-66.27
863.759	-95.64
863.927	-39.1
864.096	-61.86
864.264	-103.18
864.432	-72.4
864.6	-86.7
864.768	-60.44
864.936	-50.54
865.104	-46.89
865.272	-44.9
865.44	-56.08
865.608	-36.27
865.776	-53.9
865.944	-45.53
866.112	-25.76
866.28	5.89
866.448	7.65
866.616	15.4
866.784	19.9
866.952	23.16
867.12	23.04
867.288	36.37
867.455	29.69
867.623	25.05
867.791	49.62
867.959	43.99
868.127	-13.45
868.294	-31.27
868.462	-22.1
868.63	-25.89
868.797	-29.68
868.965	-26.79
869.133	-25.1
869.3	-10.05
869.468	1.15
869.636	-32.08
869.803	-18.33
869.971	-4.96
870.138	10.66
870.306	15.83
870.473	22.19
870.641	29.23
870.808	46.07
870.975	51.94
871.143	36.39
871.31	19.35
871.478	25.08
871.645	4.46
871.812	2.88
871.98	-9.81
872.147	-19.93
872.314	-18.89
872.482	-27.91
872.649	-53.56
872.816	-27.36
872.983	-23.12
873.15	-4.86
873.318	-2.73
873.485	6.2
873.652	4.98
873.819	13.06
873.986	10.96
874.153	14.61
874.32	25.04
874.487	27.69
874.654	28.12
874.821	24.54
874.988	29.48
875.155	41.57
875.322	39.05
875.489	31.53
875.656	37.03
875.823	39.95
875.99	39.73
876.157	34.39
876.324	37.99
876.49	20.05
876.657	20.48
876.824	0.22
876.991	-11.2
877.157	-8.89
877.324	6.26
877.491	1.96
877.658	7.08
877.824	8.15
877.991	4.17
878.157	-8.66
878.324	5.38
878.491	4.3
878.657	26.47
878.824	36.72
878.99	48.02
879.157	15.49
879.323	15.79
879.49	15.42
879.656	17.41
879.823	21.9
879.989	27.92
880.156	20.46
880.322	20.31
880.488	20.21
880.655	20.35
880.821	17.77
880.987	24.32
881.154	26.52
881.32	29.81
881.486	24.84
881.652	22.97
881.819	21.67
881.985	22.11
882.151	22.43
882.317	22.62
882.483	23.24
882.649	21.21
882.816	19.72
882.982	18.08
883.148	16.15
883.314	17.08
883.48	17.55
883.646	17.99
883.812	17.75
883.978	17.15
884.144	16.63
884.31	14.82
884.476	17
884.642	19.59
884.807	20.49
884.973	19.6
885.139	19.29
885.305	18.07
885.471	18.23
885.637	21.14
885.802	21.07
885.968	21.38
886.134	24.3
886.3	26.12
886.465	23.27
886.631	23.11
886.797	25.35
886.962	27.78
887.128	31.86
887.293	30.46
887.459	32.94
887.625	35.1
887.79	32.82
887.956	31.11
888.121	24.85
888.287	25.61
888.452	26.9
888.618	25.02
888.783	16.74
