Data from CB_019_Reflection_1.txt Node
Date: Wed Nov 11 20:01:49 EST 2015
User: robert
Spectrometer: USB4E03001
Autoset integration time: false
Trigger mode: 4
Integration Time (sec): 1.000000E-1
Scans to average: 15
Electric dark correction enabled: true
Nonlinearity correction enabled: false
Boxcar width: 5
Stray light correction enabled: false
XAxis mode: Wavelengths
Stop averaging: false
Number of Pixels in Spectrum: 3648
>>>>>Begin Spectral Data<<<<<
177.566	-177.15
177.785	-263.57
178.005	755.21
178.225	-252.12
178.445	-275.11
178.665	888.24
178.885	354.28
179.105	2319.57
179.324	264.77
179.544	330.98
179.764	-361.57
179.984	-511.1
180.204	17847.5
180.423	339.74
180.643	-1521.68
180.863	2368.51
181.083	311.97
181.302	361.01
181.522	389.58
181.742	-1456.12
181.961	-379.16
182.181	-4127.05
182.401	2763.31
182.621	-172.74
182.84	-148.94
183.06	-77.22
183.279	-304.8
183.499	-131.71
183.719	-92.89
183.938	-155.41
184.158	-57.59
184.377	-24.2
184.597	-52.45
184.816	-98.7
185.036	-184.02
185.256	-163.76
185.475	-178.92
185.695	-96.13
185.914	-158.47
186.134	-2210.57
186.353	4000.55
186.572	711.46
186.792	604.66
187.011	1038.54
187.231	464.32
187.45	184.06
187.67	126.21
187.889	40.96
188.108	122.46
188.328	181.68
188.547	397.86
188.766	443.86
188.986	1010.33
189.205	609.91
189.424	214.98
189.644	222.57
189.863	161.51
190.082	604.97
190.302	100.93
190.521	150.68
190.74	69.49
190.959	41.99
191.178	43.79
191.398	-26.15
191.617	70.65
191.836	139.55
192.055	-24.4
192.274	31.47
192.494	-126.01
192.713	329.86
192.932	171.04
193.151	-46.49
193.37	-4.31
193.589	22.21
193.808	-114.73
194.027	22.4
194.246	110.23
194.465	-27.23
194.685	-406.21
194.904	651.92
195.123	-380.56
195.342	-50.24
195.561	-197.68
195.78	-2349.51
195.999	-200.26
196.218	-153.29
196.436	-836.77
196.655	1406.27
196.874	817.29
197.093	1236.82
197.312	-399.54
197.531	775.65
197.75	400.66
197.969	472.44
198.188	707.6
198.407	372.54
198.625	364.22
198.844	442.21
199.063	-1515.43
199.282	-764.46
199.501	-615.71
199.719	-780.25
199.938	-670.2
200.157	3745.45
200.376	-211.52
200.594	-625.94
200.813	-129.06
201.032	257.59
201.251	240.11
201.469	135.4
201.688	112.94
201.907	266.62
202.125	160.79
202.344	759.39
202.563	248.61
202.781	423.48
203	290.66
203.218	147.07
203.437	389.09
203.656	630.37
203.874	590.89
204.093	1343.85
204.311	884.83
204.53	337.77
204.748	465.49
204.967	684.33
205.185	10302.86
205.404	-303.87
205.622	-87.39
205.841	-39.16
206.059	-17.47
206.278	-10.78
206.496	-35.48
206.715	-96.98
206.933	26.09
207.151	68.39
207.37	84.11
207.588	104.62
207.806	128.26
208.025	75.7
208.243	24.66
208.461	37.63
208.68	20.57
208.898	597.61
209.116	126.67
209.335	347.28
209.553	160.14
209.771	267.76
209.989	-385.69
210.208	13.87
210.426	27.12
210.644	77.9
210.862	-26.94
211.081	-86.01
211.299	0.49
211.517	-108.38
211.735	-139.67
211.953	72.77
212.171	180.63
212.39	-851.47
212.608	29.22
212.826	48.99
213.044	88.23
213.262	81.98
213.48	34
213.698	19.37
213.916	-80.5
214.134	-150.89
214.352	-147.15
214.57	-37.31
214.788	-278.63
215.006	-479.19
215.224	294.41
215.442	967.92
215.66	595.72
215.878	567.63
216.096	331.6
216.314	498.64
216.532	846.2
216.75	1185.08
216.968	325.74
217.185	163.67
217.403	143.8
217.621	287.83
217.839	73.36
218.057	164.2
218.275	34.47
218.492	-204.44
218.71	90.11
218.928	75.19
219.146	132.42
219.363	922.22
219.581	-431.37
219.799	-112.98
220.017	-254.58
220.234	-205.19
220.452	-253.69
220.67	-676.07
220.887	3956.44
221.105	-517.08
221.323	-95.97
221.54	-71.35
221.758	-240.21
221.976	-78.93
222.193	-37.33
222.411	-25.33
222.629	-34.11
222.846	-48.68
223.064	-2.37
223.281	21.72
223.499	-12.65
223.716	-49.86
223.934	-53.06
224.151	-16.73
224.369	-15.85
224.586	-32.36
224.804	-27.91
225.021	-16.53
225.239	-32.12
225.456	-44.26
225.674	-22.14
225.891	-18.74
226.108	-26.15
226.326	-45.31
226.543	-47.05
226.76	-25.08
226.978	-18.84
227.195	-5.48
227.413	10.9
227.63	15.01
227.847	14.56
228.064	6.97
228.282	6.47
228.499	8.53
228.716	13.47
228.934	14.64
229.151	12.33
229.368	8.67
229.585	5.46
229.802	-0.75
230.02	-3.18
230.237	-3.71
230.454	-3.82
230.671	-11.24
230.888	-11.49
231.105	-9.24
231.323	-13.54
231.54	-13.65
231.757	-11.36
231.974	-8.24
232.191	-9.1
232.408	-11.52
232.625	-6.14
232.842	-9.16
233.059	-2.29
233.276	4.93
233.493	-11.77
233.71	-8.39
233.927	-8.97
234.144	-13.14
234.361	-14.21
234.578	-11.17
234.795	-16.99
235.012	-21.08
235.229	-15.15
235.446	-13.21
235.663	-24.27
235.879	-11.76
236.096	-6.89
236.313	-14.49
236.53	-13.31
236.747	-13.59
236.964	-14.85
237.181	-5.61
237.397	-9.26
237.614	-10.78
237.831	-14.81
238.048	-18.58
238.264	-26.01
238.481	-27.08
238.698	-32.74
238.915	-23.89
239.131	-21.17
239.348	-17.56
239.565	-12.51
239.781	-11.61
239.998	-6.65
240.215	0.1
240.431	2.86
240.648	6.33
240.865	7.46
241.081	10.92
241.298	9.7
241.514	11.41
241.731	12.38
241.947	9.21
242.164	9.95
242.38	9.03
242.597	7.21
242.814	8.26
243.03	9.44
243.246	8.19
243.463	8.24
243.679	7.32
243.896	6.13
244.112	7.53
244.329	8.75
244.545	9.63
244.762	8.86
244.978	11.47
245.194	14.38
245.411	11.54
245.627	10.57
245.843	12.98
246.06	11.4
246.276	12.44
246.492	10.52
246.709	11.49
246.925	11.71
247.141	12.09
247.357	11.27
247.574	10.51
247.79	11.39
248.006	11.59
248.222	10.53
248.439	11.86
248.655	11.18
248.871	12.3
249.087	10.66
249.303	11.14
249.519	10.8
249.736	11.44
249.952	11.37
250.168	9.36
250.384	9.16
250.6	7.57
250.816	7.53
251.032	9.48
251.248	8.61
251.464	10.72
251.68	10.16
251.896	8.88
252.112	9.01
252.328	8.31
252.544	8.47
252.76	8.23
252.976	12.18
253.192	10.92
253.408	7.36
253.624	6.24
253.84	5.4
254.056	3.95
254.272	4.31
254.487	1.36
254.703	0.33
254.919	0.98
255.135	0.67
255.351	-8.76
255.567	-5.87
255.782	-3.1
255.998	-6.46
256.214	-9.16
256.43	-11.28
256.646	-10.23
256.861	-5.6
257.077	-4.26
257.293	-5.78
257.508	-1.19
257.724	3.85
257.94	3.77
258.155	6.65
258.371	6.82
258.587	8.14
258.802	7.45
259.018	6.97
259.234	5.66
259.449	5.82
259.665	6
259.88	5.34
260.096	4.89
260.312	6.18
260.527	5.55
260.743	6.32
260.958	6.24
261.174	7.15
261.389	8.11
261.605	9.66
261.82	9.29
262.036	10.75
262.251	10.15
262.466	11.21
262.682	8.02
262.897	6.62
263.113	7.47
263.328	8.17
263.543	7.15
263.759	6.11
263.974	3.27
264.189	3.71
264.405	2.52
264.62	1.9
264.835	0.7
265.051	1.82
265.266	4.79
265.481	3.97
265.696	2.4
265.912	2.79
266.127	3.02
266.342	2.77
266.557	3.39
266.773	2.01
266.988	3.47
267.203	1.17
267.418	2.63
267.633	2.31
267.848	3.38
268.064	4.85
268.279	5.55
268.494	5.46
268.709	7.58
268.924	7.77
269.139	9.64
269.354	9.66
269.569	11.54
269.784	10.06
269.999	9.88
270.214	9.15
270.429	8.17
270.644	7.71
270.859	7.21
271.074	7.25
271.289	7.19
271.504	8.23
271.719	7.54
271.934	7.5
272.149	7.94
272.363	8.09
272.578	7.43
272.793	7.48
273.008	6.67
273.223	6.48
273.438	4.26
273.653	4.28
273.867	2.64
274.082	3.99
274.297	4.41
274.512	4.32
274.726	4.08
274.941	3.57
275.156	3.89
275.371	4.92
275.585	6.22
275.8	6.31
276.015	6.38
276.229	8.2
276.444	8.04
276.659	8.16
276.873	7.92
277.088	7.8
277.302	7.92
277.517	8.01
277.732	6.98
277.946	6.51
278.161	7.13
278.375	6.29
278.59	5
278.804	3.33
279.019	4.68
279.233	2.66
279.448	2.5
279.662	3.7
279.877	3.92
280.091	5.43
280.306	6.68
280.52	7.66
280.735	7.52
280.949	8.43
281.163	8.57
281.378	8.11
281.592	10.06
281.806	8.97
282.021	9.09
282.235	7.19
282.449	6.04
282.664	6
282.878	6.35
283.092	6.47
283.307	5.35
283.521	5.43
283.735	5.27
283.949	3.92
284.164	5.25
284.378	4.74
284.592	5.61
284.806	5.52
285.02	4.28
285.234	2.77
285.449	2.7
285.663	3.03
285.877	3.37
286.091	3.18
286.305	4.59
286.519	4.46
286.733	5.69
286.947	6.4
287.161	6.6
287.375	7.21
287.589	8.72
287.803	9.4
288.017	9.93
288.231	10.5
288.445	11.03
288.659	9.77
288.873	10.26
289.087	8.7
289.301	8.28
289.515	9.58
289.729	9.58
289.943	9.45
290.157	10.27
290.371	10.93
290.584	11.09
290.798	10.71
291.012	11.26
291.226	10.26
291.44	11.17
291.654	11.61
291.867	11.37
292.081	10.87
292.295	10.65
292.509	9.3
292.722	7.74
292.936	6.8
293.15	7.11
293.364	7.06
293.577	7.61
293.791	7.18
294.005	7.17
294.218	7.86
294.432	8.02
294.645	7.7
294.859	8.92
295.073	10.33
295.286	11.38
295.5	11.63
295.713	12.85
295.927	12.81
296.14	13.09
296.354	13.1
296.568	11.45
296.781	11.56
296.994	11.38
297.208	11.41
297.421	10.28
297.635	9.87
297.848	9.74
298.062	8.18
298.275	8.98
298.489	9.4
298.702	9.07
298.915	9.62
299.129	9.63
299.342	10.34
299.555	9.93
299.769	10.14
299.982	9.73
300.195	9.33
300.409	10.93
300.622	9.25
300.835	8.51
301.048	9.62
301.262	9.92
301.475	10.29
301.688	9.95
301.901	9.48
302.115	9.69
302.328	10.91
302.541	12.24
302.754	12.34
302.967	13.38
303.18	14.67
303.393	13.56
303.607	14.07
303.82	13.5
304.033	14.16
304.246	14.54
304.459	13.59
304.672	12.75
304.885	11.9
305.098	12.3
305.311	11.5
305.524	11.09
305.737	12.26
305.95	12.95
306.163	13.36
306.376	13.06
306.589	12.41
306.802	15.34
307.015	15.54
307.228	17.09
307.44	15.87
307.653	16.58
307.866	15.17
308.079	15.2
308.292	13.64
308.505	12.94
308.718	12.65
308.93	11.82
309.143	9.79
309.356	11.23
309.569	10.29
309.781	10.07
309.994	9.76
310.207	10.39
310.42	10.36
310.632	10.67
310.845	11.68
311.058	12.12
311.27	13.38
311.483	13.2
311.696	12.3
311.908	11.92
312.121	11.54
312.333	10.77
312.546	10.12
312.759	9.41
312.971	8.85
313.184	7.86
313.396	7.25
313.609	7.23
313.821	7.82
314.034	8
314.246	8.15
314.459	9.2
314.671	9.9
314.884	9.7
315.096	9.52
315.309	11.19
315.521	11.77
315.733	11.88
315.946	11.09
316.158	10.07
316.371	9.82
316.583	8.62
316.795	8.17
317.008	10.01
317.22	10.63
317.432	10.97
317.644	9.16
317.857	9.63
318.069	10.31
318.281	10.77
318.494	11.27
318.706	11.84
318.918	11.67
319.13	12.41
319.342	11.28
319.555	11.41
319.767	10.59
319.979	11.37
320.191	10.23
320.403	10.03
320.615	9.16
320.827	8.31
321.039	8.06
321.252	8.53
321.464	7.83
321.676	7.51
321.888	8.09
322.1	8.51
322.312	9.48
322.524	9.84
322.736	9.93
322.948	10.26
323.16	10.73
323.372	11.03
323.584	11.04
323.796	10.95
324.007	12.49
324.219	13.48
324.431	13.4
324.643	13.01
324.855	13.5
325.067	13.45
325.279	14.16
325.491	15.57
325.702	15.64
325.914	16.56
326.126	17.51
326.338	17.47
326.55	17.31
326.761	17.74
326.973	18.61
327.185	18.56
327.396	19
327.608	18.91
327.82	19.31
328.032	18.34
328.243	17.45
328.455	17.67
328.666	17.39
328.878	17.39
329.09	17.83
329.301	17.55
329.513	17.09
329.725	17.85
329.936	17.78
330.148	17.61
330.359	18.46
330.571	19.8
330.782	18.63
330.994	17.62
331.205	16.92
331.417	17.04
331.628	16.81
331.84	17.88
332.051	17.49
332.262	17.93
332.474	17.08
332.685	16.63
332.897	16.22
333.108	16.67
333.319	17.57
333.531	17.9
333.742	18.57
333.953	18.47
334.165	18.79
334.376	18.28
334.587	18.32
334.799	18.65
335.01	20.04
335.221	21.03
335.432	20.86
335.644	20.15
335.855	20.32
336.066	20.21
336.277	19.04
336.488	18.53
336.7	18.76
336.911	19.3
337.122	18.96
337.333	18.83
337.544	18.11
337.755	17.48
337.966	17.74
338.177	16.7
338.388	17.09
338.599	17.94
338.811	17.82
339.022	17.94
339.233	17.66
339.444	18.28
339.655	17.32
339.866	17.03
340.076	18.79
340.287	18.69
340.498	19.99
340.709	18.55
340.92	19.79
341.131	19.68
341.342	19.2
341.553	18.18
341.764	18.37
341.975	17.93
342.185	18.89
342.396	18.27
342.607	18.76
342.818	18.36
343.029	20.02
343.239	19.52
343.45	19.81
343.661	20.26
343.872	20.78
344.082	20.5
344.293	21.55
344.504	20.94
344.714	20.64
344.925	21.47
345.136	21.17
345.346	19.04
345.557	18.83
345.768	18.26
345.978	18.13
346.189	18.64
346.399	17.73
346.61	17.37
346.821	17.19
347.031	17.38
347.242	15.67
347.452	15.22
347.663	16.17
347.873	16.88
348.084	17.17
348.294	16.77
348.504	16.36
348.715	16.98
348.925	16.88
349.136	16.73
349.346	16.62
349.557	16.57
349.767	17.45
349.977	18.13
350.188	17.21
350.398	17.55
350.608	18.48
350.819	18.23
351.029	18.84
351.239	18.8
351.449	18.85
351.66	18.64
351.87	19.57
352.08	19.41
352.29	18.51
352.501	18.03
352.711	17.49
352.921	16.95
353.131	17.29
353.341	16.24
353.552	15.9
353.762	16.54
353.972	17.11
354.182	16.06
354.392	15.06
354.602	14.94
354.812	15.33
355.022	15.88
355.232	16
355.442	16.47
355.652	16.28
355.862	16.01
356.072	16.2
356.282	16.2
356.492	16.5
356.702	16.77
356.912	17.3
357.122	17.21
357.332	17.08
357.542	16.87
357.752	16.19
357.962	17.15
358.171	17.66
358.381	17.22
358.591	16.59
358.801	16.78
359.011	17.61
359.221	17.02
359.43	16.46
359.64	16.07
359.85	16.27
360.06	16.19
360.269	16.14
360.479	15.96
360.689	15.57
360.899	15.91
361.108	15.68
361.318	15.39
361.528	15.77
361.737	16.4
361.947	16.5
362.156	16.33
362.366	16.06
362.576	15.68
362.785	15.73
362.995	16.23
363.204	16.21
363.414	16.46
363.623	16.28
363.833	16.11
364.042	15.87
364.252	15.99
364.461	15.73
364.671	15.95
364.88	16.01
365.09	16.04
365.299	16.13
365.509	16.01
365.718	15.64
365.927	15.52
366.137	15.66
366.346	15.67
366.555	15.25
366.765	15.43
366.974	15.77
367.183	15.76
367.393	15.78
367.602	14.9
367.811	15.08
368.021	15.18
368.23	15.56
368.439	15.69
368.648	15.47
368.857	15.75
369.067	14.99
369.276	15.09
369.485	15.22
369.694	14.94
369.903	14.9
370.112	14.43
370.321	14.24
370.531	14.11
370.74	14.02
370.949	14.51
371.158	14.33
371.367	14.24
371.576	14.07
371.785	13.78
371.994	13.46
372.203	13.76
372.412	14.07
372.621	14.36
372.83	14.06
373.039	13.65
373.248	12.86
373.457	13.16
373.666	13.9
373.874	13.36
374.083	12.99
374.292	12.98
374.501	13.07
374.71	12.85
374.919	12.72
375.128	11.69
375.336	12.14
375.545	12.77
375.754	12.54
375.963	12.22
376.171	12.53
376.38	12.97
376.589	13.17
376.798	12.9
377.006	13.27
377.215	13.12
377.424	13.68
377.632	13.21
377.841	12.99
378.05	12.82
378.258	12.77
378.467	12.87
378.675	12.27
378.884	11.84
379.093	11.67
379.301	11.07
379.51	11.2
379.718	10.92
379.927	11.07
380.135	10.84
380.344	10.94
380.552	10.89
380.761	10.7
380.969	10.99
381.177	11.23
381.386	11.22
381.594	10.93
381.803	10.54
382.011	10.91
382.219	10.96
382.428	10.42
382.636	10.08
382.845	9.99
383.053	9.86
383.261	9.79
383.469	9.79
383.678	9.95
383.886	9.95
384.094	10.11
384.302	9.93
384.511	9.55
384.719	10.16
384.927	10.15
385.135	10.05
385.343	9.61
385.552	9.34
385.76	9
385.968	8.93
386.176	9
386.384	8.91
386.592	8.5
386.8	8.44
387.008	8.18
387.216	7.76
387.424	7.92
387.633	7.85
387.841	8.12
388.049	7.91
388.257	7.95
388.465	8.36
388.672	8.25
388.88	8.77
389.088	8.98
389.296	9.04
389.504	9.57
389.712	9.4
389.92	9.3
390.128	8.86
390.336	9.11
390.544	9.03
390.751	8.63
390.959	8.56
391.167	8.6
391.375	8.32
391.583	8.05
391.79	8.08
391.998	8.08
392.206	8.48
392.414	8.98
392.621	9.16
392.829	9
393.037	8.96
393.244	9.05
393.452	8.42
393.66	8.67
393.867	8.71
394.075	8.74
394.283	8.47
394.49	8.33
394.698	8.03
394.905	7.72
395.113	7.73
395.32	7.6
395.528	7.2
395.735	7.28
395.943	6.82
396.15	6.96
396.358	6.43
396.565	6.68
396.773	6.36
396.98	6.27
397.188	6.39
397.395	6.55
397.602	6.35
397.81	6.82
398.017	6.75
398.225	6.88
398.432	7.04
398.639	7.5
398.847	7.4
399.054	7.55
399.261	7.51
399.468	7.2
399.676	6.89
399.883	7.31
400.09	7.04
400.297	7.26
400.505	7.46
400.712	7.36
400.919	7.16
401.126	7.24
401.333	7.36
401.54	7.07
401.748	7.13
401.955	7.14
402.162	6.86
402.369	6.66
402.576	6.82
402.783	6.57
402.99	6.51
403.197	6.75
403.404	6.69
403.611	6.6
403.818	6.81
404.025	7.07
404.232	6.96
404.439	7.14
404.646	7.36
404.853	7.27
405.06	7.31
405.267	7.34
405.474	7.1
405.681	6.97
405.887	6.86
406.094	7.02
406.301	7.06
406.508	7.11
406.715	7.31
406.922	7.27
407.128	6.96
407.335	6.91
407.542	6.54
407.749	6.29
407.955	6.66
408.162	6.79
408.369	6.47
408.575	6.28
408.782	6.27
408.989	6.26
409.195	6.25
409.402	6.47
409.609	6.45
409.815	6.54
410.022	6.37
410.228	6.17
410.435	5.93
410.642	6.05
410.848	5.8
411.055	5.8
411.261	5.47
411.468	5.72
411.674	5.83
411.881	5.72
412.087	5.44
412.294	5.74
412.5	5.84
412.706	6.04
412.913	5.92
413.119	6.33
413.326	6.28
413.532	6.26
413.738	6.05
413.945	6
414.151	6.22
414.357	6.38
414.564	6.28
414.77	6.06
414.976	6.15
415.182	6.09
415.389	6.19
415.595	6.27
415.801	6.24
416.007	6.23
416.214	6.36
416.42	6.45
416.626	6.6
416.832	6.65
417.038	6.51
417.244	6.42
417.45	6.93
417.657	6.76
417.863	6.59
418.069	6.64
418.275	6.75
418.481	6.62
418.687	6.4
418.893	6.44
419.099	6.57
419.305	6.72
419.511	6.65
419.717	6.45
419.923	6.43
420.129	6.43
420.335	6.42
420.541	6.26
420.746	6.22
420.952	6.22
421.158	6.17
421.364	6.14
421.57	6.16
421.776	6.25
421.982	6.04
422.187	5.94
422.393	6.05
422.599	5.97
422.805	6.02
423.01	6.01
423.216	6.18
423.422	6.19
423.628	6.12
423.833	6.14
424.039	5.97
424.245	6.13
424.45	6.23
424.656	6.33
424.862	6.36
425.067	6.19
425.273	6.2
425.478	6.12
425.684	6.06
425.889	6.02
426.095	5.98
426.301	5.97
426.506	5.83
426.712	5.62
426.917	5.36
427.123	5.57
427.328	5.71
427.533	5.88
427.739	5.79
427.944	5.61
428.15	5.86
428.355	5.52
428.561	5.48
428.766	5.59
428.971	5.87
429.177	5.96
429.382	5.62
429.587	5.66
429.793	5.41
429.998	5.23
430.203	5.3
430.408	4.97
430.614	5.33
430.819	5.46
431.024	5.63
431.229	5.46
431.434	5.47
431.64	5.53
431.845	5.62
432.05	5.69
432.255	6.02
432.46	6.1
432.665	6.23
432.87	6.26
433.076	6.43
433.281	6.25
433.486	6.36
433.691	6.39
433.896	6.37
434.101	6.2
434.306	6.12
434.511	6
434.716	6.04
434.921	5.89
435.126	5.76
435.331	5.65
435.535	5.63
435.74	5.48
435.945	5.4
436.15	5.4
436.355	5.56
436.56	5.65
436.765	5.64
436.97	5.57
437.174	5.63
437.379	5.82
437.584	5.74
437.789	5.88
437.993	5.9
438.198	6.01
438.403	6.05
438.608	5.97
438.812	6.04
439.017	6.06
439.222	6.18
439.426	6.23
439.631	6.35
439.836	6.44
440.04	6.59
440.245	6.73
440.45	6.71
440.654	6.46
440.859	6.32
441.063	6.09
441.268	6.1
441.472	6.12
441.677	6.12
441.881	5.82
442.086	6.06
442.29	5.71
442.495	5.72
442.699	5.7
442.904	5.82
443.108	6.03
443.312	6.32
443.517	6.23
443.721	6.03
443.925	6.05
444.13	5.96
444.334	5.54
444.538	5.76
444.743	5.48
444.947	5.47
445.151	5.58
445.356	5.43
445.56	5.3
445.764	5.42
445.968	5.41
446.173	5.34
446.377	5.49
446.581	5.6
446.785	5.48
446.989	5.53
447.193	5.53
447.398	5.53
447.602	5.68
447.806	5.65
448.01	5.75
448.214	5.85
448.418	5.88
448.622	5.92
448.826	5.92
449.03	5.99
449.234	6.02
449.438	5.97
449.642	6.07
449.846	6.03
450.05	6.02
450.254	5.99
450.458	5.97
450.662	5.95
450.866	5.87
451.069	5.71
451.273	5.69
451.477	5.5
451.681	5.66
451.885	5.42
452.089	5.43
452.292	5.55
452.496	5.3
452.7	5.34
452.904	5.33
453.107	5.18
453.311	5.15
453.515	5.3
453.719	5.62
453.922	5.58
454.126	5.61
454.33	5.59
454.533	5.54
454.737	5.65
454.94	5.56
455.144	5.59
455.348	5.74
455.551	5.81
455.755	5.85
455.958	5.66
456.162	5.48
456.365	5.63
456.569	5.83
456.772	6
456.976	6.11
457.179	6.13
457.383	6.28
457.586	6.41
457.79	6.34
457.993	5.93
458.196	6.01
458.4	6.2
458.603	6.14
458.807	6.07
459.01	5.98
459.213	5.84
459.417	5.91
459.62	5.68
459.823	5.52
460.026	5.58
460.23	5.71
460.433	5.71
460.636	5.59
460.839	5.68
461.042	5.58
461.246	5.61
461.449	5.51
461.652	5.51
461.855	5.77
462.058	5.89
462.261	6.05
462.464	6.09
462.668	6.07
462.871	6.26
463.074	6.25
463.277	6.15
463.48	6.12
463.683	6.42
463.886	6.32
464.089	6.06
464.292	5.85
464.495	5.65
464.698	5.64
464.901	5.67
465.104	5.49
465.306	5.41
465.509	5.61
465.712	5.75
465.915	5.54
466.118	5.54
466.321	5.64
466.524	5.94
466.726	6.15
466.929	6.14
467.132	6.06
467.335	6.02
467.538	5.98
467.74	5.9
467.943	5.67
468.146	5.79
468.348	5.98
468.551	6.06
468.754	5.89
468.956	5.78
469.159	5.71
469.362	5.72
469.564	5.97
469.767	6.02
469.969	5.95
470.172	5.96
470.375	5.82
470.577	5.45
470.78	5.47
470.982	5.56
471.185	5.55
471.387	5.66
471.59	5.77
471.792	5.75
471.995	5.73
472.197	5.8
472.399	6.05
472.602	6.09
472.804	6.52
473.007	6.49
473.209	6.47
473.411	6.47
473.614	6.41
473.816	6.56
474.018	6.24
474.22	6.18
474.423	6.27
474.625	6.12
474.827	6.26
475.03	6.03
475.232	5.81
475.434	5.79
475.636	5.72
475.838	5.89
476.04	5.8
476.243	6.08
476.445	6.24
476.647	6.19
476.849	6.07
477.051	5.72
477.253	5.73
477.455	5.9
477.657	5.97
477.859	5.99
478.061	5.94
478.263	5.69
478.465	5.66
478.667	5.62
478.869	5.51
479.071	5.55
479.273	5.93
479.475	5.71
479.677	5.62
479.879	5.35
480.081	5.37
480.283	5.33
480.485	5.43
480.686	5.46
480.888	5.37
481.09	5.55
481.292	5.58
481.494	5.47
481.695	5.63
481.897	5.7
482.099	5.75
482.301	5.77
482.502	5.72
482.704	5.82
482.906	5.83
483.107	5.88
483.309	5.8
483.511	5.82
483.712	5.82
483.914	5.87
484.115	5.83
484.317	5.87
484.519	5.9
484.72	5.92
484.922	5.9
485.123	5.85
485.325	5.81
485.526	5.81
485.728	5.77
485.929	5.75
486.131	5.69
486.332	5.74
486.534	5.75
486.735	5.69
486.936	5.71
487.138	5.7
487.339	5.67
487.541	5.65
487.742	5.68
487.943	5.7
488.144	5.69
488.346	5.73
488.547	5.68
488.748	5.71
488.95	5.7
489.151	5.66
489.352	5.69
489.553	5.76
489.755	5.85
489.956	5.76
490.157	5.7
490.358	5.7
490.559	5.64
490.76	5.67
490.961	5.59
491.163	5.49
491.364	5.54
491.565	5.47
491.766	5.51
491.967	5.48
492.168	5.6
492.369	5.67
492.57	5.7
492.771	5.6
492.972	5.6
493.173	5.65
493.374	5.79
493.575	5.74
493.776	5.77
493.976	5.73
494.177	5.67
494.378	5.53
494.579	5.47
494.78	5.48
494.981	5.82
495.182	5.95
495.382	5.94
495.583	5.81
495.784	5.79
495.985	5.82
496.185	5.76
496.386	5.82
496.587	6.02
496.788	5.99
496.988	6.02
497.189	5.84
497.39	5.76
497.59	5.71
497.791	5.71
497.992	5.7
498.192	5.6
498.393	5.7
498.593	5.75
498.794	5.64
498.994	5.7
499.195	5.68
499.395	5.75
499.596	5.84
499.796	5.8
499.997	5.77
500.197	5.91
500.398	6.04
500.598	6.16
500.799	6.12
500.999	6.09
501.199	6.1
501.4	6.12
501.6	6.14
501.801	6.02
502.001	6.16
502.201	6.44
502.402	6.47
502.602	6.48
502.802	6.3
503.002	6.42
503.203	6.6
503.403	6.55
503.603	6.43
503.803	6.51
504.003	6.63
504.204	6.66
504.404	6.71
504.604	6.74
504.804	6.96
505.004	6.96
505.204	6.86
505.404	6.85
505.604	6.98
505.804	7.1
506.005	7.11
506.205	7.11
506.405	7.27
506.605	7.01
506.805	7
507.005	6.94
507.204	7.09
507.404	7.06
507.604	7.22
507.804	7.12
508.004	7.06
508.204	7.16
508.404	7.19
508.604	7.01
508.804	7.34
509.003	7.36
509.203	7.39
509.403	7.46
509.603	7.65
509.803	7.43
510.002	7.56
510.202	7.82
510.402	7.75
510.602	7.9
510.801	7.84
511.001	7.74
511.201	7.88
511.4	7.9
511.6	7.91
511.8	7.86
511.999	8.07
512.199	8.2
512.398	8.15
512.598	8.37
512.797	8.37
512.997	8.59
513.197	8.62
513.396	8.74
513.596	8.66
513.795	8.65
513.994	8.77
514.194	8.82
514.393	9
514.593	9.06
514.792	8.89
514.992	9
515.191	9.21
515.39	9.41
515.59	9.42
515.789	9.65
515.988	9.84
516.188	10.07
516.387	10.14
516.586	10.07
516.786	10.21
516.985	10.47
517.184	10.57
517.383	10.68
517.582	10.67
517.782	10.71
517.981	10.89
518.18	10.95
518.379	10.91
518.578	10.85
518.777	10.96
518.976	11.11
519.176	11.13
519.375	11.17
519.574	11.16
519.773	11.23
519.972	11.36
520.171	11.32
520.37	11.44
520.569	11.56
520.768	11.8
520.967	11.86
521.166	11.91
521.365	12
521.564	12.25
521.762	12.35
521.961	12.5
522.16	12.7
522.359	12.77
522.558	12.89
522.757	12.97
522.956	12.98
523.154	13.21
523.353	13.26
523.552	13.37
523.751	13.41
523.949	13.67
524.148	13.8
524.347	13.85
524.546	14.15
524.744	14.2
524.943	14.37
525.142	14.6
525.34	14.64
525.539	14.83
525.737	14.9
525.936	15
526.135	14.98
526.333	15.07
526.532	15.2
526.73	15.32
526.929	15.46
527.127	15.61
527.326	15.76
527.524	15.88
527.723	16.06
527.921	16.22
528.12	16.3
528.318	16.43
528.516	16.52
528.715	16.56
528.913	16.63
529.112	16.71
529.31	16.76
529.508	16.75
529.707	16.8
529.905	16.82
530.103	16.85
530.301	16.97
530.5	17
530.698	17.1
530.896	17.24
531.094	17.3
531.293	17.41
531.491	17.52
531.689	17.76
531.887	17.93
532.085	17.94
532.283	18.11
532.481	18.11
532.68	18.31
532.878	18.44
533.076	18.55
533.274	18.62
533.472	18.7
533.67	18.69
533.868	18.71
534.066	18.74
534.264	18.88
534.462	18.95
534.66	19.05
534.858	19.02
535.056	19.16
535.253	19.23
535.451	19.31
535.649	19.35
535.847	19.56
536.045	19.7
536.243	19.88
536.441	19.87
536.638	20.04
536.836	20.12
537.034	20.39
537.232	20.37
537.43	20.43
537.627	20.52
537.825	20.67
538.023	20.69
538.22	20.76
538.418	20.89
538.616	21.02
538.813	21.07
539.011	21.22
539.209	21.23
539.406	21.46
539.604	21.64
539.801	21.66
539.999	21.7
540.196	21.77
540.394	21.84
540.591	21.9
540.789	21.95
540.986	22.03
541.184	22.05
541.381	22.14
541.579	22.16
541.776	22.12
541.974	22.26
542.171	22.23
542.368	22.37
542.566	22.45
542.763	22.4
542.96	22.58
543.158	22.6
543.355	22.75
543.552	22.78
543.75	22.91
543.947	23.07
544.144	23.13
544.341	23.3
544.539	23.29
544.736	23.43
544.933	23.74
545.13	23.73
545.327	23.79
545.524	23.6
545.722	23.71
545.919	23.58
546.116	23.78
546.313	23.8
546.51	24
546.707	24.21
546.904	24.2
547.101	24.06
547.298	24.12
547.495	24.23
547.692	24.41
547.889	24.33
548.086	24.52
548.283	24.46
548.48	24.51
548.677	24.52
548.874	24.34
549.07	24.39
549.267	24.61
549.464	24.58
549.661	24.53
549.858	24.75
550.055	24.82
550.251	24.83
550.448	24.77
550.645	24.92
550.842	24.87
551.038	25.03
551.235	25.27
551.432	25.18
551.628	25.34
551.825	25.43
552.022	25.46
552.218	25.67
552.415	25.68
552.612	25.81
552.808	25.71
553.005	25.86
553.201	25.92
553.398	25.81
553.594	25.99
553.791	26.11
553.987	26.15
554.184	26.24
554.38	26.03
554.577	26.02
554.773	26.03
554.97	26.23
555.166	26.33
555.362	26.35
555.559	26.33
555.755	26.21
555.952	26.08
556.148	26.11
556.344	26.12
556.541	26.46
556.737	26.84
556.933	26.94
557.129	27.06
557.326	26.91
557.522	26.94
557.718	27.21
557.914	27.53
558.11	27.83
558.307	27.91
558.503	27.98
558.699	27.97
558.895	27.69
559.091	27.68
559.287	27.63
559.483	27.62
559.679	27.85
559.876	27.73
560.072	27.72
560.268	27.68
560.464	27.82
560.66	27.84
560.856	27.95
561.052	28.13
561.247	28.19
561.443	28.49
561.639	28.94
561.835	28.98
562.031	29.05
562.227	28.92
562.423	28.92
562.619	29.05
562.815	29.13
563.01	29.17
563.206	29.21
563.402	29.33
563.598	29.18
563.793	29.15
563.989	29.29
564.185	29.19
564.381	29.49
564.576	29.78
564.772	29.87
564.968	29.71
565.163	29.85
565.359	29.86
565.555	29.78
565.75	30.11
565.946	30.1
566.141	30.08
566.337	30.35
566.532	30.26
566.728	30.1
566.923	30.24
567.119	30.4
567.314	30.14
567.51	30.13
567.705	30.16
567.901	29.91
568.096	29.88
568.292	29.8
568.487	29.82
568.682	29.74
568.878	29.8
569.073	29.68
569.268	29.68
569.464	29.82
569.659	29.8
569.854	30.01
570.05	30.18
570.245	30.29
570.44	30.29
570.635	30.16
570.831	30.3
571.026	30.45
571.221	30.48
571.416	30.54
571.611	30.62
571.806	30.68
572.002	30.52
572.197	30.54
572.392	30.58
572.587	30.66
572.782	30.91
572.977	30.98
573.172	30.88
573.367	30.92
573.562	31.09
573.757	31.19
573.952	31.23
574.147	31.35
574.342	31.42
574.537	31.32
574.732	31.41
574.927	31.46
575.121	31.34
575.316	31.37
575.511	31.34
575.706	31.2
575.901	31.1
576.096	30.91
576.29	31.07
576.485	30.83
576.68	30.92
576.875	30.84
577.069	30.78
577.264	31.04
577.459	31.32
577.654	31.26
577.848	31.46
578.043	31.56
578.238	31.94
578.432	31.74
578.627	31.87
578.821	31.8
579.016	31.81
579.21	31.58
579.405	31.66
579.6	31.61
579.794	31.53
579.989	31.5
580.183	31.79
580.378	31.65
580.572	31.75
580.766	31.87
580.961	31.97
581.155	31.78
581.35	31.88
581.544	31.67
581.738	31.54
581.933	31.83
582.127	31.89
582.321	31.83
582.516	32.38
582.71	32.57
582.904	32.27
583.099	32.47
583.293	32.73
583.487	32.81
583.681	32.83
583.875	32.87
584.07	33.02
584.264	32.77
584.458	32.57
584.652	32.27
584.846	32.16
585.04	32.41
585.234	32.23
585.428	32.14
585.623	32.12
585.817	32.33
586.011	32.46
586.205	32.44
586.399	32.61
586.593	32.78
586.787	32.78
586.981	32.74
587.174	32.69
587.368	32.67
587.562	32.74
587.756	32.98
587.95	33
588.144	32.78
588.338	32.43
588.532	32.49
588.725	32.46
588.919	32.51
589.113	32.61
589.307	32.99
589.501	33.05
589.694	33.17
589.888	33.17
590.082	32.84
590.275	32.86
590.469	33.03
590.663	33.31
590.856	33.41
591.05	33.22
591.244	33.42
591.437	33.04
591.631	33.19
591.824	33.15
592.018	32.93
592.212	33.05
592.405	33.07
592.599	33.36
592.792	33.28
592.986	33.26
593.179	33.67
593.372	33.32
593.566	33.66
593.759	33.67
593.953	33.65
594.146	33.55
594.339	33.46
594.533	33.65
594.726	33.39
594.92	33.17
595.113	33.22
595.306	32.73
595.499	32.75
595.693	32.52
595.886	32.47
596.079	32.58
596.272	33.09
596.466	33.18
596.659	33.11
596.852	33.23
597.045	33.33
597.238	33.2
597.431	33.44
597.624	33.72
597.818	33.88
598.011	33.84
598.204	33.95
598.397	33.77
598.59	33.98
598.783	34.05
598.976	34.14
599.169	34.2
599.362	34.49
599.555	34.46
599.748	34.36
599.941	34.35
600.134	34.65
600.326	34.52
600.519	34.78
600.712	34.61
600.905	34.6
601.098	34.54
601.291	34.29
601.483	33.98
601.676	34.17
601.869	34.08
602.062	34.08
602.255	33.7
602.447	33.65
602.64	33.6
602.833	33.83
603.025	33.96
603.218	33.87
603.411	34.09
603.603	34.42
603.796	34.34
603.989	34.55
604.181	34.67
604.374	34.85
604.566	34.95
604.759	34.8
604.951	34.6
605.144	34.53
605.336	34.66
605.529	34.75
605.721	34.65
605.914	34.68
606.106	34.56
606.299	34.62
606.491	34.52
606.683	34.6
606.876	34.79
607.068	35.06
607.26	35.39
607.453	35.36
607.645	35.4
607.837	35.27
608.03	35.22
608.222	35.24
608.414	35
608.606	34.94
608.799	35.06
608.991	35.04
609.183	35.11
609.375	34.96
609.567	34.86
609.759	34.86
609.952	34.84
610.144	35.06
610.336	35.3
610.528	35.43
610.72	35.52
610.912	35.37
611.104	35.45
611.296	35.28
611.488	35.25
611.68	35.47
611.872	35.52
612.064	35.78
612.256	35.93
612.448	35.64
612.64	35.84
612.832	35.93
613.023	35.95
613.215	35.5
613.407	35.59
613.599	35.73
613.791	35.61
613.983	35.21
614.174	35.13
614.366	34.75
614.558	34.95
614.75	34.86
614.941	35.01
615.133	35.04
615.325	35.42
615.516	35.62
615.708	35.46
615.9	35.56
616.091	35.75
616.283	35.92
616.475	36.02
616.666	36.07
616.858	35.81
617.049	35.63
617.241	35.89
617.432	35.84
617.624	35.63
617.815	35.84
618.007	35.9
618.198	36.18
618.39	35.98
618.581	35.86
618.773	35.81
618.964	36
619.155	36.02
619.347	35.88
619.538	35.8
619.729	35.98
619.921	35.95
620.112	35.76
620.303	35.41
620.494	35.18
620.686	35.37
620.877	35.21
621.068	34.86
621.259	35.29
621.451	35.21
621.642	35.32
621.833	34.63
622.024	34.4
622.215	34.74
622.406	34.86
622.597	35.23
622.788	35.05
622.98	35.28
623.171	35.72
623.362	35.69
623.553	35.73
623.744	35.72
623.935	36.43
624.126	36.65
624.317	36.2
624.508	36.06
624.698	35.88
624.889	35.87
625.08	35.65
625.271	35.87
625.462	35.78
625.653	35.86
625.844	35.73
626.034	35.51
626.225	35.36
626.416	35.39
626.607	35.56
626.798	35.68
626.988	35.87
627.179	36.06
627.37	35.71
627.56	35.54
627.751	35.46
627.942	35.57
628.132	35.65
628.323	35.7
628.514	35.97
628.704	35.98
628.895	35.94
629.085	35.57
629.276	35.4
629.466	35.51
629.657	35.57
629.847	35.72
630.038	35.85
630.228	36.05
630.419	35.95
630.609	35.92
630.8	36.15
630.99	36.19
631.181	36.27
631.371	36.37
631.561	36.45
631.752	36.78
631.942	36.4
632.132	36.19
632.323	36.01
632.513	36.11
632.703	35.65
632.893	35.71
633.084	35.89
633.274	36
633.464	36.08
633.654	36.09
633.844	36.12
634.034	36.24
634.225	36.4
634.415	36.38
634.605	36.23
634.795	36.44
634.985	36.15
635.175	35.92
635.365	36.16
635.555	35.96
635.745	35.72
635.935	35.24
636.125	35.37
636.315	35.12
636.505	35.09
636.695	34.96
636.885	35.33
637.075	34.92
637.265	34.94
637.455	34.61
637.644	34.49
637.834	34.62
638.024	34.99
638.214	35.25
638.404	35.42
638.593	35.79
638.783	36.06
638.973	35.86
639.163	36.4
639.352	36.6
639.542	36.97
639.732	37.12
639.921	37.08
640.111	36.84
640.301	36.32
640.49	36.41
640.68	35.84
640.87	35.99
641.059	36.07
641.249	35.91
641.438	35.49
641.628	35.31
641.817	35.43
642.007	35.72
642.196	35.83
642.386	36.12
642.575	36.17
642.764	36.55
642.954	36.48
643.143	36.41
643.333	36.42
643.522	36.6
643.711	36.91
643.901	36.82
644.09	36.52
644.279	36.45
644.469	36.58
644.658	36.13
644.847	35.86
645.036	35.92
645.226	36.16
645.415	36.41
645.604	36.47
645.793	36.14
645.982	36.09
646.171	35.95
646.361	35.77
646.55	35.46
646.739	35.7
646.928	36
647.117	36.19
647.306	35.87
647.495	35.58
647.684	35.82
647.873	35.9
648.062	36
648.251	36.36
648.44	36.65
648.629	36.8
648.818	36.92
649.007	36.93
649.196	36.57
649.384	36.5
649.573	36.4
649.762	35.91
649.951	35.5
650.14	35.65
650.328	35.66
650.517	35.91
650.706	35.68
650.895	36.17
651.083	36.19
651.272	36.28
651.461	36.6
651.65	36.83
651.838	36.85
652.027	37.59
652.216	37.54
652.404	37.64
652.593	37.67
652.781	37.8
652.97	37.59
653.158	37.28
653.347	37.49
653.535	37.05
653.724	37.12
653.912	37.35
654.101	37.37
654.289	37.51
654.478	36.93
654.666	36.31
654.855	36.38
655.043	35.8
655.231	36.17
655.42	35.96
655.608	36.51
655.796	36.25
655.985	36.26
656.173	35.89
656.361	35.95
656.55	36.26
656.738	36.03
656.926	36.27
657.114	36.33
657.302	36.24
657.491	36.41
657.679	36
657.867	36.33
658.055	36.23
658.243	36.04
658.431	36
658.619	35.84
658.807	36.4
658.996	36.08
659.184	36.03
659.372	35.73
659.56	35.7
659.748	36.3
659.936	36.37
660.124	36.32
660.311	36.48
660.499	36.39
660.687	36.71
660.875	36.6
661.063	36.82
661.251	37.24
661.439	37.27
661.627	37.13
661.814	36.5
662.002	36.42
662.19	36.92
662.378	36.99
662.565	37.2
662.753	36.91
662.941	37.04
663.129	36.85
663.316	36.88
663.504	37.27
663.692	37.35
663.879	37.53
664.067	37.17
664.254	36.81
664.442	36.87
664.63	37.08
664.817	37.27
665.005	36.95
665.192	36.96
665.38	36.49
665.567	36.21
665.755	36.21
665.942	36.04
666.13	36.14
666.317	35.93
666.504	35.72
666.692	35.54
666.879	35.35
667.067	35.63
667.254	36.48
667.441	36.57
667.629	36.56
667.816	36.51
668.003	36.38
668.19	36.53
668.378	36.98
668.565	37.19
668.752	36.84
668.939	36.78
669.127	36.69
669.314	35.93
669.501	35.93
669.688	35.98
669.875	35.94
670.062	36.17
670.249	35.98
670.436	36.03
670.623	35.86
670.81	36.17
670.997	36.64
671.184	36.6
671.371	36.79
671.558	36.63
671.745	36.93
671.932	37.09
672.119	37.52
672.306	37.9
672.493	37.43
672.68	37.27
672.867	37.4
673.054	36.94
673.24	37.14
673.427	37.09
673.614	37.39
673.801	37.65
673.988	37.16
674.174	36.96
674.361	36.73
674.548	37.15
674.734	37.31
674.921	37.72
675.108	37.99
675.294	37.97
675.481	38.06
675.668	38.34
675.854	38.07
676.041	38.42
676.227	38.1
676.414	37.82
676.601	37.62
676.787	37.38
676.974	36.36
677.16	36.49
677.347	35.84
677.533	35.74
677.719	35.19
677.906	35.01
678.092	34.87
678.279	35.09
678.465	35.32
678.651	35.58
678.838	35.7
679.024	35.92
679.21	35.8
679.397	36.38
679.583	36.62
679.769	36.64
679.955	36.34
680.142	36.69
680.328	36.71
680.514	37.03
680.7	37.03
680.886	37.33
681.073	37.33
681.259	36.83
681.445	36.73
681.631	36.77
681.817	37.07
682.003	37
682.189	36.82
682.375	36.86
682.561	36.72
682.747	36.93
682.933	36.71
683.119	36.71
683.305	37.11
683.491	36.85
683.677	36.36
683.863	36.36
684.049	36.97
684.235	37.04
684.42	37.46
684.606	36.96
684.792	37.1
684.978	37.5
685.164	37.57
685.349	37.73
685.535	38.19
685.721	37.86
685.907	37.29
686.092	37.27
686.278	37.01
686.464	37.05
686.649	36.98
686.835	36.51
687.021	36.07
687.206	36.01
687.392	35.98
687.577	35.25
687.763	35.47
687.948	36.35
688.134	36.57
688.319	37.26
688.505	36.65
688.69	36.72
688.876	36.26
689.061	36.13
689.247	36.39
689.432	36.44
689.618	37.04
689.803	37.51
689.988	37.15
690.174	36.89
690.359	36.15
690.544	36.07
690.73	36.34
690.915	36.89
691.1	37.09
691.285	36.62
691.471	36.89
691.656	36.31
691.841	36.23
692.026	35.87
692.211	35.88
692.396	36.18
692.582	35.88
692.767	35.96
692.952	35.5
693.137	35.39
693.322	35.82
693.507	35.53
693.692	35.65
693.877	35.69
694.062	36.04
694.247	36.1
694.432	36.16
694.617	36.13
694.802	36.67
694.987	36.42
695.172	36.43
695.357	35.96
695.541	36
695.726	36.4
695.911	36.37
696.096	36.33
696.281	35.79
696.466	35.85
696.65	36.38
696.835	36.51
697.02	36.77
697.204	37.29
697.389	37.43
697.574	37.23
697.759	37.35
697.943	37.02
698.128	36.95
698.312	37.63
698.497	37.53
698.682	37.13
698.866	36.5
699.051	37.03
699.235	36.67
699.42	36.88
699.604	36.78
699.789	36.53
699.973	36.61
700.158	36.74
700.342	36.62
700.527	37.08
700.711	37.59
700.895	37.12
701.08	36.91
701.264	37.33
701.448	36.78
701.633	37.44
701.817	37.69
702.001	37.76
702.186	37.77
702.37	37.56
702.554	37.07
702.738	37.13
702.923	38.99
703.107	38.8
703.291	38.38
703.475	38.98
703.659	39.27
703.843	39.17
704.027	39.36
704.212	39.53
704.396	39.68
704.58	39.41
704.764	38.62
704.948	37.5
705.132	37.79
705.316	37.5
705.5	37.29
705.684	36.83
705.868	37.34
706.052	37.91
706.235	37.85
706.419	37.66
706.603	37.59
706.787	38.09
706.971	38.09
707.155	37.6
707.339	37.78
707.522	37.72
707.706	36.64
707.89	35.98
708.074	35.05
708.257	34.31
708.441	34.59
708.625	34.14
708.808	34.5
708.992	35.6
709.176	36.19
709.359	36.42
709.543	36.37
709.727	37.13
709.91	37.55
710.094	38.32
710.277	38.97
710.461	38.7
710.644	39.01
710.828	38.98
711.011	38.09
711.195	38.08
711.378	37.68
711.562	37.09
711.745	37.27
711.928	37.44
712.112	36.95
712.295	36.33
712.478	36.33
712.662	36.19
712.845	35.96
713.028	35.87
713.212	35.34
713.395	35.93
713.578	36.75
713.761	36.48
713.945	35.89
714.128	36.46
714.311	36.91
714.494	36.87
714.677	37.33
714.86	37.8
715.043	38.02
715.227	38.09
715.41	37.89
715.593	38.12
715.776	39.24
715.959	39.44
716.142	39.44
716.325	39.43
716.508	39.21
716.691	39.68
716.874	38.95
717.057	38.81
717.239	39.2
717.422	39.08
717.605	38.41
717.788	37.31
717.971	38.06
718.154	37.77
718.337	37.58
718.519	37.43
718.702	36.89
718.885	36.6
719.068	36.77
719.25	36.68
719.433	36.35
719.616	36.64
719.798	36.5
719.981	35.86
720.164	34.95
720.346	34.77
720.529	35
720.712	34.64
720.894	35.57
721.077	35.92
721.259	35.6
721.442	35.69
721.624	35.38
721.807	35.54
721.989	35.78
722.172	37.72
722.354	37.28
722.537	37.56
722.719	38.02
722.901	37.53
723.084	38.1
723.266	36.97
723.448	37.51
723.631	38.46
723.813	37.93
723.995	38.27
724.178	37.77
724.36	38.37
724.542	38.54
724.724	37.97
724.907	38.41
725.089	36.68
725.271	38.2
725.453	38.62
725.635	38
725.817	38.56
725.999	38.61
726.181	38.36
726.364	39.29
726.546	38.66
726.728	39.9
726.91	39.98
727.092	40.49
727.274	40.56
727.456	39.79
727.638	39.67
727.819	39.51
728.001	39.14
728.183	39.51
728.365	39.25
728.547	38.74
728.729	38.03
728.911	37.51
729.093	37.99
729.274	37.16
729.456	37.89
729.638	38.06
729.82	38.55
730.001	38.25
730.183	37.09
730.365	36.82
730.546	37.22
730.728	37.25
730.91	37.54
731.091	37.4
731.273	38.16
731.455	37.62
731.636	37.46
731.818	37.02
731.999	37.12
732.181	37.39
732.362	38.06
732.544	38.69
732.725	38.49
732.907	37.88
733.088	36.5
733.27	35.63
733.451	36.11
733.633	36.73
733.814	36.67
733.995	36.56
734.177	36.65
734.358	35.76
734.539	36.01
734.721	36.28
734.902	37.06
735.083	38.57
735.264	38.33
735.446	37.68
735.627	37.9
735.808	38.52
735.989	39.07
736.17	38.42
736.351	38.96
736.533	38.05
736.714	39
736.895	38.4
737.076	38.27
737.257	39.26
737.438	38.7
737.619	37.5
737.8	36.8
737.981	36.47
738.162	36.96
738.343	35.54
738.524	35.44
738.705	34.37
738.886	33.89
739.067	33.78
739.247	33.74
739.428	33.69
739.609	34.35
739.79	34.27
739.971	34.54
740.151	33.69
740.332	35.5
740.513	36.07
740.694	36.41
740.874	37.42
741.055	36.69
741.236	37.02
741.417	38.15
741.597	37.7
741.778	37.3
741.958	37.15
742.139	38.59
742.32	37.08
742.5	37.01
742.681	36.97
742.861	37.33
743.042	37.52
743.222	36.88
743.403	37.09
743.583	38.26
743.764	39.24
743.944	38.77
744.124	38.07
744.305	39.23
744.485	39.25
744.666	38.59
744.846	38.05
745.026	38.8
745.207	38.85
745.387	39
745.567	37.89
745.747	38.23
745.928	37.4
746.108	37.95
746.288	37.35
746.468	38.19
746.648	38.92
746.829	39.37
747.009	39.11
747.189	38.46
747.369	37.84
747.549	38.42
747.729	37.52
747.909	39
748.089	38.99
748.269	39.06
748.449	37.62
748.629	37.05
748.809	36.13
748.989	35.25
749.169	36.14
749.349	35.44
749.529	34.71
749.709	34.25
749.889	33.97
750.068	33.24
750.248	32.62
750.428	33.38
750.608	33.48
750.788	32.81
750.967	33.39
751.147	33.12
751.327	32.61
751.507	33.77
751.686	35
751.866	35.51
752.046	35.56
752.225	36.55
752.405	38.03
752.585	38.65
752.764	40.33
752.944	40.47
753.123	40.33
753.303	40.79
753.482	39.61
753.662	39.01
753.841	38.66
754.021	38.35
754.2	37.68
754.38	36.41
754.559	35.06
754.739	33.89
754.918	33.43
755.097	32.71
755.277	33.17
755.456	34.18
755.635	34.05
755.815	33.55
755.994	33.9
756.173	34.23
756.352	33.89
756.532	34.03
756.711	34.47
756.89	34.8
757.069	36.33
757.248	36.56
757.427	35.92
757.607	35.7
757.786	36.12
757.965	37.03
758.144	37.35
758.323	37.47
758.502	38.57
758.681	38.51
758.86	39.42
759.039	39.34
759.218	39.32
759.397	39.28
759.576	40.16
759.755	39
759.934	38.37
760.113	37.2
760.291	37.47
760.47	37.72
760.649	37.46
760.828	35.72
761.007	35.61
761.186	35.35
761.364	35.39
761.543	34.59
761.722	35.81
761.901	35.86
762.079	37.3
762.258	37.07
762.437	36.57
762.615	36.46
762.794	37.08
762.972	36.76
763.151	37.12
763.33	36.74
763.508	36.72
763.687	36.53
763.865	36.24
764.044	36.02
764.222	36.55
764.401	36.19
764.579	36.88
764.758	37.28
764.936	37.97
765.114	38.05
765.293	38.98
765.471	38.71
765.65	38.58
765.828	38.79
766.006	38.2
766.184	36.66
766.363	37.73
766.541	37.15
766.719	37.08
766.898	35.6
767.076	35.86
767.254	34.9
767.432	36.69
767.61	37.58
767.788	37.6
767.967	37.68
768.145	39.91
768.323	39.7
768.501	38.61
768.679	39.37
768.857	40.43
769.035	39.94
769.213	40.16
769.391	39.81
769.569	38.81
769.747	39.31
769.925	39.92
770.103	38.93
770.281	37.7
770.459	39.05
770.636	38.94
770.814	39.6
770.992	39.38
771.17	40.84
771.348	39.85
771.525	39.81
771.703	39.65
771.881	41.04
772.059	41
772.236	40.47
772.414	39.68
772.592	39.03
772.769	38.83
772.947	38.26
773.125	36.23
773.302	35.75
773.48	35.86
773.657	35.45
773.835	33.79
774.013	33.32
774.19	34.28
774.368	34.16
774.545	32.68
774.723	33.98
774.9	34.71
775.077	35.67
775.255	35.69
775.432	34.47
775.61	33.98
775.787	33.76
775.964	34.34
776.142	34.71
776.319	35.69
776.496	38.51
776.674	35.46
776.851	34.87
777.028	33.75
777.205	33.5
777.382	34.62
777.56	36.56
777.737	35.98
777.914	35.75
778.091	34.55
778.268	37.26
778.445	35.66
778.622	35.81
778.8	37.13
778.977	38.86
779.154	45.58
779.331	45.92
779.508	44.12
779.685	44.65
779.862	44.97
780.038	46.24
780.215	43.81
780.392	44.71
780.569	45.56
780.746	43.47
780.923	41.68
781.1	35.7
781.277	36.64
781.453	36.61
781.63	35.96
781.807	37.79
781.984	37.1
782.16	39.19
782.337	38
782.514	37.45
782.691	37.99
782.867	38.21
783.044	37.24
783.221	35.76
783.397	34.59
783.574	34.42
783.75	31.28
783.927	29.22
784.103	27.46
784.28	27.62
784.456	27.2
784.633	26.72
784.809	26.71
784.986	27.05
785.162	27.91
785.339	29.89
785.515	31.96
785.692	34.57
785.868	38.86
786.044	39.88
786.221	39.75
786.397	41.4
786.573	41.96
786.749	44.45
786.926	45.7
787.102	44.62
787.278	45.16
787.454	44.93
787.631	42.28
787.807	40.48
787.983	39.36
788.159	38.68
788.335	38.43
788.511	38.67
788.687	35.26
788.863	34.51
789.039	34.26
789.216	33.03
789.392	31.46
789.568	33.73
789.744	32.54
789.919	32.13
790.095	32.87
790.271	34.05
790.447	35.17
790.623	35.98
790.799	35.21
790.975	36.37
791.151	38.25
791.327	40.23
791.502	41
791.678	42.93
791.854	42.96
792.03	42.9
792.205	39.04
792.381	39.2
792.557	40.3
792.733	41.66
792.908	41.66
793.084	41.82
793.259	38.61
793.435	36.61
793.611	34.75
793.786	35.72
793.962	35.94
794.137	38.37
794.313	38.14
794.488	37.73
794.664	35.67
794.839	34.53
795.015	33.39
795.19	34.65
795.366	38.92
795.541	42.36
795.716	41.77
795.892	41.42
796.067	39.59
796.242	38.64
796.418	38.72
796.593	37.96
796.768	38.91
796.944	39.79
797.119	39.76
797.294	34.87
797.469	31.2
797.644	31.62
797.82	32.34
797.995	33.42
798.17	32.26
798.345	31.54
798.52	33.02
798.695	32.32
798.87	30.16
799.045	29.79
799.22	28.41
799.395	29.18
799.57	29.62
799.745	26.73
799.92	27.16
800.095	29.27
800.27	29.36
800.445	28.2
800.62	27.84
800.795	27.24
800.97	28.63
801.145	30.06
801.319	28.84
801.494	26.49
801.669	28.41
801.844	29.96
802.018	27.24
802.193	28.58
802.368	32.05
802.543	29.94
802.717	33.65
802.892	33.54
803.067	34.3
803.241	36.52
803.416	38.6
803.59	38.92
803.765	35.06
803.94	36.24
804.114	34.97
804.289	30.91
804.463	32.93
804.638	28.98
804.812	29.98
804.986	30.62
805.161	29.57
805.335	29.06
805.51	27.55
805.684	28.03
805.858	28.92
806.033	31.03
806.207	31.62
806.381	31.98
806.556	33.04
806.73	29.11
806.904	27.83
807.078	26.84
807.253	26.34
807.427	27.96
807.601	28.72
807.775	31.39
807.949	29.53
808.123	29.81
808.298	30.68
808.472	32.46
808.646	35.4
808.82	34.12
808.994	36.77
809.168	39.22
809.342	37.68
809.516	37.58
809.69	35.27
809.864	36.94
810.038	37.29
810.212	36.51
810.385	36.31
810.559	39.82
810.733	39.35
810.907	34.48
811.081	32.84
811.255	35.36
811.428	35.52
811.602	31.05
811.776	29.57
811.95	30.47
812.123	33.42
812.297	32.79
812.471	28.46
812.644	30.41
812.818	33.74
812.992	31.11
813.165	30.18
813.339	31.9
813.512	36.55
813.686	38.94
813.86	38.13
814.033	36.9
814.207	37.63
814.38	39.69
814.554	38.09
814.727	38.2
814.9	40.62
815.074	38.47
815.247	35.27
815.421	33.7
815.594	30.38
815.767	30.73
815.941	26.41
816.114	21.32
816.287	20.98
816.46	22.35
816.634	20.01
816.807	18.69
816.98	19.39
817.153	24.74
817.327	25.53
817.5	28.07
817.673	28.26
817.846	30.93
818.019	35.46
818.192	33.73
818.365	29.22
818.538	31.15
818.711	33.55
818.884	35.95
819.057	31.6
819.23	32.97
819.403	34.02
819.576	31.72
819.749	32.03
819.922	32.44
820.095	34.39
820.268	41.05
820.441	40.35
820.614	36.99
820.786	36.3
820.959	38.7
821.132	37.21
821.305	36.26
821.477	38.45
821.65	39.01
821.823	38.75
821.996	38.69
822.168	36.84
822.341	37.64
822.514	38.09
822.686	37.86
822.859	37.22
823.031	37.8
823.204	38.15
823.376	37.37
823.549	37.04
823.722	37.3
823.894	37.07
824.067	37.19
824.239	36.3
824.411	36.54
824.584	36.7
824.756	36.22
824.929	35.95
825.101	35.47
825.273	35.08
825.446	34.43
825.618	34.58
825.79	34.93
825.963	35.2
826.135	36.4
826.307	35.68
826.479	34.77
826.652	35.47
826.824	34.59
826.996	33.52
827.168	34.77
827.34	34.53
827.512	33.59
827.684	32.48
827.856	32.31
828.029	32.11
828.201	32.25
828.373	33.18
828.545	33.41
828.717	34.09
828.889	34.51
829.061	33.26
829.232	33.46
829.404	34.15
829.576	34.62
829.748	35.06
829.92	33.38
830.092	34.73
830.264	33.67
830.436	32.59
830.607	32.67
830.779	33.89
830.951	35.61
831.123	35.6
831.294	36.46
831.466	36
831.638	37.26
831.809	39.11
831.981	38.7
832.153	40.76
832.324	40.12
832.496	39.06
832.667	37.88
832.839	34.65
833.011	36.78
833.182	34.91
833.354	34.65
833.525	31.07
833.697	28.74
833.868	27.56
834.039	26.63
834.211	27.38
834.382	29.06
834.554	29.52
834.725	29.84
834.896	29.58
835.068	28.68
835.239	27.25
835.41	27.6
835.581	27.49
835.753	29.16
835.924	29.51
836.095	30.01
836.266	29.49
836.438	28.72
836.609	30.14
836.78	27.29
836.951	26.87
837.122	28.2
837.293	29.52
837.464	29.15
837.635	27.68
837.806	26.7
837.977	21.98
838.148	19.6
838.319	22.23
838.49	19.56
838.661	23.94
838.832	25.77
839.003	27.6
839.174	29.09
839.345	34.84
839.516	36.65
839.687	35.53
839.857	41.7
840.028	43.8
840.199	42.06
840.37	42.64
840.54	43.66
840.711	46.39
840.882	44.99
841.053	42.19
841.223	38.79
841.394	36.76
841.564	41.26
841.735	43.02
841.906	43.12
842.076	40.06
842.247	39.5
842.417	37.76
842.588	30.91
842.758	31.22
842.929	27.92
843.099	25.95
843.27	25.52
843.44	17.86
843.611	9.63
843.781	13.8
843.951	21.6
844.122	20.47
844.292	12.85
844.462	14.36
844.633	20.21
844.803	22.67
844.973	17.89
845.144	23.79
845.314	32.18
845.484	35.3
845.654	21.4
845.824	22.27
845.995	29.14
846.165	35.98
846.335	38.22
846.505	27.12
846.675	30.23
846.845	42.53
847.015	42.85
847.185	41.72
847.355	40.21
847.525	44.56
847.695	41.9
847.865	37.4
848.035	30.78
848.205	35.33
848.375	39.54
848.545	36.58
848.715	32.38
848.884	20.91
849.054	22.15
849.224	25.67
849.394	23.76
849.564	19.9
849.733	24.19
849.903	30.71
850.073	27.49
850.243	30.47
850.412	28.39
850.582	29.76
850.752	39.42
850.921	43.73
851.091	46.92
851.26	50.22
851.43	51.17
851.599	45.29
851.769	26.71
851.939	31.62
852.108	22.97
852.278	28
852.447	32.78
852.616	27.15
852.786	23.22
852.955	14.54
853.125	8.42
853.294	12.51
853.463	7.57
853.633	23.43
853.802	10.16
853.971	11.03
854.141	-2.8
854.31	-27.84
854.479	-33.62
854.648	-33.73
854.818	-38.95
854.987	-23.52
855.156	-11.88
855.325	-1.83
855.494	-5.41
855.663	-0.23
855.832	3.49
856.001	6.02
856.171	4.84
856.34	2.47
856.509	14.77
856.678	17.46
856.847	11.71
857.016	4.59
857.185	-7.96
857.353	7.64
857.522	10.54
857.691	15.07
857.86	16.44
858.029	33.25
858.198	39.58
858.367	20.55
858.535	20.24
858.704	31.32
858.873	33.46
859.042	43.44
859.21	16.96
859.379	16.19
859.548	20.66
859.717	24.89
859.885	3.36
860.054	16.59
860.222	40.96
860.391	57.95
860.56	36.95
860.728	26.93
860.897	30.34
861.065	47.86
861.234	39.48
861.402	31.08
861.571	32.77
861.739	32.61
861.908	14.07
862.076	7.22
862.244	4.77
862.413	15.22
862.581	19.99
862.749	21.04
862.918	25.65
863.086	24.91
863.254	25.19
863.423	25.01
863.591	19.66
863.759	37.18
863.927	36.88
864.096	39.14
864.264	29.55
864.432	32.58
864.6	29.78
864.768	28.62
864.936	43.57
865.104	41.59
865.272	44.27
865.44	50.08
865.608	43.87
865.776	48.69
865.944	43.07
866.112	46.22
866.28	34.09
866.448	31.48
866.616	35.99
866.784	23.25
866.952	25.15
867.12	32.12
867.288	38.25
867.455	31.4
867.623	17.87
867.791	-34.92
867.959	-0.45
868.127	29.8
868.294	35.78
868.462	10.77
868.63	30.06
868.797	26.03
868.965	20.87
869.133	6.97
869.3	-0.28
869.468	12.22
869.636	17.55
869.803	12.95
869.971	17.84
870.138	14.91
870.306	21.63
870.473	22.53
870.641	20.92
870.808	3.96
870.975	4.7
871.143	8.75
871.31	10.81
871.478	16.61
871.645	12.93
871.812	-17.18
871.98	12.9
872.147	1.32
872.314	14.77
872.482	11.69
872.649	21.65
872.816	35.46
872.983	39.01
873.15	36.82
873.318	34.65
873.485	42.58
873.652	47.39
873.819	35.78
873.986	47.89
874.153	29.85
874.32	46.53
874.487	78.6
874.654	43.34
874.821	21.96
874.988	23.87
875.155	14.32
875.322	19.9
875.489	23.68
875.656	18.45
875.823	18.17
875.99	21.77
876.157	26.7
876.324	9.54
876.49	23.55
876.657	29.68
876.824	23.94
876.991	37.69
877.157	26.45
877.324	21.9
877.491	23.13
877.658	26.35
877.824	29.61
877.991	25.63
878.157	27
878.324	25.93
878.491	32.03
878.657	37.11
878.824	35.13
878.99	46.98
879.157	55.39
879.323	54.18
879.49	34.57
879.656	31.6
879.823	32.8
879.989	36.13
880.156	34.98
880.322	33.77
880.488	34.59
880.655	31.55
880.821	24.03
880.987	26.92
881.154	29.58
881.32	33.42
881.486	32.81
881.652	30.11
881.819	23.52
881.985	27.13
882.151	28.13
882.317	26.72
882.483	25.92
882.649	27.11
882.816	28.19
882.982	28.94
883.148	28.58
883.314	29.86
883.48	30.81
883.646	32.6
883.812	32.63
883.978	31.12
884.144	32.46
884.31	32.05
884.476	34.08
884.642	31.48
884.807	29.19
884.973	30.01
885.139	29.68
885.305	29.26
885.471	29.47
885.637	28.77
885.802	30.73
885.968	30.57
886.134	32.35
886.3	30.09
886.465	33.9
886.631	37.2
886.797	37.07
886.962	41.52
887.128	38.95
887.293	40.9
887.459	38.26
887.625	41.22
887.79	37.83
887.956	37.05
888.121	38.19
888.287	35.82
888.452	35.13
888.618	35.44
888.783	22.15
