Data from CB_041_Reflection_21-55-36-342.txt Node
Date: Wed Nov 11 21:55:36 EST 2015
User: robert
Spectrometer: USB4E03001
Autoset integration time: false
Trigger mode: 4
Integration Time (sec): 1.000000E-1
Scans to average: 15
Electric dark correction enabled: true
Nonlinearity correction enabled: false
Boxcar width: 5
Stray light correction enabled: false
XAxis mode: Wavelengths
Stop averaging: false
Number of Pixels in Spectrum: 3648
>>>>>Begin Spectral Data<<<<<
177.566	-220.16
177.785	-1055.26
178.005	73.35
178.225	305.8
178.445	36.84
178.665	63.39
178.885	710.35
179.105	-134.2
179.324	-111.87
179.544	-17.68
179.764	-33.32
179.984	-13.77
180.204	-8.12
180.423	19.93
180.643	20.5
180.863	37.51
181.083	35.83
181.302	28.12
181.522	16.02
181.742	22.68
181.961	26.12
182.181	42.55
182.401	32.09
182.621	42.78
182.84	35.79
183.06	25.45
183.279	21.79
183.499	40.54
183.719	40.27
183.938	44.55
184.158	54.3
184.377	34.96
184.597	30.27
184.816	48.21
185.036	46.65
185.256	53.79
185.475	68.56
185.695	41.35
185.914	-20.91
186.134	14.2
186.353	-6.26
186.572	-34.37
186.792	-21.04
187.011	-31.29
187.231	-48
187.45	-116.62
187.67	-147.02
187.889	-91.53
188.108	-20.46
188.328	-14.44
188.547	-19.96
188.766	-9.62
188.986	-7.16
189.205	-16.28
189.424	-9.58
189.644	-8.78
189.863	27.79
190.082	52.47
190.302	58.35
190.521	69.68
190.74	95.08
190.959	77.45
191.178	69.99
191.398	60.64
191.617	71.99
191.836	62.74
192.055	52.04
192.274	24.16
192.494	10.49
192.713	6.33
192.932	0.15
193.151	-19.73
193.37	-15.41
193.589	-18.96
193.808	-22.33
194.027	-20.87
194.246	11.19
194.465	21.15
194.685	29.15
194.904	20.99
195.123	16.27
195.342	4.42
195.561	22.49
195.78	13.27
195.999	22.4
196.218	2.13
196.436	13.67
196.655	8.88
196.874	-7.45
197.093	31.8
197.312	42.2
197.531	38.73
197.75	36.45
197.969	34.37
198.188	28.83
198.407	3.77
198.625	15.68
198.844	-5.6
199.063	-11.8
199.282	-3.76
199.501	-26.89
199.719	-58.61
199.938	-28.76
200.157	-76.23
200.376	-28.71
200.594	-22.86
200.813	21.82
201.032	0.9
201.251	7.36
201.469	18.87
201.688	8.02
201.907	0.79
202.125	4.58
202.344	-11.38
202.563	10.02
202.781	-0.93
203	2.67
203.218	-35.63
203.437	-5.36
203.656	7.93
203.874	10.42
204.093	4.22
204.311	9.91
204.53	-11.47
204.748	-14.07
204.967	-9.99
205.185	-7.42
205.404	-10.99
205.622	8.91
205.841	12.69
206.059	-11.73
206.278	9.25
206.496	25.75
206.715	34.52
206.933	40.98
207.151	52.66
207.37	43.45
207.588	33.87
207.806	35.42
208.025	41.95
208.243	26.49
208.461	35.24
208.68	26.52
208.898	14.47
209.116	3.98
209.335	7.84
209.553	-12.07
209.771	-5.31
209.989	16.7
210.208	2.15
210.426	-5.91
210.644	-14.17
210.862	-22.21
211.081	-9.01
211.299	3.26
211.517	21.71
211.735	9.4
211.953	33.75
212.171	29.26
212.39	24.1
212.608	44.09
212.826	36.78
213.044	63.52
213.262	63
213.48	56.53
213.698	61.09
213.916	77.11
214.134	65.23
214.352	46.13
214.57	39.86
214.788	34.31
215.006	10.09
215.224	4.45
215.442	-70.19
215.66	-86.85
215.878	-19.73
216.096	-8.7
216.314	-12.41
216.532	23.69
216.75	31.29
216.968	52.14
217.185	49.29
217.403	58.79
217.621	53.49
217.839	56.38
218.057	57.86
218.275	70.01
218.492	70.91
218.71	60.79
218.928	54.81
219.146	52.67
219.363	41.71
219.581	46.81
219.799	11.75
220.017	27.19
220.234	22.01
220.452	18.63
220.67	14.49
220.887	1.5
221.105	-11.99
221.323	-40.23
221.54	-46.09
221.758	-1.76
221.976	1.33
222.193	22.39
222.411	21.23
222.629	22.67
222.846	10.45
223.064	4.41
223.281	21.64
223.499	31.9
223.716	28.39
223.934	35.06
224.151	18.27
224.369	10.31
224.586	-3.41
224.804	-6.61
225.021	-17.18
225.239	-4.36
225.456	0.5
225.674	-15.6
225.891	-12.77
226.108	12.06
226.326	2.28
226.543	1.19
226.76	6.8
226.978	0.98
227.195	-2.44
227.413	2.58
227.63	5.58
227.847	3.17
228.064	6.49
228.282	4.9
228.499	-2.06
228.716	0.11
228.934	2.33
229.151	0.18
229.368	2.73
229.585	6.93
229.802	5.87
230.02	4.68
230.237	6.06
230.454	7.83
230.671	6.7
230.888	8.04
231.105	7.26
231.323	10.15
231.54	15.11
231.757	14.57
231.974	8.56
232.191	7.94
232.408	11.87
232.625	5.51
232.842	1.53
233.059	5.03
233.276	3.41
233.493	3.61
233.71	1.51
233.927	-2.08
234.144	-3.63
234.361	1.11
234.578	6.1
234.795	3.91
235.012	6.92
235.229	6.67
235.446	8.45
235.663	5.65
235.879	4.21
236.096	1.84
236.313	2.22
236.53	5.73
236.747	8.88
236.964	11.48
237.181	9.54
237.397	12.93
237.614	12.65
237.831	8.21
238.048	14.86
238.264	16.99
238.481	13.51
238.698	16.43
238.915	15.3
239.131	9.25
239.348	6.41
239.565	7.53
239.781	8.27
239.998	11.2
240.215	13.07
240.431	12.95
240.648	15.39
240.865	16.05
241.081	16.22
241.298	16
241.514	15.16
241.731	17.27
241.947	15.62
242.164	15.93
242.38	15.09
242.597	15.59
242.814	14.06
243.03	13.37
243.246	14.48
243.463	14.09
243.679	14.82
243.896	17.88
244.112	16.21
244.329	19.65
244.545	18.66
244.762	16.93
244.978	15.68
245.194	14.17
245.411	11.98
245.627	11.82
245.843	12.03
246.06	10.17
246.276	7.66
246.492	7.38
246.709	5.59
246.925	7.06
247.141	8.69
247.357	8.71
247.574	9.86
247.79	10.49
248.006	10.91
248.222	11.15
248.439	11.91
248.655	13.31
248.871	13.11
249.087	13.11
249.303	12.39
249.519	11.69
249.736	10.96
249.952	10.47
250.168	10.27
250.384	7.73
250.6	5.41
250.816	5.06
251.032	3.72
251.248	6.86
251.464	6.14
251.68	7.36
251.896	9.09
252.112	9.7
252.328	9.34
252.544	10.18
252.76	11
252.976	12.15
253.192	11.27
253.408	11.38
253.624	12.14
253.84	13.17
254.056	12.19
254.272	12.36
254.487	12.95
254.703	13.04
254.919	13.63
255.135	14.33
255.351	12.16
255.567	14.44
255.782	15.16
255.998	13.04
256.214	12.27
256.43	14.25
256.646	12.69
256.861	9.24
257.077	9.92
257.293	9.4
257.508	8.45
257.724	8.84
257.94	7.71
258.155	7.66
258.371	7.43
258.587	9.58
258.802	9.04
259.018	9.02
259.234	8.79
259.449	9.14
259.665	8.52
259.88	9.3
260.096	9.61
260.312	9.55
260.527	9.66
260.743	9.56
260.958	8.61
261.174	8.68
261.389	8.29
261.605	10.01
261.82	10.1
262.036	11.42
262.251	11.09
262.466	11.59
262.682	12.21
262.897	12.61
263.113	11.58
263.328	11.77
263.543	11.64
263.759	12.31
263.974	11.62
264.189	11.59
264.405	10.4
264.62	8.55
264.835	7.46
265.051	8.19
265.266	7.46
265.481	9.07
265.696	8.7
265.912	8.68
266.127	8.87
266.342	9.26
266.557	8.19
266.773	6.78
266.988	7.76
267.203	7.18
267.418	7.32
267.633	7.23
267.848	7.04
268.064	7.45
268.279	7.2
268.494	6.6
268.709	7.38
268.924	9.17
269.139	10.73
269.354	11.24
269.569	11.65
269.784	11.84
269.999	10.28
270.214	9.94
270.429	9.86
270.644	10.32
270.859	10.93
271.074	9.62
271.289	9.52
271.504	8.81
271.719	8.58
271.934	8.08
272.149	6.92
272.363	8.32
272.578	9.43
272.793	9.52
273.008	9.02
273.223	8.91
273.438	8.66
273.653	8.24
273.867	9.49
274.082	8.8
274.297	9.81
274.512	10.51
274.726	8.85
274.941	8.83
275.156	9.22
275.371	8.58
275.585	7.6
275.8	7.82
276.015	8.11
276.229	7.42
276.444	8.35
276.659	8.26
276.873	8.64
277.088	11.49
277.302	11.14
277.517	10.22
277.732	11.78
277.946	12.63
278.161	13.44
278.375	12.32
278.59	12.02
278.804	11.88
279.019	10.66
279.233	8.55
279.448	6.35
279.662	5.87
279.877	7.06
280.091	6.22
280.306	7.01
280.52	5.78
280.735	6.72
280.949	5.98
281.163	6.4
281.378	6.66
281.592	7.69
281.806	8.11
282.021	6.09
282.235	5.11
282.449	5.14
282.664	3.69
282.878	4.61
283.092	4.35
283.307	5.71
283.521	5.04
283.735	5.17
283.949	5.34
284.164	5.94
284.378	7.14
284.592	8.17
284.806	7.74
285.02	8.3
285.234	7.91
285.449	7.33
285.663	6.91
285.877	7.51
286.091	7.78
286.305	7.3
286.519	7.08
286.733	6.74
286.947	6.28
287.161	6.74
287.375	7.3
287.589	8.3
287.803	8.74
288.017	8.28
288.231	8.59
288.445	8.93
288.659	9.84
288.873	10.57
289.087	11.15
289.301	10.99
289.515	11.7
289.729	11.34
289.943	10.61
290.157	10.8
290.371	10.51
290.584	11.19
290.798	11.38
291.012	11.67
291.226	11.43
291.44	12.17
291.654	12.5
291.867	12.04
292.081	12.34
292.295	12.66
292.509	12.66
292.722	13.61
292.936	12.09
293.15	11.83
293.364	10.99
293.577	11.14
293.791	11.3
294.005	9.25
294.218	8.9
294.432	9.32
294.645	8.98
294.859	8.63
295.073	8.47
295.286	8.33
295.5	8.09
295.713	8.48
295.927	6.96
296.14	6.81
296.354	8.12
296.568	7.82
296.781	7.31
296.994	8.11
297.208	9.52
297.421	9.28
297.635	9.98
297.848	10.48
298.062	10.38
298.275	11.64
298.489	11.64
298.702	12.14
298.915	12.89
299.129	13.97
299.342	13.34
299.555	12.96
299.769	13.46
299.982	12.68
300.195	12.38
300.409	12.28
300.622	11.83
300.835	12.36
301.048	10.81
301.262	11.19
301.475	10.27
301.688	10.35
301.901	9.23
302.115	8.26
302.328	8.11
302.541	8.33
302.754	8.01
302.967	8.02
303.18	8.95
303.393	10.14
303.607	9.67
303.82	10.08
304.033	9.51
304.246	9.84
304.459	11.4
304.672	11.75
304.885	12.52
305.098	12.85
305.311	12.66
305.524	10.88
305.737	11.91
305.95	12.09
306.163	12.27
306.376	13.69
306.589	13.57
306.802	13.11
307.015	14.4
307.228	12.93
307.44	13.51
307.653	14.23
307.866	14.96
308.079	14.3
308.292	13.64
308.505	13.05
308.718	13.53
308.93	13.97
309.143	13.43
309.356	13.06
309.569	13.91
309.781	13.52
309.994	12.72
310.207	12.4
310.42	11.54
310.632	12.58
310.845	12.75
311.058	11.87
311.27	11.82
311.483	11.66
311.696	11.59
311.908	11.86
312.121	11.61
312.333	11.42
312.546	11.85
312.759	12.69
312.971	11.8
313.184	11.82
313.396	11.83
313.609	11.35
313.821	11.8
314.034	11.52
314.246	10.6
314.459	11.67
314.671	12.88
314.884	13.55
315.096	13.06
315.309	12.3
315.521	11.58
315.733	12.01
315.946	11.2
316.158	10.99
316.371	11.49
316.583	11.23
316.795	11.14
317.008	11.4
317.22	10.89
317.432	12.18
317.644	12.62
317.857	14.21
318.069	13.76
318.281	14.32
318.494	14.77
318.706	15.88
318.918	16.06
319.13	16.3
319.342	15.81
319.555	13.93
319.767	13.02
319.979	13.82
320.191	12.84
320.403	14.3
320.615	14.08
320.827	13.2
321.039	11.74
321.252	11.54
321.464	11.35
321.676	10.93
321.888	12.86
322.1	13.43
322.312	12.94
322.524	13.47
322.736	12.23
322.948	12.96
323.16	13.1
323.372	12.43
323.584	12.96
323.796	12.65
324.007	13.04
324.219	13.38
324.431	13.02
324.643	13.71
324.855	14.26
325.067	14.1
325.279	15.24
325.491	16.75
325.702	17.34
325.914	18.15
326.126	18.93
326.338	17.72
326.55	17.63
326.761	18.34
326.973	18.28
327.185	17.29
327.396	17.72
327.608	17.73
327.82	17.81
328.032	17.8
328.243	17.09
328.455	16.22
328.666	17.74
328.878	17.4
329.09	17.09
329.301	16.87
329.513	17.08
329.725	16.83
329.936	17.34
330.148	15.51
330.359	16.21
330.571	16.53
330.782	16.61
330.994	17.12
331.205	17.54
331.417	16.71
331.628	17.36
331.84	18.09
332.051	19.01
332.262	18.17
332.474	20.4
332.685	20.56
332.897	20.16
333.108	21.82
333.319	22.22
333.531	22.4
333.742	23.86
333.953	23.82
334.165	23.64
334.376	23.71
334.587	23.36
334.799	22.25
335.01	21.84
335.221	22.8
335.432	22.51
335.644	21.23
335.855	21.58
336.066	21.83
336.277	22.51
336.488	22.76
336.7	22.41
336.911	22.24
337.122	22.49
337.333	22.64
337.544	22.81
337.755	22.63
337.966	24.08
338.177	23.53
338.388	22.86
338.599	22.53
338.811	21.79
339.022	20.88
339.233	21.46
339.444	21.63
339.655	22.15
339.866	21.77
340.076	21.32
340.287	21.04
340.498	21.38
340.709	21.46
340.92	21.69
341.131	21.74
341.342	23.13
341.553	23.05
341.764	22.7
341.975	22.62
342.185	22.93
342.396	22.87
342.607	22.46
342.818	20.99
343.029	20.43
343.239	20.37
343.45	20.78
343.661	19.54
343.872	19.31
344.082	18.47
344.293	18.06
344.504	17.74
344.714	18.01
344.925	17.53
345.136	18.71
345.346	19.5
345.557	19.44
345.768	19.32
345.978	19.84
346.189	20.15
346.399	20.76
346.61	20.92
346.821	20.52
347.031	20.52
347.242	20.64
347.452	20.74
347.663	20.75
347.873	20.28
348.084	20.59
348.294	21.22
348.504	21.1
348.715	21.31
348.925	21.5
349.136	21.44
349.346	20.68
349.557	21.02
349.767	21.36
349.977	21.46
350.188	21.46
350.398	21.19
350.608	21.47
350.819	21.81
351.029	21.63
351.239	20.9
351.449	21.93
351.66	21.59
351.87	21.89
352.08	21.62
352.29	20.78
352.501	21.68
352.711	21.69
352.921	21.01
353.131	20.63
353.341	20.64
353.552	21.12
353.762	19.64
353.972	21.37
354.182	20.31
354.392	20.22
354.602	20.49
354.812	19.62
355.022	19.39
355.232	19.64
355.442	19.43
355.652	20.11
355.862	20.44
356.072	21.21
356.282	20.88
356.492	21.78
356.702	22.2
356.912	22.07
357.122	22.57
357.332	23.24
357.542	23.15
357.752	23.18
357.962	22.28
358.171	21.8
358.381	21.82
358.591	20.98
358.801	20.59
359.011	19.68
359.221	19.98
359.43	19.66
359.64	19
359.85	18.86
360.06	18.76
360.269	19.28
360.479	19.76
360.689	19.57
360.899	20
361.108	20.23
361.318	20.09
361.528	19.88
361.737	19.55
361.947	19.75
362.156	19.4
362.366	19.69
362.576	19.67
362.785	19.31
362.995	19.37
363.204	19.02
363.414	18.68
363.623	19.07
363.833	18.71
364.042	18.67
364.252	19.11
364.461	19.79
364.671	19.56
364.88	19.38
365.09	18.89
365.299	18.49
365.509	18.93
365.718	19.14
365.927	18.98
366.137	18.85
366.346	18.97
366.555	18.47
366.765	18.05
366.974	18.15
367.183	18.14
367.393	18.57
367.602	18.66
367.811	18.43
368.021	17.89
368.23	17.62
368.439	17.98
368.648	18.37
368.857	17.7
369.067	17.38
369.276	17.14
369.485	16.71
369.694	16.97
369.903	17.08
370.112	16.91
370.321	17.28
370.531	17.63
370.74	17.83
370.949	17.63
371.158	17.76
371.367	18.21
371.576	18.35
371.785	18.52
371.994	17.89
372.203	17.14
372.412	17.26
372.621	17.01
372.83	16.69
373.039	16.07
373.248	15.7
373.457	15.89
373.666	15.85
373.874	15.52
374.083	15.31
374.292	15.19
374.501	15.61
374.71	15.47
374.919	15.51
375.128	15.88
375.336	16.24
375.545	15.75
375.754	15.8
375.963	15.06
376.171	14.91
376.38	14.68
376.589	14.64
376.798	14.52
377.006	14.29
377.215	14.33
377.424	13.99
377.632	13.59
377.841	13.94
378.05	13.4
378.258	13.36
378.467	13.18
378.675	13.4
378.884	13.43
379.093	13.54
379.301	13.3
379.51	13.09
379.718	13.03
379.927	13.1
380.135	12.84
380.344	13.31
380.552	13.48
380.761	13.49
380.969	13.48
381.177	13.7
381.386	13.04
381.594	12.84
381.803	12.5
382.011	12.26
382.219	11.93
382.428	12.26
382.636	12.06
382.845	12.1
383.053	12.41
383.261	11.99
383.469	11.65
383.678	11.82
383.886	12.06
384.094	12.03
384.302	12.52
384.511	12.79
384.719	12.47
384.927	12.51
385.135	12.77
385.343	12.55
385.552	12.7
385.76	12.56
385.968	12.67
386.176	12.59
386.384	12.89
386.592	12.58
386.8	12.57
387.008	12.74
387.216	12.69
387.424	12.34
387.633	11.95
387.841	11.73
388.049	11.47
388.257	11.41
388.465	11.4
388.672	11.29
388.88	11.22
389.088	11.26
389.296	10.63
389.504	10.3
389.712	10.06
389.92	10.24
390.128	10.19
390.336	10.23
390.544	10.32
390.751	10.06
390.959	9.81
391.167	9.64
391.375	9.45
391.583	9.92
391.79	9.77
391.998	9.72
392.206	9.76
392.414	9.96
392.621	9.83
392.829	9.82
393.037	9.74
393.244	9.84
393.452	9.62
393.66	9.58
393.867	9.44
394.075	9.61
394.283	9.77
394.49	9.85
394.698	9.97
394.905	10.21
395.113	9.94
395.32	10.14
395.528	9.96
395.735	9.9
395.943	9.92
396.15	9.8
396.358	9.65
396.565	9.82
396.773	9.27
396.98	8.96
397.188	8.6
397.395	8.72
397.602	8.69
397.81	8.96
398.017	9.15
398.225	8.82
398.432	8.86
398.639	8.86
398.847	8.28
399.054	8.6
399.261	8.28
399.468	8.84
399.676	8.96
399.883	8.73
400.09	8.12
400.297	7.94
400.505	7.77
400.712	7.74
400.919	7.72
401.126	8
401.333	7.98
401.54	7.95
401.748	7.84
401.955	7.75
402.162	8.01
402.369	8.2
402.576	8.25
402.783	8.54
402.99	8.33
403.197	8.05
403.404	7.85
403.611	8.24
403.818	8.28
404.025	8.11
404.232	8.01
404.439	7.86
404.646	7.69
404.853	7.76
405.06	7.86
405.267	7.92
405.474	8.06
405.681	8.1
405.887	7.81
406.094	7.92
406.301	7.88
406.508	7.68
406.715	7.62
406.922	7.91
407.128	8.1
407.335	7.8
407.542	7.67
407.749	7.73
407.955	7.84
408.162	7.78
408.369	7.37
408.575	7.51
408.782	7.65
408.989	8.02
409.195	8.02
409.402	7.47
409.609	7.75
409.815	7.72
410.022	7.77
410.228	7.75
410.435	7.72
410.642	7.91
410.848	7.48
411.055	7.43
411.261	7.08
411.468	6.92
411.674	7.26
411.881	6.9
412.087	6.96
412.294	6.83
412.5	6.85
412.706	6.72
412.913	6.74
413.119	6.8
413.326	6.78
413.532	6.82
413.738	6.73
413.945	6.55
414.151	6.71
414.357	6.64
414.564	6.65
414.77	6.43
414.976	6.42
415.182	6.45
415.389	6.64
415.595	6.44
415.801	6.54
416.007	6.49
416.214	6.34
416.42	6.41
416.626	6.46
416.832	6.36
417.038	6.45
417.244	6.45
417.45	6.39
417.657	6.4
417.863	6.59
418.069	6.33
418.275	6.58
418.481	6.58
418.687	6.65
418.893	6.53
419.099	6.86
419.305	6.65
419.511	6.53
419.717	6.65
419.923	6.64
420.129	6.67
420.335	6.85
420.541	6.81
420.746	6.79
420.952	6.59
421.158	6.57
421.364	6.4
421.57	6.37
421.776	6.41
421.982	6.37
422.187	6.25
422.393	6.21
422.599	6.03
422.805	5.82
423.01	5.91
423.216	5.88
423.422	5.97
423.628	5.87
423.833	5.9
424.039	5.93
424.245	5.99
424.45	6.21
424.656	6.13
424.862	6.21
425.067	6.38
425.273	6.41
425.478	6.5
425.684	6.49
425.889	6.38
426.095	6.44
426.301	6.45
426.506	6.43
426.712	6.2
426.917	6.14
427.123	5.93
427.328	5.64
427.533	5.59
427.739	5.38
427.944	5.4
428.15	5.43
428.355	5.58
428.561	5.49
428.766	5.37
428.971	5.49
429.177	5.62
429.382	5.8
429.587	6.06
429.793	6.08
429.998	6.26
430.203	5.98
430.408	6.01
430.614	6.11
430.819	6.03
431.024	6.24
431.229	6.11
431.434	5.8
431.64	5.82
431.845	5.83
432.05	5.87
432.255	5.82
432.46	6.11
432.665	6.09
432.87	6.03
433.076	6.36
433.281	6.19
433.486	6.07
433.691	6.28
433.896	6.32
434.101	6.34
434.306	6.24
434.511	6.25
434.716	6.07
434.921	6.2
435.126	6.07
435.331	5.68
435.535	5.54
435.74	5.46
435.945	5.43
436.15	5.54
436.355	5.37
436.56	5.38
436.765	5.17
436.97	5.24
437.174	5.25
437.379	5.21
437.584	5.52
437.789	5.55
437.993	5.89
438.198	5.89
438.403	5.69
438.608	5.8
438.812	5.9
439.017	6.29
439.222	6.36
439.426	6.18
439.631	6.06
439.836	5.98
440.04	5.95
440.245	5.86
440.45	5.87
440.654	6.07
440.859	6.08
441.063	6
441.268	5.81
441.472	5.77
441.677	5.88
441.881	6.01
442.086	5.84
442.29	5.9
442.495	5.79
442.699	5.83
442.904	5.51
443.108	5.4
443.312	5.29
443.517	5.29
443.721	5.25
443.925	5.3
444.13	5.34
444.334	5.44
444.538	5.48
444.743	5.44
444.947	5.35
445.151	5.31
445.356	5.48
445.56	5.46
445.764	5.55
445.968	5.49
446.173	5.44
446.377	5.4
446.581	5.36
446.785	5.34
446.989	5.4
447.193	5.49
447.398	5.51
447.602	5.34
447.806	5.39
448.01	5.43
448.214	5.56
448.418	5.5
448.622	5.46
448.826	5.47
449.03	5.38
449.234	5.34
449.438	5.27
449.642	5.45
449.846	5.58
450.05	5.57
450.254	5.38
450.458	5.48
450.662	5.49
450.866	5.47
451.069	5.37
451.273	5.42
451.477	5.42
451.681	5.55
451.885	5.37
452.089	5.13
452.292	5.11
452.496	5.17
452.7	4.86
452.904	4.88
453.107	5.16
453.311	5.29
453.515	5.2
453.719	5.34
453.922	5.13
454.126	5.03
454.33	5.05
454.533	5.14
454.737	5.25
454.94	5.44
455.144	5.27
455.348	4.98
455.551	5.04
455.755	5.06
455.958	4.98
456.162	5.11
456.365	5.4
456.569	5.63
456.772	5.71
456.976	5.36
457.179	5.33
457.383	5.53
457.586	5.58
457.79	5.39
457.993	5.31
458.196	5.09
458.4	4.87
458.603	4.65
458.807	4.66
459.01	4.65
459.213	4.84
459.417	4.79
459.62	4.83
459.823	4.89
460.026	4.99
460.23	5.02
460.433	5.18
460.636	5.29
460.839	5.47
461.042	5.4
461.246	5.45
461.449	5.41
461.652	5.4
461.855	5.4
462.058	5.36
462.261	5.26
462.464	5.42
462.668	5.44
462.871	5.47
463.074	5.27
463.277	5.32
463.48	5.29
463.683	5.51
463.886	5.52
464.089	5.59
464.292	5.69
464.495	5.52
464.698	5.52
464.901	5.58
465.104	5.62
465.306	5.64
465.509	5.63
465.712	5.53
465.915	5.31
466.118	5.27
466.321	5.27
466.524	5.12
466.726	5.26
466.929	5.19
467.132	5.02
467.335	4.93
467.538	5.07
467.74	5.16
467.943	5.04
468.146	5.09
468.348	5.05
468.551	4.89
468.754	4.93
468.956	5.05
469.159	5.07
469.362	5.24
469.564	5.44
469.767	5.4
469.969	5.42
470.172	5.48
470.375	5.49
470.577	5.65
470.78	5.73
470.982	5.85
471.185	5.85
471.387	5.87
471.59	5.7
471.792	5.61
471.995	5.48
472.197	5.45
472.399	5.32
472.602	5.28
472.804	5.32
473.007	5.41
473.209	5.28
473.411	5.31
473.614	5.22
473.816	5.15
474.018	5.05
474.22	5.32
474.423	5.25
474.625	5.49
474.827	5.7
475.03	5.66
475.232	5.6
475.434	5.61
475.636	5.34
475.838	5.43
476.04	5.59
476.243	5.63
476.445	5.42
476.647	5.52
476.849	5.58
477.051	5.24
477.253	5.23
477.455	5.14
477.657	5.02
477.859	5.29
478.061	5.33
478.263	5.34
478.465	5.44
478.667	5.35
478.869	5.35
479.071	5.18
479.273	5.37
479.475	5.25
479.677	5.37
479.879	5.45
480.081	5.27
480.283	5.25
480.485	5.28
480.686	5.06
480.888	5.16
481.09	5.14
481.292	5.4
481.494	5.35
481.695	5.46
481.897	5.43
482.099	5.46
482.301	5.5
482.502	5.38
482.704	5.38
482.906	5.36
483.107	5.4
483.309	5.36
483.511	5.22
483.712	5.25
483.914	5.27
484.115	5.25
484.317	5.19
484.519	5.17
484.72	5.24
484.922	5.15
485.123	5.22
485.325	5.13
485.526	5.12
485.728	5.19
485.929	5.14
486.131	5.11
486.332	5.14
486.534	5.17
486.735	5.16
486.936	5.08
487.138	5.15
487.339	5.14
487.541	5.26
487.742	5.29
487.943	5.24
488.144	5.25
488.346	5.22
488.547	5.19
488.748	5.21
488.95	5.19
489.151	5.14
489.352	5.13
489.553	5.11
489.755	5.03
489.956	4.94
490.157	4.92
490.358	4.98
490.559	4.96
490.76	4.95
490.961	4.96
491.163	5.03
491.364	5.21
491.565	5.3
491.766	5.39
491.967	5.49
492.168	5.51
492.369	5.49
492.57	5.45
492.771	5.5
492.972	5.53
493.173	5.58
493.374	5.69
493.575	5.61
493.776	5.47
493.976	5.34
494.177	5.28
494.378	5.39
494.579	5.43
494.78	5.4
494.981	5.32
495.182	5.27
495.382	5.2
495.583	5.05
495.784	5.1
495.985	5.24
496.185	5.4
496.386	5.29
496.587	5.21
496.788	5.32
496.988	5.2
497.189	5.24
497.39	5.41
497.59	5.46
497.791	5.45
497.992	5.44
498.192	5.49
498.393	5.34
498.593	5.47
498.794	5.42
498.994	5.39
499.195	5.67
499.395	5.6
499.596	5.47
499.796	5.39
499.997	5.55
500.197	5.76
500.398	5.65
500.598	5.56
500.799	5.54
500.999	5.69
501.199	5.8
501.4	5.8
501.6	5.88
501.801	5.88
502.001	6.03
502.201	6.02
502.402	5.84
502.602	6.11
502.802	6.35
503.002	6.33
503.203	6.22
503.403	6.15
503.603	6.17
503.803	6.52
504.003	6.61
504.204	6.7
504.404	6.95
504.604	6.97
504.804	7.02
505.004	6.98
505.204	7.11
505.404	7.29
505.604	7.28
505.804	7.42
506.005	7.3
506.205	7.38
506.405	7.28
506.605	7.15
506.805	7.31
507.005	7.26
507.204	7.42
507.404	7.65
507.604	7.7
507.804	7.96
508.004	7.85
508.204	7.79
508.404	7.79
508.604	7.91
508.804	8
509.003	8.08
509.203	8.1
509.403	8.09
509.603	8.13
509.803	8.2
510.002	8.17
510.202	8.32
510.402	8.55
510.602	8.77
510.801	8.82
511.001	8.88
511.201	8.84
511.4	8.9
511.6	9.14
511.8	9.08
511.999	9.22
512.199	9.17
512.398	9.33
512.598	9.46
512.797	9.39
512.997	9.64
513.197	9.63
513.396	9.72
513.596	9.77
513.795	9.79
513.994	9.96
514.194	9.89
514.393	10.01
514.593	9.99
514.792	9.98
514.992	10.11
515.191	10
515.39	10.14
515.59	10.28
515.789	10.49
515.988	10.55
516.188	10.5
516.387	10.6
516.586	10.87
516.786	10.98
516.985	11.2
517.184	11.35
517.383	11.56
517.582	11.61
517.782	11.62
517.981	11.66
518.18	11.77
518.379	11.98
518.578	12.28
518.777	12.34
518.976	12.49
519.176	12.4
519.375	12.53
519.574	12.69
519.773	12.91
519.972	13.11
520.171	13.32
520.37	13.58
520.569	13.66
520.768	13.56
520.967	13.74
521.166	13.89
521.365	14.21
521.564	14.38
521.762	14.29
521.961	14.36
522.16	14.53
522.359	14.47
522.558	14.44
522.757	14.45
522.956	14.71
523.154	14.82
523.353	14.9
523.552	15.16
523.751	15.2
523.949	15.53
524.148	15.57
524.347	15.7
524.546	15.99
524.744	16.11
524.943	16.29
525.142	16.32
525.34	16.48
525.539	16.46
525.737	16.46
525.936	16.67
526.135	16.88
526.333	17.1
526.532	17.16
526.73	17.24
526.929	17.37
527.127	17.49
527.326	17.72
527.524	17.86
527.723	18.04
527.921	18.18
528.12	18.21
528.318	18.25
528.516	18.24
528.715	18.41
528.913	18.53
529.112	18.71
529.31	18.72
529.508	18.71
529.707	18.75
529.905	18.84
530.103	18.9
530.301	18.96
530.5	19.01
530.698	19.2
530.896	19.29
531.094	19.37
531.293	19.46
531.491	19.71
531.689	19.95
531.887	20.06
532.085	20.32
532.283	20.4
532.481	20.61
532.68	20.61
532.878	20.67
533.076	20.7
533.274	20.81
533.472	20.81
533.67	20.94
533.868	20.99
534.066	21.13
534.264	21.09
534.462	21.18
534.66	21.13
534.858	21.32
535.056	21.53
535.253	21.57
535.451	21.62
535.649	21.62
535.847	21.7
536.045	21.89
536.243	21.86
536.441	22.01
536.638	22.09
536.836	22.27
537.034	22.39
537.232	22.37
537.43	22.5
537.627	22.54
537.825	22.76
538.023	22.69
538.22	22.52
538.418	22.74
538.616	22.63
538.813	22.78
539.011	22.99
539.209	22.99
539.406	23.14
539.604	23.31
539.801	23.41
539.999	23.45
540.196	23.66
540.394	23.75
540.591	23.79
540.789	24
540.986	23.99
541.184	23.95
541.381	24.07
541.579	24.12
541.776	24.14
541.974	24.19
542.171	24.3
542.368	24.34
542.566	24.49
542.763	24.54
542.96	24.51
543.158	24.57
543.355	24.58
543.552	24.66
543.75	24.7
543.947	24.7
544.144	24.73
544.341	24.7
544.539	24.73
544.736	24.62
544.933	24.61
545.13	24.82
545.327	24.94
545.524	25.03
545.722	25.04
545.919	25.02
546.116	25.09
546.313	25.28
546.51	25.34
546.707	25.41
546.904	25.63
547.101	25.73
547.298	25.59
547.495	25.54
547.692	25.6
547.889	25.59
548.086	25.66
548.283	25.79
548.48	25.86
548.677	25.89
548.874	25.87
549.07	26.02
549.267	26.07
549.464	26.23
549.661	26.41
549.858	26.65
550.055	26.81
550.251	27.02
550.448	26.97
550.645	27.1
550.842	27.03
551.038	27.36
551.235	27.27
551.432	27.29
551.628	27.37
551.825	27.38
552.022	27.4
552.218	27.42
552.415	27.26
552.612	27.47
552.808	27.34
553.005	27.69
553.201	27.62
553.398	27.65
553.594	27.82
553.791	27.92
553.987	28.02
554.184	27.91
554.38	27.96
554.577	28.25
554.773	28.31
554.97	28.42
555.166	28.24
555.362	28.32
555.559	28.45
555.755	28.21
555.952	28.26
556.148	28.31
556.344	28.58
556.541	28.52
556.737	28.34
556.933	28.42
557.129	28.41
557.326	28.35
557.522	28.48
557.718	28.51
557.914	28.77
558.11	28.9
558.307	29
558.503	28.92
558.699	29.06
558.895	29.1
559.091	29.24
559.287	29.51
559.483	29.62
559.679	29.61
559.876	29.79
560.072	29.86
560.268	29.64
560.464	29.66
560.66	29.75
560.856	29.97
561.052	30.16
561.247	29.98
561.443	29.83
561.639	29.84
561.835	29.97
562.031	29.79
562.227	29.79
562.423	29.66
562.619	29.53
562.815	29.31
563.01	29.05
563.206	29.03
563.402	29.22
563.598	29.46
563.793	29.45
563.989	29.24
564.185	29.3
564.381	29.38
564.576	29.64
564.772	29.75
564.968	29.96
565.163	30.16
565.359	30.21
565.555	30.21
565.75	30.05
565.946	30.06
566.141	30.28
566.337	30.33
566.532	30.4
566.728	30.41
566.923	30.44
567.119	30.61
567.314	30.79
567.51	30.7
567.705	30.57
567.901	30.51
568.096	30.63
568.292	30.54
568.487	30.5
568.682	30.54
568.878	30.69
569.073	30.69
569.268	30.61
569.464	30.29
569.659	30.3
569.854	30.23
570.05	30.63
570.245	30.76
570.44	30.77
570.635	30.88
570.831	30.96
571.026	31.08
571.221	31.24
571.416	31.13
571.611	31.26
571.806	31.49
572.002	31.55
572.197	31.31
572.392	31.31
572.587	31.31
572.782	31.22
572.977	31.12
573.172	31
573.367	30.88
573.562	30.94
573.757	31.05
573.952	30.91
574.147	31.08
574.342	31.32
574.537	31.36
574.732	31.42
574.927	31.65
575.121	31.71
575.316	31.79
575.511	31.73
575.706	31.78
575.901	31.68
576.096	31.53
576.29	31.51
576.485	31.52
576.68	31.5
576.875	31.53
577.069	31.59
577.264	31.55
577.459	31.48
577.654	31.56
577.848	31.5
578.043	31.5
578.238	31.87
578.432	31.98
578.627	31.88
578.821	32
579.016	32.14
579.21	31.75
579.405	31.81
579.6	31.76
579.794	31.73
579.989	31.58
580.183	31.49
580.378	31.6
580.572	31.54
580.766	31.59
580.961	31.81
581.155	31.73
581.35	32.08
581.544	32.12
581.738	32.08
581.933	32.34
582.127	32.84
582.321	33.15
582.516	32.65
582.71	32.72
582.904	32.48
583.099	31.97
583.293	32.05
583.487	31.86
583.681	31.67
583.875	31.75
584.07	31.67
584.264	31.65
584.458	31.34
584.652	31.56
584.846	31.42
585.04	31.56
585.234	31.64
585.428	31.46
585.623	31.39
585.817	31.73
586.011	31.77
586.205	31.78
586.399	31.67
586.593	31.92
586.787	32.09
586.981	32.01
587.174	32.08
587.368	32.08
587.562	32.31
587.756	32.66
587.95	32.53
588.144	32.54
588.338	32.2
588.532	32.21
588.725	32.45
588.919	32.25
589.113	32.67
589.307	32.47
589.501	32.82
589.694	32.9
589.888	32.7
590.082	32.66
590.275	32.81
590.469	33.11
590.663	32.93
590.856	32.79
591.05	32.92
591.244	32.88
591.437	32.96
591.631	32.8
591.824	32.5
592.018	32.71
592.212	32.71
592.405	32.48
592.599	32.42
592.792	32.59
592.986	32.41
593.179	32.55
593.372	32.5
593.566	32.75
593.759	32.7
593.953	32.88
594.146	32.8
594.339	32.64
594.533	32.87
594.726	32.83
594.92	32.81
595.113	32.74
595.306	32.54
595.499	32.44
595.693	32.34
595.886	32.38
596.079	32.4
596.272	32.4
596.466	32.6
596.659	32.53
596.852	32.74
597.045	32.83
597.238	32.9
597.431	32.82
597.624	32.93
597.818	33.04
598.011	33
598.204	33.04
598.397	33.03
598.59	33.17
598.783	33.22
598.976	33.12
599.169	33.04
599.362	32.95
599.555	33.44
599.748	33.37
599.941	33.3
600.134	33.58
600.326	33.5
600.519	33.89
600.712	33.57
600.905	33.52
601.098	33.53
601.291	33.67
601.483	33.96
601.676	33.73
601.869	33.88
602.062	34.01
602.255	33.69
602.447	33.68
602.64	33.66
602.833	33.7
603.025	33.77
603.218	33.82
603.411	33.87
603.603	33.85
603.796	33.91
603.989	34.01
604.181	33.97
604.374	33.86
604.566	33.8
604.759	33.78
604.951	33.91
605.144	33.99
605.336	33.96
605.529	33.82
605.721	33.82
605.914	33.95
606.106	33.87
606.299	33.93
606.491	34.16
606.683	34.39
606.876	34.34
607.068	34.17
607.26	34.18
607.453	34.26
607.645	34.21
607.837	34.36
608.03	34.37
608.222	34.51
608.414	34.16
608.606	34.05
608.799	33.97
608.991	33.73
609.183	33.81
609.375	33.56
609.567	33.45
609.759	33.55
609.952	33.45
610.144	33.22
610.336	32.98
610.528	33
610.72	33.26
610.912	33.2
611.104	33.27
611.296	33.2
611.488	33.23
611.68	33.11
611.872	32.86
612.064	32.9
612.256	32.86
612.448	32.89
612.64	33.32
612.832	32.93
613.023	33.02
613.215	32.65
613.407	32.78
613.599	33.11
613.791	33.19
613.983	33.92
614.174	33.5
614.366	33.68
614.558	33.64
614.75	33.5
614.941	33.92
615.133	33.61
615.325	33.91
615.516	33.9
615.708	33.63
615.9	33.75
616.091	33.12
616.283	33.47
616.475	33.42
616.666	33.62
616.858	33.59
617.049	33.81
617.241	33.9
617.432	34.1
617.624	34.25
617.815	34.37
618.007	34.6
618.198	35.11
618.39	35.29
618.581	35.31
618.773	35.35
618.964	35.19
619.155	34.73
619.347	34.93
619.538	34.99
619.729	34.89
619.921	35.17
620.112	35.17
620.303	34.95
620.494	34.74
620.686	34.59
620.877	34.4
621.068	34.53
621.259	34.65
621.451	34.6
621.642	34.47
621.833	34.98
622.024	34.78
622.215	34.77
622.406	35.13
622.597	35.34
622.788	35.56
622.98	35.78
623.171	35.74
623.362	35.86
623.553	35.92
623.744	36.13
623.935	35.45
624.126	35.25
624.317	34.93
624.508	34.7
624.698	34.75
624.889	34.97
625.08	34.85
625.271	34.95
625.462	34.7
625.653	34.68
625.844	34.62
626.034	35.06
626.225	35.11
626.416	35.37
626.607	35.36
626.798	35.19
626.988	34.79
627.179	34.75
627.37	34.63
627.56	34.89
627.751	34.54
627.942	34.46
628.132	34.4
628.323	34.42
628.514	34.28
628.704	34.1
628.895	34.34
629.085	34.81
629.276	34.81
629.466	34.79
629.657	34.66
629.847	35.07
630.038	35.16
630.228	34.94
630.419	35.04
630.609	35.01
630.8	35.1
630.99	34.96
631.181	34.82
631.371	34.78
631.561	34.99
631.752	35.16
631.942	35.22
632.132	35.01
632.323	34.82
632.513	34.73
632.703	35.17
632.893	35.11
633.084	34.93
633.274	34.73
633.464	34.73
633.654	34.63
633.844	34.43
634.034	34.37
634.225	34.7
634.415	35.08
634.605	35.28
634.795	35.34
634.985	35.03
635.175	35.28
635.365	35.16
635.555	35.21
635.745	35.26
635.935	35.31
636.125	35.36
636.315	35.08
636.505	34.8
636.695	34.92
636.885	34.85
637.075	35.42
637.265	35.34
637.455	35.52
637.644	35.66
637.834	35.56
638.024	35.51
638.214	35.67
638.404	35.88
638.593	36.24
638.783	35.7
638.973	35.4
639.163	35.37
639.352	35.13
639.542	35.25
639.732	35.27
639.921	35.47
640.111	35.43
640.301	35.35
640.49	35.43
640.68	35.63
640.87	35.86
641.059	36.14
641.249	36.06
641.438	36.18
641.628	36.3
641.817	36.14
642.007	35.98
642.196	36.44
642.386	36.47
642.575	36.39
642.764	35.98
642.954	36.51
643.143	36.32
643.333	36.47
643.522	36.8
643.711	36.75
643.901	36.76
644.09	36.43
644.279	36.36
644.469	36.19
644.658	35.58
644.847	35.94
645.036	35.72
645.226	35.61
645.415	35.3
645.604	34.76
645.793	34.35
645.982	34.34
646.171	34.77
646.361	34.34
646.55	34.29
646.739	34.68
646.928	34.39
647.117	34.01
647.306	34.11
647.495	34.49
647.684	34.4
647.873	34.36
648.062	34.78
648.251	34.42
648.44	34.88
648.629	35.09
648.818	35.1
649.007	34.94
649.196	35.16
649.384	35.16
649.573	34.76
649.762	35.27
649.951	35.41
650.14	34.87
650.328	35.15
650.517	35.18
650.706	35.26
650.895	35.43
651.083	35.07
651.272	34.94
651.461	34.72
651.65	35.19
651.838	34.77
652.027	35.09
652.216	35.15
652.404	35.51
652.593	35.34
652.781	35.28
652.97	35.25
653.158	35.57
653.347	35.73
653.535	35.99
653.724	35.7
653.912	35.56
654.101	35.19
654.289	35.2
654.478	35.01
654.666	34.36
654.855	34.17
655.043	34.44
655.231	34.66
655.42	34.9
655.608	35.02
655.796	34.98
655.985	35.29
656.173	35.81
656.361	35.93
656.55	36.07
656.738	36.5
656.926	36.43
657.114	35.97
657.302	35.79
657.491	35.67
657.679	35.42
657.867	35.48
658.055	35.71
658.243	35.42
658.431	35.34
658.619	35.4
658.807	35.66
658.996	35.9
659.184	36.05
659.372	36.3
659.56	35.9
659.748	36.08
659.936	35.78
660.124	35.86
660.311	35.87
660.499	35.61
660.687	35.35
660.875	35.15
661.063	35.18
661.251	35.3
661.439	35.33
661.627	35.65
661.814	35.49
662.002	35.93
662.19	35.94
662.378	35.94
662.565	36.38
662.753	36.27
662.941	35.95
663.129	35.76
663.316	35.55
663.504	34.92
663.692	34.73
663.879	34.46
664.067	34.12
664.254	34.08
664.442	34.65
664.63	34.71
664.817	35.39
665.005	35.71
665.192	35.96
665.38	35.96
665.567	36.66
665.755	36.82
665.942	37
666.13	36.96
666.317	36.64
666.504	36.06
666.692	36.39
666.879	36.04
667.067	36.3
667.254	36.32
667.441	37.13
667.629	36.99
667.816	36.91
668.003	37.27
668.19	37.65
668.378	38.06
668.565	38.83
668.752	38.41
668.939	38.77
669.127	38.54
669.314	39.06
669.501	38.25
669.688	38.08
669.875	38.31
670.062	38.38
670.249	38.1
670.436	37.67
670.623	37.22
670.81	37.51
670.997	37.16
671.184	37.13
671.371	36.04
671.558	35.9
671.745	35.71
671.932	35.68
672.119	35.12
672.306	35.35
672.493	35.28
672.68	34.69
672.867	34.26
673.054	34.02
673.24	34.15
673.427	34.4
673.614	34.56
673.801	35.13
673.988	35.47
674.174	35.94
674.361	36.11
674.548	36.82
674.734	37.62
674.921	37.79
675.108	37.28
675.294	37.25
675.481	37.13
675.668	37.36
675.854	36.65
676.041	35.99
676.227	35.85
676.414	35.29
676.601	34.86
676.787	34.76
676.974	34.7
677.16	35.83
677.347	35.85
677.533	36.21
677.719	36.44
677.906	36.43
678.092	36.58
678.279	36.68
678.465	37.11
678.651	37.24
678.838	37.12
679.024	36.83
679.21	36.39
679.397	36.3
679.583	36.08
679.769	36
679.955	36.37
680.142	36.17
680.328	35.94
680.514	36.17
680.7	36.35
680.886	36.43
681.073	36.59
681.259	36.68
681.445	36.75
681.631	36.72
681.817	36.71
682.003	36.91
682.189	37.62
682.375	37.65
682.561	37.28
682.747	36.91
682.933	36.37
683.119	36.54
683.305	36.69
683.491	36.87
683.677	37.07
683.863	36.92
684.049	36.59
684.235	36.46
684.42	36.64
684.606	37.08
684.792	37.34
684.978	37.57
685.164	37.79
685.349	37.86
685.535	37.28
685.721	37.48
685.907	36.96
686.092	36.77
686.278	36.63
686.464	36.78
686.649	36.51
686.835	36.15
687.021	36.02
687.206	35.76
687.392	34.91
687.577	35.43
687.763	35.26
687.948	35.63
688.134	35.86
688.319	34.94
688.505	34.87
688.69	34.94
688.876	34.95
689.061	34.81
689.247	34.85
689.432	35.47
689.618	35.42
689.803	35.86
689.988	36.22
690.174	36.27
690.359	36.93
690.544	36.34
690.73	36.1
690.915	36.1
691.1	36.39
691.285	36.81
691.471	36.75
691.656	36.59
691.841	36.7
692.026	36.32
692.211	36.28
692.396	36.07
692.582	36.86
692.767	36.59
692.952	36.5
693.137	36.35
693.322	35.62
693.507	35.94
693.692	35.8
693.877	35.06
694.062	35.45
694.247	35.24
694.432	34.92
694.617	35.14
694.802	35.47
694.987	35.63
695.172	35.78
695.357	36.63
695.541	36.46
695.726	37.23
695.911	37.95
696.096	38.18
696.281	38.27
696.466	38.63
696.65	37.83
696.835	37.85
697.02	38.57
697.204	38.58
697.389	38.56
697.574	38.72
697.759	38.22
697.943	37.75
698.128	37.41
698.312	37.6
698.497	37.68
698.682	37.81
698.866	37.79
699.051	37.42
699.235	37.46
699.42	36.9
699.604	37.03
699.789	36.76
699.973	36.67
700.158	36.54
700.342	36.58
700.527	37.03
700.711	37.34
700.895	37.92
701.08	37.42
701.264	37.78
701.448	38.1
701.633	37.68
701.817	37.99
702.001	37.93
702.186	37.75
702.37	37.61
702.554	36.6
702.738	36.37
702.923	35.47
703.107	36.07
703.291	35.97
703.475	35.98
703.659	35.7
703.843	35.95
704.027	36.35
704.212	36.23
704.396	36.2
704.58	37.03
704.764	36.64
704.948	36.62
705.132	36.44
705.316	36.16
705.5	36.08
705.684	36.34
705.868	36.12
706.052	36.17
706.235	36.61
706.419	37.58
706.603	36.41
706.787	36.23
706.971	36.53
707.155	35.65
707.339	35.81
707.522	35.78
707.706	35.82
707.89	35.75
708.074	36.1
708.257	36.09
708.441	35.05
708.625	36.18
708.808	36.75
708.992	36.7
709.176	37.32
709.359	37.17
709.543	37.49
709.727	37.3
709.91	37.1
710.094	36.8
710.277	37.65
710.461	38.34
710.644	38.03
710.828	38.42
711.011	38.36
711.195	38.38
711.378	37.93
711.562	38.3
711.745	38.06
711.928	38.55
712.112	38.75
712.295	37.83
712.478	36.95
712.662	36.7
712.845	36.3
713.028	36.36
713.212	36.47
713.395	36.23
713.578	36.05
713.761	35.72
713.945	35.49
714.128	35.84
714.311	36.08
714.494	36.63
714.677	36.37
714.86	36.64
715.043	36.78
715.227	37.28
715.41	37.29
715.593	36.71
715.776	36.72
715.959	36.31
716.142	35.69
716.325	35.57
716.508	35.34
716.691	36.21
716.874	36.13
717.057	35.59
717.239	35.78
717.422	36.22
717.605	36.76
717.788	36.59
717.971	36.75
718.154	36.92
718.337	36.88
718.519	37.08
718.702	36.48
718.885	36.78
719.068	37.09
719.25	36.5
719.433	35.95
719.616	35.56
719.798	36.44
719.981	36.71
720.164	36.22
720.346	36.19
720.529	36.46
720.712	36.39
720.894	34.56
721.077	34.2
721.259	34.02
721.442	35.06
721.624	34.72
721.807	34.44
721.989	35.4
722.172	35.42
722.354	35.81
722.537	35.75
722.719	36.71
722.901	37.68
723.084	37.89
723.266	37.16
723.448	37.54
723.631	36.75
723.813	37.93
723.995	36.71
724.178	36.49
724.36	36.46
724.542	36.4
724.724	35.72
724.907	36.57
725.089	37.05
725.271	38.36
725.453	37.5
725.635	38.58
725.817	37.46
725.999	37.87
726.181	37.1
726.364	36.19
726.546	36.14
726.728	36.51
726.91	35.86
727.092	35.69
727.274	35.3
727.456	35.03
727.638	34.3
727.819	34.94
728.001	34.24
728.183	34.92
728.365	35.83
728.547	35.6
728.729	35.34
728.911	35.09
729.093	34.92
729.274	34.82
729.456	35.66
729.638	36.23
729.82	36.23
730.001	36.88
730.183	37.08
730.365	37.05
730.546	37.08
730.728	37.41
730.91	37.64
731.091	38.25
731.273	38.45
731.455	38.45
731.636	38.96
731.818	39.23
731.999	39.36
732.181	39.41
732.362	39.12
732.544	38.55
732.725	38.11
732.907	38.61
733.088	38
733.27	38.35
733.451	37.28
733.633	37.09
733.814	37.47
733.995	37.25
734.177	37.29
734.358	37.07
734.539	37.77
734.721	37.61
734.902	36.45
735.083	36.93
735.264	35.72
735.446	37.84
735.627	37.37
735.808	36.3
735.989	36.74
736.17	36.96
736.351	37.79
736.533	38.12
736.714	37.75
736.895	39.03
737.076	40.41
737.257	41.7
737.438	40.49
737.619	40.99
737.8	39.57
737.981	39.31
738.162	39.22
738.343	38.78
738.524	37.55
738.705	38.02
738.886	37.54
739.067	37.13
739.247	36.38
739.428	36.32
739.609	36.31
739.79	37.32
739.971	36.57
740.151	36.81
740.332	37.77
740.513	38.44
740.694	38.12
740.874	38.66
741.055	37.27
741.236	37.52
741.417	36.01
741.597	35.08
741.778	35.11
741.958	35.08
742.139	34.83
742.32	34.17
742.5	33.99
742.681	35.34
742.861	34.71
743.042	35.47
743.222	34.81
743.403	35.52
743.583	36.8
743.764	35.92
743.944	36.82
744.124	37.17
744.305	36.51
744.485	37.33
744.666	36.67
744.846	36.34
745.026	35.37
745.207	35.94
745.387	36.01
745.567	35.94
745.747	37.69
745.928	37.42
746.108	36.51
746.288	36.64
746.468	35.75
746.648	35.28
746.829	35.89
747.009	36.46
747.189	35.89
747.369	36.23
747.549	35.18
747.729	34.7
747.909	33.82
748.089	32.66
748.269	32.91
748.449	32.32
748.629	32.76
748.809	32.87
748.989	32.5
749.169	32.55
749.349	33.22
749.529	33.86
749.709	35.26
749.889	36.67
750.068	38.09
750.248	37.98
750.428	38.75
750.608	39.02
750.788	38.14
750.967	37.86
751.147	38.43
751.327	37.9
751.507	36.86
751.686	36.47
751.866	36.77
752.046	36.06
752.225	36.44
752.405	36.83
752.585	37.45
752.764	38.04
752.944	39.03
753.123	39.3
753.303	40.95
753.482	42.13
753.662	40.95
753.841	40.53
754.021	41.01
754.2	40.64
754.38	40.77
754.559	39.49
754.739	38.69
754.918	37.53
755.097	37.64
755.277	36.77
755.456	37.85
755.635	38.01
755.815	37.88
755.994	38.19
756.173	37.61
756.352	37.61
756.532	37.29
756.711	38.57
756.89	38.25
757.069	37.92
757.248	36.83
757.427	35.07
757.607	36.85
757.786	37.64
757.965	38.72
758.144	40.03
758.323	38.79
758.502	39.25
758.681	39.74
758.86	40.56
759.039	39.79
759.218	39.74
759.397	40
759.576	38.14
759.755	37.63
759.934	36.02
760.113	35.72
760.291	36.16
760.47	36.99
760.649	36.53
760.828	36.69
761.007	37.84
761.186	37.23
761.364	37.34
761.543	36.89
761.722	36.59
761.901	37.47
762.079	36.5
762.258	36.14
762.437	36.34
762.615	36.01
762.794	36.02
762.972	35.18
763.151	35.74
763.33	35.84
763.508	35.95
763.687	36.39
763.865	35.62
764.044	36.38
764.222	36.99
764.401	36.49
764.579	36.91
764.758	36.56
764.936	36.39
765.114	37.02
765.293	37.4
765.471	38.49
765.65	37.21
765.828	38.33
766.006	37.74
766.184	37.45
766.363	37.38
766.541	36.53
766.719	37.42
766.898	38.86
767.076	39.55
767.254	39.6
767.432	39.58
767.61	40.02
767.788	39.79
767.967	40.56
768.145	40.52
768.323	39.47
768.501	40.53
768.679	40.15
768.857	39.63
769.035	38.33
769.213	37.53
769.391	36.64
769.569	36.75
769.747	35.12
769.925	34.44
770.103	35.55
770.281	36.13
770.459	35.67
770.636	35.92
770.814	34.67
770.992	35.35
771.17	33.52
771.348	33.82
771.525	34.75
771.703	35.72
771.881	35.2
772.059	35.11
772.236	35.63
772.414	36.71
772.592	35.02
772.769	35.95
772.947	34.94
773.125	37.36
773.302	35.84
773.48	34.63
773.657	35.28
773.835	35.18
774.013	36.01
774.19	37.45
774.368	36.03
774.545	37.56
774.723	36.52
774.9	37.34
775.077	37.4
775.255	38.1
775.432	37.72
775.61	38.41
775.787	39.29
775.964	37.39
776.142	36.15
776.319	37.89
776.496	36.25
776.674	37.61
776.851	36.87
777.028	36.59
777.205	37.91
777.382	38.32
777.56	35.27
777.737	36.14
777.914	37.05
778.091	37.61
778.268	35.33
778.445	36.17
778.622	34.57
778.8	35.11
778.977	34.4
779.154	33.22
779.331	34.09
779.508	35.97
779.685	36.16
779.862	35.78
780.038	34.98
780.215	35.38
780.392	37.32
780.569	39.77
780.746	41.98
780.923	42.19
781.1	44.29
781.277	43.09
781.453	41.81
781.63	39.58
781.807	40.36
781.984	39.36
782.16	39.79
782.337	37.32
782.514	37.31
782.691	33.35
782.867	34.14
783.044	31.66
783.221	32.45
783.397	35.93
783.574	37.54
783.75	36.37
783.927	39.55
784.103	38.3
784.28	38.21
784.456	37.64
784.633	39.82
784.809	40.53
784.986	41.17
785.162	40.36
785.339	37.28
785.515	36.14
785.692	35.47
785.868	35.73
786.044	37.47
786.221	37.83
786.397	38.39
786.573	36.93
786.749	34.32
786.926	34.94
787.102	36.42
787.278	36.27
787.454	38.09
787.631	37.35
787.807	33.61
787.983	33.6
788.159	32.57
788.335	32.36
788.511	34.03
788.687	33.45
788.863	32.74
789.039	32.5
789.216	33.23
789.392	32.56
789.568	35.3
789.744	37.65
789.919	37.18
790.095	39.77
790.271	39.3
790.447	37.46
790.623	38.48
790.799	37.55
790.975	37.11
791.151	37.86
791.327	37.75
791.502	36.58
791.678	34.66
791.854	33.68
792.03	32.65
792.205	30.62
792.381	30.41
792.557	32.47
792.733	34.95
792.908	33.37
793.084	34.36
793.259	35.96
793.435	34.31
793.611	34.83
793.786	38.15
793.962	37.13
794.137	39.23
794.313	38.39
794.488	37.62
794.664	35.85
794.839	41.16
795.015	38.38
795.19	35.71
795.366	37.97
795.541	36.76
795.716	35.68
795.892	36.76
796.067	35.83
796.242	37.79
796.418	35.78
796.593	36.05
796.768	34.43
796.944	35.98
797.119	36.74
797.294	35.31
797.469	34.66
797.644	34.69
797.82	34.36
797.995	34.44
798.17	36.67
798.345	40.35
798.52	39.59
798.695	39.31
798.87	37.67
799.045	36.29
799.22	37.75
799.395	41.45
799.57	39.63
799.745	40.09
799.92	41.53
800.095	40.48
800.27	37.68
800.445	36.94
800.62	35.42
800.795	35.31
800.97	37.45
801.145	34.83
801.319	35.01
801.494	34.38
801.669	34.54
801.844	33.64
802.018	33.06
802.193	31.8
802.368	34.68
802.543	34.18
802.717	37.14
802.892	35.78
803.067	38.39
803.241	38.66
803.416	39.31
803.59	38.46
803.765	38.22
803.94	35.97
804.114	36.72
804.289	34.05
804.463	37.5
804.638	34.82
804.812	33.85
804.986	35.74
805.161	34.07
805.335	37.23
805.51	37.21
805.684	38.18
805.858	38.86
806.033	42
806.207	44.55
806.381	42.99
806.556	42.62
806.73	41.42
806.904	39.16
807.078	40.43
807.253	38.01
807.427	36.77
807.601	35.58
807.775	35.86
807.949	34.08
808.123	34.26
808.298	32.83
808.472	34.15
808.646	37.72
808.82	37.06
808.994	34.84
809.168	34.4
809.342	37.47
809.516	38.08
809.69	37.71
809.864	35.57
810.038	33.08
810.212	32.78
810.385	33.68
810.559	33.15
810.733	33.48
810.907	32.74
811.081	31.6
811.255	29.51
811.428	29.8
811.602	30.01
811.776	30.94
811.95	31.28
812.123	30.55
812.297	27.99
812.471	26.3
812.644	26.29
812.818	26.58
812.992	28.3
813.165	30.07
813.339	29.21
813.512	29.85
813.686	28.67
813.86	30.44
814.033	33.31
814.207	36.49
814.38	39.55
814.554	41.41
814.727	39.64
814.9	40.16
815.074	39.44
815.247	39.36
815.421	39
815.594	43.52
815.767	44.38
815.941	38.68
816.114	37.99
816.287	33.49
816.46	30.76
816.634	34.88
816.807	34.33
816.98	35.7
817.153	38.46
817.327	38.74
817.5	35.62
817.673	33.97
817.846	37.8
818.019	35.91
818.192	38.6
818.365	40.72
818.538	42.99
818.711	45.03
818.884	43.63
819.057	40.68
819.23	41.26
819.403	39.19
819.576	37.24
819.749	35.52
819.922	34.45
820.095	33.76
820.268	32.7
820.441	31.33
820.614	31.85
820.786	31.82
820.959	34.56
821.132	35.24
821.305	36.69
821.477	36.13
821.65	36.11
821.823	37.08
821.996	37.17
822.168	37.45
822.341	36.86
822.514	36.23
822.686	36.68
822.859	36.47
823.031	36.77
823.204	36.8
823.376	37.23
823.549	37.75
823.722	37.5
823.894	37.36
824.067	37.33
824.239	37.42
824.411	37.77
824.584	38.48
824.756	38.49
824.929	37.4
825.101	37.4
825.273	37.16
825.446	37.08
825.618	36.88
825.79	36.72
825.963	36.52
826.135	35.97
826.307	35.59
826.479	33.5
826.652	32.62
826.824	33
826.996	33.48
827.168	34.44
827.34	35.22
827.512	35.24
827.684	35
827.856	35.49
828.029	36.4
828.201	36.37
828.373	37.8
828.545	37.35
828.717	38.3
828.889	38.11
829.061	37.95
829.232	36.83
829.404	37.5
829.576	39.12
829.748	38.91
829.92	39.32
830.092	39.79
830.264	38.71
830.436	40.83
830.607	40.48
830.779	39.64
830.951	39.53
831.123	39.11
831.294	37.7
831.466	35.51
831.638	36.13
831.809	36.18
831.981	34.82
832.153	34.7
832.324	34.05
832.496	33.48
832.667	32.99
832.839	33.17
833.011	34.5
833.182	35.93
833.354	34.89
833.525	34.94
833.697	35.16
833.868	37.47
834.039	38.09
834.211	37.65
834.382	37.79
834.554	38.58
834.725	39.08
834.896	38.74
835.068	38.3
835.239	40.65
835.41	39.36
835.581	38.35
835.753	37.86
835.924	38.47
836.095	37.95
836.266	38.49
836.438	36.68
836.609	34.97
836.78	35.55
836.951	37.73
837.122	36.16
837.293	37.32
837.464	39.07
837.635	38.58
837.806	38.94
837.977	39.86
838.148	37.73
838.319	40.21
838.49	41.23
838.661	40.23
838.832	37.44
839.003	36.01
839.174	35.6
839.345	33.57
839.516	33.04
839.687	34.18
839.857	31.97
840.028	33.65
840.199	34.56
840.37	33.74
840.54	33.17
840.711	32.53
840.882	32.96
841.053	30.82
841.223	30.16
841.394	29.95
841.564	24.06
841.735	24.66
841.906	23.36
842.076	17.13
842.247	20.27
842.417	19.33
842.588	20.95
842.758	24.78
842.929	21.7
843.099	16.52
843.27	17.8
843.44	23.42
843.611	23.31
843.781	27.75
843.951	27.17
844.122	25.86
844.292	26.17
844.462	24.97
844.633	23.89
844.803	27.8
844.973	30.64
845.144	28.57
845.314	21.12
845.484	16.34
845.654	14.56
845.824	24.77
845.995	23.24
846.165	27.04
846.335	25.52
846.505	24.39
846.675	27.31
846.845	35.79
847.015	33.48
847.185	43.74
847.355	54.21
847.525	57.78
847.695	49.06
847.865	44.65
848.035	35.84
848.205	33.99
848.375	37.31
848.545	40.07
848.715	31.69
848.884	32.85
849.054	28.87
849.224	29.88
849.394	25.25
849.564	25.17
849.733	25.09
849.903	33.4
850.073	38.46
850.243	29.96
850.412	24.27
850.582	24.23
850.752	23.6
850.921	24.39
851.091	15.51
851.26	12.41
851.43	17.79
851.599	21.52
851.769	18.45
851.939	19.59
852.108	27.82
852.278	33.15
852.447	34.57
852.616	37.8
852.786	36.76
852.955	36.59
853.125	38.39
853.294	37.41
853.463	31.51
853.633	28.98
853.802	24.17
853.971	18.78
854.141	8.72
854.31	12.15
854.479	8.99
854.648	12.56
854.818	18.54
854.987	23.2
855.156	18.72
855.325	21
855.494	24.09
855.663	28.49
855.832	27.36
856.001	33.39
856.171	26.67
856.34	22.2
856.509	21.66
856.678	20.72
856.847	18.7
857.016	21.17
857.185	23.04
857.353	21.24
857.522	16.74
857.691	11.2
857.86	6.47
858.029	15.51
858.198	23.76
858.367	33.6
858.535	24.75
858.704	25.12
858.873	25.7
859.042	22.82
859.21	25.86
859.379	26.9
859.548	28.14
859.717	31.65
859.885	31.63
860.054	29.96
860.222	24
860.391	27.93
860.56	34.94
860.728	28.28
860.897	31.56
861.065	30.73
861.234	34.37
861.402	35.79
861.571	38.99
861.739	40.85
861.908	42.63
862.076	45.75
862.244	52.22
862.413	46.06
862.581	53.14
862.749	47.44
862.918	51.58
863.086	49.6
863.254	56.04
863.423	55.49
863.591	43.37
863.759	38.99
863.927	33.23
864.096	34.8
864.264	23.58
864.432	27.45
864.6	27.6
864.768	12.17
864.936	7.88
865.104	4.4
865.272	0.92
865.44	-0.79
865.608	0.63
865.776	6.59
865.944	-5.7
866.112	9.45
866.28	12.12
866.448	18.62
866.616	27.54
866.784	31.21
866.952	30.3
867.12	22.26
867.288	22.5
867.455	28.79
867.623	31.38
867.791	37.23
867.959	39.42
868.127	25.52
868.294	28.02
868.462	27.11
868.63	21.84
868.797	31.2
868.965	39.45
869.133	42.79
869.3	40.75
869.468	35.48
869.636	35.92
869.803	29.82
869.971	41.99
870.138	35.67
870.306	33.86
870.473	33.17
870.641	28.74
870.808	24.69
870.975	16.8
871.143	8.04
871.31	3
871.478	10.81
871.645	13.15
871.812	1.38
871.98	1.76
872.147	5.05
872.314	5.21
872.482	-8.78
872.649	-0.25
872.816	8.28
872.983	11.97
873.15	13.58
873.318	4.5
873.485	13.71
873.652	17.55
873.819	17.98
873.986	19.45
874.153	20.08
874.32	28.91
874.487	26.26
874.654	31.41
874.821	42.19
874.988	46.51
875.155	49.27
875.322	39.24
875.489	41.58
875.656	37.53
875.823	36.72
875.99	40.05
876.157	46.82
876.324	54.19
876.49	55.28
876.657	54.81
876.824	43.59
876.991	42.09
877.157	47.46
877.324	36.48
877.491	46.25
877.658	44.06
877.824	35.65
877.991	28.69
878.157	27.54
878.324	19.36
878.491	2.16
878.657	23.51
878.824	21.82
878.99	22.2
879.157	34.28
879.323	29.2
879.49	26.22
879.656	25.28
879.823	25.53
879.989	17.85
880.156	16.14
880.322	22.54
880.488	14.65
880.655	17.74
880.821	24.95
880.987	20.55
881.154	28.37
881.32	35.42
881.486	41.27
881.652	42.33
881.819	48.41
881.985	48.04
882.151	46.37
882.317	48.35
882.483	45.14
882.649	42.76
882.816	42.64
882.982	41.15
883.148	38.28
883.314	37.81
883.48	35.45
883.646	33.62
883.812	33.13
883.978	34.22
884.144	35.08
884.31	36.8
884.476	36.45
884.642	37.12
884.807	36.69
884.973	37.08
885.139	35.55
885.305	37.76
885.471	38.41
885.637	39.64
885.802	39.1
885.968	37.92
886.134	38.35
886.3	36.61
886.465	34.02
886.631	32.3
886.797	33.79
886.962	35.82
887.128	30.76
887.293	28.98
887.459	30.3
887.625	29.79
887.79	26.03
887.956	21.02
888.121	23.41
888.287	25.29
888.452	26.17
888.618	20.78
888.783	16.47
