Data from CB_066_Reflection_1.txt Node
Date: Sat Nov 14 10:45:09 EST 2015
User: robert
Spectrometer: USB4E03001
Autoset integration time: false
Trigger mode: 4
Integration Time (sec): 1.000000E-1
Scans to average: 15
Electric dark correction enabled: true
Nonlinearity correction enabled: false
Boxcar width: 5
Stray light correction enabled: false
XAxis mode: Wavelengths
Stop averaging: false
Number of Pixels in Spectrum: 3648
>>>>>Begin Spectral Data<<<<<
177.566	-282.7
177.785	-409.42
178.005	-1281.91
178.225	-170.64
178.445	-201.95
178.665	-327.6
178.885	-130.9
179.105	-146.94
179.324	-245.23
179.544	-444.72
179.764	-130.13
179.984	-160.94
180.204	-173.36
180.423	-423.57
180.643	-208.07
180.863	-223.54
181.083	-1030.06
181.302	-3922.22
181.522	457.56
181.742	251.09
181.961	324.48
182.181	57.39
182.401	78.41
182.621	124.73
182.84	547.61
183.06	-1234.58
183.279	-184.49
183.499	-45
183.719	-64.98
183.938	-40.59
184.158	-41.34
184.377	-4.01
184.597	15.84
184.816	63.62
185.036	104.9
185.256	126.28
185.475	205.44
185.695	156.9
185.914	153.85
186.134	145.24
186.353	147.99
186.572	81.62
186.792	66.72
187.011	-823.95
187.231	-376.3
187.45	4.19
187.67	-126.36
187.889	194.49
188.108	136.67
188.328	167.41
188.547	122.67
188.766	104.52
188.986	94.26
189.205	98.65
189.424	124.08
189.644	119.92
189.863	163.98
190.082	198.6
190.302	237.17
190.521	173.62
190.74	161.39
190.959	461.01
191.178	456.53
191.398	235.86
191.617	405.59
191.836	706.99
192.055	11.84
192.274	-53.78
192.494	-100.28
192.713	-10001.79
192.932	331.82
193.151	-52275
193.37	-45.07
193.589	1321.24
193.808	24.66
194.027	-105.43
194.246	444.47
194.465	-43.84
194.685	125.01
194.904	52.66
195.123	163.27
195.342	115.48
195.561	52.24
195.78	156.85
195.999	-257.63
196.218	-165.82
196.436	-369.49
196.655	-87.97
196.874	-25.01
197.093	-42.53
197.312	65.43
197.531	20.43
197.75	2.86
197.969	473.58
198.188	118.98
198.407	95.51
198.625	131.3
198.844	199.58
199.063	248.24
199.282	499.69
199.501	-2458.59
199.719	-964.41
199.938	659.72
200.157	474.48
200.376	-2592.81
200.594	-162.13
200.813	-523.48
201.032	-1170.68
201.251	-545.19
201.469	-534.93
201.688	-1088.3
201.907	2226.78
202.125	761.72
202.344	1751.06
202.563	9310.14
202.781	616.59
203	172.56
203.218	91.04
203.437	104.22
203.656	134.66
203.874	357.65
204.093	310.55
204.311	123.77
204.53	243.29
204.748	130.06
204.967	184.6
205.185	86.27
205.404	100.95
205.622	333.2
205.841	213.47
206.059	145.58
206.278	130.78
206.496	179
206.715	226.06
206.933	131.23
207.151	161.76
207.37	72.79
207.588	68.57
207.806	137.16
208.025	194.25
208.243	228.26
208.461	-6036.36
208.68	94.59
208.898	14.26
209.116	89.11
209.335	78.4
209.553	46.46
209.771	79.41
209.989	112.28
210.208	83.18
210.426	56.07
210.644	58.6
210.862	73.33
211.081	85.97
211.299	77.61
211.517	93.25
211.735	80.06
211.953	87.84
212.171	96.4
212.39	75.25
212.608	66.66
212.826	50.21
213.044	38.59
213.262	41.22
213.48	22.48
213.698	46.69
213.916	20.21
214.134	28.55
214.352	10.07
214.57	29.95
214.788	38.38
215.006	74.71
215.224	99.93
215.442	438.71
215.66	729.48
215.878	286.83
216.096	87.29
216.314	344.82
216.532	911.17
216.75	-150.74
216.968	-121.87
217.185	-1992.04
217.403	660.67
217.621	-34111.11
217.839	-77.83
218.057	-2197.92
218.275	219.72
218.492	63.26
218.71	156.3
218.928	109.09
219.146	40.03
219.363	11.7
219.581	-64.97
219.799	809.35
220.017	0.73
220.234	-49.86
220.452	43.37
220.67	101.3
220.887	78.91
221.105	113.71
221.323	137.8
221.54	112.73
221.758	132.46
221.976	121.25
222.193	82.41
222.411	85.05
222.629	90.4
222.846	81.78
223.064	65.92
223.281	71.86
223.499	52.21
223.716	32.58
223.934	18.87
224.151	22.78
224.369	24.48
224.586	27.17
224.804	54.52
225.021	58.47
225.239	52.49
225.456	63.24
225.674	50.15
225.891	52.98
226.108	51.2
226.326	49.37
226.543	38.03
226.76	26.68
226.978	36.96
227.195	33.02
227.413	32.54
227.63	33.97
227.847	35.43
228.064	30.86
228.282	29.47
228.499	28.97
228.716	27.33
228.934	28.12
229.151	30.63
229.368	27.72
229.585	26.23
229.802	21.97
230.02	20.49
230.237	18.14
230.454	16.33
230.671	14.33
230.888	13.43
231.105	17.13
231.323	15.68
231.54	14.99
231.757	20.15
231.974	17.14
232.191	22.29
232.408	20.83
232.625	26.72
232.842	30.2
233.059	28.23
233.276	27.52
233.493	21.49
233.71	21.67
233.927	25.82
234.144	13.88
234.361	18.11
234.578	12.98
234.795	14.28
235.012	15.2
235.229	13.22
235.446	20.07
235.663	24.11
235.879	26.85
236.096	27.06
236.313	26.6
236.53	26.7
236.747	22.16
236.964	26.31
237.181	32.96
237.397	22.41
237.614	29.86
237.831	28.95
238.048	23.35
238.264	19.75
238.481	19.01
238.698	10.8
238.915	15.64
239.131	14.37
239.348	15.18
239.565	6.75
239.781	12.84
239.998	9.47
240.215	9.12
240.431	13.24
240.648	14.75
240.865	16.5
241.081	16.63
241.298	14.77
241.514	17.5
241.731	14.46
241.947	13.67
242.164	14.91
242.38	13.42
242.597	13.87
242.814	11.71
243.03	14.3
243.246	13.84
243.463	14.86
243.679	16.15
243.896	16.11
244.112	18.81
244.329	22.53
244.545	21.99
244.762	23.64
244.978	21.33
245.194	20.67
245.411	17.81
245.627	16.68
245.843	18.76
246.06	18.88
246.276	17.67
246.492	18.32
246.709	17.82
246.925	17.3
247.141	16.46
247.357	15.91
247.574	16.66
247.79	16.1
248.006	15.98
248.222	15.3
248.439	13.81
248.655	13.61
248.871	11.92
249.087	11.34
249.303	10.93
249.519	11.25
249.736	11.83
249.952	12.3
250.168	15.64
250.384	18.27
250.6	17.22
250.816	20.82
251.032	19.81
251.248	21.84
251.464	21.94
251.68	20.37
251.896	18.45
252.112	20.27
252.328	18.15
252.544	15.9
252.76	12.76
252.976	11.65
253.192	9.42
253.408	9.92
253.624	6.7
253.84	7.86
254.056	9.47
254.272	10.73
254.487	7.26
254.703	6.42
254.919	3.53
255.135	7.25
255.351	8.37
255.567	6.84
255.782	8.39
255.998	13.61
256.214	8.88
256.43	6.78
256.646	8.97
256.861	10.98
257.077	12.28
257.293	13.09
257.508	11.94
257.724	12.9
257.94	13.77
258.155	14.43
258.371	13.86
258.587	13.92
258.802	14.15
259.018	13.03
259.234	11.74
259.449	11.32
259.665	11.38
259.88	11.27
260.096	11.58
260.312	11.46
260.527	10.93
260.743	10.83
260.958	10.98
261.174	11.06
261.389	11.21
261.605	11.57
261.82	11.52
262.036	11.98
262.251	11.6
262.466	10.82
262.682	11.03
262.897	12
263.113	11.79
263.328	10.82
263.543	10.69
263.759	9.84
263.974	9.92
264.189	8.08
264.405	7.3
264.62	10.24
264.835	8.38
265.051	9.52
265.266	8.13
265.481	8.24
265.696	11.47
265.912	10.35
266.127	11.29
266.342	11.77
266.557	12.82
266.773	12.58
266.988	11.46
267.203	12.67
267.418	11.73
267.633	11.4
267.848	10.26
268.064	7.86
268.279	8.46
268.494	7.28
268.709	5.66
268.924	7.23
269.139	5.95
269.354	4.89
269.569	4.84
269.784	5.17
269.999	5.88
270.214	7.18
270.429	7.64
270.644	8.08
270.859	8.62
271.074	10.39
271.289	10.3
271.504	10.23
271.719	10.67
271.934	10.51
272.149	10.4
272.363	10.46
272.578	9.94
272.793	10.51
273.008	11.25
273.223	10.51
273.438	8.48
273.653	8.69
273.867	9.49
274.082	10.8
274.297	11.04
274.512	11.71
274.726	11.69
274.941	10.69
275.156	12.04
275.371	10.06
275.585	10.96
275.8	13.14
276.015	11.98
276.229	11.45
276.444	9.58
276.659	8.38
276.873	8.51
277.088	9.77
277.302	11.65
277.517	8.65
277.732	8.86
277.946	7.75
278.161	7.87
278.375	7.95
278.59	8.08
278.804	7.98
279.019	8.49
279.233	6.17
279.448	3.91
279.662	3.99
279.877	5.28
280.091	3.65
280.306	4.32
280.52	2.36
280.735	2.78
280.949	4.47
281.163	6.39
281.378	6.21
281.592	8.36
281.806	8.32
282.021	6.88
282.235	7.23
282.449	9.45
282.664	9.94
282.878	11.02
283.092	10.62
283.307	9.39
283.521	7.87
283.735	9.41
283.949	8.16
284.164	9.14
284.378	9.29
284.592	8.65
284.806	7.8
285.02	6.93
285.234	6.31
285.449	5.61
285.663	6.67
285.877	6.93
286.091	5.33
286.305	5.62
286.519	5.79
286.733	6.39
286.947	7.36
287.161	8.01
287.375	8.05
287.589	9.54
287.803	11.62
288.017	10.98
288.231	11.47
288.445	12.91
288.659	12.47
288.873	12.66
289.087	12.07
289.301	12.23
289.515	11.51
289.729	12.85
289.943	12.41
290.157	12.01
290.371	11.28
290.584	11.24
290.798	11.2
291.012	12.35
291.226	11.73
291.44	12.9
291.654	11.45
291.867	11.31
292.081	11.33
292.295	11.16
292.509	11.12
292.722	12.14
292.936	10.51
293.15	10.45
293.364	8.89
293.577	9.44
293.791	8.77
294.005	8.74
294.218	10.42
294.432	10.73
294.645	10.25
294.859	9.2
295.073	9.56
295.286	10.2
295.5	10.18
295.713	10.85
295.927	10.77
296.14	10.6
296.354	10.71
296.568	9.77
296.781	8.51
296.994	9.44
297.208	10.06
297.421	9.54
297.635	9.83
297.848	9.83
298.062	9.09
298.275	9
298.489	9.22
298.702	10.38
298.915	10.06
299.129	11.21
299.342	10.39
299.555	9.97
299.769	10.23
299.982	10.97
300.195	10.57
300.409	11.47
300.622	11.15
300.835	9.99
301.048	9.01
301.262	9.01
301.475	9.19
301.688	9.62
301.901	9.37
302.115	9.53
302.328	9.24
302.541	9.28
302.754	10.51
302.967	11.34
303.18	13.21
303.393	13.11
303.607	14.69
303.82	14.84
304.033	15.07
304.246	15.84
304.459	15.34
304.672	15.32
304.885	16.13
305.098	15.45
305.311	14.42
305.524	12.81
305.737	12.73
305.95	11.89
306.163	11.48
306.376	10.59
306.589	10.39
306.802	11.72
307.015	12.08
307.228	12.05
307.44	11.89
307.653	12.82
307.866	13.3
308.079	13.85
308.292	13.07
308.505	13.37
308.718	13.92
308.93	14.53
309.143	14.11
309.356	13.86
309.569	12.95
309.781	12.85
309.994	13.62
310.207	13.76
310.42	14
310.632	15.02
310.845	15.5
311.058	16.18
311.27	15.69
311.483	15.56
311.696	15.32
311.908	15.52
312.121	16.17
312.333	16.9
312.546	16.51
312.759	15.03
312.971	14.62
313.184	13.71
313.396	13.8
313.609	13.99
313.821	14.21
314.034	14.48
314.246	14.61
314.459	14.2
314.671	12
314.884	12.92
315.096	14.96
315.309	15.36
315.521	16.08
315.733	14.46
315.946	14.13
316.158	14
316.371	14.5
316.583	14.28
316.795	13.72
317.008	13.82
317.22	12.48
317.432	13.03
317.644	12.72
317.857	12.57
318.069	13.3
318.281	14.08
318.494	14.27
318.706	14.75
318.918	16.04
319.13	16.44
319.342	17.29
319.555	17.9
319.767	17.97
319.979	16.5
320.191	15.53
320.403	15.84
320.615	16.7
320.827	16.69
321.039	16.18
321.252	17
321.464	18.07
321.676	17.86
321.888	19.41
322.1	18.8
322.312	19.68
322.524	19.97
322.736	18.58
322.948	18.48
323.16	18.62
323.372	18.39
323.584	16.73
323.796	16
324.007	15.76
324.219	14.99
324.431	15.24
324.643	16.84
324.855	18.6
325.067	18.99
325.279	18.04
325.491	18.5
325.702	19.19
325.914	19.46
326.126	20.01
326.338	19.42
326.55	20.2
326.761	20.03
326.973	19.57
327.185	18.45
327.396	20.09
327.608	19.63
327.82	19.03
328.032	19.55
328.243	20.91
328.455	21.64
328.666	22.73
328.878	22.97
329.09	24.1
329.301	24.08
329.513	23.73
329.725	24.29
329.936	26.04
330.148	26.89
330.359	26.34
330.571	25.85
330.782	25.04
330.994	26.56
331.205	26.61
331.417	26.48
331.628	26.54
331.84	27.94
332.051	28.44
332.262	27.76
332.474	27.63
332.685	28.69
332.897	29.44
333.108	29.25
333.319	27.77
333.531	27
333.742	26.55
333.953	26.38
334.165	25.9
334.376	25.78
334.587	26.4
334.799	25.97
335.01	24.61
335.221	24.46
335.432	24.23
335.644	24.49
335.855	25.71
336.066	26.28
336.277	26.9
336.488	26.95
336.7	25.79
336.911	25.3
337.122	25.92
337.333	26.14
337.544	25.7
337.755	26.79
337.966	26.62
338.177	26.11
338.388	25.83
338.599	25.41
338.811	24.84
339.022	25.32
339.233	25.85
339.444	24.75
339.655	24.58
339.866	24.13
340.076	23.56
340.287	23.56
340.498	23.13
340.709	22.55
340.92	23.06
341.131	23.86
341.342	24.22
341.553	22.66
341.764	23.8
341.975	23.69
342.185	24.22
342.396	24.38
342.607	24.55
342.818	24.63
343.029	24.68
343.239	25.14
343.45	24.83
343.661	24.34
343.872	25.21
344.082	23.7
344.293	24.25
344.504	24.02
344.714	23.92
344.925	23.94
345.136	23.98
345.346	22.33
345.557	21.34
345.768	20.72
345.978	21.51
346.189	21.24
346.399	21.32
346.61	20.57
346.821	20.72
347.031	20.62
347.242	19.99
347.452	19.06
347.663	21.04
347.873	21.34
348.084	21.97
348.294	20.41
348.504	21
348.715	22.34
348.925	22.49
349.136	21.11
349.346	21.19
349.557	21.17
349.767	22.33
349.977	21.83
350.188	21.28
350.398	20.66
350.608	20.73
350.819	20.96
351.029	20.02
351.239	21.05
351.449	21.56
351.66	21.03
351.87	21.2
352.08	19.99
352.29	20.53
352.501	21.2
352.711	20.6
352.921	21.44
353.131	20.43
353.341	20.99
353.552	20.12
353.762	20.25
353.972	19.82
354.182	20.39
354.392	20.82
354.602	20.51
354.812	20
355.022	20.81
355.232	21.4
355.442	21.82
355.652	21.33
355.862	20.74
356.072	20.91
356.282	21.14
356.492	20.67
356.702	20.64
356.912	20.67
357.122	21.42
357.332	21.32
357.542	19.91
357.752	19.68
357.962	19.67
358.171	20.09
358.381	20.1
358.591	20.16
358.801	19.97
359.011	20.54
359.221	20.03
359.43	19.45
359.64	19.25
359.85	19.98
360.06	19.99
360.269	20.04
360.479	20.42
360.689	20.59
360.899	20.91
361.108	21.76
361.318	21.13
361.528	21.7
361.737	21.77
361.947	22.15
362.156	21.99
362.366	21.78
362.576	21.98
362.785	21.54
362.995	21.37
363.204	21.4
363.414	21.35
363.623	21.45
363.833	21.08
364.042	20.91
364.252	20.92
364.461	20.53
364.671	21.08
364.88	20.79
365.09	21.5
365.299	21.48
365.509	21.86
365.718	20.74
365.927	21.12
366.137	21.16
366.346	21.64
366.555	21.22
366.765	21.58
366.974	21.8
367.183	22.1
367.393	20.89
367.602	20.52
367.811	19.93
368.021	20.46
368.23	19.95
368.439	19.55
368.648	18.52
368.857	18.4
369.067	18.54
369.276	18.18
369.485	18.19
369.694	19.05
369.903	19
370.112	18.89
370.321	18.1
370.531	17.38
370.74	17.46
370.949	17.78
371.158	17.43
371.367	17.1
371.576	16.12
371.785	15.94
371.994	15.6
372.203	15.95
372.412	15.62
372.621	16.32
372.83	17.01
373.039	17.27
373.248	16.96
373.457	17.21
373.666	16.59
373.874	17.04
374.083	16.7
374.292	16.32
374.501	16.55
374.71	16.52
374.919	16.26
375.128	16.31
375.336	16.47
375.545	16.21
375.754	16.06
375.963	16.04
376.171	15.73
376.38	15.49
376.589	15.2
376.798	14.11
377.006	14.14
377.215	14.05
377.424	14
377.632	13.31
377.841	13.7
378.05	13.68
378.258	14.01
378.467	13.84
378.675	13.69
378.884	13.96
379.093	14.19
379.301	14.26
379.51	14.64
379.718	14.44
379.927	14.72
380.135	14.81
380.344	14.69
380.552	15.12
380.761	15.22
380.969	15.17
381.177	15.15
381.386	15.69
381.594	15.51
381.803	14.76
382.011	14.6
382.219	14.09
382.428	13.64
382.636	13.62
382.845	12.5
383.053	12.3
383.261	12.21
383.469	12.42
383.678	12.29
383.886	12.18
384.094	12.62
384.302	12.64
384.511	13.01
384.719	13.16
384.927	13.13
385.135	13.49
385.343	13.66
385.552	13.82
385.76	13.18
385.968	12.9
386.176	12.59
386.384	11.86
386.592	11.46
386.8	11.07
387.008	10.87
387.216	10.98
387.424	10.74
387.633	10.88
387.841	11.12
388.049	11.74
388.257	11.92
388.465	11.66
388.672	12.03
388.88	12.16
389.088	11.97
389.296	11.85
389.504	11.3
389.712	11.49
389.92	11.48
390.128	11.32
390.336	10.79
390.544	10.56
390.751	10.98
390.959	10.88
391.167	11.03
391.375	11.49
391.583	11.51
391.79	11.64
391.998	11.94
392.206	11.75
392.414	11.24
392.621	11.26
392.829	11.23
393.037	10.97
393.244	10.72
393.452	10.75
393.66	10.45
393.867	10.27
394.075	10.33
394.283	9.74
394.49	9.44
394.698	9.63
394.905	9.84
395.113	9.89
395.32	9.89
395.528	9.85
395.735	9.71
395.943	9.56
396.15	9.64
396.358	9.25
396.565	9.18
396.773	9.33
396.98	9.39
397.188	9.17
397.395	9.06
397.602	9.08
397.81	9.14
398.017	8.97
398.225	9.33
398.432	9.26
398.639	9.35
398.847	9.25
399.054	9.07
399.261	9
399.468	9.11
399.676	9.21
399.883	8.96
400.09	9.14
400.297	9.19
400.505	8.97
400.712	8.99
400.919	9.29
401.126	9.31
401.333	9.45
401.54	9.25
401.748	9.11
401.955	8.72
402.162	8.99
402.369	8.91
402.576	8.61
402.783	8.52
402.99	8.26
403.197	7.81
403.404	7.66
403.611	7.58
403.818	7.86
404.025	7.7
404.232	7.87
404.439	7.76
404.646	7.71
404.853	7.97
405.06	7.83
405.267	8.11
405.474	8.3
405.681	8.71
405.887	8.76
406.094	8.93
406.301	9.12
406.508	8.97
406.715	9.25
406.922	9.22
407.128	9.45
407.335	9.54
407.542	9.35
407.749	9.52
407.955	9.48
408.162	9.15
408.369	8.53
408.575	8.51
408.782	8.78
408.989	8.46
409.195	8.16
409.402	7.95
409.609	7.56
409.815	7.65
410.022	7.66
410.228	7.44
410.435	7.83
410.642	8.09
410.848	8.07
411.055	7.92
411.261	7.84
411.468	8.35
411.674	8.3
411.881	8.71
412.087	8.7
412.294	8.48
412.5	8.64
412.706	8.52
412.913	8.36
413.119	8.19
413.326	8.05
413.532	7.97
413.738	7.76
413.945	7.1
414.151	7.24
414.357	7.06
414.564	6.89
414.77	6.93
414.976	7
415.182	7.23
415.389	7.09
415.595	7.05
415.801	7.1
416.007	6.96
416.214	7.47
416.42	7.14
416.626	7.04
416.832	7.33
417.038	7.34
417.244	7.24
417.45	6.87
417.657	7
417.863	6.82
418.069	6.89
418.275	6.93
418.481	6.87
418.687	7.04
418.893	7.05
419.099	7.01
419.305	6.82
419.511	6.85
419.717	6.97
419.923	6.89
420.129	7.04
420.335	7.12
420.541	7.15
420.746	7.13
420.952	7.07
421.158	7.16
421.364	7.02
421.57	7.14
421.776	7.15
421.982	7.34
422.187	7.33
422.393	7.31
422.599	7.22
422.805	7.16
423.01	7.28
423.216	7.23
423.422	7.22
423.628	7.21
423.833	7.07
424.039	6.99
424.245	6.82
424.45	6.8
424.656	6.88
424.862	6.8
425.067	6.71
425.273	6.62
425.478	6.61
425.684	6.59
425.889	6.8
426.095	6.99
426.301	7.01
426.506	7
426.712	7.1
426.917	7.07
427.123	7.12
427.328	7.12
427.533	7.1
427.739	7.12
427.944	6.99
428.15	6.8
428.355	6.61
428.561	6.87
428.766	6.85
428.971	6.66
429.177	6.53
429.382	6.51
429.587	6.58
429.793	6.55
429.998	6.5
430.203	6.56
430.408	6.53
430.614	6.51
430.819	6.09
431.024	6.13
431.229	6.24
431.434	6.2
431.64	6.35
431.845	6.46
432.05	6.53
432.255	6.46
432.46	6.5
432.665	6.42
432.87	6.35
433.076	6.47
433.281	6.61
433.486	6.44
433.691	6.48
433.896	6.32
434.101	6
434.306	5.93
434.511	6.02
434.716	5.88
434.921	5.92
435.126	5.96
435.331	5.84
435.535	5.77
435.74	5.98
435.945	5.92
436.15	5.93
436.355	6.46
436.56	6.46
436.765	6.6
436.97	6.47
437.174	6.57
437.379	6.72
437.584	6.92
437.789	6.74
437.993	6.71
438.198	6.74
438.403	6.88
438.608	6.66
438.812	6.55
439.017	6.41
439.222	6.66
439.426	6.67
439.631	6.44
439.836	6.39
440.04	6.58
440.245	6.51
440.45	6.6
440.654	6.53
440.859	6.42
441.063	6.61
441.268	6.7
441.472	6.68
441.677	6.6
441.881	6.65
442.086	6.49
442.29	6.24
442.495	6.4
442.699	6.29
442.904	6.18
443.108	6.32
443.312	6.16
443.517	6.08
443.721	5.97
443.925	6
444.13	6.14
444.334	6.19
444.538	6.46
444.743	6.51
444.947	6.58
445.151	6.74
445.356	6.7
445.56	6.68
445.764	6.7
445.968	6.68
446.173	6.64
446.377	6.68
446.581	6.78
446.785	6.55
446.989	6.47
447.193	6.34
447.398	6.43
447.602	6.24
447.806	6.22
448.01	6.16
448.214	6.23
448.418	6.08
448.622	5.95
448.826	5.84
449.03	6.02
449.234	5.95
449.438	5.97
449.642	5.82
449.846	6.09
450.05	6.14
450.254	6.24
450.458	6.25
450.662	6.45
450.866	6.41
451.069	6.39
451.273	6.36
451.477	6.43
451.681	6.47
451.885	6.39
452.089	6.43
452.292	6.16
452.496	5.97
452.7	5.97
452.904	5.89
453.107	5.88
453.311	5.91
453.515	5.89
453.719	5.85
453.922	5.95
454.126	5.89
454.33	5.67
454.533	5.73
454.737	5.77
454.94	5.62
455.144	5.91
455.348	6.03
455.551	6.15
455.755	6
455.958	6.07
456.162	6.05
456.365	5.95
456.569	6.02
456.772	6.2
456.976	6.27
457.179	6.42
457.383	6.27
457.586	6.29
457.79	6.09
457.993	6.12
458.196	6.03
458.4	6.02
458.603	5.97
458.807	5.91
459.01	5.95
459.213	5.86
459.417	5.84
459.62	5.6
459.823	5.58
460.026	5.53
460.23	5.68
460.433	5.53
460.636	5.54
460.839	5.6
461.042	5.52
461.246	5.58
461.449	5.71
461.652	5.68
461.855	5.88
462.058	5.79
462.261	5.97
462.464	5.78
462.668	5.96
462.871	6.11
463.074	6.19
463.277	6.29
463.48	6.02
463.683	6.04
463.886	5.81
464.089	5.78
464.292	5.7
464.495	5.57
464.698	5.72
464.901	5.65
465.104	5.33
465.306	5.13
465.509	5.2
465.712	5.49
465.915	5.46
466.118	5.56
466.321	5.58
466.524	5.54
466.726	5.72
466.929	5.57
467.132	5.53
467.335	5.79
467.538	5.96
467.74	5.97
467.943	5.81
468.146	5.82
468.348	5.91
468.551	5.84
468.754	5.89
468.956	5.78
469.159	5.82
469.362	6
469.564	5.9
469.767	5.89
469.969	6.03
470.172	6.17
470.375	6.1
470.577	6.18
470.78	6.2
470.982	6.29
471.185	6.34
471.387	6.43
471.59	6.13
471.792	6.16
471.995	6.35
472.197	6.4
472.399	6.21
472.602	6.16
472.804	6.08
473.007	6.17
473.209	6.33
473.411	6.37
473.614	6.43
473.816	6.56
474.018	6.55
474.22	6.45
474.423	6.21
474.625	6.34
474.827	6.47
475.03	6.55
475.232	6.62
475.434	6.37
475.636	6.29
475.838	6.24
476.04	6.28
476.243	6.41
476.445	6.37
476.647	6.47
476.849	6.49
477.051	6.41
477.253	6.53
477.455	6.36
477.657	6.51
477.859	6.37
478.061	6.24
478.263	6.25
478.465	6.01
478.667	5.85
478.869	5.73
479.071	5.56
479.273	5.45
479.475	5.23
479.677	5.35
479.879	5.27
480.081	5.38
480.283	5.45
480.485	5.45
480.686	5.75
480.888	5.83
481.09	5.81
481.292	5.77
481.494	6
481.695	6.02
481.897	6.03
482.099	6
482.301	6.01
482.502	5.97
482.704	6.13
482.906	5.94
483.107	5.93
483.309	5.88
483.511	5.92
483.712	5.89
483.914	5.93
484.115	5.89
484.317	5.9
484.519	5.88
484.72	5.84
484.922	5.77
485.123	5.75
485.325	5.73
485.526	5.83
485.728	5.84
485.929	5.8
486.131	5.7
486.332	5.69
486.534	5.7
486.735	5.71
486.936	5.78
487.138	5.76
487.339	5.84
487.541	5.89
487.742	5.88
487.943	5.87
488.144	5.92
488.346	5.97
488.547	5.93
488.748	5.94
488.95	5.9
489.151	5.92
489.352	5.9
489.553	5.85
489.755	5.87
489.956	5.82
490.157	5.79
490.358	5.7
490.559	5.67
490.76	5.83
490.961	5.78
491.163	5.85
491.364	5.85
491.565	5.85
491.766	5.87
491.967	5.82
492.168	5.87
492.369	5.91
492.57	5.92
492.771	6
492.972	5.93
493.173	5.95
493.374	5.94
493.575	5.96
493.776	5.91
493.976	5.91
494.177	6.03
494.378	5.94
494.579	5.96
494.78	6.05
494.981	6.07
495.182	6.12
495.382	6.22
495.583	6.35
495.784	6.3
495.985	6.45
496.185	6.43
496.386	6.43
496.587	6.55
496.788	6.55
496.988	6.34
497.189	6.39
497.39	6.35
497.59	6.32
497.791	6.14
497.992	6.18
498.192	6.11
498.393	6.29
498.593	6.27
498.794	6.37
498.994	6.39
499.195	6.53
499.395	6.41
499.596	6.33
499.796	6.23
499.997	6.45
500.197	6.41
500.398	6.57
500.598	6.41
500.799	6.51
500.999	6.34
501.199	6.29
501.4	6.3
501.6	6.41
501.801	6.51
502.001	6.75
502.201	6.59
502.402	6.7
502.602	6.58
502.802	6.7
503.002	6.63
503.203	6.71
503.403	6.8
503.603	6.92
503.803	6.99
504.003	7.12
504.204	6.99
504.404	7.12
504.604	7.23
504.804	7.45
505.004	7.43
505.204	7.4
505.404	7.4
505.604	7.28
505.804	7.36
506.005	7.32
506.205	7.24
506.405	7.37
506.605	7.46
506.805	7.43
507.005	7.28
507.204	7.26
507.404	7.21
507.604	7.41
507.804	7.6
508.004	7.62
508.204	7.66
508.404	7.71
508.604	7.7
508.804	7.83
509.003	7.74
509.203	7.82
509.403	7.94
509.603	8.1
509.803	7.91
510.002	8.01
510.202	8.13
510.402	8.29
510.602	8.29
510.801	8.35
511.001	8.38
511.201	8.48
511.4	8.39
511.6	8.55
511.8	8.55
511.999	8.75
512.199	8.49
512.398	8.44
512.598	8.31
512.797	8.52
512.997	8.55
513.197	8.6
513.396	8.78
513.596	8.98
513.795	9.09
513.994	9.07
514.194	9.05
514.393	9.4
514.593	9.61
514.792	9.74
514.992	9.85
515.191	9.98
515.39	10
515.59	9.91
515.789	9.88
515.988	9.69
516.188	9.87
516.387	10.01
516.586	10.31
516.786	10.15
516.985	10.26
517.184	10.33
517.383	10.39
517.582	10.54
517.782	10.62
517.981	10.81
518.18	10.91
518.379	11.1
518.578	11.1
518.777	11.07
518.976	11.29
519.176	11.35
519.375	11.29
519.574	11.41
519.773	11.41
519.972	11.53
520.171	11.69
520.37	11.81
520.569	11.75
520.768	11.94
520.967	11.94
521.166	11.86
521.365	11.88
521.564	12.14
521.762	12.25
521.961	12.34
522.16	12.47
522.359	12.38
522.558	12.45
522.757	12.61
522.956	12.62
523.154	12.7
523.353	12.98
523.552	13.19
523.751	13.15
523.949	13.27
524.148	13.25
524.347	13.43
524.546	13.56
524.744	13.8
524.943	13.91
525.142	14.01
525.34	14.11
525.539	14.1
525.737	14.18
525.936	14.28
526.135	14.37
526.333	14.48
526.532	14.5
526.73	14.57
526.929	14.57
527.127	14.66
527.326	14.69
527.524	14.79
527.723	14.96
527.921	15.04
528.12	15.07
528.318	15.12
528.516	15.28
528.715	15.31
528.913	15.36
529.112	15.45
529.31	15.48
529.508	15.56
529.707	15.64
529.905	15.72
530.103	15.77
530.301	15.86
530.5	15.95
530.698	16.01
530.896	16.22
531.094	16.39
531.293	16.45
531.491	16.58
531.689	16.73
531.887	16.78
532.085	16.78
532.283	16.87
532.481	17.06
532.68	17.1
532.878	17.11
533.076	17.12
533.274	17.15
533.472	17.15
533.67	17.18
533.868	17.27
534.066	17.32
534.264	17.31
534.462	17.31
534.66	17.36
534.858	17.41
535.056	17.61
535.253	17.61
535.451	17.64
535.649	17.76
535.847	17.91
536.045	17.93
536.243	18.17
536.441	18.31
536.638	18.38
536.836	18.36
537.034	18.48
537.232	18.39
537.43	18.5
537.627	18.57
537.825	18.69
538.023	18.73
538.22	18.92
538.418	18.88
538.616	18.97
538.813	19.1
539.011	19.3
539.209	19.44
539.406	19.65
539.604	19.9
539.801	20.05
539.999	20.26
540.196	20.4
540.394	20.46
540.591	20.4
540.789	20.51
540.986	20.56
541.184	20.64
541.381	20.69
541.579	20.72
541.776	20.72
541.974	20.81
542.171	20.75
542.368	20.76
542.566	20.8
542.763	20.96
542.96	21.06
543.158	21.24
543.355	21.31
543.552	21.36
543.75	21.44
543.947	21.58
544.144	21.73
544.341	21.87
544.539	22
544.736	22.1
544.933	22.14
545.13	22.08
545.327	22.03
545.524	22.05
545.722	22.12
545.919	22.19
546.116	22.23
546.313	22.06
546.51	22.21
546.707	22.18
546.904	22.18
547.101	22.29
547.298	22.5
547.495	22.66
547.692	22.8
547.889	22.84
548.086	22.92
548.283	23.05
548.48	23.15
548.677	23.25
548.874	23.56
549.07	23.76
549.267	23.89
549.464	23.87
549.661	23.88
549.858	23.97
550.055	24.17
550.251	24.28
550.448	24.25
550.645	24.59
550.842	24.67
551.038	24.56
551.235	24.55
551.432	24.73
551.628	24.83
551.825	24.92
552.022	24.88
552.218	24.84
552.415	24.85
552.612	24.89
552.808	24.92
553.005	24.92
553.201	24.98
553.398	25.22
553.594	25.24
553.791	25.47
553.987	25.58
554.184	25.81
554.38	25.87
554.577	26.19
554.773	26.3
554.97	26.37
555.166	26.64
555.362	26.78
555.559	26.72
555.755	26.83
555.952	26.8
556.148	27.02
556.344	27.16
556.541	27.31
556.737	27.21
556.933	27.38
557.129	27.44
557.326	27.38
557.522	27.37
557.718	27.63
557.914	27.6
558.11	27.53
558.307	27.47
558.503	27.4
558.699	27.55
558.895	27.64
559.091	27.81
559.287	28.13
559.483	28.11
559.679	28.34
559.876	28.06
560.072	28.13
560.268	28.36
560.464	28.5
560.66	28.61
560.856	28.86
561.052	28.87
561.247	28.78
561.443	28.56
561.639	28.82
561.835	28.88
562.031	29.18
562.227	29.37
562.423	29.52
562.619	29.59
562.815	29.76
563.01	29.77
563.206	29.86
563.402	29.96
563.598	30.27
563.793	30.15
563.989	30.33
564.185	30.21
564.381	30.27
564.576	30.4
564.772	30.27
564.968	30.18
565.163	30.22
565.359	30.42
565.555	30.35
565.75	30.26
565.946	30.19
566.141	30.13
566.337	30.24
566.532	30.34
566.728	30.29
566.923	30.54
567.119	30.76
567.314	30.85
567.51	30.83
567.705	31.1
567.901	31.41
568.096	31.7
568.292	31.85
568.487	31.97
568.682	31.88
568.878	31.87
569.073	31.86
569.268	31.71
569.464	31.78
569.659	31.58
569.854	31.66
570.05	31.29
570.245	31.62
570.44	31.64
570.635	31.71
570.831	31.87
571.026	32.05
571.221	32.18
571.416	32.41
571.611	32.36
571.806	32.57
572.002	32.49
572.197	32.7
572.392	32.41
572.587	32.58
572.782	32.66
572.977	32.74
573.172	32.6
573.367	32.57
573.562	32.56
573.757	32.77
573.952	32.84
574.147	32.94
574.342	33.09
574.537	33.23
574.732	32.83
574.927	32.86
575.121	32.9
575.316	33.09
575.511	33.04
575.706	33.13
575.901	32.94
576.096	33.19
576.29	33.06
576.485	33.09
576.68	33.18
576.875	33.41
577.069	33.32
577.264	33.32
577.459	33.47
577.654	33.69
577.848	33.68
578.043	33.82
578.238	33.79
578.432	33.81
578.627	33.68
578.821	33.74
579.016	34.03
579.21	34.24
579.405	34.37
579.6	34.2
579.794	34.09
579.989	34.18
580.183	34.44
580.378	34.31
580.572	34.7
580.766	34.97
580.961	34.92
581.155	34.67
581.35	34.74
581.544	34.61
581.738	34.85
581.933	34.77
582.127	34.8
582.321	34.6
582.516	34.47
582.71	34.14
582.904	34.1
583.099	33.95
583.293	34.37
583.487	34.69
583.681	34.8
583.875	34.85
584.07	35.04
584.264	34.87
584.458	34.92
584.652	35.07
584.846	35.47
585.04	35.42
585.234	35.63
585.428	35.52
585.623	35.35
585.817	35.41
586.011	35.11
586.205	35.18
586.399	35.56
586.593	35.75
586.787	35.89
586.981	35.78
587.174	35.62
587.368	35.8
587.562	35.89
587.756	35.85
587.95	36.14
588.144	36.32
588.338	36.44
588.532	36.23
588.725	36.24
588.919	36.43
589.113	36.42
589.307	36.75
589.501	36.58
589.694	36.62
589.888	36.38
590.082	35.87
590.275	35.83
590.469	35.82
590.663	36.08
590.856	35.83
591.05	35.65
591.244	35.53
591.437	35.68
591.631	35.82
591.824	35.47
592.018	35.57
592.212	35.77
592.405	36.15
592.599	36.07
592.792	35.82
592.986	36.1
593.179	36.02
593.372	36.09
593.566	35.62
593.759	35.64
593.953	36
594.146	36.08
594.339	36.21
594.533	35.88
594.726	35.8
594.92	35.96
595.113	35.98
595.306	36.01
595.499	36.15
595.693	36.56
595.886	36.53
596.079	36.56
596.272	36.74
596.466	36.79
596.659	37.08
596.852	37.38
597.045	37.22
597.238	37.17
597.431	37.25
597.624	37.23
597.818	37.18
598.011	37.17
598.204	37.08
598.397	36.81
598.59	36.53
598.783	36.29
598.976	36.22
599.169	36.33
599.362	36.28
599.555	36.17
599.748	36.14
599.941	35.78
600.134	35.96
600.326	35.75
600.519	36.05
600.712	36.24
600.905	36.41
601.098	36.35
601.291	36.4
601.483	36.28
601.676	36.18
601.869	36.1
602.062	36.25
602.255	36.18
602.447	36.41
602.64	36.38
602.833	36.49
603.025	36.43
603.218	36.21
603.411	36.24
603.603	36.26
603.796	36.55
603.989	36.7
604.181	36.89
604.374	36.82
604.566	36.95
604.759	36.82
604.951	36.91
605.144	37.04
605.336	37.23
605.529	37.31
605.721	37.24
605.914	37.27
606.106	37.45
606.299	37.44
606.491	37.58
606.683	37.69
606.876	37.88
607.068	37.72
607.26	37.59
607.453	37.57
607.645	37.3
607.837	37.55
608.03	37.37
608.222	37.21
608.414	37.22
608.606	36.96
608.799	36.96
608.991	37.34
609.183	37.33
609.375	37.61
609.567	37.66
609.759	37.98
609.952	38.1
610.144	38.17
610.336	38.35
610.528	38.42
610.72	38.68
610.912	38.68
611.104	38.54
611.296	38.75
611.488	38.64
611.68	38.86
611.872	38.63
612.064	38.81
612.256	38.98
612.448	38.98
612.64	38.91
612.832	38.98
613.023	38.76
613.215	38.72
613.407	38.69
613.599	38.54
613.791	38.54
613.983	38.64
614.174	38.49
614.366	38.37
614.558	38
614.75	37.97
614.941	38.11
615.133	38.13
615.325	38.08
615.516	38.27
615.708	38.39
615.9	38.24
616.091	38.02
616.283	37.96
616.475	37.87
616.666	38.05
616.858	38.26
617.049	38.12
617.241	38.08
617.432	37.92
617.624	37.89
617.815	37.53
618.007	37.48
618.198	37.72
618.39	37.7
618.581	38.14
618.773	37.98
618.964	37.75
619.155	37.48
619.347	37.39
619.538	37.56
619.729	37.5
619.921	37.97
620.112	38.13
620.303	37.98
620.494	38.12
620.686	37.9
620.877	38.05
621.068	37.88
621.259	37.97
621.451	38.23
621.642	37.84
621.833	37.89
622.024	37.48
622.215	37.13
622.406	37.24
622.597	36.94
622.788	36.53
622.98	36.4
623.171	36.42
623.362	36.6
623.553	36.77
623.744	37.1
623.935	36.84
624.126	37.4
624.317	37.55
624.508	37.5
624.698	37.76
624.889	37.9
625.08	38.42
625.271	38.75
625.462	38.83
625.653	38.44
625.844	38.41
626.034	38.53
626.225	38.49
626.416	38.42
626.607	38.61
626.798	38.5
626.988	38.66
627.179	38.3
627.37	38.09
627.56	37.9
627.751	38.26
627.942	38.3
628.132	38.18
628.323	37.84
628.514	38.01
628.704	37.86
628.895	37.94
629.085	37.66
629.276	37.82
629.466	37.9
629.657	37.91
629.847	37.71
630.038	38.14
630.228	38.4
630.419	38.87
630.609	39
630.8	39.11
630.99	39.08
631.181	39.33
631.371	39.33
631.561	39.41
631.752	39.6
631.942	39.82
632.132	39.37
632.323	39.27
632.513	39.01
632.703	38.81
632.893	38.68
633.084	38.52
633.274	38.53
633.464	38.23
633.654	38.46
633.844	38.41
634.034	37.95
634.225	37.75
634.415	37.45
634.605	37.33
634.795	37.07
634.985	37.3
635.175	37.39
635.365	37.51
635.555	37.78
635.745	37.4
635.935	37.53
636.125	37.75
636.315	38
636.505	38.36
636.695	38.47
636.885	38.51
637.075	38.56
637.265	38.74
637.455	39.02
637.644	38.95
637.834	39.44
638.024	39.22
638.214	39.17
638.404	39.06
638.593	39.1
638.783	39.06
638.973	39.34
639.163	39.19
639.352	38.67
639.542	38.32
639.732	38.59
639.921	38.22
640.111	38.68
640.301	38.64
640.49	38.85
640.68	38.89
640.87	38.98
641.059	38.84
641.249	38.93
641.438	39.19
641.628	39.34
641.817	39.28
642.007	39.72
642.196	39.19
642.386	39.43
642.575	39.41
642.764	39.24
642.954	39.22
643.143	39.75
643.333	39.52
643.522	39.94
643.711	39.57
643.901	39.61
644.09	38.79
644.279	39.48
644.469	39.34
644.658	39.6
644.847	39.74
645.036	39.84
645.226	39.83
645.415	39.96
645.604	39.61
645.793	40.27
645.982	40.04
646.171	40.63
646.361	40.06
646.55	40.5
646.739	40.46
646.928	40.36
647.117	40.4
647.306	40.22
647.495	40.21
647.684	39.89
647.873	39.4
648.062	39.42
648.251	38.98
648.44	38.84
648.629	38.16
648.818	38.01
649.007	37.75
649.196	37.6
649.384	37.1
649.573	36.96
649.762	37.29
649.951	37.49
650.14	37.82
650.328	38.02
650.517	38.42
650.706	39.11
650.895	39.06
651.083	39.84
651.272	40.09
651.461	40.59
651.65	40.63
651.838	40.74
652.027	40.54
652.216	40.34
652.404	40.2
652.593	40.31
652.781	40.48
652.97	40.4
653.158	39.95
653.347	39.72
653.535	39.44
653.724	39.69
653.912	40.13
654.101	40.02
654.289	40.17
654.478	40.18
654.666	39.98
654.855	39.4
655.043	39.72
655.231	39.73
655.42	39.65
655.608	40.06
655.796	40.21
655.985	39.71
656.173	39.53
656.361	39.06
656.55	39.03
656.738	39.16
656.926	39.63
657.114	38.95
657.302	39
657.491	38.94
657.679	38.97
657.867	38.81
658.055	38.85
658.243	39.33
658.431	39.54
658.619	39.81
658.807	40.09
658.996	39.9
659.184	40.35
659.372	40.21
659.56	40.21
659.748	39.81
659.936	39.87
660.124	40.01
660.311	39.98
660.499	40.06
660.687	39.96
660.875	39.23
661.063	39.33
661.251	39.23
661.439	39.19
661.627	39.17
661.814	39.41
662.002	39.24
662.19	39.19
662.378	38.85
662.565	38.82
662.753	38.96
662.941	39.5
663.129	39.09
663.316	39.27
663.504	39.55
663.692	39.71
663.879	39.45
664.067	39.61
664.254	39.76
664.442	39.89
664.63	39.83
664.817	39.83
665.005	39.68
665.192	40.42
665.38	40.06
665.567	39.78
665.755	40.2
665.942	40.23
666.13	40.51
666.317	39.76
666.504	39.6
666.692	39.83
666.879	39.59
667.067	39.79
667.254	39.19
667.441	38.96
667.629	39.42
667.816	38.94
668.003	39.39
668.19	39.24
668.378	39.61
668.565	40.02
668.752	39.57
668.939	39.57
669.127	39.51
669.314	39.29
669.501	40
669.688	39.38
669.875	39.61
670.062	39.4
670.249	39.61
670.436	39.68
670.623	39.81
670.81	39.82
670.997	39.76
671.184	39.45
671.371	39.8
671.558	38.95
671.745	39.06
671.932	38.53
672.119	38.46
672.306	38.39
672.493	38.45
672.68	38.33
672.867	38.98
673.054	39.59
673.24	39.77
673.427	39.93
673.614	40.71
673.801	40.98
673.988	41.67
674.174	41.71
674.361	41.37
674.548	41.01
674.734	40.96
674.921	40.46
675.108	40.19
675.294	39.99
675.481	39.62
675.668	39.39
675.854	39.67
676.041	39.34
676.227	39.33
676.414	39.4
676.601	39.6
676.787	39.72
676.974	39.79
677.16	39.57
677.347	40.37
677.533	40.47
677.719	40.68
677.906	40.51
678.092	40.71
678.279	41.1
678.465	41.04
678.651	41.52
678.838	41.15
679.024	40.69
679.21	40.5
679.397	40.24
679.583	40.7
679.769	40.44
679.955	40
680.142	39.66
680.328	39.56
680.514	39.25
680.7	38.65
680.886	38.86
681.073	39.53
681.259	40.01
681.445	39.92
681.631	39.34
681.817	39.55
682.003	40.01
682.189	40.22
682.375	40.3
682.561	40.58
682.747	40.39
682.933	40.78
683.119	40.61
683.305	40.69
683.491	40.78
683.677	41.26
683.863	40.98
684.049	40.69
684.235	41.11
684.42	40.74
684.606	40.76
684.792	41.32
684.978	41.06
685.164	40.91
685.349	40.81
685.535	40.93
685.721	40.3
685.907	40.21
686.092	40.37
686.278	39.94
686.464	39.69
686.649	40.12
686.835	40.26
687.021	40.49
687.206	40.77
687.392	40.78
687.577	40.46
687.763	41.19
687.948	41.4
688.134	41.52
688.319	41.64
688.505	42.27
688.69	42.02
688.876	41.93
689.061	40.97
689.247	40.93
689.432	40.68
689.618	40.53
689.803	40.32
689.988	40.25
690.174	40.11
690.359	39.73
690.544	39.38
690.73	39.11
690.915	39.28
691.1	39.75
691.285	40.17
691.471	40.23
691.656	40.12
691.841	39.58
692.026	39.86
692.211	39.96
692.396	40.1
692.582	40.8
692.767	40.56
692.952	40.29
693.137	40.74
693.322	40.23
693.507	39.98
693.692	40.23
693.877	40.81
694.062	40.44
694.247	40.88
694.432	40.9
694.617	40.15
694.802	40.81
694.987	40.72
695.172	40.58
695.357	40.59
695.541	40.44
695.726	41.04
695.911	41.23
696.096	41.24
696.281	41.05
696.466	41.43
696.65	41.6
696.835	41.41
697.02	41.13
697.204	41.03
697.389	40.86
697.574	41.24
697.759	40.47
697.943	40.41
698.128	40.75
698.312	40.57
698.497	40.78
698.682	40.69
698.866	40.51
699.051	40.93
699.235	41.03
699.42	41.17
699.604	41.31
699.789	41.75
699.973	41.49
700.158	41.32
700.342	41.49
700.527	41.24
700.711	41.47
700.895	42.17
701.08	41.9
701.264	41.57
701.448	41.59
701.633	41.59
701.817	41.72
702.001	42.05
702.186	42.07
702.37	41.61
702.554	41.61
702.738	41.39
702.923	41.01
703.107	41.28
703.291	42.1
703.475	42.51
703.659	42.63
703.843	41.92
704.027	42.29
704.212	42.08
704.396	43
704.58	42.73
704.764	42.18
704.948	41.58
705.132	41.37
705.316	40.63
705.5	40.44
705.684	40.08
705.868	40.64
706.052	40.83
706.235	41.34
706.419	41.03
706.603	41.31
706.787	41.78
706.971	42.17
707.155	42.29
707.339	42.2
707.522	42.54
707.706	42.3
707.89	41.59
708.074	41.24
708.257	40.87
708.441	41.04
708.625	40.53
708.808	40.83
708.992	41.3
709.176	41.41
709.359	41.57
709.543	40.48
709.727	41.01
709.91	42.08
710.094	41.57
710.277	42.22
710.461	41.54
710.644	42.27
710.828	42.83
711.011	42.24
711.195	42.5
711.378	42.73
711.562	43.33
711.745	42.92
711.928	42.41
712.112	42.47
712.295	41.75
712.478	42.34
712.662	42.47
712.845	41.49
713.028	41.46
713.212	41.46
713.395	41.57
713.578	41.55
713.761	41.87
713.945	42.08
714.128	42.69
714.311	42.7
714.494	41.94
714.677	41.58
714.86	41.67
715.043	42.07
715.227	41.64
715.41	41.76
715.593	42.07
715.776	42.28
715.959	41.83
716.142	41.17
716.325	41.21
716.508	41.96
716.691	41.97
716.874	42.1
717.057	41.88
717.239	42.33
717.422	41.78
717.605	41.48
717.788	40.32
717.971	40.95
718.154	41.25
718.337	41.77
718.519	41.43
718.702	41.13
718.885	40.49
719.068	40.37
719.25	40.38
719.433	41.16
719.616	41.05
719.798	42.67
719.981	42.34
720.164	42.1
720.346	41.87
720.529	41.74
720.712	42.34
720.894	43.35
721.077	43.05
721.259	43.02
721.442	42.91
721.624	42.71
721.807	41.84
721.989	41.47
722.172	41.26
722.354	41.46
722.537	41.61
722.719	41.24
722.901	41.54
723.084	41.4
723.266	41.36
723.448	40.8
723.631	40.44
723.813	41.17
723.995	41.18
724.178	42.08
724.36	41.74
724.542	41.87
724.724	42.98
724.907	43.1
725.089	43.76
725.271	43.36
725.453	43.48
725.635	44.41
725.817	44.51
725.999	44.84
726.181	44.61
726.364	44.69
726.546	44.68
726.728	44.19
726.91	43.41
727.092	43.52
727.274	43.87
727.456	44.02
727.638	42.53
727.819	42.39
728.001	42.9
728.183	42.32
728.365	42.67
728.547	42.73
728.729	43
728.911	44.03
729.093	43.95
729.274	42.87
729.456	41.86
729.638	42.98
729.82	42.18
730.001	41.24
730.183	41.74
730.365	41
730.546	41.57
730.728	41.1
730.91	39.82
731.091	40.11
731.273	41.36
731.455	41.9
731.636	42.23
731.818	42.88
731.999	43.29
732.181	42.28
732.362	42.23
732.544	42.28
732.725	41.94
732.907	41.9
733.088	41.81
733.27	42.33
733.451	42.66
733.633	42.42
733.814	42.32
733.995	42.29
734.177	43.66
734.358	44.65
734.539	44.1
734.721	43.62
734.902	44.78
735.083	44.87
735.264	43.76
735.446	43.44
735.627	42.73
735.808	42.34
735.989	42.42
736.17	43.06
736.351	42.88
736.533	42.35
736.714	43.84
736.895	43.19
737.076	41.99
737.257	41.86
737.438	41.86
737.619	42.87
737.8	42.34
737.981	42.63
738.162	42.31
738.343	41.98
738.524	42.59
738.705	41.47
738.886	40.98
739.067	43.15
739.247	43.36
739.428	43.36
739.609	42.34
739.79	43.21
739.971	43.14
740.151	42.85
740.332	42.94
740.513	43.11
740.694	43.56
740.874	43.93
741.055	41.71
741.236	41.95
741.417	42.41
741.597	43.33
741.778	43.51
741.958	42.69
742.139	40.36
742.32	39.41
742.5	39.06
742.681	39.16
742.861	39.68
743.042	39.92
743.222	39.17
743.403	39.09
743.583	39.34
743.764	38.53
743.944	39.05
744.124	41.19
744.305	42.71
744.485	42.08
744.666	41.73
744.846	41.12
745.026	41.94
745.207	43.67
745.387	43.71
745.567	43.07
745.747	43.47
745.928	42.29
746.108	42.35
746.288	41.5
746.468	42.68
746.648	43.23
746.829	43.82
747.009	42.5
747.189	41.36
747.369	40.95
747.549	40.95
747.729	40.44
747.909	40.46
748.089	41.76
748.269	41.67
748.449	40.65
748.629	40.49
748.809	39.27
748.989	40.84
749.169	41.02
749.349	41.07
749.529	40.73
749.709	41.44
749.889	43.34
750.068	41.92
750.248	42.41
750.428	43.09
750.608	42.7
750.788	42.69
750.967	41.86
751.147	40.51
751.327	41.12
751.507	41.56
751.686	41.93
751.866	42.05
752.046	41.83
752.225	42.05
752.405	42.49
752.585	42.78
752.764	44.05
752.944	43.54
753.123	44.34
753.303	43.54
753.482	43.57
753.662	43.05
753.841	41.94
754.021	42.3
754.2	42.88
754.38	41.95
754.559	41.48
754.739	41.36
754.918	42.53
755.097	42.33
755.277	42.52
755.456	42.33
755.635	42.81
755.815	42.8
755.994	42.66
756.173	40.92
756.352	41.5
756.532	40.99
756.711	41.3
756.89	41.55
757.069	42.69
757.248	42.45
757.427	42.11
757.607	41.8
757.786	42.4
757.965	41.11
758.144	41.1
758.323	41.58
758.502	43.06
758.681	42.26
758.86	41.9
759.039	40.63
759.218	40.59
759.397	41.31
759.576	41.26
759.755	40.78
759.934	41.36
760.113	40.97
760.291	40.73
760.47	41
760.649	41.14
760.828	40.86
761.007	40.4
761.186	41.31
761.364	40.37
761.543	40.04
761.722	40.35
761.901	40.31
762.079	40.9
762.258	40.54
762.437	39.72
762.615	39.38
762.794	39.81
762.972	40.87
763.151	39.99
763.33	40.57
763.508	40.41
763.687	40.75
763.865	41.57
764.044	42.05
764.222	41.32
764.401	41.42
764.579	42.19
764.758	41.58
764.936	41.51
765.114	41.8
765.293	41.59
765.471	41.94
765.65	40.46
765.828	39.95
766.006	39.65
766.184	40.05
766.363	39.6
766.541	39.2
766.719	39.73
766.898	39.79
767.076	40.06
767.254	40.18
767.432	40.26
767.61	42.52
767.788	43.78
767.967	44.18
768.145	43.42
768.323	44.42
768.501	43.34
768.679	42.93
768.857	43.35
769.035	43.35
769.213	43.37
769.391	43.06
769.569	41.79
769.747	40.86
769.925	40.17
770.103	41.81
770.281	39.67
770.459	39.13
770.636	39.14
770.814	38.98
770.992	38.72
771.17	39.02
771.348	39.43
771.525	40.74
771.703	40.25
771.881	39.76
772.059	39.46
772.236	39.34
772.414	40.91
772.592	41.37
772.769	40.61
772.947	40.56
773.125	40.19
773.302	40.23
773.48	40.37
773.657	40.57
773.835	41.52
774.013	42.17
774.19	42.86
774.368	41.31
774.545	41.41
774.723	42.67
774.9	43.58
775.077	42.33
775.255	42.54
775.432	42.21
775.61	42.41
775.787	41.4
775.964	40.2
776.142	41.57
776.319	43.97
776.496	44.45
776.674	43.49
776.851	43.67
777.028	44.5
777.205	45.46
777.382	45.64
777.56	45.4
777.737	47.48
777.914	47.56
778.091	46.95
778.268	44.42
778.445	43.93
778.622	42.21
778.8	41.87
778.977	43.8
779.154	43.55
779.331	43.29
779.508	43.93
779.685	43.02
779.862	44.41
780.038	44.97
780.215	47.35
780.392	47.27
780.569	49.56
780.746	48.02
780.923	48.08
781.1	46.89
781.277	45
781.453	43.16
781.63	42.99
781.807	42.81
781.984	42.57
782.16	42
782.337	44.43
782.514	44.11
782.691	45.39
782.867	43.63
783.044	44
783.221	44.95
783.397	45.51
783.574	44.37
783.75	43.83
783.927	44.87
784.103	43.9
784.28	41.54
784.456	41.19
784.633	42.4
784.809	43.86
784.986	41.09
785.162	41.18
785.339	41.54
785.515	41.53
785.692	42.24
785.868	43
786.044	44.69
786.221	44.02
786.397	44.32
786.573	42.13
786.749	41.8
786.926	44.66
787.102	43.62
787.278	43.3
787.454	44.89
787.631	43.38
787.807	40.99
787.983	41.12
788.159	42.5
788.335	42.53
788.511	44.49
788.687	44.08
788.863	44.65
789.039	45.51
789.216	45.45
789.392	45.6
789.568	44.25
789.744	45.22
789.919	46.08
790.095	46.42
790.271	45.93
790.447	44.67
790.623	43.87
790.799	41.45
790.975	41.32
791.151	42.7
791.327	40.51
791.502	41.39
791.678	43.15
791.854	43
792.03	40.24
792.205	40.52
792.381	38.98
792.557	39.95
792.733	41.71
792.908	43.18
793.084	43.95
793.259	45.31
793.435	46.71
793.611	44.88
793.786	41.91
793.962	40.78
794.137	40.02
794.313	42.16
794.488	42.23
794.664	43.37
794.839	42.91
795.015	41.79
795.19	41.71
795.366	42.13
795.541	43.03
795.716	42.99
795.892	45.39
796.067	46.25
796.242	46.6
796.418	49.07
796.593	47.67
796.768	47.07
796.944	46.55
797.119	46.94
797.294	47.53
797.469	46.39
797.644	46.68
797.82	46.53
797.995	45.86
798.17	45.51
798.345	43.69
798.52	43.73
798.695	42.84
798.87	41.32
799.045	40.22
799.22	40.76
799.395	41.31
799.57	43.69
799.745	46.87
799.92	47.69
800.095	46.54
800.27	44.88
800.445	43
800.62	41.08
800.795	42.54
800.97	44.8
801.145	44.66
801.319	43.18
801.494	40.41
801.669	39.39
801.844	39.18
802.018	39.85
802.193	40.86
802.368	41.28
802.543	43.55
802.717	46.08
802.892	44.21
803.067	45.18
803.241	46.73
803.416	47.58
803.59	47.86
803.765	47.63
803.94	49.36
804.114	47.14
804.289	50.4
804.463	49.17
804.638	46.32
804.812	48.67
804.986	43.62
805.161	45.42
805.335	47.6
805.51	42.78
805.684	40.49
805.858	38.16
806.033	41.7
806.207	39.16
806.381	43.23
806.556	44.85
806.73	42.14
806.904	45.06
807.078	44.02
807.253	42.08
807.427	45.07
807.601	47.14
807.775	48.7
807.949	48.09
808.123	47.24
808.298	46.69
808.472	45.49
808.646	47.18
808.82	47.41
808.994	42.95
809.168	41.23
809.342	42.34
809.516	45.05
809.69	44.62
809.864	42.74
810.038	42.8
810.212	40.64
810.385	39.24
810.559	41.03
810.733	39.92
810.907	45.47
811.081	47.83
811.255	47.71
811.428	42.97
811.602	41.94
811.776	41.35
811.95	42.4
812.123	42.65
812.297	46.15
812.471	39.61
812.644	40.86
812.818	36.7
812.992	39.46
813.165	43.86
813.339	44.89
813.512	47.22
813.686	48.36
813.86	49.53
814.033	49
814.207	45.64
814.38	48.11
814.554	48.13
814.727	48.89
814.9	48.78
815.074	42.86
815.247	39.27
815.421	37.69
815.594	36.98
815.767	35.97
815.941	37.36
816.114	41.06
816.287	43
816.46	44.97
816.634	46
816.807	46.95
816.98	49.63
817.153	54.34
817.327	55.43
817.5	55.19
817.673	57.45
817.846	57.38
818.019	55.79
818.192	55.12
818.365	51.72
818.538	50.79
818.711	47.35
818.884	42.17
819.057	41.87
819.23	40.11
819.403	40.69
819.576	40.38
819.749	39.39
819.922	40.2
820.095	43.12
820.268	42.91
820.441	44.19
820.614	45.23
820.786	46.32
820.959	47.35
821.132	46.84
821.305	44.54
821.477	44.66
821.65	44.67
821.823	44.47
821.996	43.2
822.168	44.11
822.341	43.09
822.514	42.93
822.686	42.65
822.859	41.98
823.031	42.37
823.204	42.91
823.376	42.23
823.549	41.99
823.722	41.36
823.894	40.72
824.067	39.94
824.239	40.22
824.411	39.67
824.584	39.67
824.756	39.9
824.929	39.29
825.101	39.88
825.273	40.34
825.446	40.89
825.618	41.33
825.79	41.94
825.963	42.28
826.135	42.5
826.307	43.25
826.479	43.55
826.652	43.21
826.824	43.43
826.996	42.55
827.168	42.17
827.34	41.28
827.512	41.62
827.684	41.16
827.856	40.32
828.029	40.22
828.201	39.28
828.373	39.46
828.545	39.41
828.717	40.36
828.889	39.83
829.061	40.04
829.232	39.83
829.404	38.56
829.576	37.8
829.748	39.37
829.92	40.17
830.092	41.16
830.264	40.83
830.436	40.94
830.607	39.41
830.779	40.76
830.951	40.2
831.123	42.69
831.294	44.1
831.466	45.09
831.638	45.41
831.809	43.07
831.981	41.87
832.153	41.79
832.324	39.91
832.496	41.23
832.667	41.52
832.839	41.64
833.011	39.7
833.182	40.52
833.354	42.62
833.525	41.98
833.697	42.34
833.868	42.22
834.039	42.09
834.211	42.34
834.382	42.47
834.554	41.51
834.725	41.74
834.896	40.55
835.068	41.41
835.239	41.47
835.41	42
835.581	42.38
835.753	43.8
835.924	45.25
836.095	46.06
836.266	45.48
836.438	45.64
836.609	45.46
836.78	47
836.951	46.61
837.122	46.03
837.293	46.1
837.464	47.37
837.635	47.89
837.806	44.45
837.977	42.62
838.148	44.33
838.319	44.79
838.49	46.04
838.661	44.48
838.832	44.63
839.003	43.58
839.174	42.69
839.345	44.55
839.516	40.32
839.687	45.16
839.857	44.79
840.028	43.17
840.199	43.27
840.37	44.61
840.54	47.3
840.711	45.69
840.882	43.86
841.053	44.87
841.223	39.74
841.394	41.88
841.564	41.79
841.735	45.52
841.906	42.54
842.076	40.85
842.247	38.77
842.417	38.01
842.588	36.59
842.758	42.49
842.929	42.64
843.099	45.63
843.27	45
843.44	44.19
843.611	43.95
843.781	46.95
843.951	48.73
844.122	47.02
844.292	40.48
844.462	43.14
844.633	41.49
844.803	38.96
844.973	34.73
845.144	37.26
845.314	32.59
845.484	33.93
845.654	36.16
845.824	37.87
845.995	38.72
846.165	49.11
846.335	53.67
846.505	53.49
846.675	55.36
846.845	59.4
847.015	70.65
847.185	82.07
847.355	76.76
847.525	77.07
847.695	78.68
847.865	79.94
848.035	65.43
848.205	48.19
848.375	46.09
848.545	48.86
848.715	58.24
848.884	51.65
849.054	52.52
849.224	56.71
849.394	51.6
849.564	43.75
849.733	45.29
849.903	45.69
850.073	48.51
850.243	53.71
850.412	58.11
850.582	51.2
850.752	50.6
850.921	42.48
851.091	50.62
851.26	71.64
851.43	74.62
851.599	80.35
851.769	79.67
851.939	74.64
852.108	52.22
852.278	49.63
852.447	51.55
852.616	53.24
852.786	59.85
852.955	55.08
853.125	36.9
853.294	38
853.463	30.36
853.633	23.51
853.802	45.73
853.971	68.92
854.141	73.05
854.31	63.74
854.479	50.49
854.648	53.35
854.818	52.29
854.987	49.31
855.156	45.16
855.325	39.25
855.494	56.61
855.663	30.42
855.832	41.31
856.001	31.12
856.171	34.53
856.34	48.71
856.509	49.04
856.678	45.82
856.847	51.24
857.016	61.66
857.185	63.73
857.353	60.16
857.522	64.71
857.691	54.46
857.86	57.58
858.029	64.72
858.198	67.59
858.367	63.57
858.535	65.03
858.704	69.99
858.873	58.8
859.042	65.33
859.21	73.69
859.379	73.67
859.548	66.11
859.717	59.31
859.885	57.66
860.054	38.79
860.222	31.55
860.391	28.04
860.56	29.61
860.728	29.39
860.897	25.74
861.065	16.32
861.234	12.81
861.402	21.1
861.571	24.55
861.739	30.26
861.908	29.24
862.076	47.4
862.244	54.67
862.413	54.25
862.581	62.58
862.749	63.92
862.918	62.81
863.086	57.09
863.254	58.14
863.423	53.4
863.591	44.42
863.759	54.85
863.927	31.85
864.096	29.01
864.264	39.26
864.432	32.87
864.6	37.1
864.768	28.87
864.936	38.81
865.104	41.2
865.272	46.82
865.44	48.97
865.608	52.1
865.776	67.81
865.944	66.23
866.112	60.32
866.28	65.36
866.448	58.03
866.616	73.15
866.784	66.06
866.952	68.27
867.12	75.6
867.288	71.95
867.455	77.32
867.623	75.91
867.791	78.33
867.959	76.57
868.127	76.85
868.294	62.13
868.462	60.93
868.63	65.77
868.797	63.33
868.965	60.08
869.133	62.13
869.3	53.8
869.468	47.84
869.636	43.98
869.803	47.95
869.971	54.2
870.138	62.17
870.306	61.36
870.473	57.18
870.641	57.27
870.808	53.27
870.975	53.99
871.143	52.05
871.31	47.99
871.478	39.83
871.645	40.3
871.812	33.13
871.98	36.86
872.147	15.39
872.314	23.06
872.482	17.69
872.649	22.23
872.816	29.28
872.983	29.36
873.15	25.8
873.318	41.29
873.485	36.35
873.652	41.05
873.819	35.08
873.986	51.3
874.153	57.51
874.32	67.48
874.487	78.14
874.654	71.07
874.821	80.16
874.988	93.99
875.155	91.07
875.322	79.29
875.489	90.85
875.656	93.61
875.823	100.49
875.99	88.72
876.157	78.96
876.324	70.63
876.49	61.48
876.657	59.52
876.824	63.01
876.991	59.36
877.157	63.52
877.324	56.82
877.491	49.4
877.658	47.23
877.824	44.84
877.991	43.18
878.157	43.58
878.324	49.01
878.491	48.47
878.657	43.17
878.824	49.57
878.99	49.49
879.157	52.6
879.323	57.99
879.49	60.79
879.656	69.31
879.823	69.38
879.989	69.5
880.156	71.5
880.322	76.03
880.488	75.74
880.655	62.43
880.821	59.98
880.987	59.36
881.154	61.41
881.32	58.44
881.486	57.01
881.652	59.61
881.819	59.15
881.985	56.38
882.151	55.47
882.317	54.88
882.483	57.43
882.649	56.87
882.816	53.41
882.982	53.45
883.148	51.82
883.314	49.46
883.48	49.57
883.646	49.19
883.812	49.28
883.978	49.03
884.144	47.85
884.31	48.2
884.476	46.16
884.642	45.85
884.807	42.89
884.973	42.09
885.139	43.11
885.305	40.13
885.471	37.88
885.637	38.77
885.802	35.83
885.968	38.11
886.134	38.9
886.3	42.01
886.465	41.99
886.631	42.43
886.797	43.12
886.962	39.98
887.128	44.33
887.293	48.54
887.459	40.71
887.625	44.14
887.79	40.55
887.956	34.04
888.121	29.83
888.287	33.59
888.452	37.1
888.618	38.03
888.783	41.4
