Data from CB_028_Reflection_3.txt Node
Date: Wed Nov 11 20:42:32 EST 2015
User: robert
Spectrometer: USB4E03001
Autoset integration time: false
Trigger mode: 4
Integration Time (sec): 1.000000E-1
Scans to average: 15
Electric dark correction enabled: true
Nonlinearity correction enabled: false
Boxcar width: 5
Stray light correction enabled: false
XAxis mode: Wavelengths
Stop averaging: false
Number of Pixels in Spectrum: 3648
>>>>>Begin Spectral Data<<<<<
177.566	-216.83
177.785	-325.05
178.005	882.29
178.225	-290.7
178.445	-392.69
178.665	911.76
178.885	7.33
179.105	3776.09
179.324	320.36
179.544	491.56
179.764	-556.8
179.984	-664.37
180.204	19442.5
180.423	325.5
180.643	-962.72
180.863	2092.34
181.083	315.18
181.302	791.97
181.522	855.21
181.742	-2351.86
181.961	-482.92
182.181	-2896.62
182.401	2087.5
182.621	-311.6
182.84	-377.76
183.06	-295.75
183.279	-539.58
183.499	-218.79
183.719	-177.75
183.938	-132.36
184.158	-132.55
184.377	-83.89
184.597	-182.92
184.816	-128.97
185.036	-197.34
185.256	-93.43
185.475	-143.52
185.695	-118.93
185.914	-213.38
186.134	-2233.14
186.353	4185.79
186.572	474.42
186.792	475.3
187.011	1240.13
187.231	1796.89
187.45	674.16
187.67	455.96
187.889	363.2
188.108	315.34
188.328	444.18
188.547	784.78
188.766	1019.68
188.986	5075.33
189.205	6524.77
189.424	1663.25
189.644	614.39
189.863	586.08
190.082	2448.08
190.302	353.79
190.521	365.76
190.74	192.95
190.959	166.48
191.178	158.37
191.398	112.41
191.617	94.72
191.836	203.29
192.055	121.5
192.274	225.03
192.494	351.48
192.713	720.97
192.932	1471.29
193.151	-134.74
193.37	-130.6
193.589	-190.38
193.808	-377.04
194.027	-369.54
194.246	-799.73
194.465	-214.66
194.685	-574.63
194.904	665.95
195.123	-399.42
195.342	-0.79
195.561	-0.32
195.78	-166.99
195.999	-29.03
196.218	5.48
196.436	-557.52
196.655	1090.6
196.874	716.29
197.093	1271.03
197.312	-440.66
197.531	1464.05
197.75	670.09
197.969	864.12
198.188	1542.58
198.407	632.59
198.625	596.58
198.844	703.13
199.063	-2486.23
199.282	-973.65
199.501	-742.98
199.719	-1030.68
199.938	-864.58
200.157	5332.06
200.376	-428.24
200.594	-1175.94
200.813	-597.02
201.032	685.34
201.251	560.38
201.469	669.95
201.688	438.29
201.907	1029.94
202.125	824.31
202.344	2597.98
202.563	993.21
202.781	936.83
203	562.09
203.218	230.84
203.437	608.62
203.656	955.94
203.874	665.72
204.093	1783.38
204.311	987.46
204.53	290.11
204.748	447.85
204.967	729.75
205.185	11269.52
205.404	-403.48
205.622	-164.6
205.841	-109.93
206.059	-81.19
206.278	-34.33
206.496	-72.73
206.715	-227.04
206.933	-135.74
207.151	-225.4
207.37	-206.26
207.588	-455.05
207.806	-209.18
208.025	-251.17
208.243	425.09
208.461	321.63
208.68	286.32
208.898	-2154.79
209.116	-206.96
209.335	-827.19
209.553	-75.21
209.771	-420.37
209.989	399.9
210.208	105.81
210.426	146.29
210.644	253.91
210.862	271.63
211.081	231.96
211.299	203.84
211.517	155.85
211.735	526.03
211.953	233.91
212.171	335.61
212.39	-2682.35
212.608	-384.41
212.826	-270.44
213.044	-193.33
213.262	-229.28
213.48	-169.41
213.698	-156.75
213.916	-363
214.134	-398.97
214.352	-310.52
214.57	-137.03
214.788	-333.95
215.006	-505.5
215.224	281.95
215.442	785.61
215.66	424.12
215.878	437.69
216.096	302.11
216.314	371.31
216.532	698.58
216.75	1532.79
216.968	509.92
217.185	285.64
217.403	255.99
217.621	624.81
217.839	222.05
218.057	407.39
218.275	869.25
218.492	-1254.22
218.71	424.79
218.928	263.08
219.146	250.88
219.363	1090.2
219.581	-630.55
219.799	-160.04
220.017	-326.79
220.234	-295.05
220.452	-346.25
220.67	-595.31
220.887	4467.18
221.105	-718.78
221.323	-160.38
221.54	-157.03
221.758	-523.41
221.976	-208.56
222.193	-201
222.411	-160.64
222.629	-144.69
222.846	-210
223.064	-117.05
223.281	-79.67
223.499	-68.65
223.716	-117.36
223.934	-113.05
224.151	-91.75
224.369	-103.31
224.586	-70.25
224.804	-61.9
225.021	-64.64
225.239	-78.3
225.456	-110.54
225.674	-65.96
225.891	-72.47
226.108	-87.99
226.326	-75.51
226.543	-37.2
226.76	-7.18
226.978	-10.54
227.195	-6.89
227.413	11.4
227.63	13.22
227.847	11.58
228.064	6.73
228.282	2.62
228.499	5.7
228.716	5.02
228.934	3.98
229.151	0.72
229.368	0.88
229.585	1.91
229.802	-5.6
230.02	-10.51
230.237	-11.66
230.454	-12.94
230.671	-17.2
230.888	-14.73
231.105	-11.85
231.323	-13.84
231.54	-19.24
231.757	-23.14
231.974	-29.64
232.191	-19.71
232.408	-13.53
232.625	-12.53
232.842	-12.49
233.059	-10.09
233.276	-13.88
233.493	-21.87
233.71	-27.18
233.927	-20.05
234.144	-26.44
234.361	-23.75
234.578	-26.68
234.795	-36.77
235.012	-40.85
235.229	-44.61
235.446	-42.79
235.663	-53.59
235.879	-52.71
236.096	-36.13
236.313	-46.03
236.53	-39.83
236.747	-32.61
236.964	-29.34
237.181	-19.76
237.397	-18.25
237.614	-23.03
237.831	-24.4
238.048	-17.01
238.264	-19.79
238.481	-19.01
238.698	-16.24
238.915	-10.39
239.131	-13.97
239.348	-14.54
239.565	-9.84
239.781	-6.46
239.998	-1.84
240.215	4.43
240.431	2.9
240.648	0.97
240.865	-1.11
241.081	-2.14
241.298	-2.52
241.514	-2.21
241.731	-0.25
241.947	-3.06
242.164	-2.11
242.38	0.42
242.597	-1.61
242.814	-1.27
243.03	2.36
243.246	1.41
243.463	2.09
243.679	-0.51
243.896	-0.44
244.112	0.96
244.329	4.78
244.545	3.86
244.762	2.21
244.978	5.58
245.194	8.35
245.411	5.46
245.627	6.37
245.843	7.95
246.06	10.56
246.276	11.34
246.492	9.29
246.709	8.4
246.925	9.43
247.141	9.37
247.357	9.39
247.574	8.53
247.79	9.62
248.006	9.22
248.222	9.18
248.439	9.45
248.655	8.88
248.871	9.02
249.087	8.19
249.303	7.34
249.519	7.55
249.736	6.64
249.952	5.9
250.168	4
250.384	4.55
250.6	0.85
250.816	-1.34
251.032	-0.05
251.248	2.03
251.464	3.27
251.68	5
251.896	5.1
252.112	3.96
252.328	3.77
252.544	4.03
252.76	3.78
252.976	8.68
253.192	8.53
253.408	6.31
253.624	3.15
253.84	0.32
254.056	-2.66
254.272	-3.9
254.487	-5.18
254.703	-7.48
254.919	-6.65
255.135	-10.08
255.351	-22.79
255.567	-17.82
255.782	-14.28
255.998	-12.42
256.214	-10.16
256.43	-10.56
256.646	-7.83
256.861	-2.64
257.077	1.29
257.293	0.06
257.508	3.32
257.724	8.48
257.94	6.42
258.155	8.23
258.371	8.33
258.587	9.42
258.802	7.63
259.018	6.58
259.234	4.66
259.449	4.41
259.665	4.6
259.88	4.88
260.096	3.35
260.312	4.14
260.527	3
260.743	2.66
260.958	1.24
261.174	2.94
261.389	1.88
261.605	2.89
261.82	3.74
262.036	4.25
262.251	1.11
262.466	3.33
262.682	1.24
262.897	0.96
263.113	2.52
263.328	5.24
263.543	3.52
263.759	4.26
263.974	1.15
264.189	-2.92
264.405	-4.28
264.62	-1.28
264.835	-1.07
265.051	-3.11
265.266	-2.47
265.481	-4.06
265.696	-6.28
265.912	-6.39
266.127	-6.98
266.342	-5.47
266.557	-3.68
266.773	-3.38
266.988	-2.66
267.203	-4.95
267.418	-2.66
267.633	-2.64
267.848	-1.1
268.064	-0.29
268.279	0.52
268.494	0.85
268.709	2.03
268.924	1.48
269.139	1.87
269.354	0.26
269.569	0.53
269.784	2.1
269.999	2.95
270.214	1.82
270.429	1.78
270.644	2.11
270.859	2.67
271.074	2.44
271.289	3.11
271.504	2.82
271.719	3.05
271.934	3.25
272.149	2.82
272.363	1.65
272.578	2.49
272.793	2.45
273.008	1.65
273.223	1.32
273.438	-0.64
273.653	-0.82
273.867	-0.74
274.082	-1.37
274.297	-0.68
274.512	-1.71
274.726	-0.65
274.941	-2.23
275.156	-1.83
275.371	-2.29
275.585	-2.27
275.8	-1.43
276.015	-1.22
276.229	-0.74
276.444	1.22
276.659	-0.01
276.873	0.07
277.088	-0.06
277.302	-0.95
277.517	0.26
277.732	0.53
277.946	2.21
278.161	2.81
278.375	2.91
278.59	1.47
278.804	-0.97
279.019	-0.5
279.233	-0.24
279.448	1.02
279.662	2.22
279.877	1.63
280.091	3.18
280.306	3.81
280.52	5.66
280.735	4.48
280.949	6.27
281.163	7.96
281.378	9.92
281.592	8.94
281.806	6.86
282.021	7.58
282.235	6.15
282.449	4.07
282.664	3.16
282.878	2.99
283.092	3.32
283.307	1.91
283.521	1.92
283.735	-0.19
283.949	-0.23
284.164	0.71
284.378	1.13
284.592	1.62
284.806	1.7
285.02	1.57
285.234	1.12
285.449	0.42
285.663	0.42
285.877	0.92
286.091	0.7
286.305	1.4
286.519	1.49
286.733	1.61
286.947	2.51
287.161	3.91
287.375	4.28
287.589	4.14
287.803	4.93
288.017	6.48
288.231	5.62
288.445	7.39
288.659	7.82
288.873	7.72
289.087	6.32
289.301	5.26
289.515	5.51
289.729	5.74
289.943	5.8
290.157	6.56
290.371	5.95
290.584	6.87
290.798	6.58
291.012	6
291.226	5.73
291.44	5.85
291.654	5.22
291.867	5.16
292.081	5.28
292.295	4.43
292.509	3.7
292.722	3.03
292.936	3.78
293.15	2.58
293.364	3.13
293.577	4.43
293.791	5.2
294.005	7.56
294.218	7.52
294.432	7.78
294.645	8.52
294.859	9.01
295.073	9.49
295.286	8.94
295.5	9.52
295.713	9.43
295.927	9.09
296.14	9.03
296.354	8.32
296.568	7.88
296.781	7.47
296.994	7.5
297.208	7.8
297.421	8.07
297.635	7.92
297.848	7.54
298.062	7.87
298.275	9.32
298.489	9.71
298.702	9.51
298.915	10.13
299.129	9.59
299.342	10
299.555	9.34
299.769	8.96
299.982	9.5
300.195	9.74
300.409	10.15
300.622	7.79
300.835	7.26
301.048	8.46
301.262	7.71
301.475	8.18
301.688	7.14
301.901	7.02
302.115	6.63
302.328	5.75
302.541	7.3
302.754	6.79
302.967	7.74
303.18	7.81
303.393	6.44
303.607	6.55
303.82	7.29
304.033	7.55
304.246	7.15
304.459	7.65
304.672	8.3
304.885	8.06
305.098	8.22
305.311	8.43
305.524	8.31
305.737	9.88
305.95	10.8
306.163	10.31
306.376	10.82
306.589	11.52
306.802	12.6
307.015	12
307.228	11.28
307.44	10.37
307.653	9.49
307.866	8.82
308.079	7.53
308.292	6.04
308.505	5.26
308.718	5.06
308.93	4.93
309.143	3.85
309.356	4.89
309.569	4.98
309.781	5.38
309.994	5.52
310.207	6.2
310.42	7.16
310.632	8.27
310.845	9
311.058	10.11
311.27	11.07
311.483	10.86
311.696	11.27
311.908	10.81
312.121	11.3
312.333	11.71
312.546	11.92
312.759	10.98
312.971	10.33
313.184	10.71
313.396	10.3
313.609	11.6
313.821	12.35
314.034	11.61
314.246	12.14
314.459	11.37
314.671	11.15
314.884	11.6
315.096	11.6
315.309	12.9
315.521	12.22
315.733	11.57
315.946	9.15
316.158	8.83
316.371	8.93
316.583	9.17
316.795	10
317.008	11.05
317.22	10.47
317.432	9.85
317.644	8.49
317.857	9.96
318.069	12.06
318.281	12.8
318.494	11.78
318.706	11.51
318.918	10.93
319.13	9.77
319.342	8.69
319.555	8.72
319.767	10.05
319.979	10.56
320.191	9
320.403	6.03
320.615	6.3
320.827	6.6
321.039	6.5
321.252	7.06
321.464	7.31
321.676	7.74
321.888	9.23
322.1	9.91
322.312	9.75
322.524	9.61
322.736	11.1
322.948	9.69
323.16	10.18
323.372	11.88
323.584	12.5
323.796	13.62
324.007	13.9
324.219	13.26
324.431	12.65
324.643	12.97
324.855	14.52
325.067	15
325.279	16.85
325.491	16.89
325.702	16.58
325.914	15.56
326.126	14.52
326.338	15.05
326.55	15.34
326.761	16.14
326.973	16.86
327.185	16.96
327.396	16.29
327.608	16
327.82	16.77
328.032	15.21
328.243	15.21
328.455	17.08
328.666	16.97
328.878	17.35
329.09	17.26
329.301	17.47
329.513	17.09
329.725	19.41
329.936	19.72
330.148	19.95
330.359	21.2
330.571	21.69
330.782	20.72
330.994	19.51
331.205	19.07
331.417	19.34
331.628	18.41
331.84	19.3
332.051	17.26
332.262	17.57
332.474	16.92
332.685	16.26
332.897	16.91
333.108	18.57
333.319	19.03
333.531	19.38
333.742	19.6
333.953	20.23
334.165	19.91
334.376	19.95
334.587	18.75
334.799	19.5
335.01	19.93
335.221	20.87
335.432	20.45
335.644	21.07
335.855	20.63
336.066	20.05
336.277	19.38
336.488	18.97
336.7	19.89
336.911	20.28
337.122	19.24
337.333	19.49
337.544	18.64
337.755	17.88
337.966	17.87
338.177	17.71
338.388	18.53
338.599	19.45
338.811	19.39
339.022	19.1
339.233	18.97
339.444	19.94
339.655	19.97
339.866	20.08
340.076	20.66
340.287	20.12
340.498	20.69
340.709	19.21
340.92	19.17
341.131	19.72
341.342	19.46
341.553	20.11
341.764	20.73
341.975	20.47
342.185	21.28
342.396	21.55
342.607	22.53
342.818	21.96
343.029	23.51
343.239	23.46
343.45	23.86
343.661	24.41
343.872	24.13
344.082	23.97
344.293	24.72
344.504	24.45
344.714	23.98
344.925	24.05
345.136	23.44
345.346	22.67
345.557	22.37
345.768	21.57
345.978	21.78
346.189	21.7
346.399	21.6
346.61	21.34
346.821	20.91
347.031	20.93
347.242	20.46
347.452	21.28
347.663	21.93
347.873	22.15
348.084	21.96
348.294	21.4
348.504	21.44
348.715	21.34
348.925	21.52
349.136	21.86
349.346	21.27
349.557	21.15
349.767	21.71
349.977	21.41
350.188	20.61
350.398	20.55
350.608	20.97
350.819	21.32
351.029	21.95
351.239	21.26
351.449	21.49
351.66	21.45
351.87	21.83
352.08	21.65
352.29	21.73
352.501	22.47
352.711	22.93
352.921	21.7
353.131	21.99
353.341	20.72
353.552	21.39
353.762	21.15
353.972	21.2
354.182	20.12
354.392	19.31
354.602	19.76
354.812	19.37
355.022	19.47
355.232	20.18
355.442	19.63
355.652	19.57
355.862	19.28
356.072	19.97
356.282	20.19
356.492	20.7
356.702	21.2
356.912	20.62
357.122	20.41
357.332	21.01
357.542	20.95
357.752	21.15
357.962	22.06
358.171	21.66
358.381	20.87
358.591	20.46
358.801	20.39
359.011	20.73
359.221	20.56
359.43	20.49
359.64	19.98
359.85	20.37
360.06	19.77
360.269	20.06
360.479	20.69
360.689	20.5
360.899	20.68
361.108	20.94
361.318	20.55
361.528	20.75
361.737	20.66
361.947	20.91
362.156	20.8
362.366	20.69
362.576	20.05
362.785	19.45
362.995	19.8
363.204	19.63
363.414	19.72
363.623	19.68
363.833	19.27
364.042	19.7
364.252	19.5
364.461	18.41
364.671	18.45
364.88	18.03
365.09	17.93
365.299	17.86
365.509	18.36
365.718	17.6
365.927	17.67
366.137	18.02
366.346	18.18
366.555	17.59
366.765	17.92
366.974	18.55
367.183	18.13
367.393	18.74
367.602	18.17
367.811	17.83
368.021	18.01
368.23	17.85
368.439	18.06
368.648	17.95
368.857	18.2
369.067	18.13
369.276	18.32
369.485	18.76
369.694	17.97
369.903	17.98
370.112	17.75
370.321	17.82
370.531	17.69
370.74	17.9
370.949	18.17
371.158	18.33
371.367	18.22
371.576	17.71
371.785	17.97
371.994	18.74
372.203	18.97
372.412	19.25
372.621	19.58
372.83	19.24
373.039	17.89
373.248	17.4
373.457	17.08
373.666	17.25
373.874	17.03
374.083	16.71
374.292	15.52
374.501	15.57
374.71	15.64
374.919	15.38
375.128	15.19
375.336	15.95
375.545	16.33
375.754	16.38
375.963	16.14
376.171	16
376.38	15.94
376.589	16.14
376.798	15.62
377.006	15.67
377.215	15.59
377.424	15.87
377.632	15.36
377.841	14.77
378.05	14.78
378.258	15
378.467	15.32
378.675	15.33
378.884	15.69
379.093	15.47
379.301	15.01
379.51	14.63
379.718	14.91
379.927	15.07
380.135	14.83
380.344	14.69
380.552	14.68
380.761	14.27
380.969	14.26
381.177	14.15
381.386	14.56
381.594	14.66
381.803	14.37
382.011	13.86
382.219	14.42
382.428	14.62
382.636	14.02
382.845	13.63
383.053	13.67
383.261	13.51
383.469	13.2
383.678	13.42
383.886	13.3
384.094	13.64
384.302	13.97
384.511	13.48
384.719	13.82
384.927	13.88
385.135	13.99
385.343	13.95
385.552	13.8
385.76	13.88
385.968	13.75
386.176	13.65
386.384	13.56
386.592	13.01
386.8	12.83
387.008	12.32
387.216	12.09
387.424	12.06
387.633	12.17
387.841	12.28
388.049	11.92
388.257	11.87
388.465	12.31
388.672	12.16
388.88	12.11
389.088	12.22
389.296	12.27
389.504	12.83
389.712	12.87
389.92	12.57
390.128	12.5
390.336	12.48
390.544	11.67
390.751	10.99
390.959	10.78
391.167	11.12
391.375	10.92
391.583	11.04
391.79	10.69
391.998	10.53
392.206	10.73
392.414	10.93
392.621	10.79
392.829	11.51
393.037	11.56
393.244	11.67
393.452	11.09
393.66	11.12
393.867	10.79
394.075	11.08
394.283	10.58
394.49	10.39
394.698	10.13
394.905	10.3
395.113	10.04
395.32	10.25
395.528	10.16
395.735	10.29
395.943	10.18
396.15	10.16
396.358	9.66
396.565	10.16
396.773	9.91
396.98	9.9
397.188	10.24
397.395	10.13
397.602	10.03
397.81	9.98
398.017	9.96
398.225	10.02
398.432	10.14
398.639	10.59
398.847	10.13
399.054	10.9
399.261	10.74
399.468	10.31
399.676	10.46
399.883	10.53
400.09	10.44
400.297	10.75
400.505	10.96
400.712	10.69
400.919	10.43
401.126	10.91
401.333	10.45
401.54	10.64
401.748	10.45
401.955	10.05
402.162	10.03
402.369	9.77
402.576	9.68
402.783	9.45
402.99	9.43
403.197	9.78
403.404	9.77
403.611	9.74
403.818	9.81
404.025	10.13
404.232	10.29
404.439	10.13
404.646	10.3
404.853	10.17
405.06	10.17
405.267	10.38
405.474	10.04
405.681	10.04
405.887	9.93
406.094	9.78
406.301	9.81
406.508	9.91
406.715	10.16
406.922	10.23
407.128	10.2
407.335	9.99
407.542	9.74
407.749	9.8
407.955	9.55
408.162	9.7
408.369	9.78
408.575	9.78
408.782	9.61
408.989	9.32
409.195	9.43
409.402	9.55
409.609	9.45
409.815	9.38
410.022	9.29
410.228	9.46
410.435	8.9
410.642	8.85
410.848	8.63
411.055	8.5
411.261	8.55
411.468	8.32
411.674	8.34
411.881	8.68
412.087	8.92
412.294	9.01
412.5	8.93
412.706	9.29
412.913	9.26
413.119	9.44
413.326	9.43
413.532	9.37
413.738	9.52
413.945	9.55
414.151	9.42
414.357	9.33
414.564	9.17
414.77	9.29
414.976	9.02
415.182	8.86
415.389	9.1
415.595	9.14
415.801	9.16
416.007	9.25
416.214	9.43
416.42	9.57
416.626	9.55
416.832	9.63
417.038	9.56
417.244	9.92
417.45	10.14
417.657	9.85
417.863	9.99
418.069	10.07
418.275	9.94
418.481	9.77
418.687	9.59
418.893	9.67
419.099	9.7
419.305	9.75
419.511	9.61
419.717	9.58
419.923	9.54
420.129	9.66
420.335	9.53
420.541	9.62
420.746	9.56
420.952	9.49
421.158	9.31
421.364	9.24
421.57	9.19
421.776	9.29
421.982	9.22
422.187	9.26
422.393	9.01
422.599	9.01
422.805	8.98
423.01	8.95
423.216	8.96
423.422	9.02
423.628	9.07
423.833	9.18
424.039	8.93
424.245	8.95
424.45	8.95
424.656	9.04
424.862	9.01
425.067	8.85
425.273	8.92
425.478	9.11
425.684	9.15
425.889	9.03
426.095	8.81
426.301	8.82
426.506	8.75
426.712	8.7
426.917	8.63
427.123	8.89
427.328	9.14
427.533	9.15
427.739	8.94
427.944	8.66
428.15	8.71
428.355	8.69
428.561	8.64
428.766	8.56
428.971	8.61
429.177	8.49
429.382	8.12
429.587	8.03
429.793	7.9
429.998	7.82
430.203	8.11
430.408	8.16
430.614	8.33
430.819	8.47
431.024	8.47
431.229	8.32
431.434	8.57
431.64	8.65
431.845	8.69
432.05	8.71
432.255	8.99
432.46	9.01
432.665	9.05
432.87	8.93
433.076	8.93
433.281	8.82
433.486	8.89
433.691	8.88
433.896	8.84
434.101	8.76
434.306	8.82
434.511	8.61
434.716	8.59
434.921	8.49
435.126	8.53
435.331	8.61
435.535	8.58
435.74	8.63
435.945	8.54
436.15	8.41
436.355	8.36
436.56	8.3
436.765	8.16
436.97	8.1
437.174	8.04
437.379	8.22
437.584	8.15
437.789	8.38
437.993	8.2
438.198	8.15
438.403	8.53
438.608	8.47
438.812	8.51
439.017	8.71
439.222	8.77
439.426	8.82
439.631	8.83
439.836	8.92
440.04	9.02
440.245	9.14
440.45	9.15
440.654	8.8
440.859	8.9
441.063	8.76
441.268	8.78
441.472	8.83
441.677	8.77
441.881	8.61
442.086	8.76
442.29	8.67
442.495	8.78
442.699	8.87
442.904	8.91
443.108	8.88
443.312	8.98
443.517	9.07
443.721	9.04
443.925	9.11
444.13	9.1
444.334	8.77
444.538	8.68
444.743	8.52
444.947	8.49
445.151	8.59
445.356	8.6
445.56	8.56
445.764	8.38
445.968	8.34
446.173	8.39
446.377	8.44
446.581	8.47
446.785	8.4
446.989	8.37
447.193	8.39
447.398	8.32
447.602	8.43
447.806	8.35
448.01	8.35
448.214	8.38
448.418	8.31
448.622	8.32
448.826	8.45
449.03	8.58
449.234	8.51
449.438	8.48
449.642	8.5
449.846	8.3
450.05	8.52
450.254	8.67
450.458	8.55
450.662	8.64
450.866	8.64
451.069	8.52
451.273	8.55
451.477	8.47
451.681	8.43
451.885	8.47
452.089	8.61
452.292	8.55
452.496	8.51
452.7	8.72
452.904	8.63
453.107	8.58
453.311	8.68
453.515	8.68
453.719	8.9
453.922	8.91
454.126	8.75
454.33	8.62
454.533	8.53
454.737	8.56
454.94	8.12
455.144	8.11
455.348	7.99
455.551	7.8
455.755	7.78
455.958	7.62
456.162	7.42
456.365	7.68
456.569	7.94
456.772	7.9
456.976	8
457.179	8.33
457.383	8.34
457.586	8.59
457.79	8.64
457.993	8.46
458.196	8.53
458.4	8.73
458.603	8.72
458.807	8.7
459.01	8.87
459.213	8.61
459.417	8.6
459.62	8.49
459.823	8.27
460.026	8.18
460.23	8.4
460.433	8.38
460.636	8.41
460.839	8.43
461.042	8.3
461.246	8.24
461.449	8.26
461.652	8.29
461.855	8.4
462.058	8.48
462.261	8.76
462.464	8.49
462.668	8.38
462.871	8.19
463.074	8.2
463.277	8.16
463.48	7.91
463.683	8.03
463.886	7.78
464.089	7.63
464.292	7.61
464.495	7.41
464.698	7.55
464.901	7.46
465.104	7.59
465.306	7.48
465.509	7.44
465.712	7.77
465.915	7.57
466.118	7.85
466.321	8.04
466.524	8.32
466.726	8.61
466.929	8.5
467.132	8.66
467.335	8.69
467.538	8.77
467.74	8.8
467.943	8.66
468.146	8.94
468.348	9.02
468.551	9.04
468.754	8.89
468.956	8.81
469.159	8.74
469.362	8.77
469.564	8.76
469.767	8.69
469.969	8.74
470.172	8.77
470.375	8.63
470.577	8.36
470.78	8.37
470.982	8.37
471.185	8.25
471.387	8.6
471.59	8.76
471.792	8.9
471.995	8.79
472.197	8.62
472.399	8.6
472.602	8.64
472.804	8.88
473.007	8.84
473.209	8.92
473.411	8.89
473.614	8.63
473.816	8.52
474.018	8.41
474.22	8.45
474.423	8.76
474.625	8.73
474.827	8.66
475.03	8.57
475.232	8.52
475.434	8.32
475.636	8.27
475.838	8.32
476.04	8.44
476.243	8.47
476.445	8.62
476.647	8.68
476.849	8.74
477.051	8.59
477.253	8.51
477.455	8.45
477.657	8.56
477.859	8.66
478.061	8.54
478.263	8.37
478.465	8.27
478.667	8.23
478.869	8.09
479.071	8.16
479.273	8.37
479.475	8.28
479.677	8.34
479.879	8.31
480.081	8.2
480.283	8.47
480.485	8.53
480.686	8.44
480.888	8.24
481.09	8.26
481.292	8.23
481.494	8.17
481.695	8.27
481.897	8.34
482.099	8.23
482.301	8.25
482.502	8.24
482.704	8.31
482.906	8.44
483.107	8.49
483.309	8.48
483.511	8.52
483.712	8.56
483.914	8.56
484.115	8.57
484.317	8.65
484.519	8.69
484.72	8.68
484.922	8.69
485.123	8.62
485.325	8.68
485.526	8.73
485.728	8.63
485.929	8.64
486.131	8.7
486.332	8.71
486.534	8.69
486.735	8.66
486.936	8.66
487.138	8.62
487.339	8.66
487.541	8.57
487.742	8.52
487.943	8.59
488.144	8.47
488.346	8.4
488.547	8.27
488.748	8.26
488.95	8.31
489.151	8.23
489.352	8.25
489.553	8.27
489.755	8.33
489.956	8.33
490.157	8.28
490.358	8.37
490.559	8.35
490.76	8.46
490.961	8.54
491.163	8.42
491.364	8.48
491.565	8.41
491.766	8.39
491.967	8.4
492.168	8.47
492.369	8.52
492.57	8.5
492.771	8.51
492.972	8.51
493.173	8.35
493.374	8.39
493.575	8.34
493.776	8.37
493.976	8.36
494.177	8.27
494.378	8.17
494.579	8.12
494.78	8.17
494.981	8.24
495.182	8.37
495.382	8.38
495.583	8.38
495.784	8.44
495.985	8.47
496.185	8.44
496.386	8.47
496.587	8.47
496.788	8.54
496.988	8.49
497.189	8.6
497.39	8.57
497.59	8.6
497.791	8.63
497.992	8.45
498.192	8.31
498.393	8.49
498.593	8.52
498.794	8.49
498.994	8.46
499.195	8.63
499.395	8.46
499.596	8.42
499.796	8.49
499.997	8.46
500.197	8.67
500.398	8.9
500.598	8.77
500.799	8.84
500.999	8.83
501.199	8.86
501.4	8.73
501.6	8.93
501.801	8.89
502.001	8.9
502.201	9.01
502.402	9.1
502.602	8.98
502.802	9.01
503.002	9.03
503.203	9.26
503.403	9.23
503.603	9.19
503.803	9.18
504.003	9.34
504.204	9.42
504.404	9.43
504.604	9.39
504.804	9.67
505.004	9.92
505.204	9.9
505.404	9.89
505.604	9.98
505.804	10.24
506.005	10.33
506.205	10.18
506.405	10.21
506.605	10.12
506.805	10.16
507.005	10.12
507.204	9.92
507.404	10.05
507.604	10.1
507.804	10.13
508.004	10.01
508.204	9.97
508.404	10.05
508.604	10.13
508.804	10.52
509.003	10.62
509.203	10.71
509.403	11
509.603	11.14
509.803	11.13
510.002	11.21
510.202	11.47
510.402	11.52
510.602	11.76
510.801	11.71
511.001	11.6
511.201	11.63
511.4	11.7
511.6	11.66
511.8	11.61
511.999	11.68
512.199	11.78
512.398	11.8
512.598	12.06
512.797	12.02
512.997	12.26
513.197	12.38
513.396	12.56
513.596	12.54
513.795	12.44
513.994	12.58
514.194	12.61
514.393	12.98
514.593	13.13
514.792	13.02
514.992	13.23
515.191	13.4
515.39	13.47
515.59	13.48
515.789	13.74
515.988	13.85
516.188	13.96
516.387	14.25
516.586	14.16
516.786	14.13
516.985	14.42
517.184	14.45
517.383	14.42
517.582	14.47
517.782	14.67
517.981	14.74
518.18	15.02
518.379	15.07
518.578	15.16
518.777	15.17
518.976	15.34
519.176	15.25
519.375	15.41
519.574	15.53
519.773	15.64
519.972	15.73
520.171	15.77
520.37	15.74
520.569	15.87
520.768	15.94
520.967	16.06
521.166	16.17
521.365	16.36
521.564	16.35
521.762	16.59
521.961	16.8
522.16	16.95
522.359	17.05
522.558	17.24
522.757	17.54
522.956	17.56
523.154	17.64
523.353	17.74
523.552	17.82
523.751	18.11
523.949	18.22
524.148	18.34
524.347	18.46
524.546	18.58
524.744	18.62
524.943	18.54
525.142	18.79
525.34	18.89
525.539	18.96
525.737	19.04
525.936	19.07
526.135	19.11
526.333	19.16
526.532	19.33
526.73	19.47
526.929	19.74
527.127	19.95
527.326	19.99
527.524	20.14
527.723	20.22
527.921	20.29
528.12	20.34
528.318	20.47
528.516	20.54
528.715	20.61
528.913	20.69
529.112	20.71
529.31	20.77
529.508	20.83
529.707	20.87
529.905	20.96
530.103	21.15
530.301	21.3
530.5	21.33
530.698	21.45
530.896	21.45
531.094	21.5
531.293	21.63
531.491	21.66
531.689	21.88
531.887	22.14
532.085	22.21
532.283	22.26
532.481	22.33
532.68	22.44
532.878	22.58
533.076	22.64
533.274	22.73
533.472	22.77
533.67	22.84
533.868	22.88
534.066	22.91
534.264	23.05
534.462	23.1
534.66	23.21
534.858	23.26
535.056	23.22
535.253	23.39
535.451	23.51
535.649	23.57
535.847	23.75
536.045	23.8
536.243	23.85
536.441	23.88
536.638	23.96
536.836	23.96
537.034	24.2
537.232	24.37
537.43	24.39
537.627	24.39
537.825	24.4
538.023	24.33
538.22	24.32
538.418	24.35
538.616	24.23
538.813	24.24
539.011	24.31
539.209	24.06
539.406	24.26
539.604	24.56
539.801	24.72
539.999	24.99
540.196	25.22
540.394	25.46
540.591	25.4
540.789	25.49
540.986	25.64
541.184	25.78
541.381	25.97
541.579	25.99
541.776	26.05
541.974	26.14
542.171	26.22
542.368	26.33
542.566	26.38
542.763	26.59
542.96	26.77
543.158	26.89
543.355	26.95
543.552	27.11
543.75	27.13
543.947	27.15
544.144	27.22
544.341	27.11
544.539	27.03
544.736	26.94
544.933	27
545.13	27.17
545.327	27.04
545.524	27.11
545.722	27.1
545.919	27.14
546.116	27.19
546.313	27.26
546.51	27.43
546.707	27.53
546.904	27.64
547.101	27.66
547.298	27.67
547.495	27.86
547.692	28.01
547.889	27.95
548.086	28.16
548.283	28.25
548.48	28.27
548.677	28.32
548.874	28.32
549.07	28.47
549.267	28.7
549.464	28.7
549.661	28.78
549.858	28.72
550.055	28.71
550.251	28.62
550.448	28.55
550.645	28.73
550.842	28.73
551.038	28.92
551.235	29.1
551.432	28.85
551.628	28.79
551.825	28.76
552.022	28.68
552.218	29.02
552.415	29.25
552.612	29.5
552.808	29.4
553.005	29.63
553.201	29.61
553.398	29.5
553.594	29.7
553.791	29.96
553.987	30.1
554.184	30.3
554.38	30.11
554.577	30.22
554.773	29.98
554.97	30.14
555.166	30.12
555.362	30.15
555.559	30.17
555.755	30.06
555.952	29.96
556.148	29.79
556.344	29.88
556.541	30.04
556.737	29.93
556.933	30.15
557.129	30.3
557.326	30.23
557.522	30.19
557.718	30.34
557.914	30.46
558.11	30.65
558.307	30.79
558.503	31.02
558.699	30.97
558.895	30.88
559.091	30.85
559.287	30.63
559.483	30.79
559.679	30.87
559.876	30.85
560.072	31.03
560.268	31.16
560.464	31.35
560.66	31.04
560.856	31.19
561.052	31.24
561.247	31.38
561.443	31.58
561.639	31.63
561.835	31.91
562.031	31.91
562.227	31.74
562.423	31.76
562.619	31.95
562.815	32.05
563.01	32.18
563.206	32.23
563.402	32.29
563.598	32.33
563.793	32.58
563.989	32.7
564.185	32.88
564.381	33.2
564.576	33.29
564.772	32.95
564.968	33.16
565.163	33.17
565.359	33.34
565.555	33.27
565.75	33.56
565.946	33.39
566.141	33.49
566.337	33.71
566.532	33.79
566.728	33.66
566.923	33.94
567.119	33.92
567.314	33.99
567.51	34.02
567.705	34.19
567.901	33.93
568.096	33.92
568.292	33.76
568.487	33.63
568.682	33.63
568.878	34.07
569.073	34.15
569.268	34.17
569.464	34.19
569.659	34.15
569.854	34.31
570.05	34.58
570.245	34.86
570.44	34.97
570.635	34.98
570.831	35.04
571.026	34.73
571.221	34.75
571.416	34.96
571.611	35.12
571.806	35.24
572.002	35.2
572.197	35.2
572.392	35
572.587	35.03
572.782	34.99
572.977	34.95
573.172	34.99
573.367	35.05
573.562	34.89
573.757	34.8
573.952	34.81
574.147	34.72
574.342	34.83
574.537	35
574.732	35.07
574.927	35.05
575.121	35.08
575.316	35.25
575.511	35.09
575.706	35.3
575.901	35.33
576.096	35.28
576.29	35.3
576.485	35.12
576.68	35.05
576.875	34.94
577.069	35.23
577.264	35.22
577.459	35.26
577.654	35.39
577.848	35.18
578.043	35.25
578.238	35.39
578.432	35.47
578.627	35.49
578.821	35.5
579.016	35.6
579.21	35.38
579.405	35.52
579.6	35.29
579.794	35.3
579.989	35.3
580.183	35.01
580.378	34.81
580.572	34.87
580.766	34.95
580.961	35.02
581.155	35.04
581.35	35.06
581.544	34.99
581.738	35.16
581.933	35.41
582.127	35.42
582.321	35.8
582.516	36.25
582.71	36.33
582.904	36.28
583.099	36.38
583.293	36.43
583.487	36.5
583.681	36.61
583.875	36.89
584.07	36.74
584.264	36.74
584.458	36.55
584.652	36.33
584.846	36.4
585.04	36.6
585.234	36.62
585.428	36.61
585.623	36.66
585.817	36.92
586.011	36.82
586.205	36.87
586.399	36.94
586.593	37.25
586.787	37.33
586.981	37.15
587.174	36.94
587.368	36.95
587.562	36.85
587.756	36.95
587.95	36.75
588.144	36.54
588.338	36.17
588.532	36.41
588.725	36.37
588.919	36.64
589.113	36.73
589.307	36.95
589.501	36.8
589.694	36.74
589.888	36.69
590.082	36.74
590.275	36.67
590.469	37.03
590.663	37.18
590.856	37.44
591.05	37.36
591.244	37.52
591.437	37.4
591.631	37.89
591.824	38.1
592.018	38.25
592.212	38.26
592.405	38.22
592.599	38.58
592.792	38.33
592.986	38.16
593.179	38.18
593.372	38.12
593.566	38.31
593.759	37.86
593.953	37.98
594.146	37.67
594.339	37.7
594.533	38.05
594.726	37.76
594.92	37.71
595.113	37.65
595.306	37.46
595.499	37.34
595.693	37.31
595.886	37.28
596.079	37.15
596.272	37.62
596.466	37.67
596.659	37.51
596.852	37.47
597.045	37.5
597.238	37.84
597.431	38.1
597.624	38.3
597.818	38.28
598.011	38.51
598.204	38.58
598.397	38.26
598.59	38.25
598.783	38.44
598.976	38.63
599.169	38.95
599.362	38.84
599.555	38.69
599.748	38.8
599.941	38.78
600.134	38.93
600.326	38.82
600.519	39.14
600.712	38.99
600.905	38.79
601.098	38.75
601.291	38.54
601.483	38.28
601.676	38.43
601.869	38.45
602.062	38.4
602.255	38.18
602.447	38.3
602.64	38.47
602.833	38.7
603.025	39.06
603.218	39.18
603.411	39.12
603.603	39.39
603.796	39.35
603.989	39.39
604.181	39.56
604.374	39.71
604.566	39.93
604.759	39.88
604.951	39.82
605.144	39.48
605.336	39.44
605.529	39.44
605.721	39.46
605.914	39.47
606.106	39.32
606.299	39.34
606.491	39.35
606.683	39.18
606.876	39.28
607.068	39.39
607.26	39.77
607.453	39.84
607.645	39.91
607.837	39.66
608.03	39.6
608.222	39.69
608.414	39.58
608.606	39.31
608.799	39.3
608.991	39.1
609.183	38.94
609.375	38.86
609.567	38.7
609.759	38.59
609.952	38.65
610.144	38.65
610.336	38.66
610.528	38.77
610.72	38.92
610.912	38.8
611.104	38.64
611.296	38.45
611.488	38.39
611.68	38.41
611.872	38.58
612.064	38.49
612.256	38.42
612.448	38.41
612.64	38.21
612.832	38.2
613.023	38.27
613.215	38.17
613.407	38.36
613.599	38.16
613.791	38.22
613.983	38.12
614.174	38.06
614.366	37.9
614.558	37.73
614.75	37.84
614.941	38.01
615.133	38.39
615.325	38.82
615.516	39.27
615.708	39.45
615.9	39.46
616.091	39.57
616.283	39.79
616.475	40.37
616.666	40.71
616.858	40.58
617.049	40.45
617.241	40.72
617.432	40.63
617.624	40.49
617.815	40.72
618.007	40.92
618.198	41.05
618.39	41.01
618.581	40.73
618.773	40.63
618.964	40.65
619.155	40.68
619.347	40.27
619.538	40.35
619.729	40.33
619.921	40.42
620.112	40.44
620.303	40.25
620.494	40.3
620.686	40.29
620.877	40.22
621.068	40.48
621.259	40.61
621.451	40.66
621.642	40.83
621.833	40.27
622.024	40.06
622.215	40.15
622.406	39.98
622.597	39.83
622.788	39.6
622.98	39.46
623.171	39.53
623.362	39.45
623.553	39.43
623.744	39.52
623.935	40.38
624.126	40.42
624.317	40.22
624.508	40.34
624.698	40.58
624.889	40.82
625.08	40.82
625.271	40.87
625.462	41.09
625.653	41.22
625.844	40.78
626.034	40.72
626.225	40.75
626.416	40.73
626.607	40.86
626.798	40.8
626.988	40.98
627.179	41.11
627.37	41.08
627.56	40.96
627.751	40.92
627.942	40.93
628.132	40.72
628.323	40.6
628.514	40.65
628.704	40.86
628.895	40.78
629.085	40.52
629.276	40.52
629.466	40.5
629.657	40.42
629.847	40.39
630.038	40.3
630.228	40.32
630.419	40.36
630.609	40.44
630.8	40.34
630.99	40.31
631.181	40.52
631.371	40.67
631.561	40.64
631.752	41.03
631.942	40.78
632.132	41.25
632.323	41.3
632.513	41.44
632.703	41.26
632.893	41.18
633.084	41.28
633.274	40.93
633.464	40.89
633.654	40.9
633.844	40.54
634.034	40.72
634.225	40.39
634.415	40.61
634.605	40.33
634.795	40.35
634.985	40.34
635.175	40.61
635.365	40.98
635.555	41.03
635.745	40.84
635.935	40.72
636.125	40.71
636.315	40.73
636.505	40.8
636.695	41.02
636.885	41.28
637.075	40.98
637.265	40.83
637.455	40.71
637.644	40.44
637.834	40.49
638.024	41.1
638.214	41.04
638.404	41.47
638.593	41.09
638.783	40.79
638.973	40.67
639.163	41.31
639.352	41.33
639.542	41.76
639.732	42.09
639.921	42.69
640.111	42.41
640.301	42.82
640.49	42.5
640.68	42.15
640.87	42.56
641.059	42.58
641.249	42.11
641.438	41.86
641.628	41.3
641.817	41.23
642.007	41
642.196	40.82
642.386	40.77
642.575	40.93
642.764	41.64
642.954	41.44
643.143	41.33
643.333	41.61
643.522	42.17
643.711	42.06
643.901	41.71
644.09	41.6
644.279	41.33
644.469	41.05
644.658	41.33
644.847	41.12
645.036	41.45
645.226	41.56
645.415	41.72
645.604	41.18
645.793	41.83
645.982	42.16
646.171	42.1
646.361	42.24
646.55	42.11
646.739	41.29
646.928	41.81
647.117	41.76
647.306	41.54
647.495	41.69
647.684	42.02
647.873	41.73
648.062	41.65
648.251	41.87
648.44	42.38
648.629	42.75
648.818	43.24
649.007	42.66
649.196	42.31
649.384	42.77
649.573	42.55
649.762	42.39
649.951	42.02
650.14	41.9
650.328	41.72
650.517	41.98
650.706	41.98
650.895	41.95
651.083	42.23
651.272	42.65
651.461	42.55
651.65	42.44
651.838	42.11
652.027	42.65
652.216	42.6
652.404	42.47
652.593	41.94
652.781	42.13
652.97	42.31
653.158	42.14
653.347	42.08
653.535	41.85
653.724	41.97
653.912	42.53
654.101	42.6
654.289	43.06
654.478	43.01
654.666	43
654.855	42.86
655.043	42.7
655.231	42.67
655.42	42.18
655.608	42.36
655.796	41.87
655.985	41.78
656.173	41.75
656.361	41.71
656.55	42.02
656.738	41.66
656.926	42.1
657.114	41.93
657.302	41.92
657.491	42.67
657.679	42.73
657.867	43.06
658.055	43
658.243	42.92
658.431	42.87
658.619	42.66
658.807	43.25
658.996	43.04
659.184	43.14
659.372	43.27
659.56	43.1
659.748	43.18
659.936	43.26
660.124	43.1
660.311	43.25
660.499	42.99
660.687	43.31
660.875	43.07
661.063	43.12
661.251	43.16
661.439	42.78
661.627	42.57
661.814	42.35
662.002	42.28
662.19	42.71
662.378	42.51
662.565	42.73
662.753	42.69
662.941	42.56
663.129	42.27
663.316	42.51
663.504	42.84
663.692	43.44
663.879	43.66
664.067	43.46
664.254	43.14
664.442	43.3
664.63	43.47
664.817	43.09
665.005	43.29
665.192	43.35
665.38	42.78
665.567	43.15
665.755	42.37
665.942	41.88
666.13	42.26
666.317	42.35
666.504	42.42
666.692	42.64
666.879	42.74
667.067	42.94
667.254	42.87
667.441	43.42
667.629	42.96
667.816	43.7
668.003	44.07
668.19	44.06
668.378	43.76
668.565	43.42
668.752	42.72
668.939	43.2
669.127	43.06
669.314	43.17
669.501	43.12
669.688	43.89
669.875	43.42
670.062	43.52
670.249	43.78
670.436	43.92
670.623	44.27
670.81	44.64
670.997	44.34
671.184	44.47
671.371	44.39
671.558	44.4
671.745	43.96
671.932	44.51
672.119	44.42
672.306	44.02
672.493	43.87
672.68	43.52
672.867	43.21
673.054	42.96
673.24	43.03
673.427	43.11
673.614	42.75
673.801	42.46
673.988	41.59
674.174	42.01
674.361	42.09
674.548	42.32
674.734	42.66
674.921	43.82
675.108	43.77
675.294	43.38
675.481	43.12
675.668	43.23
675.854	43.7
676.041	44.4
676.227	44.09
676.414	44.35
676.601	44.47
676.787	44.37
676.974	43.68
677.16	43.88
677.347	44.1
677.533	44.26
677.719	44.53
677.906	44.02
678.092	44.03
678.279	44.34
678.465	44.26
678.651	44.26
678.838	44.25
679.024	43.77
679.21	43.97
679.397	43.98
679.583	44.2
679.769	44.17
679.955	44.4
680.142	44.44
680.328	44.31
680.514	44.69
680.7	44.89
680.886	44.73
681.073	45.21
681.259	44.91
681.445	44.87
681.631	45
681.817	45.13
682.003	45.32
682.189	44.91
682.375	44.38
682.561	43.89
682.747	43.69
682.933	43.72
683.119	43.68
683.305	43.78
683.491	44.03
683.677	43.72
683.863	43.06
684.049	42.87
684.235	42.97
684.42	43.61
684.606	43.43
684.792	43.63
684.978	43.86
685.164	43.91
685.349	43.78
685.535	43.48
685.721	43.62
685.907	44.33
686.092	44.65
686.278	45.01
686.464	44.11
686.649	44.45
686.835	44.85
687.021	44.89
687.206	44.43
687.392	45.53
687.577	45.3
687.763	45.1
687.948	45.12
688.134	44.94
688.319	44.81
688.505	45.33
688.69	45.23
688.876	44.34
689.061	44.65
689.247	45.33
689.432	44.74
689.618	45.26
689.803	45.21
689.988	44.81
690.174	44.65
690.359	44.33
690.544	44.43
690.73	44.55
690.915	44.94
691.1	44.52
691.285	43.99
691.471	43.76
691.656	43.45
691.841	44.34
692.026	44.21
692.211	43.91
692.396	43.9
692.582	44.22
692.767	43.53
692.952	43.87
693.137	44.01
693.322	43.84
693.507	43.92
693.692	44.35
693.877	44.11
694.062	44.46
694.247	45.02
694.432	45.51
694.617	44.96
694.802	46.11
694.987	45.17
695.172	44.85
695.357	44.93
695.541	44.71
695.726	44.33
695.911	44.35
696.096	44.4
696.281	44.1
696.466	44.25
696.65	44.56
696.835	44.38
697.02	44.69
697.204	44.37
697.389	44.66
697.574	44.34
697.759	44.21
697.943	43.72
698.128	43.87
698.312	44.57
698.497	44.19
698.682	44.47
698.866	43.96
699.051	43.97
699.235	44.5
699.42	44.33
699.604	44.56
699.789	44.59
699.973	44.51
700.158	44.49
700.342	43.77
700.527	43.99
700.711	43.73
700.895	44.22
701.08	44.8
701.264	44.54
701.448	44.69
701.633	44.91
701.817	45.15
702.001	45.28
702.186	44.62
702.37	45.02
702.554	44.87
702.738	45
702.923	44.95
703.107	44.4
703.291	44.98
703.475	45.13
703.659	45.45
703.843	45.51
704.027	45.28
704.212	46.19
704.396	45.47
704.58	45.51
704.764	45.01
704.948	44.5
705.132	44.72
705.316	44.05
705.5	43.3
705.684	43.18
705.868	43.52
706.052	43.78
706.235	43.67
706.419	44.23
706.603	44.43
706.787	44.59
706.971	45.05
707.155	44.82
707.339	44.55
707.522	44.95
707.706	44.47
707.89	43.66
708.074	43.55
708.257	42.99
708.441	42.65
708.625	42.11
708.808	42.63
708.992	42.41
709.176	43.13
709.359	43.21
709.543	43.26
709.727	43.11
709.91	43.51
710.094	44.32
710.277	44.9
710.461	44.82
710.644	45.1
710.828	44.58
711.011	44.81
711.195	44.34
711.378	44.45
711.562	44.18
711.745	44.53
711.928	44.25
712.112	43.58
712.295	43.19
712.478	43.36
712.662	43.13
712.845	43.13
713.028	43.34
713.212	43.15
713.395	43.42
713.578	43.91
713.761	44.05
713.945	44.38
714.128	44.26
714.311	44.6
714.494	44.63
714.677	45.81
714.86	45.48
715.043	44.87
715.227	44.05
715.41	43.87
715.593	44.28
715.776	44.37
715.959	43.98
716.142	44.4
716.325	44.28
716.508	44.44
716.691	43.25
716.874	43.25
717.057	43.15
717.239	44.28
717.422	44.95
717.605	44.28
717.788	44.33
717.971	44.86
718.154	44.61
718.337	44.46
718.519	43.82
718.702	44.56
718.885	45.15
719.068	44.98
719.25	44.52
719.433	43.5
719.616	43.72
719.798	43.21
719.981	43.45
720.164	43.12
720.346	43.36
720.529	44.38
720.712	43.73
720.894	44.14
721.077	45.8
721.259	45.12
721.442	45.62
721.624	45.69
721.807	45.22
721.989	44.95
722.172	46.18
722.354	45.17
722.537	45.15
722.719	45.14
722.901	44.95
723.084	44.72
723.266	45.61
723.448	45.8
723.631	46.08
723.813	47.18
723.995	47.06
724.178	47.11
724.36	48.69
724.542	48.39
724.724	48.23
724.907	48.01
725.089	45.6
725.271	45.63
725.453	45.02
725.635	44.5
725.817	44
725.999	43.51
726.181	42.28
726.364	42.84
726.546	42.49
726.728	43.49
726.91	43.65
727.092	45.04
727.274	44.95
727.456	45.6
727.638	45.16
727.819	45.01
728.001	46.07
728.183	46.36
728.365	44.65
728.547	45.23
728.729	44.96
728.911	44.47
729.093	44.84
729.274	44.45
729.456	44.22
729.638	45.37
729.82	45.69
730.001	45.24
730.183	44.96
730.365	45.67
730.546	45.09
730.728	44.47
730.91	44.14
731.091	43.91
731.273	45.08
731.455	44.68
731.636	43.93
731.818	43.83
731.999	44.33
732.181	44.35
732.362	44.03
732.544	44.26
732.725	43.77
732.907	44.75
733.088	44.53
733.27	43.78
733.451	44.2
733.633	43.19
733.814	42.92
733.995	42.56
734.177	42.57
734.358	42.86
734.539	42.98
734.721	43.27
734.902	42.81
735.083	42.57
735.264	42.03
735.446	42.17
735.627	43.11
735.808	43.09
735.989	42.6
736.17	42.47
736.351	41.96
736.533	41.14
736.714	42.25
736.895	42.9
737.076	42.44
737.257	43.13
737.438	42.48
737.619	42.47
737.8	42.68
737.981	42.76
738.162	42.74
738.343	43.27
738.524	42.71
738.705	42.35
738.886	41.4
739.067	41.93
739.247	41.7
739.428	41.98
739.609	42.99
739.79	42.55
739.971	42.75
740.151	42.84
740.332	43.87
740.513	45.1
740.694	45.45
740.874	45.22
741.055	45.81
741.236	46.29
741.417	46.4
741.597	46.2
741.778	46.85
741.958	47
742.139	47.6
742.32	46.35
742.5	45.97
742.681	45.45
742.861	46
743.042	45.23
743.222	44.11
743.403	43.96
743.583	43.62
743.764	42.76
743.944	43.04
744.124	43.01
744.305	42.88
744.485	43.72
744.666	44.04
744.846	44.04
745.026	44.74
745.207	45.07
745.387	45.14
745.567	44.35
745.747	46.23
745.928	45.69
746.108	45.77
746.288	46.42
746.468	45.28
746.648	44.75
746.829	45.8
747.009	45.97
747.189	46.68
747.369	47.67
747.549	48
747.729	46.46
747.909	46.19
748.089	46.63
748.269	46.15
748.449	46.23
748.629	46.65
748.809	45.3
748.989	44.04
749.169	43.17
749.349	42.37
749.529	42.52
749.709	42.57
749.889	41.64
750.068	40.67
750.248	39.81
750.428	39.84
750.608	39.93
750.788	39.86
750.967	40.23
751.147	41.24
751.327	40.18
751.507	40.64
751.686	41.05
751.866	42.01
752.046	43.28
752.225	44.23
752.405	44.9
752.585	43.85
752.764	42.93
752.944	43.24
753.123	42.64
753.303	43.09
753.482	41.72
753.662	41.02
753.841	40.96
754.021	39.13
754.2	39.09
754.38	39.38
754.559	39.73
754.739	40.51
754.918	40.4
755.097	41.09
755.277	41.33
755.456	41.58
755.635	41.63
755.815	41.98
755.994	42.28
756.173	42
756.352	40.98
756.532	40.99
756.711	41.12
756.89	40.75
757.069	40.89
757.248	41.54
757.427	42.22
757.607	43.96
757.786	44.68
757.965	45.47
758.144	45.84
758.323	45.98
758.502	45.47
758.681	45.89
758.86	45.3
759.039	45.25
759.218	45.87
759.397	45.72
759.576	44.11
759.755	42.2
759.934	41.9
760.113	41.04
760.291	42.47
760.47	43.61
760.649	42.27
760.828	42.77
761.007	41.74
761.186	41.57
761.364	41.47
761.543	42.48
761.722	42.9
761.901	42.99
762.079	44.04
762.258	43.55
762.437	43.84
762.615	44.86
762.794	45.78
762.972	46.34
763.151	45.9
763.33	46.29
763.508	46.16
763.687	46.69
763.865	47.67
764.044	47.32
764.222	47.09
764.401	46.48
764.579	46.41
764.758	46.43
764.936	46.49
765.114	46.4
765.293	46.62
765.471	46.62
765.65	46.89
765.828	45.6
766.006	45.65
766.184	45.55
766.363	46.38
766.541	46.68
766.719	46.86
766.898	46.18
767.076	46.37
767.254	45.6
767.432	45.7
767.61	46.18
767.788	46.12
767.967	45.25
768.145	45.85
768.323	45.16
768.501	45.01
768.679	44.38
768.857	45.51
769.035	45.49
769.213	45
769.391	45.56
769.569	44.98
769.747	45.39
769.925	46.28
770.103	45.5
770.281	44.49
770.459	44.02
770.636	44.38
770.814	42.6
770.992	43.9
771.17	46.12
771.348	45.82
771.525	46.36
771.703	48
771.881	48.55
772.059	49.63
772.236	51.45
772.414	51.54
772.592	50.32
772.769	52.2
772.947	48.84
773.125	46.47
773.302	44.44
773.48	44.25
773.657	42.86
773.835	42.94
774.013	42.15
774.19	41.82
774.368	41.39
774.545	40.88
774.723	40.72
774.9	40.64
775.077	44.31
775.255	45.43
775.432	44.44
775.61	44.27
775.787	43.92
775.964	44.1
776.142	44.93
776.319	45.21
776.496	45.43
776.674	43.48
776.851	46.31
777.028	44.35
777.205	43.68
777.382	42.86
777.56	42
777.737	41.86
777.914	41.32
778.091	38.43
778.268	39.26
778.445	39.35
778.622	41.54
778.8	38.53
778.977	36.41
779.154	4.03
779.331	3.3
779.508	2.52
779.685	2.38
779.862	1.84
780.038	5.37
780.215	6.05
780.392	8.26
780.569	6.73
780.746	7.76
780.923	9.81
781.1	42.94
781.277	44.42
781.453	44.82
781.63	45.36
781.807	46.17
781.984	44.04
782.16	43.04
782.337	40.39
782.514	41.37
782.691	41.85
782.867	39.45
783.044	38.59
783.221	36.58
783.397	37.43
783.574	37.62
783.75	36.55
783.927	35.29
784.103	35.61
784.28	36.9
784.456	36.1
784.633	34.38
784.809	35.41
784.986	36.98
785.162	37.33
785.339	39.1
785.515	38.35
785.692	37.07
785.868	38.32
786.044	39.56
786.221	36.88
786.397	38.69
786.573	39.71
786.749	41.19
786.926	39.86
787.102	40.44
787.278	39.11
787.454	40.28
787.631	41.34
787.807	43.04
787.983	40.15
788.159	41.42
788.335	41.27
788.511	42.44
788.687	39.46
788.863	42.08
789.039	41.7
789.216	41.86
789.392	42.38
789.568	43.08
789.744	40.19
789.919	41.34
790.095	41.3
790.271	40.65
790.447	39.73
790.623	42.6
790.799	40.25
790.975	39.69
791.151	39.1
791.327	38.98
791.502	38.24
791.678	39.03
791.854	38.55
792.03	40.82
792.205	39.04
792.381	40.77
792.557	36.33
792.733	37.68
792.908	35.77
793.084	37
793.259	36.48
793.435	38.07
793.611	40.28
793.786	40.59
793.962	40.23
794.137	40.28
794.313	38.19
794.488	40.85
794.664	40.28
794.839	42.06
795.015	39.45
795.19	38.28
795.366	39.4
795.541	38.51
795.716	41.66
795.892	38.67
796.067	40.34
796.242	41.01
796.418	41.24
796.593	37.97
796.768	36.92
796.944	38.06
797.119	39.22
797.294	38.81
797.469	36.56
797.644	35.78
797.82	38.4
797.995	38.1
798.17	39.14
798.345	39.46
798.52	40.92
798.695	42.55
798.87	43.24
799.045	41.9
799.22	40.33
799.395	43.2
799.57	41.93
799.745	41.98
799.92	40.34
800.095	38.75
800.27	38.1
800.445	39.92
800.62	39.69
800.795	37.4
800.97	37.2
801.145	36.33
801.319	33.78
801.494	31.23
801.669	29.76
801.844	29.11
802.018	29.42
802.193	28.6
802.368	29.53
802.543	27.27
802.717	30.98
802.892	31.92
803.067	33.53
803.241	34.02
803.416	35.89
803.59	40.42
803.765	41.31
803.94	41.9
804.114	42.6
804.289	41.92
804.463	42.12
804.638	39.25
804.812	40.07
804.986	40.29
805.161	39.71
805.335	38.23
805.51	31.79
805.684	32.52
805.858	32.89
806.033	35.22
806.207	34.63
806.381	35.55
806.556	36.24
806.73	36.04
806.904	35.67
807.078	36.24
807.253	33.85
807.427	37.83
807.601	36.85
807.775	38.8
807.949	36.49
808.123	36.42
808.298	39.84
808.472	39.43
808.646	39.55
808.82	37.07
808.994	38.11
809.168	40.2
809.342	37.79
809.516	39.4
809.69	38.38
809.864	40.38
810.038	39.26
810.212	35.68
810.385	36.49
810.559	34.64
810.733	36.1
810.907	34.55
811.081	37.3
811.255	40.32
811.428	40.54
811.602	35.72
811.776	34.94
811.95	36.44
812.123	38.25
812.297	37.15
812.471	34.71
812.644	38.41
812.818	39.75
812.992	39.54
813.165	33.06
813.339	34.81
813.512	37.22
813.686	36.31
813.86	35.97
814.033	36.15
814.207	37.36
814.38	40.17
814.554	37.22
814.727	35.56
814.9	34.79
815.074	38.09
815.247	34.79
815.421	36.84
815.594	39.13
815.767	38.18
815.941	36.96
816.114	29.9
816.287	32.98
816.46	32.82
816.634	32.14
816.807	30.93
816.98	29.69
817.153	29.47
817.327	28.39
817.5	24.61
817.673	24.43
817.846	23.12
818.019	31.66
818.192	30.49
818.365	29.24
818.538	32.89
818.711	35.13
818.884	38.42
819.057	39.07
819.23	38.24
819.403	40.36
819.576	39.61
819.749	40.08
819.922	40.19
820.095	41.15
820.268	44.1
820.441	41.99
820.614	40.28
820.786	39.72
820.959	39.58
821.132	40.98
821.305	41.68
821.477	43.7
821.65	43.73
821.823	44.31
821.996	44.01
822.168	42.67
822.341	43.69
822.514	43.83
822.686	43.98
822.859	44.82
823.031	45.26
823.204	45.35
823.376	45.38
823.549	45.39
823.722	44.97
823.894	44.49
824.067	45.1
824.239	44.94
824.411	45.02
824.584	45.69
824.756	45.05
824.929	44.66
825.101	45.16
825.273	44.06
825.446	44.8
825.618	44.27
825.79	45.46
825.963	45.43
826.135	45.68
826.307	45.48
826.479	44.03
826.652	45.43
826.824	45
826.996	42.93
827.168	43.41
827.34	42.85
827.512	43.39
827.684	42.1
827.856	41.83
828.029	40.75
828.201	41.38
828.373	41.39
828.545	40.61
828.717	41.69
828.889	42.85
829.061	42.01
829.232	41.96
829.404	41.66
829.576	42.52
829.748	40.98
829.92	41.27
830.092	40.85
830.264	41.48
830.436	39.59
830.607	37.78
830.779	37.6
830.951	39.95
831.123	40.08
831.294	40.5
831.466	38.2
831.638	41.86
831.809	41.64
831.981	41.22
832.153	41.15
832.324	41.31
832.496	42.35
832.667	43.94
832.839	40.85
833.011	40.16
833.182	39.51
833.354	41.55
833.525	40.32
833.697	37.49
833.868	37.23
834.039	38.43
834.211	39.06
834.382	37.41
834.554	37.64
834.725	39.08
834.896	38.84
835.068	38
835.239	34.84
835.41	36.24
835.581	36.57
835.753	36.69
835.924	35.68
836.095	34.93
836.266	35.7
836.438	35.63
836.609	35.38
836.78	34.35
836.951	32.97
837.122	36.21
837.293	33.02
837.464	34.39
837.635	32.98
837.806	33.17
837.977	30.33
838.148	29.19
838.319	27.68
838.49	26.37
838.661	27.83
838.832	29.78
839.003	30.07
839.174	29.53
839.345	31.93
839.516	36.7
839.687	34.68
839.857	34.76
840.028	36.56
840.199	33.41
840.37	31.37
840.54	30.7
840.711	32.03
840.882	30.07
841.053	29.58
841.223	29.63
841.394	26.26
841.564	28.87
841.735	32.75
841.906	31.92
842.076	25.6
842.247	30.79
842.417	35.66
842.588	32.86
842.758	36.87
842.929	37.4
843.099	31.25
843.27	31.42
843.44	28.32
843.611	28.81
843.781	23.47
843.951	37.38
844.122	36.3
844.292	28.9
844.462	28.81
844.633	25.18
844.803	23.19
844.973	25.14
845.144	24.72
845.314	30.17
845.484	29.04
845.654	34.99
845.824	31.66
845.995	29.83
846.165	28.28
846.335	28.57
846.505	25.53
846.675	33.42
846.845	37.45
847.015	38.74
847.185	37.15
847.355	28.45
847.525	28.32
847.695	20.86
847.865	18.46
848.035	19.01
848.205	24.62
848.375	22.29
848.545	15.36
848.715	10.98
848.884	6.17
849.054	5.84
849.224	16.72
849.394	20.19
849.564	20.1
849.733	22.91
849.903	18.1
850.073	14.2
850.243	11.98
850.412	15.11
850.582	10.7
850.752	19.53
850.921	21.18
851.091	23.51
851.26	27.84
851.43	29.41
851.599	27.44
851.769	29.13
851.939	42.63
852.108	41.83
852.278	33.85
852.447	43.82
852.616	33.62
852.786	40.3
852.955	39.8
853.125	35.55
853.294	30.43
853.463	22.3
853.633	14.78
853.802	-3.06
853.971	-10.07
854.141	-17.67
854.31	-36.85
854.479	-35.44
854.648	-53.51
854.818	-63.19
854.987	-54.95
855.156	-38.69
855.325	-26.01
855.494	-14.87
855.663	-12.39
855.832	3.68
856.001	12.95
856.171	15.33
856.34	13.34
856.509	28.99
856.678	34.16
856.847	39.9
857.016	43.51
857.185	34.78
857.353	39.92
857.522	36.7
857.691	37.34
857.86	34.63
858.029	40.91
858.198	43.74
858.367	38.53
858.535	36.33
858.704	35.25
858.873	28.82
859.042	30.65
859.21	20.42
859.379	14.81
859.548	7.08
859.717	12.47
859.885	-6.46
860.054	-0.47
860.222	-3.28
860.391	-23.3
860.56	-41.46
860.728	-34.56
860.897	-25.54
861.065	-12.6
861.234	0.41
861.402	-18.66
861.571	-12.74
861.739	7.3
861.908	13.1
862.076	12
862.244	29.5
862.413	52.56
862.581	50.97
862.749	36.65
862.918	27.56
863.086	23.68
863.254	22.97
863.423	11.87
863.591	15.87
863.759	12.83
863.927	19.41
864.096	20.55
864.264	10.88
864.432	14.6
864.6	19.74
864.768	22.82
864.936	16.23
865.104	38.8
865.272	52.31
865.44	36.87
865.608	32.22
865.776	33.01
865.944	38.37
866.112	26.83
866.28	6.74
866.448	2.91
866.616	25.19
866.784	25.36
866.952	0.31
867.12	3.15
867.288	4.57
867.455	11.47
867.623	-23.34
867.791	-106.91
867.959	-79.36
868.127	3.02
868.294	-1.3
868.462	-46.7
868.63	-19.44
868.797	1.67
868.965	11.82
869.133	11.62
869.3	1.64
869.468	21.43
869.636	21.11
869.803	21.33
869.971	16.19
870.138	19.78
870.306	22.04
870.473	15.18
870.641	-4.69
870.808	-14.27
870.975	-10.37
871.143	-15.27
871.31	-19.94
871.478	-32.49
871.645	-23.58
871.812	-52.25
871.98	-32.04
872.147	-27.05
872.314	-9.42
872.482	10.29
872.649	-1.49
872.816	-0.09
872.983	13.46
873.15	4.06
873.318	23.48
873.485	9.47
873.652	19.69
873.819	3.79
873.986	20.68
874.153	1.66
874.32	17.89
874.487	51.94
874.654	28.59
874.821	19.68
874.988	30.77
875.155	22.33
875.322	29.22
875.489	18.72
875.656	24.16
875.823	7.31
875.99	12.52
876.157	4.05
876.324	3.71
876.49	12.94
876.657	4.84
876.824	-5.14
876.991	0.1
877.157	-5.83
877.324	6.26
877.491	5.07
877.658	7.08
877.824	8.28
877.991	25.24
878.157	9.68
878.324	13.16
878.491	23.79
878.657	20.22
878.824	17.75
878.99	23.75
879.157	24.01
879.323	25.47
879.49	22.52
879.656	22.07
879.823	-2.17
879.989	19.95
880.156	22.85
880.322	22.79
880.488	25.64
880.655	22.64
880.821	20.46
880.987	29.58
881.154	29.22
881.32	31.07
881.486	33.73
881.652	36.7
881.819	33.64
881.985	37.2
882.151	36.54
882.317	41.99
882.483	44.93
882.649	45.26
882.816	43.07
882.982	44.74
883.148	45.15
883.314	46.08
883.48	47.51
883.646	48.68
883.812	45.24
883.978	45.82
884.144	44.56
884.31	43.23
884.476	42.58
884.642	41.65
884.807	39.59
884.973	39.92
885.139	37.55
885.305	34.83
885.471	35.94
885.637	37.92
885.802	37.81
885.968	37.43
886.134	35.99
886.3	37.59
886.465	37.91
886.631	39.96
886.797	40.41
886.962	43.45
887.128	44.2
887.293	39.83
887.459	36.53
887.625	39.7
887.79	42.41
887.956	38.9
888.121	37.59
888.287	38.63
888.452	37.38
888.618	34.82
888.783	29.82
