Data from CB_022_Reflection_2.txt Node
Date: Wed Nov 11 20:13:52 EST 2015
User: robert
Spectrometer: USB4E03001
Autoset integration time: false
Trigger mode: 4
Integration Time (sec): 1.000000E-1
Scans to average: 15
Electric dark correction enabled: true
Nonlinearity correction enabled: false
Boxcar width: 5
Stray light correction enabled: false
XAxis mode: Wavelengths
Stop averaging: false
Number of Pixels in Spectrum: 3648
>>>>>Begin Spectral Data<<<<<
177.566	-215.58
177.785	-350.17
178.005	640.97
178.225	-169.11
178.445	-280.93
178.665	726.47
178.885	335.78
179.105	5143.48
179.324	495.02
179.544	418.7
179.764	-449.54
179.984	-651.77
180.204	21482.5
180.423	276.42
180.643	-1344.27
180.863	3247.23
181.083	414.99
181.302	764.79
181.522	908.98
181.742	-2606.91
181.961	-514.89
182.181	-4980.19
182.401	3522.58
182.621	-397.4
182.84	-478.27
183.06	-274.23
183.279	-470.2
183.499	-226.92
183.719	-194.06
183.938	-206.65
184.158	-141.17
184.377	-124.17
184.597	-184.67
184.816	-141.17
185.036	-166.48
185.256	-114.03
185.475	-156.99
185.695	-105.78
185.914	-153.35
186.134	-2176.57
186.353	3111.48
186.572	521.45
186.792	350.6
187.011	676.69
187.231	787.55
187.45	486.84
187.67	293.6
187.889	197.04
188.108	189.45
188.328	272.82
188.547	455.54
188.766	678.42
188.986	2496
189.205	3132.88
189.424	908.83
189.644	304.18
189.863	222.32
190.082	801.13
190.302	110.28
190.521	72.99
190.74	45.33
190.959	15.43
191.178	-31.54
191.398	-83.5
191.617	-40.06
191.836	-191.82
192.055	-110.67
192.274	-58.69
192.494	-263.43
192.713	-182.66
192.932	-328.22
193.151	93.28
193.37	137.41
193.589	87.92
193.808	174.13
194.027	273.5
194.246	751
194.465	230.85
194.685	365.09
194.904	-184.72
195.123	247.74
195.342	117.7
195.561	171.41
195.78	-2574.76
195.999	-73.78
196.218	-198.85
196.436	-725.09
196.655	933.23
196.874	706.5
197.093	1186.56
197.312	-416.51
197.531	1117.32
197.75	472.37
197.969	544.87
198.188	871.64
198.407	439.08
198.625	509.67
198.844	901.11
199.063	-3670.8
199.282	-1763.78
199.501	-1206.66
199.719	-1477.64
199.938	-1222.28
200.157	6500
200.376	-575.52
200.594	-2013.53
200.813	-794.24
201.032	675.83
201.251	318.95
201.469	309
201.688	207.43
201.907	627.16
202.125	394.38
202.344	1005.86
202.563	214.27
202.781	268.9
203	86.59
203.218	55.16
203.437	110.08
203.656	260.2
203.874	252.45
204.093	706.28
204.311	184.02
204.53	158.97
204.748	152.5
204.967	386.69
205.185	7440.95
205.404	-239.72
205.622	-82.17
205.841	-23.77
206.059	-28.12
206.278	-49.93
206.496	-61.4
206.715	-203.16
206.933	-64.34
207.151	-136.18
207.37	-98.81
207.588	-68.03
207.806	-15.17
208.025	10.31
208.243	123.97
208.461	110.25
208.68	12.7
208.898	235.11
209.116	103.66
209.335	343.66
209.553	141.8
209.771	85.49
209.989	-143.61
210.208	-10.66
210.426	0.75
210.644	104.14
210.862	-71.54
211.081	-52.39
211.299	-37.7
211.517	-83.9
211.735	-137.37
211.953	25.2
212.171	39.36
212.39	181.62
212.608	26.13
212.826	40.17
213.044	136.78
213.262	36.34
213.48	60.5
213.698	21.36
213.916	-41.68
214.134	-124.72
214.352	-98.24
214.57	39.94
214.788	-177.71
215.006	-162.05
215.224	184.19
215.442	655.23
215.66	398.14
215.878	482.26
216.096	272.49
216.314	272.43
216.532	334.5
216.75	697.05
216.968	370.9
217.185	173.2
217.403	196.58
217.621	648.86
217.839	223.43
218.057	302.52
218.275	580.36
218.492	-970.67
218.71	555.01
218.928	303.85
219.146	340.68
219.363	1586.76
219.581	-786.81
219.799	-140.08
220.017	-213.99
220.234	-197.5
220.452	-222.91
220.67	-420.08
220.887	3194.17
221.105	-410.85
221.323	-90.79
221.54	-116.13
221.758	-360.77
221.976	-101.71
222.193	-93.22
222.411	-29.94
222.629	-18.9
222.846	-62.65
223.064	-33.13
223.281	25.17
223.499	31.79
223.716	23.25
223.934	35.24
224.151	33.02
224.369	3.75
224.586	-11.83
224.804	-6.73
225.021	-8.6
225.239	-37.44
225.456	-27
225.674	-35.89
225.891	-75.01
226.108	-79.45
226.326	-52.84
226.543	-26.01
226.76	3.92
226.978	16.77
227.195	23.43
227.413	35.89
227.63	32.33
227.847	26.66
228.064	21.96
228.282	26.64
228.499	26.65
228.716	22.34
228.934	17.11
229.151	13.64
229.368	13.29
229.585	10.92
229.802	7.08
230.02	8.33
230.237	5.65
230.454	4.17
230.671	0.37
230.888	-0.02
231.105	7.02
231.323	13.02
231.54	15.93
231.757	14.83
231.974	11.62
232.191	5.7
232.408	0.17
232.625	9.92
232.842	13.93
233.059	14.88
233.276	16.82
233.493	8.78
233.71	0.91
233.927	7.56
234.144	0.19
234.361	3.18
234.578	10.31
234.795	15.09
235.012	8.95
235.229	7.51
235.446	7.36
235.663	-7.63
235.879	-3.79
236.096	4.03
236.313	-5.81
236.53	-1.13
236.747	2.93
236.964	1.83
237.181	1.61
237.397	1.79
237.614	-3.06
237.831	-5.04
238.048	0.91
238.264	-5.49
238.481	-5.7
238.698	-10.63
238.915	-6.64
239.131	-10.57
239.348	-10.26
239.565	-6.13
239.781	-5.3
239.998	-1.45
240.215	3.39
240.431	0.87
240.648	2.07
240.865	3.76
241.081	6.36
241.298	6.24
241.514	8.25
241.731	9.21
241.947	6.18
242.164	6.28
242.38	7.34
242.597	5.64
242.814	9.33
243.03	10.43
243.246	8.19
243.463	8.07
243.679	6.18
243.896	5.08
244.112	4.61
244.329	8.42
244.545	5.74
244.762	3.05
244.978	5.35
245.194	6.01
245.411	3.9
245.627	5.14
245.843	7.24
246.06	7.83
246.276	7.68
246.492	6.35
246.709	6.91
246.925	9.23
247.141	10.67
247.357	10.45
247.574	9.49
247.79	9.72
248.006	9.54
248.222	9.96
248.439	10.14
248.655	9.58
248.871	10.1
249.087	8.63
249.303	8.86
249.519	8
249.736	6.82
249.952	8.03
250.168	8.33
250.384	8.52
250.6	6.2
250.816	5.94
251.032	8.07
251.248	10.73
251.464	12.39
251.68	11.24
251.896	8.96
252.112	10
252.328	9.56
252.544	8.38
252.76	9.25
252.976	10.67
253.192	12.82
253.408	12.67
253.624	10.85
253.84	9.21
254.056	8.93
254.272	12.21
254.487	11.48
254.703	7.88
254.919	9.94
255.135	6.21
255.351	-1.89
255.567	-3.35
255.782	-3.46
255.998	-3.17
256.214	-2.3
256.43	-6.3
256.646	-7.3
256.861	-6.38
257.077	-4.44
257.293	-8.01
257.508	-2.73
257.724	0.73
257.94	0.33
258.155	2.58
258.371	2.34
258.587	2.82
258.802	3.65
259.018	4.59
259.234	4.39
259.449	5.15
259.665	6.31
259.88	5.5
260.096	5.66
260.312	6.41
260.527	5.79
260.743	5.73
260.958	6.2
261.174	7.39
261.389	6.86
261.605	7.92
261.82	7.29
262.036	8.45
262.251	7.06
262.466	7.09
262.682	5.54
262.897	4.93
263.113	6.68
263.328	5.46
263.543	3.4
263.759	4.79
263.974	2.39
264.189	2.71
264.405	3.11
264.62	3.92
264.835	5.48
265.051	5.3
265.266	7.17
265.481	8.29
265.696	6.71
265.912	6.3
266.127	3.61
266.342	4.93
266.557	4.65
266.773	2.79
266.988	3.49
267.203	0.7
267.418	2.13
267.633	0.89
267.848	-0.17
268.064	1.02
268.279	1.61
268.494	3.57
268.709	3.71
268.924	4.19
269.139	4.17
269.354	4.04
269.569	3.67
269.784	3.19
269.999	5.07
270.214	6.67
270.429	6.46
270.644	7.05
270.859	5.84
271.074	6.15
271.289	5.74
271.504	5.83
271.719	5.87
271.934	6.43
272.149	7.84
272.363	7.58
272.578	5.69
272.793	5.64
273.008	4.74
273.223	5.52
273.438	3.46
273.653	3.63
273.867	4.21
274.082	3.69
274.297	4.47
274.512	3.76
274.726	3.15
274.941	3.66
275.156	4.36
275.371	4.29
275.585	3.95
275.8	6.37
276.015	7.49
276.229	8.04
276.444	9.47
276.659	10.42
276.873	9.42
277.088	9.05
277.302	8.04
277.517	8.26
277.732	8.72
277.946	8.44
278.161	7.97
278.375	6.55
278.59	5.83
278.804	4.3
279.019	3.43
279.233	2.27
279.448	2.96
279.662	5.56
279.877	3.94
280.091	4.5
280.306	6.4
280.52	7.27
280.735	7.3
280.949	6.72
281.163	7.26
281.378	7.93
281.592	8.98
281.806	8.12
282.021	8.07
282.235	7.79
282.449	6.68
282.664	5.72
282.878	6.05
283.092	5.86
283.307	5.73
283.521	5.82
283.735	5.23
283.949	4.23
284.164	5.42
284.378	4.37
284.592	6.12
284.806	5.37
285.02	4.37
285.234	3.15
285.449	3.43
285.663	2.55
285.877	2.23
286.091	1.58
286.305	1.04
286.519	0.75
286.733	1.47
286.947	1
287.161	2.55
287.375	3.27
287.589	3.62
287.803	3.74
288.017	5.66
288.231	5.98
288.445	8.36
288.659	9.78
288.873	9.27
289.087	8.91
289.301	8.48
289.515	9.53
289.729	11.07
289.943	10.41
290.157	10.72
290.371	10
290.584	10.31
290.798	9.46
291.012	9.22
291.226	10.09
291.44	9.94
291.654	10.05
291.867	8.26
292.081	7.28
292.295	7.62
292.509	7.46
292.722	7.71
292.936	8.12
293.15	7.35
293.364	6.51
293.577	6.22
293.791	6.37
294.005	6.95
294.218	7.94
294.432	7.83
294.645	9.26
294.859	9.26
295.073	9.46
295.286	9.18
295.5	10.22
295.713	10.71
295.927	10.73
296.14	10.36
296.354	10.29
296.568	10.88
296.781	10.4
296.994	9.64
297.208	10.18
297.421	9.95
297.635	9.72
297.848	8.81
298.062	9.27
298.275	9.9
298.489	9.96
298.702	9.78
298.915	9.03
299.129	8.92
299.342	9.14
299.555	8.66
299.769	8.16
299.982	8.5
300.195	8.53
300.409	8.87
300.622	7.79
300.835	8.95
301.048	10.07
301.262	9.17
301.475	10.11
301.688	10.17
301.901	10.6
302.115	11.87
302.328	12.37
302.541	14.8
302.754	14.56
302.967	15.42
303.18	14.65
303.393	13.71
303.607	14.19
303.82	13.35
304.033	13.25
304.246	12.84
304.459	12.81
304.672	13.31
304.885	11.87
305.098	11.85
305.311	10.87
305.524	10.23
305.737	10.59
305.95	11.1
306.163	10.92
306.376	10.63
306.589	10.58
306.802	10.09
307.015	8.87
307.228	9.17
307.44	8.18
307.653	8.07
307.866	8.79
308.079	8.72
308.292	8.37
308.505	8.72
308.718	8.84
308.93	8.12
309.143	7.45
309.356	9.16
309.569	9.68
309.781	10.17
309.994	10.15
310.207	11.1
310.42	11.48
310.632	11.45
310.845	11.74
311.058	12.11
311.27	12.73
311.483	13.54
311.696	12.68
311.908	11.83
312.121	11
312.333	11.41
312.546	10.24
312.759	10.32
312.971	9.77
313.184	9.46
313.396	9
313.609	9.75
313.821	10.13
314.034	10.25
314.246	9.56
314.459	11.28
314.671	10.96
314.884	11.73
315.096	10.81
315.309	11.53
315.521	12.36
315.733	12.95
315.946	12.65
316.158	12.09
316.371	12.32
316.583	13.11
316.795	12.02
317.008	12.61
317.22	12.62
317.432	12.49
317.644	12.28
317.857	12.41
318.069	12.91
318.281	12.52
318.494	12.34
318.706	11.7
318.918	11.18
319.13	12.4
319.342	12.33
319.555	11.85
319.767	12.01
319.979	11.69
320.191	11.85
320.403	11.15
320.615	11.41
320.827	10.7
321.039	11.09
321.252	12.33
321.464	11.36
321.676	12
321.888	12.26
322.1	12.58
322.312	13.79
322.524	13
322.736	12.1
322.948	12.24
323.16	13.17
323.372	14.04
323.584	13.05
323.796	13.79
324.007	13.18
324.219	14.28
324.431	14.41
324.643	14.51
324.855	14.41
325.067	16.17
325.279	16.41
325.491	17.02
325.702	16.79
325.914	17.63
326.126	17.49
326.338	18.55
326.55	18.07
326.761	18.72
326.973	18.99
327.185	19.85
327.396	18.8
327.608	17.66
327.82	17.24
328.032	16.22
328.243	15.23
328.455	15.83
328.666	15.65
328.878	16.46
329.09	15.98
329.301	15.75
329.513	15.31
329.725	15.42
329.936	16.53
330.148	16.61
330.359	17.67
330.571	17.86
330.782	17.26
330.994	15.88
331.205	14.69
331.417	15.73
331.628	15.8
331.84	16.22
332.051	16.9
332.262	17.47
332.474	16.87
332.685	15.97
332.897	16.47
333.108	16.95
333.319	17.26
333.531	18.4
333.742	17.53
333.953	18.28
334.165	18.22
334.376	17.71
334.587	16.4
334.799	16.14
335.01	16.45
335.221	17.49
335.432	17.27
335.644	17.67
335.855	16.83
336.066	17.02
336.277	15.51
336.488	15.11
336.7	16.34
336.911	17.3
337.122	17.95
337.333	17.84
337.544	16.36
337.755	16.33
337.966	16.45
338.177	15.43
338.388	16.09
338.599	16.95
338.811	16.5
339.022	15.61
339.233	15.31
339.444	15.57
339.655	15.52
339.866	16.25
340.076	16.32
340.287	16.48
340.498	17.7
340.709	16.62
340.92	16.04
341.131	16.64
341.342	15.74
341.553	15.45
341.764	15.72
341.975	15.69
342.185	16.42
342.396	16.79
342.607	17.29
342.818	16.79
343.029	18.45
343.239	17.82
343.45	18.46
343.661	19.34
343.872	19.45
344.082	18.91
344.293	19.04
344.504	18.8
344.714	18.36
344.925	18.06
345.136	17.89
345.346	16.44
345.557	17.66
345.768	16.86
345.978	16.2
346.189	15.95
346.399	15.98
346.61	16.35
346.821	16.03
347.031	15.8
347.242	15.48
347.452	14.98
347.663	15
347.873	15.13
348.084	14.76
348.294	15.41
348.504	15.99
348.715	15.95
348.925	15.41
349.136	15.98
349.346	15.46
349.557	15.34
349.767	16.39
349.977	16.71
350.188	15.79
350.398	16.63
350.608	16.24
350.819	15.89
351.029	16.47
351.239	16.2
351.449	15.08
351.66	15.21
351.87	15.47
352.08	14.45
352.29	13.95
352.501	13.77
352.711	14.01
352.921	13.96
353.131	14.77
353.341	13.31
353.552	13.31
353.762	14.17
353.972	14.82
354.182	13.57
354.392	13.39
354.602	13.86
354.812	14.22
355.022	14.19
355.232	14.36
355.442	13.92
355.652	14.53
355.862	15.18
356.072	15.84
356.282	15.49
356.492	16.2
356.702	16.64
356.912	16.38
357.122	16.18
357.332	15.97
357.542	16.01
357.752	15.83
357.962	16.53
358.171	16.14
358.381	15.13
358.591	14.39
358.801	14.4
359.011	14.58
359.221	14.59
359.43	13.99
359.64	13.58
359.85	13.42
360.06	13.22
360.269	12.89
360.479	13.08
360.689	13.09
360.899	13.84
361.108	13.51
361.318	13.59
361.528	13.9
361.737	14.58
361.947	14.83
362.156	14.8
362.366	13.99
362.576	13.79
362.785	13.43
362.995	13.52
363.204	13.41
363.414	13.51
363.623	12.97
363.833	12.3
364.042	12.42
364.252	12.48
364.461	12.08
364.671	12.88
364.88	12.51
365.09	13.05
365.299	12.93
365.509	13.09
365.718	12.62
365.927	13.12
366.137	13.41
366.346	13.36
366.555	12.94
366.765	12.53
366.974	12.89
367.183	12.55
367.393	12.33
367.602	12.31
367.811	11.79
368.021	12.39
368.23	12.3
368.439	12.47
368.648	12.31
368.857	12.61
369.067	13.12
369.276	13.66
369.485	14.87
369.694	14.46
369.903	13.66
370.112	13.6
370.321	13.64
370.531	13.6
370.74	13.38
370.949	13.55
371.158	13.15
371.367	13.38
371.576	12.65
371.785	11.74
371.994	11.88
372.203	12.76
372.412	13.28
372.621	13.51
372.83	13.95
373.039	13.36
373.248	12.89
373.457	12.83
373.666	12.85
373.874	12.58
374.083	12.79
374.292	13.12
374.501	13.02
374.71	13.03
374.919	12.68
375.128	11.62
375.336	12.31
375.545	12.57
375.754	12.7
375.963	12.21
376.171	12.38
376.38	12.54
376.589	12.11
376.798	11.63
377.006	11.69
377.215	11.81
377.424	12.14
377.632	11.46
377.841	11.1
378.05	11.25
378.258	11.73
378.467	11.54
378.675	11.48
378.884	11.37
379.093	11.94
379.301	11.23
379.51	11.08
379.718	11.03
379.927	11.39
380.135	11.7
380.344	11.33
380.552	11.47
380.761	11.56
380.969	11.26
381.177	11.55
381.386	11.27
381.594	11.52
381.803	11.22
382.011	11.49
382.219	11.48
382.428	11.29
382.636	11.21
382.845	10.62
383.053	10.62
383.261	10.31
383.469	9.93
383.678	10.12
383.886	9.89
384.094	9.62
384.302	9.84
384.511	10.1
384.719	10.14
384.927	9.81
385.135	9.56
385.343	9.6
385.552	9.64
385.76	9.84
385.968	9.49
386.176	9.78
386.384	10.15
386.592	9.35
386.8	9.12
387.008	9.06
387.216	8.67
387.424	8.83
387.633	8.64
387.841	8.89
388.049	8.85
388.257	8.87
388.465	8.89
388.672	8.91
388.88	9.3
389.088	9.61
389.296	9.66
389.504	10.55
389.712	10.57
389.92	10.8
390.128	10.46
390.336	10.53
390.544	10.17
390.751	9.81
390.959	9.33
391.167	9.34
391.375	8.83
391.583	8.93
391.79	8.73
391.998	8.91
392.206	8.7
392.414	9.21
392.621	8.9
392.829	9.48
393.037	9.24
393.244	9.59
393.452	9.38
393.66	9.51
393.867	9.24
394.075	9.35
394.283	8.9
394.49	8.86
394.698	8.73
394.905	8.78
395.113	8.64
395.32	9.04
395.528	8.79
395.735	8.71
395.943	8.73
396.15	8.72
396.358	8.18
396.565	8.42
396.773	8.42
396.98	8.08
397.188	8.34
397.395	8.47
397.602	8.21
397.81	8.29
398.017	8.12
398.225	8.16
398.432	8.41
398.639	9.01
398.847	8.48
399.054	8.93
399.261	8.93
399.468	8.66
399.676	8.04
399.883	8.16
400.09	8.02
400.297	8.7
400.505	8.64
400.712	8.13
400.919	7.96
401.126	8.7
401.333	8.28
401.54	8.18
401.748	8.19
401.955	8.41
402.162	8.48
402.369	8.45
402.576	8.21
402.783	7.88
402.99	8.14
403.197	8.36
403.404	8.05
403.611	8.12
403.818	8.23
404.025	8.57
404.232	8.71
404.439	8.67
404.646	8.71
404.853	8.38
405.06	8.51
405.267	8.52
405.474	8.23
405.681	8.17
405.887	7.86
406.094	7.99
406.301	7.75
406.508	7.46
406.715	7.67
406.922	7.78
407.128	7.46
407.335	7.64
407.542	7.42
407.749	7.2
407.955	7.5
408.162	7.56
408.369	7.49
408.575	7.3
408.782	7.42
408.989	7.21
409.195	6.96
409.402	7.49
409.609	7.25
409.815	7.28
410.022	7.39
410.228	7.13
410.435	7.15
410.642	7.38
410.848	7.36
411.055	7.38
411.261	7.39
411.468	7.71
411.674	7.65
411.881	7.59
412.087	7.51
412.294	7.54
412.5	7.57
412.706	7.9
412.913	7.47
413.119	7.69
413.326	7.51
413.532	7.41
413.738	7.46
413.945	7.44
414.151	7.42
414.357	7.59
414.564	7.67
414.77	7.77
414.976	7.76
415.182	8.05
415.389	8.2
415.595	8.24
415.801	8.28
416.007	8.1
416.214	8.07
416.42	8.33
416.626	8.29
416.832	8.38
417.038	8.29
417.244	8.31
417.45	8.15
417.657	8
417.863	8.16
418.069	8.18
418.275	8.13
418.481	8.17
418.687	8.01
418.893	7.97
419.099	8.08
419.305	8.11
419.511	7.92
419.717	8.1
419.923	7.97
420.129	7.87
420.335	7.88
420.541	7.82
420.746	7.74
420.952	7.83
421.158	7.96
421.364	7.7
421.57	7.66
421.776	7.77
421.982	7.65
422.187	7.73
422.393	7.64
422.599	7.58
422.805	7.72
423.01	7.7
423.216	7.58
423.422	7.41
423.628	7.49
423.833	7.58
424.039	7.26
424.245	7.13
424.45	7.14
424.656	7.29
424.862	7.2
425.067	7.06
425.273	7.11
425.478	7.23
425.684	7.19
425.889	7.13
426.095	7.04
426.301	7.3
426.506	7.5
426.712	7.22
426.917	7.05
427.123	7.26
427.328	7.36
427.533	7.52
427.739	7.53
427.944	7.53
428.15	7.76
428.355	7.54
428.561	7.46
428.766	7.44
428.971	7.78
429.177	7.93
429.382	7.65
429.587	7.61
429.793	7.28
429.998	7.02
430.203	7.17
430.408	7.1
430.614	7.27
430.819	7.27
431.024	7.3
431.229	7.27
431.434	7.41
431.64	7.7
431.845	7.83
432.05	7.8
432.255	7.99
432.46	7.88
432.665	8.03
432.87	8.1
433.076	8.16
433.281	8.14
433.486	8.34
433.691	8.43
433.896	8.22
434.101	8.17
434.306	8.22
434.511	8.15
434.716	8.26
434.921	8.04
435.126	8.1
435.331	8.05
435.535	8.03
435.74	7.86
435.945	7.62
436.15	7.8
436.355	7.97
436.56	8.21
436.765	8.19
436.97	8.15
437.174	8.04
437.379	8.16
437.584	8.24
437.789	8.16
437.993	8.17
438.198	8.31
438.403	8.21
438.608	8.06
438.812	8.09
439.017	8.13
439.222	8.1
439.426	8.19
439.631	8.08
439.836	8.17
440.04	8.34
440.245	8.34
440.45	8.16
440.654	8.05
440.859	7.99
441.063	7.77
441.268	7.85
441.472	7.96
441.677	7.91
441.881	7.78
442.086	7.93
442.29	7.73
442.495	7.82
442.699	7.98
442.904	8.07
443.108	8.2
443.312	8.23
443.517	8.05
443.721	7.98
443.925	8.01
444.13	8.16
444.334	7.91
444.538	8.02
444.743	7.8
444.947	7.76
445.151	7.84
445.356	7.79
445.56	7.81
445.764	7.88
445.968	7.81
446.173	7.82
446.377	7.83
446.581	7.86
446.785	7.81
446.989	7.81
447.193	7.84
447.398	7.74
447.602	7.6
447.806	7.49
448.01	7.54
448.214	7.63
448.418	7.51
448.622	7.51
448.826	7.38
449.03	7.36
449.234	7.35
449.438	7.21
449.642	7.53
449.846	7.54
450.05	7.74
450.254	7.76
450.458	7.68
450.662	7.97
450.866	7.79
451.069	7.7
451.273	7.72
451.477	7.59
451.681	7.62
451.885	7.55
452.089	7.72
452.292	7.66
452.496	7.6
452.7	7.86
452.904	7.77
453.107	7.87
453.311	7.96
453.515	7.87
453.719	8.1
453.922	8.11
454.126	7.9
454.33	7.81
454.533	7.86
454.737	7.74
454.94	7.38
455.144	7.27
455.348	7.3
455.551	7.34
455.755	7.49
455.958	7.31
456.162	7
456.365	7.14
456.569	7.4
456.772	7.55
456.976	7.82
457.179	8.01
457.383	8.06
457.586	8.02
457.79	7.9
457.993	7.48
458.196	7.55
458.4	7.75
458.603	7.46
458.807	7.44
459.01	7.31
459.213	7.16
459.417	7.17
459.62	7.13
459.823	7.04
460.026	7.19
460.23	7.52
460.433	7.57
460.636	7.68
460.839	7.87
461.042	7.76
461.246	7.82
461.449	7.87
461.652	7.8
461.855	8.02
462.058	8.09
462.261	8.21
462.464	8.1
462.668	8.1
462.871	7.83
463.074	7.79
463.277	7.84
463.48	7.86
463.683	7.89
463.886	8
464.089	7.73
464.292	7.6
464.495	7.37
464.698	7.23
464.901	7.01
465.104	7.31
465.306	7.47
465.509	7.35
465.712	7.41
465.915	7.4
466.118	7.39
466.321	7.62
466.524	7.79
466.726	7.98
466.929	7.99
467.132	8.16
467.335	8.1
467.538	7.99
467.74	8.14
467.943	7.96
468.146	7.88
468.348	8.11
468.551	7.97
468.754	7.89
468.956	7.72
469.159	7.87
469.362	7.74
469.564	7.81
469.767	7.76
469.969	7.63
470.172	7.67
470.375	7.6
470.577	7.33
470.78	7.4
470.982	7.48
471.185	7.64
471.387	7.61
471.59	7.62
471.792	7.57
471.995	7.54
472.197	7.37
472.399	7.47
472.602	7.59
472.804	7.75
473.007	7.79
473.209	7.83
473.411	7.63
473.614	7.58
473.816	7.9
474.018	7.69
474.22	7.71
474.423	8.05
474.625	8.01
474.827	7.9
475.03	7.85
475.232	7.76
475.434	7.79
475.636	7.81
475.838	7.91
476.04	7.71
476.243	7.8
476.445	7.98
476.647	7.77
476.849	7.71
477.051	7.53
477.253	7.56
477.455	7.47
477.657	7.45
477.859	7.56
478.061	7.42
478.263	7.27
478.465	7.15
478.667	7.09
478.869	7.12
479.071	7.15
479.273	7.46
479.475	7.28
479.677	7.36
479.879	7.13
480.081	6.94
480.283	6.96
480.485	7.27
480.686	7.35
480.888	7.21
481.09	7.24
481.292	7.29
481.494	7.26
481.695	7.33
481.897	7.49
482.099	7.62
482.301	7.77
482.502	7.73
482.704	7.69
482.906	7.68
483.107	7.71
483.309	7.73
483.511	7.69
483.712	7.7
483.914	7.69
484.115	7.68
484.317	7.71
484.519	7.72
484.72	7.77
484.922	7.71
485.123	7.69
485.325	7.72
485.526	7.73
485.728	7.75
485.929	7.82
486.131	7.8
486.332	7.76
486.534	7.77
486.735	7.69
486.936	7.68
487.138	7.73
487.339	7.77
487.541	7.72
487.742	7.69
487.943	7.73
488.144	7.59
488.346	7.6
488.547	7.55
488.748	7.55
488.95	7.64
489.151	7.62
489.352	7.67
489.553	7.72
489.755	7.72
489.956	7.76
490.157	7.65
490.358	7.67
490.559	7.67
490.76	7.74
490.961	7.69
491.163	7.49
491.364	7.5
491.565	7.41
491.766	7.41
491.967	7.47
492.168	7.47
492.369	7.5
492.57	7.52
492.771	7.54
492.972	7.5
493.173	7.52
493.374	7.69
493.575	7.75
493.776	7.86
493.976	7.84
494.177	7.84
494.378	7.73
494.579	7.73
494.78	7.79
494.981	7.91
495.182	7.93
495.382	7.85
495.583	7.65
495.784	7.5
495.985	7.6
496.185	7.56
496.386	7.54
496.587	7.78
496.788	7.8
496.988	7.73
497.189	7.67
497.39	7.56
497.59	7.72
497.791	7.79
497.992	7.83
498.192	7.69
498.393	7.86
498.593	7.88
498.794	7.89
498.994	7.9
499.195	7.92
499.395	8
499.596	8.31
499.796	8.15
499.997	8.16
500.197	8.17
500.398	8.27
500.598	8.14
500.799	8.21
500.999	8.05
501.199	8.02
501.4	8.11
501.6	7.94
501.801	7.76
502.001	7.83
502.201	8.03
502.402	8.18
502.602	8.16
502.802	8.32
503.002	8.31
503.203	8.24
503.403	8.22
503.603	8.15
503.803	8.27
504.003	8.15
504.204	8.28
504.404	8.36
504.604	8.18
504.804	8.26
505.004	8.22
505.204	8.28
505.404	8.54
505.604	8.63
505.804	8.63
506.005	8.66
506.205	8.76
506.405	8.75
506.605	8.65
506.805	8.89
507.005	8.81
507.204	8.73
507.404	8.64
507.604	8.59
507.804	8.69
508.004	8.63
508.204	8.67
508.404	8.71
508.604	8.62
508.804	8.79
509.003	8.62
509.203	8.82
509.403	9.09
509.603	9.19
509.803	9.14
510.002	9.12
510.202	9.37
510.402	9.3
510.602	9.51
510.801	9.52
511.001	9.5
511.201	9.65
511.4	9.57
511.6	9.49
511.8	9.5
511.999	9.5
512.199	9.59
512.398	9.57
512.598	9.76
512.797	9.54
512.997	9.69
513.197	9.73
513.396	9.89
513.596	9.86
513.795	9.72
513.994	9.79
514.194	9.85
514.393	10.01
514.593	10.09
514.792	9.99
514.992	10.25
515.191	10.41
515.39	10.42
515.59	10.45
515.789	10.55
515.988	10.58
516.188	10.66
516.387	10.77
516.586	10.83
516.786	10.83
516.985	10.94
517.184	10.96
517.383	10.89
517.582	10.89
517.782	10.94
517.981	11.03
518.18	11.24
518.379	11.17
518.578	11.24
518.777	11.24
518.976	11.39
519.176	11.49
519.375	11.48
519.574	11.46
519.773	11.48
519.972	11.49
520.171	11.47
520.37	11.45
520.569	11.55
520.768	11.66
520.967	11.54
521.166	11.53
521.365	11.53
521.564	11.65
521.762	11.78
521.961	11.96
522.16	12.03
522.359	12.11
522.558	12.24
522.757	12.34
522.956	12.31
523.154	12.55
523.353	12.36
523.552	12.33
523.751	12.43
523.949	12.46
524.148	12.43
524.347	12.52
524.546	12.67
524.744	12.68
524.943	12.65
525.142	12.76
525.34	12.83
525.539	13.05
525.737	13.02
525.936	12.92
526.135	13.04
526.333	13.05
526.532	13.03
526.73	13.1
526.929	13.17
527.127	13.3
527.326	13.33
527.524	13.23
527.723	13.25
527.921	13.32
528.12	13.38
528.318	13.35
528.516	13.39
528.715	13.4
528.913	13.41
529.112	13.49
529.31	13.48
529.508	13.46
529.707	13.51
529.905	13.55
530.103	13.62
530.301	13.68
530.5	13.75
530.698	13.8
530.896	13.89
531.094	13.78
531.293	13.74
531.491	13.85
531.689	13.97
531.887	14.11
532.085	14.24
532.283	14.32
532.481	14.39
532.68	14.45
532.878	14.63
533.076	14.73
533.274	14.9
533.472	14.93
533.67	14.92
533.868	14.92
534.066	15
534.264	15.04
534.462	15.1
534.66	15.19
534.858	15.25
535.056	15.2
535.253	15.21
535.451	15.27
535.649	15.31
535.847	15.42
536.045	15.52
536.243	15.66
536.441	15.65
536.638	15.65
536.836	15.64
537.034	15.88
537.232	15.87
537.43	16
537.627	16.01
537.825	16.11
538.023	16.01
538.22	16.09
538.418	16.07
538.616	16.06
538.813	16.11
539.011	16.2
539.209	16.2
539.406	16.41
539.604	16.44
539.801	16.51
539.999	16.63
540.196	16.83
540.394	17
540.591	17.06
540.789	17.07
540.986	17.24
541.184	17.38
541.381	17.4
541.579	17.49
541.776	17.57
541.974	17.64
542.171	17.66
542.368	17.74
542.566	17.77
542.763	17.76
542.96	17.92
543.158	18.01
543.355	18.02
543.552	18.09
543.75	18.14
543.947	18.27
544.144	18.49
544.341	18.61
544.539	18.85
544.736	19.09
544.933	19.39
545.13	19.7
545.327	19.85
545.524	20.07
545.722	20.19
545.919	20.34
546.116	20.47
546.313	20.5
546.51	20.6
546.707	20.55
546.904	20.4
547.101	20.32
547.298	20.17
547.495	20.08
547.692	19.96
547.889	20
548.086	19.83
548.283	19.72
548.48	19.55
548.677	19.59
548.874	19.55
549.07	19.55
549.267	19.67
549.464	19.71
549.661	19.75
549.858	20.04
550.055	19.95
550.251	20.11
550.448	20.1
550.645	20.23
550.842	20.23
551.038	20.25
551.235	20.43
551.432	20.35
551.628	20.4
551.825	20.47
552.022	20.4
552.218	20.4
552.415	20.51
552.612	20.44
552.808	20.46
553.005	20.51
553.201	20.51
553.398	20.39
553.594	20.3
553.791	20.5
553.987	20.5
554.184	20.33
554.38	20.3
554.577	20.36
554.773	20.44
554.97	20.6
555.166	20.73
555.362	20.95
555.559	21.03
555.755	21.05
555.952	20.72
556.148	20.83
556.344	20.85
556.541	20.96
556.737	20.83
556.933	20.99
557.129	21.24
557.326	21.1
557.522	20.86
557.718	21
557.914	21.3
558.11	21.61
558.307	21.64
558.503	22.03
558.699	22.06
558.895	22.24
559.091	22.17
559.287	21.85
559.483	21.98
559.679	22.27
559.876	22.32
560.072	22.31
560.268	22.32
560.464	22.39
560.66	22.18
560.856	22.45
561.052	22.39
561.247	22.62
561.443	22.88
561.639	22.95
561.835	23.11
562.031	23.15
562.227	23.14
562.423	23.05
562.619	23.25
562.815	23.52
563.01	23.44
563.206	23.62
563.402	23.72
563.598	23.68
563.793	23.81
563.989	23.88
564.185	24.08
564.381	24.4
564.576	24.49
564.772	24.33
564.968	23.98
565.163	23.97
565.359	23.86
565.555	23.77
565.75	23.93
565.946	23.89
566.141	23.66
566.337	23.61
566.532	23.52
566.728	23.56
566.923	23.68
567.119	24.04
567.314	24.04
567.51	24.24
567.705	24.15
567.901	23.89
568.096	24.04
568.292	24.19
568.487	24.14
568.682	24.04
568.878	24.12
569.073	24.2
569.268	24.16
569.464	24.23
569.659	24.05
569.854	24.43
570.05	24.73
570.245	24.64
570.44	24.65
570.635	24.65
570.831	24.81
571.026	24.95
571.221	24.89
571.416	24.94
571.611	24.95
571.806	25.25
572.002	25.04
572.197	25.14
572.392	24.99
572.587	25.02
572.782	25.11
572.977	25.15
573.172	25.15
573.367	25.23
573.562	25.25
573.757	25.32
573.952	25.08
574.147	25.2
574.342	25.24
574.537	25.47
574.732	25.47
574.927	25.47
575.121	25.39
575.316	25.41
575.511	25.52
575.706	25.43
575.901	25.42
576.096	25.48
576.29	25.54
576.485	25.26
576.68	25.15
576.875	25.26
577.069	25.42
577.264	25.74
577.459	25.72
577.654	25.7
577.848	25.78
578.043	26.16
578.238	26.32
578.432	26.29
578.627	26.54
578.821	26.66
579.016	26.76
579.21	26.84
579.405	26.6
579.6	26.73
579.794	26.65
579.989	26.95
580.183	26.54
580.378	26.25
580.572	26.31
580.766	26.53
580.961	26.62
581.155	26.18
581.35	25.97
581.544	25.93
581.738	25.7
581.933	25.85
582.127	25.63
582.321	26
582.516	26.57
582.71	26.51
582.904	26.27
583.099	26.39
583.293	26.69
583.487	26.9
583.681	26.82
583.875	27.23
584.07	27.16
584.264	27.35
584.458	27.22
584.652	27.07
584.846	27.29
585.04	27.56
585.234	27.6
585.428	27.84
585.623	27.6
585.817	27.91
586.011	27.6
586.205	27.48
586.399	27.45
586.593	27.52
586.787	27.48
586.981	27.1
587.174	26.85
587.368	26.88
587.562	26.86
587.756	27.06
587.95	27
588.144	27.11
588.338	26.92
588.532	26.86
588.725	26.85
588.919	26.84
589.113	27.12
589.307	26.96
589.501	26.71
589.694	26.61
589.888	26.69
590.082	26.8
590.275	27.16
590.469	27.51
590.663	27.42
590.856	27.68
591.05	27.85
591.244	27.86
591.437	28
591.631	28.42
591.824	28.47
592.018	28.49
592.212	28.53
592.405	28.33
592.599	28.47
592.792	28.58
592.986	28.57
593.179	28.65
593.372	28.65
593.566	28.94
593.759	28.78
593.953	28.62
594.146	28.5
594.339	28.43
594.533	28.44
594.726	28.11
594.92	27.98
595.113	27.88
595.306	27.67
595.499	27.44
595.693	27.42
595.886	27.24
596.079	27.44
596.272	27.54
596.466	27.45
596.659	27.18
596.852	27.45
597.045	27.69
597.238	27.7
597.431	27.85
597.624	28.25
597.818	28.16
598.011	28.31
598.204	28.33
598.397	28.35
598.59	28.35
598.783	28.65
598.976	28.74
599.169	28.71
599.362	28.74
599.555	28.75
599.748	28.59
599.941	28.75
600.134	29.01
600.326	28.75
600.519	28.8
600.712	28.8
600.905	28.5
601.098	28.49
601.291	28.47
601.483	28.42
601.676	28.2
601.869	28.24
602.062	28.32
602.255	27.87
602.447	27.83
602.64	27.99
602.833	28.19
603.025	28.26
603.218	28.3
603.411	28.27
603.603	28.34
603.796	28.37
603.989	28.14
604.181	27.92
604.374	28.26
604.566	28.52
604.759	28.44
604.951	28.36
605.144	28.27
605.336	28.13
605.529	27.9
605.721	27.96
605.914	28.12
606.106	28.46
606.299	28.44
606.491	28.37
606.683	28.48
606.876	28.5
607.068	28.54
607.26	28.93
607.453	29
607.645	29.49
607.837	29.5
608.03	29.41
608.222	29.48
608.414	29.75
608.606	29.71
608.799	29.6
608.991	29.71
609.183	30.14
609.375	30.53
609.567	30.97
609.759	31.28
609.952	31.74
610.144	32.47
610.336	32.97
610.528	33.53
610.72	34.39
610.912	35.1
611.104	35.79
611.296	36.03
611.488	36.16
611.68	36.73
611.872	36.8
612.064	36.79
612.256	36.63
612.448	36.29
612.64	36.19
612.832	35.77
613.023	35.34
613.215	34.65
613.407	33.99
613.599	33.47
613.791	32.49
613.983	32.09
614.174	31.6
614.366	31.11
614.558	31.16
614.75	30.76
614.941	30.57
615.133	30.24
615.325	30.37
615.516	30.73
615.708	30.82
615.9	30.88
616.091	30.81
616.283	31.15
616.475	31.53
616.666	31.32
616.858	31.19
617.049	30.88
617.241	31.21
617.432	30.73
617.624	30.32
617.815	30.09
618.007	30.11
618.198	30.29
618.39	29.79
618.581	29.37
618.773	29.54
618.964	29.6
619.155	29.58
619.347	29.37
619.538	29.82
619.729	30.15
619.921	30.6
620.112	30.55
620.303	30.32
620.494	30.6
620.686	30.81
620.877	30.48
621.068	30.43
621.259	30.52
621.451	30.51
621.642	30.4
621.833	29.6
622.024	29.38
622.215	29.27
622.406	29.11
622.597	29.04
622.788	28.81
622.98	28.95
623.171	29.12
623.362	29.37
623.553	29.23
623.744	28.77
623.935	29.66
624.126	29.5
624.317	29.64
624.508	29.78
624.698	29.6
624.889	29.46
625.08	29.3
625.271	29.28
625.462	29.08
625.653	29.26
625.844	29.45
626.034	29.4
626.225	29.56
626.416	29.39
626.607	29.74
626.798	29.69
626.988	30.04
627.179	29.91
627.37	29.6
627.56	29.8
627.751	29.75
627.942	29.75
628.132	29.81
628.323	29.84
628.514	30
628.704	29.72
628.895	29.93
629.085	29.45
629.276	30.03
629.466	30.39
629.657	30.51
629.847	30.82
630.038	31.04
630.228	30.96
630.419	31.07
630.609	31.14
630.8	31.54
630.99	31.67
631.181	32.07
631.371	31.72
631.561	31.46
631.752	31.31
631.942	30.81
632.132	30.89
632.323	31.05
632.513	30.84
632.703	30.81
632.893	30.78
633.084	30.66
633.274	30.46
633.464	30.72
633.654	30.94
633.844	30.81
634.034	30.98
634.225	30.93
634.415	30.7
634.605	30.69
634.795	30.41
634.985	30.39
635.175	30.42
635.365	30.58
635.555	30.37
635.745	30.15
635.935	29.95
636.125	29.88
636.315	29.6
636.505	29.65
636.695	29.58
636.885	29.82
637.075	29.14
637.265	29.33
637.455	29.16
637.644	28.83
637.834	29.18
638.024	29.26
638.214	29.57
638.404	29.81
638.593	29.96
638.783	29.82
638.973	29.92
639.163	30.68
639.352	30.71
639.542	30.71
639.732	31.01
639.921	30.88
640.111	30.92
640.301	30.9
640.49	30.76
640.68	30.37
640.87	30.85
641.059	30.73
641.249	30.62
641.438	30.13
641.628	30.37
641.817	30.57
642.007	30.8
642.196	31.09
642.386	30.93
642.575	31.07
642.764	31.56
642.954	31.39
643.143	31.65
643.333	31.22
643.522	31.59
643.711	31.47
643.901	31.17
644.09	31.02
644.279	30.25
644.469	30.55
644.658	30.74
644.847	30.52
645.036	30.24
645.226	30.04
645.415	30.4
645.604	30.49
645.793	30.33
645.982	30.6
646.171	30.51
646.361	31.35
646.55	30.94
646.739	30.36
646.928	30.33
647.117	30.86
647.306	30.67
647.495	30.56
647.684	30.15
647.873	30.19
648.062	29.93
648.251	29.89
648.44	29.77
648.629	30.17
648.818	30.51
649.007	30.73
649.196	30.27
649.384	30.54
649.573	30.4
649.762	30.41
649.951	30.82
650.14	31.07
650.328	31.21
650.517	31.28
650.706	30.59
650.895	30.57
651.083	30.24
651.272	30.43
651.461	30.1
651.65	30.05
651.838	30.19
652.027	30.45
652.216	30.38
652.404	30.43
652.593	30.64
652.781	31.49
652.97	31.58
653.158	31.56
653.347	31.41
653.535	31.45
653.724	31.33
653.912	31.36
654.101	31.25
654.289	31.45
654.478	31.43
654.666	30.75
654.855	30.44
655.043	30.38
655.231	30.21
655.42	30.17
655.608	30.46
655.796	30.42
655.985	30.78
656.173	30.63
656.361	30.06
656.55	29.89
656.738	29.84
656.926	30.15
657.114	30.42
657.302	30.41
657.491	30.67
657.679	30.55
657.867	30.8
658.055	30.19
658.243	29.92
658.431	30.11
658.619	30.04
658.807	30.44
658.996	30.4
659.184	30.15
659.372	30.45
659.56	30.61
659.748	30.79
659.936	31.1
660.124	31.15
660.311	31.34
660.499	31.6
660.687	31.63
660.875	31.52
661.063	31.5
661.251	31.78
661.439	31.79
661.627	31.4
661.814	31.34
662.002	31.12
662.19	31.4
662.378	31.06
662.565	30.98
662.753	31.21
662.941	31.03
663.129	30.79
663.316	30.72
663.504	30.73
663.692	30.87
663.879	30.76
664.067	30.73
664.254	31.2
664.442	31.59
664.63	31.73
664.817	31.69
665.005	31.72
665.192	31.79
665.38	32.05
665.567	32.33
665.755	31.89
665.942	32.05
666.13	32.28
666.317	31.9
666.504	32.11
666.692	31.94
666.879	31.81
667.067	31.83
667.254	32.03
667.441	31.61
667.629	31.76
667.816	32.33
668.003	31.98
668.19	31.76
668.378	31.57
668.565	31.48
668.752	31.42
668.939	31.89
669.127	32.36
669.314	32.21
669.501	32.39
669.688	32.23
669.875	32.33
670.062	33.06
670.249	32.98
670.436	33.09
670.623	32.74
670.81	33.05
670.997	33.09
671.184	32.43
671.371	32.01
671.558	32.1
671.745	32.18
671.932	32.02
672.119	31.81
672.306	32.24
672.493	31.99
672.68	31.89
672.867	32.33
673.054	31.94
673.24	32.9
673.427	33
673.614	32.71
673.801	32.63
673.988	32.7
674.174	32.49
674.361	32.58
674.548	33.29
674.734	33.95
674.921	33.65
675.108	33.61
675.294	33.32
675.481	32.98
675.668	33.4
675.854	33.41
676.041	33.23
676.227	33.1
676.414	32.19
676.601	31.95
676.787	31.63
676.974	31.25
677.16	31.31
677.347	30.64
677.533	31.01
677.719	30.61
677.906	30.61
678.092	31.01
678.279	31.05
678.465	31.44
678.651	31.47
678.838	31.53
679.024	31.55
679.21	31.6
679.397	31.75
679.583	31.65
679.769	31.3
679.955	31.19
680.142	31.41
680.328	32
680.514	32.27
680.7	32.18
680.886	31.96
681.073	31.98
681.259	31.74
681.445	31.89
681.631	32.64
681.817	33.09
682.003	33.11
682.189	32.35
682.375	31.75
682.561	31.36
682.747	31.32
682.933	31.6
683.119	31.46
683.305	31.51
683.491	31.67
683.677	31.07
683.863	30.86
684.049	30.83
684.235	31.47
684.42	31.78
684.606	31.93
684.792	32.71
684.978	32.68
685.164	33
685.349	32.61
685.535	32.52
685.721	32.29
685.907	32.82
686.092	33.12
686.278	32.91
686.464	33.05
686.649	33.09
686.835	32.63
687.021	33
687.206	32.86
687.392	33.78
687.577	33.46
687.763	33.67
687.948	33.73
688.134	34.02
688.319	34.11
688.505	34.06
688.69	34.04
688.876	33.77
689.061	33.16
689.247	33.49
689.432	33.62
689.618	34.42
689.803	34.58
689.988	33.9
690.174	33.28
690.359	33.23
690.544	32.7
690.73	33.12
690.915	32.91
691.1	32.96
691.285	32.21
691.471	32.07
691.656	31.28
691.841	31.36
692.026	31.73
692.211	31.65
692.396	31.95
692.582	32.24
692.767	31.4
692.952	32.13
693.137	32.33
693.322	32.33
693.507	32.18
693.692	32.42
693.877	32.49
694.062	32.44
694.247	32.85
694.432	32.83
694.617	32.29
694.802	33
694.987	32.16
695.172	31.66
695.357	31.71
695.541	31.47
695.726	31.58
695.911	31.58
696.096	31.51
696.281	31.55
696.466	31.14
696.65	31.92
696.835	31.81
697.02	32.24
697.204	32.98
697.389	33.35
697.574	33.22
697.759	33.67
697.943	33.39
698.128	33.61
698.312	33.72
698.497	33.55
698.682	33.51
698.866	33.27
699.051	33.15
699.235	33.19
699.42	32.88
699.604	32.85
699.789	32.39
699.973	32.51
700.158	32.67
700.342	32.61
700.527	32.8
700.711	32.92
700.895	32.82
701.08	33.28
701.264	33.49
701.448	33.37
701.633	33.94
701.817	34.06
702.001	33.68
702.186	33.15
702.37	32.46
702.554	32.76
702.738	32.25
702.923	33.45
703.107	32.77
703.291	32.24
703.475	32.87
703.659	33.01
703.843	33.25
704.027	33.86
704.212	33.55
704.396	33.92
704.58	33.39
704.764	33.34
704.948	32
705.132	32.57
705.316	33.16
705.5	33.58
705.684	33.42
705.868	33.41
706.052	33.44
706.235	34.34
706.419	34.45
706.603	35.06
706.787	34.5
706.971	35.14
707.155	34.75
707.339	33.89
707.522	33.43
707.706	33.18
707.89	32.79
708.074	32.48
708.257	32.41
708.441	32.94
708.625	31.86
708.808	33.13
708.992	33.04
709.176	33.42
709.359	33.76
709.543	33.76
709.727	33.36
709.91	33.55
710.094	34.38
710.277	34.45
710.461	34.18
710.644	35.3
710.828	34.82
711.011	34.87
711.195	35.14
711.378	34.62
711.562	34.45
711.745	34.77
711.928	34.71
712.112	33.97
712.295	33.23
712.478	32.49
712.662	31.94
712.845	31.49
713.028	32.09
713.212	30.95
713.395	31.71
713.578	32.48
713.761	32.75
713.945	32.92
714.128	33.18
714.311	33.49
714.494	33.82
714.677	34.17
714.86	34.66
715.043	34.26
715.227	34.86
715.41	34.79
715.593	34.82
715.776	35.02
715.959	34.82
716.142	34.37
716.325	34.49
716.508	34.65
716.691	34.48
716.874	33.68
717.057	33.09
717.239	33.94
717.422	33.89
717.605	33.16
717.788	33.35
717.971	33.17
718.154	33.23
718.337	33.35
718.519	33.09
718.702	33.19
718.885	33.88
719.068	33.8
719.25	32.82
719.433	32.23
719.616	31.78
719.798	30.91
719.981	31.36
720.164	30.96
720.346	29.4
720.529	30.05
720.712	30.24
720.894	31.09
721.077	31.52
721.259	30.75
721.442	31.04
721.624	31.1
721.807	31.12
721.989	30.82
722.172	31.97
722.354	33.19
722.537	33.06
722.719	32.72
722.901	32.57
723.084	33.34
723.266	33.37
723.448	32.79
723.631	33.56
723.813	33.7
723.995	33.64
724.178	32.78
724.36	33.77
724.542	33.39
724.724	32.9
724.907	32.78
725.089	32.32
725.271	32.98
725.453	33.28
725.635	32.92
725.817	33.02
725.999	33.03
726.181	33.65
726.364	33.29
726.546	33.54
726.728	34.71
726.91	33.64
727.092	33.92
727.274	34.08
727.456	34.01
727.638	34.18
727.819	33.89
728.001	34.59
728.183	34.99
728.365	35.06
728.547	34.66
728.729	33.81
728.911	34.41
729.093	34.95
729.274	34.74
729.456	35.6
729.638	35.68
729.82	35.99
730.001	35.22
730.183	34.74
730.365	33.73
730.546	34.19
730.728	33.98
730.91	33.64
731.091	33.08
731.273	33.78
731.455	33.53
731.636	33.87
731.818	33.26
731.999	33.78
732.181	32.89
732.362	33.42
732.544	33.11
732.725	33.93
732.907	34.08
733.088	33.33
733.27	32.04
733.451	32.26
733.633	31.94
733.814	32.85
733.995	32.69
734.177	32.96
734.358	32.78
734.539	33.63
734.721	33.14
734.902	33.5
735.083	34.02
735.264	34.37
735.446	34.11
735.627	34.21
735.808	34.28
735.989	33.85
736.17	33.86
736.351	33.83
736.533	33.14
736.714	34.17
736.895	34.03
737.076	34.33
737.257	35.23
737.438	34.83
737.619	34.69
737.8	34.11
737.981	33.96
738.162	34.22
738.343	33.98
738.524	33.53
738.705	33.16
738.886	32.16
739.067	30.87
739.247	30.76
739.428	30.77
739.609	30.51
739.79	31.23
739.971	32.55
740.151	32.32
740.332	32.36
740.513	32.6
740.694	32.99
740.874	33.97
741.055	35.53
741.236	34.2
741.417	33.95
741.597	34.13
741.778	33.45
741.958	32.38
742.139	33.08
742.32	33.74
742.5	34.06
742.681	32.83
742.861	33.5
743.042	32.73
743.222	33.16
743.403	33.85
743.583	34.06
743.764	34.06
743.944	35.16
744.124	35.51
744.305	34.98
744.485	34.71
744.666	34.55
744.846	34.47
745.026	35.05
745.207	35.84
745.387	35.5
745.567	35.68
745.747	36.15
745.928	34.79
746.108	33.6
746.288	34.67
746.468	33.75
746.648	34.76
746.829	34.83
747.009	35.21
747.189	33.91
747.369	33.95
747.549	33.16
747.729	32.87
747.909	33.17
748.089	34.41
748.269	34.52
748.449	34.98
748.629	34.05
748.809	33.09
748.989	31.85
749.169	32.33
749.349	32.41
749.529	32.43
749.709	31.71
749.889	31.62
750.068	30.71
750.248	29.95
750.428	30.61
750.608	31.22
750.788	31.17
750.967	31.16
751.147	32.02
751.327	31.09
751.507	32.11
751.686	32.05
751.866	32.03
752.046	32.72
752.225	33.31
752.405	34.23
752.585	33.18
752.764	33.58
752.944	33.58
753.123	33.67
753.303	34.18
753.482	33.01
753.662	33.59
753.841	33.99
754.021	33.28
754.2	33.08
754.38	31.98
754.559	33.03
754.739	32.9
754.918	32.88
755.097	32.52
755.277	31.92
755.456	31.81
755.635	31.88
755.815	31.61
755.994	31.44
756.173	31.42
756.352	31.46
756.532	31.89
756.711	32.78
756.89	33.65
757.069	34.08
757.248	35.57
757.427	35.88
757.607	35.81
757.786	34.84
757.965	35.45
758.144	35.56
758.323	35.55
758.502	34.96
758.681	34.28
758.86	34.45
759.039	33.98
759.218	33.66
759.397	34.54
759.576	34.92
759.755	34.58
759.934	35.14
760.113	34.42
760.291	34.31
760.47	34.72
760.649	34.47
760.828	33.54
761.007	33.81
761.186	33.88
761.364	33.09
761.543	33.83
761.722	34.88
761.901	33.9
762.079	34.22
762.258	34.32
762.437	33.62
762.615	33.81
762.794	34.48
762.972	34.58
763.151	33.96
763.33	34.34
763.508	33.87
763.687	33.39
763.865	33.73
764.044	34.08
764.222	33.92
764.401	34.45
764.579	34.87
764.758	34.53
764.936	34.19
765.114	34.42
765.293	34.77
765.471	34.52
765.65	34.94
765.828	34.86
766.006	33.97
766.184	33.98
766.363	32.79
766.541	33.03
766.719	33.5
766.898	33.31
767.076	33.22
767.254	32.61
767.432	33.29
767.61	33.78
767.788	34.23
767.967	33.73
768.145	34.74
768.323	35.41
768.501	33.56
768.679	33.25
768.857	33.18
769.035	33.82
769.213	32.91
769.391	32.87
769.569	32.92
769.747	32.95
769.925	34.07
770.103	33.42
770.281	34.18
770.459	35.17
770.636	35.11
770.814	35.65
770.992	36.52
771.17	37.85
771.348	37.75
771.525	38.88
771.703	37.55
771.881	37.42
772.059	37.25
772.236	37.23
772.414	38.33
772.592	41.3
772.769	40.93
772.947	38.81
773.125	37.2
773.302	34.31
773.48	33.86
773.657	34.47
773.835	35.18
774.013	34.09
774.19	34.46
774.368	33.53
774.545	29.61
774.723	30.55
774.9	31.26
775.077	31.64
775.255	34.1
775.432	32.05
775.61	32.94
775.787	34.05
775.964	35.42
776.142	35.09
776.319	34.24
776.496	36.89
776.674	35.3
776.851	36.6
777.028	35.37
777.205	34.74
777.382	36.41
777.56	35.7
777.737	32.36
777.914	33.11
778.091	31.55
778.268	32.82
778.445	32.27
778.622	33.79
778.8	32.73
778.977	35.14
779.154	30.82
779.331	29.95
779.508	30.15
779.685	31.88
779.862	31.63
780.038	33.97
780.215	34.7
780.392	33.97
780.569	33.38
780.746	32.39
780.923	30.85
781.1	33.89
781.277	34.14
781.453	34.39
781.63	35.81
781.807	35.58
781.984	34.62
782.16	33.83
782.337	33.94
782.514	33.7
782.691	34.72
782.867	34.91
783.044	35.3
783.221	34.77
783.397	32.62
783.574	30.63
783.75	30.25
783.927	30.08
784.103	29.93
784.28	30.43
784.456	31.74
784.633	30.14
784.809	30.57
784.986	32.45
785.162	33.87
785.339	36.06
785.515	38.33
785.692	38.96
785.868	38.98
786.044	40.2
786.221	37.01
786.397	36.92
786.573	38.13
786.749	40.34
786.926	40.11
787.102	39.83
787.278	40.48
787.454	39.57
787.631	39.86
787.807	42.25
787.983	41.74
788.159	42.23
788.335	39.66
788.511	40.44
788.687	38.08
788.863	36.71
789.039	37.31
789.216	34.91
789.392	34.04
789.568	31.56
789.744	28.51
789.919	28.83
790.095	30.53
790.271	29.82
790.447	30.68
790.623	33.44
790.799	34.4
790.975	32.81
791.151	34.21
791.327	35.64
791.502	37.31
791.678	39.35
791.854	37.57
792.03	37.71
792.205	38.94
792.381	37.93
792.557	35.12
792.733	34.45
792.908	34.12
793.084	34.6
793.259	33.9
793.435	33.82
793.611	31.54
793.786	31.57
793.962	30.99
794.137	30.5
794.313	28.67
794.488	28.54
794.664	27.34
794.839	26.37
795.015	25.69
795.19	24.81
795.366	25.69
795.541	28.04
795.716	27.53
795.892	26.23
796.067	27.5
796.242	29.17
796.418	32.23
796.593	32.49
796.768	35.48
796.944	35.48
797.119	37.3
797.294	38.24
797.469	36.2
797.644	37.34
797.82	39
797.995	40.76
798.17	39.54
798.345	35.38
798.52	34.86
798.695	31.94
798.87	32.5
799.045	32.07
799.22	30.34
799.395	32.38
799.57	31.86
799.745	29.57
799.92	26.03
800.095	29.14
800.27	29.9
800.445	31.18
800.62	33.24
800.795	32.25
800.97	32.56
801.145	31.75
801.319	28.07
801.494	28.41
801.669	30.35
801.844	34.92
802.018	30.56
802.193	33.06
802.368	34.33
802.543	30.52
802.717	33.17
802.892	32.91
803.067	34.29
803.241	34.61
803.416	35.12
803.59	34.62
803.765	31
803.94	33.25
804.114	30.57
804.289	27.83
804.463	33.65
804.638	29.78
804.812	28.83
804.986	29.66
805.161	31.34
805.335	29.43
805.51	30.66
805.684	31.96
805.858	30.38
806.033	32.4
806.207	35.15
806.381	32.77
806.556	31.62
806.73	31.03
806.904	30.3
807.078	28.58
807.253	26.46
807.427	26.21
807.601	23.94
807.775	27.85
807.949	26.72
808.123	23.74
808.298	23.96
808.472	27.06
808.646	28.34
808.82	27.19
808.994	28.71
809.168	30.66
809.342	29.42
809.516	29.19
809.69	25.86
809.864	29.19
810.038	29.92
810.212	27.55
810.385	27.78
810.559	29.47
810.733	29.83
810.907	31.7
811.081	33.9
811.255	34.81
811.428	38.8
811.602	37.46
811.776	33.4
811.95	37.11
812.123	41.26
812.297	40.61
812.471	35.16
812.644	36.61
812.818	35.85
812.992	33.8
813.165	32.28
813.339	29.86
813.512	32.71
813.686	36.73
813.86	32.51
814.033	33.76
814.207	33.77
814.38	36.44
814.554	36.86
814.727	34.89
814.9	34.96
815.074	35.82
815.247	36.01
815.421	33.31
815.594	29.35
815.767	32.81
815.941	27.95
816.114	25.17
816.287	28.38
816.46	26.05
816.634	24.74
816.807	24.85
816.98	25.58
817.153	27.16
817.327	30.93
817.5	33.38
817.673	30.35
817.846	29.85
818.019	31.81
818.192	29.56
818.365	27.39
818.538	34.16
818.711	35.44
818.884	35.92
819.057	27.78
819.23	27.89
819.403	24.47
819.576	23.22
819.749	22.91
819.922	24.76
820.095	24.69
820.268	28.51
820.441	26.49
820.614	27.66
820.786	28.61
820.959	32.92
821.132	32.48
821.305	34.26
821.477	35.8
821.65	36.01
821.823	35.82
821.996	36.68
822.168	35.72
822.341	35.68
822.514	35.03
822.686	34.82
822.859	34.63
823.031	35.09
823.204	34.41
823.376	34.06
823.549	34.13
823.722	33.76
823.894	32.93
824.067	33.17
824.239	33.45
824.411	34.18
824.584	34.26
824.756	34.54
824.929	33.75
825.101	34.99
825.273	35.18
825.446	35.26
825.618	36.12
825.79	37.17
825.963	37.04
826.135	36.28
826.307	36.94
826.479	35.14
826.652	35.66
826.824	35.86
826.996	35.25
827.168	34.95
827.34	35.24
827.512	33.99
827.684	32.77
827.856	32.45
828.029	32.39
828.201	30.47
828.373	32.13
828.545	31.29
828.717	32.22
828.889	31.55
829.061	31.53
829.232	31.89
829.404	32.01
829.576	31.66
829.748	31.81
829.92	31.81
830.092	33.63
830.264	33.05
830.436	34.21
830.607	34.91
830.779	35.88
830.951	34.94
831.123	33.53
831.294	36.53
831.466	37.76
831.638	39.73
831.809	38.04
831.981	35.94
832.153	37.72
832.324	36.93
832.496	32.53
832.667	30.89
832.839	30.19
833.011	33.34
833.182	32.36
833.354	33.93
833.525	32.23
833.697	34.15
833.868	33.66
834.039	34.52
834.211	33.71
834.382	36.34
834.554	39.24
834.725	39.66
834.896	36.84
835.068	33.89
835.239	30.54
835.41	32.18
835.581	31.52
835.753	31.64
835.924	29.66
836.095	30.24
836.266	28.51
836.438	26.37
836.609	26.85
836.78	24.42
836.951	24.31
837.122	28.29
837.293	27.1
837.464	26.66
837.635	25.37
837.806	26.51
837.977	23.83
838.148	25.43
838.319	21.87
838.49	22.38
838.661	28.35
838.832	32.28
839.003	28.38
839.174	28.53
839.345	31.51
839.516	34.05
839.687	31.64
839.857	34.25
840.028	33.2
840.199	36.28
840.37	33.19
840.54	32.46
840.711	30.65
840.882	32.11
841.053	30.18
841.223	28.15
841.394	32.12
841.564	35.96
841.735	36.78
841.906	37.04
842.076	34.84
842.247	41.1
842.417	45.81
842.588	42.02
842.758	49.54
842.929	47.43
843.099	44.67
843.27	39.29
843.44	37.01
843.611	30.33
843.781	25.74
843.951	32.44
844.122	27.9
844.292	14.11
844.462	14.64
844.633	10.16
844.803	14.05
844.973	18.33
845.144	15.67
845.314	4.44
845.484	16.66
845.654	24.27
845.824	25.11
845.995	27.17
846.165	28.73
846.335	32.81
846.505	29.34
846.675	35.9
846.845	41.01
847.015	47.62
847.185	56.76
847.355	48.11
847.525	42.26
847.695	34.45
847.865	29.17
848.035	28.63
848.205	36.34
848.375	37.82
848.545	27.27
848.715	25.5
848.884	8.71
849.054	13.62
849.224	25.27
849.394	28.85
849.564	36.6
849.733	39.6
849.903	37.12
850.073	29.04
850.243	22.13
850.412	19.22
850.582	16.25
850.752	23.26
850.921	18.45
851.091	13.57
851.26	11.13
851.43	-1.57
851.599	6.27
851.769	20.22
851.939	26.5
852.108	33.54
852.278	30.59
852.447	33.42
852.616	31.93
852.786	29.43
852.955	30.76
853.125	28.37
853.294	27.39
853.463	19.26
853.633	15.69
853.802	9.13
853.971	0.07
854.141	10.29
854.31	-2.82
854.479	6.82
854.648	4.02
854.818	5.07
854.987	11.1
855.156	8.66
855.325	13.14
855.494	15.97
855.663	8.39
855.832	24.39
856.001	23.03
856.171	12.41
856.34	7.22
856.509	17.15
856.678	4.94
856.847	11.17
857.016	10.59
857.185	15.52
857.353	17.84
857.522	21.55
857.691	19.56
857.86	19.37
858.029	26.42
858.198	33
858.367	25.11
858.535	29.95
858.704	35.04
858.873	48.9
859.042	44.32
859.21	34.13
859.379	43.17
859.548	37.68
859.717	32.35
859.885	31.36
860.054	23.11
860.222	27.84
860.391	29.82
860.56	13.17
860.728	10.87
860.897	2.89
861.065	20.21
861.234	12.17
861.402	-8.09
861.571	2.15
861.739	8.23
861.908	6.07
862.076	16.97
862.244	22.54
862.413	29.43
862.581	18.82
862.749	31.16
862.918	35.98
863.086	34.64
863.254	47.94
863.423	44.68
863.591	44.2
863.759	42.08
863.927	35.06
864.096	38.89
864.264	40.14
864.432	43.12
864.6	49.3
864.768	30.65
864.936	25.16
865.104	16.19
865.272	18.24
865.44	22.48
865.608	42.35
865.776	45.18
865.944	48.56
866.112	48.3
866.28	51.32
866.448	44.67
866.616	62.52
866.784	67.58
866.952	63.75
867.12	54.15
867.288	63.72
867.455	49.61
867.623	36.86
867.791	18.99
867.959	14.08
868.127	20.95
868.294	3.19
868.462	-24.37
868.63	0.11
868.797	21.76
868.965	23.82
869.133	23.48
869.3	6.92
869.468	22.4
869.636	20
869.803	18.99
869.971	15.55
870.138	28.27
870.306	29.04
870.473	24.16
870.641	9.17
870.808	10.75
870.975	14.45
871.143	28.05
871.31	24.59
871.478	19.73
871.645	27.38
871.812	29.77
871.98	39.64
872.147	53.3
872.314	59.66
872.482	52.28
872.649	46.34
872.816	38.71
872.983	41.54
873.15	29.15
873.318	44.79
873.485	24.55
873.652	24.4
873.819	2.17
873.986	12.13
874.153	-2.47
874.32	12.47
874.487	18.03
874.654	20.1
874.821	12.35
874.988	40.58
875.155	31.34
875.322	47.23
875.489	36.66
875.656	39.49
875.823	28.81
875.99	33.53
876.157	27.76
876.324	26.29
876.49	34.46
876.657	29.85
876.824	25.21
876.991	28.34
877.157	17.06
877.324	21.08
877.491	16.42
877.658	21.61
877.824	0.13
877.991	13.21
878.157	21.1
878.324	17.98
878.491	19.77
878.657	23.52
878.824	17.57
878.99	32.91
879.157	29.83
879.323	31.78
879.49	22.04
879.656	37.64
879.823	22.91
879.989	25.4
880.156	20.49
880.322	20.92
880.488	19.19
880.655	21.49
880.821	17.09
880.987	26.18
881.154	28.27
881.32	29.46
881.486	30.59
881.652	30
881.819	29.24
881.985	34.74
882.151	35.54
882.317	33.88
882.483	29.61
882.649	28.35
882.816	25.36
882.982	24.78
883.148	25.57
883.314	25.93
883.48	29
883.646	27.26
883.812	26.49
883.978	26.09
884.144	27.04
884.31	29.92
884.476	30.19
884.642	30.74
884.807	30.26
884.973	31.15
885.139	30.05
885.305	28.1
885.471	28.15
885.637	28.28
885.802	29.72
885.968	28.89
886.134	26.39
886.3	27.88
886.465	29.47
886.631	30.99
886.797	31.97
886.962	34.02
887.128	34.98
887.293	36.45
887.459	33.57
887.625	34.86
887.79	31.9
887.956	33.39
888.121	32.13
888.287	29.66
888.452	30.79
888.618	26.4
888.783	23.61
