Data from CB_074_Reflection_6.txt Node
Date: Sat Nov 14 11:28:39 EST 2015
User: robert
Spectrometer: USB4E03001
Autoset integration time: false
Trigger mode: 4
Integration Time (sec): 1.000000E-1
Scans to average: 15
Electric dark correction enabled: true
Nonlinearity correction enabled: false
Boxcar width: 5
Stray light correction enabled: false
XAxis mode: Wavelengths
Stop averaging: false
Number of Pixels in Spectrum: 3648
>>>>>Begin Spectral Data<<<<<
177.566	-343.9
177.785	-415.48
178.005	-1026.87
178.225	-187
178.445	-155.21
178.665	-429.11
178.885	-60.42
179.105	-192.91
179.324	-174.86
179.544	-420.01
179.764	-103.03
179.984	-143.72
180.204	-120.42
180.423	-339.17
180.643	-191.11
180.863	-289.06
181.083	-1675.8
181.302	-7613.49
181.522	931.65
181.742	1173.23
181.961	1262.18
182.181	194.55
182.401	115.87
182.621	202.01
182.84	902.52
183.06	-2969.83
183.279	-456.64
183.499	-344.88
183.719	-470.09
183.938	-258.77
184.158	-180.02
184.377	-172.07
184.597	-110.02
184.816	-98.87
185.036	-175.9
185.256	-238.09
185.475	-430.45
185.695	-242.74
185.914	-222.15
186.134	-196.15
186.353	-193.38
186.572	-235.21
186.792	-614.85
187.011	2801.68
187.231	-1899.03
187.45	-266.24
187.67	-931.98
187.889	532.72
188.108	301.84
188.328	203.19
188.547	151.26
188.766	136.63
188.986	98.7
189.205	114.26
189.424	118.52
189.644	94.4
189.863	154.17
190.082	172.2
190.302	266.6
190.521	213.33
190.74	251.31
190.959	817.64
191.178	681.82
191.398	592.01
191.617	1573.24
191.836	6240.86
192.055	1144.68
192.274	247.33
192.494	358.63
192.713	12417.86
192.932	-1364.38
193.151	220000
193.37	308.66
193.589	-9547.79
193.808	-881.07
194.027	-1573.07
194.246	3615.48
194.465	-2705.11
194.685	685.37
194.904	658.6
195.123	378.76
195.342	342
195.561	328.33
195.78	1177.95
195.999	2753.63
196.218	1172.2
196.436	768.29
196.655	360.44
196.874	216.26
197.093	405.81
197.312	369.36
197.531	586.49
197.75	683.47
197.969	2032.49
198.188	316.93
198.407	210.28
198.625	246.42
198.844	303.71
199.063	349.18
199.282	663.02
199.501	-3732.03
199.719	-1927.83
199.938	785.36
200.157	591.63
200.376	-3136.83
200.594	-256.36
200.813	-749.79
201.032	-1916.96
201.251	-993.79
201.469	-1398.91
201.688	-2604.12
201.907	4251.11
202.125	1310.37
202.344	5934.65
202.563	26036.23
202.781	1448.53
203	451.51
203.218	374.43
203.437	606.03
203.656	419.78
203.874	897.46
204.093	772.6
204.311	521.55
204.53	1423.84
204.748	328.64
204.967	550.69
205.185	391.85
205.404	407.52
205.622	512.15
205.841	315.77
206.059	257.46
206.278	239.25
206.496	363.47
206.715	493.71
206.933	327.94
207.151	438.99
207.37	272.83
207.588	354.42
207.806	412.97
208.025	523.21
208.243	782.57
208.461	-61627.27
208.68	1560.55
208.898	719.93
209.116	429.96
209.335	361.46
209.553	360.56
209.771	304.96
209.989	249.84
210.208	215.29
210.426	184.16
210.644	164.84
210.862	140.4
211.081	160.68
211.299	146.34
211.517	180.47
211.735	142.38
211.953	122.7
212.171	146.03
212.39	169
212.608	160.34
212.826	155.46
213.044	153.32
213.262	163.52
213.48	150.31
213.698	180.43
213.916	91.13
214.134	160.35
214.352	420.37
214.57	234.23
214.788	160.01
215.006	165.45
215.224	351.06
215.442	825.17
215.66	1814.43
215.878	567.07
216.096	206.56
216.314	743.54
216.532	2784.52
216.75	-642.74
216.968	-930.69
217.185	-8397.35
217.403	2150.64
217.621	-115111.11
217.839	-689.23
218.057	-19525
218.275	-508.57
218.492	-111.28
218.71	-2770.51
218.928	1902.02
219.146	980.9
219.363	507.6
219.581	472.45
219.799	-2312.15
220.017	312.87
220.234	385.34
220.452	408.26
220.67	718.11
220.887	292.98
221.105	414.07
221.323	249.55
221.54	199.9
221.758	224.92
221.976	237.23
222.193	165.49
222.411	168.05
222.629	174.37
222.846	172.78
223.064	146.49
223.281	163.39
223.499	169.65
223.716	156.6
223.934	132.2
224.151	116.37
224.369	116.61
224.586	136.77
224.804	142.44
225.021	124.07
225.239	107.72
225.456	112.9
225.674	91.19
225.891	80.49
226.108	78.28
226.326	82.62
226.543	74.24
226.76	62.85
226.978	59.94
227.195	64.49
227.413	61.61
227.63	62.43
227.847	53.73
228.064	50.32
228.282	49.97
228.499	47.24
228.716	46.17
228.934	44.6
229.151	40.81
229.368	32.7
229.585	28.53
229.802	27.55
230.02	28.54
230.237	28.09
230.454	25.39
230.671	27.42
230.888	30.12
231.105	29.63
231.323	30.28
231.54	33.89
231.757	42.84
231.974	50.01
232.191	49.65
232.408	46.31
232.625	58.46
232.842	59.71
233.059	57.02
233.276	53.67
233.493	47.42
233.71	49.55
233.927	47.23
234.144	43.46
234.361	41.35
234.578	42.13
234.795	40.22
235.012	30.38
235.229	26.39
235.446	28.58
235.663	28.01
235.879	27.81
236.096	29.5
236.313	35.35
236.53	30.43
236.747	33.61
236.964	32.52
237.181	42.59
237.397	46.87
237.614	52.78
237.831	49.86
238.048	56.75
238.264	59.75
238.481	55.83
238.698	48.47
238.915	50.32
239.131	41.55
239.348	38.47
239.565	31.65
239.781	31.78
239.998	27.15
240.215	25.06
240.431	20.62
240.648	24.96
240.865	18.22
241.081	21.34
241.298	21.82
241.514	24.3
241.731	25.14
241.947	26.44
242.164	24.25
242.38	21.4
242.597	20.4
242.814	21.24
243.03	20.5
243.246	22.06
243.463	21.59
243.679	20.51
243.896	19.78
244.112	17.92
244.329	18.07
244.545	21.8
244.762	23.53
244.978	23.45
245.194	19
245.411	19.87
245.627	21.78
245.843	21.6
246.06	22.98
246.276	22.82
246.492	23.66
246.709	22.61
246.925	21.72
247.141	22.1
247.357	22.61
247.574	22.83
247.79	21.59
248.006	20.4
248.222	20.31
248.439	18.5
248.655	17.66
248.871	15.83
249.087	15.4
249.303	14.92
249.519	16.19
249.736	16.03
249.952	16.63
250.168	21.15
250.384	23.41
250.6	23.05
250.816	27.37
251.032	27.67
251.248	29.16
251.464	28.81
251.68	27.43
251.896	23.52
252.112	22.03
252.328	21.09
252.544	19.59
252.76	19.03
252.976	18.53
253.192	16.79
253.408	17.78
253.624	17.38
253.84	17.55
254.056	18.21
254.272	17.3
254.487	18.25
254.703	16.81
254.919	12.83
255.135	13.35
255.351	17.7
255.567	20.21
255.782	20.54
255.998	23.18
256.214	22.35
256.43	21.43
256.646	22.94
256.861	22.43
257.077	22.76
257.293	22.56
257.508	22.34
257.724	20.86
257.94	17.55
258.155	16.75
258.371	14.34
258.587	14.67
258.802	13.85
259.018	14.41
259.234	14.09
259.449	14.26
259.665	14.16
259.88	14.25
260.096	13.29
260.312	13.66
260.527	12.89
260.743	13.53
260.958	13.08
261.174	13.39
261.389	14.32
261.605	14.66
261.82	14.11
262.036	14.32
262.251	13.99
262.466	14.08
262.682	13.7
262.897	14.43
263.113	13.09
263.328	13.96
263.543	15.08
263.759	12.76
263.974	11.7
264.189	13.23
264.405	12.15
264.62	11.8
264.835	11.66
265.051	13.61
265.266	14.74
265.481	17.97
265.696	21.16
265.912	18.94
266.127	18.95
266.342	19.66
266.557	20.9
266.773	22.16
266.988	22.14
267.203	21.92
267.418	21.09
267.633	19.84
267.848	18.64
268.064	14.88
268.279	15.6
268.494	14.35
268.709	14.05
268.924	13.61
269.139	12.2
269.354	12.89
269.569	11.55
269.784	11.77
269.999	13.12
270.214	12.85
270.429	14.26
270.644	14.38
270.859	14.83
271.074	14.62
271.289	14.03
271.504	14.96
271.719	14.67
271.934	16.49
272.149	16.36
272.363	17.31
272.578	16.99
272.793	15.54
273.008	15.33
273.223	15.38
273.438	14.43
273.653	14.34
273.867	12.45
274.082	12.03
274.297	11.96
274.512	13.02
274.726	10.89
274.941	10
275.156	12.99
275.371	13.1
275.585	14.24
275.8	16.3
276.015	15.11
276.229	17.35
276.444	19.1
276.659	16.81
276.873	15.7
277.088	17.61
277.302	20.69
277.517	17.1
277.732	16.49
277.946	14.91
278.161	15.69
278.375	16.38
278.59	14.41
278.804	12.02
279.019	14.86
279.233	13.7
279.448	11.84
279.662	10.05
279.877	12.62
280.091	11.59
280.306	12.14
280.52	9.06
280.735	9.61
280.949	12.44
281.163	13.33
281.378	10.67
281.592	12.07
281.806	11.9
282.021	11.47
282.235	10.69
282.449	12.06
282.664	13.4
282.878	15.15
283.092	14.33
283.307	12.53
283.521	12.01
283.735	14.66
283.949	13.94
284.164	12.98
284.378	12.44
284.592	11.31
284.806	11.27
285.02	10.07
285.234	8.88
285.449	9.03
285.663	10.62
285.877	10.94
286.091	9.33
286.305	10.07
286.519	11.63
286.733	12.32
286.947	13.7
287.161	13.64
287.375	12.96
287.589	14.2
287.803	16.16
288.017	13.92
288.231	14.56
288.445	15.49
288.659	15.03
288.873	15.64
289.087	15.9
289.301	16.58
289.515	16.51
289.729	17.5
289.943	17.26
290.157	17.25
290.371	18.46
290.584	18.78
290.798	19.37
291.012	19.35
291.226	18.42
291.44	18.95
291.654	17.83
291.867	16.87
292.081	17.53
292.295	18.67
292.509	17.69
292.722	17.94
292.936	16.4
293.15	14.77
293.364	14.22
293.577	14.66
293.791	15.19
294.005	15.55
294.218	17.07
294.432	16.29
294.645	14.98
294.859	14.77
295.073	15
295.286	15.22
295.5	15.86
295.713	15.43
295.927	15.43
296.14	13.69
296.354	13.47
296.568	12.63
296.781	12.24
296.994	12.08
297.208	11.57
297.421	10.83
297.635	11.17
297.848	10.52
298.062	10.99
298.275	11.64
298.489	12.41
298.702	12.98
298.915	13.05
299.129	13.88
299.342	14.79
299.555	16.3
299.769	17.23
299.982	17.55
300.195	18.88
300.409	18.93
300.622	16.85
300.835	16.49
301.048	15.78
301.262	17.27
301.475	17.04
301.688	16.62
301.901	15.77
302.115	15.61
302.328	15.65
302.541	15.9
302.754	16.81
302.967	18.45
303.18	19.83
303.393	20.13
303.607	19.47
303.82	20.69
304.033	20.83
304.246	21.2
304.459	20.58
304.672	20.48
304.885	20.95
305.098	20.91
305.311	21.54
305.524	21.44
305.737	21.9
305.95	22.74
306.163	21.89
306.376	22.56
306.589	22.37
306.802	22.59
307.015	23.05
307.228	22.72
307.44	22.06
307.653	21.18
307.866	20.31
308.079	20.01
308.292	18.28
308.505	18.59
308.718	18.49
308.93	19.03
309.143	19.42
309.356	19.31
309.569	18.73
309.781	18.99
309.994	19.01
310.207	18.74
310.42	18.74
310.632	19.26
310.845	18.99
311.058	18.42
311.27	17.91
311.483	18.2
311.696	17.49
311.908	17.45
312.121	17.37
312.333	18.66
312.546	18.69
312.759	18.74
312.971	18.57
313.184	19.64
313.396	19.98
313.609	20.49
313.821	20.35
314.034	21.02
314.246	21.22
314.459	21.74
314.671	19.94
314.884	19.61
315.096	20.23
315.309	20.81
315.521	20.51
315.733	19.62
315.946	18.98
316.158	19.09
316.371	20.05
316.583	19.99
316.795	19.27
317.008	19.22
317.22	19.86
317.432	19.63
317.644	18.84
317.857	17.57
318.069	18.57
318.281	19.79
318.494	19.13
318.706	18.96
318.918	20.39
319.13	20.27
319.342	20.51
319.555	19.93
319.767	19.66
319.979	19.8
320.191	20.32
320.403	20.64
320.615	20.99
320.827	23.08
321.039	21.83
321.252	22.16
321.464	23.41
321.676	22.73
321.888	23.4
322.1	23.37
322.312	24.59
322.524	25.92
322.736	25.18
322.948	23.58
323.16	23.22
323.372	24.76
323.584	23.84
323.796	23.14
324.007	23.83
324.219	25.01
324.431	26.43
324.643	26.82
324.855	26.92
325.067	26.28
325.279	27.06
325.491	27.4
325.702	26.68
325.914	26.73
326.126	26.76
326.338	25.35
326.55	24.48
326.761	23.78
326.973	23.51
327.185	22.49
327.396	24.68
327.608	25.75
327.82	24.34
328.032	25.27
328.243	25.5
328.455	26.51
328.666	28.38
328.878	28.38
329.09	28.61
329.301	27.95
329.513	27.94
329.725	27.23
329.936	26.16
330.148	27.03
330.359	26.77
330.571	26.59
330.782	25.65
330.994	27.29
331.205	28.31
331.417	28.77
331.628	29.16
331.84	31.03
332.051	31.44
332.262	30.69
332.474	29.57
332.685	29.93
332.897	29.99
333.108	30.64
333.319	28.6
333.531	28.37
333.742	27.92
333.953	28.04
334.165	26.97
334.376	26.94
334.587	28.03
334.799	27.7
335.01	27.1
335.221	26.62
335.432	26.04
335.644	26.09
335.855	26.23
336.066	26.96
336.277	26.75
336.488	26.04
336.7	25.14
336.911	25.48
337.122	26.81
337.333	27.09
337.544	26.88
337.755	27.91
337.966	28.47
338.177	27.84
338.388	26.2
338.599	26.03
338.811	25.52
339.022	25.84
339.233	26.01
339.444	25.05
339.655	24.03
339.866	24.34
340.076	23.08
340.287	22.15
340.498	23.11
340.709	23.84
340.92	23.71
341.131	24.24
341.342	24.8
341.553	23.97
341.764	24.86
341.975	25.65
342.185	25.88
342.396	26.16
342.607	26.76
342.818	25.75
343.029	25.25
343.239	25.53
343.45	25.07
343.661	24.45
343.872	24.15
344.082	23.15
344.293	22.97
344.504	22.73
344.714	22.85
344.925	22.87
345.136	22.81
345.346	22.31
345.557	21.86
345.768	21.86
345.978	22.82
346.189	22.67
346.399	22.3
346.61	22.24
346.821	22.62
347.031	22.89
347.242	22.63
347.452	22.28
347.663	22.8
347.873	23.41
348.084	23.67
348.294	21.61
348.504	21.64
348.715	22.91
348.925	22.73
349.136	20.98
349.346	20.37
349.557	20.35
349.767	21.27
349.977	21.73
350.188	21.07
350.398	21.87
350.608	22.65
350.819	22.81
351.029	21.95
351.239	22.38
351.449	23.55
351.66	23.34
351.87	22.57
352.08	22.46
352.29	22.49
352.501	22.86
352.711	21.64
352.921	21.64
353.131	20.89
353.341	21.46
353.552	20.78
353.762	20.76
353.972	20.81
354.182	22.13
354.392	20.82
354.602	21.01
354.812	21.12
355.022	21.27
355.232	21.3
355.442	22.02
355.652	21.88
355.862	22.43
356.072	22.42
356.282	21.97
356.492	21.89
356.702	22.34
356.912	21.55
357.122	22.32
357.332	22.82
357.542	22.2
357.752	22.68
357.962	22.49
358.171	22.63
358.381	22.92
358.591	23.25
358.801	23.04
359.011	23.23
359.221	23.24
359.43	22.36
359.64	21.5
359.85	22.14
360.06	21.34
360.269	21.02
360.479	20.76
360.689	20.48
360.899	20.83
361.108	20.52
361.318	19.89
361.528	20.02
361.737	19.85
361.947	20.22
362.156	19.72
362.366	19.64
362.576	19.93
362.785	19.58
362.995	19.62
363.204	20.05
363.414	20.48
363.623	21.09
363.833	21.57
364.042	21.92
364.252	21.91
364.461	22.27
364.671	22.76
364.88	22.75
365.09	23.21
365.299	23.4
365.509	22.65
365.718	21.46
365.927	21.32
366.137	20.14
366.346	20.41
366.555	20.21
366.765	20.08
366.974	19.97
367.183	18.35
367.393	16.78
367.602	15.98
367.811	16.04
368.021	16.93
368.23	17.07
368.439	17.43
368.648	16.56
368.857	16.72
369.067	16.13
369.276	15.3
369.485	16.8
369.694	18.36
369.903	18.77
370.112	18.6
370.321	17.92
370.531	17.53
370.74	17.72
370.949	18.26
371.158	17.98
371.367	18.37
371.576	18.13
371.785	17.67
371.994	17.45
372.203	17.28
372.412	17.1
372.621	17.75
372.83	17.87
373.039	17.72
373.248	16.59
373.457	16.38
373.666	15.66
373.874	16.16
374.083	16.86
374.292	16.55
374.501	16.63
374.71	16.25
374.919	15.81
375.128	15.71
375.336	16.12
375.545	16.78
375.754	17.07
375.963	17.23
376.171	16.53
376.38	15.92
376.589	15.67
376.798	15
377.006	15.33
377.215	15.45
377.424	15.21
377.632	14.19
377.841	14.22
378.05	13.72
378.258	13.61
378.467	13.91
378.675	13.94
378.884	14.19
379.093	14.05
379.301	14.06
379.51	13.73
379.718	13.55
379.927	13.98
380.135	13.7
380.344	13.71
380.552	14.12
380.761	14.07
380.969	13.65
381.177	12.62
381.386	13.3
381.594	12.74
381.803	12.38
382.011	12.64
382.219	12.53
382.428	12.35
382.636	12.17
382.845	11.51
383.053	11.86
383.261	12.22
383.469	12.75
383.678	12.84
383.886	12.49
384.094	12.85
384.302	13.03
384.511	13.09
384.719	12.89
384.927	13.1
385.135	13.58
385.343	13.43
385.552	13.52
385.76	13.13
385.968	12.55
386.176	12.91
386.384	12.32
386.592	11.52
386.8	11.71
387.008	12.18
387.216	12.12
387.424	12.07
387.633	11.87
387.841	11.55
388.049	12.17
388.257	12.22
388.465	11.7
388.672	11.98
388.88	12.44
389.088	11.5
389.296	10.75
389.504	10.34
389.712	10.23
389.92	10.2
390.128	10.18
390.336	9.67
390.544	9.52
390.751	9.87
390.959	9.89
391.167	9.6
391.375	10.38
391.583	10.54
391.79	10.34
391.998	10.3
392.206	10.1
392.414	9.87
392.621	10.09
392.829	10.04
393.037	9.99
393.244	9.77
393.452	9.98
393.66	9.56
393.867	9.56
394.075	9.91
394.283	9.96
394.49	9.76
394.698	9.75
394.905	9.45
395.113	9.51
395.32	9.32
395.528	9.54
395.735	9.3
395.943	9.34
396.15	9.25
396.358	9.09
396.565	8.93
396.773	9.23
396.98	9.4
397.188	9.23
397.395	9.37
397.602	9.12
397.81	8.7
398.017	8.65
398.225	8.9
398.432	8.56
398.639	8.58
398.847	8.12
399.054	8.18
399.261	8.09
399.468	8.35
399.676	8.23
399.883	8.48
400.09	8.67
400.297	8.48
400.505	8.17
400.712	8.49
400.919	8.47
401.126	8.71
401.333	8.39
401.54	8.08
401.748	7.92
401.955	7.42
402.162	7.16
402.369	7.04
402.576	7.09
402.783	6.85
402.99	6.63
403.197	6.33
403.404	6.15
403.611	6.17
403.818	6.25
404.025	6.36
404.232	6.73
404.439	6.65
404.646	6.52
404.853	6.47
405.06	6.44
405.267	6.59
405.474	6.73
405.681	6.91
405.887	6.76
406.094	7.06
406.301	7.12
406.508	7.19
406.715	7.92
406.922	8.26
407.128	8.7
407.335	8.76
407.542	8.45
407.749	8.65
407.955	8.67
408.162	8.46
408.369	8.28
408.575	8.29
408.782	8.02
408.989	7.13
409.195	6.85
409.402	6.51
409.609	6.43
409.815	6.53
410.022	6.48
410.228	6.3
410.435	6.8
410.642	6.61
410.848	6.27
411.055	6.36
411.261	6.68
411.468	6.93
411.674	7.02
411.881	7.15
412.087	7.1
412.294	7.09
412.5	7.42
412.706	7.2
412.913	7.08
413.119	7.41
413.326	7.1
413.532	6.97
413.738	6.71
413.945	6.09
414.151	6.31
414.357	6.46
414.564	6.55
414.77	6.14
414.976	6.16
415.182	6.71
415.389	6.31
415.595	6.26
415.801	6.27
416.007	6.35
416.214	6.42
416.42	6.07
416.626	5.88
416.832	5.67
417.038	6.04
417.244	6.07
417.45	5.63
417.657	5.71
417.863	5.84
418.069	5.87
418.275	5.75
418.481	5.82
418.687	5.88
418.893	5.83
419.099	5.88
419.305	5.5
419.511	5.41
419.717	5.34
419.923	5.35
420.129	5.33
420.335	5.38
420.541	5.36
420.746	5.39
420.952	5.36
421.158	5.45
421.364	5.18
421.57	5.24
421.776	5.16
421.982	5.35
422.187	5.29
422.393	5.28
422.599	5.26
422.805	5.14
423.01	5.14
423.216	5.04
423.422	5.06
423.628	5.32
423.833	5.24
424.039	5.28
424.245	5.25
424.45	5.27
424.656	5.14
424.862	5.02
425.067	5.11
425.273	5.2
425.478	5.28
425.684	5.05
425.889	4.99
426.095	5.23
426.301	5.19
426.506	4.94
426.712	4.96
426.917	5.12
427.123	4.96
427.328	5.03
427.533	4.86
427.739	5.03
427.944	5.37
428.15	5.42
428.355	5.14
428.561	5.41
428.766	5.53
428.971	5.57
429.177	5.49
429.382	5.53
429.587	5.49
429.793	5.61
429.998	5.44
430.203	5.28
430.408	5.35
430.614	5.43
430.819	5.14
431.024	5.03
431.229	4.92
431.434	4.97
431.64	5.23
431.845	5.19
432.05	5.28
432.255	5.16
432.46	5.14
432.665	4.98
432.87	4.85
433.076	4.89
433.281	5.12
433.486	5.02
433.691	4.95
433.896	4.95
434.101	4.8
434.306	4.66
434.511	4.77
434.716	4.7
434.921	4.82
435.126	5.03
435.331	5.02
435.535	4.94
435.74	5.03
435.945	4.99
436.15	4.83
436.355	5.16
436.56	5.26
436.765	5.28
436.97	5.28
437.174	5.26
437.379	5.18
437.584	5.39
437.789	5.32
437.993	5.22
438.198	5.22
438.403	5.21
438.608	5.14
438.812	4.98
439.017	4.81
439.222	4.75
439.426	4.73
439.631	4.63
439.836	4.54
440.04	4.57
440.245	4.6
440.45	4.71
440.654	4.68
440.859	4.47
441.063	4.65
441.268	4.84
441.472	4.9
441.677	4.66
441.881	4.58
442.086	4.55
442.29	4.44
442.495	4.53
442.699	4.45
442.904	4.42
443.108	4.66
443.312	4.54
443.517	4.54
443.721	4.5
443.925	4.69
444.13	4.92
444.334	4.72
444.538	4.86
444.743	4.82
444.947	4.81
445.151	4.95
445.356	4.84
445.56	4.96
445.764	4.77
445.968	4.86
446.173	4.83
446.377	4.76
446.581	4.93
446.785	4.89
446.989	4.77
447.193	4.74
447.398	4.68
447.602	4.42
447.806	4.26
448.01	4.4
448.214	4.32
448.418	4.2
448.622	4.22
448.826	4.14
449.03	4.19
449.234	4.24
449.438	4.15
449.642	4.11
449.846	4.65
450.05	4.62
450.254	4.5
450.458	4.48
450.662	4.61
450.866	4.62
451.069	4.62
451.273	4.54
451.477	4.54
451.681	4.64
451.885	4.68
452.089	4.63
452.292	4.46
452.496	4.39
452.7	4.58
452.904	4.77
453.107	4.83
453.311	4.83
453.515	5.01
453.719	5.04
453.922	5.11
454.126	5.15
454.33	4.89
454.533	4.98
454.737	5.09
454.94	4.93
455.144	4.9
455.348	4.72
455.551	4.82
455.755	4.57
455.958	4.67
456.162	4.56
456.365	4.42
456.569	4.37
456.772	4.45
456.976	4.51
457.179	4.57
457.383	4.33
457.586	4.27
457.79	4.14
457.993	4.33
458.196	4.24
458.4	4.52
458.603	4.49
458.807	4.47
459.01	4.52
459.213	4.37
459.417	4.33
459.62	4.33
459.823	4.4
460.026	4.39
460.23	4.14
460.433	4.08
460.636	3.81
460.839	3.77
461.042	3.71
461.246	3.65
461.449	3.67
461.652	3.65
461.855	3.75
462.058	3.74
462.261	3.88
462.464	3.9
462.668	3.94
462.871	4.18
463.074	4.2
463.277	4.33
463.48	4.21
463.683	4.37
463.886	4.32
464.089	4.32
464.292	4.22
464.495	4.05
464.698	4.12
464.901	4.19
465.104	3.99
465.306	3.71
465.509	3.72
465.712	4.18
465.915	4.15
466.118	4.14
466.321	4.19
466.524	4.16
466.726	4.23
466.929	4.16
467.132	4.03
467.335	4.23
467.538	4.54
467.74	4.55
467.943	4.21
468.146	4.06
468.348	4.2
468.551	3.97
468.754	3.98
468.956	3.9
469.159	3.94
469.362	4.02
469.564	3.92
469.767	3.93
469.969	3.88
470.172	3.97
470.375	4.04
470.577	4.13
470.78	4.18
470.982	4.2
471.185	4.18
471.387	4.37
471.59	4.46
471.792	4.48
471.995	4.57
472.197	4.69
472.399	4.58
472.602	4.54
472.804	4.32
473.007	4.36
473.209	4.51
473.411	4.66
473.614	4.74
473.816	4.79
474.018	4.6
474.22	4.57
474.423	4.44
474.625	4.52
474.827	4.51
475.03	4.53
475.232	4.5
475.434	4.51
475.636	4.5
475.838	4.34
476.04	4.24
476.243	4.53
476.445	4.65
476.647	4.78
476.849	4.74
477.051	4.73
477.253	5.08
477.455	4.96
477.657	4.77
477.859	4.54
478.061	4.29
478.263	4.15
478.465	4.01
478.667	3.79
478.869	3.65
479.071	3.68
479.273	3.53
479.475	3.2
479.677	3.28
479.879	3.34
480.081	3.43
480.283	3.53
480.485	3.61
480.686	3.84
480.888	3.99
481.09	3.92
481.292	3.89
481.494	4.11
481.695	4.14
481.897	4.11
482.099	4.09
482.301	4.08
482.502	4.1
482.704	4.05
482.906	3.79
483.107	3.67
483.309	3.65
483.511	3.66
483.712	3.63
483.914	3.64
484.115	3.63
484.317	3.57
484.519	3.56
484.72	3.54
484.922	3.54
485.123	3.58
485.325	3.64
485.526	3.72
485.728	3.66
485.929	3.62
486.131	3.54
486.332	3.62
486.534	3.66
486.735	3.69
486.936	3.72
487.138	3.73
487.339	3.76
487.541	3.76
487.742	3.78
487.943	3.82
488.144	3.86
488.346	3.9
488.547	3.85
488.748	3.92
488.95	3.91
489.151	3.93
489.352	3.96
489.553	3.95
489.755	3.93
489.956	3.76
490.157	3.82
490.358	3.72
490.559	3.64
490.76	3.64
490.961	3.57
491.163	3.62
491.364	3.62
491.565	3.6
491.766	3.59
491.967	3.6
492.168	3.72
492.369	3.7
492.57	3.76
492.771	3.87
492.972	3.94
493.173	3.94
493.374	3.94
493.575	3.95
493.776	3.93
493.976	4.01
494.177	4.03
494.378	3.97
494.579	4.03
494.78	4.06
494.981	4.04
495.182	4.04
495.382	4.22
495.583	4.17
495.784	4.14
495.985	4.34
496.185	4.22
496.386	4.28
496.587	4.38
496.788	4.46
496.988	4.28
497.189	4.3
497.39	4.29
497.59	4.2
497.791	4.11
497.992	4.16
498.192	4.03
498.393	4.21
498.593	4.22
498.794	4.35
498.994	4.4
499.195	4.62
499.395	4.7
499.596	4.68
499.796	4.74
499.997	5.05
500.197	4.95
500.398	5.04
500.598	4.8
500.799	4.87
500.999	4.76
501.199	4.47
501.4	4.53
501.6	4.39
501.801	4.4
502.001	4.38
502.201	4.27
502.402	4.47
502.602	4.4
502.802	4.7
503.002	4.63
503.203	4.52
503.403	4.75
503.603	4.75
503.803	4.83
504.003	4.98
504.204	5.05
504.404	5.18
504.604	5.13
504.804	5.45
505.004	5.33
505.204	5.34
505.404	5.51
505.604	5.47
505.804	5.38
506.005	5.42
506.205	5.26
506.405	5.32
506.605	5.22
506.805	5.35
507.005	5.2
507.204	5.2
507.404	5.2
507.604	5.35
507.804	5.4
508.004	5.58
508.204	5.54
508.404	5.57
508.604	5.53
508.804	5.62
509.003	5.61
509.203	5.66
509.403	5.74
509.603	5.79
509.803	5.72
510.002	5.82
510.202	5.91
510.402	6.06
510.602	6.1
510.801	6.12
511.001	6.09
511.201	6.13
511.4	6.17
511.6	6.31
511.8	6.35
511.999	6.61
512.199	6.41
512.398	6.36
512.598	6.38
512.797	6.65
512.997	6.79
513.197	6.9
513.396	7
513.596	7.06
513.795	7.21
513.994	7.31
514.194	7.24
514.393	7.5
514.593	7.69
514.792	7.86
514.992	7.93
515.191	8.01
515.39	8.15
515.59	8.21
515.789	8.34
515.988	8.32
516.188	8.48
516.387	8.58
516.586	8.74
516.786	8.62
516.985	8.66
517.184	8.71
517.383	8.86
517.582	8.89
517.782	8.87
517.981	8.91
518.18	8.87
518.379	9.03
518.578	9.02
518.777	9.11
518.976	9.28
519.176	9.38
519.375	9.31
519.574	9.26
519.773	9.28
519.972	9.49
520.171	9.65
520.37	9.79
520.569	9.79
520.768	9.94
520.967	10.05
521.166	10.17
521.365	10.24
521.564	10.58
521.762	10.83
521.961	11.07
522.16	11.1
522.359	11.09
522.558	11.27
522.757	11.42
522.956	11.46
523.154	11.54
523.353	11.64
523.552	11.71
523.751	11.74
523.949	11.79
524.148	11.8
524.347	11.94
524.546	12.03
524.744	12.23
524.943	12.28
525.142	12.39
525.34	12.45
525.539	12.55
525.737	12.74
525.936	12.79
526.135	12.9
526.333	13.04
526.532	12.96
526.73	13.04
526.929	13.11
527.127	13.22
527.326	13.34
527.524	13.54
527.723	13.63
527.921	13.66
528.12	13.79
528.318	13.84
528.516	13.92
528.715	14.08
528.913	14.15
529.112	14.2
529.31	14.23
529.508	14.3
529.707	14.26
529.905	14.33
530.103	14.39
530.301	14.39
530.5	14.51
530.698	14.57
530.896	14.72
531.094	14.9
531.293	15
531.491	15.17
531.689	15.28
531.887	15.45
532.085	15.45
532.283	15.44
532.481	15.5
532.68	15.59
532.878	15.75
533.076	15.86
533.274	15.74
533.472	15.74
533.67	15.81
533.868	15.88
534.066	15.85
534.264	15.96
534.462	16.11
534.66	16.26
534.858	16.27
535.056	16.38
535.253	16.41
535.451	16.66
535.649	16.85
535.847	16.96
536.045	17.09
536.243	17.4
536.441	17.48
536.638	17.62
536.836	17.68
537.034	17.84
537.232	17.81
537.43	17.83
537.627	17.87
537.825	18.1
538.023	18.1
538.22	18.29
538.418	18.35
538.616	18.42
538.813	18.54
539.011	18.72
539.209	18.73
539.406	18.92
539.604	19.28
539.801	19.46
539.999	19.4
540.196	19.5
540.394	19.51
540.591	19.37
540.789	19.46
540.986	19.44
541.184	19.59
541.381	19.64
541.579	19.63
541.776	19.53
541.974	19.51
542.171	19.55
542.368	19.55
542.566	19.51
542.763	19.6
542.96	19.69
543.158	19.88
543.355	19.97
543.552	20.09
543.75	20.28
543.947	20.41
544.144	20.68
544.341	20.78
544.539	20.98
544.736	21.09
544.933	21.16
545.13	21.24
545.327	21.14
545.524	20.99
545.722	21.14
545.919	21.04
546.116	21.08
546.313	20.94
546.51	21.09
546.707	20.99
546.904	21.15
547.101	21.32
547.298	21.38
547.495	21.51
547.692	21.62
547.889	21.54
548.086	21.58
548.283	21.67
548.48	21.78
548.677	21.67
548.874	21.77
549.07	21.84
549.267	21.95
549.464	21.94
549.661	22.01
549.858	22.05
550.055	22.33
550.251	22.49
550.448	22.52
550.645	22.62
550.842	22.81
551.038	23.07
551.235	23.12
551.432	23.25
551.628	23.42
551.825	23.54
552.022	23.7
552.218	23.43
552.415	23.58
552.612	23.63
552.808	23.76
553.005	23.89
553.201	23.87
553.398	24
553.594	24.07
553.791	24.27
553.987	24.29
554.184	24.27
554.38	24.44
554.577	24.51
554.773	24.66
554.97	24.66
555.166	24.78
555.362	24.79
555.559	24.87
555.755	24.84
555.952	24.65
556.148	24.96
556.344	25.28
556.541	25.4
556.737	25.1
556.933	25.15
557.129	25.19
557.326	25.17
557.522	25.41
557.718	25.47
557.914	25.45
558.11	25.42
558.307	25.19
558.503	24.83
558.699	25.03
558.895	25.46
559.091	25.67
559.287	25.98
559.483	25.94
559.679	25.76
559.876	25.56
560.072	25.69
560.268	26.03
560.464	25.94
560.66	26.24
560.856	26.33
561.052	26.25
561.247	26.25
561.443	25.98
561.639	26.07
561.835	26.29
562.031	26.56
562.227	26.68
562.423	26.58
562.619	26.82
562.815	26.84
563.01	27.17
563.206	27.24
563.402	27.14
563.598	27.2
563.793	27.4
563.989	27.45
564.185	27.39
564.381	27.26
564.576	27.51
564.772	27.43
564.968	27.43
565.163	27
565.359	27.01
565.555	27.17
565.75	27.49
565.946	27.38
566.141	27.37
566.337	27.5
566.532	27.67
566.728	27.33
566.923	27.43
567.119	27.48
567.314	27.63
567.51	27.72
567.705	27.62
567.901	27.52
568.096	27.39
568.292	27.46
568.487	27.31
568.682	27.12
568.878	27.5
569.073	27.49
569.268	27.39
569.464	27.43
569.659	27.42
569.854	27.3
570.05	27.26
570.245	27.74
570.44	27.92
570.635	27.96
570.831	28.16
571.026	28.08
571.221	28.22
571.416	28.22
571.611	28.25
571.806	28.25
572.002	28.39
572.197	28.41
572.392	28.06
572.587	27.93
572.782	28.13
572.977	28.08
573.172	28.18
573.367	28.04
573.562	28.31
573.757	28.28
573.952	28.16
574.147	28.22
574.342	28.26
574.537	28.36
574.732	28.28
574.927	28.54
575.121	28.68
575.316	28.63
575.511	28.84
575.706	28.72
575.901	28.72
576.096	29.03
576.29	29.05
576.485	29.16
576.68	29.37
576.875	29.41
577.069	29.19
577.264	29.17
577.459	29.13
577.654	29.2
577.848	29.12
578.043	29.43
578.238	29.42
578.432	29.55
578.627	29.47
578.821	29.55
579.016	29.83
579.21	29.74
579.405	29.8
579.6	30.11
579.794	30.24
579.989	30.4
580.183	30.45
580.378	30.48
580.572	30.75
580.766	30.86
580.961	30.9
581.155	30.74
581.35	31.04
581.544	30.96
581.738	31.07
581.933	30.65
582.127	30.93
582.321	30.7
582.516	30.56
582.71	30.2
582.904	30.41
583.099	30.34
583.293	30.37
583.487	30.23
583.681	30.41
583.875	30.21
584.07	30.64
584.264	30.69
584.458	30.68
584.652	30.76
584.846	31.16
585.04	30.93
585.234	30.94
585.428	31.14
585.623	31.25
585.817	31.29
586.011	31.19
586.205	31.08
586.399	31.12
586.593	31.24
586.787	31.54
586.981	31.13
587.174	31.1
587.368	31.05
587.562	31.25
587.756	31.22
587.95	31
588.144	31.04
588.338	30.96
588.532	30.85
588.725	30.96
588.919	30.88
589.113	30.96
589.307	31.25
589.501	31.2
589.694	31.13
589.888	31.03
590.082	31.08
590.275	31.14
590.469	31.25
590.663	31.23
590.856	31.07
591.05	31.29
591.244	31.3
591.437	31.48
591.631	31.6
591.824	31.23
592.018	31.45
592.212	31.72
592.405	31.92
592.599	32.15
592.792	32.06
592.986	32.07
593.179	31.86
593.372	31.91
593.566	31.54
593.759	31.59
593.953	31.78
594.146	31.66
594.339	31.52
594.533	31.56
594.726	31.25
594.92	31.27
595.113	31.4
595.306	31.36
595.499	31.47
595.693	31.78
595.886	31.98
596.079	32.02
596.272	32.05
596.466	32.13
596.659	32.16
596.852	32.28
597.045	32.58
597.238	32.52
597.431	32.45
597.624	32.49
597.818	32.25
598.011	32.12
598.204	31.96
598.397	31.87
598.59	31.94
598.783	31.84
598.976	31.95
599.169	31.7
599.362	31.7
599.555	31.79
599.748	31.92
599.941	32.06
600.134	32.08
600.326	32.52
600.519	32.9
600.712	33.18
600.905	33.43
601.098	33.36
601.291	33.46
601.483	33.53
601.676	33.59
601.869	33.33
602.062	33.23
602.255	33.25
602.447	33.19
602.64	32.95
602.833	32.58
603.025	32.48
603.218	32.57
603.411	32.49
603.603	32.28
603.796	32.34
603.989	32.12
604.181	32.07
604.374	32.11
604.566	32.13
604.759	31.98
604.951	32.15
605.144	32.08
605.336	32.3
605.529	32.32
605.721	32.56
605.914	32.48
606.106	32.78
606.299	32.91
606.491	32.8
606.683	32.73
606.876	32.87
607.068	32.73
607.26	32.78
607.453	32.41
607.645	32.3
607.837	32.28
608.03	32.31
608.222	32.2
608.414	32.32
608.606	32.23
608.799	32.34
608.991	32.54
609.183	32.64
609.375	32.79
609.567	32.73
609.759	32.89
609.952	32.84
610.144	33.01
610.336	33.14
610.528	33.15
610.72	33.41
610.912	33.54
611.104	33.66
611.296	33.69
611.488	33.66
611.68	34.02
611.872	33.85
612.064	34.2
612.256	34.3
612.448	34.44
612.64	34.3
612.832	34.48
613.023	34.28
613.215	34.41
613.407	34.34
613.599	34.18
613.791	34.23
613.983	34.23
614.174	33.85
614.366	33.58
614.558	33.37
614.75	33.86
614.941	33.5
615.133	33.66
615.325	33.48
615.516	33.87
615.708	33.84
615.9	33.76
616.091	34.03
616.283	34.3
616.475	34.3
616.666	34.63
616.858	34.3
617.049	34.32
617.241	34.09
617.432	34.16
617.624	33.97
617.815	33.79
618.007	33.79
618.198	33.97
618.39	33.93
618.581	34.38
618.773	34.03
618.964	33.94
619.155	33.79
619.347	34.02
619.538	33.72
619.729	33.41
619.921	33.67
620.112	33.88
620.303	33.79
620.494	33.94
620.686	33.39
620.877	33.79
621.068	33.66
621.259	33.87
621.451	33.86
621.642	33.68
621.833	34.18
622.024	34.15
622.215	33.68
622.406	33.25
622.597	33.04
622.788	33.15
622.98	32.71
623.171	32.81
623.362	32.9
623.553	33.16
623.744	33.52
623.935	33.18
624.126	33.29
624.317	33.59
624.508	33.85
624.698	33.96
624.889	34.05
625.08	34.8
625.271	34.92
625.462	34.81
625.653	34.37
625.844	34.14
626.034	34.1
626.225	34.2
626.416	33.87
626.607	33.79
626.798	33.64
626.988	33.62
627.179	33.34
627.37	33.05
627.56	33.16
627.751	33.39
627.942	33.49
628.132	33.37
628.323	33.05
628.514	33.41
628.704	33.44
628.895	33.63
629.085	33.5
629.276	33.32
629.466	33.79
629.657	33.63
629.847	33.61
630.038	34.01
630.228	34.37
630.419	34.82
630.609	34.79
630.8	34.91
630.99	35.01
631.181	35.38
631.371	35.53
631.561	35.48
631.752	35.65
631.942	35.72
632.132	35.19
632.323	34.88
632.513	34.93
632.703	34.73
632.893	34.94
633.084	34.58
633.274	34.53
633.464	34.37
633.654	34.38
633.844	34.32
634.034	34.12
634.225	34.09
634.415	34.46
634.605	34.33
634.795	34.46
634.985	34.48
635.175	34.76
635.365	34.72
635.555	34.86
635.745	34.65
635.935	34.96
636.125	34.89
636.315	35.26
636.505	34.89
636.695	34.71
636.885	34.41
637.075	34.38
637.265	34.22
637.455	34.41
637.644	34.45
637.834	34.61
638.024	34.42
638.214	34.51
638.404	34.65
638.593	34.72
638.783	34.77
638.973	35.06
639.163	34.89
639.352	34.73
639.542	34.48
639.732	34.26
639.921	34.26
640.111	34.54
640.301	34.8
640.49	34.79
640.68	35
640.87	34.68
641.059	34.59
641.249	34.74
641.438	34.88
641.628	35.11
641.817	35.57
642.007	35.7
642.196	35.52
642.386	35.46
642.575	35.59
642.764	35.62
642.954	35.52
643.143	35.61
643.333	35.88
643.522	36.28
643.711	35.97
643.901	35.43
644.09	35.54
644.279	35.59
644.469	35.22
644.658	35.24
644.847	34.99
645.036	35.44
645.226	35.38
645.415	34.98
645.604	34.14
645.793	34.33
645.982	34.22
646.171	33.81
646.361	33.42
646.55	33.88
646.739	33.71
646.928	33.61
647.117	33.82
647.306	33.7
647.495	33.38
647.684	33.88
647.873	33.72
648.062	34.3
648.251	34.54
648.44	34.5
648.629	34.25
648.818	33.95
649.007	33.89
649.196	33.59
649.384	33.81
649.573	34.1
649.762	33.7
649.951	33.76
650.14	33.66
650.328	33.41
650.517	33.26
650.706	33.32
650.895	33.57
651.083	34.51
651.272	34.92
651.461	35.15
651.65	35.15
651.838	35.85
652.027	36.02
652.216	35.55
652.404	35.65
652.593	36.31
652.781	36.01
652.97	36.11
653.158	35.38
653.347	35.32
653.535	34.89
653.724	34.8
653.912	34.98
654.101	34.78
654.289	35.48
654.478	35.76
654.666	35.38
654.855	36.13
655.043	36.1
655.231	36.41
655.42	36.3
655.608	36.84
655.796	37.16
655.985	36.61
656.173	36.58
656.361	36.42
656.55	36.16
656.738	36.39
656.926	36.17
657.114	36.09
657.302	35.98
657.491	36.37
657.679	36
657.867	36.07
658.055	36.38
658.243	36.59
658.431	36.72
658.619	36.88
658.807	37.14
658.996	37.12
659.184	37.19
659.372	37.37
659.56	37.19
659.748	37.06
659.936	37.13
660.124	37.08
660.311	37.01
660.499	37.07
660.687	37.01
660.875	36.63
661.063	36.59
661.251	36.26
661.439	36.01
661.627	36.14
661.814	36.06
662.002	35.62
662.19	35.74
662.378	35.78
662.565	35.69
662.753	35.45
662.941	36.09
663.129	35.86
663.316	36.34
663.504	36.65
663.692	36.51
663.879	37.21
664.067	37.5
664.254	36.81
664.442	37.09
664.63	37.2
664.817	37.96
665.005	37.35
665.192	37.76
665.38	37.88
665.567	37.41
665.755	37.64
665.942	36.95
666.13	37.19
666.317	37.54
666.504	37.28
666.692	37.08
666.879	36.53
667.067	36.39
667.254	36.63
667.441	35.94
667.629	36.58
667.816	36.26
668.003	36.25
668.19	36.06
668.378	36.43
668.565	36.52
668.752	36.21
668.939	36.13
669.127	36.23
669.314	35.68
669.501	36.28
669.688	35.88
669.875	36.28
670.062	36.72
670.249	36.32
670.436	36.49
670.623	36.43
670.81	36.62
670.997	37.01
671.184	37.01
671.371	37.54
671.558	36.63
671.745	37.07
671.932	36.24
672.119	35.94
672.306	36.52
672.493	36.07
672.68	36.09
672.867	36.31
673.054	36.18
673.24	35.94
673.427	35.63
673.614	36.62
673.801	36.49
673.988	37.07
674.174	37.27
674.361	36.83
674.548	36.75
674.734	36.6
674.921	36.08
675.108	36.1
675.294	36.28
675.481	36.34
675.668	36.53
675.854	36.49
676.041	36.4
676.227	36.48
676.414	36.97
676.601	37.26
676.787	36.88
676.974	37.39
677.16	37.11
677.347	37.84
677.533	37.94
677.719	37.79
677.906	37.91
678.092	38.21
678.279	38.03
678.465	38
678.651	37.71
678.838	38.3
679.024	37.96
679.21	37.74
679.397	37.45
679.583	37.2
679.769	36.72
679.955	36.35
680.142	35.75
680.328	36.03
680.514	35.66
680.7	35.65
680.886	35.6
681.073	35.97
681.259	36.62
681.445	36.57
681.631	36.47
681.817	36.87
682.003	37.03
682.189	37.41
682.375	37.08
682.561	37.56
682.747	37.25
682.933	36.89
683.119	36.47
683.305	36.06
683.491	35.85
683.677	36.58
683.863	35.76
684.049	35.93
684.235	35.63
684.42	35.84
684.606	35.31
684.792	36.34
684.978	37.17
685.164	37.26
685.349	37.7
685.535	37.61
685.721	36.78
685.907	37.3
686.092	37.08
686.278	37.67
686.464	37.47
686.649	37.83
686.835	37.34
687.021	37.53
687.206	37.63
687.392	37.29
687.577	37.55
687.763	37.94
687.948	38.21
688.134	38.26
688.319	38.46
688.505	38.63
688.69	38.67
688.876	39.05
689.061	38.32
689.247	38.58
689.432	38.72
689.618	38.45
689.803	38.37
689.988	38.29
690.174	38.57
690.359	37.97
690.544	38.15
690.73	37.94
690.915	37.37
691.1	37.53
691.285	37.7
691.471	37.81
691.656	37.91
691.841	37.75
692.026	37.42
692.211	37.12
692.396	37.08
692.582	37.5
692.767	37.65
692.952	38
693.137	37.87
693.322	37.49
693.507	37.64
693.692	37.35
693.877	37.55
694.062	37.8
694.247	38.01
694.432	38.64
694.617	37.58
694.802	37.86
694.987	37.67
695.172	38.07
695.357	38.14
695.541	37.54
695.726	38.13
695.911	37.76
696.096	37.54
696.281	37.35
696.466	37.19
696.65	37.76
696.835	37.45
697.02	36.94
697.204	37.23
697.389	36.75
697.574	36.81
697.759	36.4
697.943	36.64
698.128	36.95
698.312	37.37
698.497	37.12
698.682	37.44
698.866	37.51
699.051	37.53
699.235	37.23
699.42	37.48
699.604	37.72
699.789	37.9
699.973	37.72
700.158	37.65
700.342	36.95
700.527	37.22
700.711	37.04
700.895	37.21
701.08	37.48
701.264	37.3
701.448	37.47
701.633	37.67
701.817	38.19
702.001	38.87
702.186	38.83
702.37	38.78
702.554	38.65
702.738	38.03
702.923	37.98
703.107	37.98
703.291	38.25
703.475	38.58
703.659	37.98
703.843	37.42
704.027	37.1
704.212	37.07
704.396	38.26
704.58	38.77
704.764	39.29
704.948	39
705.132	39.36
705.316	39.44
705.5	39.34
705.684	39.66
705.868	39.72
706.052	40.1
706.235	41.02
706.419	40.35
706.603	39.72
706.787	39.03
706.971	38.57
707.155	38.55
707.339	38.12
707.522	38.27
707.706	38.16
707.89	38.04
708.074	37.88
708.257	36.78
708.441	37.49
708.625	37.85
708.808	37.79
708.992	38.28
709.176	38.1
709.359	38.05
709.543	37.77
709.727	37.6
709.91	38.64
710.094	38.02
710.277	38.38
710.461	38.03
710.644	38.02
710.828	39.14
711.011	38.57
711.195	38.69
711.378	38.93
711.562	38.46
711.745	37.86
711.928	36.66
712.112	36.7
712.295	37.08
712.478	37.08
712.662	37.19
712.845	36.9
713.028	36.96
713.212	36.92
713.395	36.84
713.578	37.14
713.761	38.37
713.945	38.88
714.128	39.62
714.311	39.37
714.494	38.75
714.677	38
714.86	37.45
715.043	38.23
715.227	38.22
715.41	38.55
715.593	38.53
715.776	38.69
715.959	37.91
716.142	37.71
716.325	37.53
716.508	37.81
716.691	37.9
716.874	38.16
717.057	37.49
717.239	37.73
717.422	37.38
717.605	37.53
717.788	36.58
717.971	38.02
718.154	38.19
718.337	38.65
718.519	38.52
718.702	39.11
718.885	39.37
719.068	39.69
719.25	40.06
719.433	40.85
719.616	41.51
719.798	42.46
719.981	42.29
720.164	42.05
720.346	42.27
720.529	44.08
720.712	43.87
720.894	43.99
721.077	44.11
721.259	44.34
721.442	44.78
721.624	44.3
721.807	44.08
721.989	44.22
722.172	44.12
722.354	44.25
722.537	43.01
722.719	43.01
722.901	42.87
723.084	42.46
723.266	41.88
723.448	41.31
723.631	40.96
723.813	40.64
723.995	39.34
724.178	40.12
724.36	39.19
724.542	38.14
724.724	38.98
724.907	38.2
725.089	39.4
725.271	39.5
725.453	38.92
725.635	39.2
725.817	39.72
725.999	41.14
726.181	41.08
726.364	41.63
726.546	42.13
726.728	41.56
726.91	41.82
727.092	41.45
727.274	41.83
727.456	41.46
727.638	40.82
727.819	41.08
728.001	40.27
728.183	40.07
728.365	39.61
728.547	39.38
728.729	38.93
728.911	39.85
729.093	39.48
729.274	38.09
729.456	38.48
729.638	39.01
729.82	38.48
730.001	38.26
730.183	38.15
730.365	37.89
730.546	38.5
730.728	38.69
730.91	37.75
731.091	38.07
731.273	38.95
731.455	39.38
731.636	39.34
731.818	39.18
731.999	39
732.181	38.67
732.362	39
732.544	39.09
732.725	38.16
732.907	38.55
733.088	38.05
733.27	38.84
733.451	37.91
733.633	38.51
733.814	38.38
733.995	38.6
734.177	39.32
734.358	39.36
734.539	39.25
734.721	40.68
734.902	40.74
735.083	41.22
735.264	40.08
735.446	41.57
735.627	40.48
735.808	40.46
735.989	41.18
736.17	40.72
736.351	41.18
736.533	40.84
736.714	40.75
736.895	40.69
737.076	39.91
737.257	40.09
737.438	38.46
737.619	39.35
737.8	39.57
737.981	39.85
738.162	39.56
738.343	39.62
738.524	39.1
738.705	39.46
738.886	39.3
739.067	39.93
739.247	40.01
739.428	39.94
739.609	39.78
739.79	40.69
739.971	40.35
740.151	40.67
740.332	39.93
740.513	40.05
740.694	38.81
740.874	38.17
741.055	37.97
741.236	37.75
741.417	38.17
741.597	38.5
741.778	37.6
741.958	35.49
742.139	34.38
742.32	34.35
742.5	35.53
742.681	35.6
742.861	37.06
743.042	36.5
743.222	36.41
743.403	36.86
743.583	36.36
743.764	35.95
743.944	38.02
744.124	39
744.305	39.73
744.485	38.48
744.666	39.59
744.846	39.84
745.026	40.91
745.207	41.53
745.387	41.81
745.567	41.43
745.747	41.89
745.928	40.35
746.108	40.19
746.288	39.23
746.468	40.58
746.648	40.14
746.829	40.38
747.009	39.95
747.189	38.65
747.369	37.61
747.549	37.4
747.729	37.98
747.909	39.53
748.089	40.45
748.269	40.17
748.449	40.86
748.629	41.35
748.809	39.82
748.989	39.79
749.169	40.83
749.349	42.38
749.529	41.8
749.709	41.29
749.889	41.27
750.068	40.88
750.248	42.28
750.428	41.37
750.608	41.11
750.788	41.67
750.967	41.35
751.147	40.37
751.327	39.4
751.507	40.38
751.686	40.49
751.866	40.31
752.046	40.46
752.225	40.2
752.405	39.6
752.585	38.7
752.764	38.45
752.944	39.29
753.123	41.4
753.303	41.94
753.482	41.77
753.662	42.43
753.841	43.09
754.021	41.77
754.2	42.01
754.38	43
754.559	43.62
754.739	44
754.918	43.61
755.097	41.98
755.277	40.48
755.456	40.57
755.635	40.45
755.815	39.89
755.994	41.27
756.173	39.93
756.352	38.83
756.532	39.05
756.711	38.13
756.89	38.83
757.069	39.62
757.248	39.34
757.427	38.88
757.607	39
757.786	38.52
757.965	37.18
758.144	37.54
758.323	38.88
758.502	39.31
758.681	39.86
758.86	39.42
759.039	39.18
759.218	40.38
759.397	40.57
759.576	38.99
759.755	39.14
759.934	39.52
760.113	40.49
760.291	39.1
760.47	39.15
760.649	39.35
760.828	39.46
761.007	38.28
761.186	38.73
761.364	39.23
761.543	40.87
761.722	40.76
761.901	39.92
762.079	40
762.258	40.64
762.437	40.03
762.615	40.02
762.794	39.69
762.972	40.73
763.151	39.52
763.33	38.32
763.508	37.68
763.687	37.92
763.865	39.36
764.044	38.91
764.222	38.38
764.401	38.82
764.579	38.72
764.758	38.59
764.936	39.31
765.114	40.25
765.293	41.21
765.471	41.73
765.65	41.94
765.828	41.25
766.006	41.72
766.184	42.45
766.363	41.49
766.541	40.91
766.719	41.38
766.898	40.3
767.076	40.69
767.254	41.05
767.432	40.82
767.61	40.86
767.788	41.46
767.967	39.92
768.145	39.66
768.323	40.33
768.501	41.17
768.679	40.46
768.857	40.38
769.035	41.11
769.213	42
769.391	41.58
769.569	40.9
769.747	41.14
769.925	43.54
770.103	44.29
770.281	42.57
770.459	43.38
770.636	44.43
770.814	45.78
770.992	44.64
771.17	43.72
771.348	43.56
771.525	45.4
771.703	45.1
771.881	43.51
772.059	43.67
772.236	44.35
772.414	44.56
772.592	43.91
772.769	43.11
772.947	43.22
773.125	43.91
773.302	46.17
773.48	45.89
773.657	46.17
773.835	44.91
774.013	45.33
774.19	46.86
774.368	44.23
774.545	45.63
774.723	45.54
774.9	46.67
775.077	45.04
775.255	42.55
775.432	43.51
775.61	42.4
775.787	44.94
775.964	43.24
776.142	42.89
776.319	44.4
776.496	43.85
776.674	43.48
776.851	42.16
777.028	42.93
777.205	44.51
777.382	43.39
777.56	42.99
777.737	46.59
777.914	47.92
778.091	47.25
778.268	45.93
778.445	46.03
778.622	44.97
778.8	44.74
778.977	45.5
779.154	49.61
779.331	49.86
779.508	49.11
779.685	44.58
779.862	45.7
780.038	46.42
780.215	50.55
780.392	51.24
780.569	52.57
780.746	53.65
780.923	53.18
781.1	48.2
781.277	47.35
781.453	47.12
781.63	45.61
781.807	45.25
781.984	44.87
782.16	43.64
782.337	43.67
782.514	42.55
782.691	41.53
782.867	41.99
783.044	44.47
783.221	45.27
783.397	47.94
783.574	48.47
783.75	47.78
783.927	50.28
784.103	50.13
784.28	48.22
784.456	48.06
784.633	49.99
784.809	50.29
784.986	44.7
785.162	44.39
785.339	42.17
785.515	42.03
785.692	40.23
785.868	39.6
786.044	40.35
786.221	40.53
786.397	42.9
786.573	41.44
786.749	41.09
786.926	44.67
787.102	45.03
787.278	46.82
787.454	50.28
787.631	51.19
787.807	50.01
787.983	49.52
788.159	52.47
788.335	51.75
788.511	51.57
788.687	51.52
788.863	52.92
789.039	52.99
789.216	51.55
789.392	49.13
789.568	47.72
789.744	48.55
789.919	47.6
790.095	45.33
790.271	44.98
790.447	46.09
790.623	46.52
790.799	43.93
790.975	43.17
791.151	44.06
791.327	45.06
791.502	47.49
791.678	47.63
791.854	49.17
792.03	47.88
792.205	47.62
792.381	45.26
792.557	41.23
792.733	42.67
792.908	41.51
793.084	42.18
793.259	41.37
793.435	40.51
793.611	40.48
793.786	37.65
793.962	38.31
794.137	37.19
794.313	38.4
794.488	43.21
794.664	43.74
794.839	43.8
795.015	44.29
795.19	44.84
795.366	44.6
795.541	42.81
795.716	41.06
795.892	40.51
796.067	41.56
796.242	43.63
796.418	40.81
796.593	39.82
796.768	40.13
796.944	39.78
797.119	38.74
797.294	40.24
797.469	41.29
797.644	43.66
797.82	44.64
797.995	45.07
798.17	43.09
798.345	43.77
798.52	43.71
798.695	45.09
798.87	42.95
799.045	44.33
799.22	41.34
799.395	43.08
799.57	44.92
799.745	45.34
799.92	44.66
800.095	45.46
800.27	45.3
800.445	43.97
800.62	41.61
800.795	42.01
800.97	43.01
801.145	42.96
801.319	40.57
801.494	39.11
801.669	40.75
801.844	43.92
802.018	42.04
802.193	40.64
802.368	42.09
802.543	44.99
802.717	48.31
802.892	45.26
803.067	49.41
803.241	51.38
803.416	49.55
803.59	48.97
803.765	47.55
803.94	49.22
804.114	48.88
804.289	51.92
804.463	47.62
804.638	43.78
804.812	45.21
804.986	43.23
805.161	44.85
805.335	46.05
805.51	44.01
805.684	43.31
805.858	43.36
806.033	46.44
806.207	43.23
806.381	47.58
806.556	49.49
806.73	48.46
806.904	48.61
807.078	46.26
807.253	45.93
807.427	47.13
807.601	46.63
807.775	45.75
807.949	46.2
808.123	47.15
808.298	46.86
808.472	45.64
808.646	46.37
808.82	45.16
808.994	41.26
809.168	43.31
809.342	42.54
809.516	42.66
809.69	44.04
809.864	43.23
810.038	44.8
810.212	43.96
810.385	43.54
810.559	45.38
810.733	46.5
810.907	49.65
811.081	44.71
811.255	45.82
811.428	46.52
811.602	43.83
811.776	39.99
811.95	39.94
812.123	36.56
812.297	41.18
812.471	39.43
812.644	39.75
812.818	43.24
812.992	51.39
813.165	52.4
813.339	51.7
813.512	55.31
813.686	56.93
813.86	57.35
814.033	58
814.207	56.62
814.38	54.64
814.554	53.79
814.727	47.59
814.9	46.02
815.074	43.49
815.247	42.94
815.421	40.21
815.594	42.87
815.767	39.68
815.941	41.3
816.114	42.72
816.287	44.85
816.46	46.11
816.634	46.52
816.807	46.49
816.98	47.01
817.153	45.54
817.327	46.58
817.5	43.69
817.673	45.6
817.846	48.23
818.019	49.06
818.192	50.46
818.365	48.26
818.538	50.39
818.711	50.11
818.884	46.71
819.057	46.11
819.23	44.97
819.403	44.83
819.576	45.57
819.749	43.49
819.922	40.48
820.095	40.46
820.268	40.31
820.441	42.06
820.614	40.35
820.786	42.16
820.959	43.8
821.132	42.58
821.305	41.15
821.477	39.42
821.65	39.64
821.823	40.17
821.996	39.49
822.168	39.58
822.341	38.48
822.514	38.34
822.686	37.53
822.859	37.63
823.031	37.65
823.204	37.71
823.376	37.95
823.549	37.52
823.722	37.22
823.894	37.53
824.067	37.38
824.239	37.76
824.411	37.58
824.584	38.14
824.756	37.83
824.929	38.08
825.101	38.64
825.273	39.08
825.446	39.61
825.618	39.83
825.79	39.4
825.963	38.74
826.135	38.57
826.307	38.35
826.479	38.72
826.652	39.08
826.824	39.79
826.996	39.66
827.168	39.26
827.34	39.08
827.512	39.04
827.684	39.9
827.856	40.47
828.029	40.6
828.201	40.35
828.373	40.34
828.545	39.32
828.717	38.75
828.889	38.47
829.061	38.27
829.232	37.89
829.404	38.69
829.576	38.08
829.748	38.59
829.92	40.33
830.092	43.49
830.264	44.78
830.436	45.8
830.607	46.38
830.779	48.28
830.951	48.42
831.123	48.27
831.294	47.61
831.466	47.13
831.638	47.97
831.809	44.91
831.981	42.68
832.153	41.63
832.324	41.74
832.496	41.15
832.667	42.27
832.839	46.19
833.011	47.12
833.182	44.69
833.354	43.1
833.525	41.29
833.697	41.26
833.868	39.51
834.039	40.08
834.211	39.72
834.382	40.14
834.554	38.22
834.725	36.1
834.896	35.87
835.068	36.33
835.239	37.23
835.41	38.32
835.581	38.25
835.753	39.66
835.924	39.05
836.095	38.34
836.266	36.7
836.438	36.39
836.609	36.04
836.78	35.06
836.951	37.76
837.122	38.75
837.293	39.02
837.464	39.61
837.635	42.42
837.806	39.55
837.977	42.54
838.148	45.96
838.319	48.19
838.49	49.95
838.661	51.38
838.832	55.15
839.003	53.6
839.174	54.44
839.345	60.65
839.516	57.91
839.687	64.33
839.857	62.75
840.028	62.64
840.199	61.72
840.37	63.92
840.54	70.2
840.711	64.97
840.882	68.16
841.053	67.87
841.223	66.73
841.394	72.64
841.564	75.99
841.735	83.44
841.906	81.87
842.076	82.58
842.247	76.54
842.417	70.72
842.588	70.5
842.758	71.27
842.929	74.78
843.099	71.74
843.27	67.77
843.44	64.51
843.611	62.38
843.781	65.79
843.951	61.15
844.122	63.55
844.292	55.22
844.462	61.77
844.633	61.82
844.803	56.52
844.973	53.83
845.144	52.73
845.314	51.38
845.484	46.87
845.654	42.6
845.824	48.84
845.995	46.64
846.165	55.69
846.335	52.51
846.505	49.02
846.675	48.67
846.845	53.95
847.015	55.34
847.185	59.45
847.355	47.8
847.525	56.94
847.695	60.13
847.865	60.93
848.035	58.52
848.205	50.05
848.375	55.89
848.545	59.51
848.715	57.04
848.884	50.97
849.054	48.17
849.224	60.98
849.394	63.72
849.564	64.73
849.733	69.09
849.903	67.1
850.073	69.78
850.243	71.28
850.412	78.06
850.582	74.55
850.752	80.14
850.921	71.63
851.091	80.86
851.26	84.4
851.43	72.89
851.599	71.74
851.769	63.76
851.939	67.65
852.108	61.78
852.278	61.92
852.447	66
852.616	59.7
852.786	64.13
852.955	58.12
853.125	54.03
853.294	51.36
853.463	49.07
853.633	52.16
853.802	47.56
853.971	57.16
854.141	54.89
854.31	66.12
854.479	71.8
854.648	85.37
854.818	73.02
854.987	66.37
855.156	66.99
855.325	67.2
855.494	80.5
855.663	80.51
855.832	82.95
856.001	75.65
856.171	60.78
856.34	57.07
856.509	54.79
856.678	67.55
856.847	71.8
857.016	78.97
857.185	81.59
857.353	85.42
857.522	89.4
857.691	69.82
857.86	68.5
858.029	69.09
858.198	73.52
858.367	80.39
858.535	63.95
858.704	76.31
858.873	80.31
859.042	69.72
859.21	69.85
859.379	59.83
859.548	53.98
859.717	57.78
859.885	69.66
860.054	65.69
860.222	47.02
860.391	51.09
860.56	50.95
860.728	58.35
860.897	61.35
861.065	55.39
861.234	63.14
861.402	59.25
861.571	56.65
861.739	56.88
861.908	51.72
862.076	68.23
862.244	66.89
862.413	67.3
862.581	60.57
862.749	58.89
862.918	58.92
863.086	56.61
863.254	68.14
863.423	81.31
863.591	61.67
863.759	65.72
863.927	57.96
864.096	62.66
864.264	52.43
864.432	50.46
864.6	54.65
864.768	57.58
864.936	60.25
865.104	57.79
865.272	55.81
865.44	69.45
865.608	80.57
865.776	84.51
865.944	83.18
866.112	90.97
866.28	101.92
866.448	107.48
866.616	119.3
866.784	110.24
866.952	108.07
867.12	121.15
867.288	119.84
867.455	122.95
867.623	116.43
867.791	127.01
867.959	121.04
868.127	89.39
868.294	73.52
868.462	62.8
868.63	62.17
868.797	74.53
868.965	46.08
869.133	36.13
869.3	36.37
869.468	49.31
869.636	42.9
869.803	44.83
869.971	46.4
870.138	49.46
870.306	50.62
870.473	55.56
870.641	45.23
870.808	51.91
870.975	57.13
871.143	52.6
871.31	38.72
871.478	29.19
871.645	30.19
871.812	44.11
871.98	46.6
872.147	38.4
872.314	34.37
872.482	40.42
872.649	47.36
872.816	48.58
872.983	57.73
873.15	77.36
873.318	87.77
873.485	103.18
873.652	95.39
873.819	102.17
873.986	114.68
874.153	121.86
874.32	129.17
874.487	129.65
874.654	143.77
874.821	150.99
874.988	138.77
875.155	151.7
875.322	111.14
875.489	118.64
875.656	92.56
875.823	79.54
875.99	65.08
876.157	58.96
876.324	61.77
876.49	64.57
876.657	57.85
876.824	58.08
876.991	52.15
877.157	54.92
877.324	64.06
877.491	63.77
877.658	65.04
877.824	63.39
877.991	69.69
878.157	76.36
878.324	72.26
878.491	72.58
878.657	73.59
878.824	80.91
878.99	76.38
879.157	72.27
879.323	74.23
879.49	73.5
879.656	80.08
879.823	82.73
879.989	76.23
880.156	83.08
880.322	83.05
880.488	73.3
880.655	63.03
880.821	65.55
880.987	70.47
881.154	71.32
881.32	74.08
881.486	72.65
881.652	67.27
881.819	63.97
881.985	56.05
882.151	53.04
882.317	52.76
882.483	55.3
882.649	56.33
882.816	51.37
882.982	49.05
883.148	46.42
883.314	45.56
883.48	44.71
883.646	43.83
883.812	45.62
883.978	48
884.144	47.65
884.31	49.01
884.476	47.74
884.642	47.59
884.807	46.92
884.973	45.08
885.139	45.6
885.305	46.28
885.471	46.53
885.637	47.23
885.802	44.27
885.968	45.56
886.134	42.81
886.3	41.81
886.465	42.33
886.631	44.13
886.797	50.99
886.962	49.99
887.128	50.16
887.293	55.06
887.459	48.06
887.625	54.78
887.79	56.58
887.956	53.42
888.121	55.69
888.287	57.39
888.452	59.87
888.618	51.87
888.783	51.8
