Data from CB_078_Reflection_3.txt Node
Date: Sat Nov 14 11:40:27 EST 2015
User: robert
Spectrometer: USB4E03001
Autoset integration time: false
Trigger mode: 4
Integration Time (sec): 1.000000E-1
Scans to average: 15
Electric dark correction enabled: true
Nonlinearity correction enabled: false
Boxcar width: 5
Stray light correction enabled: false
XAxis mode: Wavelengths
Stop averaging: false
Number of Pixels in Spectrum: 3648
>>>>>Begin Spectral Data<<<<<
177.566	-302.1
177.785	-582.56
178.005	-2215.25
178.225	-392.35
178.445	-293.32
178.665	-615.56
178.885	158.73
179.105	-133.54
179.324	-223.53
179.544	-431.75
179.764	-170.21
179.984	-181.66
180.204	-207.98
180.423	-880.26
180.643	-423.04
180.863	-585.42
181.083	-2748.96
181.302	-11293.65
181.522	1201.21
181.742	1067.08
181.961	1101.86
182.181	158.31
182.401	141.9
182.621	245.14
182.84	923.26
183.06	-2558.64
183.279	-393.14
183.499	-302.58
183.719	-448.98
183.938	-272.61
184.158	-213.83
184.377	-213.38
184.597	-123.05
184.816	-64.23
185.036	-120.39
185.256	-147.32
185.475	-439.32
185.695	-220.1
185.914	-163.27
186.134	-104.45
186.353	-111.95
186.572	-168.47
186.792	-363.15
187.011	1713.03
187.231	-1686.69
187.45	-355.51
187.67	-1558.53
187.889	517.11
188.108	319.72
188.328	251.09
188.547	190.24
188.766	125.39
188.986	82.75
189.205	87.64
189.424	103.23
189.644	97.26
189.863	122.91
190.082	126.22
190.302	163.54
190.521	96.39
190.74	89.37
190.959	253.59
191.178	291.64
191.398	445.8
191.617	1125.29
191.836	3813.44
192.055	864.88
192.274	209.36
192.494	315.16
192.713	13501.79
192.932	-1523.21
193.151	293025
193.37	428.9
193.589	-11937.17
193.808	-905.57
194.027	-1892.87
194.246	4007.37
194.465	-2438.91
194.685	641.7
194.904	591.2
195.123	382.7
195.342	389.9
195.561	336.89
195.78	986.23
195.999	2385.69
196.218	963.65
196.436	414.94
196.655	231.1
196.874	128.26
197.093	308.56
197.312	298.9
197.531	483.41
197.75	598.88
197.969	1639.92
198.188	305.79
198.407	196.34
198.625	249.82
198.844	328.74
199.063	422.64
199.282	760.06
199.501	-3766.02
199.719	-1508.35
199.938	697.44
200.157	341.28
200.376	-2314.37
200.594	-159.9
200.813	-588.11
201.032	-1548.81
201.251	-700.8
201.469	-911.86
201.688	-2091.6
201.907	3569.78
202.125	1104.97
202.344	4254.1
202.563	22092.75
202.781	1097.35
203	343.41
203.218	257.35
203.437	367.16
203.656	288.16
203.874	569.45
204.093	507.68
204.311	321.21
204.53	1092.22
204.748	276.75
204.967	374.98
205.185	289.49
205.404	335.68
205.622	492.78
205.841	301.76
206.059	248.7
206.278	252.61
206.496	360.15
206.715	426.42
206.933	270.45
207.151	372.73
207.37	230.77
207.588	270.83
207.806	293.86
208.025	328.04
208.243	298.99
208.461	-16227.27
208.68	162.27
208.898	31.73
209.116	91.7
209.335	81.74
209.553	4.19
209.771	55.42
209.989	106.85
210.208	122.77
210.426	112.03
210.644	116
210.862	110.96
211.081	125.75
211.299	110.32
211.517	137.85
211.735	112.24
211.953	101.17
212.171	104.71
212.39	78.53
212.608	78.14
212.826	66.27
213.044	82.11
213.262	81.78
213.48	73.54
213.698	106.21
213.916	59.52
214.134	119.96
214.352	229.95
214.57	175.73
214.788	164.86
215.006	123.15
215.224	275.46
215.442	551.84
215.66	1258.76
215.878	390.09
216.096	160.32
216.314	546.43
216.532	1882.74
216.75	-519.3
216.968	-610.55
217.185	-4746.9
217.403	1466.88
217.621	-73322.22
217.839	-440.51
218.057	-15102.08
218.275	-482.93
218.492	-48.39
218.71	-1068.63
218.928	830.3
219.146	559.89
219.363	363.75
219.581	404.03
219.799	-1480.69
220.017	178.67
220.234	236.77
220.452	198.67
220.67	241.46
220.887	169.51
221.105	295.56
221.323	195.39
221.54	168.41
221.758	168.29
221.976	146.5
222.193	100.44
222.411	126.67
222.629	115.39
222.846	117.7
223.064	109.54
223.281	114.19
223.499	110.99
223.716	96.35
223.934	75.69
224.151	74.32
224.369	77.74
224.586	93.8
224.804	105.76
225.021	117.15
225.239	129.52
225.456	119.82
225.674	103.87
225.891	103.43
226.108	101.85
226.326	92.5
226.543	80.43
226.76	67.97
226.978	64.03
227.195	57.44
227.413	47.3
227.63	47.05
227.847	51.8
228.064	45.64
228.282	41.56
228.499	40.49
228.716	36.82
228.934	38.3
229.151	40.12
229.368	33.48
229.585	30.83
229.802	28.28
230.02	24.69
230.237	22.03
230.454	22.51
230.671	22.93
230.888	23.35
231.105	24.34
231.323	23.63
231.54	23.51
231.757	30.81
231.974	38.63
232.191	41.5
232.408	38.01
232.625	32.54
232.842	28.78
233.059	24.93
233.276	24.63
233.493	18.86
233.71	18.97
233.927	16.29
234.144	12.01
234.361	7.55
234.578	7.69
234.795	7.12
235.012	12.36
235.229	7.38
235.446	10.3
235.663	15.83
235.879	21.46
236.096	22.6
236.313	32.03
236.53	27.24
236.747	33.68
236.964	30.13
237.181	37.34
237.397	35.77
237.614	53.63
237.831	62.6
238.048	56.04
238.264	51.43
238.481	51.12
238.698	46.14
238.915	54.04
239.131	42.69
239.348	43.1
239.565	41.06
239.781	40.03
239.998	32.74
240.215	25.07
240.431	23.44
240.648	26.25
240.865	26.5
241.081	25.53
241.298	23.61
241.514	27.83
241.731	28.52
241.947	27.11
242.164	25.37
242.38	21
242.597	19.47
242.814	19.15
243.03	21.12
243.246	21.02
243.463	19.47
243.679	18.99
243.896	18.1
244.112	15.5
244.329	15.64
244.545	16.53
244.762	18.13
244.978	20.54
245.194	17.68
245.411	14.56
245.627	13.53
245.843	15.41
246.06	15.18
246.276	13.48
246.492	15.06
246.709	14.81
246.925	14.47
247.141	15.05
247.357	14.03
247.574	15.53
247.79	14.8
248.006	14.31
248.222	14.29
248.439	13.45
248.655	13.83
248.871	13.75
249.087	13.56
249.303	13.73
249.519	14.8
249.736	16.15
249.952	16.41
250.168	21.84
250.384	24.77
250.6	23.19
250.816	25.48
251.032	24.71
251.248	22.87
251.464	22.63
251.68	20.15
251.896	17.45
252.112	16.93
252.328	16.03
252.544	12.6
252.76	10.55
252.976	9.72
253.192	7.96
253.408	7.25
253.624	9.08
253.84	9
254.056	11.39
254.272	13.2
254.487	16.19
254.703	14.05
254.919	13.82
255.135	13.05
255.351	16.44
255.567	16.31
255.782	20.9
255.998	17.43
256.214	16.14
256.43	14.68
256.646	15.1
256.861	13.79
257.077	15.56
257.293	16.77
257.508	16.78
257.724	15.63
257.94	13.72
258.155	12.75
258.371	11.67
258.587	11.28
258.802	11.06
259.018	10.63
259.234	10.35
259.449	9.84
259.665	9.48
259.88	9.89
260.096	9.68
260.312	9.88
260.527	9.38
260.743	10.2
260.958	10.14
261.174	11.1
261.389	11.78
261.605	11.02
261.82	10.66
262.036	10.23
262.251	10.25
262.466	10.45
262.682	10.12
262.897	10.86
263.113	10.97
263.328	11.44
263.543	11.48
263.759	10.8
263.974	12.59
264.189	12.8
264.405	13.05
264.62	14.52
264.835	12.87
265.051	17.06
265.266	15.29
265.481	15.42
265.696	18.97
265.912	16.71
266.127	15.86
266.342	14.69
266.557	15.38
266.773	13.76
266.988	11.78
267.203	13.87
267.418	12.48
267.633	13.84
267.848	12.98
268.064	9.56
268.279	10.47
268.494	9.07
268.709	8.93
268.924	9.89
269.139	10.73
269.354	11.46
269.569	9.6
269.784	9.69
269.999	8.87
270.214	9.56
270.429	11.45
270.644	11.32
270.859	11.76
271.074	11.93
271.289	11.89
271.504	12.11
271.719	11.74
271.934	12.33
272.149	11.11
272.363	13.16
272.578	10.95
272.793	9.45
273.008	8.75
273.223	8.4
273.438	7.27
273.653	6.47
273.867	6.21
274.082	6.58
274.297	7.1
274.512	9.04
274.726	6.75
274.941	7.3
275.156	10.08
275.371	10.42
275.585	12.39
275.8	13.91
276.015	13.31
276.229	14.06
276.444	14.62
276.659	14.9
276.873	13.98
277.088	16.4
277.302	18.67
277.517	15.61
277.732	15.38
277.946	13.09
278.161	14.11
278.375	13.71
278.59	12.44
278.804	10.15
279.019	10.58
279.233	9.73
279.448	6.32
279.662	6.25
279.877	7.36
280.091	7.24
280.306	8.63
280.52	5.44
280.735	6.3
280.949	6.92
281.163	9.18
281.378	7.29
281.592	8.43
281.806	7.59
282.021	6.87
282.235	7.11
282.449	8.35
282.664	7.38
282.878	8.84
283.092	8.33
283.307	8.21
283.521	6.59
283.735	7.93
283.949	8.1
284.164	9.17
284.378	8.99
284.592	8.64
284.806	8.66
285.02	10.31
285.234	8.85
285.449	8.68
285.663	10.98
285.877	11.42
286.091	10.68
286.305	10.48
286.519	11.35
286.733	11.71
286.947	12.36
287.161	12.59
287.375	10.85
287.589	13.34
287.803	14.37
288.017	12.36
288.231	12.57
288.445	12.92
288.659	12.91
288.873	13.78
289.087	13.58
289.301	14.45
289.515	13.94
289.729	14.88
289.943	14.36
290.157	14.91
290.371	14.77
290.584	15.01
290.798	16.09
291.012	15.64
291.226	13.8
291.44	13.73
291.654	12.63
291.867	12.07
292.081	11.99
292.295	12.71
292.509	13.07
292.722	12.58
292.936	10.44
293.15	9.32
293.364	7.78
293.577	8.81
293.791	9.88
294.005	8.57
294.218	9.01
294.432	9.08
294.645	8.53
294.859	7.35
295.073	8.52
295.286	9.83
295.5	9.12
295.713	9.59
295.927	8.96
296.14	7.87
296.354	8.75
296.568	8.38
296.781	8.11
296.994	8.46
297.208	8.3
297.421	7.56
297.635	7.9
297.848	8.06
298.062	8.17
298.275	7.97
298.489	8.64
298.702	8.82
298.915	8.74
299.129	9.65
299.342	9
299.555	10.2
299.769	11.24
299.982	11.56
300.195	12.91
300.409	13.31
300.622	14.44
300.835	12.89
301.048	13.1
301.262	13.93
301.475	13.47
301.688	13.3
301.901	12.35
302.115	12.32
302.328	12.56
302.541	11.67
302.754	12.51
302.967	12.09
303.18	13.31
303.393	13.13
303.607	13.1
303.82	13.8
304.033	14.06
304.246	14.03
304.459	13.69
304.672	13.68
304.885	13.4
305.098	13.6
305.311	13.42
305.524	12.79
305.737	12.53
305.95	12.65
306.163	12.27
306.376	12.19
306.589	12.52
306.802	12.39
307.015	12.74
307.228	13.53
307.44	12
307.653	11.67
307.866	12.84
308.079	13.36
308.292	11.68
308.505	12.29
308.718	12.48
308.93	12.62
309.143	13.49
309.356	13.01
309.569	12.07
309.781	13.61
309.994	14.97
310.207	15.17
310.42	15.32
310.632	15.55
310.845	14.28
311.058	13.61
311.27	12.65
311.483	12.07
311.696	11.53
311.908	11.3
312.121	11.1
312.333	11.65
312.546	10.28
312.759	9.55
312.971	10.02
313.184	11.69
313.396	12.68
313.609	14.02
313.821	14.96
314.034	15.48
314.246	15.87
314.459	16.74
314.671	15.23
314.884	16.84
315.096	17.31
315.309	18.8
315.521	18.69
315.733	17.78
315.946	16.32
316.158	15.22
316.371	15.24
316.583	14.31
316.795	12.94
317.008	14.11
317.22	13.26
317.432	13.66
317.644	11.99
317.857	11.16
318.069	11.51
318.281	13.24
318.494	13.25
318.706	13.37
318.918	15.04
319.13	14.69
319.342	13.6
319.555	13.18
319.767	13.32
319.979	13.83
320.191	14.42
320.403	14.98
320.615	15.72
320.827	16.65
321.039	16.94
321.252	17.54
321.464	17.77
321.676	17.19
321.888	17.76
322.1	17.06
322.312	16.41
322.524	16.17
322.736	14.49
322.948	13.92
323.16	13.91
323.372	14.8
323.584	14.18
323.796	14.18
324.007	14.39
324.219	16.06
324.431	17.65
324.643	19.57
324.855	20.47
325.067	21.36
325.279	21.05
325.491	21.23
325.702	21.17
325.914	21.45
326.126	22.24
326.338	20.91
326.55	20.59
326.761	19.6
326.973	19.67
327.185	19.51
327.396	21.31
327.608	21.05
327.82	21
328.032	20.47
328.243	20.61
328.455	21.43
328.666	23.73
328.878	24
329.09	24.76
329.301	23.41
329.513	23.03
329.725	21.89
329.936	24.43
330.148	24.72
330.359	26.85
330.571	27.75
330.782	26.98
330.994	28.41
331.205	28.36
331.417	28.93
331.628	29.87
331.84	31.29
332.051	32.48
332.262	31.65
332.474	31.64
332.685	31.83
332.897	31.98
333.108	32.47
333.319	30.91
333.531	31.34
333.742	31.01
333.953	30.44
334.165	30.22
334.376	30.69
334.587	29.96
334.799	29.67
335.01	28.33
335.221	28.17
335.432	26.76
335.644	27.68
335.855	27.3
336.066	27.65
336.277	28.7
336.488	27.67
336.7	26.73
336.911	27.6
337.122	28.63
337.333	28.72
337.544	28.77
337.755	31.74
337.966	31.64
338.177	31.49
338.388	30.52
338.599	30.43
338.811	30.97
339.022	30.69
339.233	30.29
339.444	29.04
339.655	27.94
339.866	28.71
340.076	26.92
340.287	26.52
340.498	26.69
340.709	27.4
340.92	26.88
341.131	26.4
341.342	27.4
341.553	26.97
341.764	28.54
341.975	29.17
342.185	28.66
342.396	29.23
342.607	29.53
342.818	28.74
343.029	28.6
343.239	28.49
343.45	28.55
343.661	28.01
343.872	27.64
344.082	26.68
344.293	27.71
344.504	27.87
344.714	27.5
344.925	27.59
345.136	28.85
345.346	27.82
345.557	27.91
345.768	28.01
345.978	29.27
346.189	29.19
346.399	28.64
346.61	28.28
346.821	28.15
347.031	28.44
347.242	27.86
347.452	26.87
347.663	27.55
347.873	28.39
348.084	27.79
348.294	26.69
348.504	26.92
348.715	28.08
348.925	27.7
349.136	26.18
349.346	25.14
349.557	25.23
349.767	26.58
349.977	27.44
350.188	26.85
350.398	27.82
350.608	27.25
350.819	27.96
351.029	27.18
351.239	28.53
351.449	30.42
351.66	30.65
351.87	30.93
352.08	29.93
352.29	29.26
352.501	29.19
352.711	29.02
352.921	29.17
353.131	28.78
353.341	29.2
353.552	27.27
353.762	26.56
353.972	26.97
354.182	27.01
354.392	27.2
354.602	27.4
354.812	27.79
355.022	26.91
355.232	27.28
355.442	27.31
355.652	26.84
355.862	27.79
356.072	28.42
356.282	27.39
356.492	27.92
356.702	27.62
356.912	26.7
357.122	27.06
357.332	26.98
357.542	26.34
357.752	26.83
357.962	27.59
358.171	27.06
358.381	26.54
358.591	26.97
358.801	26.4
359.011	26.38
359.221	27.29
359.43	27.44
359.64	27.61
359.85	27.78
360.06	27.41
360.269	26.97
360.479	27.3
360.689	27.22
360.899	27.59
361.108	27.72
361.318	27.64
361.528	27.07
361.737	26.24
361.947	26.45
362.156	26.44
362.366	26.26
362.576	26.59
362.785	26.16
362.995	26.09
363.204	25.82
363.414	25.87
363.623	26.08
363.833	26.63
364.042	26.66
364.252	26.7
364.461	26.41
364.671	26.55
364.88	25.82
365.09	26.89
365.299	27.2
365.509	27.63
365.718	26.53
365.927	26.1
366.137	25.69
366.346	26.02
366.555	25.71
366.765	26.31
366.974	26.35
367.183	25.46
367.393	23.67
367.602	23.34
367.811	22.48
368.021	23.36
368.23	23.27
368.439	23.71
368.648	23
368.857	23.06
369.067	22.71
369.276	22.44
369.485	23.16
369.694	24.39
369.903	24.45
370.112	24.83
370.321	24.57
370.531	24.44
370.74	24.46
370.949	24.77
371.158	24.34
371.367	24.1
371.576	23.76
371.785	23.37
371.994	23.04
372.203	22.84
372.412	22.4
372.621	22.29
372.83	22.33
373.039	21.68
373.248	21.34
373.457	22.06
373.666	21.6
373.874	21.37
374.083	21.83
374.292	21.63
374.501	21.86
374.71	22.01
374.919	21.69
375.128	21.96
375.336	22.29
375.545	22.87
375.754	22.46
375.963	22.4
376.171	22.2
376.38	22.03
376.589	21.11
376.798	20.28
377.006	20.57
377.215	20.85
377.424	20.76
377.632	20.07
377.841	19.73
378.05	19.79
378.258	20
378.467	19.9
378.675	19.8
378.884	20.48
379.093	20.66
379.301	20.48
379.51	20.25
379.718	20.2
379.927	20.43
380.135	20.08
380.344	19.55
380.552	20.13
380.761	20.23
380.969	19.9
381.177	19.58
381.386	20.04
381.594	19.49
381.803	19.33
382.011	19.12
382.219	19.15
382.428	19.13
382.636	19.22
382.845	17.9
383.053	18.08
383.261	18.43
383.469	18.63
383.678	18.3
383.886	18.62
384.094	18.77
384.302	18.86
384.511	18.88
384.719	18.96
384.927	19.09
385.135	19.83
385.343	19.33
385.552	19.14
385.76	19.2
385.968	18.74
386.176	18.4
386.384	17.87
386.592	17.1
386.8	16.94
387.008	16.78
387.216	16.59
387.424	16.5
387.633	16.51
387.841	16.59
388.049	16.84
388.257	17.08
388.465	16.62
388.672	16.82
388.88	17.23
389.088	16.87
389.296	16.65
389.504	16.48
389.712	16.27
389.92	16.28
390.128	16.09
390.336	15.85
390.544	15.44
390.751	15.87
390.959	15.99
391.167	15.73
391.375	15.94
391.583	15.97
391.79	15.67
391.998	15.96
392.206	16.08
392.414	15.67
392.621	15.49
392.829	15.83
393.037	15.68
393.244	15.32
393.452	15.47
393.66	15.36
393.867	15.27
394.075	15.27
394.283	14.96
394.49	14.53
394.698	14.71
394.905	14.5
395.113	14.44
395.32	14.1
395.528	14.1
395.735	13.84
395.943	13.76
396.15	13.79
396.358	13.83
396.565	13.59
396.773	13.83
396.98	13.97
397.188	14.04
397.395	13.99
397.602	14.34
397.81	14.32
398.017	14.44
398.225	14.87
398.432	14.58
398.639	14.6
398.847	14.59
399.054	14.63
399.261	14.35
399.468	14.14
399.676	14.23
399.883	13.92
400.09	14.3
400.297	14.24
400.505	13.48
400.712	13.62
400.919	14.1
401.126	13.77
401.333	13.53
401.54	13.47
401.748	13.39
401.955	13.18
402.162	13.25
402.369	13.07
402.576	12.93
402.783	12.99
402.99	13.03
403.197	12.28
403.404	12.54
403.611	12.72
403.818	12.6
404.025	12.77
404.232	13.03
404.439	12.9
404.646	12.5
404.853	12.72
405.06	12.37
405.267	12.5
405.474	12.91
405.681	13.03
405.887	12.94
406.094	13.33
406.301	13.38
406.508	13.13
406.715	13.54
406.922	13.79
407.128	13.75
407.335	14.05
407.542	13.76
407.749	13.39
407.955	13.43
408.162	13.41
408.369	13.24
408.575	13.32
408.782	13.45
408.989	12.88
409.195	12.57
409.402	12.82
409.609	12.78
409.815	12.54
410.022	12.74
410.228	12.49
410.435	12.71
410.642	12.71
410.848	12.42
411.055	12.45
411.261	12.75
411.468	13.11
411.674	12.62
411.881	12.77
412.087	13.06
412.294	13.01
412.5	13.33
412.706	13.06
412.913	12.73
413.119	12.82
413.326	12.67
413.532	12.49
413.738	12.57
413.945	12.31
414.151	12.56
414.357	12.64
414.564	12.54
414.77	12.37
414.976	12.23
415.182	12.72
415.389	12.67
415.595	12.31
415.801	12.23
416.007	12.41
416.214	12.55
416.42	12.21
416.626	11.77
416.832	11.84
417.038	11.76
417.244	11.92
417.45	11.53
417.657	11.29
417.863	11.32
418.069	11.47
418.275	11.12
418.481	11.04
418.687	11.08
418.893	11.18
419.099	11.17
419.305	11.02
419.511	10.85
419.717	10.71
419.923	10.86
420.129	10.87
420.335	10.94
420.541	10.98
420.746	11.02
420.952	11
421.158	11.09
421.364	11.02
421.57	11.05
421.776	11.1
421.982	11.38
422.187	11.32
422.393	11.27
422.599	11.25
422.805	11.14
423.01	11.31
423.216	11.29
423.422	11.37
423.628	11.51
423.833	11.46
424.039	11.39
424.245	11.29
424.45	11.27
424.656	11.38
424.862	11.19
425.067	11.15
425.273	11.06
425.478	11
425.684	10.79
425.889	10.79
426.095	10.77
426.301	10.78
426.506	10.71
426.712	10.83
426.917	10.79
427.123	10.82
427.328	10.91
427.533	10.68
427.739	10.88
427.944	11.03
428.15	10.78
428.355	10.93
428.561	11.08
428.766	11
428.971	10.96
429.177	10.84
429.382	10.69
429.587	10.76
429.793	10.91
429.998	10.8
430.203	10.74
430.408	10.97
430.614	10.98
430.819	10.63
431.024	10.68
431.229	10.61
431.434	10.75
431.64	10.87
431.845	10.94
432.05	11.11
432.255	11
432.46	11.06
432.665	10.83
432.87	10.68
433.076	10.76
433.281	10.86
433.486	10.69
433.691	10.5
433.896	10.49
434.101	10.33
434.306	10.12
434.511	10.17
434.716	10.1
434.921	10.22
435.126	10.35
435.331	10.44
435.535	10.35
435.74	10.32
435.945	10.28
436.15	10.46
436.355	10.66
436.56	10.7
436.765	10.82
436.97	10.62
437.174	10.6
437.379	10.37
437.584	10.54
437.789	10.45
437.993	10.65
438.198	10.79
438.403	10.78
438.608	10.71
438.812	10.67
439.017	10.57
439.222	10.71
439.426	10.73
439.631	10.82
439.836	10.77
440.04	10.91
440.245	10.82
440.45	10.91
440.654	10.72
440.859	10.5
441.063	10.56
441.268	10.63
441.472	10.63
441.677	10.46
441.881	10.5
442.086	10.49
442.29	10.29
442.495	10.45
442.699	10.38
442.904	10.46
443.108	10.89
443.312	11.01
443.517	10.99
443.721	10.94
443.925	10.96
444.13	10.9
444.334	10.73
444.538	10.93
444.743	10.74
444.947	10.77
445.151	10.89
445.356	10.67
445.56	10.57
445.764	10.44
445.968	10.51
446.173	10.5
446.377	10.5
446.581	10.55
446.785	10.46
446.989	10.47
447.193	10.47
447.398	10.39
447.602	10.21
447.806	10.21
448.01	10.31
448.214	10.26
448.418	10.14
448.622	10.08
448.826	10.04
449.03	10.16
449.234	10.21
449.438	10.11
449.642	9.96
449.846	10.33
450.05	10.44
450.254	10.33
450.458	10.22
450.662	10.52
450.866	10.57
451.069	10.65
451.273	10.6
451.477	10.7
451.681	10.73
451.885	10.85
452.089	10.85
452.292	10.54
452.496	10.68
452.7	10.86
452.904	10.74
453.107	10.72
453.311	10.6
453.515	10.57
453.719	10.43
453.922	10.56
454.126	10.47
454.33	10.21
454.533	10.11
454.737	10.12
454.94	9.9
455.144	10.23
455.348	10.21
455.551	10.31
455.755	10.29
455.958	10.46
456.162	10.33
456.365	10.39
456.569	10.31
456.772	10.39
456.976	10.49
457.179	10.66
457.383	10.33
457.586	10.51
457.79	10.35
457.993	10.22
458.196	10.02
458.4	9.94
458.603	9.88
458.807	9.93
459.01	10.09
459.213	9.96
459.417	10.02
459.62	9.95
459.823	9.84
460.026	9.91
460.23	9.89
460.433	9.84
460.636	9.88
460.839	9.89
461.042	9.92
461.246	9.93
461.449	10.01
461.652	9.88
461.855	9.89
462.058	9.95
462.261	9.93
462.464	9.82
462.668	9.9
462.871	10.09
463.074	9.98
463.277	9.92
463.48	9.75
463.683	9.78
463.886	9.77
464.089	10.05
464.292	9.74
464.495	9.61
464.698	9.85
464.901	10.04
465.104	9.89
465.306	9.96
465.509	10.03
465.712	10.24
465.915	10.17
466.118	10.12
466.321	9.99
466.524	10.09
466.726	10.31
466.929	10.37
467.132	10.11
467.335	10.09
467.538	10.12
467.74	10.07
467.943	9.96
468.146	9.87
468.348	9.82
468.551	9.76
468.754	9.88
468.956	10.09
469.159	9.97
469.362	10.12
469.564	10.21
469.767	10.17
469.969	10.19
470.172	10.08
470.375	10.16
470.577	10.45
470.78	10.51
470.982	10.51
471.185	10.28
471.387	10.36
471.59	10.27
471.792	10.39
471.995	10.62
472.197	10.6
472.399	10.91
472.602	10.81
472.804	10.69
473.007	10.55
473.209	10.48
473.411	10.47
473.614	10.59
473.816	10.67
474.018	10.37
474.22	10.48
474.423	10.62
474.625	10.37
474.827	10.53
475.03	10.5
475.232	10.61
475.434	10.67
475.636	10.64
475.838	10.5
476.04	10.54
476.243	10.79
476.445	10.65
476.647	10.69
476.849	10.74
477.051	10.57
477.253	10.85
477.455	10.74
477.657	10.71
477.859	10.68
478.061	10.64
478.263	10.49
478.465	10.26
478.667	9.95
478.869	9.76
479.071	9.75
479.273	9.65
479.475	9.43
479.677	9.6
479.879	9.58
480.081	9.55
480.283	9.49
480.485	9.51
480.686	9.67
480.888	9.98
481.09	10.08
481.292	10.02
481.494	10.13
481.695	10.04
481.897	10.02
482.099	9.97
482.301	10.07
482.502	10.09
482.704	10.09
482.906	9.97
483.107	9.82
483.309	9.75
483.511	9.75
483.712	9.78
483.914	9.79
484.115	9.74
484.317	9.77
484.519	9.72
484.72	9.74
484.922	9.68
485.123	9.65
485.325	9.7
485.526	9.75
485.728	9.78
485.929	9.8
486.131	9.76
486.332	9.81
486.534	9.81
486.735	9.83
486.936	9.85
487.138	9.88
487.339	9.88
487.541	9.86
487.742	9.83
487.943	9.83
488.144	9.82
488.346	9.82
488.547	9.79
488.748	9.82
488.95	9.82
489.151	9.87
489.352	9.98
489.553	10.11
489.755	10.08
489.956	10.14
490.157	10.17
490.358	10.04
490.559	10.11
490.76	10.13
490.961	10.08
491.163	10.17
491.364	10.08
491.565	9.98
491.766	10.05
491.967	10.12
492.168	10.11
492.369	10.06
492.57	10.14
492.771	10.24
492.972	10.22
493.173	10.3
493.374	10.3
493.575	10.35
493.776	10.42
493.976	10.34
494.177	10.56
494.378	10.53
494.579	10.7
494.78	10.81
494.981	10.75
495.182	10.89
495.382	10.93
495.583	10.83
495.784	10.8
495.985	11.02
496.185	11.07
496.386	10.79
496.587	10.92
496.788	10.85
496.988	10.67
497.189	10.75
497.39	10.64
497.59	10.53
497.791	10.51
497.992	10.53
498.192	10.4
498.393	10.31
498.593	10.48
498.794	10.43
498.994	10.52
499.195	10.54
499.395	10.45
499.596	10.59
499.796	10.78
499.997	11.03
500.197	11.1
500.398	11.19
500.598	11.02
500.799	11.15
500.999	11.13
501.199	11.05
501.4	11.27
501.6	11.3
501.801	11.17
502.001	11.13
502.201	10.87
502.402	10.94
502.602	10.95
502.802	11.26
503.002	11.09
503.203	11.33
503.403	11.44
503.603	11.38
503.803	11.49
504.003	11.65
504.204	11.59
504.404	11.84
504.604	11.87
504.804	12.08
505.004	12
505.204	12.09
505.404	11.91
505.604	11.97
505.804	11.95
506.005	12.01
506.205	12.01
506.405	12.18
506.605	12.11
506.805	12.29
507.005	12.14
507.204	12.4
507.404	12.32
507.604	12.66
507.804	12.75
508.004	12.89
508.204	12.82
508.404	12.88
508.604	12.75
508.804	12.86
509.003	12.83
509.203	12.78
509.403	12.68
509.603	12.95
509.803	12.9
510.002	12.93
510.202	12.95
510.402	13.15
510.602	13.11
510.801	13.36
511.001	13.42
511.201	13.51
511.4	13.65
511.6	13.83
511.8	13.85
511.999	14.05
512.199	13.84
512.398	13.99
512.598	13.92
512.797	14.3
512.997	14.36
513.197	14.34
513.396	14.52
513.596	14.73
513.795	14.86
513.994	14.9
514.194	14.87
514.393	15.2
514.593	15.23
514.792	15.42
514.992	15.35
515.191	15.37
515.39	15.53
515.59	15.42
515.789	15.47
515.988	15.52
516.188	15.6
516.387	15.79
516.586	16.07
516.786	16.03
516.985	16.15
517.184	16.3
517.383	16.53
517.582	16.65
517.782	16.65
517.981	16.75
518.18	16.73
518.379	16.91
518.578	16.82
518.777	16.92
518.976	17.13
519.176	17.27
519.375	17.14
519.574	17.14
519.773	17.21
519.972	17.6
520.171	17.8
520.37	18
520.569	18.04
520.768	18.37
520.967	18.37
521.166	18.56
521.365	18.71
521.564	19.15
521.762	19.35
521.961	19.5
522.16	19.39
522.359	19.39
522.558	19.38
522.757	19.57
522.956	19.51
523.154	19.35
523.353	19.47
523.552	19.46
523.751	19.52
523.949	19.6
524.148	19.76
524.347	19.94
524.546	20.1
524.744	20.36
524.943	20.41
525.142	20.51
525.34	20.9
525.539	20.97
525.737	21.12
525.936	21.2
526.135	21.28
526.333	21.29
526.532	21.4
526.73	21.42
526.929	21.51
527.127	21.61
527.326	21.73
527.524	21.82
527.723	22.03
527.921	22.2
528.12	22.26
528.318	22.36
528.516	22.53
528.715	22.58
528.913	22.63
529.112	22.66
529.31	22.72
529.508	22.81
529.707	22.83
529.905	22.92
530.103	22.9
530.301	23.01
530.5	23.08
530.698	23.09
530.896	23.25
531.094	23.5
531.293	23.68
531.491	23.84
531.689	23.95
531.887	24.09
532.085	24.06
532.283	24.14
532.481	24.25
532.68	24.43
532.878	24.52
533.076	24.59
533.274	24.58
533.472	24.61
533.67	24.63
533.868	24.68
534.066	24.82
534.264	24.85
534.462	24.82
534.66	24.92
534.858	24.9
535.056	25.11
535.253	25.13
535.451	25.2
535.649	25.42
535.847	25.56
536.045	25.69
536.243	25.88
536.441	26.04
536.638	26.28
536.836	26.39
537.034	26.55
537.232	26.51
537.43	26.58
537.627	26.71
537.825	26.84
538.023	26.95
538.22	27.17
538.418	27.12
538.616	27.19
538.813	27.17
539.011	27.26
539.209	27.29
539.406	27.47
539.604	27.71
539.801	27.9
539.999	27.93
540.196	28.03
540.394	27.94
540.591	28.02
540.789	28.13
540.986	28.28
541.184	28.36
541.381	28.46
541.579	28.39
541.776	28.33
541.974	28.32
542.171	28.35
542.368	28.39
542.566	28.38
542.763	28.38
542.96	28.44
543.158	28.56
543.355	28.63
543.552	28.71
543.75	28.92
543.947	29.07
544.144	29.29
544.341	29.33
544.539	29.46
544.736	29.73
544.933	29.85
545.13	29.92
545.327	29.92
545.524	29.91
545.722	29.9
545.919	29.88
546.116	29.91
546.313	29.81
546.51	29.98
546.707	30.11
546.904	30.05
547.101	30.1
547.298	30.2
547.495	30.26
547.692	30.25
547.889	30.25
548.086	30.34
548.283	30.54
548.48	30.61
548.677	30.56
548.874	30.51
549.07	30.64
549.267	30.91
549.464	30.81
549.661	30.99
549.858	31.16
550.055	31.41
550.251	31.42
550.448	31.48
550.645	31.46
550.842	31.61
551.038	31.52
551.235	31.75
551.432	31.55
551.628	31.73
551.825	31.91
552.022	32.05
552.218	32.08
552.415	32.13
552.612	32.24
552.808	32.48
553.005	32.52
553.201	32.72
553.398	32.78
553.594	33.1
553.791	33.13
553.987	33.16
554.184	33.27
554.38	33.32
554.577	33.44
554.773	33.44
554.97	33.38
555.166	33.48
555.362	33.39
555.559	33.44
555.755	33.43
555.952	33.62
556.148	33.62
556.344	33.45
556.541	33.69
556.737	33.79
556.933	33.97
557.129	34.03
557.326	34.08
557.522	34.16
557.718	34.42
557.914	34.47
558.11	34.45
558.307	34.39
558.503	34.5
558.699	34.64
558.895	34.81
559.091	34.67
559.287	35.01
559.483	35.15
559.679	35.15
559.876	34.99
560.072	34.92
560.268	35.05
560.464	35.03
560.66	34.95
560.856	35.01
561.052	34.96
561.247	34.94
561.443	34.78
561.639	34.66
561.835	35.09
562.031	35.12
562.227	35.2
562.423	35.14
562.619	35.29
562.815	35.64
563.01	35.68
563.206	35.7
563.402	35.79
563.598	35.91
563.793	36.24
563.989	36.01
564.185	35.99
564.381	36.09
564.576	36.39
564.772	36.45
564.968	36.36
565.163	36.36
565.359	36.27
565.555	36.35
565.75	36.49
565.946	36.36
566.141	36.52
566.337	36.56
566.532	36.63
566.728	36.54
566.923	36.53
567.119	36.54
567.314	36.49
567.51	36.64
567.705	36.69
567.901	36.68
568.096	36.63
568.292	36.77
568.487	36.82
568.682	36.89
568.878	36.99
569.073	37.15
569.268	37.2
569.464	37.41
569.659	37.44
569.854	37.44
570.05	37.41
570.245	37.86
570.44	37.74
570.635	37.77
570.831	37.78
571.026	37.74
571.221	37.97
571.416	37.94
571.611	37.8
571.806	37.81
572.002	38.03
572.197	38.03
572.392	37.68
572.587	37.82
572.782	37.96
572.977	37.98
573.172	38.07
573.367	37.8
573.562	38.02
573.757	38.26
573.952	38.22
574.147	38.08
574.342	38.09
574.537	38.13
574.732	37.84
574.927	38.01
575.121	38.09
575.316	38.04
575.511	38.17
575.706	38.33
575.901	38.12
576.096	38.39
576.29	38.33
576.485	38.37
576.68	38.66
576.875	38.83
577.069	38.5
577.264	38.43
577.459	38.6
577.654	38.73
577.848	38.51
578.043	38.6
578.238	38.74
578.432	38.88
578.627	39.04
578.821	39.09
579.016	39.12
579.21	39.43
579.405	39.61
579.6	39.55
579.794	39.44
579.989	39.58
580.183	39.66
580.378	39.29
580.572	39.64
580.766	39.68
580.961	39.33
581.155	39.22
581.35	39.56
581.544	39.41
581.738	39.84
581.933	39.79
582.127	39.83
582.321	39.8
582.516	40.05
582.71	39.9
582.904	39.99
583.099	40.5
583.293	40.89
583.487	40.79
583.681	41.11
583.875	40.8
584.07	41.16
584.264	41.25
584.458	41.42
584.652	41.42
584.846	41.41
585.04	41.28
585.234	41.18
585.428	41.16
585.623	41
585.817	40.9
586.011	40.9
586.205	40.76
586.399	40.83
586.593	40.65
586.787	40.84
586.981	40.77
587.174	41.05
587.368	41.22
587.562	41.4
587.756	41.35
587.95	41.31
588.144	41.33
588.338	41.52
588.532	41.6
588.725	41.88
588.919	41.94
589.113	42.02
589.307	41.95
589.501	41.48
589.694	41.46
589.888	41.63
590.082	41.63
590.275	41.56
590.469	41.58
590.663	41.44
590.856	41.14
591.05	41.07
591.244	40.99
591.437	41.14
591.631	41.4
591.824	41.12
592.018	40.94
592.212	41.05
592.405	41.28
592.599	41.02
592.792	40.97
592.986	41.26
593.179	41.02
593.372	41.17
593.566	40.95
593.759	41.11
593.953	41.26
594.146	41.38
594.339	41.46
594.533	41.5
594.726	41.57
594.92	41.74
595.113	41.52
595.306	41.74
595.499	41.82
595.693	41.92
595.886	41.95
596.079	42.19
596.272	42.35
596.466	42.37
596.659	42.43
596.852	42.63
597.045	42.58
597.238	42.67
597.431	42.71
597.624	42.79
597.818	42.76
598.011	42.75
598.204	42.65
598.397	42.58
598.59	42.57
598.783	42.55
598.976	42.59
599.169	42.34
599.362	42.48
599.555	42.36
599.748	42.4
599.941	42.44
600.134	42.37
600.326	42.28
600.519	42.5
600.712	42.81
600.905	43
601.098	43.05
601.291	43.59
601.483	43.76
601.676	43.82
601.869	43.45
602.062	43.48
602.255	43.84
602.447	43.83
602.64	43.58
602.833	43.22
603.025	42.99
603.218	42.77
603.411	42.6
603.603	42.39
603.796	42.29
603.989	42.37
604.181	42.36
604.374	42.12
604.566	42.39
604.759	42.31
604.951	42.17
605.144	42.23
605.336	42.51
605.529	42.63
605.721	42.57
605.914	42.8
606.106	42.85
606.299	43.01
606.491	43.1
606.683	42.76
606.876	42.88
607.068	43.23
607.26	43.11
607.453	42.48
607.645	42.34
607.837	42.47
608.03	42.51
608.222	42.54
608.414	42.57
608.606	42.71
608.799	42.99
608.991	43.26
609.183	43.5
609.375	43.63
609.567	43.86
609.759	44.16
609.952	44.12
610.144	44.23
610.336	44.25
610.528	44.17
610.72	44.1
610.912	44.02
611.104	43.91
611.296	43.66
611.488	44
611.68	44.37
611.872	44.15
612.064	44.63
612.256	44.55
612.448	45.01
612.64	45.18
612.832	45.43
613.023	45.41
613.215	45.49
613.407	45.31
613.599	44.96
613.791	44.99
613.983	44.98
614.174	44.72
614.366	44.8
614.558	44.63
614.75	44.62
614.941	44.22
615.133	44.14
615.325	44.41
615.516	44.74
615.708	44.99
615.9	44.87
616.091	44.82
616.283	44.81
616.475	44.35
616.666	44.14
616.858	44.2
617.049	44.33
617.241	44.48
617.432	44.19
617.624	44.02
617.815	43.5
618.007	43.25
618.198	43.45
618.39	43.55
618.581	44.14
618.773	43.82
618.964	43.93
619.155	44.08
619.347	43.77
619.538	43.81
619.729	44.01
619.921	44.39
620.112	44.39
620.303	44.19
620.494	44.13
620.686	43.97
620.877	44.41
621.068	44.26
621.259	43.89
621.451	44.41
621.642	44.16
621.833	44.08
622.024	43.99
622.215	43.91
622.406	43.92
622.597	44.04
622.788	43.85
622.98	43.51
623.171	43.48
623.362	43.77
623.553	43.82
623.744	44.01
623.935	43.84
624.126	44.01
624.317	44.23
624.508	44.15
624.698	44.2
624.889	44.48
625.08	45
625.271	45.3
625.462	45.14
625.653	44.92
625.844	44.85
626.034	44.76
626.225	44.9
626.416	44.57
626.607	44.82
626.798	44.75
626.988	44.47
627.179	44.4
627.37	43.93
627.56	44.19
627.751	44.37
627.942	44.51
628.132	44.4
628.323	44.24
628.514	44.57
628.704	44.4
628.895	44.34
629.085	44.26
629.276	44.3
629.466	44.89
629.657	44.84
629.847	44.68
630.038	44.92
630.228	45.43
630.419	45.31
630.609	45.5
630.8	45.35
630.99	45.45
631.181	45.94
631.371	45.93
631.561	45.36
631.752	45.34
631.942	45.79
632.132	45.52
632.323	45.53
632.513	45.71
632.703	45.4
632.893	45.62
633.084	45.48
633.274	45.51
633.464	45.19
633.654	45.49
633.844	45.42
634.034	44.99
634.225	44.68
634.415	44.2
634.605	44.27
634.795	44.32
634.985	44.36
635.175	44.42
635.365	44.28
635.555	44.5
635.745	44.45
635.935	44.64
636.125	44.66
636.315	45.11
636.505	45.52
636.695	45.4
636.885	45.34
637.075	45.41
637.265	45.3
637.455	45.56
637.644	45.77
637.834	45.65
638.024	45.49
638.214	45.76
638.404	45.61
638.593	45.67
638.783	45.56
638.973	45.56
639.163	45.48
639.352	45.19
639.542	44.93
639.732	44.82
639.921	45.08
640.111	45.28
640.301	45.15
640.49	45.37
640.68	45.63
640.87	45.55
641.059	45.97
641.249	46.36
641.438	46.6
641.628	46.61
641.817	46.69
642.007	46.65
642.196	46.69
642.386	46.84
642.575	46.85
642.764	46.32
642.954	46.23
643.143	46.48
643.333	46.09
643.522	46.44
643.711	46.21
643.901	45.95
644.09	46.11
644.279	46.16
644.469	46.15
644.658	45.81
644.847	45.77
645.036	46.16
645.226	45.91
645.415	45.98
645.604	45.53
645.793	45.83
645.982	45.62
646.171	45.32
646.361	44.82
646.55	45.06
646.739	45.01
646.928	45.21
647.117	45.3
647.306	45.11
647.495	45.13
647.684	45.69
647.873	45.7
648.062	45.97
648.251	45.61
648.44	45.93
648.629	45.21
648.818	45.6
649.007	45.74
649.196	45.56
649.384	45.41
649.573	45.49
649.762	45.25
649.951	45.22
650.14	45.2
650.328	45.7
650.517	45.33
650.706	45.78
650.895	45.47
651.083	45.9
651.272	46.07
651.461	46.13
651.65	46.01
651.838	45.9
652.027	45.67
652.216	45.79
652.404	45.6
652.593	46.12
652.781	46.19
652.97	46.34
653.158	45.5
653.347	45.53
653.535	45.34
653.724	45.21
653.912	46
654.101	46.09
654.289	46.11
654.478	46.2
654.666	46.08
654.855	45.95
655.043	46.15
655.231	46.16
655.42	46.42
655.608	47.15
655.796	47.61
655.985	47.09
656.173	46.71
656.361	46.86
656.55	46.74
656.738	46.64
656.926	46.39
657.114	46.35
657.302	46.69
657.491	46.02
657.679	45.7
657.867	45.53
658.055	45.45
658.243	45.75
658.431	45.63
658.619	45.85
658.807	46.44
658.996	46.42
659.184	46.37
659.372	46.23
659.56	46.68
659.748	46.74
659.936	46.77
660.124	46.9
660.311	46.98
660.499	47.04
660.687	46.68
660.875	46.07
661.063	46.38
661.251	46.54
661.439	46.97
661.627	46.82
661.814	46.61
662.002	46.44
662.19	46.75
662.378	46.8
662.565	46.9
662.753	47.37
662.941	47.58
663.129	47.42
663.316	47.28
663.504	46.9
663.692	46.75
663.879	47.04
664.067	46.89
664.254	46.47
664.442	46.63
664.63	46.68
664.817	47.06
665.005	46.8
665.192	47.43
665.38	47.63
665.567	47.87
665.755	48.09
665.942	48.13
666.13	48.54
666.317	48.35
666.504	48.14
666.692	47.65
666.879	46.93
667.067	47.34
667.254	47.19
667.441	46.88
667.629	46.95
667.816	46.55
668.003	46.52
668.19	46.78
668.378	47.25
668.565	47.49
668.752	47.28
668.939	47.75
669.127	47.4
669.314	46.9
669.501	47.08
669.688	46.8
669.875	47.3
670.062	47.09
670.249	46.6
670.436	46.31
670.623	46.2
670.81	46.58
670.997	46.47
671.184	46.54
671.371	47.37
671.558	47.11
671.745	47.13
671.932	46.43
672.119	46.16
672.306	46.59
672.493	46.27
672.68	46.17
672.867	47.14
673.054	47.29
673.24	47.1
673.427	46.2
673.614	46.47
673.801	46.85
673.988	47.46
674.174	48.27
674.361	47.93
674.548	47.91
674.734	48
674.921	46.96
675.108	46.83
675.294	46.9
675.481	46.96
675.668	46.85
675.854	46.84
676.041	46.9
676.227	46.62
676.414	46.94
676.601	47.23
676.787	47.32
676.974	47.59
677.16	47.44
677.347	47.95
677.533	48.25
677.719	48.35
677.906	47.74
678.092	47.7
678.279	47.86
678.465	47.73
678.651	47.6
678.838	47.41
679.024	47.01
679.21	46.24
679.397	45.64
679.583	45.63
679.769	45.35
679.955	45.71
680.142	45.64
680.328	45.76
680.514	45.42
680.7	45.45
680.886	45.38
681.073	45.5
681.259	46.04
681.445	46.8
681.631	46.44
681.817	46.78
682.003	46.63
682.189	46.72
682.375	46.12
682.561	46.53
682.747	46.21
682.933	46.24
683.119	46.43
683.305	46.81
683.491	46.53
683.677	46.93
683.863	46.29
684.049	46.2
684.235	46.05
684.42	46.53
684.606	46.44
684.792	47.24
684.978	47.12
685.164	46.88
685.349	47.09
685.535	47.11
685.721	46.81
685.907	47.2
686.092	47.58
686.278	47.75
686.464	47.66
686.649	47.37
686.835	47.19
687.021	47.84
687.206	47.98
687.392	47.55
687.577	47.71
687.763	47.93
687.948	48.02
688.134	47.56
688.319	47.48
688.505	47.2
688.69	47.34
688.876	46.96
689.061	46.46
689.247	46.71
689.432	46.37
689.618	45.82
689.803	45.89
689.988	46.18
690.174	46.37
690.359	46.21
690.544	46.23
690.73	46.28
690.915	46.48
691.1	46.48
691.285	46.83
691.471	47.18
691.656	47.55
691.841	47.3
692.026	47.01
692.211	47.15
692.396	46.85
692.582	47.5
692.767	47.62
692.952	47.68
693.137	47.59
693.322	47.21
693.507	47.82
693.692	47.47
693.877	47.67
694.062	47.57
694.247	48.34
694.432	48.55
694.617	48.12
694.802	48
694.987	48.18
695.172	48.56
695.357	48.28
695.541	47.54
695.726	47.97
695.911	48.72
696.096	48.77
696.281	48.59
696.466	48.92
696.65	49.13
696.835	49.55
697.02	48.94
697.204	49.23
697.389	48.98
697.574	49.3
697.759	48.8
697.943	48.13
698.128	48.24
698.312	48.05
698.497	47.61
698.682	47.39
698.866	47.2
699.051	47.79
699.235	47.47
699.42	47.64
699.604	47.48
699.789	47.74
699.973	47.86
700.158	47.79
700.342	47.45
700.527	48.05
700.711	48.05
700.895	48.21
701.08	48.1
701.264	48.02
701.448	47.89
701.633	48.27
701.817	48.44
702.001	48.61
702.186	48.75
702.37	49.15
702.554	49.25
702.738	49.83
702.923	49.54
703.107	49.16
703.291	49.59
703.475	50.1
703.659	49.46
703.843	49.21
704.027	48.69
704.212	47.83
704.396	48.38
704.58	48.45
704.764	47.29
704.948	47.69
705.132	47.52
705.316	47.82
705.5	48.13
705.684	48.11
705.868	48.61
706.052	49.3
706.235	50.66
706.419	50.28
706.603	50.42
706.787	50.72
706.971	50.79
707.155	51.21
707.339	49.92
707.522	49.33
707.706	49.07
707.89	48.69
708.074	49.07
708.257	48.25
708.441	48.29
708.625	48.29
708.808	48.12
708.992	47.7
709.176	47.84
709.359	48.2
709.543	47.95
709.727	48.14
709.91	47.98
710.094	47.18
710.277	47.86
710.461	48.06
710.644	47.47
710.828	47.91
711.011	47.41
711.195	47.96
711.378	48.22
711.562	48.02
711.745	48.13
711.928	48.2
712.112	48.23
712.295	47.48
712.478	46.9
712.662	47.45
712.845	47.44
713.028	47.49
713.212	46.97
713.395	47.3
713.578	48.03
713.761	48.29
713.945	48.26
714.128	48.68
714.311	48.77
714.494	48.31
714.677	47.35
714.86	47.2
715.043	47.6
715.227	47.52
715.41	47.3
715.593	47.17
715.776	46.8
715.959	46.46
716.142	46.48
716.325	46.41
716.508	47.11
716.691	47.53
716.874	48.14
717.057	48.04
717.239	48.32
717.422	47.92
717.605	47.9
717.788	47.98
717.971	49.53
718.154	49.16
718.337	49.96
718.519	49.42
718.702	49.75
718.885	48.75
719.068	49.17
719.25	48.98
719.433	49.24
719.616	49.39
719.798	49.98
719.981	49.15
720.164	49.58
720.346	49.24
720.529	50.43
720.712	50.36
720.894	51.61
721.077	51.46
721.259	51.56
721.442	52.3
721.624	52.91
721.807	52.61
721.989	51.8
722.172	51.21
722.354	51.55
722.537	50.46
722.719	49.8
722.901	48.35
723.084	48.12
723.266	47.92
723.448	47.51
723.631	46.72
723.813	47.36
723.995	47.42
724.178	47.88
724.36	47.02
724.542	47.09
724.724	48.75
724.907	49.95
725.089	51.41
725.271	51.59
725.453	51.65
725.635	51.17
725.817	51.37
725.999	52.1
726.181	52.75
726.364	53.59
726.546	53.48
726.728	52.39
726.91	51.52
727.092	49.91
727.274	50.17
727.456	50.23
727.638	50.11
727.819	50.34
728.001	50.26
728.183	48.99
728.365	48.72
728.547	48.79
728.729	48.62
728.911	50.18
729.093	50.77
729.274	49.03
729.456	48.23
729.638	49.23
729.82	49.07
730.001	48.31
730.183	48.86
730.365	48.17
730.546	48.52
730.728	48.48
730.91	47.24
731.091	46.98
731.273	48.26
731.455	49.21
731.636	48.49
731.818	48.03
731.999	47.9
732.181	47.52
732.362	47.77
732.544	48.15
732.725	47.61
732.907	48.6
733.088	48.93
733.27	49.77
733.451	49.37
733.633	49.63
733.814	49.26
733.995	49.56
734.177	50.5
734.358	50.42
734.539	49.44
734.721	50.13
734.902	49.36
735.083	49.22
735.264	47.47
735.446	48.04
735.627	47.38
735.808	47.53
735.989	48.7
736.17	47.96
736.351	48.86
736.533	49.32
736.714	49.41
736.895	48.22
737.076	47.07
737.257	48.71
737.438	47.13
737.619	48.52
737.8	49.01
737.981	48.51
738.162	48.45
738.343	47.74
738.524	48.18
738.705	48.29
738.886	48.82
739.067	50.24
739.247	49.15
739.428	49.6
739.609	48.41
739.79	49.08
739.971	49.01
740.151	49.81
740.332	49.8
740.513	49.7
740.694	49.56
740.874	49.64
741.055	49.15
741.236	49.44
741.417	49.89
741.597	50.14
741.778	49.07
741.958	47.84
742.139	46.62
742.32	47.01
742.5	47.24
742.681	48.16
742.861	48.97
743.042	49.17
743.222	47.37
743.403	46.77
743.583	48.11
743.764	49.56
743.944	49.93
744.124	50.75
744.305	50.7
744.485	49.74
744.666	48.37
744.846	48.91
745.026	48.98
745.207	51.32
745.387	52.12
745.567	51.22
745.747	49.15
745.928	49.42
746.108	49.19
746.288	48.94
746.468	49.06
746.648	49.37
746.829	49.12
747.009	49.25
747.189	49.24
747.369	49.37
747.549	48.17
747.729	49.11
747.909	48.41
748.089	48.74
748.269	48.45
748.449	49.42
748.629	50.51
748.809	49.36
748.989	49.13
749.169	48.98
749.349	49
749.529	50.02
749.709	50.21
749.889	51.35
750.068	49.62
750.248	51.1
750.428	51.26
750.608	49.65
750.788	49.87
750.967	49.62
751.147	48.33
751.327	48.02
751.507	47.49
751.686	47.23
751.866	47.54
752.046	49.48
752.225	49.24
752.405	48.7
752.585	49.59
752.764	51.17
752.944	50.97
753.123	52.72
753.303	53.03
753.482	54.47
753.662	54.76
753.841	54.13
754.021	53.2
754.2	52.64
754.38	52.86
754.559	53.46
754.739	52.41
754.918	52.63
755.097	50.76
755.277	49.96
755.456	48.62
755.635	48.57
755.815	49.23
755.994	50.22
756.173	49.33
756.352	48.48
756.532	47.68
756.711	47.12
756.89	46.84
757.069	47.93
757.248	47.87
757.427	47.13
757.607	45.47
757.786	45.3
757.965	44.07
758.144	43.29
758.323	44.3
758.502	44.63
758.681	44.37
758.86	44.77
759.039	44.72
759.218	44.29
759.397	46.18
759.576	46.86
759.755	46.62
759.934	46.48
760.113	48.65
760.291	47.6
760.47	48.47
760.649	49.68
760.828	49.67
761.007	48.63
761.186	49.8
761.364	48.54
761.543	48.74
761.722	48.26
761.901	48.22
762.079	48.63
762.258	49.02
762.437	47.86
762.615	47.36
762.794	47.27
762.972	48.73
763.151	48.05
763.33	48.36
763.508	48.92
763.687	49.26
763.865	49.99
764.044	48.34
764.222	48.03
764.401	47.76
764.579	47.41
764.758	47.37
764.936	47.23
765.114	47.6
765.293	47.65
765.471	46.73
765.65	46.91
765.828	46.89
766.006	47.45
766.184	47.6
766.363	48.26
766.541	48.66
766.719	48.38
766.898	48.09
767.076	48.64
767.254	48.5
767.432	49.91
767.61	49.24
767.788	48.93
767.967	49.41
768.145	49.71
768.323	49.87
768.501	49.14
768.679	49.21
768.857	48.89
769.035	48.21
769.213	49
769.391	49.13
769.569	49.6
769.747	50.51
769.925	50.3
770.103	50.49
770.281	49.71
770.459	49.87
770.636	51.13
770.814	50.06
770.992	50.38
771.17	50.31
771.348	47.82
771.525	48.61
771.703	48.01
771.881	48.95
772.059	49.95
772.236	48.6
772.414	50.3
772.592	49
772.769	49.11
772.947	48.59
773.125	48.49
773.302	51.95
773.48	52.62
773.657	52.65
773.835	51.08
774.013	51.31
774.19	52.12
774.368	49.5
774.545	49.7
774.723	50.76
774.9	52.15
775.077	51.1
775.255	50.48
775.432	49.49
775.61	47.67
775.787	46.82
775.964	46.05
776.142	47.54
776.319	49.97
776.496	50.77
776.674	50.89
776.851	50.57
777.028	51.27
777.205	52.06
777.382	52.76
777.56	54.57
777.737	59.22
777.914	57.48
778.091	57.08
778.268	56.59
778.445	56.6
778.622	57.01
778.8	55.92
778.977	55.63
779.154	57.49
779.331	55.86
779.508	54.58
779.685	52.34
779.862	54.29
780.038	53.67
780.215	55.61
780.392	55.01
780.569	55.56
780.746	57.58
780.923	58.96
781.1	54.22
781.277	53.18
781.453	52.87
781.63	50.82
781.807	50.63
781.984	51.55
782.16	51.18
782.337	51.42
782.514	51.75
782.691	49.76
782.867	48.43
783.044	51.43
783.221	53.71
783.397	55.1
783.574	56.42
783.75	56.24
783.927	55.78
784.103	53.52
784.28	51.21
784.456	50.07
784.633	52.21
784.809	51.53
784.986	45.29
785.162	44.46
785.339	43.87
785.515	43.04
785.692	42.5
785.868	42.96
786.044	44.31
786.221	48.24
786.397	48.75
786.573	45.67
786.749	47.67
786.926	52.22
787.102	52.16
787.278	52.16
787.454	53.82
787.631	54.26
787.807	53.79
787.983	53.8
788.159	53.2
788.335	52.83
788.511	53.69
788.687	53.2
788.863	54.36
789.039	53.86
789.216	53.75
789.392	53.69
789.568	51.44
789.744	52.42
789.919	51.44
790.095	49.85
790.271	47.63
790.447	47.53
790.623	48.1
790.799	47.11
790.975	46.85
791.151	48.15
791.327	47.15
791.502	47.37
791.678	46.66
791.854	49.67
792.03	47.31
792.205	50.93
792.381	50.29
792.557	47.56
792.733	44.42
792.908	44.77
793.084	44.21
793.259	43.69
793.435	43.7
793.611	45.02
793.786	41.74
793.962	44.91
794.137	42.7
794.313	45.26
794.488	45.61
794.664	48.83
794.839	49.3
795.015	48.66
795.19	48.12
795.366	50.04
795.541	49.16
795.716	50.02
795.892	50.4
796.067	51.64
796.242	49.41
796.418	50.3
796.593	48.33
796.768	47.78
796.944	48.71
797.119	51.39
797.294	52.7
797.469	53.8
797.644	51.35
797.82	50.83
797.995	49.5
798.17	49.83
798.345	50.54
798.52	51.34
798.695	51.39
798.87	49.49
799.045	46.99
799.22	44.41
799.395	43.47
799.57	46.31
799.745	47.33
799.92	48.07
800.095	48.63
800.27	47.64
800.445	47.88
800.62	45.58
800.795	45.96
800.97	48.71
801.145	49.38
801.319	47.75
801.494	46.79
801.669	48.84
801.844	48.13
802.018	48.21
802.193	48.58
802.368	49.58
802.543	52.1
802.717	53.49
802.892	52.39
803.067	52.23
803.241	52.61
803.416	51.67
803.59	51.25
803.765	52.89
803.94	55.62
804.114	53.53
804.289	54.24
804.463	53.94
804.638	51.23
804.812	50.13
804.986	50.01
805.161	53
805.335	54.15
805.51	51.38
805.684	50.23
805.858	47.86
806.033	51.67
806.207	48.6
806.381	50.96
806.556	53.04
806.73	54.59
806.904	55.42
807.078	52.89
807.253	52.48
807.427	54.46
807.601	53.72
807.775	55.05
807.949	54.59
808.123	54.23
808.298	51.79
808.472	49.09
808.646	48.1
808.82	44.99
808.994	43.05
809.168	43.66
809.342	43.55
809.516	45.09
809.69	45.69
809.864	43.67
810.038	46.66
810.212	50.26
810.385	52.88
810.559	54.79
810.733	57.09
810.907	58.97
811.081	56.72
811.255	57.15
811.428	56.92
811.602	50.63
811.776	50.26
811.95	49.29
812.123	46.46
812.297	47.71
812.471	45.78
812.644	45.11
812.818	42.83
812.992	49.29
813.165	46.45
813.339	43.77
813.512	47.36
813.686	47.91
813.86	49.13
814.033	49.21
814.207	46.45
814.38	47.46
814.554	48.42
814.727	53.16
814.9	51.36
815.074	51.42
815.247	52.35
815.421	50.19
815.594	53.61
815.767	52.06
815.941	51.8
816.114	56.99
816.287	55.8
816.46	55.02
816.634	48.41
816.807	48.79
816.98	51.85
817.153	54.53
817.327	55.68
817.5	50.59
817.673	54.39
817.846	53.69
818.019	51.87
818.192	54.81
818.365	52.38
818.538	57.43
818.711	54.59
818.884	50.6
819.057	48.21
819.23	48.55
819.403	51.37
819.576	52.23
819.749	55.07
819.922	54.06
820.095	53.26
820.268	55.13
820.441	54.85
820.614	57.45
820.786	57.2
820.959	58.65
821.132	58.04
821.305	55.55
821.477	51.66
821.65	49.77
821.823	49.91
821.996	49.86
822.168	50.22
822.341	49.22
822.514	47.98
822.686	47.66
822.859	46.74
823.031	46.52
823.204	46.48
823.376	46.69
823.549	46.83
823.722	46.27
823.894	46.06
824.067	45.27
824.239	44.78
824.411	44.01
824.584	44.74
824.756	44.32
824.929	43.82
825.101	43.86
825.273	43.68
825.446	43.73
825.618	44.01
825.79	43.64
825.963	43.56
826.135	44.31
826.307	45.69
826.479	45.37
826.652	46.2
826.824	46.61
826.996	46.26
827.168	47.22
827.34	46.8
827.512	46.78
827.684	45.88
827.856	47.11
828.029	46.88
828.201	46.45
828.373	46.05
828.545	46.61
828.717	47.23
828.889	47.66
829.061	48.01
829.232	48.46
829.404	49.04
829.576	50.5
829.748	50.14
829.92	52.6
830.092	54.24
830.264	54.42
830.436	53.48
830.607	54.16
830.779	54.45
830.951	52.89
831.123	52.74
831.294	50.88
831.466	50.11
831.638	48.25
831.809	45.41
831.981	44.68
832.153	45.82
832.324	43.92
832.496	42.35
832.667	45.5
832.839	49.28
833.011	48.19
833.182	50.64
833.354	50.31
833.525	52.69
833.697	51.18
833.868	47.99
834.039	48.37
834.211	50.44
834.382	51.03
834.554	48.58
834.725	46.23
834.896	44.89
835.068	45.03
835.239	44.46
835.41	45.46
835.581	46.7
835.753	48.79
835.924	48.58
836.095	48.22
836.266	48.66
836.438	49.34
836.609	50.88
836.78	53.5
836.951	55.49
837.122	56.52
837.293	55.16
837.464	54.32
837.635	55.2
837.806	53.17
837.977	52.72
838.148	55.75
838.319	57.85
838.49	55.6
838.661	55.17
838.832	56.44
839.003	57.38
839.174	55.97
839.345	59.26
839.516	57.6
839.687	65.45
839.857	64.04
840.028	60.27
840.199	58.78
840.37	63.34
840.54	65.99
840.711	59.19
840.882	59.53
841.053	61.3
841.223	60.27
841.394	60.67
841.564	54.4
841.735	57.14
841.906	56.83
842.076	52.64
842.247	47.91
842.417	44.1
842.588	49.93
842.758	50.43
842.929	52.45
843.099	54.93
843.27	55.29
843.44	56.58
843.611	58.73
843.781	58.08
843.951	60.2
844.122	60.03
844.292	55.42
844.462	57.18
844.633	58.46
844.803	53.6
844.973	52.03
845.144	53.58
845.314	53.46
845.484	52.98
845.654	55.47
845.824	55.89
845.995	50.94
846.165	59.19
846.335	57.36
846.505	56.37
846.675	62.26
846.845	65.59
847.015	78.64
847.185	77.76
847.355	84.02
847.525	77.64
847.695	93.46
847.865	98.32
848.035	92.29
848.205	79.64
848.375	81.19
848.545	83.49
848.715	78.03
848.884	68.26
849.054	68.2
849.224	59.38
849.394	61.02
849.564	54
849.733	67.46
849.903	66.25
850.073	60.72
850.243	59.25
850.412	63.33
850.582	60.47
850.752	59.39
850.921	55.39
851.091	64.33
851.26	76.08
851.43	70.73
851.599	64.23
851.769	64.09
851.939	81.77
852.108	78.15
852.278	73.68
852.447	84.43
852.616	96.12
852.786	93.25
852.955	92.76
853.125	79.16
853.294	84.96
853.463	82.74
853.633	84.98
853.802	83.37
853.971	95.53
854.141	91.76
854.31	83.51
854.479	62.8
854.648	85.62
854.818	59.93
854.987	66.26
855.156	52.54
855.325	62.81
855.494	89.02
855.663	76
855.832	75.39
856.001	66.22
856.171	64.35
856.34	70.46
856.509	72.34
856.678	91.92
856.847	78.48
857.016	88.55
857.185	80.82
857.353	76.08
857.522	86.44
857.691	74.99
857.86	78.97
858.029	80.6
858.198	71.13
858.367	66.71
858.535	72.34
858.704	86.14
858.873	85.86
859.042	80.86
859.21	79.23
859.379	71.03
859.548	71.6
859.717	75.06
859.885	75.8
860.054	79.85
860.222	69.26
860.391	64.82
860.56	62.16
860.728	62.67
860.897	60.03
861.065	54.06
861.234	58.19
861.402	54
861.571	54.78
861.739	54.75
861.908	56.77
862.076	62.6
862.244	65.94
862.413	67.53
862.581	68.16
862.749	69.79
862.918	67.53
863.086	69.11
863.254	86.05
863.423	81.97
863.591	74.4
863.759	71.68
863.927	64.57
864.096	48.9
864.264	45.69
864.432	47.11
864.6	48.78
864.768	50.12
864.936	53.43
865.104	47.84
865.272	55.94
865.44	66.46
865.608	69.92
865.776	75.38
865.944	89.75
866.112	91.25
866.28	102.03
866.448	99.4
866.616	114.55
866.784	91.03
866.952	84.19
867.12	93.92
867.288	88.18
867.455	97.08
867.623	100.65
867.791	89.25
867.959	87.21
868.127	65.79
868.294	65.38
868.462	43.39
868.63	34.18
868.797	44.76
868.965	48.8
869.133	48.35
869.3	41.79
869.468	48.79
869.636	41.82
869.803	48.75
869.971	53.33
870.138	62.19
870.306	69.14
870.473	71.95
870.641	62.54
870.808	49.82
870.975	47.25
871.143	50.79
871.31	49.83
871.478	58.01
871.645	55.74
871.812	57.29
871.98	47.75
872.147	40.07
872.314	49.22
872.482	51.17
872.649	57.48
872.816	62.9
872.983	70.4
873.15	74.34
873.318	76.3
873.485	87.97
873.652	81.25
873.819	86.67
873.986	93.61
874.153	97.34
874.32	109.17
874.487	123.54
874.654	139.06
874.821	134.78
874.988	124.92
875.155	128.6
875.322	91.47
875.489	91.4
875.656	70.03
875.823	67.15
875.99	59.19
876.157	54.66
876.324	50.03
876.49	53.17
876.657	50.9
876.824	53.1
876.991	50.02
877.157	53.26
877.324	62.73
877.491	75.05
877.658	75.32
877.824	77.16
877.991	75.35
878.157	78.48
878.324	81.71
878.491	80.79
878.657	78.29
878.824	79.25
878.99	74.97
879.157	77.5
879.323	65.94
879.49	58.44
879.656	59.67
879.823	75.82
879.989	74.69
880.156	66.21
880.322	62.29
880.488	61.45
880.655	60.17
880.821	61.93
880.987	59.42
881.154	61.92
881.32	62.7
881.486	61.9
881.652	56.56
881.819	55.54
881.985	54.57
882.151	53.76
882.317	50.68
882.483	52.48
882.649	54.3
882.816	51.99
882.982	52.28
883.148	51.2
883.314	49.23
883.48	48.05
883.646	46.93
883.812	48.57
883.978	49.27
884.144	50.1
884.31	50.29
884.476	49.42
884.642	49.11
884.807	47.17
884.973	46.09
885.139	47.72
885.305	47.03
885.471	46.2
885.637	45.98
885.802	45.21
885.968	47.61
886.134	47.67
886.3	49.02
886.465	49.3
886.631	52.27
886.797	58.1
886.962	57.5
887.128	62.04
887.293	65.15
887.459	59.37
887.625	62.14
887.79	59.21
887.956	56.17
888.121	52.64
888.287	53.24
888.452	53.91
888.618	48.84
888.783	52.63
