Data from CB_015_Reflection_3.txt Node
Date: Wed Nov 11 19:01:54 EST 2015
User: robert
Spectrometer: USB4E03001
Autoset integration time: false
Trigger mode: 4
Integration Time (sec): 1.000000E-1
Scans to average: 15
Electric dark correction enabled: true
Nonlinearity correction enabled: false
Boxcar width: 5
Stray light correction enabled: false
XAxis mode: Wavelengths
Stop averaging: false
Number of Pixels in Spectrum: 3648
>>>>>Begin Spectral Data<<<<<
177.566	-137.94
177.785	-272.21
178.005	-80.97
178.225	-767.55
178.445	97.11
178.665	-143.11
178.885	-196.87
179.105	535.46
179.324	316.07
179.544	-211.23
179.764	-235.32
179.984	-280.09
180.204	522.97
180.423	-276.44
180.643	-652.93
180.863	1600
181.083	7165.29
181.302	1231.62
181.522	-3930.84
181.742	-1049.63
181.961	706.07
182.181	296.37
182.401	384.41
182.621	2207.25
182.84	388.33
183.06	428.02
183.279	516.02
183.499	1239.15
183.719	994.25
183.938	557.32
184.158	1283.06
184.377	-1912.63
184.597	-457.71
184.816	-349.37
185.036	-746.62
185.256	-294.67
185.475	994.76
185.695	-14791.95
185.914	528.1
186.134	359.7
186.353	403.2
186.572	619.53
186.792	429.76
187.011	410.16
187.231	349.67
187.45	508.48
187.67	419.32
187.889	3582.91
188.108	865.6
188.328	1464.71
188.547	-1117.58
188.766	-2267.17
188.986	817.05
189.205	-49395.45
189.424	1035.34
189.644	7326.45
189.863	376.12
190.082	402.37
190.302	308.09
190.521	257.79
190.74	190.69
190.959	149.93
191.178	141.2
191.398	147.17
191.617	109.38
191.836	96.2
192.055	109.56
192.274	108.64
192.494	94.14
192.713	90.94
192.932	89.84
193.151	98.68
193.37	115.25
193.589	104.4
193.808	115.31
194.027	104.86
194.246	157.01
194.465	177.2
194.685	167.26
194.904	221.51
195.123	596.6
195.342	2818.39
195.561	324.81
195.78	293.76
195.999	341.08
196.218	1812.15
196.436	-697.18
196.655	-2457.35
196.874	789.86
197.093	697.32
197.312	719.86
197.531	-260.44
197.75	-306.42
197.969	-109.09
198.188	-58.04
198.407	-66.53
198.625	-285.68
198.844	-352.42
199.063	-332.42
199.282	-435.55
199.501	-239.47
199.719	-236.87
199.938	-3158.2
200.157	416.9
200.376	535.02
200.594	1043.5
200.813	-34205.71
201.032	2077.45
201.251	436.14
201.469	510.86
201.688	405.36
201.907	424.01
202.125	313.32
202.344	207.25
202.563	246.33
202.781	256.83
203	168.88
203.218	146.28
203.437	147.92
203.656	147.78
203.874	124.62
204.093	103.93
204.311	86.07
204.53	91.53
204.748	84.96
204.967	83.33
205.185	82.22
205.404	143.56
205.622	148.61
205.841	169.78
206.059	267.21
206.278	268.76
206.496	295.64
206.715	498.92
206.933	709.72
207.151	454.51
207.37	538.85
207.588	463.2
207.806	559.81
208.025	836.48
208.243	754.29
208.461	312.82
208.68	319.39
208.898	310.12
209.116	306.85
209.335	227.67
209.553	-797.95
209.771	325.4
209.989	-3775.22
210.208	-2414.51
210.426	-944.12
210.644	-387.72
210.862	-259.54
211.081	-301.18
211.299	-429.18
211.517	-769.13
211.735	-667.54
211.953	-954.67
212.171	-364.02
212.39	-1860.96
212.608	-4356.64
212.826	584.13
213.044	364.56
213.262	287.39
213.48	164.11
213.698	157.6
213.916	-391.55
214.134	-263.73
214.352	-964.35
214.57	841.78
214.788	208.34
215.006	197.13
215.224	154.62
215.442	140.67
215.66	150.31
215.878	190.24
216.096	183.46
216.314	137.05
216.532	140.19
216.75	119.38
216.968	115.19
217.185	190.4
217.403	244.56
217.621	330.89
217.839	405.26
218.057	6590.95
218.275	-2434.48
218.492	-246.48
218.71	-139.56
218.928	-185.49
219.146	-125.58
219.363	-77.79
219.581	-123.13
219.799	-164.86
220.017	-81.7
220.234	-61.73
220.452	-77.18
220.67	-70.93
220.887	-134.15
221.105	-119.78
221.323	-121.96
221.54	-41.1
221.758	-24.45
221.976	-11.18
222.193	5.06
222.411	-26.5
222.629	-24.63
222.846	-35.54
223.064	-31.8
223.281	-43.97
223.499	-63.08
223.716	-75.53
223.934	-314.09
224.151	-599.73
224.369	-423.71
224.586	175800
224.804	-814.05
225.021	-322.15
225.239	-336.39
225.456	-331.93
225.674	-310.74
225.891	-104.75
226.108	-68.75
226.326	-61.03
226.543	-58.35
226.76	-47.28
226.978	-30.81
227.195	-11.01
227.413	-6.78
227.63	1.09
227.847	-1.21
228.064	2.44
228.282	5.92
228.499	7.78
228.716	6.38
228.934	5.21
229.151	5.48
229.368	6.34
229.585	-1.01
229.802	-3.22
230.02	-3.92
230.237	-4.61
230.454	-2.91
230.671	-5.4
230.888	-12.41
231.105	-11.28
231.323	-7.96
231.54	-12.47
231.757	-18.58
231.974	-12.26
232.191	-14.63
232.408	-12.28
232.625	-16.77
232.842	-23.65
233.059	-22.67
233.276	-15.67
233.493	-18.64
233.71	-24.52
233.927	-19.07
234.144	-9.71
234.361	-10.17
234.578	-12.87
234.795	-18.05
235.012	-16.61
235.229	-13.88
235.446	-19.77
235.663	-30.06
235.879	-20.58
236.096	-19.15
236.313	-24.32
236.53	-29.42
236.747	-20.57
236.964	-15.08
237.181	-19.86
237.397	-16.5
237.614	-17.55
237.831	-22.25
238.048	-17.91
238.264	-26.6
238.481	-36.41
238.698	-38.66
238.915	-44.93
239.131	-57.17
239.348	-61.87
239.565	-52.58
239.781	-49.45
239.998	-44.65
240.215	-37.05
240.431	-32.33
240.648	-24.17
240.865	-13.69
241.081	-9.51
241.298	-5.68
241.514	-1.69
241.731	1.92
241.947	2.8
242.164	4.01
242.38	4.15
242.597	4.79
242.814	5
243.03	2.53
243.246	1.96
243.463	2.42
243.679	3.51
243.896	2.96
244.112	3.1
244.329	2.79
244.545	2.85
244.762	6.17
244.978	6.16
245.194	5.13
245.411	7.57
245.627	4.79
245.843	3.85
246.06	4.69
246.276	7.01
246.492	6.51
246.709	7.58
246.925	6.13
247.141	4.74
247.357	5.12
247.574	5.42
247.79	5.65
248.006	6.86
248.222	6.98
248.439	6.2
248.655	5.81
248.871	5.43
249.087	4.84
249.303	5.64
249.519	4.8
249.736	3.03
249.952	1.09
250.168	-2.8
250.384	-5.45
250.6	-5.19
250.816	-5.3
251.032	-8.57
251.248	-8.36
251.464	-9.47
251.68	-9.15
251.896	-5.51
252.112	-5.25
252.328	-1.2
252.544	0.85
252.76	1.95
252.976	0.96
253.192	1.08
253.408	2.07
253.624	2.22
253.84	1.14
254.056	0.79
254.272	-4.12
254.487	-2.58
254.703	-3.93
254.919	-4.51
255.135	-5.41
255.351	-1.8
255.567	-3.71
255.782	-3.84
255.998	-3.28
256.214	-3.08
256.43	-1.66
256.646	1.05
256.861	-0.17
257.077	-1.68
257.293	-2.91
257.508	-2.79
257.724	-5.44
257.94	-5.66
258.155	-5.46
258.371	-3.21
258.587	-1.89
258.802	-1.54
259.018	-0.81
259.234	0.67
259.449	1.42
259.665	1.72
259.88	2.15
260.096	2.65
260.312	3.94
260.527	4.63
260.743	4
260.958	3.65
261.174	3.69
261.389	3.56
261.605	2.49
261.82	2.11
262.036	1.82
262.251	2.17
262.466	2.21
262.682	-0.47
262.897	-1.85
263.113	-4.53
263.328	-4.05
263.543	-4.5
263.759	-5.57
263.974	-5.94
264.189	-7.07
264.405	-4.8
264.62	-7.23
264.835	-6.96
265.051	-4.2
265.266	-7.08
265.481	-3.28
265.696	-5.17
265.912	-5.01
266.127	-3.14
266.342	-1.81
266.557	-4.43
266.773	-5.23
266.988	-4.77
267.203	-7.51
267.418	-7.01
267.633	-4.47
267.848	-4.47
268.064	-3.13
268.279	-2.52
268.494	-4.59
268.709	-4.13
268.924	-1.9
269.139	-2.69
269.354	-2.55
269.569	0.8
269.784	0.66
269.999	-1
270.214	-1.36
270.429	-2.51
270.644	-2.55
270.859	-0.4
271.074	0.08
271.289	1.27
271.504	2.18
271.719	1.89
271.934	1.99
272.149	2.29
272.363	3.09
272.578	3.02
272.793	5.57
273.008	5.04
273.223	4.48
273.438	4.61
273.653	4.97
273.867	5.51
274.082	5.61
274.297	5.41
274.512	2.78
274.726	3.64
274.941	4.17
275.156	1.16
275.371	1.07
275.585	0.88
275.8	-0.54
276.015	-1.97
276.229	-5.15
276.444	-3.73
276.659	-4.86
276.873	-3.76
277.088	-5.35
277.302	-6.68
277.517	-6.14
277.732	-5.68
277.946	-6.87
278.161	-6.77
278.375	-6.33
278.59	-4.87
278.804	-6.19
279.019	-5.51
279.233	-4.04
279.448	-2.27
279.662	-2.7
279.877	-2.56
280.091	-1.6
280.306	0.26
280.52	-0.58
280.735	-1.65
280.949	-0.36
281.163	0.56
281.378	1
281.592	1.98
281.806	1.53
282.021	2.24
282.235	1.08
282.449	0.98
282.664	0.66
282.878	1.79
283.092	2.66
283.307	2.06
283.521	2.87
283.735	3.09
283.949	2.1
284.164	2.01
284.378	3.59
284.592	5.57
284.806	5.81
285.02	6.14
285.234	6.61
285.449	7.48
285.663	7.86
285.877	5.98
286.091	5.83
286.305	5.69
286.519	6.04
286.733	5.69
286.947	5.01
287.161	4.35
287.375	3.6
287.589	1.95
287.803	1.47
288.017	0.55
288.231	1.22
288.445	1.52
288.659	1.76
288.873	1.16
289.087	-0.89
289.301	1
289.515	1.69
289.729	2.84
289.943	3.63
290.157	2.68
290.371	2.94
290.584	3.46
290.798	3.73
291.012	3.51
291.226	3.15
291.44	3.78
291.654	3
291.867	2.58
292.081	1.71
292.295	2.89
292.509	2.71
292.722	2.94
292.936	3.05
293.15	2.93
293.364	3.6
293.577	4.48
293.791	5.06
294.005	4.22
294.218	4.67
294.432	5.17
294.645	5.19
294.859	5.79
295.073	4.96
295.286	4.27
295.5	3.72
295.713	4.78
295.927	5.6
296.14	5.72
296.354	6.16
296.568	5.23
296.781	4.99
296.994	3.91
297.208	3.6
297.421	5.88
297.635	6.74
297.848	7.28
298.062	6.93
298.275	6.09
298.489	5.9
298.702	5.9
298.915	7.32
299.129	7.3
299.342	8.2
299.555	8.05
299.769	6.41
299.982	6.77
300.195	6.9
300.409	6.52
300.622	8.41
300.835	8.18
301.048	7.8
301.262	6.83
301.475	7.07
301.688	7.11
301.901	8.53
302.115	8.07
302.328	7.55
302.541	5.94
302.754	6.86
302.967	3.95
303.18	4.7
303.393	5.29
303.607	5.61
303.82	4.64
304.033	4.18
304.246	3.28
304.459	3.2
304.672	3.05
304.885	3.95
305.098	3.19
305.311	4.97
305.524	3.71
305.737	3.52
305.95	2.36
306.163	3.97
306.376	3.58
306.589	3.7
306.802	4.5
307.015	3.68
307.228	2.8
307.44	2.68
307.653	2.17
307.866	3.26
308.079	3.23
308.292	4.52
308.505	5.2
308.718	5.64
308.93	5.81
309.143	7.03
309.356	6.81
309.569	7.26
309.781	7.74
309.994	6.8
310.207	7.56
310.42	7.73
310.632	8.09
310.845	7.89
311.058	8.25
311.27	8.71
311.483	8.34
311.696	8.82
311.908	9.18
312.121	9.42
312.333	9.45
312.546	9.53
312.759	8.59
312.971	7.25
313.184	5.91
313.396	6.33
313.609	6.4
313.821	5.73
314.034	7.34
314.246	7.92
314.459	6.65
314.671	8.17
314.884	7.68
315.096	9.46
315.309	9.51
315.521	10.46
315.733	9.67
315.946	9.27
316.158	8.66
316.371	7.31
316.583	5.73
316.795	5.95
317.008	5.18
317.22	5.4
317.432	5.01
317.644	4.54
317.857	3.46
318.069	3.19
318.281	2.32
318.494	2.89
318.706	1.26
318.918	1.31
319.13	1.14
319.342	1.8
319.555	0.89
319.767	-0.17
319.979	1.83
320.191	2.25
320.403	1.66
320.615	2.52
320.827	2.1
321.039	3.74
321.252	4.51
321.464	4.55
321.676	3.3
321.888	3.41
322.1	3.34
322.312	1.85
322.524	3.17
322.736	5.18
322.948	5.49
323.16	7.05
323.372	6.88
323.584	6.54
323.796	7.26
324.007	7.84
324.219	8.16
324.431	8.84
324.643	9.68
324.855	9.74
325.067	9.17
325.279	8.79
325.491	7.28
325.702	7.33
325.914	8.44
326.126	8.08
326.338	8.69
326.55	9.98
326.761	10.64
326.973	11.17
327.185	10.51
327.396	9.42
327.608	10.04
327.82	10.54
328.032	11.03
328.243	10.59
328.455	10.34
328.666	11.49
328.878	10.01
329.09	8.88
329.301	7.65
329.513	7.73
329.725	8.79
329.936	8.08
330.148	8.7
330.359	8.24
330.571	8.09
330.782	8.76
330.994	6.58
331.205	7.43
331.417	9.25
331.628	9.75
331.84	11.11
332.051	12.01
332.262	12.46
332.474	13.13
332.685	13.78
332.897	14.32
333.108	15.13
333.319	16.26
333.531	16.54
333.742	14.96
333.953	15.35
334.165	14.06
334.376	13.53
334.587	14.59
334.799	13.32
335.01	13.65
335.221	13.82
335.432	13.73
335.644	13.22
335.855	13.55
336.066	14.58
336.277	14.49
336.488	14.89
336.7	16.03
336.911	15.92
337.122	16.85
337.333	16.85
337.544	16.76
337.755	17.16
337.966	17.22
338.177	15.89
338.388	15.64
338.599	16.25
338.811	16.14
339.022	15.63
339.233	14.44
339.444	14.12
339.655	14.47
339.866	14.93
340.076	14.2
340.287	15.17
340.498	16.4
340.709	16.83
340.92	16.57
341.131	16.6
341.342	16.78
341.553	18.12
341.764	17.45
341.975	15.97
342.185	15.66
342.396	16.05
342.607	15.22
342.818	14.02
343.029	12.82
343.239	12.38
343.45	13.13
343.661	12.84
343.872	12.52
344.082	13.03
344.293	13.77
344.504	14.01
344.714	13.9
344.925	14
345.136	15.28
345.346	16.38
345.557	17.33
345.768	17.13
345.978	17.36
346.189	16.52
346.399	17.32
346.61	17.6
346.821	17.35
347.031	17.03
347.242	17.2
347.452	16.11
347.663	16.21
347.873	15.91
348.084	15.92
348.294	15.17
348.504	15.17
348.715	14.79
348.925	14.54
349.136	13.73
349.346	13.63
349.557	14.24
349.767	14.27
349.977	14.18
350.188	13.97
350.398	13.82
350.608	13.99
350.819	14.64
351.029	14.62
351.239	14.87
351.449	15.17
351.66	15.77
351.87	15.19
352.08	15.88
352.29	16.68
352.501	17.03
352.711	17.02
352.921	17.26
353.131	17.86
353.341	17.62
353.552	17.92
353.762	18.52
353.972	17.85
354.182	17.47
354.392	16.84
354.602	15.98
354.812	14.96
355.022	15.33
355.232	14.98
355.442	14.02
355.652	14.07
355.862	14.7
356.072	13.77
356.282	13.49
356.492	14.31
356.702	15.19
356.912	15.74
357.122	16.06
357.332	15.91
357.542	15.53
357.752	15.64
357.962	15.55
358.171	15.1
358.381	16
358.591	17.11
358.801	16.93
359.011	16.97
359.221	16.43
359.43	16.34
359.64	16.55
359.85	18.35
360.06	18.61
360.269	18.42
360.479	18.63
360.689	18.44
360.899	18.05
361.108	18.17
361.318	18.03
361.528	17.62
361.737	17.84
361.947	17.49
362.156	16.36
362.366	16.67
362.576	16.5
362.785	15.68
362.995	15.87
363.204	15.61
363.414	15.13
363.623	14.74
363.833	15.28
364.042	15.34
364.252	15.63
364.461	16.29
364.671	15.79
364.88	16.08
365.09	16.03
365.299	15.77
365.509	15.25
365.718	15.52
365.927	15.33
366.137	15.03
366.346	14.58
366.555	13.91
366.765	13.15
366.974	13.37
367.183	13.33
367.393	13.2
367.602	12.93
367.811	13.45
368.021	13.29
368.23	13.94
368.439	13.17
368.648	13.17
368.857	13.27
369.067	13.41
369.276	13.32
369.485	13.31
369.694	13.51
369.903	13.81
370.112	13.32
370.321	13.08
370.531	12.2
370.74	12.23
370.949	11.7
371.158	11.33
371.367	11.3
371.576	11.27
371.785	11.12
371.994	11.31
372.203	10.49
372.412	10.57
372.621	10.92
372.83	11.52
373.039	11.73
373.248	12.29
373.457	12.67
373.666	12.59
373.874	12.36
374.083	12.77
374.292	12.36
374.501	12.9
374.71	12.98
374.919	12.73
375.128	12.14
375.336	11.84
375.545	11.22
375.754	10.65
375.963	10.08
376.171	10
376.38	9.98
376.589	10
376.798	9.76
377.006	9.34
377.215	9.39
377.424	9.64
377.632	9.84
377.841	10.43
378.05	10.01
378.258	10.03
378.467	10.1
378.675	9.88
378.884	9.47
379.093	9.27
379.301	10.08
379.51	10.02
379.718	9.82
379.927	9.77
380.135	9.28
380.344	10.34
380.552	10.81
380.761	10.5
380.969	10.32
381.177	10.64
381.386	10.61
381.594	10.07
381.803	9.56
382.011	9.76
382.219	9.57
382.428	9.58
382.636	9.41
382.845	8.93
383.053	9.14
383.261	8.38
383.469	8.7
383.678	8.51
383.886	8.32
384.094	8.19
384.302	8.03
384.511	8.13
384.719	8.08
384.927	8.4
385.135	8.58
385.343	8.11
385.552	8.94
385.76	8.59
385.968	8.61
386.176	8.42
386.384	8.47
386.592	8.18
386.8	8.01
387.008	8.06
387.216	7.49
387.424	7.59
387.633	7.85
387.841	7.22
388.049	6.95
388.257	7.42
388.465	7.81
388.672	7.66
388.88	7.77
389.088	7.79
389.296	7.73
389.504	7.98
389.712	7.82
389.92	7.65
390.128	7.75
390.336	7.55
390.544	7.09
390.751	7.2
390.959	7.19
391.167	7.19
391.375	7.32
391.583	7.24
391.79	6.65
391.998	6.72
392.206	6.42
392.414	6.59
392.621	7.11
392.829	7.19
393.037	6.65
393.244	6.54
393.452	6.17
393.66	6.02
393.867	6.01
394.075	6.19
394.283	6.09
394.49	6.48
394.698	6.51
394.905	6.47
395.113	6.45
395.32	6.77
395.528	6.9
395.735	6.87
395.943	6.64
396.15	6.74
396.358	6.79
396.565	6.59
396.773	6.55
396.98	6.28
397.188	6.17
397.395	6.06
397.602	5.68
397.81	5.53
398.017	5.9
398.225	6.07
398.432	5.8
398.639	6.2
398.847	6.29
399.054	5.67
399.261	5.79
399.468	5.59
399.676	5.94
399.883	5.95
400.09	6.28
400.297	6.05
400.505	6.1
400.712	6.33
400.919	6.07
401.126	5.8
401.333	6.2
401.54	6.13
401.748	6.01
401.955	5.63
402.162	5.84
402.369	5.76
402.576	5.86
402.783	6.17
402.99	5.97
403.197	6.04
403.404	5.75
403.611	5.69
403.818	5.59
404.025	5.63
404.232	5.56
404.439	5.54
404.646	5.25
404.853	5.13
405.06	4.84
405.267	4.9
405.474	4.6
405.681	5.06
405.887	5.01
406.094	5.08
406.301	5.11
406.508	5.19
406.715	5.14
406.922	5.49
407.128	5.48
407.335	5.38
407.542	5.37
407.749	5.64
407.955	5.53
408.162	5.85
408.369	6.27
408.575	6.06
408.782	6.48
408.989	6.5
409.195	6.6
409.402	6.81
409.609	6.7
409.815	6.8
410.022	6.42
410.228	6.38
410.435	6.04
410.642	5.67
410.848	5.86
411.055	5.35
411.261	5.22
411.468	5.22
411.674	4.96
411.881	5.05
412.087	5.08
412.294	5.31
412.5	5.48
412.706	5.51
412.913	4.95
413.119	4.88
413.326	4.99
413.532	5.04
413.738	4.83
413.945	4.92
414.151	4.97
414.357	4.71
414.564	4.73
414.77	4.69
414.976	4.68
415.182	5.02
415.389	5.33
415.595	5.48
415.801	5.4
416.007	5.47
416.214	5.47
416.42	5.39
416.626	5.43
416.832	5.48
417.038	5.37
417.244	5.27
417.45	5.53
417.657	5.15
417.863	4.98
418.069	5.17
418.275	5.27
418.481	5.36
418.687	5.23
418.893	5.17
419.099	5.04
419.305	5.17
419.511	5.34
419.717	5.37
419.923	5.47
420.129	5.68
420.335	5.56
420.541	5.37
420.746	5.33
420.952	5.41
421.158	5.51
421.364	5.47
421.57	5.33
421.776	5.24
421.982	5.09
422.187	5.08
422.393	4.89
422.599	5.04
422.805	4.97
423.01	5.07
423.216	4.96
423.422	4.84
423.628	4.95
423.833	5.05
424.039	5.13
424.245	5.15
424.45	5.26
424.656	5.2
424.862	5.06
425.067	5.16
425.273	5.22
425.478	5.4
425.684	5.53
425.889	5.54
426.095	5.41
426.301	5.46
426.506	5.51
426.712	5.46
426.917	5.67
427.123	5.64
427.328	5.61
427.533	5.34
427.739	5.15
427.944	5.14
428.15	5.08
428.355	5.11
428.561	4.88
428.766	4.67
428.971	4.53
429.177	4.53
429.382	4.58
429.587	4.5
429.793	4.39
429.998	4.62
430.203	4.49
430.408	4.27
430.614	4.28
430.819	4.41
431.024	4.36
431.229	4.43
431.434	4.29
431.64	4.13
431.845	4.15
432.05	4.31
432.255	4.12
432.46	4.2
432.665	4.51
432.87	4.56
433.076	4.76
433.281	4.8
433.486	4.74
433.691	4.5
433.896	4.67
434.101	4.8
434.306	4.8
434.511	4.8
434.716	4.67
434.921	4.68
435.126	4.65
435.331	4.34
435.535	4.37
435.74	4.58
435.945	4.81
436.15	4.84
436.355	4.97
436.56	4.9
436.765	4.93
436.97	5.06
437.174	4.93
437.379	5
437.584	5.03
437.789	5.04
437.993	4.99
438.198	5.22
438.403	5.27
438.608	5.21
438.812	5.23
439.017	5.38
439.222	5.49
439.426	5.55
439.631	5.39
439.836	5.49
440.04	5.56
440.245	5.4
440.45	5.2
440.654	5.22
440.859	5.13
441.063	5.11
441.268	5.15
441.472	5.08
441.677	4.96
441.881	4.98
442.086	4.97
442.29	5.03
442.495	5.11
442.699	5.04
442.904	4.84
443.108	4.79
443.312	4.72
443.517	4.58
443.721	4.67
443.925	4.84
444.13	5.04
444.334	5.05
444.538	5.03
444.743	5.15
444.947	5.24
445.151	5.37
445.356	5.46
445.56	5.51
445.764	5.39
445.968	5.28
446.173	5.02
446.377	4.88
446.581	4.82
446.785	4.78
446.989	4.73
447.193	4.72
447.398	4.62
447.602	4.59
447.806	4.68
448.01	4.76
448.214	4.73
448.418	4.9
448.622	4.96
448.826	5
449.03	5.04
449.234	4.96
449.438	4.96
449.642	5.12
449.846	4.83
450.05	4.61
450.254	4.66
450.458	4.66
450.662	4.55
450.866	4.44
451.069	4.48
451.273	4.33
451.477	4.35
451.681	4.34
451.885	4.11
452.089	4.12
452.292	4.35
452.496	4.43
452.7	4.42
452.904	4.49
453.107	4.35
453.311	4.18
453.515	4.09
453.719	4.16
453.922	4.11
454.126	4.35
454.33	4.61
454.533	4.3
454.737	4.26
454.94	4.23
455.144	4.18
455.348	4.34
455.551	4.43
455.755	4.47
455.958	4.4
456.162	4.41
456.365	4.11
456.569	3.91
456.772	4.09
456.976	3.86
457.179	3.79
457.383	3.92
457.586	3.87
457.79	3.86
457.993	3.85
458.196	3.87
458.4	3.92
458.603	4.2
458.807	4.36
459.01	4.36
459.213	4.55
459.417	4.45
459.62	4.46
459.823	4.57
460.026	4.51
460.23	4.56
460.433	4.47
460.636	4.43
460.839	4.44
461.042	4.39
461.246	4.36
461.449	4.28
461.652	4.46
461.855	4.41
462.058	4.33
462.261	4.44
462.464	4.65
462.668	4.75
462.871	4.79
463.074	4.68
463.277	4.56
463.48	4.62
463.683	4.62
463.886	4.68
464.089	4.66
464.292	4.63
464.495	4.61
464.698	4.64
464.901	4.81
465.104	4.88
465.306	4.94
465.509	5.1
465.712	5.1
465.915	5.31
466.118	5.42
466.321	5.33
466.524	5.48
466.726	5.64
466.929	5.4
467.132	5.03
467.335	5.04
467.538	4.97
467.74	5.05
467.943	5.09
468.146	4.81
468.348	4.72
468.551	4.82
468.754	4.94
468.956	4.85
469.159	4.78
469.362	4.97
469.564	4.86
469.767	4.95
469.969	4.9
470.172	4.88
470.375	4.88
470.577	4.77
470.78	4.8
470.982	4.57
471.185	4.55
471.387	4.6
471.59	4.57
471.792	4.61
471.995	4.61
472.197	4.67
472.399	4.63
472.602	4.67
472.804	4.86
473.007	4.84
473.209	4.88
473.411	4.87
473.614	4.96
473.816	5.13
474.018	5.26
474.22	5.21
474.423	5.12
474.625	5.01
474.827	5.11
475.03	4.81
475.232	4.62
475.434	4.66
475.636	4.67
475.838	4.59
476.04	4.51
476.243	4.44
476.445	4.45
476.647	4.41
476.849	4.52
477.051	4.38
477.253	4.39
477.455	4.59
477.657	4.54
477.859	4.57
478.061	4.65
478.263	4.71
478.465	4.58
478.667	4.64
478.869	4.71
479.071	4.72
479.273	4.67
479.475	4.75
479.677	4.74
479.879	4.65
480.081	4.65
480.283	4.51
480.485	4.38
480.686	4.43
480.888	4.3
481.09	4.21
481.292	4.38
481.494	4.58
481.695	4.51
481.897	4.53
482.099	4.6
482.301	4.62
482.502	4.78
482.704	4.76
482.906	4.83
483.107	4.88
483.309	4.99
483.511	4.96
483.712	4.93
483.914	4.99
484.115	4.99
484.317	5
484.519	5.01
484.72	4.95
484.922	5.02
485.123	4.98
485.325	4.99
485.526	4.93
485.728	4.84
485.929	4.86
486.131	4.92
486.332	4.87
486.534	4.82
486.735	4.8
486.936	4.88
487.138	4.81
487.339	4.9
487.541	4.84
487.742	4.84
487.943	4.93
488.144	4.92
488.346	4.9
488.547	4.94
488.748	4.98
488.95	4.97
489.151	4.9
489.352	4.91
489.553	4.82
489.755	4.85
489.956	4.84
490.157	4.82
490.358	4.82
490.559	4.84
490.76	4.86
490.961	4.83
491.163	4.89
491.364	4.91
491.565	4.9
491.766	5.02
491.967	5.03
492.168	5.09
492.369	5.04
492.57	5.07
492.771	5
492.972	4.99
493.173	5.09
493.374	5.07
493.575	5.02
493.776	4.94
493.976	4.85
494.177	4.84
494.378	4.79
494.579	4.8
494.78	4.81
494.981	4.89
495.182	4.9
495.382	4.76
495.583	4.85
495.784	4.93
495.985	5.19
496.185	5.12
496.386	5.04
496.587	4.92
496.788	4.85
496.988	4.8
497.189	4.76
497.39	4.75
497.59	4.73
497.791	4.65
497.992	4.71
498.192	4.62
498.393	4.69
498.593	4.73
498.794	4.9
498.994	4.98
499.195	5
499.395	5.03
499.596	4.89
499.796	5.09
499.997	5.04
500.197	4.96
500.398	5.02
500.598	5.19
500.799	5.19
500.999	5.08
501.199	5.25
501.4	5.1
501.6	5.25
501.801	5.42
502.001	5.35
502.201	5.5
502.402	5.62
502.602	5.49
502.802	5.4
503.002	5.58
503.203	5.68
503.403	5.57
503.603	5.64
503.803	5.39
504.003	5.24
504.204	5.34
504.404	5.39
504.604	5.4
504.804	5.46
505.004	5.46
505.204	5.38
505.404	5.34
505.604	5.3
505.804	5.4
506.005	5.45
506.205	5.59
506.405	5.47
506.605	5.62
506.805	5.63
507.005	5.65
507.204	5.71
507.404	5.73
507.604	5.8
507.804	5.87
508.004	6.06
508.204	6.16
508.404	6.16
508.604	6.12
508.804	6.07
509.003	6.15
509.203	6.32
509.403	6.32
509.603	6.5
509.803	6.69
510.002	6.73
510.202	6.71
510.402	6.88
510.602	6.98
510.801	7.15
511.001	7.3
511.201	7.21
511.4	7.27
511.6	7.5
511.8	7.51
511.999	7.31
512.199	7.41
512.398	7.44
512.598	7.34
512.797	7.44
512.997	7.37
513.197	7.2
513.396	7.38
513.596	7.42
513.795	7.33
513.994	7.4
514.194	7.74
514.393	7.91
514.593	8.03
514.792	8.12
514.992	8.19
515.191	8.48
515.39	8.62
515.59	8.84
515.789	8.96
515.988	9.03
516.188	9.16
516.387	9.14
516.586	9.05
516.786	9.07
516.985	9.27
517.184	9.36
517.383	9.35
517.582	9.5
517.782	9.54
517.981	9.68
518.18	9.81
518.379	9.84
518.578	9.87
518.777	9.93
518.976	10.01
519.176	10.09
519.375	10.22
519.574	10.36
519.773	10.4
519.972	10.31
520.171	10.27
520.37	10.24
520.569	10.23
520.768	10.33
520.967	10.45
521.166	10.51
521.365	10.55
521.564	10.45
521.762	10.51
521.961	10.55
522.16	10.86
522.359	11.02
522.558	11.24
522.757	11.42
522.956	11.57
523.154	11.61
523.353	11.85
523.552	11.98
523.751	12.32
523.949	12.55
524.148	12.8
524.347	12.81
524.546	12.95
524.744	12.98
524.943	13.18
525.142	13.35
525.34	13.6
525.539	13.75
525.737	13.9
525.936	13.87
526.135	13.85
526.333	13.87
526.532	14.08
526.73	14.12
526.929	14.29
527.127	14.43
527.326	14.52
527.524	14.58
527.723	14.63
527.921	14.7
528.12	14.9
528.318	15.02
528.516	15.15
528.715	15.26
528.913	15.37
529.112	15.45
529.31	15.49
529.508	15.53
529.707	15.57
529.905	15.67
530.103	15.76
530.301	15.76
530.5	15.85
530.698	15.93
530.896	15.88
531.094	15.98
531.293	16.11
531.491	16.09
531.689	16.17
531.887	16.46
532.085	16.58
532.283	16.66
532.481	16.86
532.68	16.96
532.878	17.04
533.076	17.3
533.274	17.4
533.472	17.37
533.67	17.46
533.868	17.5
534.066	17.41
534.264	17.39
534.462	17.59
534.66	17.67
534.858	17.62
535.056	17.66
535.253	17.65
535.451	17.58
535.649	17.76
535.847	17.96
536.045	18.19
536.243	18.5
536.441	18.66
536.638	18.59
536.836	18.58
537.034	18.8
537.232	18.86
537.43	18.89
537.627	19.11
537.825	19.24
538.023	19.3
538.22	19.41
538.418	19.22
538.616	19.26
538.813	19.4
539.011	19.38
539.209	19.44
539.406	19.54
539.604	19.74
539.801	19.77
539.999	19.82
540.196	19.94
540.394	19.95
540.591	20.19
540.789	20.28
540.986	20.26
541.184	20.38
541.381	20.44
541.579	20.44
541.776	20.43
541.974	20.52
542.171	20.48
542.368	20.53
542.566	20.51
542.763	20.54
542.96	20.57
543.158	20.65
543.355	20.71
543.552	20.71
543.75	20.74
543.947	20.79
544.144	20.84
544.341	20.94
544.539	20.97
544.736	21.18
544.933	21.08
545.13	21.22
545.327	21.31
545.524	21.33
545.722	21.48
545.919	21.64
546.116	21.69
546.313	21.72
546.51	21.75
546.707	21.9
546.904	21.81
547.101	22.05
547.298	21.99
547.495	22.03
547.692	22.19
547.889	22.25
548.086	22.41
548.283	22.48
548.48	22.55
548.677	22.73
548.874	22.79
549.07	23.08
549.267	23.12
549.464	23.2
549.661	23.27
549.858	23.45
550.055	23.46
550.251	23.54
550.448	23.83
550.645	23.91
550.842	23.72
551.038	23.64
551.235	23.36
551.432	23.34
551.628	23.45
551.825	23.48
552.022	23.57
552.218	23.65
552.415	23.76
552.612	23.55
552.808	23.47
553.005	23.74
553.201	23.76
553.398	24.02
553.594	23.89
553.791	23.92
553.987	23.98
554.184	23.91
554.38	23.77
554.577	23.71
554.773	23.81
554.97	23.91
555.166	23.79
555.362	24.03
555.559	24.19
555.755	24.43
555.952	24.61
556.148	24.72
556.344	24.68
556.541	25.12
556.737	25.05
556.933	24.9
557.129	24.97
557.326	25.16
557.522	25.19
557.718	25.16
557.914	25.43
558.11	25.25
558.307	25.28
558.503	25.29
558.699	25.19
558.895	25.38
559.091	25.6
559.287	25.7
559.483	25.62
559.679	25.62
559.876	25.51
560.072	25.28
560.268	25.36
560.464	25.19
560.66	25.25
560.856	25.19
561.052	25.29
561.247	25.56
561.443	25.4
561.639	25.65
561.835	25.58
562.031	25.62
562.227	25.75
562.423	25.93
562.619	26.3
562.815	26.39
563.01	26.43
563.206	26.36
563.402	26.27
563.598	26.41
563.793	26.2
563.989	26.28
564.185	26.39
564.381	26.45
564.576	26.41
564.772	26.38
564.968	26.36
565.163	26.35
565.359	26.46
565.555	26.35
565.75	26.54
565.946	26.59
566.141	26.67
566.337	26.83
566.532	26.82
566.728	26.78
566.923	26.9
567.119	26.93
567.314	27.17
567.51	27.21
567.705	27.29
567.901	27.28
568.096	27.53
568.292	27.37
568.487	27.12
568.682	27.27
568.878	27.35
569.073	27.27
569.268	27.22
569.464	27.33
569.659	27.19
569.854	27.19
570.05	27.19
570.245	27.02
570.44	27.18
570.635	27.34
570.831	27.36
571.026	27.67
571.221	27.66
571.416	27.94
571.611	27.82
571.806	27.98
572.002	28.02
572.197	28.05
572.392	28.25
572.587	28.32
572.782	28.33
572.977	28.35
573.172	28.15
573.367	28.19
573.562	27.89
573.757	27.84
573.952	27.91
574.147	27.91
574.342	28.12
574.537	27.84
574.732	27.9
574.927	28.03
575.121	27.96
575.316	28.13
575.511	28.2
575.706	28.35
575.901	28.37
576.096	28.11
576.29	28.19
576.485	27.99
576.68	28.05
576.875	27.82
577.069	27.6
577.264	27.68
577.459	27.46
577.654	27.46
577.848	27.44
578.043	27.27
578.238	27.32
578.432	27.22
578.627	27.26
578.821	27.34
579.016	27.41
579.21	27.63
579.405	27.7
579.6	27.8
579.794	27.68
579.989	27.75
580.183	27.85
580.378	28.16
580.572	28.31
580.766	28.45
580.961	28.66
581.155	28.76
581.35	28.38
581.544	28.09
581.738	28.19
581.933	28.05
582.127	28.01
582.321	28.39
582.516	28.17
582.71	28.06
582.904	27.89
583.099	27.91
583.293	27.92
583.487	28.36
583.681	28.54
583.875	28.57
584.07	28.53
584.264	28.8
584.458	28.66
584.652	28.8
584.846	28.96
585.04	29.03
585.234	28.99
585.428	29.11
585.623	28.92
585.817	28.97
586.011	28.71
586.205	28.86
586.399	28.84
586.593	28.9
586.787	29.1
586.981	29.17
587.174	29.13
587.368	29.02
587.562	28.99
587.756	28.87
587.95	29.08
588.144	29.19
588.338	29.43
588.532	29.49
588.725	29.46
588.919	29.41
589.113	29.49
589.307	29.64
589.501	29.76
589.694	29.98
589.888	30.47
590.082	30.18
590.275	30.4
590.469	30.48
590.663	30.39
590.856	30.31
591.05	30.28
591.244	29.99
591.437	29.97
591.631	30.17
591.824	30.22
592.018	30.12
592.212	30.33
592.405	30.18
592.599	30.07
592.792	30.08
592.986	30.28
593.179	30.28
593.372	30.65
593.566	30.53
593.759	30.67
593.953	30.48
594.146	30.65
594.339	30.61
594.533	30.55
594.726	30.57
594.92	30.7
595.113	30.65
595.306	30.67
595.499	30.66
595.693	30.57
595.886	30.27
596.079	30.23
596.272	30.24
596.466	30.42
596.659	30.59
596.852	30.54
597.045	30.39
597.238	30.57
597.431	30.58
597.624	30.52
597.818	30.78
598.011	30.94
598.204	30.88
598.397	30.66
598.59	30.5
598.783	30.45
598.976	30.42
599.169	30.52
599.362	30.52
599.555	30.52
599.748	30.6
599.941	30.48
600.134	30.45
600.326	30.77
600.519	31.07
600.712	31.11
600.905	31.13
601.098	31.31
601.291	31.12
601.483	30.74
601.676	31.13
601.869	31.07
602.062	31.21
602.255	31.04
602.447	30.94
602.64	30.71
602.833	30.74
603.025	30.96
603.218	31.08
603.411	31.37
603.603	31.55
603.796	31.1
603.989	31.08
604.181	31
604.374	31.21
604.566	31.27
604.759	31.52
604.951	31.53
605.144	31.36
605.336	31.06
605.529	31.02
605.721	31.01
605.914	31.34
606.106	31.37
606.299	31.5
606.491	31.43
606.683	31.26
606.876	31.02
607.068	30.97
607.26	30.93
607.453	31.32
607.645	31.12
607.837	31.16
608.03	31.29
608.222	31.61
608.414	31.42
608.606	31.44
608.799	31.85
608.991	31.92
609.183	32.07
609.375	32.13
609.567	32.07
609.759	32.04
609.952	31.97
610.144	31.58
610.336	31.37
610.528	31.45
610.72	31.38
610.912	30.99
611.104	30.96
611.296	30.73
611.488	30.6
611.68	30.23
611.872	30.27
612.064	30.1
612.256	30.03
612.448	30.01
612.64	29.95
612.832	30.14
613.023	30.48
613.215	30.16
613.407	30.35
613.599	30.18
613.791	30.48
613.983	30.66
614.174	30.69
614.366	31.06
614.558	31.25
614.75	31.18
614.941	31.16
615.133	30.83
615.325	31.09
615.516	31.17
615.708	31.59
615.9	31.68
616.091	31.45
616.283	31.96
616.475	31.67
616.666	31.35
616.858	31.3
617.049	31.36
617.241	31.27
617.432	31.29
617.624	30.81
617.815	30.62
618.007	30.51
618.198	30.54
618.39	30.21
618.581	30.31
618.773	30.6
618.964	30.7
619.155	30.47
619.347	30.6
619.538	30.76
619.729	31.13
619.921	31.4
620.112	31.2
620.303	31.45
620.494	31.41
620.686	31.36
620.877	31.1
621.068	31.5
621.259	31.48
621.451	31.53
621.642	31.38
621.833	31.45
622.024	31.32
622.215	31.48
622.406	31.37
622.597	31.62
622.788	31.73
622.98	31.89
623.171	31.43
623.362	31.55
623.553	31.62
623.744	31.65
623.935	31.58
624.126	31.54
624.317	31.56
624.508	31.76
624.698	31.57
624.889	31.63
625.08	31.57
625.271	31.64
625.462	31.68
625.653	31.74
625.844	31.7
626.034	31.77
626.225	32.01
626.416	32.15
626.607	32.07
626.798	32.06
626.988	31.93
627.179	31.75
627.37	31.7
627.56	31.59
627.751	31.52
627.942	31.53
628.132	31.6
628.323	31.35
628.514	31.45
628.704	31.37
628.895	31.42
629.085	31.73
629.276	31.83
629.466	31.88
629.657	31.83
629.847	32.16
630.038	32.52
630.228	32.32
630.419	32.3
630.609	31.84
630.8	31.9
630.99	32.03
631.181	31.86
631.371	32.03
631.561	32.13
631.752	32.4
631.942	32.01
632.132	31.99
632.323	32.12
632.513	32.21
632.703	32.44
632.893	32.39
633.084	32.47
633.274	32.55
633.464	32.4
633.654	32.4
633.844	32.21
634.034	32.26
634.225	32.07
634.415	32.04
634.605	32.12
634.795	32.27
634.985	32.33
635.175	32.08
635.365	32.15
635.555	32.14
635.745	32.11
635.935	32.07
636.125	32.21
636.315	32.48
636.505	32.82
636.695	33.06
636.885	33.04
637.075	32.86
637.265	32.61
637.455	32.44
637.644	32.53
637.834	32.45
638.024	32.9
638.214	32.81
638.404	32.83
638.593	32.54
638.783	32.22
638.973	32.24
639.163	32.18
639.352	32.8
639.542	32.82
639.732	32.41
639.921	32.89
640.111	32.71
640.301	32.62
640.49	32.22
640.68	32.1
640.87	32.36
641.059	32.47
641.249	32.54
641.438	32.27
641.628	32.33
641.817	32.89
642.007	32.36
642.196	32.32
642.386	32.19
642.575	32.09
642.764	32.55
642.954	32.31
643.143	32.09
643.333	32.12
643.522	32.04
643.711	32.02
643.901	32.08
644.09	32.47
644.279	32.61
644.469	33.22
644.658	33.66
644.847	33.22
645.036	33.08
645.226	33.11
645.415	33.16
645.604	33.05
645.793	33.25
645.982	33.12
646.171	32.53
646.361	32.44
646.55	32.11
646.739	31.71
646.928	32.24
647.117	32.44
647.306	32.27
647.495	32.56
647.684	32.52
647.873	32.73
648.062	32.55
648.251	32.75
648.44	32.39
648.629	32.3
648.818	32.54
649.007	32.14
649.196	32.06
649.384	32.35
649.573	32.48
649.762	32.82
649.951	31.88
650.14	31.9
650.328	32.36
650.517	32.65
650.706	32.69
650.895	32.29
651.083	32.22
651.272	32.19
651.461	31.93
651.65	31.85
651.838	31.8
652.027	32.26
652.216	32.03
652.404	31.56
652.593	31.48
652.781	31.48
652.97	31.97
653.158	31.82
653.347	31.84
653.535	31.87
653.724	31.62
653.912	31.49
654.101	31.62
654.289	32.21
654.478	32.65
654.666	32.39
654.855	32.03
655.043	31.77
655.231	32.02
655.42	32.05
655.608	32.49
655.796	32.16
655.985	32.34
656.173	32.38
656.361	31.98
656.55	31.94
656.738	32.18
656.926	32.44
657.114	32.41
657.302	32.65
657.491	32.93
657.679	32.62
657.867	33.21
658.055	33.31
658.243	33.19
658.431	33.09
658.619	32.83
658.807	32.65
658.996	32.5
659.184	32.82
659.372	32.64
659.56	32.67
659.748	32.87
659.936	32.85
660.124	32.64
660.311	32.75
660.499	33.19
660.687	33.31
660.875	33.39
661.063	33.71
661.251	33.44
661.439	33.46
661.627	33.57
661.814	33.74
662.002	33.45
662.19	33.45
662.378	33.51
662.565	32.99
662.753	33.13
662.941	33.19
663.129	33.28
663.316	33.08
663.504	32.89
663.692	32.39
663.879	31.73
664.067	31.56
664.254	31.94
664.442	31.75
664.63	31.87
664.817	31.74
665.005	32
665.192	31.67
665.38	32.05
665.567	32.37
665.755	32.34
665.942	33.09
666.13	33.38
666.317	33.14
666.504	33.2
666.692	33.39
666.879	33.3
667.067	33.37
667.254	33.29
667.441	32.91
667.629	32.69
667.816	32.7
668.003	31.98
668.19	31.71
668.378	31.91
668.565	31.4
668.752	31
668.939	31.71
669.127	31.37
669.314	31.48
669.501	31.77
669.688	31.71
669.875	31.8
670.062	32.17
670.249	32.58
670.436	32.58
670.623	32.9
670.81	33.53
670.997	33.07
671.184	33.21
671.371	33.56
671.558	33.36
671.745	33.6
671.932	33.6
672.119	33.28
672.306	33.59
672.493	33.39
672.68	33.49
672.867	33.28
673.054	32.71
673.24	32.54
673.427	31.95
673.614	31.73
673.801	31.52
673.988	31.31
674.174	31.5
674.361	31.61
674.548	31.44
674.734	31.45
674.921	31.6
675.108	31.91
675.294	33
675.481	33.85
675.668	34.31
675.854	34.23
676.041	34.45
676.227	34.55
676.414	33.89
676.601	33.66
676.787	33.76
676.974	33.69
677.16	33.63
677.347	33.03
677.533	32.47
677.719	32.76
677.906	33.05
678.092	33.52
678.279	33.33
678.465	33.35
678.651	33.66
678.838	33.88
679.024	34.01
679.21	34.24
679.397	34.48
679.583	34.37
679.769	34.3
679.955	34.28
680.142	33.84
680.328	33.9
680.514	33.84
680.7	33.9
680.886	33.53
681.073	33.66
681.259	33.74
681.445	33.56
681.631	33.69
681.817	33.5
682.003	33.7
682.189	34.13
682.375	34.49
682.561	34.51
682.747	34.51
682.933	34.72
683.119	34.29
683.305	33.94
683.491	33.79
683.677	34.13
683.863	34.17
684.049	33.94
684.235	33.45
684.42	33.48
684.606	33.85
684.792	34.04
684.978	33.77
685.164	33.83
685.349	34.18
685.535	33.8
685.721	33.28
685.907	32.79
686.092	32.79
686.278	33.49
686.464	33.66
686.649	33.01
686.835	32.83
687.021	33.03
687.206	33.23
687.392	33.22
687.577	34.11
687.763	34.56
687.948	35.11
688.134	34.97
688.319	34.25
688.505	33.48
688.69	33.87
688.876	34.19
689.061	34.38
689.247	34.71
689.432	34.2
689.618	33.69
689.803	33.31
689.988	32.8
690.174	32.77
690.359	32.82
690.544	33.28
690.73	33.48
690.915	32.73
691.1	32.83
691.285	32.29
691.471	32.8
691.656	33.14
691.841	33.71
692.026	33.94
692.211	33.96
692.396	33.54
692.582	33.48
692.767	33.81
692.952	34.14
693.137	34.18
693.322	34.32
693.507	34.01
693.692	33.19
693.877	32.61
694.062	32.71
694.247	33.28
694.432	34.09
694.617	34.4
694.802	33.43
694.987	33.27
695.172	33.52
695.357	33.05
695.541	33.36
695.726	33.85
695.911	33.88
696.096	34.09
696.281	34.03
696.466	33.64
696.65	33.17
696.835	34.18
697.02	34.41
697.204	34.34
697.389	34.72
697.574	34.47
697.759	34.34
697.943	34.52
698.128	34.51
698.312	34.51
698.497	34.7
698.682	34.99
698.866	34.6
699.051	34.62
699.235	34.46
699.42	34.58
699.604	34.49
699.789	34.73
699.973	34.52
700.158	34.81
700.342	34.79
700.527	34.95
700.711	34.97
700.895	35.16
701.08	35
701.264	34.73
701.448	34.38
701.633	34.77
701.817	34.45
702.001	34.79
702.186	34.16
702.37	33.61
702.554	33.69
702.738	33.75
702.923	33.5
703.107	33.36
703.291	33.76
703.475	34.35
703.659	34.62
703.843	34.9
704.027	34.66
704.212	34.87
704.396	35.31
704.58	34.89
704.764	33.99
704.948	33.9
705.132	34.15
705.316	34
705.5	33.48
705.684	32.92
705.868	32.87
706.052	32.74
706.235	33.19
706.419	33.33
706.603	33.13
706.787	33.66
706.971	33.01
707.155	33.19
707.339	33.07
707.522	33.31
707.706	33.09
707.89	32.96
708.074	33.18
708.257	32.59
708.441	32.32
708.625	31.82
708.808	32.01
708.992	33.03
709.176	33.14
709.359	33.07
709.543	33.27
709.727	33.28
709.91	33.42
710.094	34.05
710.277	33.73
710.461	33.84
710.644	34.47
710.828	33.59
711.011	33.42
711.195	33.02
711.378	32.81
711.562	32.76
711.745	32.94
711.928	32.53
712.112	32.11
712.295	32.56
712.478	32.8
712.662	32.08
712.845	33.12
713.028	33.46
713.212	33.2
713.395	33.51
713.578	33.16
713.761	32.95
713.945	32.88
714.128	32.87
714.311	33.29
714.494	33.63
714.677	34.23
714.86	33.36
715.043	32.97
715.227	33.41
715.41	33.23
715.593	32.83
715.776	33.38
715.959	33.29
716.142	33.2
716.325	32.83
716.508	31.85
716.691	32.13
716.874	32.36
717.057	32.17
717.239	32.64
717.422	32.45
717.605	32.87
717.788	32.88
717.971	33.71
718.154	33.01
718.337	33.08
718.519	33.62
718.702	32.71
718.885	33.11
719.068	32.61
719.25	31.65
719.433	32.12
719.616	31.92
719.798	31.2
719.981	30.97
720.164	31.47
720.346	31.44
720.529	31.08
720.712	32.18
720.894	32.02
721.077	32.36
721.259	32.44
721.442	31.78
721.624	32
721.807	32.82
721.989	32.53
722.172	32.51
722.354	32.97
722.537	32.53
722.719	33.14
722.901	32.93
723.084	32.84
723.266	33.14
723.448	33.79
723.631	33.55
723.813	33.43
723.995	33.89
724.178	33.51
724.36	32.73
724.542	33.42
724.724	32.18
724.907	32.27
725.089	32.22
725.271	32.17
725.453	32.75
725.635	33.97
725.817	32.96
725.999	32.24
726.181	32.33
726.364	31.69
726.546	30.82
726.728	30.52
726.91	30.62
727.092	31.99
727.274	31.74
727.456	31.16
727.638	30.71
727.819	31.73
728.001	31.99
728.183	32.75
728.365	33.02
728.547	33.74
728.729	34.24
728.911	34.44
729.093	33.41
729.274	33.4
729.456	33.85
729.638	33.6
729.82	33.15
730.001	32.69
730.183	31.77
730.365	32.68
730.546	32.84
730.728	32.66
730.91	32.25
731.091	32.83
731.273	32.99
731.455	32.02
731.636	32.11
731.818	32.53
731.999	32.46
732.181	33.8
732.362	33.51
732.544	33.37
732.725	33.98
732.907	33.68
733.088	33.03
733.27	32.53
733.451	32.87
733.633	32.91
733.814	32.49
733.995	32.7
734.177	32.13
734.358	31.92
734.539	31.07
734.721	30.93
734.902	31.43
735.083	31.21
735.264	31.45
735.446	31.33
735.627	30.61
735.808	30.92
735.989	31.63
736.17	31.01
736.351	30.59
736.533	32.01
736.714	31.43
736.895	31.64
737.076	32.64
737.257	32.99
737.438	33.21
737.619	32.67
737.8	32.52
737.981	32.96
738.162	33.56
738.343	34.69
738.524	34.28
738.705	33.97
738.886	34.06
739.067	32.6
739.247	33.2
739.428	33.48
739.609	34.2
739.79	34.52
739.971	33.44
740.151	33.68
740.332	32.78
740.513	32.39
740.694	32.09
740.874	30.67
741.055	30.71
741.236	30.27
741.417	29.85
741.597	29.78
741.778	29.66
741.958	29.85
742.139	28.64
742.32	28.97
742.5	30.25
742.681	31.15
742.861	31.62
743.042	32.29
743.222	32.45
743.403	33.41
743.583	34.64
743.764	34.47
743.944	34.36
744.124	35.51
744.305	35.62
744.485	34.07
744.666	32.84
744.846	33.1
745.026	34.08
745.207	33.77
745.387	32.65
745.567	30.94
745.747	29.81
745.928	29.84
746.108	29.41
746.288	29.11
746.468	29.91
746.648	30.7
746.829	31.05
747.009	30.44
747.189	30.85
747.369	31.24
747.549	31.8
747.729	33.23
747.909	33.5
748.089	34.27
748.269	34.23
748.449	33.95
748.629	34.83
748.809	34.55
748.989	34.74
749.169	35.35
749.349	33.72
749.529	34.13
749.709	33.91
749.889	34.1
750.068	33.03
750.248	33.23
750.428	32.94
750.608	31.85
750.788	33.06
750.967	31.9
751.147	30.11
751.327	31.71
751.507	31.79
751.686	31.07
751.866	30.59
752.046	30.35
752.225	30.67
752.405	30.43
752.585	31.36
752.764	29.93
752.944	31.35
753.123	32.02
753.303	32.36
753.482	31.03
753.662	31.57
753.841	31.77
754.021	32.07
754.2	32.18
754.38	32.52
754.559	31.39
754.739	31.99
754.918	31.24
755.097	31.09
755.277	29.29
755.456	30.67
755.635	30.59
755.815	31.24
755.994	30.52
756.173	30.64
756.352	31.19
756.532	32.38
756.711	32.39
756.89	33.53
757.069	34.24
757.248	35.12
757.427	34.81
757.607	34.09
757.786	32.98
757.965	33.79
758.144	32.59
758.323	32.38
758.502	31.12
758.681	31.33
758.86	30.91
759.039	31.15
759.218	31.23
759.397	31.11
759.576	31.69
759.755	31.64
759.934	32.7
760.113	33.09
760.291	33.65
760.47	34.52
760.649	34.05
760.828	34.02
761.007	33.8
761.186	33.87
761.364	33.62
761.543	33.84
761.722	34.34
761.901	33.49
762.079	34.33
762.258	34.25
762.437	34.66
762.615	35.15
762.794	35.96
762.972	35.7
763.151	35.82
763.33	35.66
763.508	35.46
763.687	36.46
763.865	36.2
764.044	35.89
764.222	35.15
764.401	34.39
764.579	34.21
764.758	33.15
764.936	32.28
765.114	32.02
765.293	32.61
765.471	32.71
765.65	31.24
765.828	30.97
766.006	30.76
766.184	29.93
766.363	30.48
766.541	30.14
766.719	30.36
766.898	30.82
767.076	31.09
767.254	30.13
767.432	29.44
767.61	30.77
767.788	31.49
767.967	30.07
768.145	31.32
768.323	31.1
768.501	31.06
768.679	32.01
768.857	31.47
769.035	31.5
769.213	32.38
769.391	31.78
769.569	30.58
769.747	29.74
769.925	32.37
770.103	30.06
770.281	29.61
770.459	30.46
770.636	30.16
770.814	32.69
770.992	31.88
771.17	31.41
771.348	33
771.525	32.6
771.703	32.38
771.881	30.26
772.059	32.83
772.236	33.1
772.414	32.44
772.592	30.45
772.769	29.44
772.947	29.91
773.125	28.4
773.302	27.61
773.48	28.16
773.657	29.36
773.835	30.48
774.013	30.6
774.19	28.46
774.368	28.15
774.545	27.32
774.723	26.67
774.9	26.08
775.077	25.93
775.255	25.52
775.432	23.61
775.61	23.86
775.787	22.14
775.964	21.05
776.142	22.29
776.319	22.68
776.496	25.16
776.674	26.84
776.851	27.07
777.028	28.78
777.205	29.78
777.382	31.21
777.56	30.17
777.737	30.94
777.914	30.76
778.091	31.03
778.268	29.14
778.445	28.52
778.622	27.05
778.8	27.27
778.977	27.3
779.154	45.59
779.331	45.12
779.508	45.62
779.685	44.73
779.862	45.69
780.038	47.69
780.215	47.86
780.392	50.07
780.569	50.72
780.746	52
780.923	51.99
781.1	30.91
781.277	33.27
781.453	32.76
781.63	34.27
781.807	34.97
781.984	32.54
782.16	34.24
782.337	30.79
782.514	29.42
782.691	30.39
782.867	30.08
783.044	30.2
783.221	30.06
783.397	29.22
783.574	29.48
783.75	28.06
783.927	28.38
784.103	26.71
784.28	27.99
784.456	29.37
784.633	29.2
784.809	31.47
784.986	31.91
785.162	29.59
785.339	31.2
785.515	30.91
785.692	33.09
785.868	33.56
786.044	34.49
786.221	31.94
786.397	29.87
786.573	27.35
786.749	27.33
786.926	26.09
787.102	25.26
787.278	24.09
787.454	25.39
787.631	23.18
787.807	23.53
787.983	24.85
788.159	25.6
788.335	25.48
788.511	28.76
788.687	25.97
788.863	27.46
789.039	29.31
789.216	30.11
789.392	28.75
789.568	28.15
789.744	25.89
789.919	24.9
790.095	26.83
790.271	29.11
790.447	26.96
790.623	27.95
790.799	28.03
790.975	29.27
791.151	26.8
791.327	27
791.502	30.51
791.678	34.69
791.854	32.81
792.03	33.16
792.205	32.41
792.381	33.61
792.557	31.85
792.733	32.47
792.908	30.95
793.084	33.63
793.259	35.89
793.435	31.68
793.611	29.36
793.786	29.42
793.962	26.92
794.137	26.11
794.313	22.75
794.488	24.5
794.664	25.13
794.839	23.02
795.015	21.74
795.19	21.85
795.366	21.58
795.541	22.74
795.716	25.33
795.892	28.29
796.067	28.25
796.242	31.03
796.418	31.25
796.593	28.23
796.768	27.45
796.944	25.34
797.119	23.6
797.294	25.18
797.469	23.29
797.644	24.04
797.82	22.05
797.995	22
798.17	20.64
798.345	19.36
798.52	20.35
798.695	22.63
798.87	25.72
799.045	25.32
799.22	24.94
799.395	24.73
799.57	23.77
799.745	23.34
799.92	24.56
800.095	24.35
800.27	24.86
800.445	24.98
800.62	23.19
800.795	20.64
800.97	21.28
801.145	19.59
801.319	20.99
801.494	18.76
801.669	17.41
801.844	15.6
802.018	12.75
802.193	11.29
802.368	12.46
802.543	14.55
802.717	13.66
802.892	10.34
803.067	14.23
803.241	14.85
803.416	15.34
803.59	16.32
803.765	15.25
803.94	18.09
804.114	19.96
804.289	17.65
804.463	19.03
804.638	21.69
804.812	23.69
804.986	20.36
805.161	20.89
805.335	23.43
805.51	25.92
805.684	26.47
805.858	27.77
806.033	29.46
806.207	32.16
806.381	27.32
806.556	26.22
806.73	26.89
806.904	26.52
807.078	26.43
807.253	24.41
807.427	23
807.601	26.12
807.775	23.61
807.949	20.31
808.123	17.23
808.298	15.64
808.472	17.16
808.646	16.49
808.82	18.14
808.994	17.53
809.168	18.74
809.342	19.31
809.516	17.23
809.69	18.63
809.864	22.45
810.038	22.58
810.212	30.58
810.385	29.22
810.559	25.76
810.733	26.96
810.907	24.53
811.081	26.79
811.255	25.46
811.428	23.28
811.602	23.38
811.776	21.18
811.95	24.84
812.123	21.48
812.297	23.65
812.471	27.71
812.644	26.45
812.818	24.65
812.992	22.23
813.165	27.4
813.339	34.69
813.512	34.14
813.686	33.63
813.86	33.42
814.033	35.67
814.207	33.91
814.38	34.08
814.554	34.83
814.727	34.64
814.9	33.17
815.074	27.32
815.247	23.92
815.421	28.55
815.594	28.53
815.767	25.88
815.941	20.74
816.114	20.27
816.287	18.57
816.46	17.11
816.634	22.08
816.807	23.49
816.98	22.98
817.153	26.55
817.327	20.18
817.5	22.22
817.673	24.4
817.846	29.64
818.019	31.47
818.192	31.6
818.365	30.36
818.538	30.33
818.711	29.73
818.884	30.65
819.057	24.57
819.23	26.55
819.403	27.39
819.576	26.45
819.749	24.93
819.922	23.68
820.095	22.76
820.268	22.09
820.441	23.2
820.614	24.86
820.786	26.07
820.959	28.74
821.132	29.51
821.305	28.46
821.477	28.92
821.65	29.09
821.823	30.77
821.996	31.21
822.168	33.16
822.341	33.27
822.514	33.55
822.686	33.54
822.859	33.15
823.031	33.48
823.204	33.67
823.376	34
823.549	34.63
823.722	33.93
823.894	34.73
824.067	34.1
824.239	33.82
824.411	33.29
824.584	33.05
824.756	33.3
824.929	33.32
825.101	33.68
825.273	33.78
825.446	32.9
825.618	33.78
825.79	33.44
825.963	33.66
826.135	33.85
826.307	34.56
826.479	35.64
826.652	36.69
826.824	36.57
826.996	36.03
827.168	35.15
827.34	35.22
827.512	35.11
827.684	34.83
827.856	35.24
828.029	36.07
828.201	35.86
828.373	34.97
828.545	33.13
828.717	33.48
828.889	33.56
829.061	34.76
829.232	34.85
829.404	33.24
829.576	32.61
829.748	31.44
829.92	28.68
830.092	28.4
830.264	27.44
830.436	28.43
830.607	26.68
830.779	27.13
830.951	25.81
831.123	25.41
831.294	28.08
831.466	27.96
831.638	28.51
831.809	29.67
831.981	27.37
832.153	29.47
832.324	29.45
832.496	30.16
832.667	27.57
832.839	26.53
833.011	27.84
833.182	25.48
833.354	26.48
833.525	26.89
833.697	27.78
833.868	27.28
834.039	25.98
834.211	26.78
834.382	25.5
834.554	27.73
834.725	28.96
834.896	28.81
835.068	29.54
835.239	29.27
835.41	30.1
835.581	30.67
835.753	31.52
835.924	32.12
836.095	31.69
836.266	33.64
836.438	33.98
836.609	34.64
836.78	34.15
836.951	31.26
837.122	32.31
837.293	31.1
837.464	29.66
837.635	29.35
837.806	28.38
837.977	25.97
838.148	24.95
838.319	23.45
838.49	19.38
838.661	20.38
838.832	25.4
839.003	22.96
839.174	18.78
839.345	17.48
839.516	18.35
839.687	15.78
839.857	17.58
840.028	13.14
840.199	12.87
840.37	11.78
840.54	11.02
840.711	12.95
840.882	15.47
841.053	15.82
841.223	15.3
841.394	12.15
841.564	15.29
841.735	16.62
841.906	17.21
842.076	16.32
842.247	20.42
842.417	16.44
842.588	11.55
842.758	9.27
842.929	16.58
843.099	20.66
843.27	28.2
843.44	25.54
843.611	22.01
843.781	22.04
843.951	20.08
844.122	22.31
844.292	25.88
844.462	24.46
844.633	21.4
844.803	18.53
844.973	16.72
845.144	17.53
845.314	14.19
845.484	12.04
845.654	14.09
845.824	1.76
845.995	-0.57
846.165	-4.8
846.335	3.39
846.505	-3.89
846.675	-5.06
846.845	-12.53
847.015	-24.96
847.185	-11.7
847.355	-5.11
847.525	-9.91
847.695	-2.31
847.865	-3.47
848.035	0.43
848.205	-9.24
848.375	0.79
848.545	-3.91
848.715	9.67
848.884	-2.97
849.054	-25.87
849.224	-25.62
849.394	-20.15
849.564	-7.81
849.733	-13.05
849.903	-10.03
850.073	-16.91
850.243	-9.72
850.412	-9.47
850.582	-25.58
850.752	-24.42
850.921	8.28
851.091	10.11
851.26	11.31
851.43	-4.96
851.599	4.36
851.769	-17.46
851.939	-6.7
852.108	-31.74
852.278	-18.75
852.447	-24.21
852.616	-13.6
852.786	-19.31
852.955	-16.45
853.125	-16.4
853.294	-3.95
853.463	-7.68
853.633	-3.9
853.802	-0.06
853.971	14.72
854.141	13.73
854.31	31.58
854.479	26.97
854.648	24.5
854.818	21.85
854.987	19
855.156	6.4
855.325	2.41
855.494	-2.3
855.663	1.08
855.832	-2.83
856.001	-8.39
856.171	-21.22
856.34	-9.94
856.509	-23.73
856.678	-33.41
856.847	-33.41
857.016	-4.58
857.185	8.25
857.353	25.96
857.522	14.57
857.691	14.54
857.86	19.21
858.029	39.7
858.198	29.53
858.367	39.48
858.535	40.43
858.704	39.89
858.873	19.03
859.042	3.32
859.21	-15.98
859.379	-18.69
859.548	-8.17
859.717	-11.43
859.885	-25.18
860.054	-14.19
860.222	-5.11
860.391	0.01
860.56	-1.58
860.728	13.32
860.897	17.26
861.065	1.6
861.234	2.4
861.402	-1.97
861.571	3.55
861.739	-4.65
861.908	-14.21
862.076	-39.83
862.244	-23.31
862.413	-14.12
862.581	-31.29
862.749	-30.82
862.918	-23.27
863.086	-45.29
863.254	-47.7
863.423	-87.14
863.591	-50.11
863.759	-89.44
863.927	-72.88
864.096	-68.92
864.264	-186.6
864.432	-129.28
864.6	-150.06
864.768	-100.26
864.936	-70.26
865.104	-66.62
865.272	-50.89
865.44	-70.63
865.608	-44.01
865.776	-53.65
865.944	-54.82
866.112	-13.98
866.28	7.66
866.448	13.97
866.616	8.64
866.784	14.28
866.952	14.7
867.12	4.82
867.288	5.53
867.455	3.55
867.623	5.93
867.791	9.28
867.959	-10.95
868.127	-59.99
868.294	-32.49
868.462	0.12
868.63	-7.26
868.797	-19.39
868.965	-21.19
869.133	-18.52
869.3	-17.44
869.468	-7.37
869.636	-20.24
869.803	-4.48
869.971	-2.76
870.138	-11.3
870.306	-18.36
870.473	-12.04
870.641	-16.95
870.808	-8.42
870.975	-27.69
871.143	-29.39
871.31	-51.96
871.478	-56.01
871.645	-73.16
871.812	-66.06
871.98	-64.04
872.147	-69.19
872.314	-82.65
872.482	-78.47
872.649	-89.87
872.816	-65.82
872.983	-56.39
873.15	-40.87
873.318	-33.84
873.485	-48.03
873.652	-48.3
873.819	-40.26
873.986	-43.35
874.153	-31.4
874.32	-31.47
874.487	-41.16
874.654	-34.91
874.821	-51.68
874.988	-43.4
875.155	-29.07
875.322	-17.46
875.489	-21.71
875.656	-22.04
875.823	-20.21
875.99	-7.21
876.157	7.71
876.324	14.5
876.49	5.78
876.657	8.59
876.824	-1.1
876.991	-20.37
877.157	-6.52
877.324	-2.13
877.491	-5.39
877.658	3.34
877.824	-3.62
877.991	-15.12
878.157	-12.98
878.324	2.04
878.491	1.74
878.657	17.02
878.824	26.62
878.99	-0.68
879.157	-14.85
879.323	0.09
879.49	7.08
879.656	8.82
879.823	10.55
879.989	7.57
880.156	-1.26
880.322	7.47
880.488	7.84
880.655	14.23
880.821	16.11
880.987	20.62
881.154	20.89
881.32	23.53
881.486	23.23
881.652	22.98
881.819	25.97
881.985	30.28
882.151	30.26
882.317	32.89
882.483	33.95
882.649	34.42
882.816	34.3
882.982	34.44
883.148	31.94
883.314	31.46
883.48	30.85
883.646	31.23
883.812	29.84
883.978	28.37
884.144	27.69
884.31	26.59
884.476	26.77
884.642	26.81
884.807	24.87
884.973	25.62
885.139	25.83
885.305	25.9
885.471	25.82
885.637	28.37
885.802	27.34
885.968	25.18
886.134	25.63
886.3	27.46
886.465	26.06
886.631	29.62
886.797	26.5
886.962	24.99
887.128	25.4
887.293	20.3
887.459	14.62
887.625	10.94
887.79	10.71
887.956	8.35
888.121	0.27
888.287	0.04
888.452	-11.86
888.618	-15.56
888.783	-20.07
