Data from CB_074_Reflection_4.txt Node
Date: Sat Nov 14 11:28:24 EST 2015
User: robert
Spectrometer: USB4E03001
Autoset integration time: false
Trigger mode: 4
Integration Time (sec): 1.000000E-1
Scans to average: 15
Electric dark correction enabled: true
Nonlinearity correction enabled: false
Boxcar width: 5
Stray light correction enabled: false
XAxis mode: Wavelengths
Stop averaging: false
Number of Pixels in Spectrum: 3648
>>>>>Begin Spectral Data<<<<<
177.566	-236.16
177.785	-390.34
178.005	-1118.09
178.225	-69.65
178.445	-194.06
178.665	-424.97
178.885	91.53
179.105	-134.59
179.324	-163.17
179.544	-335.43
179.764	-91.6
179.984	-134.04
180.204	-166.38
180.423	-475.94
180.643	-137.44
180.863	-295.52
181.083	-1495.27
181.302	-7897.62
181.522	747.58
181.742	907
181.961	1048.84
182.181	163.13
182.401	126.42
182.621	170.23
182.84	748.42
183.06	-3382.03
183.279	-530.73
183.499	-403.43
183.719	-496.93
183.938	-337.18
184.158	-279.19
184.377	-243.04
184.597	-133.76
184.816	-81.25
185.036	-164.8
185.256	-237.05
185.475	-417.42
185.695	-247.22
185.914	-205.41
186.134	-192.3
186.353	-133.71
186.572	-66.79
186.792	-65.23
187.011	969.33
187.231	-250.97
187.45	-43.28
187.67	-346.32
187.889	298.75
188.108	177.91
188.328	138.99
188.547	120.19
188.766	120.65
188.986	123.81
189.205	150.22
189.424	184.07
189.644	171.46
189.863	228.35
190.082	239.5
190.302	327.15
190.521	300.13
190.74	326.14
190.959	1251.2
191.178	1169.25
191.398	988.87
191.617	2449.85
191.836	8613.98
192.055	1705.47
192.274	499.97
192.494	716.54
192.713	26567.86
192.932	-2132.12
193.151	389175
193.37	534.16
193.589	-12740.71
193.808	-949.88
194.027	-1798.43
194.246	3329.73
194.465	-1898.42
194.685	429.69
194.904	384.19
195.123	284.38
195.342	270.89
195.561	250.06
195.78	743.01
195.999	1519.47
196.218	460.31
196.436	141.69
196.655	143.43
196.874	130.3
197.093	267.27
197.312	237.45
197.531	370.57
197.75	358.51
197.969	866.14
198.188	127.57
198.407	110.5
198.625	197.82
198.844	207.09
199.063	263.23
199.282	384.65
199.501	-1617.19
199.719	-916.1
199.938	502.94
200.157	285.44
200.376	-1142.22
200.594	-28.42
200.813	-69.22
201.032	-225.3
201.251	-246.62
201.469	-327.42
201.688	-1144.65
201.907	2387.47
202.125	632.87
202.344	2388.45
202.563	16286.96
202.781	879.57
203	334.96
203.218	317.98
203.437	513.25
203.656	392.23
203.874	751.09
204.093	610.82
204.311	361.37
204.53	1062.61
204.748	281.84
204.967	357.51
205.185	293.66
205.404	354.55
205.622	460.29
205.841	244.8
206.059	175.33
206.278	172.67
206.496	289.58
206.715	352.32
206.933	276.48
207.151	373.35
207.37	236.12
207.588	339.03
207.806	355.49
208.025	522.59
208.243	796.13
208.461	-57168.18
208.68	1660.95
208.898	639.18
209.116	447.02
209.335	331.62
209.553	321.99
209.771	255.01
209.989	226.98
210.208	195.18
210.426	148.27
210.644	122.73
210.862	121.46
211.081	127.67
211.299	105.12
211.517	128.38
211.735	115.53
211.953	98.7
212.171	117.95
212.39	97.19
212.608	88.77
212.826	106.45
213.044	125.42
213.262	108.23
213.48	125.91
213.698	188.91
213.916	99.74
214.134	148.42
214.352	275.07
214.57	193.97
214.788	154.07
215.006	173.84
215.224	284.43
215.442	800
215.66	1537.11
215.878	291.78
216.096	138.6
216.314	445.69
216.532	1707.36
216.75	-447.43
216.968	-826.77
217.185	-6861.95
217.403	1781.21
217.621	-111577.78
217.839	-620.15
218.057	-24793.75
218.275	-901.25
218.492	-203.36
218.71	-3793.57
218.928	2026.84
219.146	1090.11
219.363	573.38
219.581	697.67
219.799	-3176.95
220.017	281.22
220.234	316.59
220.452	346.63
220.67	620.81
220.887	251.5
221.105	365.66
221.323	260.11
221.54	201.61
221.758	196.71
221.976	165.14
222.193	115.97
222.411	136.57
222.629	134.75
222.846	119.84
223.064	112.2
223.281	121.73
223.499	128.66
223.716	122.39
223.934	95.59
224.151	93.81
224.369	104.2
224.586	116.11
224.804	120.63
225.021	117.52
225.239	123.48
225.456	96.5
225.674	80.83
225.891	79.44
226.108	81.1
226.326	93.87
226.543	93.8
226.76	81.6
226.978	76.29
227.195	78.89
227.413	62.7
227.63	60.17
227.847	57.17
228.064	51.8
228.282	47.71
228.499	44.13
228.716	39.48
228.934	37.34
229.151	35.74
229.368	30.47
229.585	27.93
229.802	27.77
230.02	27.74
230.237	30.06
230.454	31.29
230.671	31.56
230.888	31.06
231.105	31.09
231.323	32.14
231.54	34.96
231.757	41.43
231.974	47.22
232.191	52.78
232.408	47.04
232.625	49
232.842	47.79
233.059	39.99
233.276	40.38
233.493	37.35
233.71	36.32
233.927	35.7
234.144	36.08
234.361	34.65
234.578	37.78
234.795	36.94
235.012	34.17
235.229	31.54
235.446	36.14
235.663	37.06
235.879	44.57
236.096	45.45
236.313	52.99
236.53	44
236.747	47.06
236.964	44.04
237.181	47.81
237.397	49.75
237.614	59.05
237.831	71.17
238.048	69.99
238.264	64.37
238.481	63.78
238.698	60.54
238.915	62.54
239.131	50.84
239.348	46
239.565	47.18
239.781	46.31
239.998	39.96
240.215	31.89
240.431	33.46
240.648	36.87
240.865	35.76
241.081	32.43
241.298	30.06
241.514	33.52
241.731	32.22
241.947	28.52
242.164	26.78
242.38	22.76
242.597	21.45
242.814	19.66
243.03	19.08
243.246	19.11
243.463	17.92
243.679	19.41
243.896	17.13
244.112	17.65
244.329	20.23
244.545	23.36
244.762	26.19
244.978	25.58
245.194	22.92
245.411	21.12
245.627	20.71
245.843	23.84
246.06	24.42
246.276	23.19
246.492	23.51
246.709	22.15
246.925	20.1
247.141	21.01
247.357	20.33
247.574	21.32
247.79	21
248.006	20.55
248.222	20.11
248.439	18.72
248.655	19.02
248.871	17.99
249.087	18.17
249.303	19.73
249.519	19.66
249.736	22.78
249.952	23.42
250.168	26
250.384	27.68
250.6	28.61
250.816	32.39
251.032	30.96
251.248	31.53
251.464	31.98
251.68	28.25
251.896	25.6
252.112	23.67
252.328	21.33
252.544	21.6
252.76	19.06
252.976	16.08
253.192	12.52
253.408	14.06
253.624	14.81
253.84	15.09
254.056	17.13
254.272	16.28
254.487	17.06
254.703	17.09
254.919	13.6
255.135	16.57
255.351	22.08
255.567	23.62
255.782	26.2
255.998	24
256.214	20.41
256.43	19.49
256.646	22.42
256.861	23.58
257.077	25.79
257.293	26.96
257.508	26.06
257.724	24.04
257.94	22.48
258.155	22.21
258.371	21.72
258.587	21.31
258.802	21.13
259.018	19.82
259.234	18.65
259.449	18.57
259.665	17.62
259.88	17.7
260.096	17.97
260.312	18.13
260.527	17.33
260.743	17.33
260.958	17.77
261.174	17.9
261.389	19.3
261.605	19.28
261.82	18.76
262.036	19.56
262.251	19.56
262.466	18.31
262.682	18.92
262.897	19.31
263.113	19.77
263.328	18.43
263.543	19.59
263.759	17.91
263.974	18.52
264.189	16.6
264.405	14.68
264.62	15.11
264.835	15.15
265.051	13.92
265.266	14.78
265.481	14.95
265.696	18.63
265.912	16.51
266.127	15.48
266.342	15.12
266.557	15.95
266.773	16.17
266.988	15.76
267.203	15.93
267.418	16.93
267.633	16.38
267.848	15.41
268.064	11.88
268.279	12.35
268.494	12.87
268.709	12.46
268.924	14.04
269.139	14.11
269.354	15
269.569	13.78
269.784	13.59
269.999	15.07
270.214	16.66
270.429	17.07
270.644	17.64
270.859	17.7
271.074	18.82
271.289	19.08
271.504	18.99
271.719	16.86
271.934	17.86
272.149	17.27
272.363	17.77
272.578	16.87
272.793	17.24
273.008	17.44
273.223	17.2
273.438	15.61
273.653	15.94
273.867	16.57
274.082	19.32
274.297	19.64
274.512	21.24
274.726	18.84
274.941	18.41
275.156	20.32
275.371	19.87
275.585	20.61
275.8	23.19
276.015	22.07
276.229	22.86
276.444	22.23
276.659	21.92
276.873	20.49
277.088	23.52
277.302	26.83
277.517	24.32
277.732	23.98
277.946	22.7
278.161	21.92
278.375	21.23
278.59	19.11
278.804	16.72
279.019	17.23
279.233	16.31
279.448	12.92
279.662	9.91
279.877	11.71
280.091	11.06
280.306	11.12
280.52	8.69
280.735	8.82
280.949	10.61
281.163	12.18
281.378	10.3
281.592	12.1
281.806	12.81
282.021	12.14
282.235	12.03
282.449	13.67
282.664	13.73
282.878	15.78
283.092	15.57
283.307	14.54
283.521	13.5
283.735	14.73
283.949	13.14
284.164	12.85
284.378	13.29
284.592	12.99
284.806	12.41
285.02	11.91
285.234	9.85
285.449	10.4
285.663	11.12
285.877	10.5
286.091	10.86
286.305	12
286.519	12.31
286.733	12.71
286.947	13.54
287.161	12.76
287.375	13.34
287.589	15.59
287.803	16.63
288.017	16.15
288.231	17.59
288.445	17.48
288.659	17.76
288.873	18.58
289.087	19.57
289.301	19.44
289.515	19.45
289.729	19.4
289.943	19.62
290.157	19.19
290.371	19.54
290.584	20.07
290.798	21.03
291.012	19.69
291.226	19.81
291.44	18.82
291.654	19.07
291.867	19.61
292.081	20.06
292.295	19.37
292.509	19.28
292.722	18.59
292.936	16.57
293.15	15.71
293.364	15.7
293.577	15.78
293.791	16.04
294.005	15.23
294.218	16.76
294.432	16.76
294.645	16.64
294.859	15.53
295.073	17.05
295.286	17.72
295.5	17.46
295.713	17.6
295.927	17.13
296.14	16.81
296.354	16.61
296.568	14.43
296.781	14.08
296.994	14.37
297.208	14.06
297.421	13.26
297.635	14.09
297.848	14.09
298.062	13.7
298.275	14.29
298.489	14.51
298.702	15.35
298.915	15.57
299.129	15.68
299.342	16.32
299.555	18.78
299.769	19.17
299.982	19.17
300.195	18.75
300.409	19.7
300.622	18.85
300.835	18.86
301.048	17.91
301.262	18.95
301.475	18.64
301.688	17.36
301.901	16.81
302.115	17.2
302.328	16.92
302.541	18.12
302.754	19.09
302.967	20.06
303.18	20.76
303.393	20.82
303.607	20.61
303.82	22.26
304.033	23.83
304.246	24.17
304.459	23.8
304.672	24.6
304.885	25.1
305.098	24.53
305.311	24.62
305.524	24.43
305.737	24.04
305.95	24.4
306.163	23.12
306.376	21.13
306.589	19.03
306.802	19.94
307.015	19.75
307.228	19.23
307.44	19.45
307.653	18.88
307.866	19.79
308.079	20.59
308.292	20.16
308.505	21.12
308.718	22.89
308.93	24.2
309.143	24.06
309.356	23.97
309.569	23.02
309.781	23.04
309.994	23.2
310.207	22.22
310.42	21.98
310.632	22.8
310.845	22.12
311.058	21.46
311.27	21.21
311.483	20.17
311.696	20.35
311.908	20.5
312.121	20.68
312.333	20.68
312.546	21
312.759	20.31
312.971	20.16
313.184	20.55
313.396	21.09
313.609	20.59
313.821	21.22
314.034	20.94
314.246	21.24
314.459	21.46
314.671	21.7
314.884	21.2
315.096	22.1
315.309	21.72
315.521	22.07
315.733	21.24
315.946	21.81
316.158	22.07
316.371	23.03
316.583	21.73
316.795	20.17
317.008	20.24
317.22	20.5
317.432	21.37
317.644	21.91
317.857	21.8
318.069	20.39
318.281	20.08
318.494	20.7
318.706	20.84
318.918	23.23
319.13	23.28
319.342	22.81
319.555	22.32
319.767	22.58
319.979	21.16
320.191	20.81
320.403	22.84
320.615	24.38
320.827	23.63
321.039	22.19
321.252	22.97
321.464	23.45
321.676	23.77
321.888	24.47
322.1	24.25
322.312	23.83
322.524	24.47
322.736	23.58
322.948	22.2
323.16	22.28
323.372	23.32
323.584	21.89
323.796	20.55
324.007	20.01
324.219	20.51
324.431	20.07
324.643	20.92
324.855	21.94
325.067	22.04
325.279	22.85
325.491	23.95
325.702	23.41
325.914	23.77
326.126	25.1
326.338	24.63
326.55	24.5
326.761	24.44
326.973	25.01
327.185	24.03
327.396	25.39
327.608	24.89
327.82	22.95
328.032	23.15
328.243	22.64
328.455	23.31
328.666	24.72
328.878	23.95
329.09	23.73
329.301	22.97
329.513	22.16
329.725	21.29
329.936	22.16
330.148	23.42
330.359	24.25
330.571	25.65
330.782	25.55
330.994	25.45
331.205	27.09
331.417	28.14
331.628	28.95
331.84	30.32
332.051	30.5
332.262	30.17
332.474	28.93
332.685	28.27
332.897	26.67
333.108	27.6
333.319	25.93
333.531	25.8
333.742	24.99
333.953	23.96
334.165	23.34
334.376	24.35
334.587	24.34
334.799	24.9
335.01	23.95
335.221	24.43
335.432	22.15
335.644	23.25
335.855	22.87
336.066	23.67
336.277	25.43
336.488	25.74
336.7	24.24
336.911	24.23
337.122	24.8
337.333	25.04
337.544	25.47
337.755	27.04
337.966	27.07
338.177	26.69
338.388	25.86
338.599	24.48
338.811	23.39
339.022	22.92
339.233	23.86
339.444	22.97
339.655	23.33
339.866	22.89
340.076	22.71
340.287	22.31
340.498	22.53
340.709	22.55
340.92	22.47
341.131	24.04
341.342	24.77
341.553	23.3
341.764	24.68
341.975	24.78
342.185	24.85
342.396	24.54
342.607	24.99
342.818	24.91
343.029	24.55
343.239	25.25
343.45	24.28
343.661	24.16
343.872	23.9
344.082	22.99
344.293	22.75
344.504	22.24
344.714	22.3
344.925	22.46
345.136	22.04
345.346	21.05
345.557	20.77
345.768	20.4
345.978	21.44
346.189	21.29
346.399	20.33
346.61	20.6
346.821	21.25
347.031	21.41
347.242	20.74
347.452	20.55
347.663	22.31
347.873	22.87
348.084	23.75
348.294	23.36
348.504	23.49
348.715	25.21
348.925	25.15
349.136	23.41
349.346	22.98
349.557	22.79
349.767	23.7
349.977	23.88
350.188	22.75
350.398	22.91
350.608	22.14
350.819	22.54
351.029	21.38
351.239	22.02
351.449	22.82
351.66	23
351.87	22.82
352.08	22.96
352.29	22.42
352.501	22.72
352.711	21.84
352.921	22.12
353.131	20.61
353.341	21.09
353.552	20.27
353.762	20.37
353.972	19.96
354.182	20.57
354.392	19.94
354.602	20.33
354.812	20.81
355.022	20.67
355.232	20.78
355.442	21.43
355.652	21.52
355.862	20.72
356.072	21.37
356.282	20.97
356.492	20.45
356.702	20.25
356.912	19.65
357.122	19.59
357.332	19.48
357.542	18.48
357.752	18.37
357.962	17.8
358.171	18.62
358.381	18.44
358.591	18.93
358.801	19.55
359.011	20.08
359.221	20.18
359.43	19.58
359.64	19.65
359.85	20.03
360.06	20.19
360.269	20.37
360.479	20.2
360.689	20.19
360.899	20.23
361.108	20.02
361.318	19.3
361.528	19.06
361.737	19.29
361.947	19.37
362.156	19.84
362.366	19.75
362.576	19.91
362.785	19.48
362.995	19.15
363.204	19.08
363.414	19.31
363.623	19.39
363.833	19.98
364.042	20.17
364.252	20.1
364.461	19.61
364.671	19.89
364.88	19.7
365.09	20.95
365.299	20.76
365.509	20.72
365.718	19.71
365.927	20
366.137	18.99
366.346	18.8
366.555	18.61
366.765	19.13
366.974	18.49
367.183	17.34
367.393	15.81
367.602	15.67
367.811	15.81
368.021	17.12
368.23	16.77
368.439	16.29
368.648	15.91
368.857	15.95
369.067	15
369.276	15.78
369.485	16.87
369.694	17.61
369.903	17.7
370.112	17.56
370.321	16.32
370.531	16.16
370.74	16.94
370.949	16.95
371.158	16.88
371.367	16.99
371.576	16.21
371.785	16.08
371.994	15.58
372.203	15.51
372.412	15.13
372.621	15.57
372.83	15.81
373.039	15.59
373.248	15.09
373.457	15.07
373.666	14.4
373.874	15
374.083	15.17
374.292	15.36
374.501	15.62
374.71	15.59
374.919	15.04
375.128	14.67
375.336	15.32
375.545	15.95
375.754	16.03
375.963	16.27
376.171	15.3
376.38	14.88
376.589	14.36
376.798	13.62
377.006	13.77
377.215	14.28
377.424	14.28
377.632	13.34
377.841	13.24
378.05	12.87
378.258	12.96
378.467	13.21
378.675	13.51
378.884	14.17
379.093	14.44
379.301	14.59
379.51	14.22
379.718	14.49
379.927	15.05
380.135	14.98
380.344	14.81
380.552	15.01
380.761	15.19
380.969	14.36
381.177	13.79
381.386	13.99
381.594	13.53
381.803	12.82
382.011	12.66
382.219	11.96
382.428	11.81
382.636	12.06
382.845	10.96
383.053	10.85
383.261	11.35
383.469	11.36
383.678	11.26
383.886	10.93
384.094	11.53
384.302	11.32
384.511	11.75
384.719	11.78
384.927	11.5
385.135	12.46
385.343	12.04
385.552	12.09
385.76	11.83
385.968	11.63
386.176	11.75
386.384	11.09
386.592	10.88
386.8	10.94
387.008	10.94
387.216	11.04
387.424	10.66
387.633	10.94
387.841	10.97
388.049	11.6
388.257	12.08
388.465	11.75
388.672	12.63
388.88	12.72
389.088	12.37
389.296	12.06
389.504	11.69
389.712	11.66
389.92	11.38
390.128	11.2
390.336	10.77
390.544	10.24
390.751	10.59
390.959	10.3
391.167	10.26
391.375	10.21
391.583	10.05
391.79	10.01
391.998	10.23
392.206	10.35
392.414	10.16
392.621	10.21
392.829	10.22
393.037	9.93
393.244	9.4
393.452	9.13
393.66	9.05
393.867	9.21
394.075	9.25
394.283	8.79
394.49	8.85
394.698	8.54
394.905	8.6
395.113	8.63
395.32	8.36
395.528	8.63
395.735	8.76
395.943	8.86
396.15	9.05
396.358	8.99
396.565	9.04
396.773	8.95
396.98	9.04
397.188	8.46
397.395	8.44
397.602	8.89
397.81	8.58
398.017	8.67
398.225	8.72
398.432	8.37
398.639	8.57
398.847	8.76
399.054	8.67
399.261	9.01
399.468	9.52
399.676	9.54
399.883	9.38
400.09	9.82
400.297	9.59
400.505	9.51
400.712	9.78
400.919	10.01
401.126	9.99
401.333	9.92
401.54	9.6
401.748	9.31
401.955	8.93
402.162	8.86
402.369	8.67
402.576	8.73
402.783	8.27
402.99	8.01
403.197	7.46
403.404	7.41
403.611	7.25
403.818	7.18
404.025	7.17
404.232	7.36
404.439	7.18
404.646	7.02
404.853	6.75
405.06	6.8
405.267	6.98
405.474	7.13
405.681	7.25
405.887	7.16
406.094	7.39
406.301	7.35
406.508	7.43
406.715	8.06
406.922	8.08
407.128	8.45
407.335	8.34
407.542	7.99
407.749	7.91
407.955	7.75
408.162	7.9
408.369	7.68
408.575	7.93
408.782	8.06
408.989	7.5
409.195	7.66
409.402	7.72
409.609	7.57
409.815	7.69
410.022	7.85
410.228	8.03
410.435	8.4
410.642	8.55
410.848	8.37
411.055	8.12
411.261	8.09
411.468	8.22
411.674	8.21
411.881	8.46
412.087	8.43
412.294	8.24
412.5	8.11
412.706	7.68
412.913	7.51
413.119	7.44
413.326	7.48
413.532	7.38
413.738	7.16
413.945	6.46
414.151	6.88
414.357	6.77
414.564	6.82
414.77	6.89
414.976	7.02
415.182	7.13
415.389	6.87
415.595	6.48
415.801	6.62
416.007	6.65
416.214	6.78
416.42	6.56
416.626	6.36
416.832	6.23
417.038	6.14
417.244	5.91
417.45	5.68
417.657	5.8
417.863	5.82
418.069	5.87
418.275	5.76
418.481	5.87
418.687	5.79
418.893	5.88
419.099	5.95
419.305	5.69
419.511	5.72
419.717	5.73
419.923	5.64
420.129	5.69
420.335	5.7
420.541	5.69
420.746	5.69
420.952	5.71
421.158	5.72
421.364	5.59
421.57	5.69
421.776	5.73
421.982	5.89
422.187	5.87
422.393	5.9
422.599	5.85
422.805	5.76
423.01	5.77
423.216	5.74
423.422	5.81
423.628	6
423.833	6.05
424.039	6.07
424.245	6.1
424.45	6.19
424.656	6.13
424.862	5.99
425.067	6.13
425.273	6.12
425.478	6.12
425.684	6.08
425.889	6.13
426.095	5.99
426.301	5.97
426.506	5.74
426.712	5.71
426.917	5.93
427.123	5.91
427.328	5.7
427.533	5.64
427.739	5.78
427.944	5.8
428.15	5.48
428.355	5.56
428.561	5.39
428.766	5.41
428.971	5.39
429.177	5.07
429.382	5.16
429.587	5.17
429.793	5.3
429.998	5.2
430.203	5.13
430.408	5.28
430.614	5.43
430.819	5.31
431.024	5.3
431.229	5.16
431.434	5.54
431.64	5.65
431.845	5.96
432.05	5.96
432.255	5.74
432.46	5.8
432.665	5.61
432.87	5.45
433.076	5.69
433.281	5.74
433.486	5.8
433.691	5.59
433.896	5.49
434.101	5.28
434.306	5.23
434.511	5.3
434.716	5.4
434.921	5.55
435.126	5.58
435.331	5.44
435.535	5.31
435.74	5.2
435.945	5.09
436.15	5.16
436.355	5.25
436.56	5.31
436.765	5.36
436.97	5.16
437.174	5.2
437.379	5.29
437.584	5.53
437.789	5.59
437.993	5.76
438.198	5.91
438.403	5.81
438.608	5.69
438.812	5.58
439.017	5.58
439.222	5.45
439.426	5.34
439.631	5.21
439.836	5.11
440.04	5.1
440.245	5.09
440.45	5.05
440.654	5.02
440.859	5
441.063	4.95
441.268	4.99
441.472	5.06
441.677	5.05
441.881	5.04
442.086	5.12
442.29	5.03
442.495	4.97
442.699	4.9
442.904	4.79
443.108	4.91
443.312	5.01
443.517	4.9
443.721	4.9
443.925	4.84
444.13	4.81
444.334	4.58
444.538	4.75
444.743	4.63
444.947	4.73
445.151	4.88
445.356	4.92
445.56	5
445.764	4.97
445.968	5.02
446.173	5.04
446.377	4.98
446.581	5.1
446.785	5.02
446.989	5.17
447.193	5.13
447.398	5.19
447.602	4.89
447.806	4.88
448.01	4.93
448.214	4.94
448.418	4.94
448.622	5.01
448.826	5
449.03	5.01
449.234	5.02
449.438	4.98
449.642	4.79
449.846	5.2
450.05	5.06
450.254	4.94
450.458	4.91
450.662	4.96
450.866	4.95
451.069	4.81
451.273	4.86
451.477	4.86
451.681	5.02
451.885	5.13
452.089	4.93
452.292	4.69
452.496	4.77
452.7	4.81
452.904	4.75
453.107	4.86
453.311	4.84
453.515	4.97
453.719	4.89
453.922	4.92
454.126	4.91
454.33	4.89
454.533	5.19
454.737	5.28
454.94	5.11
455.144	5.32
455.348	5.28
455.551	5.38
455.755	5.23
455.958	5.34
456.162	5.24
456.365	5.22
456.569	5.08
456.772	4.82
456.976	4.94
457.179	5.1
457.383	4.89
457.586	4.75
457.79	4.76
457.993	4.72
458.196	4.55
458.4	4.58
458.603	4.49
458.807	4.54
459.01	4.76
459.213	4.63
459.417	4.64
459.62	4.58
459.823	4.65
460.026	4.59
460.23	4.58
460.433	4.53
460.636	4.51
460.839	4.61
461.042	4.58
461.246	4.6
461.449	4.54
461.652	4.55
461.855	4.68
462.058	4.73
462.261	4.96
462.464	4.91
462.668	5.06
462.871	5.18
463.074	4.91
463.277	4.9
463.48	4.71
463.683	4.9
463.886	4.72
464.089	4.66
464.292	4.5
464.495	4.34
464.698	4.39
464.901	4.35
465.104	4.26
465.306	4.28
465.509	4.4
465.712	4.59
465.915	4.47
466.118	4.21
466.321	4.23
466.524	4.08
466.726	4.15
466.929	4.25
467.132	4.18
467.335	4.32
467.538	4.37
467.74	4.4
467.943	4.33
468.146	4.23
468.348	4.47
468.551	4.47
468.754	4.6
468.956	4.54
469.159	4.48
469.362	4.68
469.564	4.57
469.767	4.65
469.969	4.74
470.172	4.76
470.375	4.83
470.577	4.96
470.78	4.93
470.982	4.98
471.185	5.02
471.387	5.02
471.59	4.71
471.792	4.69
471.995	4.93
472.197	4.8
472.399	4.65
472.602	4.73
472.804	4.66
473.007	4.59
473.209	4.69
473.411	4.81
473.614	5.05
473.816	5.23
474.018	5.2
474.22	5.1
474.423	5.05
474.625	5.23
474.827	5.22
475.03	5.15
475.232	5.21
475.434	5.01
475.636	4.74
475.838	4.48
476.04	4.36
476.243	4.23
476.445	4.17
476.647	4.23
476.849	4.13
477.051	4.02
477.253	4.24
477.455	4.09
477.657	4.2
477.859	4.16
478.061	4.11
478.263	4.21
478.465	4.29
478.667	4.11
478.869	4
479.071	3.93
479.273	3.92
479.475	3.83
479.677	3.92
479.879	3.93
480.081	4.06
480.283	4.21
480.485	3.99
480.686	4.19
480.888	4.4
481.09	4.37
481.292	4.37
481.494	4.45
481.695	4.24
481.897	4.25
482.099	4.26
482.301	4.18
482.502	4.04
482.704	4.13
482.906	3.94
483.107	3.85
483.309	3.83
483.511	3.87
483.712	3.86
483.914	3.93
484.115	3.89
484.317	3.85
484.519	3.88
484.72	3.88
484.922	3.89
485.123	3.9
485.325	3.95
485.526	4.03
485.728	3.98
485.929	4
486.131	3.94
486.332	3.99
486.534	3.98
486.735	3.95
486.936	4.01
487.138	3.95
487.339	3.99
487.541	3.97
487.742	3.96
487.943	4
488.144	3.94
488.346	4.05
488.547	4.09
488.748	4.23
488.95	4.19
489.151	4.18
489.352	4.28
489.553	4.22
489.755	4.19
489.956	4.18
490.157	4.17
490.358	4.27
490.559	4.12
490.76	4.16
490.961	3.95
491.163	4.05
491.364	4.02
491.565	3.93
491.766	3.98
491.967	4.07
492.168	4.07
492.369	4.05
492.57	3.99
492.771	4.16
492.972	4.09
493.173	4.27
493.374	4.24
493.575	4.36
493.776	4.37
493.976	4.47
494.177	4.47
494.378	4.49
494.579	4.71
494.78	4.69
494.981	4.65
495.182	4.59
495.382	4.56
495.583	4.68
495.784	4.63
495.985	4.82
496.185	4.78
496.386	4.8
496.587	4.89
496.788	4.85
496.988	4.71
497.189	4.66
497.39	4.72
497.59	4.67
497.791	4.4
497.992	4.51
498.192	4.41
498.393	4.5
498.593	4.49
498.794	4.46
498.994	4.44
499.195	4.53
499.395	4.48
499.596	4.62
499.796	4.62
499.997	4.98
500.197	4.97
500.398	4.97
500.598	4.66
500.799	4.85
500.999	4.69
501.199	4.62
501.4	4.84
501.6	4.95
501.801	4.86
502.001	4.97
502.201	4.83
502.402	4.8
502.602	4.86
502.802	5.09
503.002	4.93
503.203	5.22
503.403	5.32
503.603	5.31
503.803	5.31
504.003	5.35
504.204	5.26
504.404	5.5
504.604	5.65
504.804	5.87
505.004	5.83
505.204	5.87
505.404	5.95
505.604	5.96
505.804	5.78
506.005	5.82
506.205	5.79
506.405	5.88
506.605	5.7
506.805	5.62
507.005	5.49
507.204	5.52
507.404	5.53
507.604	5.55
507.804	5.65
508.004	5.8
508.204	5.75
508.404	5.84
508.604	5.85
508.804	5.86
509.003	5.86
509.203	5.75
509.403	5.9
509.603	5.89
509.803	5.84
510.002	5.93
510.202	6.06
510.402	6.26
510.602	6.16
510.801	6.23
511.001	6.27
511.201	6.22
511.4	6.37
511.6	6.32
511.8	6.43
511.999	6.58
512.199	6.37
512.398	6.37
512.598	6.44
512.797	6.76
512.997	6.83
513.197	6.83
513.396	7.08
513.596	7.17
513.795	7.39
513.994	7.49
514.194	7.35
514.393	7.42
514.593	7.46
514.792	7.48
514.992	7.5
515.191	7.57
515.39	7.74
515.59	7.62
515.789	7.69
515.988	7.67
516.188	7.79
516.387	7.98
516.586	8.19
516.786	8.17
516.985	8.24
517.184	8.29
517.383	8.4
517.582	8.42
517.782	8.39
517.981	8.41
518.18	8.41
518.379	8.46
518.578	8.5
518.777	8.6
518.976	8.8
519.176	8.87
519.375	8.79
519.574	8.81
519.773	8.87
519.972	9.08
520.171	9.24
520.37	9.33
520.569	9.36
520.768	9.52
520.967	9.52
521.166	9.48
521.365	9.48
521.564	9.67
521.762	9.9
521.961	10.09
522.16	10.08
522.359	10.1
522.558	10.22
522.757	10.17
522.956	10.02
523.154	10.13
523.353	10.4
523.552	10.51
523.751	10.5
523.949	10.42
524.148	10.47
524.347	10.69
524.546	10.78
524.744	10.82
524.943	10.96
525.142	11.14
525.34	11.29
525.539	11.22
525.737	11.4
525.936	11.5
526.135	11.62
526.333	11.72
526.532	11.68
526.73	11.73
526.929	11.83
527.127	11.97
527.326	12.11
527.524	12.14
527.723	12.27
527.921	12.28
528.12	12.36
528.318	12.37
528.516	12.46
528.715	12.57
528.913	12.62
529.112	12.68
529.31	12.73
529.508	12.75
529.707	12.74
529.905	12.79
530.103	12.89
530.301	12.93
530.5	13.04
530.698	13.06
530.896	13.12
531.094	13.29
531.293	13.41
531.491	13.56
531.689	13.7
531.887	13.93
532.085	13.98
532.283	14.01
532.481	14.1
532.68	14.21
532.878	14.27
533.076	14.37
533.274	14.31
533.472	14.28
533.67	14.28
533.868	14.34
534.066	14.39
534.264	14.46
534.462	14.55
534.66	14.63
534.858	14.72
535.056	14.84
535.253	14.86
535.451	15.04
535.649	15.22
535.847	15.29
536.045	15.32
536.243	15.49
536.441	15.62
536.638	15.65
536.836	15.68
537.034	15.7
537.232	15.78
537.43	15.83
537.627	15.8
537.825	15.89
538.023	15.95
538.22	16.1
538.418	16.13
538.616	16.18
538.813	16.22
539.011	16.49
539.209	16.54
539.406	16.58
539.604	16.73
539.801	16.96
539.999	17.04
540.196	17.12
540.394	17.09
540.591	17.09
540.789	17.16
540.986	17.24
541.184	17.31
541.381	17.44
541.579	17.53
541.776	17.66
541.974	17.66
542.171	17.74
542.368	17.77
542.566	17.82
542.763	17.89
542.96	18
543.158	18.19
543.355	18.19
543.552	18.28
543.75	18.4
543.947	18.42
544.144	18.6
544.341	18.73
544.539	18.94
544.736	19.16
544.933	19.17
545.13	19.21
545.327	19.2
545.524	19.28
545.722	19.31
545.919	19.31
546.116	19.42
546.313	19.32
546.51	19.36
546.707	19.32
546.904	19.36
547.101	19.52
547.298	19.8
547.495	19.88
547.692	20.07
547.889	20.04
548.086	20.11
548.283	20.23
548.48	20.39
548.677	20.42
548.874	20.49
549.07	20.64
549.267	20.77
549.464	20.56
549.661	20.61
549.858	20.53
550.055	20.68
550.251	20.68
550.448	20.69
550.645	20.67
550.842	20.91
551.038	20.85
551.235	21.03
551.432	21.2
551.628	21.34
551.825	21.53
552.022	21.6
552.218	21.62
552.415	21.88
552.612	21.87
552.808	21.85
553.005	21.6
553.201	21.78
553.398	21.73
553.594	21.61
553.791	21.68
553.987	21.66
554.184	21.77
554.38	21.78
554.577	21.81
554.773	21.86
554.97	21.92
555.166	22.28
555.362	22.16
555.559	22.33
555.755	22.54
555.952	22.65
556.148	22.87
556.344	22.83
556.541	22.96
556.737	23.01
556.933	23.22
557.129	23.45
557.326	23.43
557.522	23.68
557.718	23.8
557.914	23.64
558.11	23.48
558.307	23.21
558.503	23.33
558.699	23.48
558.895	23.69
559.091	23.81
559.287	24.02
559.483	24.12
559.679	24.01
559.876	23.81
560.072	23.96
560.268	24.11
560.464	24.36
560.66	24.43
560.856	24.47
561.052	24.14
561.247	24
561.443	24.11
561.639	24.11
561.835	24.57
562.031	24.75
562.227	24.96
562.423	25.05
562.619	25.04
562.815	25.18
563.01	25.44
563.206	25.77
563.402	25.82
563.598	25.9
563.793	26.03
563.989	25.77
564.185	25.78
564.381	25.81
564.576	26
564.772	25.94
564.968	25.9
565.163	25.67
565.359	25.56
565.555	25.51
565.75	25.45
565.946	25.42
566.141	25.52
566.337	25.48
566.532	25.58
566.728	25.4
566.923	25.46
567.119	25.56
567.314	25.7
567.51	25.83
567.705	26.2
567.901	26.34
568.096	26.34
568.292	26.57
568.487	26.7
568.682	26.7
568.878	26.89
569.073	26.96
569.268	26.91
569.464	26.99
569.659	27.17
569.854	27.01
570.05	26.77
570.245	27
570.44	26.9
570.635	26.97
570.831	27.07
571.026	27.17
571.221	27.55
571.416	27.66
571.611	27.54
571.806	27.38
572.002	27.52
572.197	27.59
572.392	27.54
572.587	27.67
572.782	27.68
572.977	27.47
573.172	27.48
573.367	27.23
573.562	27.41
573.757	27.51
573.952	27.42
574.147	27.38
574.342	27.55
574.537	27.5
574.732	27.25
574.927	27.34
575.121	27.57
575.316	27.65
575.511	27.78
575.706	27.67
575.901	27.71
576.096	27.98
576.29	27.95
576.485	27.92
576.68	28.22
576.875	28.38
577.069	28.4
577.264	28.4
577.459	28.34
577.654	28.28
577.848	28.39
578.043	28.46
578.238	28.55
578.432	28.54
578.627	28.68
578.821	28.67
579.016	29.07
579.21	29.09
579.405	28.97
579.6	28.98
579.794	29.33
579.989	29.33
580.183	29.42
580.378	29.4
580.572	29.72
580.766	29.77
580.961	29.51
581.155	29.16
581.35	29.41
581.544	29.46
581.738	29.91
581.933	29.46
582.127	29.83
582.321	29.8
582.516	29.79
582.71	29.64
582.904	29.92
583.099	29.96
583.293	30.09
583.487	30.06
583.681	30.32
583.875	29.96
584.07	30.16
584.264	29.8
584.458	29.74
584.652	29.85
584.846	29.92
585.04	29.39
585.234	29.64
585.428	29.65
585.623	29.47
585.817	29.25
586.011	29.24
586.205	29.32
586.399	29.6
586.593	29.92
586.787	29.87
586.981	29.79
587.174	30.25
587.368	30.22
587.562	30.4
587.756	30.59
587.95	30.76
588.144	30.83
588.338	31
588.532	30.87
588.725	30.96
588.919	31.11
589.113	31.13
589.307	31.06
589.501	31.06
589.694	31.09
589.888	30.9
590.082	30.75
590.275	30.61
590.469	30.58
590.663	30.73
590.856	30.53
591.05	30.45
591.244	30.61
591.437	30.91
591.631	30.8
591.824	30.82
592.018	31.14
592.212	31.4
592.405	31.66
592.599	31.49
592.792	31.25
592.986	31.08
593.179	30.85
593.372	30.83
593.566	30.4
593.759	30.72
593.953	30.77
594.146	30.42
594.339	30.42
594.533	30.39
594.726	30.34
594.92	30.34
595.113	30.56
595.306	30.75
595.499	30.84
595.693	31.19
595.886	31.11
596.079	31.09
596.272	31.33
596.466	31.44
596.659	31.47
596.852	31.88
597.045	31.82
597.238	31.81
597.431	31.96
597.624	31.89
597.818	31.69
598.011	31.8
598.204	31.71
598.397	31.72
598.59	31.7
598.783	31.86
598.976	31.86
599.169	32.07
599.362	32.02
599.555	32.06
599.748	32.22
599.941	32.17
600.134	31.94
600.326	31.99
600.519	32.5
600.712	32.61
600.905	32.53
601.098	32.23
601.291	32.49
601.483	32.8
601.676	32.69
601.869	32.55
602.062	32.62
602.255	32.88
602.447	32.85
602.64	32.4
602.833	32.05
603.025	32.07
603.218	32.08
603.411	31.91
603.603	31.75
603.796	31.96
603.989	31.89
604.181	31.93
604.374	31.82
604.566	31.97
604.759	32.09
604.951	32.26
605.144	32.26
605.336	32.51
605.529	32.57
605.721	32.55
605.914	32.29
606.106	32.49
606.299	32.56
606.491	32.67
606.683	32.67
606.876	32.56
607.068	32.57
607.26	32.56
607.453	32.32
607.645	31.89
607.837	32.25
608.03	32.38
608.222	32.23
608.414	32.35
608.606	32.28
608.799	32.37
608.991	32.45
609.183	32.59
609.375	32.71
609.567	33
609.759	33.17
609.952	32.76
610.144	32.81
610.336	32.79
610.528	32.6
610.72	32.67
610.912	32.78
611.104	32.94
611.296	32.76
611.488	32.58
611.68	32.49
611.872	32.54
612.064	32.97
612.256	33.05
612.448	33.45
612.64	33.61
612.832	33.65
613.023	33.55
613.215	33.57
613.407	33.65
613.599	33.76
613.791	33.36
613.983	33.21
614.174	32.73
614.366	32.47
614.558	32.31
614.75	32.48
614.941	32.13
615.133	31.95
615.325	32.02
615.516	32.13
615.708	32.32
615.9	32.65
616.091	32.91
616.283	33.36
616.475	33.37
616.666	33.37
616.858	33.37
617.049	33.22
617.241	33.24
617.432	32.71
617.624	32.76
617.815	32.53
618.007	32.44
618.198	32.6
618.39	32.52
618.581	32.96
618.773	32.81
618.964	32.55
619.155	32.59
619.347	32.57
619.538	32.75
619.729	32.72
619.921	32.77
620.112	32.96
620.303	32.8
620.494	32.88
620.686	32.9
620.877	33.01
621.068	33.02
621.259	33.55
621.451	33.73
621.642	33.73
621.833	33.75
622.024	33.68
622.215	33.21
622.406	33.17
622.597	33.08
622.788	32.68
622.98	32.8
623.171	32.76
623.362	32.42
623.553	32.61
623.744	32.71
623.935	32.61
624.126	32.69
624.317	33.11
624.508	33.09
624.698	33.3
624.889	33.54
625.08	33.86
625.271	34.2
625.462	34.44
625.653	34.17
625.844	34.11
626.034	34.07
626.225	34.18
626.416	33.72
626.607	33.82
626.798	33.68
626.988	33.59
627.179	33.52
627.37	33.21
627.56	33.19
627.751	33.46
627.942	33.63
628.132	33.79
628.323	33.68
628.514	34.19
628.704	34.16
628.895	34.23
629.085	33.96
629.276	33.63
629.466	34.05
629.657	33.87
629.847	33.7
630.038	33.89
630.228	33.79
630.419	34.08
630.609	33.92
630.8	34.05
630.99	34.26
631.181	34.76
631.371	35.03
631.561	34.69
631.752	34.77
631.942	35
632.132	34.6
632.323	34.66
632.513	34.61
632.703	34.53
632.893	34.7
633.084	34.24
633.274	34.26
633.464	33.98
633.654	34.3
633.844	34.61
634.034	34.08
634.225	33.99
634.415	34.14
634.605	34.16
634.795	34.34
634.985	34.34
635.175	34.92
635.365	34.97
635.555	34.98
635.745	34.68
635.935	34.6
636.125	34.74
636.315	35.36
636.505	35.36
636.695	35.27
636.885	35.14
637.075	35.2
637.265	34.86
637.455	34.81
637.644	35.01
637.834	35.41
638.024	35.26
638.214	35.21
638.404	34.78
638.593	34.65
638.783	34.68
638.973	35.11
639.163	34.75
639.352	34.69
639.542	34.28
639.732	34.23
639.921	33.81
640.111	34.22
640.301	34.37
640.49	34.79
640.68	35.18
640.87	35.26
641.059	34.88
641.249	35.32
641.438	35.12
641.628	35.42
641.817	35.83
642.007	36.36
642.196	36.33
642.386	36.42
642.575	36.22
642.764	35.75
642.954	35.58
643.143	35.85
643.333	35.9
643.522	36.33
643.711	36.22
643.901	35.79
644.09	35.44
644.279	35.89
644.469	35.91
644.658	35.83
644.847	36.15
645.036	36.48
645.226	36.2
645.415	36.36
645.604	36.08
645.793	36.48
645.982	36.74
646.171	36.7
646.361	36.06
646.55	36.21
646.739	36.13
646.928	36.12
647.117	35.9
647.306	35.69
647.495	35.02
647.684	35.2
647.873	35.05
648.062	34.81
648.251	34.72
648.44	34.44
648.629	34.09
648.818	34.27
649.007	33.87
649.196	33.82
649.384	33.89
649.573	34.07
649.762	33.88
649.951	33.83
650.14	34.34
650.328	34.35
650.517	34.8
650.706	35.4
650.895	35.33
651.083	36.2
651.272	36.24
651.461	36.38
651.65	36.39
651.838	36.7
652.027	36.91
652.216	36.46
652.404	36.27
652.593	36.06
652.781	35.78
652.97	36
653.158	35.15
653.347	35.35
653.535	35.53
653.724	35.34
653.912	35.31
654.101	35.05
654.289	35.16
654.478	35.9
654.666	35.79
654.855	35.85
655.043	35.89
655.231	36.24
655.42	36.14
655.608	36.36
655.796	36.68
655.985	36.46
656.173	36.14
656.361	36.11
656.55	35.49
656.738	35.84
656.926	35.95
657.114	35.7
657.302	35.71
657.491	35.67
657.679	35.08
657.867	35.31
658.055	35.54
658.243	35.93
658.431	35.96
658.619	36.21
658.807	36.22
658.996	36.09
659.184	36.2
659.372	36.04
659.56	36.08
659.748	36.57
659.936	36.48
660.124	36.24
660.311	36.18
660.499	36.04
660.687	35.92
660.875	35.52
661.063	35.39
661.251	35.15
661.439	35.43
661.627	35.81
661.814	35.43
662.002	35.09
662.19	35.51
662.378	35.63
662.565	36.06
662.753	36.51
662.941	36.82
663.129	36.66
663.316	36.94
663.504	37.05
663.692	36.58
663.879	36.78
664.067	37.24
664.254	36.78
664.442	36.82
664.63	36.91
664.817	36.7
665.005	36.78
665.192	37.35
665.38	37.18
665.567	36.85
665.755	36.72
665.942	36.62
666.13	36.78
666.317	36.8
666.504	36.71
666.692	36.51
666.879	36.3
667.067	36.49
667.254	36.51
667.441	36.74
667.629	37.18
667.816	37.5
668.003	37.77
668.19	37.88
668.378	38.34
668.565	38.72
668.752	38.39
668.939	38.22
669.127	37.95
669.314	37.33
669.501	37.32
669.688	36.91
669.875	36.66
670.062	36.75
670.249	36.35
670.436	36.36
670.623	35.8
670.81	35.96
670.997	36.25
671.184	36.3
671.371	36.81
671.558	36.55
671.745	36.44
671.932	36.5
672.119	36.14
672.306	36.45
672.493	36.18
672.68	36.39
672.867	36.55
673.054	36.71
673.24	36.75
673.427	36.16
673.614	36.28
673.801	36.55
673.988	36.97
674.174	37.2
674.361	36.92
674.548	36.5
674.734	36.63
674.921	36.2
675.108	36.37
675.294	36.37
675.481	36.73
675.668	36.46
675.854	36.49
676.041	36.19
676.227	36.18
676.414	36.54
676.601	37.61
676.787	37.33
676.974	37.56
677.16	37.44
677.347	37.36
677.533	37.23
677.719	37.81
677.906	37.9
678.092	38.08
678.279	38.03
678.465	37.79
678.651	37.57
678.838	37.57
679.024	37.69
679.21	37
679.397	36.82
679.583	37.23
679.769	36.49
679.955	36.28
680.142	35.78
680.328	35.92
680.514	35.83
680.7	35.29
680.886	35.4
681.073	35.4
681.259	35.81
681.445	36.15
681.631	36.02
681.817	36.4
682.003	36.42
682.189	36.55
682.375	36.48
682.561	36.66
682.747	36.47
682.933	36.4
683.119	36.38
683.305	37.03
683.491	37.07
683.677	37.59
683.863	37.66
684.049	37.72
684.235	37.99
684.42	38.28
684.606	38.32
684.792	39.28
684.978	39.73
685.164	39.54
685.349	39.45
685.535	39.1
685.721	38.9
685.907	38.79
686.092	38.9
686.278	38.75
686.464	38.64
686.649	38.68
686.835	38.42
687.021	38.44
687.206	38.81
687.392	38.27
687.577	38.72
687.763	38.58
687.948	39.01
688.134	39.02
688.319	39.21
688.505	39.06
688.69	38.46
688.876	38.07
689.061	37.6
689.247	37.82
689.432	38.27
689.618	37.74
689.803	37.49
689.988	37.47
690.174	37.52
690.359	37.25
690.544	37.27
690.73	38.15
690.915	38.44
691.1	38.67
691.285	38.39
691.471	38.01
691.656	38.65
691.841	38.81
692.026	38.6
692.211	38.41
692.396	38.78
692.582	39.51
692.767	39.35
692.952	39.32
693.137	39.57
693.322	39.75
693.507	39.97
693.692	39.75
693.877	39.79
694.062	39.98
694.247	40.72
694.432	40.55
694.617	39.85
694.802	39.52
694.987	39.84
695.172	39.77
695.357	39.39
695.541	39.29
695.726	38.95
695.911	39.15
696.096	38.78
696.281	38.37
696.466	38.62
696.65	38.77
696.835	39
697.02	37.89
697.204	38.19
697.389	38.13
697.574	38.2
697.759	38.39
697.943	38.19
698.128	38.44
698.312	38.55
698.497	38.36
698.682	38.12
698.866	38.13
699.051	38.76
699.235	38.64
699.42	38.59
699.604	38.44
699.789	38.71
699.973	38.75
700.158	38.44
700.342	38.44
700.527	38.45
700.711	38.49
700.895	38.45
701.08	38.04
701.264	37.63
701.448	37.57
701.633	37.57
701.817	37.57
702.001	38.11
702.186	38.46
702.37	37.66
702.554	37.49
702.738	38.32
702.923	38.4
703.107	39.47
703.291	39.84
703.475	40.56
703.659	40.48
703.843	40.07
704.027	39.11
704.212	38.63
704.396	40.01
704.58	40.8
704.764	39.57
704.948	39.74
705.132	39.09
705.316	39.41
705.5	39.88
705.684	40.09
705.868	40.39
706.052	41.15
706.235	42.06
706.419	41.25
706.603	40.76
706.787	40.94
706.971	40.6
707.155	40.74
707.339	39.98
707.522	39.36
707.706	39.17
707.89	39.1
708.074	39.18
708.257	38.72
708.441	39.36
708.625	39.11
708.808	38.82
708.992	38.97
709.176	38.37
709.359	38.66
709.543	38.45
709.727	38.83
709.91	38.34
710.094	37.92
710.277	38.3
710.461	38.45
710.644	39.41
710.828	39.95
711.011	39.49
711.195	40.19
711.378	40.06
711.562	40.04
711.745	39.59
711.928	39.89
712.112	40.15
712.295	39.78
712.478	39.48
712.662	38.97
712.845	39.14
713.028	39.07
713.212	39.17
713.395	39.06
713.578	38.96
713.761	39.38
713.945	39.7
714.128	39.5
714.311	38.91
714.494	38.22
714.677	38.18
714.86	37.93
715.043	38.54
715.227	37.83
715.41	38.05
715.593	38.41
715.776	38.59
715.959	37.35
716.142	37.24
716.325	37.66
716.508	37.99
716.691	38.02
716.874	37.8
717.057	36.96
717.239	37.74
717.422	37.32
717.605	37.18
717.788	36.89
717.971	38.77
718.154	39.18
718.337	39.38
718.519	39.39
718.702	38.99
718.885	38.83
719.068	39.28
719.25	39.14
719.433	39.99
719.616	39.56
719.798	39.67
719.981	39.32
720.164	38.88
720.346	39.21
720.529	40.14
720.712	39.89
720.894	40.62
721.077	40.21
721.259	40.5
721.442	40.44
721.624	41.83
721.807	41.97
721.989	41.67
722.172	41.75
722.354	42.34
722.537	41.29
722.719	41.72
722.901	42.04
723.084	43.02
723.266	43.05
723.448	42.95
723.631	42.96
723.813	43.32
723.995	42.98
724.178	43.4
724.36	42.27
724.542	41.75
724.724	42.07
724.907	41.31
725.089	41.36
725.271	40.84
725.453	40.98
725.635	40.17
725.817	40.19
725.999	40.31
726.181	40.82
726.364	40.93
726.546	41.34
726.728	41.06
726.91	41.6
727.092	41.55
727.274	41.95
727.456	41.9
727.638	41.7
727.819	42.21
728.001	42.21
728.183	41.46
728.365	41.56
728.547	41.51
728.729	42.21
728.911	42.65
729.093	43.13
729.274	41.77
729.456	41.44
729.638	41.78
729.82	40.21
730.001	40.08
730.183	40.31
730.365	40.57
730.546	40.62
730.728	40.4
730.91	39.58
731.091	40.09
731.273	41.15
731.455	41.34
731.636	41.48
731.818	43.06
731.999	42.92
732.181	42.88
732.362	42.06
732.544	42.96
732.725	42.24
732.907	42.55
733.088	42.07
733.27	42.17
733.451	41.97
733.633	41.87
733.814	40.87
733.995	40.67
734.177	41.3
734.358	41.85
734.539	41.08
734.721	42
734.902	42.29
735.083	42.1
735.264	42.01
735.446	42.17
735.627	42.2
735.808	42.06
735.989	43.62
736.17	42.97
736.351	43.34
736.533	43.02
736.714	42.37
736.895	41.84
737.076	41.74
737.257	41.24
737.438	41.72
737.619	42.24
737.8	41.88
737.981	41.68
738.162	41.49
738.343	40.58
738.524	41.55
738.705	41.58
738.886	41.32
739.067	40.29
739.247	41.55
739.428	40.58
739.609	39
739.79	40.07
739.971	39.27
740.151	39.28
740.332	39.55
740.513	39.08
740.694	38.66
740.874	37.99
741.055	39.27
741.236	38.68
741.417	39.32
741.597	40.27
741.778	40.56
741.958	40.06
742.139	39.58
742.32	39.39
742.5	38.49
742.681	39.48
742.861	40.47
743.042	40.6
743.222	40.1
743.403	41.53
743.583	41.72
743.764	40.93
743.944	41.35
744.124	41.69
744.305	41.87
744.485	42.73
744.666	42.6
744.846	42.9
745.026	42.68
745.207	43.16
745.387	41.87
745.567	42.54
745.747	42.52
745.928	41.96
746.108	42.36
746.288	42.69
746.468	43.75
746.648	43.69
746.829	44.02
747.009	43.65
747.189	43.49
747.369	42.71
747.549	41.1
747.729	42.09
747.909	43.18
748.089	43.78
748.269	43.27
748.449	42.59
748.629	42.68
748.809	41.65
748.989	41.56
749.169	41.1
749.349	42.51
749.529	43.97
749.709	43.09
749.889	43.64
750.068	42.43
750.248	43.66
750.428	42.9
750.608	42.2
750.788	43.22
750.967	43.85
751.147	44.14
751.327	43.32
751.507	43.08
751.686	43.12
751.866	43.45
752.046	43.5
752.225	43.03
752.405	43.49
752.585	43.57
752.764	43.49
752.944	42.61
753.123	43.71
753.303	43.4
753.482	43.04
753.662	43.33
753.841	42.34
754.021	42.41
754.2	42.89
754.38	42.69
754.559	43.22
754.739	43.4
754.918	43.29
755.097	41.97
755.277	42.39
755.456	41.88
755.635	40.75
755.815	41.62
755.994	42.39
756.173	41.06
756.352	41.4
756.532	40.83
756.711	39.56
756.89	40.87
757.069	41.63
757.248	41.91
757.427	42.34
757.607	42.77
757.786	41.66
757.965	41.17
758.144	41.74
758.323	41.98
758.502	42.09
758.681	41.72
758.86	41.37
759.039	40.87
759.218	40.55
759.397	41.21
759.576	40.71
759.755	40.4
759.934	40.27
760.113	40.58
760.291	40.45
760.47	40.85
760.649	41.82
760.828	41.76
761.007	41.48
761.186	41.63
761.364	41.38
761.543	41.99
761.722	43.11
761.901	42.13
762.079	42.9
762.258	42.7
762.437	42.25
762.615	41.44
762.794	41.46
762.972	41.68
763.151	40.68
763.33	40.36
763.508	40.48
763.687	40.13
763.865	40.72
764.044	40.18
764.222	39.61
764.401	39.64
764.579	40.3
764.758	39.72
764.936	40.84
765.114	41.49
765.293	41.3
765.471	41.1
765.65	41.35
765.828	42.08
766.006	42.25
766.184	43.46
766.363	43.67
766.541	43.72
766.719	43.6
766.898	42.83
767.076	42.58
767.254	43.3
767.432	43.41
767.61	42.53
767.788	41.79
767.967	39.99
768.145	38.71
768.323	39.16
768.501	38.26
768.679	38.51
768.857	37.73
769.035	39.41
769.213	41.04
769.391	41
769.569	40.76
769.747	42.06
769.925	42.79
770.103	43.37
770.281	41.73
770.459	42.57
770.636	42.44
770.814	43.28
770.992	41.91
771.17	39.4
771.348	39.57
771.525	41.63
771.703	40.25
771.881	42.14
772.059	43.38
772.236	44.07
772.414	44.12
772.592	45.58
772.769	43.74
772.947	42.96
773.125	43.54
773.302	45.45
773.48	46.58
773.657	47.19
773.835	46.6
774.013	46.03
774.19	46.89
774.368	46.44
774.545	46.09
774.723	47.37
774.9	48.31
775.077	46.93
775.255	46.21
775.432	44.31
775.61	42.23
775.787	40.18
775.964	39.33
776.142	38.95
776.319	39.92
776.496	38.74
776.674	40.19
776.851	42.1
777.028	42.82
777.205	42.36
777.382	42.8
777.56	46.81
777.737	52.26
777.914	53.75
778.091	54.74
778.268	53.39
778.445	54.83
778.622	52.51
778.8	51.39
778.977	52.19
779.154	56.72
779.331	54.51
779.508	52.04
779.685	48
779.862	47
780.038	44.76
780.215	47.96
780.392	48.47
780.569	51.16
780.746	50.28
780.923	49.18
781.1	43.34
781.277	44.25
781.453	43.96
781.63	42.55
781.807	43.51
781.984	44.77
782.16	43.76
782.337	43.6
782.514	41.96
782.691	42.48
782.867	43.85
783.044	45.44
783.221	46.87
783.397	46.56
783.574	49.17
783.75	47.68
783.927	49.46
784.103	50.59
784.28	49.17
784.456	49.84
784.633	50.32
784.809	50.37
784.986	49.13
785.162	49.58
785.339	49.11
785.515	47.8
785.692	48.88
785.868	48.32
786.044	48.04
786.221	48.4
786.397	48.66
786.573	48.08
786.749	47.13
786.926	47.54
787.102	45.66
787.278	46.96
787.454	49.06
787.631	48.84
787.807	47.12
787.983	46.25
788.159	47.1
788.335	46.52
788.511	46.32
788.687	45.65
788.863	46.59
789.039	47.38
789.216	48.02
789.392	47.11
789.568	46.44
789.744	48.57
789.919	48.46
790.095	47.92
790.271	48.55
790.447	47.88
790.623	49.59
790.799	50.11
790.975	50.17
791.151	49.34
791.327	48.47
791.502	48.01
791.678	47.17
791.854	46.35
792.03	46.58
792.205	43.45
792.381	43.51
792.557	42.47
792.733	40.25
792.908	40.57
793.084	40.68
793.259	40.13
793.435	41.83
793.611	42.69
793.786	41.2
793.962	39.29
794.137	42.45
794.313	44.46
794.488	46.45
794.664	48.23
794.839	46.8
795.015	45.7
795.19	46.4
795.366	47.26
795.541	45.75
795.716	45.54
795.892	45.68
796.067	44.29
796.242	44.48
796.418	42.6
796.593	40.7
796.768	41.8
796.944	43.8
797.119	42.24
797.294	42.73
797.469	42.03
797.644	41.08
797.82	43.54
797.995	42.75
798.17	41.41
798.345	42.72
798.52	43.4
798.695	42.44
798.87	39.67
799.045	40.92
799.22	38.75
799.395	39.52
799.57	43.29
799.745	42.11
799.92	41.86
800.095	44.72
800.27	43.6
800.445	42.75
800.62	41.81
800.795	43.7
800.97	44.31
801.145	43.85
801.319	43.83
801.494	43.35
801.669	44.69
801.844	46.76
802.018	43.03
802.193	43.11
802.368	42.55
802.543	44.2
802.717	48.7
802.892	47.53
803.067	51.39
803.241	51.63
803.416	50.85
803.59	50.76
803.765	48.44
803.94	47.48
804.114	44.58
804.289	47.31
804.463	47.74
804.638	40.79
804.812	42.1
804.986	40.92
805.161	42.87
805.335	42.32
805.51	40.92
805.684	42.78
805.858	43.74
806.033	46.68
806.207	45.76
806.381	48.74
806.556	54.22
806.73	55.64
806.904	55.14
807.078	54.68
807.253	56.41
807.427	56.45
807.601	56.61
807.775	56.11
807.949	57.36
808.123	55.2
808.298	51.94
808.472	49.43
808.646	48.67
808.82	44.26
808.994	42.54
809.168	41.46
809.342	43.44
809.516	44.11
809.69	46.65
809.864	45.62
810.038	46.11
810.212	48.47
810.385	47.24
810.559	48.53
810.733	49.86
810.907	50.41
811.081	48.7
811.255	46.59
811.428	44.72
811.602	44.38
811.776	42.75
811.95	45.7
812.123	46.06
812.297	48.49
812.471	45.11
812.644	46.33
812.818	43.54
812.992	46.68
813.165	45.18
813.339	45.57
813.512	46.25
813.686	46.27
813.86	46.17
814.033	42.04
814.207	39.2
814.38	40
814.554	40.59
814.727	43.67
814.9	46.5
815.074	45.11
815.247	43.44
815.421	40.45
815.594	43.74
815.767	42.95
815.941	47.12
816.114	51.25
816.287	52.55
816.46	52.62
816.634	49.72
816.807	48.49
816.98	53.13
817.153	55.95
817.327	57.03
817.5	55.69
817.673	60.6
817.846	58.94
818.019	58.13
818.192	57.21
818.365	56.65
818.538	60.1
818.711	57.43
818.884	53.8
819.057	53.6
819.23	52.26
819.403	51.35
819.576	47.82
819.749	48.19
819.922	44.87
820.095	44.73
820.268	43.26
820.441	43.41
820.614	43.78
820.786	44.78
820.959	44.81
821.132	43.03
821.305	41.97
821.477	41.39
821.65	41.28
821.823	42.45
821.996	42.47
822.168	43.31
822.341	42.2
822.514	42.54
822.686	41.53
822.859	40.8
823.031	41.34
823.204	41.42
823.376	41.21
823.549	41.3
823.722	41.72
823.894	42.17
824.067	41.37
824.239	41.31
824.411	40.47
824.584	41.42
824.756	41.58
824.929	41.13
825.101	40.87
825.273	41.03
825.446	40.98
825.618	40.9
825.79	40.23
825.963	40.03
826.135	40.65
826.307	41.03
826.479	40.73
826.652	41.04
826.824	42.44
826.996	42.32
827.168	42.29
827.34	42.14
827.512	42.11
827.684	41.98
827.856	42.87
828.029	42.71
828.201	42.93
828.373	43.64
828.545	44.05
828.717	44.57
828.889	45.51
829.061	46.55
829.232	47.84
829.404	47.04
829.576	47.44
829.748	48.22
829.92	50.41
830.092	50.85
830.264	49.65
830.436	48.79
830.607	47.92
830.779	47.15
830.951	46.44
831.123	44.94
831.294	44.91
831.466	45.72
831.638	44.94
831.809	41.95
831.981	43.59
832.153	45.41
832.324	45.3
832.496	44.2
832.667	48.56
832.839	51.31
833.011	50.98
833.182	53.53
833.354	52.85
833.525	54.7
833.697	54.7
833.868	50.57
834.039	51.71
834.211	51.93
834.382	51.54
834.554	49.62
834.725	47.17
834.896	45.34
835.068	43.91
835.239	42.55
835.41	42.77
835.581	42.46
835.753	44.23
835.924	42.47
836.095	41.96
836.266	41.8
836.438	41.85
836.609	42.44
836.78	43.16
836.951	45.5
837.122	47.49
837.293	46.88
837.464	46.21
837.635	48.06
837.806	48.68
837.977	51.03
838.148	55.35
838.319	56.88
838.49	56.7
838.661	55.93
838.832	56.18
839.003	56.25
839.174	56.52
839.345	60.86
839.516	60.47
839.687	61.54
839.857	54.8
840.028	51.89
840.199	48.22
840.37	49.6
840.54	51.75
840.711	48.45
840.882	48.59
841.053	50.48
841.223	47.54
841.394	48.6
841.564	53.18
841.735	63.09
841.906	60.48
842.076	62.1
842.247	64.08
842.417	69.41
842.588	72.1
842.758	73.29
842.929	68.33
843.099	73.91
843.27	70.63
843.44	67.69
843.611	65.21
843.781	70.4
843.951	71.17
844.122	67.85
844.292	61.29
844.462	66.37
844.633	67.77
844.803	66.3
844.973	62.51
845.144	63.67
845.314	58.93
845.484	59.65
845.654	58.27
845.824	58.67
845.995	58.45
846.165	69.26
846.335	60.18
846.505	58.45
846.675	71.35
846.845	70.33
847.015	77.93
847.185	85.78
847.355	87.48
847.525	89.95
847.695	94.29
847.865	90.66
848.035	74.09
848.205	75.45
848.375	73.79
848.545	66.48
848.715	70.03
848.884	60.54
849.054	58.22
849.224	51.58
849.394	48.61
849.564	46.76
849.733	58.79
849.903	54.4
850.073	56.51
850.243	61.68
850.412	58.17
850.582	57.92
850.752	61.03
850.921	55.59
851.091	66.64
851.26	76.65
851.43	74.94
851.599	67.27
851.769	70.25
851.939	62.93
852.108	51.2
852.278	61.74
852.447	60.37
852.616	61.68
852.786	65.18
852.955	62.62
853.125	53.39
853.294	59.58
853.463	60.99
853.633	70.75
853.802	82.43
853.971	104.5
854.141	96.63
854.31	107.55
854.479	106.35
854.648	129.02
854.818	106.36
854.987	117.34
855.156	106.87
855.325	102.62
855.494	103.97
855.663	108.3
855.832	113.49
856.001	105.67
856.171	90.74
856.34	89.25
856.509	77.81
856.678	88.67
856.847	81.42
857.016	72.94
857.185	71.51
857.353	74.26
857.522	62.95
857.691	40.1
857.86	45.77
858.029	54.78
858.198	62.79
858.367	63.29
858.535	61.53
858.704	74.3
858.873	90.73
859.042	83.43
859.21	79
859.379	63.5
859.548	71.72
859.717	76.9
859.885	81.02
860.054	67.91
860.222	62.49
860.391	70.93
860.56	69.2
860.728	66.15
860.897	75.63
861.065	76.45
861.234	85.14
861.402	75.42
861.571	70.47
861.739	60.62
861.908	72.55
862.076	89.66
862.244	77.09
862.413	74.71
862.581	77.44
862.749	75.12
862.918	68.69
863.086	70.63
863.254	71.41
863.423	66.39
863.591	61.7
863.759	58
863.927	30.82
864.096	29.37
864.264	29.75
864.432	26.48
864.6	34.05
864.768	35.96
864.936	28.54
865.104	37.85
865.272	51.46
865.44	63.66
865.608	68.34
865.776	78.99
865.944	89.91
866.112	95.89
866.28	103.21
866.448	89.8
866.616	108.91
866.784	108.99
866.952	108.22
867.12	117.7
867.288	111.78
867.455	113.48
867.623	113.17
867.791	125.88
867.959	116.63
868.127	101.13
868.294	90.04
868.462	66.32
868.63	62.85
868.797	61.86
868.965	44.32
869.133	39.53
869.3	45.28
869.468	49.07
869.636	32.58
869.803	36.98
869.971	48.6
870.138	50.69
870.306	55.48
870.473	47.32
870.641	39.14
870.808	37.26
870.975	42.77
871.143	31.04
871.31	34.44
871.478	22.44
871.645	20.69
871.812	25.67
871.98	26.1
872.147	14.97
872.314	35.5
872.482	37.89
872.649	45.59
872.816	40.28
872.983	51.7
873.15	52.59
873.318	74.09
873.485	84.32
873.652	69.3
873.819	68.09
873.986	79.14
874.153	92.29
874.32	101.98
874.487	110.69
874.654	127.47
874.821	134.45
874.988	134.35
875.155	140.05
875.322	113.55
875.489	127.32
875.656	126.11
875.823	113.49
875.99	87.93
876.157	71.42
876.324	64.37
876.49	59.11
876.657	65.29
876.824	61.19
876.991	51.84
877.157	52.38
877.324	55.34
877.491	56.69
877.658	58.07
877.824	61.27
877.991	58.72
878.157	61.63
878.324	69.39
878.491	64.46
878.657	65.93
878.824	68.1
878.99	65.13
879.157	65.91
879.323	61.66
879.49	59.78
879.656	63.8
879.823	75.55
879.989	77.52
880.156	74.32
880.322	67.84
880.488	64.36
880.655	62
880.821	71.53
880.987	68.87
881.154	73.71
881.32	78.78
881.486	76.27
881.652	71.22
881.819	64.95
881.985	60.67
882.151	58.68
882.317	53.51
882.483	54.69
882.649	53.46
882.816	51.97
882.982	51.89
883.148	49.19
883.314	45.55
883.48	44.52
883.646	45.78
883.812	47.84
883.978	48.48
884.144	50.24
884.31	50.22
884.476	48.47
884.642	48.13
884.807	47.14
884.973	46.23
885.139	48.1
885.305	48.39
885.471	47.34
885.637	46.93
885.802	45.85
885.968	47.77
886.134	48.61
886.3	50.11
886.465	50.84
886.631	51.49
886.797	54.59
886.962	53.6
887.128	57.43
887.293	61.69
887.459	56.53
887.625	57.62
887.79	57.96
887.956	54.81
888.121	52.21
888.287	54.04
888.452	53.55
888.618	51.85
888.783	55.51
