Data from CB_048_Reflection_2.txt Node
Date: Wed Nov 11 22:29:08 EST 2015
User: robert
Spectrometer: USB4E03001
Autoset integration time: false
Trigger mode: 4
Integration Time (sec): 1.000000E-1
Scans to average: 15
Electric dark correction enabled: true
Nonlinearity correction enabled: false
Boxcar width: 5
Stray light correction enabled: false
XAxis mode: Wavelengths
Stop averaging: false
Number of Pixels in Spectrum: 3648
>>>>>Begin Spectral Data<<<<<
177.566	-5.2
177.785	-723.68
178.005	44.25
178.225	182.25
178.445	74.15
178.665	58.81
178.885	164.58
179.105	-10.57
179.324	47.21
179.544	76.76
179.764	126.58
179.984	60.61
180.204	44.01
180.423	84.65
180.643	66.33
180.863	66.81
181.083	60.01
181.302	43.82
181.522	44.7
181.742	41.01
181.961	40.5
182.181	30.83
182.401	55.63
182.621	60.81
182.84	53.4
183.06	55.74
183.279	51.63
183.499	66.03
183.719	69.07
183.938	70.16
184.158	80.44
184.377	86.19
184.597	98.22
184.816	97.71
185.036	92.15
185.256	99.61
185.475	108.2
185.695	154.06
185.914	148.58
186.134	148.24
186.353	172.71
186.572	115.18
186.792	94.72
187.011	75.93
187.231	61.28
187.45	62.86
187.67	28.77
187.889	-1.53
188.108	7.03
188.328	4.05
188.547	7.25
188.766	-3.99
188.986	8.67
189.205	9.43
189.424	21.78
189.644	-2.4
189.863	14.25
190.082	37.14
190.302	46.19
190.521	63.97
190.74	85.21
190.959	91.91
191.178	79.1
191.398	61.53
191.617	83.49
191.836	73.55
192.055	69.02
192.274	48.12
192.494	35.25
192.713	54.11
192.932	43.34
193.151	35.45
193.37	27.56
193.589	34.46
193.808	24.38
194.027	0.57
194.246	28.74
194.465	57.22
194.685	69.67
194.904	76.86
195.123	56.89
195.342	49.04
195.561	50.43
195.78	51.72
195.999	34.95
196.218	42.45
196.436	36.02
196.655	31.14
196.874	21.93
197.093	23.54
197.312	41.44
197.531	68.32
197.75	82.01
197.969	87.99
198.188	59.05
198.407	70.09
198.625	78.11
198.844	79.05
199.063	71.03
199.282	61.23
199.501	69.83
199.719	63.78
199.938	24.98
200.157	11.28
200.376	17.98
200.594	30.44
200.813	26.42
201.032	9.32
201.251	29.86
201.469	25.15
201.688	32.19
201.907	17.8
202.125	34.1
202.344	44.76
202.563	53.34
202.781	62.25
203	59.54
203.218	60.01
203.437	70.94
203.656	62.49
203.874	63.59
204.093	56.64
204.311	59.45
204.53	36.81
204.748	42.9
204.967	37.96
205.185	34.61
205.404	42.05
205.622	63.48
205.841	49.78
206.059	27.37
206.278	58.92
206.496	73.31
206.715	92.02
206.933	100.88
207.151	108.28
207.37	116.42
207.588	116.87
207.806	115.18
208.025	112.69
208.243	117.67
208.461	111.74
208.68	94.05
208.898	97.73
209.116	68.96
209.335	53.1
209.553	35
209.771	25.83
209.989	26.57
210.208	15.83
210.426	-8.89
210.644	-8.77
210.862	7.57
211.081	31.81
211.299	29.2
211.517	87.93
211.735	81.91
211.953	80.53
212.171	99.35
212.39	98.22
212.608	109.84
212.826	102.43
213.044	103.65
213.262	89.27
213.48	89.24
213.698	82.09
213.916	60.89
214.134	78.88
214.352	96.55
214.57	53.45
214.788	87.92
215.006	85.69
215.224	80.94
215.442	97.6
215.66	154.98
215.878	114.47
216.096	97.68
216.314	107.5
216.532	90.91
216.75	81.77
216.968	90.13
217.185	61.68
217.403	68.95
217.621	67.63
217.839	59.95
218.057	56.68
218.275	54.68
218.492	54.96
218.71	60.09
218.928	72.39
219.146	74.54
219.363	84.21
219.581	117.66
219.799	93.55
220.017	114.17
220.234	106.41
220.452	107.62
220.67	83.49
220.887	73.34
221.105	70.68
221.323	39.52
221.54	29.68
221.758	23.63
221.976	14.71
222.193	21.25
222.411	15.53
222.629	19.52
222.846	23.41
223.064	19.77
223.281	28.6
223.499	31.44
223.716	36.75
223.934	39.97
224.151	29.01
224.369	11.61
224.586	16.9
224.804	21.69
225.021	21.65
225.239	19.55
225.456	26.23
225.674	23.82
225.891	25.12
226.108	30.42
226.326	13.6
226.543	17.09
226.76	39.42
226.978	18.67
227.195	20.91
227.413	21.58
227.63	26.34
227.847	19.39
228.064	17.32
228.282	15.06
228.499	12.9
228.716	16.43
228.934	15.93
229.151	8.56
229.368	11.18
229.585	11.15
229.802	8.13
230.02	2.63
230.237	6.71
230.454	4.3
230.671	3.64
230.888	2.66
231.105	2.77
231.323	5.68
231.54	11.59
231.757	8.51
231.974	5.04
232.191	7.92
232.408	11.01
232.625	9.53
232.842	14.49
233.059	14.5
233.276	14.85
233.493	14.14
233.71	13.67
233.927	12.45
234.144	13.43
234.361	16.76
234.578	19.47
234.795	19.81
235.012	22.04
235.229	20.33
235.446	23.5
235.663	23.58
235.879	23.38
236.096	19.6
236.313	18.23
236.53	20.85
236.747	22.88
236.964	20.08
237.181	23
237.397	16.62
237.614	18.66
237.831	12.66
238.048	18.21
238.264	14.86
238.481	18.85
238.698	22.07
238.915	27.21
239.131	20.99
239.348	20.75
239.565	17.29
239.781	18.42
239.998	16.61
240.215	17.75
240.431	11.12
240.648	15.95
240.865	11.72
241.081	14.79
241.298	12.4
241.514	14.08
241.731	13.97
241.947	13.31
242.164	13.36
242.38	12.57
242.597	12.27
242.814	14.93
243.03	14.45
243.246	15.15
243.463	12.79
243.679	13.79
243.896	15.51
244.112	16.44
244.329	19.91
244.545	17.17
244.762	19.23
244.978	21.46
245.194	20.35
245.411	18.81
245.627	19.31
245.843	18.92
246.06	17.2
246.276	14.13
246.492	12.29
246.709	10.35
246.925	13.2
247.141	13.39
247.357	12.48
247.574	12.54
247.79	11.67
248.006	11.63
248.222	12.18
248.439	12.29
248.655	13.17
248.871	13.59
249.087	13.58
249.303	13.1
249.519	12.02
249.736	11.43
249.952	10.95
250.168	13.04
250.384	11.7
250.6	9.98
250.816	10.13
251.032	9.26
251.248	9.55
251.464	8.68
251.68	9.22
251.896	9.39
252.112	10.27
252.328	9.37
252.544	8.52
252.76	8.7
252.976	8.21
253.192	7.55
253.408	8.75
253.624	10.84
253.84	11.48
254.056	9.9
254.272	12.34
254.487	13.46
254.703	14.52
254.919	16.73
255.135	18.24
255.351	21.08
255.567	22.21
255.782	19.4
255.998	17.08
256.214	19.7
256.43	23.08
256.646	21.34
256.861	19.65
257.077	20.23
257.293	16.95
257.508	16.54
257.724	16.49
257.94	15.37
258.155	15.33
258.371	14.4
258.587	13.41
258.802	12.24
259.018	11.08
259.234	9.4
259.449	9.35
259.665	9.24
259.88	8.83
260.096	8.16
260.312	7.92
260.527	8.64
260.743	8.17
260.958	7.63
261.174	7.24
261.389	7.67
261.605	8.69
261.82	8.97
262.036	9.59
262.251	11.8
262.466	12.13
262.682	13.51
262.897	13.14
263.113	14.22
263.328	13.82
263.543	12.8
263.759	12.14
263.974	12.92
264.189	12.5
264.405	14.15
264.62	10.51
264.835	9.47
265.051	6.78
265.266	5.4
265.481	5.3
265.696	6.83
265.912	8.46
266.127	8.86
266.342	7.53
266.557	6.71
266.773	3.65
266.988	4.96
267.203	4.61
267.418	6.86
267.633	7.52
267.848	6.72
268.064	5.61
268.279	5.23
268.494	3.73
268.709	6.07
268.924	7.38
269.139	9.02
269.354	9.23
269.569	9.58
269.784	9.66
269.999	9.72
270.214	10.13
270.429	11.14
270.644	11.35
270.859	12.82
271.074	12.52
271.289	11.42
271.504	10.91
271.719	10.71
271.934	10.87
272.149	9.93
272.363	11.4
272.578	11.63
272.793	11.29
273.008	10.01
273.223	8.81
273.438	7.04
273.653	8.66
273.867	9.21
274.082	9
274.297	9.73
274.512	9.72
274.726	7.08
274.941	7.3
275.156	7.59
275.371	7.75
275.585	9.01
275.8	10.13
276.015	8.73
276.229	8.02
276.444	8
276.659	7.51
276.873	8.08
277.088	8.7
277.302	8.83
277.517	8.55
277.732	10.85
277.946	9.63
278.161	10.85
278.375	11.29
278.59	12.49
278.804	12.51
279.019	11.76
279.233	10.04
279.448	10.79
279.662	11.31
279.877	10.45
280.091	9.72
280.306	11.38
280.52	9.55
280.735	9.03
280.949	8.47
281.163	9.6
281.378	9.29
281.592	10.5
281.806	10.28
282.021	8.9
282.235	8.63
282.449	7.97
282.664	7.31
282.878	7.18
283.092	8.04
283.307	9.67
283.521	9.09
283.735	10.65
283.949	10.41
284.164	10.06
284.378	10.91
284.592	11.98
284.806	12.55
285.02	12.59
285.234	13.11
285.449	11.98
285.663	11.05
285.877	10.51
286.091	8.98
286.305	8.76
286.519	9.47
286.733	9.45
286.947	9.31
287.161	8.06
287.375	8.64
287.589	9.12
287.803	8.82
288.017	7.06
288.231	7.36
288.445	9.34
288.659	9.61
288.873	9.04
289.087	9.14
289.301	8.76
289.515	9.94
289.729	9.09
289.943	8.21
290.157	8.9
290.371	9.47
290.584	8.98
290.798	8.12
291.012	8.33
291.226	8.9
291.44	8.51
291.654	8.76
291.867	8.84
292.081	9.26
292.295	9.97
292.509	10.41
292.722	10.4
292.936	11.08
293.15	10.99
293.364	11.15
293.577	10.12
293.791	11.4
294.005	9.33
294.218	8.99
294.432	9.69
294.645	9.16
294.859	8.47
295.073	9.13
295.286	8.73
295.5	8.85
295.713	8.22
295.927	8.03
296.14	7.87
296.354	10.06
296.568	10.3
296.781	9.48
296.994	10.47
297.208	12
297.421	11.88
297.635	12
297.848	11.87
298.062	11.94
298.275	12.67
298.489	12.76
298.702	12.45
298.915	12.7
299.129	13.68
299.342	13.18
299.555	12.6
299.769	13.24
299.982	13.63
300.195	14.1
300.409	14.73
300.622	15.03
300.835	13.49
301.048	13.47
301.262	13.42
301.475	13.04
301.688	13.48
301.901	12.14
302.115	11.79
302.328	12.24
302.541	12.36
302.754	12.37
302.967	11.34
303.18	13.61
303.393	12.55
303.607	11.65
303.82	11.88
304.033	10.81
304.246	11.06
304.459	11.22
304.672	11.11
304.885	11.2
305.098	10.83
305.311	11.01
305.524	10.82
305.737	12.17
305.95	12.58
306.163	12.83
306.376	14.2
306.589	14.19
306.802	14.03
307.015	13.95
307.228	14.24
307.44	14.58
307.653	16.41
307.866	15.75
308.079	15.89
308.292	15.86
308.505	15.47
308.718	14.54
308.93	15.82
309.143	15.65
309.356	15.62
309.569	15.1
309.781	14.59
309.994	13.09
310.207	12.73
310.42	12.9
310.632	14.46
310.845	14.29
311.058	14
311.27	13.72
311.483	13.67
311.696	12.52
311.908	13.67
312.121	13.97
312.333	14.3
312.546	14.47
312.759	14.47
312.971	13.01
313.184	12.77
313.396	13.11
313.609	13.2
313.821	12.95
314.034	14.61
314.246	13.22
314.459	12.85
314.671	13.61
314.884	14.04
315.096	14.46
315.309	14.36
315.521	14.58
315.733	14.95
315.946	13.97
316.158	14.69
316.371	14.41
316.583	14.77
316.795	14.83
317.008	15.09
317.22	14.85
317.432	14.56
317.644	14.54
317.857	15.28
318.069	15.34
318.281	13.81
318.494	13.92
318.706	14.38
318.918	13.68
319.13	15.96
319.342	15.26
319.555	15.84
319.767	15.27
319.979	15.96
320.191	15.91
320.403	16.56
320.615	17.87
320.827	18.16
321.039	16.62
321.252	16.04
321.464	14.4
321.676	14.04
321.888	13.82
322.1	13.75
322.312	13.76
322.524	13.49
322.736	12.21
322.948	13.46
323.16	12.24
323.372	13.67
323.584	15.07
323.796	14.92
324.007	14.88
324.219	15.08
324.431	15.19
324.643	14.95
324.855	15.87
325.067	16.87
325.279	16.54
325.491	18.23
325.702	17.51
325.914	17.48
326.126	17.18
326.338	16.35
326.55	16.92
326.761	17.19
326.973	17.83
327.185	16.81
327.396	16.25
327.608	15.46
327.82	15.72
328.032	15.99
328.243	16.56
328.455	16.7
328.666	18.75
328.878	17.74
329.09	17.53
329.301	17.22
329.513	17.9
329.725	18.46
329.936	19.96
330.148	18.98
330.359	18.81
330.571	18.36
330.782	18.32
330.994	17.46
331.205	18.59
331.417	19
331.628	18.63
331.84	17.85
332.051	18.06
332.262	17.9
332.474	18.7
332.685	19.26
332.897	19.41
333.108	20.49
333.319	21.42
333.531	21.6
333.742	22.73
333.953	23.41
334.165	23.82
334.376	24.06
334.587	23.41
334.799	22.98
335.01	23.86
335.221	23.15
335.432	23.15
335.644	22.72
335.855	22.22
336.066	21.88
336.277	21.95
336.488	22.34
336.7	22.07
336.911	21.85
337.122	22.16
337.333	20.99
337.544	22.29
337.755	21.82
337.966	21.65
338.177	21.2
338.388	20.01
338.599	19.79
338.811	19.14
339.022	18.8
339.233	20.17
339.444	19.39
339.655	19.56
339.866	19.19
340.076	18.97
340.287	19.88
340.498	19.36
340.709	20.64
340.92	21.31
341.131	21.25
341.342	21.93
341.553	21.47
341.764	21.61
341.975	21.64
342.185	21.78
342.396	21.82
342.607	21.73
342.818	21.98
343.029	21.5
343.239	21.48
343.45	21.63
343.661	20.49
343.872	19.76
344.082	19.74
344.293	19.97
344.504	18.76
344.714	19.11
344.925	18.54
345.136	18.3
345.346	18.31
345.557	17.36
345.768	16.57
345.978	17.87
346.189	18.57
346.399	18.68
346.61	18.52
346.821	19.78
347.031	19.46
347.242	19.07
347.452	19.84
347.663	19.69
347.873	20.13
348.084	21.39
348.294	20.89
348.504	20.3
348.715	20.59
348.925	20.73
349.136	20.12
349.346	20.17
349.557	20.72
349.767	20.41
349.977	20.35
350.188	20.14
350.398	19.03
350.608	18.12
350.819	18.11
351.029	17.82
351.239	17.19
351.449	17.69
351.66	16.92
351.87	16.72
352.08	16.99
352.29	17.15
352.501	17.09
352.711	17.63
352.921	18.01
353.131	18.6
353.341	18.62
353.552	19.09
353.762	17.77
353.972	18.65
354.182	18.01
354.392	18.11
354.602	17.67
354.812	16.86
355.022	16.77
355.232	16.91
355.442	16.92
355.652	17.22
355.862	17.43
356.072	18.09
356.282	17.89
356.492	18.96
356.702	18.73
356.912	18.59
357.122	19.1
357.332	19.9
357.542	20.24
357.752	19.51
357.962	19.08
358.171	19.22
358.381	19.3
358.591	19.29
358.801	18.37
359.011	18.41
359.221	19.08
359.43	19.44
359.64	18.88
359.85	18.56
360.06	18.73
360.269	18.82
360.479	18.3
360.689	18.48
360.899	18.75
361.108	18.98
361.318	18.83
361.528	18.32
361.737	17.8
361.947	17.84
362.156	17.47
362.366	17.98
362.576	18.07
362.785	18.56
362.995	18.52
363.204	18.16
363.414	18.1
363.623	17.99
363.833	18
364.042	18.06
364.252	17.98
364.461	18.19
364.671	17.82
364.88	17.55
365.09	16.91
365.299	16.66
365.509	16.89
365.718	17.29
365.927	17.43
366.137	17.79
366.346	18.15
366.555	18.4
366.765	18.63
366.974	18.91
367.183	19.12
367.393	19.56
367.602	19.6
367.811	19.85
368.021	19.2
368.23	19.12
368.439	18.85
368.648	18.85
368.857	18.56
369.067	18.24
369.276	17.85
369.485	17.91
369.694	17.79
369.903	17.74
370.112	17.19
370.321	17.54
370.531	18.03
370.74	18.52
370.949	18.08
371.158	17.82
371.367	18.01
371.576	17.93
371.785	17.45
371.994	17.36
372.203	17.28
372.412	17.51
372.621	17.51
372.83	16.67
373.039	16.05
373.248	16.01
373.457	16.47
373.666	16.39
373.874	16.12
374.083	16.17
374.292	15.33
374.501	15.53
374.71	14.92
374.919	14.46
375.128	15.43
375.336	15.75
375.545	15.75
375.754	15.43
375.963	15.03
376.171	15.23
376.38	15.16
376.589	15.99
376.798	15.24
377.006	15.63
377.215	15.8
377.424	15.27
377.632	14.76
377.841	14.63
378.05	14.79
378.258	15.12
378.467	14.79
378.675	14.88
378.884	14.39
379.093	14.47
379.301	14.62
379.51	14.57
379.718	14.55
379.927	14.89
380.135	15.16
380.344	14.4
380.552	13.75
380.761	13.93
380.969	13.49
381.177	13.36
381.386	13.36
381.594	12.97
381.803	12.82
382.011	12.54
382.219	12.27
382.428	12.24
382.636	12.75
382.845	13.32
383.053	13.13
383.261	12.93
383.469	12.92
383.678	12.6
383.886	12.3
384.094	12.46
384.302	13.12
384.511	13.02
384.719	12.67
384.927	12.66
385.135	12.71
385.343	12.93
385.552	13.75
385.76	13.95
385.968	14.27
386.176	14.57
386.384	14.33
386.592	13.92
386.8	14.18
387.008	14.48
387.216	14.3
387.424	14.06
387.633	13.55
387.841	12.96
388.049	12.93
388.257	12.81
388.465	12.72
388.672	12.66
388.88	12.29
389.088	11.98
389.296	11.47
389.504	11.09
389.712	10.99
389.92	11.34
390.128	11.35
390.336	11.17
390.544	11.59
390.751	11.4
390.959	11.81
391.167	11.81
391.375	11.72
391.583	12.06
391.79	12.14
391.998	12.12
392.206	11.99
392.414	12.12
392.621	11.89
392.829	11.67
393.037	11.52
393.244	11.18
393.452	11.08
393.66	11.09
393.867	10.95
394.075	11.18
394.283	11.1
394.49	11.23
394.698	11.25
394.905	11.66
395.113	11.37
395.32	11.63
395.528	11.41
395.735	11.48
395.943	11.49
396.15	11.36
396.358	11.25
396.565	11.43
396.773	11.29
396.98	11.13
397.188	10.86
397.395	10.97
397.602	10.83
397.81	11.39
398.017	11.09
398.225	10.85
398.432	11.18
398.639	11.22
398.847	11.06
399.054	10.9
399.261	10.82
399.468	10.99
399.676	10.95
399.883	10.88
400.09	10.25
400.297	10.42
400.505	10.64
400.712	10.53
400.919	10.55
401.126	10.66
401.333	10.44
401.54	10.42
401.748	10.25
401.955	10.5
402.162	10.53
402.369	10.91
402.576	10.99
402.783	10.89
402.99	10.24
403.197	9.9
403.404	9.56
403.611	9.98
403.818	9.75
404.025	9.76
404.232	9.6
404.439	9.63
404.646	9.27
404.853	8.96
405.06	8.88
405.267	9.11
405.474	8.98
405.681	9.01
405.887	9.2
406.094	9.4
406.301	9.42
406.508	9.13
406.715	8.93
406.922	9.09
407.128	9.39
407.335	8.96
407.542	8.95
407.749	9.03
407.955	9.17
408.162	8.6
408.369	8.36
408.575	8.09
408.782	8.36
408.989	8.7
409.195	8.65
409.402	8.78
409.609	9.13
409.815	9.15
410.022	9.29
410.228	9.25
410.435	9.42
410.642	9.32
410.848	9.34
411.055	9.37
411.261	9.13
411.468	9.13
411.674	9.05
411.881	8.93
412.087	8.75
412.294	8.85
412.5	9.09
412.706	8.93
412.913	9.03
413.119	9.09
413.326	9.22
413.532	9.19
413.738	9.31
413.945	9.04
414.151	9.02
414.357	8.97
414.564	8.76
414.77	8.51
414.976	8.71
415.182	8.77
415.389	8.56
415.595	8.31
415.801	8.43
416.007	8.25
416.214	8.11
416.42	8.4
416.626	8.6
416.832	8.66
417.038	8.75
417.244	8.63
417.45	8.63
417.657	8.8
417.863	8.78
418.069	8.37
418.275	8.53
418.481	8.61
418.687	8.46
418.893	8.31
419.099	8.38
419.305	8.18
419.511	8.16
419.717	8.29
419.923	8.18
420.129	8.12
420.335	8.3
420.541	8.16
420.746	8.06
420.952	8.07
421.158	8.08
421.364	7.91
421.57	7.84
421.776	7.85
421.982	7.69
422.187	7.7
422.393	7.66
422.599	7.61
422.805	7.75
423.01	7.84
423.216	7.71
423.422	7.83
423.628	7.97
423.833	7.99
424.039	7.98
424.245	8.16
424.45	8.21
424.656	8.27
424.862	8.31
425.067	8.28
425.273	8.41
425.478	8.46
425.684	8.33
425.889	8.25
426.095	8.47
426.301	8.36
426.506	8.3
426.712	8.13
426.917	8.29
427.123	8.29
427.328	8.05
427.533	7.8
427.739	7.76
427.944	7.82
428.15	7.88
428.355	7.77
428.561	7.79
428.766	7.71
428.971	7.77
429.177	7.67
429.382	7.61
429.587	7.67
429.793	7.61
429.998	7.78
430.203	7.64
430.408	7.59
430.614	7.65
430.819	7.71
431.024	7.69
431.229	7.98
431.434	7.76
431.64	7.83
431.845	7.88
432.05	7.98
432.255	7.74
432.46	7.7
432.665	7.46
432.87	7.41
433.076	7.6
433.281	7.58
433.486	7.37
433.691	7.44
433.896	7.31
434.101	7.37
434.306	7.51
434.511	7.57
434.716	7.71
434.921	7.96
435.126	8
435.331	7.78
435.535	7.75
435.74	7.69
435.945	7.5
436.15	7.85
436.355	7.76
436.56	7.59
436.765	7.44
436.97	7.39
437.174	7.39
437.379	7.2
437.584	7.38
437.789	7.39
437.993	7.61
438.198	7.9
438.403	7.69
438.608	7.58
438.812	7.67
439.017	7.88
439.222	7.93
439.426	7.86
439.631	7.83
439.836	7.69
440.04	7.5
440.245	7.35
440.45	7.16
440.654	7.26
440.859	7.29
441.063	7.14
441.268	7.05
441.472	7.04
441.677	7.02
441.881	7.11
442.086	7.15
442.29	7.28
442.495	7.31
442.699	7.33
442.904	7.11
443.108	7.14
443.312	7.14
443.517	7.09
443.721	7
443.925	6.86
444.13	6.78
444.334	6.72
444.538	6.75
444.743	6.7
444.947	6.58
445.151	6.62
445.356	6.63
445.56	6.7
445.764	6.76
445.968	6.89
446.173	6.91
446.377	6.92
446.581	7.03
446.785	7.02
446.989	7.09
447.193	7.39
447.398	7.39
447.602	7.3
447.806	7.39
448.01	7.54
448.214	7.43
448.418	7.42
448.622	7.37
448.826	7.24
449.03	7.28
449.234	7.03
449.438	6.94
449.642	6.91
449.846	7.1
450.05	7.16
450.254	6.99
450.458	7.05
450.662	7.23
450.866	7.09
451.069	6.9
451.273	6.75
451.477	6.81
451.681	6.71
451.885	6.66
452.089	6.46
452.292	6.43
452.496	6.41
452.7	6.35
452.904	6.24
453.107	6.7
453.311	6.82
453.515	7.01
453.719	7.24
453.922	7.22
454.126	7.51
454.33	7.56
454.533	7.44
454.737	7.6
454.94	7.74
455.144	7.64
455.348	7.47
455.551	7.65
455.755	7.58
455.958	7.57
456.162	7.53
456.365	7.43
456.569	7.57
456.772	7.56
456.976	7.41
457.179	7.51
457.383	7.67
457.586	7.75
457.79	7.52
457.993	7.35
458.196	7.08
458.4	6.98
458.603	6.84
458.807	6.81
459.01	6.89
459.213	7.01
459.417	6.88
459.62	6.91
459.823	6.77
460.026	6.86
460.23	6.87
460.433	7
460.636	7.02
460.839	7.12
461.042	7.11
461.246	7.1
461.449	6.91
461.652	6.87
461.855	6.81
462.058	6.77
462.261	6.73
462.464	6.75
462.668	6.72
462.871	6.84
463.074	6.64
463.277	6.71
463.48	6.63
463.683	6.69
463.886	6.68
464.089	6.86
464.292	7.06
464.495	6.88
464.698	6.99
464.901	7.03
465.104	7.07
465.306	7.19
465.509	7.14
465.712	7.1
465.915	7.23
466.118	7.16
466.321	7.01
466.524	6.88
466.726	6.99
466.929	7
467.132	7
467.335	6.82
467.538	6.89
467.74	6.92
467.943	6.95
468.146	6.83
468.348	6.94
468.551	6.86
468.754	6.9
468.956	6.9
469.159	6.8
469.362	6.82
469.564	7
469.767	6.71
469.969	6.74
470.172	6.54
470.375	6.57
470.577	6.57
470.78	6.64
470.982	6.67
471.185	6.87
471.387	6.85
471.59	6.84
471.792	6.71
471.995	6.87
472.197	6.99
472.399	6.98
472.602	6.94
472.804	7.17
473.007	7.22
473.209	7.29
473.411	7.28
473.614	7.18
473.816	7.01
474.018	7.19
474.22	7.38
474.423	7.1
474.625	7.12
474.827	7.36
475.03	7.22
475.232	7.17
475.434	7.03
475.636	6.71
475.838	7
476.04	6.88
476.243	6.79
476.445	6.43
476.647	6.39
476.849	6.68
477.051	6.42
477.253	6.39
477.455	6.24
477.657	6.17
477.859	6.29
478.061	6.42
478.263	6.6
478.465	6.68
478.667	6.78
478.869	6.84
479.071	6.71
479.273	6.91
479.475	6.81
479.677	7.05
479.879	7.04
480.081	7.13
480.283	6.96
480.485	7.17
480.686	7.03
480.888	7.12
481.09	7.21
481.292	7.23
481.494	7.15
481.695	7.05
481.897	6.89
482.099	6.93
482.301	6.83
482.502	6.79
482.704	6.68
482.906	6.68
483.107	6.68
483.309	6.61
483.511	6.56
483.712	6.61
483.914	6.66
484.115	6.69
484.317	6.62
484.519	6.67
484.72	6.68
484.922	6.61
485.123	6.65
485.325	6.62
485.526	6.65
485.728	6.71
485.929	6.61
486.131	6.61
486.332	6.66
486.534	6.7
486.735	6.66
486.936	6.64
487.138	6.74
487.339	6.68
487.541	6.68
487.742	6.69
487.943	6.65
488.144	6.67
488.346	6.64
488.547	6.66
488.748	6.72
488.95	6.72
489.151	6.64
489.352	6.65
489.553	6.65
489.755	6.58
489.956	6.55
490.157	6.56
490.358	6.56
490.559	6.55
490.76	6.48
490.961	6.42
491.163	6.44
491.364	6.48
491.565	6.47
491.766	6.59
491.967	6.69
492.168	6.67
492.369	6.66
492.57	6.61
492.771	6.65
492.972	6.64
493.173	6.54
493.374	6.51
493.575	6.54
493.776	6.44
493.976	6.37
494.177	6.28
494.378	6.42
494.579	6.46
494.78	6.63
494.981	6.57
495.182	6.5
495.382	6.85
495.583	7.02
495.784	7.08
495.985	7.13
496.185	7.07
496.386	7.2
496.587	7.2
496.788	7.13
496.988	7.03
497.189	7.08
497.39	7.17
497.59	7.13
497.791	7.1
497.992	7.15
498.192	7.25
498.393	7.16
498.593	7.11
498.794	7.14
498.994	7.18
499.195	7.32
499.395	7.35
499.596	7.44
499.796	7.34
499.997	7.32
500.197	7.46
500.398	7.35
500.598	7.35
500.799	7.42
500.999	7.44
501.199	7.57
501.4	7.47
501.6	7.53
501.801	7.45
502.001	7.68
502.201	7.67
502.402	7.52
502.602	7.54
502.802	7.72
503.002	7.6
503.203	7.37
503.403	7.31
503.603	7.35
503.803	7.46
504.003	7.49
504.204	7.42
504.404	7.65
504.604	7.56
504.804	7.91
505.004	8.02
505.204	8.13
505.404	8.29
505.604	8.29
505.804	8.34
506.005	8.25
506.205	8.43
506.405	8.36
506.605	8.11
506.805	8.26
507.005	8.22
507.204	8.1
507.404	8.16
507.604	8.25
507.804	8.49
508.004	8.56
508.204	8.54
508.404	8.48
508.604	8.69
508.804	8.82
509.003	8.88
509.203	8.87
509.403	8.99
509.603	9.13
509.803	9.15
510.002	9.02
510.202	9.07
510.402	9.28
510.602	9.41
510.801	9.32
511.001	9.34
511.201	9.38
511.4	9.23
511.6	9.3
511.8	9.29
511.999	9.38
512.199	9.29
512.398	9.34
512.598	9.34
512.797	9.36
512.997	9.52
513.197	9.42
513.396	9.47
513.596	9.6
513.795	9.65
513.994	9.75
514.194	9.81
514.393	9.99
514.593	9.96
514.792	9.96
514.992	9.91
515.191	10.03
515.39	10.23
515.59	10.36
515.789	10.41
515.988	10.45
516.188	10.46
516.387	10.44
516.586	10.62
516.786	10.63
516.985	10.72
517.184	10.77
517.383	10.8
517.582	10.79
517.782	10.76
517.981	10.89
518.18	10.92
518.379	11.07
518.578	11.23
518.777	11.21
518.976	11.33
519.176	11.25
519.375	11.34
519.574	11.34
519.773	11.54
519.972	11.62
520.171	11.72
520.37	11.87
520.569	11.77
520.768	11.68
520.967	11.97
521.166	11.99
521.365	12.27
521.564	12.47
521.762	12.47
521.961	12.46
522.16	12.55
522.359	12.38
522.558	12.34
522.757	12.42
522.956	12.45
523.154	12.21
523.353	12.3
523.552	12.25
523.751	12.23
523.949	12.4
524.148	12.5
524.347	12.52
524.546	12.74
524.744	12.7
524.943	12.73
525.142	12.88
525.34	12.99
525.539	13.05
525.737	13.16
525.936	13.22
526.135	13.3
526.333	13.28
526.532	13.23
526.73	13.28
526.929	13.46
527.127	13.6
527.326	13.64
527.524	13.7
527.723	13.82
527.921	13.88
528.12	13.92
528.318	13.95
528.516	13.94
528.715	14.09
528.913	14.15
529.112	14.16
529.31	14.12
529.508	14.12
529.707	14.18
529.905	14.13
530.103	14.08
530.301	14.04
530.5	14.06
530.698	14.2
530.896	14.25
531.094	14.2
531.293	14.31
531.491	14.51
531.689	14.64
531.887	14.73
532.085	15.02
532.283	15.11
532.481	15.23
532.68	15.26
532.878	15.22
533.076	15.28
533.274	15.33
533.472	15.29
533.67	15.3
533.868	15.41
534.066	15.49
534.264	15.43
534.462	15.53
534.66	15.64
534.858	15.77
535.056	16.02
535.253	16.08
535.451	16.16
535.649	16.26
535.847	16.43
536.045	16.53
536.243	16.5
536.441	16.54
536.638	16.54
536.836	16.54
537.034	16.58
537.232	16.53
537.43	16.54
537.627	16.68
537.825	16.84
538.023	16.76
538.22	16.69
538.418	16.77
538.616	16.76
538.813	17
539.011	17.17
539.209	17.2
539.406	17.34
539.604	17.54
539.801	17.72
539.999	17.67
540.196	17.98
540.394	17.99
540.591	18.14
540.789	18.35
540.986	18.24
541.184	18.33
541.381	18.5
541.579	18.55
541.776	18.61
541.974	18.61
542.171	18.73
542.368	18.7
542.566	18.79
542.763	18.84
542.96	18.87
543.158	19.02
543.355	19.09
543.552	19.16
543.75	19.31
543.947	19.28
544.144	19.34
544.341	19.35
544.539	19.43
544.736	19.51
544.933	19.68
545.13	19.78
545.327	19.96
545.524	19.97
545.722	19.88
545.919	19.85
546.116	19.96
546.313	20.08
546.51	20.27
546.707	20.48
546.904	20.77
547.101	20.74
547.298	20.76
547.495	20.7
547.692	20.58
547.889	20.67
548.086	20.76
548.283	21
548.48	21.2
548.677	21.3
548.874	21.15
549.07	21.15
549.267	21.26
549.464	21.31
549.661	21.44
549.858	21.93
550.055	22.15
550.251	22.22
550.448	22.11
550.645	22.09
550.842	22.1
551.038	22.3
551.235	22.27
551.432	22.32
551.628	22.58
551.825	22.69
552.022	22.75
552.218	22.69
552.415	22.86
552.612	23.15
552.808	23.3
553.005	23.39
553.201	23.52
553.398	23.65
553.594	23.83
553.791	23.9
553.987	24.01
554.184	23.97
554.38	24.23
554.577	24.27
554.773	24.35
554.97	24.33
555.166	24.38
555.362	24.39
555.559	24.53
555.755	24.4
555.952	24.56
556.148	24.7
556.344	24.79
556.541	24.74
556.737	24.81
556.933	24.86
557.129	25.04
557.326	25.05
557.522	25.22
557.718	25.33
557.914	25.52
558.11	25.48
558.307	25.53
558.503	25.55
558.699	25.77
558.895	25.87
559.091	25.89
559.287	26.07
559.483	26.32
559.679	26.38
559.876	26.4
560.072	26.67
560.268	26.72
560.464	26.87
560.66	27.15
560.856	27.26
561.052	27.29
561.247	27.35
561.443	27.25
561.639	27.43
561.835	27.49
562.031	27.65
562.227	27.61
562.423	27.69
562.619	27.69
562.815	27.61
563.01	27.46
563.206	27.72
563.402	27.89
563.598	28.14
563.793	27.91
563.989	28.08
564.185	28.22
564.381	28.31
564.576	28.42
564.772	28.58
564.968	28.8
565.163	28.91
565.359	28.72
565.555	28.8
565.75	28.66
565.946	28.93
566.141	28.93
566.337	28.62
566.532	28.7
566.728	28.73
566.923	28.88
567.119	28.99
567.314	29.35
567.51	29.59
567.705	29.48
567.901	29.67
568.096	29.68
568.292	29.71
568.487	30.06
568.682	30.14
568.878	30.31
569.073	30.19
569.268	30.25
569.464	29.93
569.659	29.97
569.854	30.02
570.05	30.1
570.245	30.04
570.44	30.05
570.635	30.15
570.831	30.15
571.026	30.26
571.221	30.33
571.416	30.11
571.611	30.24
571.806	30.23
572.002	30.43
572.197	30.47
572.392	30.68
572.587	30.89
572.782	30.99
572.977	30.99
573.172	30.93
573.367	30.91
573.562	31.05
573.757	31.23
573.952	31.37
574.147	31.37
574.342	31.41
574.537	31.37
574.732	31.35
574.927	31.46
575.121	31.65
575.316	31.74
575.511	31.95
575.706	32.03
575.901	32.08
576.096	32
576.29	32.12
576.485	32.32
576.68	32.56
576.875	32.69
577.069	32.54
577.264	32.54
577.459	32.83
577.654	32.78
577.848	32.82
578.043	32.95
578.238	33.16
578.432	33.13
578.627	33.02
578.821	33.04
579.016	33.11
579.21	33.3
579.405	33.12
579.6	32.97
579.794	33.14
579.989	33.22
580.183	33.13
580.378	33.19
580.572	33.18
580.766	33.21
580.961	33.39
581.155	33.5
581.35	33.49
581.544	33.73
581.738	33.63
581.933	33.81
582.127	34.09
582.321	34
582.516	33.88
582.71	34.03
582.904	33.84
583.099	33.56
583.293	33.48
583.487	33.58
583.681	33.49
583.875	33.76
584.07	33.53
584.264	33.57
584.458	33.57
584.652	33.67
584.846	33.42
585.04	33.65
585.234	33.63
585.428	33.55
585.623	33.37
585.817	33.59
586.011	33.78
586.205	33.89
586.399	33.84
586.593	34.13
586.787	34.17
586.981	34.44
587.174	34.44
587.368	34.59
587.562	34.74
587.756	35.1
587.95	35.05
588.144	34.96
588.338	34.78
588.532	34.72
588.725	34.87
588.919	35.07
589.113	35.36
589.307	35.19
589.501	35.43
589.694	35.44
589.888	35.27
590.082	35.3
590.275	35.18
590.469	35.46
590.663	35.42
590.856	35.29
591.05	35.19
591.244	35.2
591.437	35.5
591.631	35.33
591.824	35.32
592.018	35.42
592.212	35.38
592.405	35.42
592.599	35.38
592.792	35.52
592.986	35.63
593.179	35.84
593.372	35.84
593.566	35.98
593.759	35.9
593.953	35.86
594.146	35.76
594.339	35.79
594.533	35.92
594.726	35.79
594.92	35.73
595.113	35.57
595.306	35.53
595.499	35.56
595.693	35.38
595.886	35.6
596.079	35.72
596.272	35.59
596.466	35.66
596.659	35.47
596.852	35.45
597.045	35.71
597.238	35.81
597.431	35.53
597.624	35.59
597.818	35.6
598.011	35.4
598.204	35.46
598.397	35.73
598.59	35.82
598.783	35.95
598.976	36.14
599.169	35.85
599.362	35.93
599.555	36.32
599.748	36.1
599.941	36.22
600.134	36.29
600.326	36.39
600.519	36.53
600.712	36.53
600.905	36.42
601.098	36.53
601.291	36.79
601.483	36.73
601.676	36.46
601.869	36.68
602.062	36.71
602.255	36.84
602.447	36.84
602.64	36.76
602.833	36.78
603.025	36.97
603.218	37.07
603.411	37.24
603.603	37.19
603.796	37.47
603.989	37.57
604.181	37.52
604.374	37.44
604.566	37.25
604.759	37.43
604.951	37.5
605.144	37.43
605.336	37.32
605.529	37.07
605.721	37.24
605.914	37.08
606.106	36.72
606.299	36.91
606.491	37
606.683	37.26
606.876	37
607.068	37.05
607.26	37.23
607.453	37.32
607.645	37.23
607.837	37.28
608.03	37.42
608.222	37.83
608.414	37.54
608.606	37.51
608.799	37.71
608.991	37.89
609.183	37.97
609.375	37.99
609.567	38.04
609.759	38.41
609.952	38.26
610.144	38.52
610.336	38.52
610.528	38.72
610.72	38.99
610.912	38.71
611.104	38.72
611.296	38.53
611.488	38.45
611.68	38.51
611.872	38.37
612.064	38.52
612.256	38.41
612.448	38.42
612.64	38.61
612.832	38.27
613.023	38.44
613.215	38.42
613.407	38.51
613.599	38.49
613.791	38.4
613.983	38.79
614.174	38.76
614.366	38.77
614.558	38.64
614.75	38.6
614.941	38.92
615.133	38.7
615.325	38.61
615.516	38.66
615.708	38.46
615.9	38.61
616.091	38.25
616.283	38.52
616.475	38.64
616.666	38.47
616.858	38.38
617.049	38.49
617.241	38.65
617.432	38.66
617.624	38.9
617.815	39.22
618.007	39.31
618.198	39.33
618.39	39.27
618.581	38.98
618.773	39.29
618.964	39.04
619.155	38.6
619.347	38.6
619.538	38.73
619.729	38.64
619.921	38.53
620.112	38.75
620.303	38.77
620.494	38.54
620.686	38.6
620.877	38.91
621.068	39.39
621.259	39.34
621.451	39.6
621.642	39.64
621.833	39.9
622.024	40.41
622.215	40.29
622.406	40.34
622.597	40.4
622.788	40.58
622.98	40.14
623.171	40.12
623.362	40.5
623.553	40.17
623.744	40.26
623.935	40.12
624.126	39.45
624.317	39.32
624.508	39.34
624.698	39.14
624.889	39.22
625.08	39.28
625.271	38.99
625.462	38.84
625.653	39
625.844	38.93
626.034	39.02
626.225	39.4
626.416	39.45
626.607	39.37
626.798	39.56
626.988	39.5
627.179	39.44
627.37	39.54
627.56	39.84
627.751	39.65
627.942	39.63
628.132	39.61
628.323	39.52
628.514	39.65
628.704	39.63
628.895	39.79
629.085	39.73
629.276	39.75
629.466	39.7
629.657	39.93
629.847	40.25
630.038	40.21
630.228	39.98
630.419	40.16
630.609	40.03
630.8	40.02
630.99	40.02
631.181	39.92
631.371	39.88
631.561	40.16
631.752	39.8
631.942	39.85
632.132	39.98
632.323	40.04
632.513	40.28
632.703	40.13
632.893	40.1
633.084	39.83
633.274	39.61
633.464	39.5
633.654	39.46
633.844	39.42
634.034	39.36
634.225	39.45
634.415	39.54
634.605	39.41
634.795	39.65
634.985	39.59
635.175	39.78
635.365	40.15
635.555	40.42
635.745	40.35
635.935	40.25
636.125	40.14
636.315	39.85
636.505	39.77
636.695	39.52
636.885	39.32
637.075	39.42
637.265	39.53
637.455	39.26
637.644	39.54
637.834	39.36
638.024	39.47
638.214	39.5
638.404	39.89
638.593	39.87
638.783	39.74
638.973	39.52
639.163	39.56
639.352	39.37
639.542	39.74
639.732	39.55
639.921	39.79
640.111	39.76
640.301	39.94
640.49	39.88
640.68	40.02
640.87	40.33
641.059	40.4
641.249	40.48
641.438	40.25
641.628	40.08
641.817	40.18
642.007	40.15
642.196	40.25
642.386	40.28
642.575	40.15
642.764	39.98
642.954	40.25
643.143	40.2
643.333	40.52
643.522	40.71
643.711	40.61
643.901	40.33
644.09	40.24
644.279	40.5
644.469	40.04
644.658	39.9
644.847	40.12
645.036	40.01
645.226	40.49
645.415	39.89
645.604	39.84
645.793	40.05
645.982	40.43
646.171	40.93
646.361	40.59
646.55	40.92
646.739	41.24
646.928	41.37
647.117	40.73
647.306	40.47
647.495	41.13
647.684	41.14
647.873	41.27
648.062	41.2
648.251	40.6
648.44	40.57
648.629	40.75
648.818	40.42
649.007	39.91
649.196	40.2
649.384	40.79
649.573	40.48
649.762	40.68
649.951	40.75
650.14	40.38
650.328	40.8
650.517	40.96
650.706	40.63
650.895	40.84
651.083	40.85
651.272	40.77
651.461	40.01
651.65	39.86
651.838	39.73
652.027	39.74
652.216	40.01
652.404	39.91
652.593	39.9
652.781	40.16
652.97	40.1
653.158	40.46
653.347	40.94
653.535	41.2
653.724	41.38
653.912	41.58
654.101	41.74
654.289	42.03
654.478	42.01
654.666	41.84
654.855	41.51
655.043	41.64
655.231	41.62
655.42	41.63
655.608	41.77
655.796	41.65
655.985	41.43
656.173	41.02
656.361	40.49
656.55	40.59
656.738	40.54
656.926	40.98
657.114	40.87
657.302	40.62
657.491	40.29
657.679	40.01
657.867	40.38
658.055	40.77
658.243	41.06
658.431	41.09
658.619	41.09
658.807	41.23
658.996	41.14
659.184	40.8
659.372	40.96
659.56	41.16
659.748	41.14
659.936	40.97
660.124	40.77
660.311	40.52
660.499	40.42
660.687	40.28
660.875	40.39
661.063	40.31
661.251	40.96
661.439	41.38
661.627	41.15
661.814	41.67
662.002	42.02
662.19	42.07
662.378	42.23
662.565	42.82
662.753	42.89
662.941	42.27
663.129	42.04
663.316	41.85
663.504	41.02
663.692	41.11
663.879	40.47
664.067	40.18
664.254	40.47
664.442	40.26
664.63	39.93
664.817	40.22
665.005	41.06
665.192	41.33
665.38	41.51
665.567	41.88
665.755	42.03
665.942	42.55
666.13	42.29
666.317	42.02
666.504	42.23
666.692	42.1
666.879	41.56
667.067	41.35
667.254	41.4
667.441	41.39
667.629	41.43
667.816	41.38
668.003	41.43
668.19	41.85
668.378	41.97
668.565	42.26
668.752	42.08
668.939	42.43
669.127	42.17
669.314	42.21
669.501	41.9
669.688	42.21
669.875	42.64
670.062	42.37
670.249	42.23
670.436	42.16
670.623	41.65
670.81	41.62
670.997	41.75
671.184	41.76
671.371	41.46
671.558	41.11
671.745	40.67
671.932	40.33
672.119	40.3
672.306	40.07
672.493	39.93
672.68	39.49
672.867	39.82
673.054	39.45
673.24	39.58
673.427	39.97
673.614	40.29
673.801	40.34
673.988	40.62
674.174	40.64
674.361	40.51
674.548	40.26
674.734	40.76
674.921	40.77
675.108	40.67
675.294	40.78
675.481	40.74
675.668	41.13
675.854	41.26
676.041	40.78
676.227	40.61
676.414	40.92
676.601	41.19
676.787	41.58
676.974	41.58
677.16	41.93
677.347	41.81
677.533	41.91
677.719	41.62
677.906	41.65
678.092	42.22
678.279	42.71
678.465	42.86
678.651	43.07
678.838	42.54
679.024	42.65
679.21	42.47
679.397	42.55
679.583	42.81
679.769	43.03
679.955	43
680.142	42.4
680.328	42.37
680.514	42.49
680.7	42.6
680.886	42.76
681.073	42.71
681.259	43.33
681.445	43.45
681.631	42.91
681.817	42.32
682.003	42.64
682.189	42.68
682.375	42.69
682.561	42.15
682.747	41.8
682.933	41.73
683.119	41.97
683.305	41.34
683.491	41.27
683.677	41.45
683.863	41.8
684.049	41.73
684.235	42.25
684.42	42.46
684.606	42.78
684.792	43.15
684.978	43.4
685.164	43.28
685.349	43.65
685.535	43.21
685.721	43.35
685.907	43.32
686.092	42.64
686.278	42.26
686.464	42.13
686.649	42.2
686.835	42.33
687.021	42.3
687.206	41.74
687.392	41.51
687.577	42.39
687.763	42.33
687.948	42.56
688.134	42.9
688.319	42.8
688.505	42.49
688.69	43.01
688.876	42.25
689.061	42.09
689.247	42.38
689.432	42.61
689.618	42.15
689.803	42.25
689.988	42.32
690.174	42.15
690.359	42.04
690.544	41.43
690.73	41.06
690.915	41.57
691.1	41.44
691.285	41.9
691.471	42.05
691.656	42.39
691.841	42.5
692.026	42.5
692.211	43.06
692.396	43.24
692.582	44.06
692.767	44.57
692.952	44.12
693.137	44.49
693.322	44.23
693.507	43.87
693.692	43.54
693.877	43.55
694.062	43.73
694.247	42.65
694.432	42.8
694.617	42.57
694.802	41.92
694.987	42.21
695.172	42.36
695.357	43.3
695.541	43.54
695.726	44.08
695.911	44.31
696.096	44
696.281	44.29
696.466	44.31
696.65	44.09
696.835	44.08
697.02	44.78
697.204	44.59
697.389	43.73
697.574	43.83
697.759	43.09
697.943	42.55
698.128	42.46
698.312	43.05
698.497	42.92
698.682	42.89
698.866	42.64
699.051	42.2
699.235	42.16
699.42	42.18
699.604	42.33
699.789	42.23
699.973	42.79
700.158	42.68
700.342	42.69
700.527	42.93
700.711	43.38
700.895	43.99
701.08	43.48
701.264	43.65
701.448	43.62
701.633	43.03
701.817	43.52
702.001	43.1
702.186	43.52
702.37	43.46
702.554	43.41
702.738	43.03
702.923	42.33
703.107	43.27
703.291	43.01
703.475	42.4
703.659	42.31
703.843	42.2
704.027	41.79
704.212	41.9
704.396	41.2
704.58	40.82
704.764	40.13
704.948	40.45
705.132	40.85
705.316	40.96
705.5	41.42
705.684	41.4
705.868	41.37
706.052	41.65
706.235	41.17
706.419	42.01
706.603	41.98
706.787	42.77
706.971	43.01
707.155	42.36
707.339	42.35
707.522	41.94
707.706	42.13
707.89	42.4
708.074	42.72
708.257	43.11
708.441	42.57
708.625	42.88
708.808	42.85
708.992	42.52
709.176	43.1
709.359	43.07
709.543	44
709.727	43.99
709.91	43.83
710.094	43.96
710.277	44.17
710.461	44.33
710.644	44.79
710.828	45.76
711.011	46.12
711.195	45.65
711.378	45.79
711.562	45.63
711.745	45.74
711.928	45.81
712.112	45.68
712.295	44.84
712.478	44.07
712.662	43.6
712.845	42.91
713.028	43.04
713.212	43.2
713.395	42.88
713.578	42.78
713.761	42.26
713.945	41.96
714.128	42.03
714.311	42.52
714.494	43.49
714.677	43.28
714.86	43.68
715.043	42.84
715.227	43.07
715.41	43.02
715.593	42.63
715.776	43.23
715.959	43.06
716.142	43.35
716.325	43.11
716.508	42.52
716.691	43.49
716.874	42.43
717.057	42.85
717.239	42.83
717.422	42.94
717.605	43.46
717.788	42.43
717.971	43.2
718.154	42.78
718.337	42.88
718.519	43.03
718.702	41.64
718.885	42.84
719.068	42.73
719.25	42.01
719.433	41.95
719.616	42.11
719.798	42.64
719.981	41.9
720.164	42.06
720.346	42.4
720.529	43.25
720.712	44.18
720.894	43.35
721.077	43.57
721.259	44.46
721.442	44.72
721.624	44.75
721.807	45.76
721.989	46.51
722.172	45.76
722.354	45.79
722.537	45.53
722.719	45.22
722.901	44.67
723.084	44.39
723.266	43.66
723.448	43.62
723.631	43.23
723.813	42.56
723.995	42.24
724.178	42.58
724.36	42.18
724.542	42.47
724.724	42.83
724.907	43.4
725.089	42.68
725.271	43.34
725.453	43.32
725.635	44.07
725.817	44.41
725.999	45.21
726.181	45.27
726.364	45.33
726.546	44.9
726.728	45.3
726.91	45.14
727.092	45.61
727.274	45.4
727.456	45.21
727.638	44.62
727.819	44.8
728.001	44.35
728.183	44.5
728.365	44.79
728.547	45.05
728.729	45.1
728.911	45.93
729.093	45.81
729.274	46.53
729.456	47
729.638	46.94
729.82	47.24
730.001	46.84
730.183	47.01
730.365	47.97
730.546	47.33
730.728	47.4
730.91	47.19
731.091	47.68
731.273	46.71
731.455	46.26
731.636	46.38
731.818	45.95
731.999	46.65
732.181	46.31
732.362	46.07
732.544	46.46
732.725	46
732.907	45.46
733.088	45.85
733.27	45.9
733.451	46.22
733.633	46.94
733.814	46.9
733.995	45.78
734.177	45.31
734.358	44.32
734.539	45.32
734.721	44
734.902	43.86
735.083	42.62
735.264	42.21
735.446	42.35
735.627	41.11
735.808	41.38
735.989	41.6
736.17	42.15
736.351	42.93
736.533	42.08
736.714	43.43
736.895	44.43
737.076	45.32
737.257	45.65
737.438	45.41
737.619	45.84
737.8	44.98
737.981	44.76
738.162	44.74
738.343	44.23
738.524	42.96
738.705	42
738.886	41.47
739.067	42.39
739.247	42.58
739.428	42.72
739.609	42.13
739.79	42.45
739.971	42.49
740.151	42.99
740.332	43.66
740.513	45.08
740.694	45.6
740.874	45.43
741.055	44.15
741.236	44.54
741.417	44.38
741.597	45.46
741.778	45.53
741.958	46.52
742.139	45.51
742.32	44.69
742.5	43.62
742.681	43.86
742.861	43.54
743.042	44
743.222	43.14
743.403	42.76
743.583	43.42
743.764	42.62
743.944	42.47
744.124	43.75
744.305	43.74
744.485	43.51
744.666	42.9
744.846	43.82
745.026	43.11
745.207	43.93
745.387	45.13
745.567	43.96
745.747	44.62
745.928	43.29
746.108	41.5
746.288	41.61
746.468	42.71
746.648	42.83
746.829	41.62
747.009	42.2
747.189	42.72
747.369	42.03
747.549	41.69
747.729	41.56
747.909	42.5
748.089	43
748.269	42.22
748.449	41.49
748.629	42.96
748.809	42.66
748.989	42.34
749.169	40.72
749.349	40.09
749.529	40.42
749.709	41.26
749.889	40.53
750.068	40.99
750.248	42.1
750.428	42.79
750.608	41.63
750.788	42.14
750.967	42.05
751.147	43.63
751.327	44.18
751.507	43.7
751.686	43.38
751.866	44.25
752.046	44.09
752.225	43.84
752.405	43.73
752.585	44.5
752.764	45.13
752.944	46.39
753.123	45.84
753.303	44.94
753.482	45.34
753.662	45.24
753.841	45.55
754.021	44.4
754.2	43.62
754.38	43.24
754.559	42.4
754.739	41.15
754.918	40.35
755.097	39.82
755.277	40.43
755.456	42.1
755.635	41.29
755.815	39.68
755.994	39.73
756.173	39.5
756.352	40.35
756.532	39.78
756.711	40.92
756.89	40.45
757.069	40.99
757.248	41.62
757.427	39.73
757.607	40.26
757.786	41.92
757.965	43.26
758.144	44.25
758.323	43.33
758.502	43.59
758.681	43.64
758.86	43.59
759.039	43.36
759.218	43.11
759.397	43.04
759.576	44.04
759.755	43.62
759.934	42.27
760.113	42.1
760.291	42.04
760.47	43.25
760.649	42.32
760.828	42.74
761.007	42.64
761.186	41.9
761.364	41.79
761.543	40.8
761.722	40.53
761.901	41.54
762.079	41.78
762.258	42.66
762.437	41.87
762.615	42.79
762.794	42.94
762.972	43
763.151	43.14
763.33	43.6
763.508	44.24
763.687	44.37
763.865	44.47
764.044	44.79
764.222	44.66
764.401	45.32
764.579	44.98
764.758	44.21
764.936	43.87
765.114	43.78
765.293	43.38
765.471	42.76
765.65	42.95
765.828	43
766.006	42.25
766.184	41.67
766.363	40.36
766.541	40.06
766.719	41.9
766.898	42.68
767.076	43.08
767.254	43.69
767.432	44.26
767.61	45.19
767.788	45.43
767.967	45.61
768.145	44.95
768.323	45.02
768.501	46
768.679	44.07
768.857	43.41
769.035	43.48
769.213	43.39
769.391	43.02
769.569	40.58
769.747	39.88
769.925	38.81
770.103	40.3
770.281	41.7
770.459	40.29
770.636	41.74
770.814	42.1
770.992	42.69
771.17	42.02
771.348	42.57
771.525	44.05
771.703	44.68
771.881	45.76
772.059	46.87
772.236	47.74
772.414	48.7
772.592	47.9
772.769	48.16
772.947	47.38
773.125	48.38
773.302	48.86
773.48	47.66
773.657	48.11
773.835	46.34
774.013	45.31
774.19	45.01
774.368	45.5
774.545	46.16
774.723	45.71
774.9	45.51
775.077	46.01
775.255	45.6
775.432	46.51
775.61	46.83
775.787	49.73
775.964	47.98
776.142	46.05
776.319	45.76
776.496	45.55
776.674	46.01
776.851	46.78
777.028	45.21
777.205	44.77
777.382	43.84
777.56	42.75
777.737	41.96
777.914	43.39
778.091	46.04
778.268	45.2
778.445	43.89
778.622	43.22
778.8	42.68
778.977	44.62
779.154	43.16
779.331	43.76
779.508	44.23
779.685	44.58
779.862	46.31
780.038	44.08
780.215	44.64
780.392	46.3
780.569	46.88
780.746	47
780.923	45.43
781.1	46.37
781.277	45.82
781.453	43.88
781.63	42.08
781.807	40.45
781.984	41.54
782.16	44.16
782.337	42.89
782.514	42.12
782.691	41.84
782.867	42.7
783.044	43.28
783.221	44.48
783.397	45.09
783.574	46.99
783.75	46.44
783.927	46.63
784.103	41.35
784.28	42.26
784.456	41.66
784.633	43.43
784.809	43.06
784.986	42.82
785.162	40.39
785.339	40.57
785.515	37.95
785.692	37.92
785.868	37.74
786.044	40.02
786.221	38.57
786.397	41.85
786.573	41.14
786.749	38.64
786.926	39.49
787.102	44.11
787.278	43.91
787.454	44.54
787.631	43.84
787.807	44.52
787.983	45.89
788.159	46.9
788.335	45.6
788.511	45.34
788.687	46.42
788.863	46.18
789.039	43.02
789.216	42.24
789.392	43.08
789.568	45.08
789.744	44.41
789.919	42.82
790.095	44.67
790.271	44.31
790.447	44.48
790.623	43.84
790.799	43.28
790.975	43.42
791.151	45.88
791.327	47.77
791.502	46.45
791.678	45.81
791.854	47.28
792.03	45.2
792.205	44.5
792.381	42.58
792.557	45.81
792.733	46.35
792.908	46.1
793.084	45.91
793.259	45.07
793.435	46.33
793.611	46.95
793.786	44.94
793.962	45.91
794.137	46.95
794.313	47.18
794.488	43.96
794.664	42.7
794.839	43.64
795.015	43.96
795.19	42.99
795.366	41.68
795.541	42.2
795.716	44.25
795.892	44.6
796.067	43.87
796.242	43.77
796.418	44.28
796.593	45.05
796.768	45.52
796.944	45.09
797.119	45.17
797.294	46.01
797.469	45.17
797.644	45.01
797.82	43.32
797.995	42.73
798.17	45.43
798.345	46.36
798.52	46.02
798.695	46.43
798.87	45.03
799.045	43.59
799.22	42.95
799.395	44.25
799.57	40.82
799.745	41.94
799.92	43.58
800.095	42.85
800.27	44.54
800.445	43.3
800.62	43.58
800.795	41.44
800.97	43.11
801.145	41.42
801.319	39.21
801.494	41.5
801.669	41.96
801.844	39.33
802.018	39.66
802.193	36.49
802.368	38.53
802.543	38.03
802.717	40.18
802.892	39.29
803.067	41.08
803.241	43.51
803.416	45.05
803.59	44.32
803.765	45.89
803.94	42.98
804.114	43.75
804.289	41.97
804.463	40.91
804.638	44.57
804.812	42.03
804.986	43.88
805.161	41.39
805.335	41.53
805.51	40.26
805.684	39.74
805.858	42.62
806.033	45.07
806.207	44.59
806.381	46.78
806.556	44.01
806.73	45.31
806.904	45.86
807.078	48.51
807.253	48.92
807.427	49.04
807.601	48.88
807.775	47.07
807.949	45.62
808.123	49.01
808.298	47.95
808.472	49
808.646	50.21
808.82	48.5
808.994	46.58
809.168	44.99
809.342	46.5
809.516	49.65
809.69	48.99
809.864	48.59
810.038	45.58
810.212	44.02
810.385	45.96
810.559	45.4
810.733	45.91
810.907	44.68
811.081	46.09
811.255	46.56
811.428	44.9
811.602	46.16
811.776	44.24
811.95	44.54
812.123	46.66
812.297	40.99
812.471	42.83
812.644	40.47
812.818	41.75
812.992	40.31
813.165	40.31
813.339	39.5
813.512	40.36
813.686	41.03
813.86	43.53
814.033	44.99
814.207	47.74
814.38	47.99
814.554	51.96
814.727	51.03
814.9	51.12
815.074	52.12
815.247	54.93
815.421	55.3
815.594	59.06
815.767	59.48
815.941	58.4
816.114	60.93
816.287	58.15
816.46	54.42
816.634	56.8
816.807	55.83
816.98	53.75
817.153	54.52
817.327	53.75
817.5	51.29
817.673	47.97
817.846	47.66
818.019	45.43
818.192	49.33
818.365	50.42
818.538	49.46
818.711	51.89
818.884	51.67
819.057	47.32
819.23	49.71
819.403	49.9
819.576	50
819.749	48.2
819.922	45.7
820.095	43.61
820.268	44.41
820.441	44.81
820.614	44.73
820.786	44.73
820.959	44.31
821.132	42.68
821.305	43.02
821.477	42.32
821.65	41.99
821.823	42.83
821.996	43.54
822.168	43.05
822.341	42.75
822.514	42
822.686	42.16
822.859	42.58
823.031	42.98
823.204	43.27
823.376	43.33
823.549	43.6
823.722	43.34
823.894	42.47
824.067	42.65
824.239	42.44
824.411	42.67
824.584	42.76
824.756	42.57
824.929	42.36
825.101	40.91
825.273	41.12
825.446	41.18
825.618	41.82
825.79	42.85
825.963	42.62
826.135	42.87
826.307	42.33
826.479	41.8
826.652	41.56
826.824	41.38
826.996	42
827.168	42.38
827.34	42.4
827.512	41.12
827.684	40.71
827.856	40.41
828.029	40.74
828.201	40.87
828.373	41.26
828.545	41.36
828.717	41.54
828.889	42.15
829.061	41.94
829.232	43.21
829.404	43.81
829.576	43.78
829.748	44.59
829.92	44.36
830.092	44.32
830.264	42.91
830.436	43.42
830.607	43.18
830.779	42.83
830.951	44.59
831.123	42.46
831.294	42.95
831.466	42.42
831.638	44.24
831.809	44.87
831.981	46.26
832.153	48.18
832.324	48.99
832.496	47.99
832.667	48.35
832.839	43.67
833.011	44.96
833.182	43.95
833.354	42.82
833.525	39.15
833.697	40.03
833.868	40.12
834.039	40.11
834.211	37.71
834.382	39.73
834.554	40.52
834.725	42.39
834.896	41.31
835.068	42.32
835.239	43.78
835.41	45.12
835.581	44.22
835.753	44.58
835.924	45.02
836.095	45.72
836.266	43.75
836.438	42.78
836.609	44.26
836.78	44.31
836.951	45.45
837.122	45.6
837.293	45.87
837.464	45.48
837.635	43.49
837.806	42.45
837.977	44.83
838.148	45.8
838.319	46.35
838.49	45.78
838.661	45.82
838.832	40.46
839.003	40.81
839.174	39.74
839.345	39.6
839.516	39.51
839.687	39.22
839.857	37.33
840.028	39.86
840.199	42.03
840.37	41.42
840.54	46.23
840.711	52.31
840.882	51.09
841.053	50.95
841.223	56.82
841.394	61.87
841.564	60.8
841.735	61.33
841.906	59.27
842.076	57.58
842.247	55.44
842.417	52.26
842.588	55.18
842.758	56.42
842.929	58.33
843.099	51
843.27	49.7
843.44	55.28
843.611	57.5
843.781	55.18
843.951	55.5
844.122	56.42
844.292	51.78
844.462	47.9
844.633	49.26
844.803	49.97
844.973	49.08
845.144	47.65
845.314	41.18
845.484	35.25
845.654	42.18
845.824	43.65
845.995	39.74
846.165	44.8
846.335	43.38
846.505	39.64
846.675	37.6
846.845	50.93
847.015	54.22
847.185	59.84
847.355	65.03
847.525	65.07
847.695	56.84
847.865	59.99
848.035	60.69
848.205	53.65
848.375	58.8
848.545	61.53
848.715	48.73
848.884	43.82
849.054	45.7
849.224	45.14
849.394	43.15
849.564	47.25
849.733	45.18
849.903	45.61
850.073	51.97
850.243	41.88
850.412	41.38
850.582	42.32
850.752	45.71
850.921	39.73
851.091	35.67
851.26	36.39
851.43	36.07
851.599	37.37
851.769	38.85
851.939	37.07
852.108	43.94
852.278	46.81
852.447	50.68
852.616	52.58
852.786	58.58
852.955	57.88
853.125	58.96
853.294	56.97
853.463	59.07
853.633	54.01
853.802	53.07
853.971	51.9
854.141	40.1
854.31	46.74
854.479	45.72
854.648	48.3
854.818	50.02
854.987	49.95
855.156	50.28
855.325	54.13
855.494	56.34
855.663	55.89
855.832	59.95
856.001	69.01
856.171	65.15
856.34	62.85
856.509	59.64
856.678	63.16
856.847	63.26
857.016	69.26
857.185	69.58
857.353	73.49
857.522	76.23
857.691	70.28
857.86	68.89
858.029	66.02
858.198	70.15
858.367	77.44
858.535	74.84
858.704	81.88
858.873	82.03
859.042	79.34
859.21	73.12
859.379	74
859.548	81.19
859.717	81.69
859.885	75.51
860.054	70.62
860.222	66.09
860.391	67.13
860.56	61.91
860.728	55.64
860.897	57.09
861.065	58.82
861.234	59.34
861.402	58.84
861.571	60.75
861.739	61.05
861.908	63.47
862.076	57.79
862.244	59.15
862.413	66.98
862.581	70.73
862.749	68.73
862.918	68.87
863.086	69.54
863.254	67.64
863.423	64.97
863.591	61.33
863.759	57.17
863.927	55.65
864.096	59.58
864.264	51.42
864.432	50.33
864.6	50.38
864.768	38.93
864.936	31.52
865.104	27.54
865.272	20.32
865.44	26.12
865.608	22.32
865.776	29.59
865.944	25.98
866.112	31.93
866.28	36.36
866.448	35.15
866.616	41.2
866.784	43.42
866.952	45.14
867.12	47.35
867.288	40.17
867.455	44.52
867.623	43.81
867.791	39.98
867.959	39.6
868.127	31.49
868.294	34.76
868.462	37.75
868.63	34.63
868.797	39.83
868.965	39.6
869.133	51.62
869.3	54.22
869.468	63.42
869.636	67.6
869.803	63.04
869.971	69.07
870.138	66.71
870.306	63.43
870.473	64.09
870.641	69.56
870.808	70.57
870.975	67.32
871.143	69.21
871.31	61.26
871.478	58.21
871.645	65.67
871.812	67.2
871.98	70.2
872.147	70.84
872.314	80.12
872.482	67.96
872.649	70.2
872.816	72.17
872.983	75.31
873.15	70.57
873.318	67.55
873.485	62.6
873.652	64.25
873.819	66.14
873.986	66.97
874.153	66.71
874.32	68.28
874.487	70.67
874.654	62.13
874.821	63.97
874.988	68.36
875.155	66.72
875.322	65.03
875.489	66.75
875.656	70.05
875.823	66.86
875.99	66.95
876.157	67.9
876.324	53.65
876.49	53.78
876.657	52.72
876.824	48.59
876.991	49.96
877.157	56.53
877.324	51.65
877.491	46.52
877.658	44.19
877.824	29.96
877.991	36.01
878.157	51.69
878.324	55.18
878.491	43.31
878.657	46.49
878.824	44.02
878.99	49.93
879.157	50.32
879.323	48.6
879.49	52.95
879.656	63.07
879.823	49.39
879.989	41.69
880.156	39.56
880.322	45.48
880.488	44.34
880.655	52.77
880.821	49.75
880.987	49.63
881.154	55.66
881.32	53.04
881.486	50.44
881.652	52.1
881.819	52.07
881.985	49.25
882.151	46.73
882.317	46.85
882.483	43.75
882.649	41.85
882.816	42.46
882.982	40.54
883.148	39.05
883.314	39.12
883.48	39.89
883.646	40.37
883.812	41.7
883.978	42.89
884.144	42.24
884.31	43.74
884.476	44.54
884.642	43.39
884.807	43.59
884.973	44.29
885.139	43.21
885.305	43.7
885.471	43.12
885.637	44.03
885.802	44.03
885.968	44.24
886.134	43.08
886.3	41.4
886.465	42.11
886.631	39.18
886.797	40.9
886.962	45.27
887.128	48.89
887.293	49.98
887.459	48.44
887.625	44.01
887.79	44.36
887.956	42.75
888.121	44.16
888.287	43.44
888.452	49.06
888.618	46.96
888.783	36.73
