Data from CB_077_Reflection_2.txt Node
Date: Sat Nov 14 11:37:15 EST 2015
User: robert
Spectrometer: USB4E03001
Autoset integration time: false
Trigger mode: 4
Integration Time (sec): 1.000000E-1
Scans to average: 15
Electric dark correction enabled: true
Nonlinearity correction enabled: false
Boxcar width: 5
Stray light correction enabled: false
XAxis mode: Wavelengths
Stop averaging: false
Number of Pixels in Spectrum: 3648
>>>>>Begin Spectral Data<<<<<
177.566	-291.46
177.785	-468.96
178.005	-1230.75
178.225	-130.5
178.445	-267.02
178.665	-553.2
178.885	77.25
179.105	-129.68
179.324	-236.11
179.544	-406.02
179.764	-134.45
179.984	-151.55
180.204	-196.74
180.423	-586.12
180.643	-257.04
180.863	-488.07
181.083	-2137.62
181.302	-7984.13
181.522	913.21
181.742	991.11
181.961	1538.05
182.181	232.04
182.401	170.1
182.621	266.67
182.84	1006.76
183.06	-2713.9
183.279	-401.89
183.499	-381.9
183.719	-534.94
183.938	-307.85
184.158	-225.8
184.377	-149.84
184.597	-101.49
184.816	-80.14
185.036	-135.97
185.256	-210.19
185.475	-475.5
185.695	-259.52
185.914	-171.23
186.134	-170.88
186.353	-257.54
186.572	-193.02
186.792	-792.78
187.011	3533.19
187.231	-2097.08
187.45	-438
187.67	-1677.52
187.889	870.23
188.108	487.26
188.328	428.12
188.547	300.2
188.766	244.42
188.986	194.32
189.205	196.34
189.424	218.79
189.644	191.7
189.863	226.36
190.082	241.64
190.302	269.64
190.521	193.43
190.74	193.69
190.959	872.22
191.178	670.08
191.398	693.1
191.617	1553.97
191.836	5275.81
192.055	1204.08
192.274	349.52
192.494	557.74
192.713	27203.57
192.932	-2781.9
193.151	452350
193.37	605.47
193.589	-15299.12
193.808	-1308.11
194.027	-2232.37
194.246	4819.41
194.465	-2958.98
194.685	795.2
194.904	720.42
195.123	457.9
195.342	349.74
195.561	314.89
195.78	941.92
195.999	2279.58
196.218	903.93
196.436	548.08
196.655	318.8
196.874	218.06
197.093	337.98
197.312	310.93
197.531	513.74
197.75	716.04
197.969	2205.28
198.188	404.49
198.407	275.39
198.625	306.94
198.844	366.49
199.063	423.87
199.282	780.69
199.501	-4655.86
199.719	-2465.21
199.938	1008.83
200.157	692.67
200.376	-3599.7
200.594	-271.66
200.813	-634.96
201.032	-1858.78
201.251	-1203.66
201.469	-1799.13
201.688	-3261.45
201.907	5397.54
202.125	1510.66
202.344	6218.84
202.563	32026.09
202.781	1763.86
203	540
203.218	462.35
203.437	772.73
203.656	510.72
203.874	1169.7
204.093	1067.75
204.311	701.34
204.53	2134.88
204.748	523.25
204.967	711.6
205.185	535
205.404	620.48
205.622	760.6
205.841	459.27
206.059	390.66
206.278	312.75
206.496	455.72
206.715	690.83
206.933	551.41
207.151	661.48
207.37	440.11
207.588	507.86
207.806	571.51
208.025	799.31
208.243	1178.47
208.461	-77931.82
208.68	2251.58
208.898	947.71
209.116	504.94
209.335	414.74
209.553	371.29
209.771	314.39
209.989	304.03
210.208	267.8
210.426	242.21
210.644	202.27
210.862	176.95
211.081	162.9
211.299	119.62
211.517	144.72
211.735	109.78
211.953	108.17
212.171	120.6
212.39	125.57
212.608	119.4
212.826	120.58
213.044	104.83
213.262	125.56
213.48	155.13
213.698	324.04
213.916	188.66
214.134	314.66
214.352	520.14
214.57	304.9
214.788	196
215.006	180.24
215.224	347.86
215.442	1076.02
215.66	2168.04
215.878	523.81
216.096	201.19
216.314	760.09
216.532	3437.56
216.75	-1424.08
216.968	-1809.03
217.185	-18255.75
217.403	3874.84
217.621	-247122.22
217.839	-1406.46
218.057	-42814.58
218.275	-1511.61
218.492	-290.87
218.71	-4390.88
218.928	2541.56
219.146	1281.9
219.363	697.2
219.581	768.66
219.799	-4118.07
220.017	442.54
220.234	575.49
220.452	574.81
220.67	930.27
220.887	359.26
221.105	618.94
221.323	358.92
221.54	235.63
221.758	227.39
221.976	200.03
222.193	145.16
222.411	155.56
222.629	161.07
222.846	163.61
223.064	121.47
223.281	136.31
223.499	137.16
223.716	119.21
223.934	99.38
224.151	115.31
224.369	125.34
224.586	137.87
224.804	139.57
225.021	134.4
225.239	126.86
225.456	142.11
225.674	124.3
225.891	109.47
226.108	107.34
226.326	107.49
226.543	93.55
226.76	73.8
226.978	62.4
227.195	63.64
227.413	54.81
227.63	58.32
227.847	56.06
228.064	50.09
228.282	47.57
228.499	47.42
228.716	46.83
228.934	46.42
229.151	46.02
229.368	43.88
229.585	41.58
229.802	42.31
230.02	41.26
230.237	41.86
230.454	42.42
230.671	44.98
230.888	45.07
231.105	43.46
231.323	41.26
231.54	47.23
231.757	52.55
231.974	60.63
232.191	61.72
232.408	56.43
232.625	53.22
232.842	54.36
233.059	55
233.276	52.55
233.493	50.61
233.71	52.32
233.927	45.25
234.144	46.43
234.361	41.07
234.578	40.48
234.795	46.11
235.012	44.31
235.229	38.71
235.446	37.54
235.663	41.94
235.879	45.14
236.096	48.01
236.313	50.98
236.53	45.59
236.747	46.43
236.964	44.74
237.181	42.44
237.397	48.56
237.614	63.09
237.831	69.89
238.048	68.42
238.264	69.52
238.481	65.86
238.698	63.98
238.915	65.69
239.131	57.86
239.348	54.5
239.565	54.85
239.781	47.58
239.998	35.26
240.215	25.59
240.431	25.23
240.648	27.38
240.865	23.94
241.081	24.58
241.298	22.45
241.514	25.55
241.731	23.09
241.947	22.8
242.164	23.93
242.38	24.39
242.597	24.55
242.814	24.2
243.03	23.94
243.246	26.19
243.463	25.53
243.679	25.77
243.896	25.09
244.112	26.72
244.329	27.33
244.545	28.33
244.762	29.23
244.978	30.56
245.194	26.79
245.411	23.08
245.627	19.94
245.843	20.23
246.06	17.98
246.276	16.62
246.492	17.46
246.709	17.04
246.925	17.04
247.141	17.38
247.357	16.76
247.574	17.31
247.79	16.51
248.006	16.44
248.222	16.62
248.439	17.1
248.655	17.8
248.871	17.21
249.087	17.55
249.303	18.11
249.519	17.74
249.736	20.26
249.952	21.36
250.168	26.52
250.384	26.94
250.6	25.57
250.816	28.56
251.032	28.37
251.248	27.18
251.464	27.31
251.68	23.61
251.896	22.48
252.112	19.62
252.328	20.02
252.544	20.63
252.76	21.47
252.976	20.96
253.192	18.95
253.408	17.78
253.624	20.12
253.84	19.02
254.056	19.99
254.272	19.48
254.487	21.93
254.703	19.48
254.919	14.35
255.135	15.22
255.351	17.91
255.567	18.32
255.782	20.71
255.998	19.33
256.214	16.95
256.43	19.18
256.646	25.07
256.861	23.39
257.077	23.82
257.293	24.03
257.508	25.33
257.724	22.31
257.94	19.61
258.155	18.26
258.371	17.19
258.587	17.15
258.802	16.2
259.018	14.11
259.234	14.81
259.449	15.04
259.665	15.4
259.88	15.39
260.096	15.95
260.312	16.17
260.527	15.72
260.743	15.62
260.958	16.85
261.174	17.64
261.389	18.69
261.605	17.78
261.82	17.15
262.036	17.17
262.251	16.15
262.466	16.39
262.682	15.73
262.897	15.95
263.113	15.81
263.328	12.94
263.543	13.57
263.759	12.39
263.974	13.01
264.189	14.49
264.405	13.93
264.62	13.55
264.835	11.58
265.051	14.32
265.266	15.26
265.481	15.88
265.696	20.54
265.912	17.03
266.127	17.62
266.342	17.89
266.557	17.94
266.773	17.99
266.988	18.62
267.203	20.2
267.418	19.26
267.633	19.56
267.848	18.23
268.064	14.21
268.279	15.25
268.494	14.19
268.709	13.87
268.924	14.85
269.139	14.19
269.354	13.85
269.569	12.59
269.784	14.28
269.999	14.75
270.214	17.06
270.429	18.91
270.644	19.09
270.859	17.5
271.074	17.22
271.289	16.71
271.504	17.9
271.719	17.8
271.934	18.1
272.149	17.02
272.363	16.51
272.578	15.6
272.793	14.44
273.008	14.11
273.223	14.81
273.438	14.23
273.653	14.54
273.867	13.1
274.082	13.41
274.297	12.92
274.512	12.61
274.726	11.99
274.941	10.53
275.156	12.2
275.371	11.9
275.585	13.71
275.8	15.19
276.015	13.22
276.229	14.1
276.444	14.6
276.659	14.04
276.873	13.44
277.088	16.37
277.302	19.63
277.517	18.67
277.732	19.3
277.946	18.3
278.161	18.21
278.375	18.9
278.59	18.29
278.804	17.6
279.019	19.03
279.233	18.13
279.448	14.26
279.662	12.24
279.877	11.65
280.091	10.57
280.306	9.94
280.52	6.91
280.735	6.78
280.949	8.69
281.163	9.07
281.378	8.06
281.592	10.31
281.806	11.67
282.021	10.98
282.235	12.73
282.449	13.81
282.664	13.59
282.878	15.69
283.092	15.04
283.307	13.84
283.521	11.99
283.735	13.16
283.949	12.85
284.164	12.69
284.378	13.15
284.592	10.85
284.806	10.73
285.02	10.73
285.234	9.06
285.449	9.91
285.663	11.19
285.877	11.5
286.091	11.2
286.305	11.57
286.519	11.73
286.733	12.18
286.947	13.99
287.161	14.36
287.375	14.11
287.589	17
287.803	18.64
288.017	17.55
288.231	18.06
288.445	18.05
288.659	17.64
288.873	17.25
289.087	17.94
289.301	18.68
289.515	17.48
289.729	18.2
289.943	17.58
290.157	17.17
290.371	17.27
290.584	17.41
290.798	18.3
291.012	18.46
291.226	18.51
291.44	18.58
291.654	17.65
291.867	17.98
292.081	17.65
292.295	16.66
292.509	15.48
292.722	14.98
292.936	14.72
293.15	13.37
293.364	12.45
293.577	13.3
293.791	13.52
294.005	12.04
294.218	13.01
294.432	14.4
294.645	14.87
294.859	15.04
295.073	15.61
295.286	16.84
295.5	17.2
295.713	16.87
295.927	16.2
296.14	14.55
296.354	14.6
296.568	13.48
296.781	12.84
296.994	13.61
297.208	13.54
297.421	13.5
297.635	13.2
297.848	12.69
298.062	12.06
298.275	12.26
298.489	12.93
298.702	13.75
298.915	13.67
299.129	12.84
299.342	12.33
299.555	12.61
299.769	12.04
299.982	11.23
300.195	12.13
300.409	13.12
300.622	12.81
300.835	12.23
301.048	12.24
301.262	14.19
301.475	16.67
301.688	16.57
301.901	16.96
302.115	18.24
302.328	18.7
302.541	18.64
302.754	19.43
302.967	21.04
303.18	22.26
303.393	22.97
303.607	21.55
303.82	21.4
304.033	21.85
304.246	21.29
304.459	21.22
304.672	22.38
304.885	22.82
305.098	23.12
305.311	22.78
305.524	23.06
305.737	23.09
305.95	24.5
306.163	24.27
306.376	24
306.589	24.64
306.802	24.46
307.015	23.1
307.228	22.91
307.44	21.73
307.653	20.14
307.866	19.66
308.079	19.92
308.292	18.92
308.505	19.01
308.718	19.9
308.93	20.55
309.143	21.11
309.356	22.24
309.569	21.53
309.781	21.96
309.994	23.21
310.207	22.43
310.42	21.28
310.632	20.71
310.845	20.36
311.058	19.77
311.27	18.6
311.483	18.28
311.696	17.75
311.908	18.02
312.121	18.28
312.333	18.21
312.546	18.75
312.759	18.52
312.971	19.65
313.184	19.85
313.396	19.81
313.609	19.71
313.821	20
314.034	20.42
314.246	20
314.459	20.19
314.671	19.35
314.884	19.24
315.096	20.19
315.309	20.64
315.521	21.03
315.733	20.97
315.946	21.5
316.158	21.41
316.371	20.96
316.583	20.16
316.795	19.57
317.008	20.43
317.22	20.3
317.432	21.66
317.644	21.68
317.857	21.03
318.069	20.7
318.281	20.87
318.494	20.18
318.706	21.46
318.918	22.87
319.13	23.35
319.342	22.83
319.555	23.01
319.767	22.67
319.979	21.6
320.191	21.19
320.403	22.11
320.615	22.75
320.827	24.84
321.039	24.57
321.252	25.04
321.464	24.38
321.676	25.41
321.888	24.97
322.1	24.1
322.312	23.7
322.524	25.5
322.736	24.32
322.948	24.43
323.16	22.81
323.372	23.05
323.584	23.05
323.796	24.04
324.007	23.27
324.219	24.43
324.431	25.96
324.643	27.64
324.855	27.89
325.067	28.77
325.279	28.41
325.491	28.85
325.702	28.93
325.914	29.21
326.126	29.55
326.338	28.47
326.55	28.17
326.761	27.4
326.973	27.35
327.185	27.58
327.396	28.33
327.608	28.64
327.82	28.53
328.032	28.04
328.243	28.66
328.455	28.84
328.666	29.98
328.878	30.92
329.09	31.3
329.301	30.39
329.513	29.62
329.725	29.57
329.936	31.25
330.148	32.72
330.359	34.11
330.571	35.31
330.782	35.28
330.994	36.57
331.205	37.27
331.417	37.92
331.628	38.64
331.84	40.93
332.051	41.05
332.262	39.46
332.474	38.92
332.685	38.99
332.897	38.01
333.108	38.64
333.319	38.63
333.531	39.44
333.742	39.2
333.953	39.47
334.165	37.82
334.376	39.27
334.587	40.74
334.799	40.18
335.01	39.66
335.221	39.46
335.432	38.94
335.644	38.61
335.855	37.68
336.066	38.18
336.277	39
336.488	38.71
336.7	37.16
336.911	37.65
337.122	38.41
337.333	38.6
337.544	39.34
337.755	40.24
337.966	40.62
338.177	39.92
338.388	39.12
338.599	37.72
338.811	37.04
339.022	37.42
339.233	36.84
339.444	36.22
339.655	35.29
339.866	34.21
340.076	32.67
340.287	32.2
340.498	32.79
340.709	32.92
340.92	33.34
341.131	34.54
341.342	34.57
341.553	33.28
341.764	33.49
341.975	34.44
342.185	34.09
342.396	34.83
342.607	35.39
342.818	34.38
343.029	33.5
343.239	33.56
343.45	32.71
343.661	32.24
343.872	32.98
344.082	32.19
344.293	32.1
344.504	33.01
344.714	32.62
344.925	32.85
345.136	33.58
345.346	32.93
345.557	33.57
345.768	33.34
345.978	34.05
346.189	33.56
346.399	33.73
346.61	33.1
346.821	32.99
347.031	33.15
347.242	32.73
347.452	32.85
347.663	34.19
347.873	34.32
348.084	35.07
348.294	33.42
348.504	33.5
348.715	35
348.925	35.51
349.136	34.19
349.346	34.34
349.557	34.42
349.767	35.11
349.977	35.08
350.188	33.72
350.398	34.16
350.608	35.38
350.819	35.88
351.029	34.62
351.239	36.11
351.449	36.33
351.66	36.1
351.87	36.25
352.08	35.3
352.29	35.29
352.501	35.31
352.711	34.43
352.921	34.55
353.131	33.92
353.341	34.24
353.552	32.2
353.762	32.51
353.972	31.93
354.182	32.12
354.392	32.16
354.602	32.62
354.812	33.49
355.022	32.6
355.232	32.45
355.442	32.64
355.652	32.95
355.862	33.11
356.072	33.37
356.282	33.88
356.492	33.64
356.702	33.2
356.912	32.33
357.122	32.82
357.332	33.66
357.542	33.04
357.752	33
357.962	32.81
358.171	33
358.381	33.3
358.591	33.08
358.801	32.62
359.011	32.32
359.221	33.01
359.43	31.9
359.64	30.99
359.85	31.08
360.06	30.7
360.269	30.31
360.479	30.09
360.689	29.39
360.899	29.98
361.108	30.1
361.318	30.21
361.528	29.53
361.737	29.64
361.947	30.29
362.156	30.17
362.366	29.84
362.576	29.94
362.785	29.99
362.995	30.26
363.204	29.67
363.414	29.82
363.623	29.81
363.833	30.25
364.042	30.32
364.252	30.51
364.461	30.2
364.671	30.72
364.88	30.46
365.09	30.81
365.299	31.22
365.509	31.42
365.718	30.7
365.927	30.89
366.137	30.73
366.346	30.55
366.555	30.11
366.765	30.61
366.974	30.35
367.183	29.03
367.393	28.14
367.602	27.5
367.811	27.4
368.021	28.06
368.23	27.98
368.439	27.61
368.648	27.04
368.857	26.9
369.067	27.13
369.276	27.72
369.485	29.63
369.694	30.13
369.903	29.87
370.112	29.92
370.321	29.16
370.531	28.69
370.74	28.23
370.949	28.55
371.158	27.86
371.367	27.28
371.576	26.54
371.785	26.07
371.994	26.28
372.203	26.56
372.412	26.27
372.621	26.73
372.83	26.67
373.039	27.56
373.248	26.81
373.457	27.71
373.666	27.21
373.874	26.98
374.083	26.77
374.292	25.8
374.501	25.73
374.71	25.45
374.919	25.54
375.128	25.69
375.336	25.28
375.545	25.98
375.754	25.65
375.963	25.67
376.171	25.38
376.38	25.36
376.589	25.47
376.798	24.58
377.006	24.8
377.215	24.13
377.424	24.04
377.632	23.42
377.841	23.27
378.05	23.15
378.258	23.21
378.467	23.38
378.675	22.89
378.884	23.13
379.093	23.46
379.301	23.68
379.51	23.63
379.718	23.51
379.927	24.25
380.135	24.32
380.344	23.91
380.552	24.42
380.761	24.19
380.969	24.26
381.177	24.15
381.386	24.75
381.594	24.14
381.803	24.18
382.011	24.14
382.219	23.41
382.428	23.14
382.636	23.42
382.845	22.54
383.053	22.83
383.261	22.76
383.469	22.6
383.678	22.17
383.886	22.19
384.094	22.15
384.302	22.18
384.511	22.42
384.719	22.28
384.927	22.21
385.135	22.4
385.343	21.71
385.552	21.73
385.76	21.43
385.968	21.36
386.176	21.23
386.384	20.37
386.592	19.98
386.8	19.82
387.008	20.23
387.216	19.94
387.424	20.16
387.633	20.36
387.841	20.46
388.049	20.63
388.257	20.49
388.465	19.91
388.672	20.44
388.88	20.53
389.088	20.2
389.296	19.28
389.504	19.12
389.712	19.19
389.92	19.26
390.128	19.21
390.336	18.94
390.544	18.67
390.751	18.88
390.959	18.79
391.167	18.67
391.375	18.73
391.583	18.8
391.79	18.58
391.998	18.58
392.206	18.35
392.414	17.92
392.621	17.8
392.829	17.95
393.037	17.98
393.244	17.91
393.452	17.82
393.66	17.71
393.867	17.95
394.075	18.08
394.283	17.52
394.49	17.34
394.698	17.26
394.905	17.29
395.113	17.33
395.32	16.98
395.528	17.01
395.735	17.13
395.943	17.11
396.15	16.78
396.358	16.55
396.565	16.54
396.773	16.96
396.98	17.13
397.188	16.9
397.395	16.51
397.602	16.74
397.81	16.49
398.017	16.58
398.225	17.12
398.432	17.22
398.639	17.45
398.847	17.39
399.054	17.15
399.261	16.99
399.468	17.15
399.676	17.2
399.883	17.11
400.09	17.44
400.297	17.08
400.505	16.96
400.712	17.13
400.919	17.37
401.126	17.44
401.333	17.44
401.54	17.38
401.748	17.2
401.955	17.01
402.162	17.05
402.369	16.84
402.576	16.83
402.783	16.08
402.99	15.74
403.197	15.21
403.404	15.05
403.611	15.03
403.818	15.09
404.025	15.22
404.232	15.44
404.439	15.35
404.646	15.16
404.853	15.09
405.06	15.06
405.267	15.32
405.474	15.64
405.681	15.89
405.887	15.67
406.094	15.85
406.301	15.69
406.508	15.72
406.715	16.23
406.922	16.58
407.128	16.87
407.335	17.07
407.542	17.11
407.749	16.8
407.955	16.68
408.162	16.67
408.369	16.48
408.575	16.77
408.782	16.98
408.989	16.21
409.195	15.97
409.402	15.87
409.609	15.72
409.815	15.45
410.022	15.7
410.228	15.48
410.435	15.93
410.642	15.93
410.848	15.68
411.055	15.22
411.261	15.46
411.468	15.88
411.674	15.53
411.881	15.82
412.087	15.74
412.294	15.56
412.5	15.59
412.706	15.21
412.913	15.01
413.119	15.19
413.326	15.42
413.532	15.37
413.738	15.17
413.945	15.26
414.151	15.39
414.357	15.47
414.564	15.63
414.77	15.78
414.976	15.99
415.182	16.22
415.389	15.94
415.595	15.51
415.801	15.41
416.007	15.34
416.214	15.15
416.42	14.76
416.626	14.58
416.832	14.43
417.038	14.27
417.244	14.01
417.45	13.94
417.657	13.96
417.863	14.06
418.069	14.19
418.275	13.9
418.481	13.94
418.687	14
418.893	13.99
419.099	13.85
419.305	13.88
419.511	13.79
419.717	13.65
419.923	13.61
420.129	13.49
420.335	13.51
420.541	13.44
420.746	13.49
420.952	13.41
421.158	13.42
421.364	13.35
421.57	13.33
421.776	13.39
421.982	13.47
422.187	13.37
422.393	13.42
422.599	13.38
422.805	13.51
423.01	13.5
423.216	13.56
423.422	13.66
423.628	13.71
423.833	13.68
424.039	13.73
424.245	13.74
424.45	13.8
424.656	13.89
424.862	13.8
425.067	13.78
425.273	13.84
425.478	13.79
425.684	13.69
425.889	13.9
426.095	13.95
426.301	13.77
426.506	13.66
426.712	13.76
426.917	13.74
427.123	13.62
427.328	13.67
427.533	13.62
427.739	13.82
427.944	13.88
428.15	13.61
428.355	13.45
428.561	13.77
428.766	13.82
428.971	13.63
429.177	13.65
429.382	13.8
429.587	13.95
429.793	13.89
429.998	13.75
430.203	13.76
430.408	13.92
430.614	13.95
430.819	13.76
431.024	13.74
431.229	13.78
431.434	13.85
431.64	13.79
431.845	13.69
432.05	13.77
432.255	13.6
432.46	13.53
432.665	13.47
432.87	13.56
433.076	13.7
433.281	13.72
433.486	13.65
433.691	13.49
433.896	13.57
434.101	13.38
434.306	13.27
434.511	13.48
434.716	13.5
434.921	13.67
435.126	13.75
435.331	13.79
435.535	13.64
435.74	13.74
435.945	13.69
436.15	13.56
436.355	13.86
436.56	13.97
436.765	13.86
436.97	13.83
437.174	13.68
437.379	13.64
437.584	13.66
437.789	13.71
437.993	13.73
438.198	13.83
438.403	13.94
438.608	13.75
438.812	13.69
439.017	13.6
439.222	13.54
439.426	13.49
439.631	13.43
439.836	13.39
440.04	13.44
440.245	13.47
440.45	13.53
440.654	13.47
440.859	13.36
441.063	13.35
441.268	13.39
441.472	13.35
441.677	13.33
441.881	13.2
442.086	13
442.29	12.91
442.495	12.79
442.699	12.76
442.904	12.67
443.108	12.93
443.312	12.95
443.517	13.08
443.721	13.18
443.925	13.24
444.13	13.23
444.334	13.22
444.538	13.27
444.743	13.37
444.947	13.21
445.151	13.38
445.356	13.13
445.56	13.07
445.764	12.84
445.968	12.81
446.173	12.77
446.377	12.97
446.581	13.05
446.785	13.07
446.989	12.98
447.193	13
447.398	12.99
447.602	12.93
447.806	12.94
448.01	13.13
448.214	13.17
448.418	13.06
448.622	12.97
448.826	13.05
449.03	12.85
449.234	12.94
449.438	12.99
449.642	12.83
449.846	13.17
450.05	13.19
450.254	13.03
450.458	13
450.662	13.23
450.866	13.12
451.069	13.03
451.273	13.21
451.477	13.15
451.681	13.19
451.885	13.17
452.089	13.14
452.292	13.08
452.496	13.03
452.7	13.06
452.904	13.03
453.107	13.36
453.311	13.15
453.515	13.32
453.719	13.35
453.922	13.4
454.126	13.36
454.33	13.14
454.533	13.15
454.737	13.34
454.94	13.15
455.144	12.99
455.348	12.61
455.551	12.83
455.755	12.83
455.958	12.89
456.162	12.89
456.365	12.84
456.569	12.82
456.772	12.88
456.976	12.95
457.179	13.27
457.383	13.28
457.586	13.43
457.79	13.39
457.993	13.39
458.196	13.21
458.4	13.14
458.603	13.19
458.807	13.1
459.01	13.19
459.213	13.03
459.417	12.86
459.62	12.79
459.823	12.8
460.026	12.63
460.23	12.5
460.433	12.43
460.636	12.38
460.839	12.39
461.042	12.44
461.246	12.34
461.449	12.4
461.652	12.53
461.855	12.55
462.058	12.5
462.261	12.81
462.464	12.69
462.668	12.72
462.871	12.97
463.074	12.96
463.277	12.98
463.48	12.95
463.683	13.06
463.886	12.81
464.089	12.98
464.292	12.82
464.495	12.71
464.698	12.85
464.901	13.07
465.104	12.83
465.306	12.67
465.509	12.77
465.712	12.99
465.915	12.87
466.118	12.71
466.321	12.74
466.524	12.78
466.726	12.81
466.929	12.72
467.132	12.45
467.335	12.53
467.538	12.59
467.74	12.48
467.943	12.15
468.146	12.04
468.348	12.17
468.551	11.9
468.754	11.86
468.956	11.93
469.159	11.95
469.362	12.2
469.564	12.26
469.767	12.53
469.969	12.66
470.172	12.78
470.375	12.73
470.577	12.93
470.78	13.16
470.982	13.21
471.185	12.98
471.387	13.16
471.59	13.01
471.792	12.77
471.995	12.61
472.197	12.67
472.399	12.84
472.602	12.92
472.804	12.77
473.007	12.73
473.209	12.72
473.411	12.75
473.614	12.8
473.816	12.88
474.018	12.94
474.22	13.07
474.423	13.06
474.625	12.9
474.827	13.09
475.03	13.19
475.232	13.16
475.434	13.28
475.636	13.23
475.838	13.16
476.04	13.09
476.243	13.16
476.445	13.13
476.647	13.13
476.849	13.22
477.051	13.02
477.253	13.17
477.455	13.06
477.657	12.96
477.859	13
478.061	12.83
478.263	12.78
478.465	12.67
478.667	12.37
478.869	12.29
479.071	12.24
479.273	12.29
479.475	12.19
479.677	12.31
479.879	12.23
480.081	12.27
480.283	12.49
480.485	12.37
480.686	12.47
480.888	12.65
481.09	12.52
481.292	12.33
481.494	12.26
481.695	12.11
481.897	12.03
482.099	12.04
482.301	11.97
482.502	11.72
482.704	11.8
482.906	11.67
483.107	11.62
483.309	11.6
483.511	11.67
483.712	11.71
483.914	11.75
484.115	11.71
484.317	11.72
484.519	11.74
484.72	11.78
484.922	11.8
485.123	11.81
485.325	11.83
485.526	11.93
485.728	11.89
485.929	11.92
486.131	11.85
486.332	11.87
486.534	11.94
486.735	11.96
486.936	11.96
487.138	11.9
487.339	11.95
487.541	11.92
487.742	11.84
487.943	11.81
488.144	11.74
488.346	11.8
488.547	11.82
488.748	11.78
488.95	11.71
489.151	11.76
489.352	11.8
489.553	11.87
489.755	11.92
489.956	11.9
490.157	11.95
490.358	11.97
490.559	11.89
490.76	11.9
490.961	11.79
491.163	11.85
491.364	11.87
491.565	11.9
491.766	11.83
491.967	11.82
492.168	11.83
492.369	11.84
492.57	11.82
492.771	11.97
492.972	11.91
493.173	11.97
493.374	12.01
493.575	12.02
493.776	12.06
493.976	12.18
494.177	12.35
494.378	12.53
494.579	12.68
494.78	12.75
494.981	12.71
495.182	12.91
495.382	12.89
495.583	12.83
495.784	12.8
495.985	12.85
496.185	12.78
496.386	12.57
496.587	12.53
496.788	12.48
496.988	12.36
497.189	12.33
497.39	12.25
497.59	12.47
497.791	12.36
497.992	12.37
498.192	12.36
498.393	12.47
498.593	12.58
498.794	12.47
498.994	12.53
499.195	12.66
499.395	12.79
499.596	12.9
499.796	12.61
499.997	12.85
500.197	12.84
500.398	12.78
500.598	12.62
500.799	12.71
500.999	12.83
501.199	12.72
501.4	12.84
501.6	12.7
501.801	12.68
502.001	12.97
502.201	12.9
502.402	12.92
502.602	12.85
502.802	13.02
503.002	12.89
503.203	12.99
503.403	13.17
503.603	13.05
503.803	13.09
504.003	13.19
504.204	13.2
504.404	13.39
504.604	13.44
504.804	13.8
505.004	13.74
505.204	13.86
505.404	13.86
505.604	13.8
505.804	13.85
506.005	13.91
506.205	13.74
506.405	13.75
506.605	13.73
506.805	13.79
507.005	13.53
507.204	13.44
507.404	13.41
507.604	13.53
507.804	13.63
508.004	13.73
508.204	13.75
508.404	13.86
508.604	13.9
508.804	13.99
509.003	14.09
509.203	14.13
509.403	14.29
509.603	14.3
509.803	14.25
510.002	14.21
510.202	14.25
510.402	14.27
510.602	14.21
510.801	14.17
511.001	13.99
511.201	13.91
511.4	13.94
511.6	13.95
511.8	14.1
511.999	14.29
512.199	14.16
512.398	14.22
512.598	14.3
512.797	14.61
512.997	14.68
513.197	14.85
513.396	15.08
513.596	15.16
513.795	15.21
513.994	15.23
514.194	15.02
514.393	15.23
514.593	15.17
514.792	15.31
514.992	15.34
515.191	15.43
515.39	15.63
515.59	15.44
515.789	15.57
515.988	15.72
516.188	15.74
516.387	15.93
516.586	16.17
516.786	16.25
516.985	16.31
517.184	16.28
517.383	16.38
517.582	16.3
517.782	16.26
517.981	16.33
518.18	16.23
518.379	16.46
518.578	16.38
518.777	16.39
518.976	16.54
519.176	16.59
519.375	16.62
519.574	16.63
519.773	16.68
519.972	17.04
520.171	17.16
520.37	17.39
520.569	17.35
520.768	17.61
520.967	17.61
521.166	17.58
521.365	17.71
521.564	17.9
521.762	17.94
521.961	17.97
522.16	17.86
522.359	17.84
522.558	17.88
522.757	17.94
522.956	17.85
523.154	17.98
523.353	18.17
523.552	18.13
523.751	18.04
523.949	18.15
524.148	18.15
524.347	18.37
524.546	18.57
524.744	18.65
524.943	18.67
525.142	18.8
525.34	18.91
525.539	18.77
525.737	18.89
525.936	18.97
526.135	19.02
526.333	19.14
526.532	19.05
526.73	18.97
526.929	19.08
527.127	19.17
527.326	19.14
527.524	19.23
527.723	19.37
527.921	19.43
528.12	19.52
528.318	19.61
528.516	19.72
528.715	19.76
528.913	19.74
529.112	19.79
529.31	19.79
529.508	19.89
529.707	19.89
529.905	20.02
530.103	20.09
530.301	20.14
530.5	20.12
530.698	20.14
530.896	20.32
531.094	20.56
531.293	20.58
531.491	20.79
531.689	20.88
531.887	20.99
532.085	20.93
532.283	20.79
532.481	20.86
532.68	20.98
532.878	21
533.076	21.04
533.274	21
533.472	21
533.67	20.98
533.868	21.1
534.066	21.16
534.264	21.23
534.462	21.34
534.66	21.42
534.858	21.51
535.056	21.76
535.253	21.78
535.451	21.84
535.649	22
535.847	22.19
536.045	22.17
536.243	22.37
536.441	22.5
536.638	22.74
536.836	22.74
537.034	22.98
537.232	22.94
537.43	22.94
537.627	23.08
537.825	23.29
538.023	23.2
538.22	23.4
538.418	23.42
538.616	23.47
538.813	23.42
539.011	23.55
539.209	23.43
539.406	23.48
539.604	23.88
539.801	24.03
539.999	23.96
540.196	24.06
540.394	24.15
540.591	24.07
540.789	24.14
540.986	24.15
541.184	24.26
541.381	24.34
541.579	24.29
541.776	24.19
541.974	24.26
542.171	24.34
542.368	24.39
542.566	24.37
542.763	24.43
542.96	24.47
543.158	24.71
543.355	24.73
543.552	24.85
543.75	25.14
543.947	25.31
544.144	25.31
544.341	25.36
544.539	25.41
544.736	25.58
544.933	25.69
545.13	25.8
545.327	25.82
545.524	25.96
545.722	26.03
545.919	25.96
546.116	25.96
546.313	26
546.51	26.18
546.707	26.22
546.904	26.24
547.101	26.39
547.298	26.56
547.495	26.6
547.692	26.59
547.889	26.5
548.086	26.75
548.283	26.87
548.48	27
548.677	27
548.874	27.32
549.07	27.42
549.267	27.64
549.464	27.74
549.661	27.93
549.858	28.1
550.055	28.54
550.251	28.53
550.448	28.56
550.645	28.64
550.842	28.79
551.038	28.69
551.235	28.79
551.432	28.78
551.628	28.89
551.825	29.05
552.022	29.27
552.218	29.23
552.415	29.33
552.612	29.44
552.808	29.53
553.005	29.46
553.201	29.62
553.398	29.71
553.594	29.85
553.791	30.03
553.987	29.97
554.184	30.01
554.38	30.13
554.577	30.18
554.773	30.39
554.97	30.5
555.166	30.87
555.362	30.98
555.559	31.21
555.755	31.32
555.952	31.3
556.148	31.37
556.344	31.4
556.541	31.35
556.737	31.35
556.933	31.54
557.129	31.51
557.326	31.53
557.522	31.42
557.718	31.5
557.914	31.42
558.11	31.22
558.307	31.26
558.503	31.16
558.699	31.33
558.895	31.67
559.091	31.79
559.287	32.32
559.483	32.36
559.679	32.42
559.876	32.25
560.072	32.29
560.268	32.47
560.464	32.55
560.66	32.7
560.856	32.87
561.052	32.94
561.247	32.83
561.443	32.62
561.639	32.67
561.835	33.02
562.031	33.15
562.227	33.23
562.423	33.33
562.619	33.5
562.815	33.68
563.01	33.77
563.206	33.61
563.402	33.56
563.598	33.8
563.793	34.06
563.989	34.06
564.185	34.26
564.381	34.34
564.576	34.55
564.772	34.43
564.968	34.66
565.163	34.63
565.359	34.84
565.555	35
565.75	35.07
565.946	34.91
566.141	34.91
566.337	34.8
566.532	34.98
566.728	35.08
566.923	35.2
567.119	35.17
567.314	35.37
567.51	35.45
567.705	35.62
567.901	35.67
568.096	35.76
568.292	36.04
568.487	36.14
568.682	36.12
568.878	36.13
569.073	36.22
569.268	35.96
569.464	35.95
569.659	35.87
569.854	35.76
570.05	35.61
570.245	36.09
570.44	36.09
570.635	36.11
570.831	36.19
571.026	36.33
571.221	36.69
571.416	36.91
571.611	36.96
571.806	37
572.002	37.31
572.197	37.37
572.392	37.18
572.587	37.29
572.782	37.5
572.977	37.49
573.172	37.52
573.367	37.35
573.562	37.63
573.757	37.56
573.952	37.57
574.147	37.47
574.342	37.69
574.537	37.64
574.732	37.32
574.927	37.35
575.121	37.52
575.316	37.45
575.511	37.37
575.706	37.22
575.901	37.26
576.096	37.41
576.29	37.39
576.485	37.39
576.68	37.43
576.875	37.62
577.069	37.57
577.264	37.62
577.459	37.74
577.654	38.06
577.848	38.26
578.043	38.49
578.238	38.8
578.432	38.97
578.627	39.03
578.821	39.26
579.016	39.42
579.21	39.61
579.405	39.42
579.6	39.37
579.794	39.28
579.989	39.22
580.183	39.19
580.378	38.94
580.572	38.97
580.766	39.1
580.961	39.14
581.155	39.12
581.35	39.3
581.544	39.43
581.738	39.92
581.933	39.86
582.127	40.11
582.321	40.09
582.516	40.1
582.71	40.18
582.904	40.29
583.099	40.25
583.293	40.54
583.487	40.59
583.681	40.91
583.875	40.48
584.07	40.72
584.264	40.8
584.458	40.85
584.652	40.9
584.846	41.07
585.04	40.77
585.234	40.84
585.428	40.73
585.623	40.77
585.817	40.67
586.011	40.93
586.205	40.86
586.399	40.98
586.593	40.95
586.787	41.14
586.981	40.87
587.174	41.28
587.368	41.39
587.562	41.56
587.756	41.3
587.95	41.36
588.144	41.06
588.338	41.26
588.532	40.8
588.725	40.96
588.919	41.04
589.113	41.05
589.307	41.09
589.501	40.75
589.694	40.89
589.888	41.11
590.082	41.05
590.275	41.1
590.469	41.27
590.663	41.55
590.856	41.34
591.05	41.28
591.244	41.44
591.437	41.43
591.631	41.67
591.824	41.45
592.018	41.17
592.212	41.34
592.405	41.65
592.599	41.47
592.792	41.42
592.986	41.49
593.179	41.22
593.372	41.34
593.566	41.04
593.759	41.1
593.953	41.22
594.146	41.43
594.339	41.34
594.533	41.31
594.726	41.14
594.92	41.37
595.113	41.46
595.306	41.54
595.499	41.63
595.693	41.89
595.886	41.84
596.079	41.88
596.272	42.04
596.466	42.14
596.659	42.13
596.852	42.3
597.045	42.09
597.238	42.13
597.431	42.09
597.624	42.07
597.818	41.82
598.011	42.01
598.204	41.89
598.397	41.84
598.59	41.71
598.783	41.68
598.976	41.85
599.169	41.86
599.362	41.82
599.555	41.93
599.748	42.02
599.941	42.19
600.134	42.17
600.326	42.32
600.519	42.43
600.712	42.7
600.905	42.76
601.098	42.81
601.291	43.16
601.483	43.25
601.676	43.38
601.869	43.2
602.062	42.98
602.255	42.93
602.447	42.7
602.64	42.43
602.833	42.27
603.025	42.34
603.218	42.29
603.411	42.16
603.603	42.13
603.796	42.29
603.989	42.2
604.181	42.44
604.374	42.39
604.566	42.69
604.759	42.7
604.951	42.71
605.144	42.82
605.336	43.04
605.529	43.01
605.721	42.94
605.914	42.94
606.106	42.99
606.299	43.06
606.491	43.31
606.683	43.27
606.876	43.32
607.068	43.46
607.26	43.19
607.453	42.89
607.645	42.76
607.837	43.24
608.03	42.91
608.222	43.01
608.414	42.89
608.606	42.56
608.799	42.7
608.991	42.75
609.183	42.8
609.375	42.92
609.567	42.74
609.759	43.04
609.952	42.92
610.144	42.98
610.336	42.93
610.528	42.96
610.72	43.04
610.912	42.83
611.104	43.14
611.296	43.1
611.488	43.27
611.68	43.4
611.872	43.11
612.064	43.4
612.256	43.57
612.448	43.73
612.64	43.76
612.832	43.96
613.023	43.79
613.215	44.01
613.407	43.89
613.599	43.79
613.791	43.94
613.983	43.98
614.174	43.6
614.366	43.77
614.558	43.42
614.75	43.65
614.941	43.4
615.133	43.6
615.325	43.37
615.516	43.47
615.708	43.55
615.9	43.59
616.091	43.4
616.283	43.39
616.475	43.13
616.666	43.54
616.858	43.5
617.049	43.72
617.241	43.66
617.432	43.6
617.624	43.79
617.815	43.62
618.007	43.31
618.198	43.71
618.39	43.63
618.581	43.99
618.773	43.85
618.964	43.81
619.155	43.8
619.347	43.66
619.538	43.63
619.729	43.42
619.921	43.36
620.112	43.8
620.303	43.72
620.494	43.6
620.686	43.2
620.877	43.47
621.068	43.14
621.259	42.88
621.451	43.48
621.642	43.21
621.833	43.47
622.024	43.81
622.215	43.75
622.406	43.93
622.597	44.19
622.788	44.3
622.98	44
623.171	44.25
623.362	44.49
623.553	44.44
623.744	44.63
623.935	44.47
624.126	44.28
624.317	44.17
624.508	43.95
624.698	43.95
624.889	44.12
625.08	44.53
625.271	44.88
625.462	44.81
625.653	44.51
625.844	44.46
626.034	44.38
626.225	44.41
626.416	44.08
626.607	44.42
626.798	44.22
626.988	44.14
627.179	43.91
627.37	43.29
627.56	43.6
627.751	44.03
627.942	44.21
628.132	44.16
628.323	44.1
628.514	44.36
628.704	44.11
628.895	44.47
629.085	44.23
629.276	44.26
629.466	44.94
629.657	44.6
629.847	44.29
630.038	44.56
630.228	44.78
630.419	45.03
630.609	45.26
630.8	45.26
630.99	45.21
631.181	45.65
631.371	45.74
631.561	45.29
631.752	45.27
631.942	45.13
632.132	44.7
632.323	44.64
632.513	44.46
632.703	44.25
632.893	44.67
633.084	44.65
633.274	44.58
633.464	44.42
633.654	44.79
633.844	44.78
634.034	44.79
634.225	44.56
634.415	44.55
634.605	44.31
634.795	43.99
634.985	43.75
635.175	43.72
635.365	43.66
635.555	43.55
635.745	43.27
635.935	43.63
636.125	43.63
636.315	43.99
636.505	43.79
636.695	43.77
636.885	44.24
637.075	44.34
637.265	44
637.455	44.22
637.644	44.37
637.834	44.68
638.024	44.2
638.214	44.56
638.404	44.68
638.593	44.81
638.783	44.91
638.973	44.9
639.163	44.76
639.352	44.76
639.542	44.46
639.732	44.37
639.921	44.12
640.111	44.4
640.301	44.19
640.49	44.31
640.68	44.34
640.87	44.62
641.059	44.83
641.249	44.91
641.438	45.27
641.628	45.73
641.817	46.22
642.007	46.24
642.196	46.4
642.386	46.59
642.575	46.68
642.764	46.66
642.954	46.43
643.143	46.4
643.333	46.29
643.522	46.4
643.711	45.65
643.901	45.24
644.09	45.11
644.279	45.4
644.469	45.03
644.658	44.62
644.847	44.37
645.036	45.02
645.226	44.78
645.415	44.71
645.604	44.49
645.793	44.76
645.982	44.73
646.171	44.82
646.361	44.58
646.55	44.9
646.739	45.07
646.928	45.19
647.117	44.66
647.306	44.9
647.495	44.71
647.684	44.83
647.873	45.32
648.062	45.25
648.251	45.12
648.44	44.58
648.629	43.95
648.818	43.83
649.007	44.07
649.196	44.25
649.384	43.5
649.573	43.64
649.762	43.44
649.951	42.93
650.14	43.03
650.328	43.04
650.517	43.38
650.706	43.93
650.895	44.05
651.083	44.73
651.272	44.73
651.461	45.31
651.65	45.36
651.838	45.52
652.027	45.62
652.216	45.47
652.404	45.54
652.593	45.85
652.781	45.45
652.97	45.18
653.158	44.06
653.347	44.15
653.535	43.97
653.724	43.87
653.912	44.23
654.101	44.08
654.289	44.61
654.478	44.62
654.666	44.12
654.855	44.85
655.043	45.36
655.231	45.68
655.42	46.04
655.608	46.64
655.796	46.81
655.985	46.59
656.173	46.85
656.361	46.58
656.55	46.77
656.738	47.17
656.926	46.84
657.114	46.55
657.302	46.78
657.491	46.31
657.679	45.97
657.867	45.92
658.055	45.65
658.243	45.74
658.431	45.85
658.619	45.74
658.807	46.01
658.996	45.67
659.184	45.6
659.372	45.46
659.56	45.45
659.748	45.17
659.936	45.15
660.124	45.05
660.311	44.97
660.499	44.78
660.687	44.66
660.875	44.12
661.063	44.28
661.251	44.09
661.439	44.33
661.627	44.6
661.814	45.07
662.002	44.85
662.19	45.2
662.378	45.11
662.565	45.42
662.753	45.59
662.941	46.38
663.129	46.27
663.316	46.78
663.504	46.83
663.692	46.48
663.879	46.27
664.067	46.51
664.254	46.36
664.442	46.55
664.63	46.34
664.817	46.56
665.005	45.63
665.192	46.32
665.38	46.34
665.567	45.95
665.755	45.96
665.942	45.87
666.13	46.3
666.317	46.38
666.504	46.18
666.692	46.44
666.879	46.38
667.067	46.99
667.254	46.75
667.441	46.3
667.629	46.52
667.816	46.19
668.003	46.08
668.19	45.85
668.378	45.89
668.565	46.47
668.752	46.02
668.939	45.98
669.127	45.55
669.314	45.22
669.501	45.54
669.688	45.61
669.875	45.9
670.062	46.17
670.249	46.85
670.436	47.06
670.623	46.64
670.81	46.9
670.997	46.91
671.184	46.82
671.371	47.37
671.558	46.95
671.745	46.7
671.932	46.59
672.119	46.23
672.306	45.78
672.493	45.73
672.68	45.79
672.867	46.25
673.054	46.42
673.24	46.5
673.427	45.83
673.614	45.87
673.801	46.41
673.988	46.35
674.174	47.06
674.361	46.58
674.548	46.55
674.734	46.83
674.921	46.37
675.108	46.16
675.294	46.01
675.481	46.03
675.668	46.62
675.854	46.54
676.041	46.92
676.227	46.36
676.414	46.81
676.601	46.89
676.787	46.63
676.974	46.66
677.16	46.76
677.347	47.21
677.533	47.78
677.719	47.9
677.906	47.43
678.092	47.77
678.279	47.72
678.465	47.47
678.651	47.35
678.838	47.27
679.024	46.88
679.21	46.18
679.397	45.99
679.583	45.61
679.769	45.5
679.955	45.31
680.142	44.69
680.328	44.86
680.514	44.72
680.7	44.76
680.886	44.71
681.073	44.98
681.259	45.52
681.445	45.68
681.631	45.65
681.817	45.42
682.003	46.18
682.189	46.71
682.375	47
682.561	47.64
682.747	47.5
682.933	47.72
683.119	47.74
683.305	47.83
683.491	47.99
683.677	48.65
683.863	48.69
684.049	48.7
684.235	48.42
684.42	48.35
684.606	47.47
684.792	47.95
684.978	47.93
685.164	47.82
685.349	47.9
685.535	48
685.721	47.57
685.907	47.43
686.092	46.63
686.278	46.58
686.464	46.29
686.649	46.72
686.835	46.25
687.021	46.87
687.206	47.14
687.392	47.2
687.577	47.1
687.763	47.13
687.948	47.62
688.134	47.8
688.319	48.05
688.505	48.52
688.69	48.11
688.876	48.44
689.061	47.74
689.247	47.59
689.432	46.99
689.618	46.75
689.803	46.59
689.988	46.35
690.174	46.71
690.359	46.48
690.544	46.16
690.73	46.9
690.915	47.01
691.1	46.36
691.285	46.86
691.471	47.11
691.656	47.23
691.841	47.14
692.026	46.96
692.211	46.46
692.396	46.18
692.582	46.55
692.767	45.97
692.952	45.67
693.137	46.47
693.322	46.12
693.507	46.25
693.692	45.81
693.877	46.06
694.062	46.29
694.247	47.15
694.432	47.95
694.617	47.16
694.802	47.26
694.987	47.25
695.172	47.28
695.357	47.17
695.541	46.77
695.726	47.83
695.911	48.36
696.096	48.23
696.281	47.97
696.466	48.02
696.65	48.33
696.835	48.26
697.02	47.81
697.204	47.82
697.389	47.83
697.574	48.28
697.759	47.67
697.943	47.02
698.128	47.23
698.312	47.15
698.497	46.44
698.682	46.45
698.866	46.48
699.051	46.96
699.235	47.13
699.42	47.24
699.604	47.07
699.789	47.24
699.973	47.41
700.158	47.11
700.342	47.14
700.527	47.34
700.711	47.22
700.895	47.49
701.08	47.56
701.264	47.73
701.448	47.27
701.633	47.47
701.817	47.88
702.001	47.9
702.186	48.26
702.37	47.8
702.554	48.43
702.738	48.14
702.923	47.99
703.107	48
703.291	47.88
703.475	48.8
703.659	48.42
703.843	47.49
704.027	48.59
704.212	47.58
704.396	48.1
704.58	47.92
704.764	47.94
704.948	47.61
705.132	47.41
705.316	47.05
705.5	47.34
705.684	47.47
705.868	47.85
706.052	47.21
706.235	49.05
706.419	49.25
706.603	49.16
706.787	49.35
706.971	49.48
707.155	49.03
707.339	48.77
707.522	48.38
707.706	47.99
707.89	48.06
708.074	48.34
708.257	46.86
708.441	47.07
708.625	47.29
708.808	47.12
708.992	47.65
709.176	47.89
709.359	47.83
709.543	47.09
709.727	48.03
709.91	48.11
710.094	47.25
710.277	48.44
710.461	48.34
710.644	48.54
710.828	49.85
711.011	48.76
711.195	49.02
711.378	49.17
711.562	49.65
711.745	49.64
711.928	48.89
712.112	48.47
712.295	48.06
712.478	48.19
712.662	48.17
712.845	47.23
713.028	47.74
713.212	47.71
713.395	47.84
713.578	47.82
713.761	47.65
713.945	47.99
714.128	49.19
714.311	48.65
714.494	47.73
714.677	46.98
714.86	47.04
715.043	46.83
715.227	46.71
715.41	47.12
715.593	47.07
715.776	47.37
715.959	47.18
716.142	46.48
716.325	46.75
716.508	47.19
716.691	47.25
716.874	47.55
717.057	48.14
717.239	48.34
717.422	47.5
717.605	47.62
717.788	46.57
717.971	47.82
718.154	47.86
718.337	47.87
718.519	47.83
718.702	48.71
718.885	48.01
719.068	47.9
719.25	48.29
719.433	49.07
719.616	48.67
719.798	49.03
719.981	48.54
720.164	48.12
720.346	48.48
720.529	49.17
720.712	49.06
720.894	49.24
721.077	48.16
721.259	47.99
721.442	47.79
721.624	48.26
721.807	48.81
721.989	48.1
722.172	48.98
722.354	49.39
722.537	48.69
722.719	48.1
722.901	49.13
723.084	49.72
723.266	49.38
723.448	49.93
723.631	48.87
723.813	49.25
723.995	49.7
724.178	49.53
724.36	48.73
724.542	48.76
724.724	49.07
724.907	48.82
725.089	50.22
725.271	50.08
725.453	49.06
725.635	50.11
725.817	50.24
725.999	50.41
726.181	50.57
726.364	51.16
726.546	50.62
726.728	50.41
726.91	49.82
727.092	48.65
727.274	49.63
727.456	49.43
727.638	49.43
727.819	48.86
728.001	48.7
728.183	48.1
728.365	47.51
728.547	48.04
728.729	48.52
728.911	49.53
729.093	50.19
729.274	48.83
729.456	49.36
729.638	49.72
729.82	49.46
730.001	49.18
730.183	50.05
730.365	49.37
730.546	49.48
730.728	48.94
730.91	47.82
731.091	48.04
731.273	48.57
731.455	48.79
731.636	49.46
731.818	50.41
731.999	50.28
732.181	49.88
732.362	49.56
732.544	49.69
732.725	49.24
732.907	49.8
733.088	49.53
733.27	49.53
733.451	49.26
733.633	48.53
733.814	48.2
733.995	47.96
734.177	48.39
734.358	49.36
734.539	48.79
734.721	49.1
734.902	49.24
735.083	49.68
735.264	49.55
735.446	50.05
735.627	49.26
735.808	48.81
735.989	49.68
736.17	49.27
736.351	50.48
736.533	50.97
736.714	50.73
736.895	49.78
737.076	48.9
737.257	48.85
737.438	48.36
737.619	48.98
737.8	48.56
737.981	49.02
738.162	49.52
738.343	48.2
738.524	47.96
738.705	48.61
738.886	49.19
739.067	50.03
739.247	50.23
739.428	49.33
739.609	48.48
739.79	50.49
739.971	50.02
740.151	50.2
740.332	50.32
740.513	50.53
740.694	50.58
740.874	49.74
741.055	49.11
741.236	49.07
741.417	49.75
741.597	51.22
741.778	50.65
741.958	49.79
742.139	48.14
742.32	47.59
742.5	47.29
742.681	47.01
742.861	48.23
743.042	47.94
743.222	47.49
743.403	47.43
743.583	46.19
743.764	46.06
743.944	46.42
744.124	47.87
744.305	48.94
744.485	48.58
744.666	48.72
744.846	48.98
745.026	50.48
745.207	51.64
745.387	51.52
745.567	51.86
745.747	50.77
745.928	51.31
746.108	50.6
746.288	50.08
746.468	51.19
746.648	51.33
746.829	50.44
747.009	49.28
747.189	49.32
747.369	50.35
747.549	50.18
747.729	49.81
747.909	49.35
748.089	49.98
748.269	49.43
748.449	49.71
748.629	50.22
748.809	49.88
748.989	49.78
749.169	48.63
749.349	48.52
749.529	49.13
749.709	49.59
749.889	50.09
750.068	49.41
750.248	50.51
750.428	50.1
750.608	49.57
750.788	49.39
750.967	49.47
751.147	49.17
751.327	49.41
751.507	49.03
751.686	49.92
751.866	50.81
752.046	51.85
752.225	51.61
752.405	51.97
752.585	51.35
752.764	52.32
752.944	51.28
753.123	51.83
753.303	50.66
753.482	50
753.662	48.92
753.841	47.89
754.021	47.81
754.2	48.75
754.38	48.27
754.559	49.01
754.739	49.14
754.918	50.87
755.097	49.86
755.277	49.36
755.456	49.55
755.635	49.98
755.815	49.9
755.994	49.29
756.173	47.1
756.352	46.73
756.532	46
756.711	44.98
756.89	44.74
757.069	45.8
757.248	45.44
757.427	45.55
757.607	45.79
757.786	46.61
757.965	46.5
758.144	47.04
758.323	48.44
758.502	49.81
758.681	50.11
758.86	50.26
759.039	49.68
759.218	50.84
759.397	51.26
759.576	50.18
759.755	48.98
759.934	48.24
760.113	49.03
760.291	48.68
760.47	49.14
760.649	49.48
760.828	49.1
761.007	48.59
761.186	49.34
761.364	49.61
761.543	50.62
761.722	51.06
761.901	50.83
762.079	50.88
762.258	50.36
762.437	48.49
762.615	47.95
762.794	47.94
762.972	48.46
763.151	47.49
763.33	47.06
763.508	46.89
763.687	47.68
763.865	48.75
764.044	48.62
764.222	48.35
764.401	49.31
764.579	49.57
764.758	49.46
764.936	50.3
765.114	50.7
765.293	51.4
765.471	51.42
765.65	51.08
765.828	50.87
766.006	51.5
766.184	51.76
766.363	51.31
766.541	50.3
766.719	49.39
766.898	48.21
767.076	48.82
767.254	48.56
767.432	48.98
767.61	48.18
767.788	47.81
767.967	46.54
768.145	46.01
768.323	46.26
768.501	47.19
768.679	48.9
768.857	49.89
769.035	50.47
769.213	50.54
769.391	50.36
769.569	50.5
769.747	51.46
769.925	51.04
770.103	52.41
770.281	51.28
770.459	51.61
770.636	51.06
770.814	51.16
770.992	51.38
771.17	50.82
771.348	50.81
771.525	50.63
771.703	51.19
771.881	52.6
772.059	52.8
772.236	53.12
772.414	53.09
772.592	53.46
772.769	53.31
772.947	52.87
773.125	54.17
773.302	56.54
773.48	58.44
773.657	57.71
773.835	55.83
774.013	56
774.19	57.77
774.368	57.56
774.545	57.63
774.723	57.93
774.9	57.83
775.077	57.09
775.255	55.18
775.432	55.51
775.61	56.08
775.787	57.01
775.964	57.88
776.142	56.42
776.319	56.51
776.496	57.21
776.674	57.11
776.851	58.24
777.028	57.73
777.205	57.17
777.382	56.24
777.56	56.22
777.737	60.47
777.914	59.1
778.091	60.84
778.268	61.76
778.445	62.04
778.622	61.85
778.8	59.5
778.977	61.7
779.154	61.45
779.331	62.65
779.508	60.6
779.685	56.84
779.862	55.93
780.038	54.58
780.215	56.31
780.392	54.63
780.569	55.83
780.746	58.07
780.923	55.21
781.1	55.08
781.277	52.3
781.453	51.47
781.63	52.45
781.807	53.49
781.984	53.91
782.16	52.54
782.337	53.68
782.514	52.58
782.691	52.18
782.867	52.3
783.044	53.61
783.221	55.45
783.397	57.21
783.574	55.97
783.75	56.99
783.927	58.9
784.103	59.09
784.28	58.04
784.456	57.48
784.633	56.43
784.809	58.42
784.986	56.76
785.162	56.72
785.339	55.58
785.515	54.94
785.692	53.28
785.868	53.19
786.044	53.83
786.221	56.98
786.397	58.22
786.573	57.15
786.749	55.16
786.926	57.28
787.102	56.81
787.278	55.51
787.454	58.33
787.631	57.31
787.807	54.79
787.983	53.81
788.159	52.25
788.335	52.73
788.511	52.4
788.687	53.19
788.863	52.34
789.039	52.4
789.216	53.14
789.392	52.01
789.568	52.64
789.744	54.34
789.919	54.63
790.095	55.56
790.271	53.29
790.447	54.76
790.623	55.18
790.799	55.52
790.975	54.48
791.151	58.37
791.327	58.08
791.502	59.41
791.678	58.57
791.854	59.4
792.03	57.07
792.205	58.79
792.381	58.26
792.557	58.18
792.733	56.9
792.908	58.03
793.084	56.79
793.259	54.87
793.435	53.95
793.611	56.33
793.786	54.98
793.962	54.64
794.137	53.59
794.313	54.79
794.488	55.66
794.664	56.11
794.839	55.89
795.015	54.1
795.19	55.21
795.366	55.53
795.541	52.63
795.716	52.48
795.892	53.12
796.067	52.98
796.242	51.41
796.418	50.8
796.593	50.54
796.768	49.89
796.944	52.02
797.119	51.86
797.294	52.01
797.469	53.93
797.644	53.04
797.82	53.52
797.995	53.9
798.17	53.49
798.345	53.29
798.52	52.83
798.695	53.57
798.87	50.07
799.045	50.63
799.22	48.43
799.395	48.14
799.57	49.41
799.745	49.61
799.92	47.94
800.095	48.53
800.27	47.08
800.445	47.61
800.62	45.08
800.795	47.32
800.97	49.52
801.145	50.25
801.319	47.78
801.494	48.12
801.669	51.23
801.844	54.8
802.018	56.09
802.193	59.51
802.368	58.8
802.543	60.51
802.717	60.79
802.892	58.9
803.067	60.69
803.241	62.02
803.416	60.59
803.59	60.95
803.765	60.15
803.94	60.64
804.114	58.9
804.289	60.47
804.463	61.17
804.638	59.82
804.812	59.01
804.986	57.79
805.161	58.34
805.335	61.9
805.51	58.67
805.684	59.96
805.858	59.37
806.033	58.16
806.207	55.7
806.381	57.05
806.556	56.92
806.73	56.63
806.904	58.3
807.078	58.52
807.253	56.79
807.427	55.51
807.601	54.52
807.775	56.09
807.949	60.57
808.123	61.85
808.298	59.52
808.472	62.27
808.646	61.63
808.82	59.75
808.994	58.68
809.168	56.49
809.342	61.09
809.516	62.01
809.69	60.2
809.864	56.7
810.038	55.92
810.212	56.81
810.385	53.29
810.559	53.6
810.733	52.79
810.907	54.87
811.081	58.84
811.255	53.71
811.428	50.32
811.602	45.74
811.776	46.61
811.95	48.66
812.123	50.64
812.297	50.98
812.471	50.92
812.644	51.78
812.818	49.34
812.992	50.3
813.165	51.08
813.339	52.09
813.512	56.38
813.686	55.84
813.86	55.05
814.033	52.66
814.207	51.23
814.38	51.85
814.554	54.34
814.727	58.61
814.9	57.87
815.074	56.41
815.247	56.89
815.421	56.19
815.594	56.28
815.767	55.43
815.941	56.25
816.114	57.64
816.287	58.17
816.46	57.73
816.634	51.82
816.807	51.55
816.98	54.34
817.153	54
817.327	55.62
817.5	55.73
817.673	59.49
817.846	59.22
818.019	61.99
818.192	65.11
818.365	61.39
818.538	63.57
818.711	61.6
818.884	59.55
819.057	59.54
819.23	57.72
819.403	59.78
819.576	58.66
819.749	62.35
819.922	61.13
820.095	58.28
820.268	59.24
820.441	59.21
820.614	59.58
820.786	59.75
820.959	61.13
821.132	59.39
821.305	56.16
821.477	53.74
821.65	50.42
821.823	50.12
821.996	50.23
822.168	50.22
822.341	49.33
822.514	48.47
822.686	48.16
822.859	47.08
823.031	47.23
823.204	47.01
823.376	46.83
823.549	46.8
823.722	46.65
823.894	46.39
824.067	46.5
824.239	46.69
824.411	46.59
824.584	46.44
824.756	46.82
824.929	46.75
825.101	46.66
825.273	46.85
825.446	47.36
825.618	47.2
825.79	47.42
825.963	46.66
826.135	47.1
826.307	48.39
826.479	48.86
826.652	48.95
826.824	48.98
826.996	49.56
827.168	51.41
827.34	52.07
827.512	52.42
827.684	52.41
827.856	52.52
828.029	51.38
828.201	49.88
828.373	49.64
828.545	49.75
828.717	50.5
828.889	50.07
829.061	49.83
829.232	50.88
829.404	50.87
829.576	50.49
829.748	51.25
829.92	54.11
830.092	55.34
830.264	55.1
830.436	56.34
830.607	56.53
830.779	57.14
830.951	56.23
831.123	53.85
831.294	55.04
831.466	57.38
831.638	58.33
831.809	55.42
831.981	55.36
832.153	56.84
832.324	55
832.496	53.97
832.667	61.04
832.839	64.71
833.011	63.37
833.182	64.7
833.354	60.7
833.525	59.64
833.697	58.47
833.868	56.83
834.039	57.21
834.211	57.45
834.382	56.72
834.554	52.05
834.725	50.84
834.896	51.27
835.068	48.39
835.239	48.91
835.41	49.15
835.581	49.1
835.753	51.54
835.924	50.14
836.095	50.62
836.266	52.14
836.438	52.01
836.609	52.14
836.78	51.37
836.951	54.02
837.122	55
837.293	55.48
837.464	58.34
837.635	59.57
837.806	57.88
837.977	56.51
838.148	58.05
838.319	59.21
838.49	56.64
838.661	58.65
838.832	61.29
839.003	62.41
839.174	62.24
839.345	65.25
839.516	61.48
839.687	68
839.857	67.74
840.028	66.71
840.199	67.67
840.37	71.36
840.54	72.91
840.711	69.36
840.882	69.42
841.053	70.1
841.223	69.64
841.394	72.21
841.564	77.62
841.735	83.91
841.906	85.18
842.076	85.84
842.247	85.29
842.417	79.95
842.588	81
842.758	81.54
842.929	81.9
843.099	75.15
843.27	72.91
843.44	70.06
843.611	68.89
843.781	69.87
843.951	70.33
844.122	69.04
844.292	71.48
844.462	72.49
844.633	75.49
844.803	75.77
844.973	77.79
845.144	79.41
845.314	71.31
845.484	71.55
845.654	65.8
845.824	69.44
845.995	67.37
846.165	71.36
846.335	69.78
846.505	68.69
846.675	73.5
846.845	77.07
847.015	95.4
847.185	114.26
847.355	107.51
847.525	113.51
847.695	111.59
847.865	122.07
848.035	118.92
848.205	108.07
848.375	106.94
848.545	104.64
848.715	102.03
848.884	79.11
849.054	67.56
849.224	66.32
849.394	66.33
849.564	60.32
849.733	67.75
849.903	64.83
850.073	64.11
850.243	59.99
850.412	62.79
850.582	57.7
850.752	55.12
850.921	57.92
851.091	68.08
851.26	79.66
851.43	77.16
851.599	67.64
851.769	63.17
851.939	75.74
852.108	81.8
852.278	80.37
852.447	94.44
852.616	102.09
852.786	95.74
852.955	95.83
853.125	85
853.294	87.93
853.463	85.47
853.633	95.86
853.802	98.19
853.971	108.32
854.141	99.83
854.31	90.03
854.479	91.15
854.648	111.25
854.818	93.25
854.987	89.17
855.156	96.58
855.325	104.92
855.494	119.52
855.663	106.35
855.832	94.75
856.001	89.79
856.171	93.4
856.34	98.54
856.509	112.21
856.678	141.25
856.847	138.58
857.016	138.22
857.185	138.51
857.353	131.75
857.522	146.72
857.691	138.84
857.86	149.03
858.029	146.95
858.198	139.46
858.367	136.16
858.535	127
858.704	135.73
858.873	132.56
859.042	121.83
859.21	118.7
859.379	99.78
859.548	105.23
859.717	99.64
859.885	109.37
860.054	100.35
860.222	84.54
860.391	81.1
860.56	85.04
860.728	89.07
860.897	90.44
861.065	94.57
861.234	96.5
861.402	88.63
861.571	75.96
861.739	70.81
861.908	69.05
862.076	77.87
862.244	82.43
862.413	79.15
862.581	75.47
862.749	74.2
862.918	64.56
863.086	63.13
863.254	64.83
863.423	77.32
863.591	62.82
863.759	65.66
863.927	48.44
864.096	41.56
864.264	37.35
864.432	47.22
864.6	52.79
864.768	53.7
864.936	60.57
865.104	70.9
865.272	76.98
865.44	81.54
865.608	91.14
865.776	97.17
865.944	100.48
866.112	106.24
866.28	100.41
866.448	94
866.616	106.64
866.784	95.54
866.952	89.59
867.12	92.8
867.288	101.08
867.455	104.68
867.623	128.6
867.791	128.29
867.959	134.44
868.127	133.31
868.294	107.06
868.462	102.65
868.63	103.53
868.797	113.33
868.965	91.38
869.133	86.45
869.3	72.13
869.468	63.48
869.636	54.43
869.803	60.01
869.971	70.43
870.138	74.04
870.306	70.13
870.473	78.29
870.641	68.05
870.808	68.39
870.975	70.6
871.143	69.52
871.31	66.91
871.478	67.85
871.645	62.05
871.812	66.29
871.98	72.86
872.147	68.04
872.314	53.62
872.482	56.03
872.649	63.48
872.816	68.05
872.983	81.39
873.15	85.49
873.318	96.07
873.485	108.32
873.652	94.87
873.819	106.44
873.986	111.77
874.153	131.82
874.32	143.59
874.487	153.91
874.654	170.53
874.821	172.06
874.988	170.26
875.155	172.69
875.322	136.37
875.489	150.19
875.656	121.32
875.823	143.96
875.99	99.6
876.157	91.29
876.324	87.71
876.49	82.86
876.657	84.19
876.824	83.59
876.991	78.34
877.157	83.56
877.324	89.06
877.491	91.52
877.658	79.39
877.824	90.35
877.991	94.15
878.157	94.01
878.324	95.89
878.491	91.09
878.657	88.31
878.824	92.16
878.99	88.71
879.157	87.67
879.323	86.74
879.49	87.06
879.656	86.01
879.823	89.7
879.989	85.96
880.156	82.41
880.322	79.91
880.488	79.8
880.655	73.57
880.821	75.92
880.987	72.75
881.154	70.1
881.32	65.87
881.486	66.3
881.652	65.15
881.819	63.26
881.985	59.72
882.151	58.25
882.317	55.28
882.483	58.75
882.649	54.81
882.816	53.42
882.982	54.42
883.148	53.91
883.314	51.86
883.48	50.85
883.646	50.53
883.812	50.9
883.978	52.48
884.144	52.59
884.31	52.55
884.476	52.83
884.642	52.12
884.807	51.56
884.973	52.6
885.139	52.53
885.305	51.77
885.471	51.54
885.637	52.29
885.802	50.93
885.968	54.47
886.134	52.58
886.3	54.24
886.465	53.7
886.631	54.42
886.797	56.93
886.962	58.7
887.128	66.45
887.293	70.14
887.459	67.41
887.625	72.21
887.79	68
887.956	75.08
888.121	75.74
888.287	83.88
888.452	88.15
888.618	86.09
888.783	87.7
