Data from CB_019_Reflection_3.txt Node
Date: Wed Nov 11 20:02:05 EST 2015
User: robert
Spectrometer: USB4E03001
Autoset integration time: false
Trigger mode: 4
Integration Time (sec): 1.000000E-1
Scans to average: 15
Electric dark correction enabled: true
Nonlinearity correction enabled: false
Boxcar width: 5
Stray light correction enabled: false
XAxis mode: Wavelengths
Stop averaging: false
Number of Pixels in Spectrum: 3648
>>>>>Begin Spectral Data<<<<<
177.566	-119.81
177.785	-194.77
178.005	359.03
178.225	11.2
178.445	-67.27
178.665	-46.69
178.885	235.43
179.105	1339.13
179.324	8.11
179.544	161.09
179.764	-252.09
179.984	-247.75
180.204	9190
180.423	110.04
180.643	-537.63
180.863	363.83
181.083	20.73
181.302	59.29
181.522	52.08
181.742	-590.43
181.961	-82.36
182.181	-507.25
182.401	753.63
182.621	48.08
182.84	-9.01
183.06	104.63
183.279	52.84
183.499	61.16
183.719	88.92
183.938	90.22
184.158	80.7
184.377	103.78
184.597	144.08
184.816	111.53
185.036	77.72
185.256	144.45
185.475	169.92
185.695	114.22
185.914	159.28
186.134	840.29
186.353	-1706.56
186.572	-275.47
186.792	-265.6
187.011	-403.31
187.231	-1338.38
187.45	-493.46
187.67	-158.7
187.889	-164.51
188.108	-73.06
188.328	-87.32
188.547	-151.78
188.766	-185.4
188.986	-807
189.205	-522.52
189.424	-143.53
189.644	-37.21
189.863	-187.41
190.082	-1124.6
190.302	-76.31
190.521	-94.84
190.74	-47.65
190.959	-130.58
191.178	-88.44
191.398	-137.87
191.617	-159.58
191.836	-316.12
192.055	-154.14
192.274	-22.8
192.494	-153.65
192.713	29.64
192.932	-773.02
193.151	116.17
193.37	68.95
193.589	102.07
193.808	167.22
194.027	217.99
194.246	772.11
194.465	205.15
194.685	481.36
194.904	-301.16
195.123	722.23
195.342	225.23
195.561	694.2
195.78	5909.71
195.999	540.38
196.218	319.67
196.436	591.43
196.655	-401.88
196.874	-93.05
197.093	-436.13
197.312	189.21
197.531	-219.28
197.75	145.83
197.969	223.41
198.188	291.43
198.407	227.73
198.625	278.33
198.844	446.12
199.063	-1173.83
199.282	-530.14
199.501	-341.94
199.719	-301.61
199.938	-163.41
200.157	4.78
200.376	89.7
200.594	-50.75
200.813	-112.48
201.032	113.29
201.251	-12.24
201.469	69.34
201.688	-2.18
201.907	75.92
202.125	53.64
202.344	571.92
202.563	242.87
202.781	63.38
203	-16.99
203.218	16.58
203.437	20.1
203.656	141.25
203.874	82.74
204.093	281.01
204.311	106.17
204.53	90.71
204.748	72.42
204.967	116.68
205.185	3340
205.404	-96.7
205.622	-22.98
205.841	20.34
206.059	19.26
206.278	11.8
206.496	11.73
206.715	-45.1
206.933	15.45
207.151	30.26
207.37	56.21
207.588	174.91
207.806	132.1
208.025	375.47
208.243	-246.95
208.461	-145.43
208.68	-177.56
208.898	2317.29
209.116	414.28
209.335	1255.29
209.553	273.73
209.771	782.12
209.989	-969.36
210.208	-184.46
210.426	-80.51
210.644	-92.31
210.862	-366.6
211.081	-95.88
211.299	-6.88
211.517	-28.66
211.735	-393.66
211.953	-55.45
212.171	95.43
212.39	-500.74
212.608	-85.25
212.826	28.28
213.044	35.32
213.262	-46.69
213.48	-19.69
213.698	-14.49
213.916	-71.97
214.134	-307.75
214.352	-270.47
214.57	-54.63
214.788	-279.84
215.006	-422.73
215.224	233.61
215.442	578.28
215.66	298.02
215.878	333.92
216.096	269.86
216.314	364.32
216.532	509.11
216.75	646.68
216.968	347.11
217.185	199.61
217.403	147.33
217.621	481.36
217.839	200.18
218.057	259.64
218.275	375.23
218.492	-484.89
218.71	286.68
218.928	180.92
219.146	186.28
219.363	577.29
219.581	-248.89
219.799	-71.79
220.017	-74.61
220.234	9.63
220.452	-52.36
220.67	-204.44
220.887	916.26
221.105	-71.08
221.323	75.81
221.54	42.66
221.758	34.7
221.976	47.4
222.193	79.97
222.411	84.99
222.629	73.69
222.846	78.65
223.064	115.57
223.281	107.42
223.499	86.74
223.716	71.03
223.934	68.91
224.151	65.93
224.369	68.72
224.586	53.78
224.804	61.26
225.021	32.76
225.239	28.57
225.456	16.74
225.674	-2.33
225.891	-16.83
226.108	-21.14
226.326	-17.82
226.543	5.13
226.76	22.36
226.978	27.24
227.195	29.42
227.413	43.16
227.63	44.19
227.847	33.46
228.064	37.18
228.282	36.39
228.499	32.61
228.716	33.94
228.934	33.31
229.151	30.91
229.368	31.35
229.585	28.33
229.802	20.69
230.02	21.57
230.237	23
230.454	22.68
230.671	21.97
230.888	24.7
231.105	29.83
231.323	24.26
231.54	26.02
231.757	26.67
231.974	24.41
232.191	29.76
232.408	23.74
232.625	22.52
232.842	20.7
233.059	23.66
233.276	29.31
233.493	18.74
233.71	19.95
233.927	21.45
234.144	9.34
234.361	12.18
234.578	13.53
234.795	11.69
235.012	21.12
235.229	22.7
235.446	26.17
235.663	19.64
235.879	20.88
236.096	26.14
236.313	20.84
236.53	25.87
236.747	31.61
236.964	30.96
237.181	30.47
237.397	23.35
237.614	22.88
237.831	13.44
238.048	7.82
238.264	-0.45
238.481	-5.1
238.698	-8.5
238.915	-5.63
239.131	-11.75
239.348	-10.15
239.565	-2.75
239.781	-2.15
239.998	-5.44
240.215	3.06
240.431	4.76
240.648	8.27
240.865	8.89
241.081	8.82
241.298	10.14
241.514	13.1
241.731	14.49
241.947	11.17
242.164	13.16
242.38	13.38
242.597	12.56
242.814	12.48
243.03	16.26
243.246	15.23
243.463	14.51
243.679	12.94
243.896	12.67
244.112	12.76
244.329	15.41
244.545	12.75
244.762	13.31
244.978	13.1
245.194	17.17
245.411	14.08
245.627	14.14
245.843	16.47
246.06	15.09
246.276	14.42
246.492	12.03
246.709	11.9
246.925	13
247.141	13.19
247.357	12.69
247.574	10.89
247.79	10.69
248.006	10.7
248.222	10.85
248.439	11.87
248.655	11.2
248.871	12.49
249.087	11.76
249.303	12.76
249.519	13.46
249.736	13.72
249.952	14.7
250.168	13.15
250.384	12.9
250.6	12.35
250.816	12.15
251.032	15.05
251.248	15.24
251.464	15.5
251.68	13.36
251.896	9.75
252.112	9.61
252.328	10.38
252.544	11.47
252.76	11.58
252.976	13.6
253.192	12.27
253.408	8.07
253.624	7.84
253.84	8.99
254.056	7.53
254.272	8.17
254.487	8.08
254.703	3.67
254.919	5.3
255.135	5.14
255.351	-2.35
255.567	1.2
255.782	6.99
255.998	5.17
256.214	3.92
256.43	4.05
256.646	6.92
256.861	11.18
257.077	12.68
257.293	8.97
257.508	12.12
257.724	12.78
257.94	11.49
258.155	11.7
258.371	11
258.587	8.84
258.802	8.54
259.018	8.4
259.234	6.5
259.449	7.24
259.665	7.21
259.88	6.78
260.096	6.97
260.312	8.18
260.527	7.44
260.743	7.69
260.958	8.17
261.174	9.11
261.389	8.58
261.605	9.75
261.82	9.38
262.036	10.61
262.251	9.36
262.466	10.39
262.682	8.74
262.897	9.64
263.113	11.52
263.328	13.18
263.543	11.9
263.759	13.02
263.974	11.3
264.189	11.17
264.405	11.48
264.62	12.01
264.835	11.91
265.051	10.58
265.266	10.68
265.481	9.48
265.696	6.48
265.912	6.23
266.127	5.78
266.342	5.32
266.557	5.64
266.773	3.6
266.988	4.13
267.203	0.93
267.418	2.02
267.633	1.82
267.848	2.14
268.064	3.24
268.279	4.27
268.494	3.4
268.709	4.57
268.924	5.2
269.139	6.52
269.354	6.35
269.569	7.9
269.784	8.61
269.999	9.81
270.214	9.58
270.429	9.78
270.644	9.27
270.859	10.14
271.074	11.36
271.289	10.9
271.504	10.79
271.719	11.47
271.934	10.7
272.149	10.48
272.363	10
272.578	9.28
272.793	8.81
273.008	8.24
273.223	8.66
273.438	5.61
273.653	5.03
273.867	6.03
274.082	5.01
274.297	6.84
274.512	6.34
274.726	6.17
274.941	5.12
275.156	4.7
275.371	5.82
275.585	6.08
275.8	7.29
276.015	7.65
276.229	8.97
276.444	9.76
276.659	9.53
276.873	9.6
277.088	9.51
277.302	9.47
277.517	11.83
277.732	9.12
277.946	8.83
278.161	9.07
278.375	8.92
278.59	7.26
278.804	5.97
279.019	6
279.233	6.39
279.448	6.67
279.662	7.7
279.877	6.75
280.091	10.6
280.306	10.87
280.52	11.16
280.735	10.78
280.949	9.66
281.163	10.44
281.378	9.49
281.592	9.83
281.806	8.3
282.021	9.98
282.235	9.8
282.449	7.86
282.664	6.93
282.878	6.93
283.092	5.63
283.307	5.11
283.521	4.38
283.735	4.92
283.949	4.42
284.164	5.39
284.378	5.02
284.592	4.52
284.806	3.95
285.02	5.18
285.234	5.75
285.449	6.46
285.663	6.71
285.877	8.13
286.091	8.13
286.305	8.16
286.519	8.81
286.733	8.7
286.947	10.71
287.161	11.59
287.375	10.66
287.589	10.94
287.803	11.18
288.017	12.16
288.231	12.51
288.445	12.98
288.659	12.85
288.873	12.52
289.087	12.09
289.301	9.16
289.515	9.96
289.729	9.45
289.943	7.61
290.157	9.14
290.371	9.18
290.584	8.46
290.798	7.13
291.012	6.7
291.226	6.62
291.44	5.94
291.654	5.77
291.867	5.01
292.081	5.69
292.295	7.54
292.509	6.34
292.722	5.56
292.936	5.81
293.15	6.37
293.364	6
293.577	5.64
293.791	6.84
294.005	8.55
294.218	9.58
294.432	10.62
294.645	9.84
294.859	11.09
295.073	11.74
295.286	11.28
295.5	12.03
295.713	13.26
295.927	13.53
296.14	13.46
296.354	13.64
296.568	12.6
296.781	12.29
296.994	12.87
297.208	12.87
297.421	12.32
297.635	13.03
297.848	12.63
298.062	12.07
298.275	12.82
298.489	12.61
298.702	12.48
298.915	13.49
299.129	13.56
299.342	13.77
299.555	12.97
299.769	13.38
299.982	13.22
300.195	12.78
300.409	13.81
300.622	13.04
300.835	13.03
301.048	13.4
301.262	12.58
301.475	12.59
301.688	12.32
301.901	13.27
302.115	13.68
302.328	12.65
302.541	14.48
302.754	14.44
302.967	14.67
303.18	15.26
303.393	15.26
303.607	14.2
303.82	14.75
304.033	14.41
304.246	13.79
304.459	13.44
304.672	14.22
304.885	13.44
305.098	13.51
305.311	12.48
305.524	12.34
305.737	12.71
305.95	14.7
306.163	13.59
306.376	13.55
306.589	13.27
306.802	13.65
307.015	11.84
307.228	12.16
307.44	11.15
307.653	11.27
307.866	10.25
308.079	10.04
308.292	8.67
308.505	8.81
308.718	8.83
308.93	8.5
309.143	7.6
309.356	10.47
309.569	10.56
309.781	10.55
309.994	11
310.207	11.93
310.42	12.58
310.632	12.43
310.845	12.29
311.058	13.33
311.27	14.13
311.483	14.43
311.696	13.29
311.908	11.78
312.121	11.86
312.333	11.47
312.546	10.53
312.759	8.51
312.971	8.98
313.184	8.67
313.396	8.02
313.609	8.24
313.821	8
314.034	7.36
314.246	9.09
314.459	9.59
314.671	9.88
314.884	11.22
315.096	12.9
315.309	13.62
315.521	14.13
315.733	14.1
315.946	13.38
316.158	13.27
316.371	13.6
316.583	12.9
316.795	12.98
317.008	14.23
317.22	12.79
317.432	13.22
317.644	12.51
317.857	13.19
318.069	13.37
318.281	13.32
318.494	12.65
318.706	13.61
318.918	14.52
319.13	14.75
319.342	13.96
319.555	14.93
319.767	14.15
319.979	13.69
320.191	13.93
320.403	14.02
320.615	13.89
320.827	13.82
321.039	13.31
321.252	13.27
321.464	13.82
321.676	13.83
321.888	14.64
322.1	13.82
322.312	14.19
322.524	13.78
322.736	13.67
322.948	13.72
323.16	15.08
323.372	15.91
323.584	16.27
323.796	15.5
324.007	16.4
324.219	16.65
324.431	18
324.643	18.94
324.855	19.37
325.067	19.58
325.279	20.79
325.491	21.49
325.702	21.84
325.914	21.52
326.126	21.14
326.338	21.23
326.55	20.64
326.761	19.78
326.973	20.35
327.185	20.64
327.396	20.96
327.608	20.92
327.82	20.8
328.032	20.07
328.243	19.65
328.455	20.96
328.666	21.35
328.878	22.34
329.09	22.74
329.301	22.89
329.513	22.5
329.725	23.13
329.936	24
330.148	24.4
330.359	25.6
330.571	26.3
330.782	25.56
330.994	24.37
331.205	24.3
331.417	24.98
331.628	23.97
331.84	25.15
332.051	25.06
332.262	24.4
332.474	23.79
332.685	24.09
332.897	24.9
333.108	26.42
333.319	27.77
333.531	28.01
333.742	27.98
333.953	27.65
334.165	27.52
334.376	27.71
334.587	27.12
334.799	27.24
335.01	26.02
335.221	27.27
335.432	27.49
335.644	27.19
335.855	26.8
336.066	27.87
336.277	28.69
336.488	28.34
336.7	28.15
336.911	28.69
337.122	28.8
337.333	30.9
337.544	28.87
337.755	28.56
337.966	28.19
338.177	28.18
338.388	28.06
338.599	27.62
338.811	27.66
339.022	27.43
339.233	28.05
339.444	28.27
339.655	27.01
339.866	27.98
340.076	27.95
340.287	27.71
340.498	28.81
340.709	27.85
340.92	29.34
341.131	29.34
341.342	29.23
341.553	28.54
341.764	29.34
341.975	28.83
342.185	28.74
342.396	28.76
342.607	29.23
342.818	28.01
343.029	29.61
343.239	28.69
343.45	28.44
343.661	28.95
343.872	28.61
344.082	27.58
344.293	28.25
344.504	28.53
344.714	28.35
344.925	29.5
345.136	29.74
345.346	28.4
345.557	28.16
345.768	28.66
345.978	28.66
346.189	29
346.399	28.95
346.61	28.82
346.821	28.26
347.031	28.04
347.242	26.94
347.452	27.13
347.663	27.05
347.873	27.8
348.084	27.8
348.294	26.88
348.504	26.8
348.715	26.78
348.925	26.63
349.136	26.73
349.346	26.21
349.557	26.9
349.767	27.43
349.977	28.28
350.188	27.72
350.398	27.88
350.608	28.63
350.819	28.43
351.029	29.24
351.239	29.27
351.449	29.41
351.66	29.82
351.87	29.79
352.08	28.56
352.29	27.95
352.501	28.03
352.711	27.09
352.921	26.19
353.131	26.54
353.341	26.45
353.552	26.97
353.762	26.93
353.972	26.82
354.182	26.18
354.392	25.78
354.602	25.39
354.812	25.99
355.022	27.13
355.232	27.51
355.442	27.54
355.652	27.06
355.862	26.57
356.072	27.24
356.282	27.71
356.492	27.42
356.702	28.37
356.912	28.89
357.122	28.4
357.332	27.6
357.542	27.3
357.752	27.22
357.962	27.59
358.171	27.2
358.381	26.37
358.591	25.66
358.801	25.99
359.011	25.8
359.221	25.52
359.43	24.8
359.64	24.96
359.85	25.9
360.06	25.91
360.269	26.12
360.479	26.39
360.689	26.26
360.899	26.61
361.108	26.37
361.318	26.34
361.528	26.79
361.737	27.3
361.947	27.03
362.156	26.85
362.366	26.53
362.576	26.08
362.785	25.85
362.995	26.25
363.204	26.02
363.414	26.12
363.623	26.4
363.833	25.67
364.042	25.72
364.252	26.37
364.461	25.99
364.671	26.21
364.88	26.55
365.09	26.88
365.299	26.75
365.509	26.93
365.718	26.66
365.927	26.18
366.137	26.66
366.346	26.55
366.555	25.76
366.765	25.52
366.974	25.78
367.183	25.08
367.393	25.01
367.602	25.28
367.811	25.16
368.021	24.67
368.23	24.47
368.439	24.31
368.648	24.3
368.857	24.35
369.067	24.26
369.276	24.2
369.485	24.34
369.694	23.72
369.903	22.3
370.112	22.41
370.321	22.6
370.531	22.72
370.74	22.54
370.949	22.46
371.158	22.39
371.367	22.19
371.576	22.14
371.785	22.01
371.994	21.9
372.203	22.64
372.412	22.56
372.621	23.15
372.83	23.01
373.039	22.72
373.248	22.43
373.457	22.16
373.666	22.32
373.874	21.66
374.083	21.47
374.292	21.57
374.501	21.69
374.71	21.58
374.919	21.12
375.128	20.29
375.336	20.13
375.545	20.35
375.754	20.64
375.963	20.68
376.171	20.38
376.38	20.34
376.589	19.91
376.798	19.12
377.006	18.88
377.215	19.02
377.424	19.2
377.632	18.94
377.841	18.16
378.05	18.2
378.258	18.39
378.467	18.86
378.675	18.86
378.884	18.95
379.093	19
379.301	18.66
379.51	18.38
379.718	18.34
379.927	18.31
380.135	18.32
380.344	18.09
380.552	17.91
380.761	17.34
380.969	17.13
381.177	17.02
381.386	17.14
381.594	17.38
381.803	16.67
382.011	17.17
382.219	17.3
382.428	17.61
382.636	17.56
382.845	17.4
383.053	17.47
383.261	17.55
383.469	17.9
383.678	17.93
383.886	17.93
384.094	18.17
384.302	17.98
384.511	17.95
384.719	17.87
384.927	17.54
385.135	17.3
385.343	17.34
385.552	17.18
385.76	16.57
385.968	16.63
386.176	16.34
386.384	15.97
386.592	15.72
386.8	15.59
387.008	15.27
387.216	14.92
387.424	15.06
387.633	14.67
387.841	14.34
388.049	14.39
388.257	14.43
388.465	14.74
388.672	14.86
388.88	14.75
389.088	14.94
389.296	15.1
389.504	15.53
389.712	14.96
389.92	15.29
390.128	15.68
390.336	15.79
390.544	15.54
390.751	14.87
390.959	14.75
391.167	14.95
391.375	14.7
391.583	14.43
391.79	14.28
391.998	14.3
392.206	14.05
392.414	13.96
392.621	13.82
392.829	13.81
393.037	14.09
393.244	14.18
393.452	13.76
393.66	13.79
393.867	13.91
394.075	13.85
394.283	13.78
394.49	13.86
394.698	13.77
394.905	13.89
395.113	13.95
395.32	13.89
395.528	13.87
395.735	13.92
395.943	13.4
396.15	13.19
396.358	12.86
396.565	12.82
396.773	12.51
396.98	12.29
397.188	12.24
397.395	12.03
397.602	11.83
397.81	11.89
398.017	11.87
398.225	12.14
398.432	12.36
398.639	12.6
398.847	12.17
399.054	12.5
399.261	12.49
399.468	12.32
399.676	12.09
399.883	12.33
400.09	12.2
400.297	12.28
400.505	12.56
400.712	12.38
400.919	12.36
401.126	12.88
401.333	12.56
401.54	12.42
401.748	12.1
401.955	12.18
402.162	11.86
402.369	11.76
402.576	11.94
402.783	11.71
402.99	11.55
403.197	11.84
403.404	11.63
403.611	11.78
403.818	11.66
404.025	12.12
404.232	12
404.439	12.05
404.646	11.92
404.853	11.76
405.06	11.61
405.267	11.86
405.474	11.39
405.681	11.34
405.887	11.14
406.094	11.48
406.301	11.4
406.508	11.57
406.715	11.62
406.922	11.68
407.128	11.36
407.335	11.28
407.542	10.91
407.749	11.1
407.955	11.47
408.162	11.71
408.369	11.55
408.575	11.51
408.782	11.22
408.989	11.24
409.195	11.02
409.402	11.45
409.609	11.48
409.815	11.31
410.022	11.08
410.228	10.87
410.435	10.62
410.642	10.57
410.848	10.39
411.055	10.51
411.261	10.26
411.468	10.73
411.674	10.6
411.881	10.58
412.087	10.8
412.294	10.87
412.5	10.73
412.706	10.78
412.913	10.85
413.119	10.9
413.326	10.88
413.532	10.87
413.738	10.62
413.945	10.48
414.151	10.6
414.357	10.57
414.564	10.8
414.77	10.78
414.976	10.89
415.182	10.79
415.389	10.9
415.595	10.76
415.801	10.92
416.007	10.79
416.214	11.13
416.42	11.1
416.626	11.09
416.832	10.84
417.038	10.84
417.244	10.9
417.45	10.9
417.657	10.86
417.863	10.93
418.069	10.74
418.275	10.95
418.481	10.7
418.687	10.51
418.893	10.51
419.099	10.69
419.305	10.76
419.511	10.51
419.717	10.47
419.923	10.47
420.129	10.4
420.335	10.45
420.541	10.19
420.746	10.1
420.952	10.21
421.158	10.2
421.364	10.04
421.57	9.99
421.776	10.05
421.982	9.98
422.187	9.85
422.393	9.82
422.599	9.81
422.805	9.94
423.01	9.92
423.216	9.87
423.422	9.69
423.628	9.74
423.833	9.7
424.039	9.52
424.245	9.55
424.45	9.56
424.656	9.62
424.862	9.5
425.067	9.23
425.273	9.24
425.478	9.36
425.684	9.43
425.889	9.25
426.095	9.39
426.301	9.45
426.506	9.47
426.712	9.4
426.917	9.28
427.123	9.57
427.328	9.9
427.533	10.13
427.739	9.87
427.944	9.85
428.15	9.97
428.355	9.73
428.561	9.61
428.766	9.6
428.971	9.55
429.177	9.53
429.382	9.2
429.587	9.02
429.793	8.72
429.998	8.6
430.203	8.37
430.408	8.31
430.614	8.39
430.819	8.49
431.024	8.41
431.229	8.53
431.434	8.69
431.64	8.94
431.845	9.01
432.05	8.97
432.255	9.04
432.46	9.34
432.665	9.61
432.87	9.59
433.076	9.63
433.281	9.66
433.486	9.62
433.691	9.64
433.896	9.46
434.101	9.4
434.306	9.44
434.511	9.5
434.716	9.37
434.921	9.17
435.126	9.13
435.331	9.12
435.535	9.18
435.74	8.97
435.945	8.88
436.15	8.74
436.355	8.84
436.56	8.85
436.765	8.63
436.97	8.66
437.174	8.61
437.379	8.85
437.584	8.81
437.789	8.79
437.993	8.98
438.198	8.97
438.403	9.14
438.608	9.1
438.812	9.06
439.017	9.37
439.222	9.43
439.426	9.37
439.631	9.17
439.836	9.43
440.04	9.48
440.245	9.55
440.45	9.52
440.654	9.37
440.859	9.38
441.063	9.34
441.268	9.15
441.472	9.09
441.677	9.18
441.881	9.18
442.086	9.12
442.29	8.89
442.495	8.98
442.699	9.02
442.904	9.07
443.108	9.02
443.312	8.97
443.517	9.1
443.721	9.2
443.925	9.1
444.13	9.08
444.334	8.83
444.538	8.94
444.743	8.63
444.947	8.73
445.151	8.68
445.356	8.71
445.56	8.77
445.764	8.82
445.968	8.81
446.173	8.9
446.377	8.87
446.581	9
446.785	9.04
446.989	9.08
447.193	9
447.398	9.1
447.602	9.15
447.806	8.99
448.01	8.96
448.214	8.97
448.418	8.93
448.622	9.18
448.826	9.23
449.03	9.22
449.234	9.18
449.438	9.21
449.642	9.38
449.846	9.25
450.05	9.61
450.254	9.62
450.458	9.44
450.662	9.42
450.866	9.17
451.069	8.87
451.273	8.8
451.477	8.89
451.681	8.84
451.885	8.55
452.089	8.58
452.292	8.47
452.496	8.26
452.7	8.53
452.904	8.49
453.107	8.5
453.311	8.65
453.515	8.65
453.719	8.89
453.922	8.88
454.126	8.92
454.33	9.01
454.533	9.06
454.737	9.1
454.94	8.89
455.144	8.8
455.348	8.68
455.551	8.73
455.755	8.84
455.958	8.55
456.162	8.37
456.365	8.49
456.569	8.62
456.772	8.51
456.976	8.69
457.179	8.8
457.383	9.05
457.586	9.15
457.79	8.9
457.993	8.69
458.196	8.81
458.4	9.14
458.603	8.93
458.807	9
459.01	8.99
459.213	8.84
459.417	8.82
459.62	8.68
459.823	8.56
460.026	8.64
460.23	8.75
460.433	8.72
460.636	8.57
460.839	8.73
461.042	8.58
461.246	8.7
461.449	8.73
461.652	8.85
461.855	8.95
462.058	9.03
462.261	9.19
462.464	9.18
462.668	9.1
462.871	9.02
463.074	9.05
463.277	9.01
463.48	8.76
463.683	8.85
463.886	8.44
464.089	8.36
464.292	8.24
464.495	8.23
464.698	8.22
464.901	8.19
465.104	8.26
465.306	8.14
465.509	7.99
465.712	8.13
465.915	8.05
466.118	8.21
466.321	8.35
466.524	8.6
466.726	8.76
466.929	8.69
467.132	8.61
467.335	8.75
467.538	8.83
467.74	9.03
467.943	9.13
468.146	9.26
468.348	9.42
468.551	9.36
468.754	9.26
468.956	9.1
469.159	9.38
469.362	9.59
469.564	9.69
469.767	9.7
469.969	9.66
470.172	9.59
470.375	9.49
470.577	9.29
470.78	9.41
470.982	9.44
471.185	9.44
471.387	9.25
471.59	9.25
471.792	9.02
471.995	9
472.197	8.89
472.399	8.93
472.602	8.89
472.804	9.12
473.007	9.08
473.209	9.16
473.411	9.05
473.614	8.87
473.816	8.97
474.018	8.85
474.22	8.9
474.423	9.07
474.625	8.96
474.827	8.95
475.03	8.78
475.232	8.56
475.434	8.45
475.636	8.41
475.838	8.71
476.04	8.67
476.243	8.86
476.445	8.85
476.647	8.81
476.849	9
477.051	8.94
477.253	8.95
477.455	9.22
477.657	9.4
477.859	9.61
478.061	9.51
478.263	9.36
478.465	9.3
478.667	9.32
478.869	9.15
479.071	9.03
479.273	9.08
479.475	9.01
479.677	8.61
479.879	8.38
480.081	8.21
480.283	8.24
480.485	8.43
480.686	8.42
480.888	8.29
481.09	8.32
481.292	8.34
481.494	8.3
481.695	8.44
481.897	8.64
482.099	8.78
482.301	8.89
482.502	8.85
482.704	8.88
482.906	8.92
483.107	8.91
483.309	8.93
483.511	8.89
483.712	8.94
483.914	8.93
484.115	8.93
484.317	8.88
484.519	8.89
484.72	8.9
484.922	8.86
485.123	8.79
485.325	8.82
485.526	8.84
485.728	8.9
485.929	8.84
486.131	8.78
486.332	8.87
486.534	8.91
486.735	8.78
486.936	8.81
487.138	8.81
487.339	8.86
487.541	8.81
487.742	8.81
487.943	8.8
488.144	8.79
488.346	8.82
488.547	8.62
488.748	8.54
488.95	8.66
489.151	8.6
489.352	8.54
489.553	8.52
489.755	8.54
489.956	8.57
490.157	8.52
490.358	8.53
490.559	8.53
490.76	8.59
490.961	8.57
491.163	8.41
491.364	8.41
491.565	8.4
491.766	8.46
491.967	8.5
492.168	8.54
492.369	8.6
492.57	8.6
492.771	8.63
492.972	8.71
493.173	8.72
493.374	8.86
493.575	8.95
493.776	9.02
493.976	9.09
494.177	9.13
494.378	9.01
494.579	8.97
494.78	9.01
494.981	9.05
495.182	9.09
495.382	9.29
495.583	9.21
495.784	9.05
495.985	9.07
496.185	8.84
496.386	8.75
496.587	8.85
496.788	8.77
496.988	8.82
497.189	8.8
497.39	8.71
497.59	8.67
497.791	8.62
497.992	8.69
498.192	8.74
498.393	9.07
498.593	9.19
498.794	9.16
498.994	9.28
499.195	9.36
499.395	9.49
499.596	9.7
499.796	9.69
499.997	9.75
500.197	9.92
500.398	9.84
500.598	9.71
500.799	9.7
500.999	9.65
501.199	9.62
501.4	9.68
501.6	9.62
501.801	9.43
502.001	9.53
502.201	9.61
502.402	9.68
502.602	9.81
502.802	9.85
503.002	9.92
503.203	10.13
503.403	10.09
503.603	10.03
503.803	10
504.003	10.31
504.204	10.23
504.404	10.5
504.604	10.35
504.804	10.41
505.004	10.49
505.204	10.39
505.404	10.39
505.604	10.49
505.804	10.46
506.005	10.62
506.205	10.53
506.405	10.76
506.605	10.57
506.805	10.72
507.005	10.74
507.204	10.73
507.404	10.9
507.604	10.98
507.804	11.04
508.004	11.13
508.204	11.13
508.404	11.13
508.604	11.02
508.804	11.29
509.003	11.4
509.203	11.52
509.403	11.59
509.603	11.68
509.803	11.71
510.002	11.87
510.202	12.11
510.402	12.08
510.602	12.21
510.801	12.29
511.001	12.23
511.201	12.26
511.4	12.33
511.6	12.42
511.8	12.54
511.999	12.66
512.199	12.8
512.398	12.75
512.598	12.95
512.797	12.9
512.997	13.02
513.197	13.18
513.396	13.46
513.596	13.42
513.795	13.49
513.994	13.39
514.194	13.5
514.393	13.67
514.593	13.8
514.792	13.71
514.992	14.06
515.191	14.31
515.39	14.48
515.59	14.41
515.789	14.62
515.988	14.65
516.188	15.01
516.387	15.12
516.586	15.17
516.786	15.4
516.985	15.68
517.184	15.64
517.383	15.79
517.582	15.77
517.782	15.94
517.981	16.11
518.18	16.51
518.379	16.43
518.578	16.5
518.777	16.57
518.976	16.65
519.176	16.76
519.375	16.88
519.574	16.98
519.773	17.02
519.972	17.08
520.171	17.17
520.37	17.14
520.569	17.36
520.768	17.46
520.967	17.59
521.166	17.8
521.365	17.92
521.564	18.07
521.762	18.18
521.961	18.51
522.16	18.66
522.359	18.61
522.558	18.75
522.757	19
522.956	19.18
523.154	19.29
523.353	19.51
523.552	19.71
523.751	19.89
523.949	20.11
524.148	20.26
524.347	20.46
524.546	20.73
524.744	20.88
524.943	20.98
525.142	21.17
525.34	21.43
525.539	21.44
525.737	21.5
525.936	21.63
526.135	21.74
526.333	21.76
526.532	21.91
526.73	22.15
526.929	22.25
527.127	22.39
527.326	22.65
527.524	22.75
527.723	22.88
527.921	23.02
528.12	23.2
528.318	23.28
528.516	23.41
528.715	23.52
528.913	23.58
529.112	23.76
529.31	23.85
529.508	23.84
529.707	23.93
529.905	24.05
530.103	24.22
530.301	24.3
530.5	24.44
530.698	24.64
530.896	24.79
531.094	25.05
531.293	25.13
531.491	25.32
531.689	25.61
531.887	25.8
532.085	25.98
532.283	26.1
532.481	26.21
532.68	26.32
532.878	26.45
533.076	26.57
533.274	26.54
533.472	26.66
533.67	26.72
533.868	26.79
534.066	26.81
534.264	27.01
534.462	27.13
534.66	27.28
534.858	27.44
535.056	27.61
535.253	27.75
535.451	28.01
535.649	28.23
535.847	28.41
536.045	28.59
536.243	28.85
536.441	28.78
536.638	28.87
536.836	28.88
537.034	29.05
537.232	29.1
537.43	29.14
537.627	29.32
537.825	29.25
538.023	29.27
538.22	29.32
538.418	29.44
538.616	29.7
538.813	29.72
539.011	29.97
539.209	30.1
539.406	30.27
539.604	30.59
539.801	30.4
539.999	30.69
540.196	30.85
540.394	31.01
540.591	31.09
540.789	30.99
540.986	31.15
541.184	31.16
541.381	31.19
541.579	31.19
541.776	31.14
541.974	31.26
542.171	31.29
542.368	31.38
542.566	31.44
542.763	31.46
542.96	31.58
543.158	31.71
543.355	31.82
543.552	31.93
543.75	32.03
543.947	32.08
544.144	32.27
544.341	32.27
544.539	32.33
544.736	32.46
544.933	32.58
545.13	32.79
545.327	32.82
545.524	32.9
545.722	32.96
545.919	33.03
546.116	33.32
546.313	33.41
546.51	33.65
546.707	33.78
546.904	33.76
547.101	33.89
547.298	33.83
547.495	33.81
547.692	33.82
547.889	33.78
548.086	33.95
548.283	33.96
548.48	33.91
548.677	33.86
548.874	33.8
549.07	33.88
549.267	33.83
549.464	33.9
549.661	34.2
549.858	34.43
550.055	34.62
550.251	34.57
550.448	34.57
550.645	34.69
550.842	34.79
551.038	35.05
551.235	35.05
551.432	35.13
551.628	35.35
551.825	35.41
552.022	35.41
552.218	35.53
552.415	35.73
552.612	35.91
552.808	35.95
553.005	36.06
553.201	36.01
553.398	36.17
553.594	36.1
553.791	36.23
553.987	36.17
554.184	36.46
554.38	36.39
554.577	36.39
554.773	36.31
554.97	36.54
555.166	36.6
555.362	36.65
555.559	36.78
555.755	36.98
555.952	36.94
556.148	36.95
556.344	36.82
556.541	36.94
556.737	36.9
556.933	36.96
557.129	36.98
557.326	37.07
557.522	36.82
557.718	36.88
557.914	36.83
558.11	36.97
558.307	37.11
558.503	37.31
558.699	37.41
558.895	37.62
559.091	37.58
559.287	37.58
559.483	37.55
559.679	37.9
559.876	37.76
560.072	38
560.268	38.08
560.464	38.05
560.66	37.87
560.856	38.01
561.052	37.85
561.247	38
561.443	38.22
561.639	38.42
561.835	38.47
562.031	38.62
562.227	38.53
562.423	38.5
562.619	38.8
562.815	39.05
563.01	39.01
563.206	39.31
563.402	39.44
563.598	39.31
563.793	39.36
563.989	39.66
564.185	39.63
564.381	40.01
564.576	40.01
564.772	39.91
564.968	39.96
565.163	40.33
565.359	40.18
565.555	40.11
565.75	40.4
565.946	40.44
566.141	40.31
566.337	40.4
566.532	40.23
566.728	40.35
566.923	40.49
567.119	40.3
567.314	39.93
567.51	40.15
567.705	40.19
567.901	39.97
568.096	39.98
568.292	40.01
568.487	40.08
568.682	40.01
568.878	40.02
569.073	40
569.268	40.13
569.464	40.38
569.659	40.19
569.854	40.27
570.05	40.33
570.245	40.3
570.44	40.35
570.635	40.37
570.831	40.57
571.026	40.61
571.221	40.54
571.416	40.68
571.611	40.63
571.806	40.8
572.002	40.67
572.197	40.69
572.392	40.65
572.587	40.75
572.782	40.83
572.977	40.88
573.172	40.82
573.367	40.91
573.562	40.99
573.757	41.07
573.952	41.06
574.147	41.33
574.342	41.47
574.537	41.5
574.732	41.53
574.927	41.66
575.121	41.59
575.316	41.59
575.511	41.49
575.706	41.5
575.901	41.47
576.096	41.34
576.29	41.2
576.485	41.09
576.68	41.13
576.875	41.04
577.069	41.05
577.264	41.22
577.459	41.34
577.654	41.53
577.848	41.31
578.043	41.58
578.238	41.79
578.432	41.79
578.627	41.87
578.821	42.02
579.016	42.42
579.21	42.23
579.405	42.09
579.6	42.04
579.794	42.05
579.989	42.29
580.183	42.31
580.378	42.24
580.572	42.29
580.766	42.26
580.961	42.24
581.155	41.88
581.35	41.94
581.544	41.76
581.738	41.89
581.933	41.9
582.127	41.89
582.321	41.71
582.516	42.05
582.71	42.29
582.904	42.4
583.099	42.45
583.293	42.63
583.487	42.7
583.681	43.1
583.875	43.48
584.07	43.51
584.264	43.55
584.458	43.35
584.652	43.24
584.846	43.21
585.04	43.26
585.234	43.32
585.428	43.1
585.623	43.04
585.817	43.08
586.011	42.93
586.205	43
586.399	42.96
586.593	43.34
586.787	43.48
586.981	43.16
587.174	43.24
587.368	43.41
587.562	43.51
587.756	43.45
587.95	43.46
588.144	43.18
588.338	42.85
588.532	42.98
588.725	42.97
588.919	43.09
589.113	43.44
589.307	43.43
589.501	43.21
589.694	43.28
589.888	43.35
590.082	43.29
590.275	43.58
590.469	44.04
590.663	44.3
590.856	44.51
591.05	44.64
591.244	44.61
591.437	44.5
591.631	44.67
591.824	44.56
592.018	44.82
592.212	45.03
592.405	44.69
592.599	44.65
592.792	44.33
592.986	44.1
593.179	43.78
593.372	43.87
593.566	44.2
593.759	44.55
593.953	44.88
594.146	44.52
594.339	44.49
594.533	44.87
594.726	44.75
594.92	44.91
595.113	44.92
595.306	45.11
595.499	45.18
595.693	44.9
595.886	44.26
596.079	44.04
596.272	44.18
596.466	44.02
596.659	43.98
596.852	43.92
597.045	43.99
597.238	44.2
597.431	44.04
597.624	44.08
597.818	44.12
598.011	44.5
598.204	44.54
598.397	44.54
598.59	44.66
598.783	44.6
598.976	44.94
599.169	44.89
599.362	44.86
599.555	44.82
599.748	44.98
599.941	45.04
600.134	45.13
600.326	45.17
600.519	45.49
600.712	45.54
600.905	45.49
601.098	45.39
601.291	45.23
601.483	45.24
601.676	45.5
601.869	45.35
602.062	45.7
602.255	45.55
602.447	45.31
602.64	45.53
602.833	45.7
603.025	45.8
603.218	45.79
603.411	45.87
603.603	45.76
603.796	45.56
603.989	45.7
604.181	45.59
604.374	45.59
604.566	45.6
604.759	45.41
604.951	45.19
605.144	45.11
605.336	45.17
605.529	45.24
605.721	45.2
605.914	45.2
606.106	45.01
606.299	44.88
606.491	44.93
606.683	45.14
606.876	45.29
607.068	45.43
607.26	45.65
607.453	45.49
607.645	45.44
607.837	45.48
608.03	45.7
608.222	45.67
608.414	45.6
608.606	45.56
608.799	45.65
608.991	45.35
609.183	45.24
609.375	45.46
609.567	45.44
609.759	45.55
609.952	45.49
610.144	45.52
610.336	45.49
610.528	45.59
610.72	45.54
610.912	45.52
611.104	45.58
611.296	45.7
611.488	45.39
611.68	45.57
611.872	45.66
612.064	45.95
612.256	45.91
612.448	45.94
612.64	46.09
612.832	46.17
613.023	46.22
613.215	46.14
613.407	46.1
613.599	46.28
613.791	46.46
613.983	46.32
614.174	46.15
614.366	45.94
614.558	46.22
614.75	46.04
614.941	46.31
615.133	46.32
615.325	46.57
615.516	46.8
615.708	46.4
615.9	46.02
616.091	45.99
616.283	46.12
616.475	46.21
616.666	46.11
616.858	46.07
617.049	45.5
617.241	45.28
617.432	45.02
617.624	44.85
617.815	45.13
618.007	45.26
618.198	45.1
618.39	44.87
618.581	44.96
618.773	44.98
618.964	45.09
619.155	45.29
619.347	45.35
619.538	45.31
619.729	45.32
619.921	45.45
620.112	45.19
620.303	45.15
620.494	45.39
620.686	45.51
620.877	45.4
621.068	45.33
621.259	45.45
621.451	45.54
621.642	46.06
621.833	45.52
622.024	45.21
622.215	45.59
622.406	45.47
622.597	45.56
622.788	45.44
622.98	45.45
623.171	45.76
623.362	46.08
623.553	46.28
623.744	46.12
623.935	47.06
624.126	46.9
624.317	46.67
624.508	47.05
624.698	46.81
624.889	46.92
625.08	47.12
625.271	47.01
625.462	46.97
625.653	46.71
625.844	46.49
626.034	45.94
626.225	46.01
626.416	46.06
626.607	45.84
626.798	45.83
626.988	45.69
627.179	45.65
627.37	45.66
627.56	45.41
627.751	45.64
627.942	45.52
628.132	45.8
628.323	46.29
628.514	46.45
628.704	46.73
628.895	46.67
629.085	46.66
629.276	46.67
629.466	46.35
629.657	46.33
629.847	46.49
630.038	46.75
630.228	46.98
630.419	46.78
630.609	46.6
630.8	46.89
630.99	46.94
631.181	46.98
631.371	46.75
631.561	46.92
631.752	47.56
631.942	47.28
632.132	47.43
632.323	47.13
632.513	47.03
632.703	46.94
632.893	46.56
633.084	46.23
633.274	45.87
633.464	46.14
633.654	46.28
633.844	45.56
634.034	45.49
634.225	45.38
634.415	45.46
634.605	45.37
634.795	45.69
634.985	45.62
635.175	46.19
635.365	46.7
635.555	46.85
635.745	46.54
635.935	46.72
636.125	46.8
636.315	46.82
636.505	46.79
636.695	46.72
636.885	46.99
637.075	46.72
637.265	46.41
637.455	46.35
637.644	45.89
637.834	46.3
638.024	46.54
638.214	46.57
638.404	46.54
638.593	46.2
638.783	46.48
638.973	46.04
639.163	46.69
639.352	46.8
639.542	47.04
639.732	47.47
639.921	47.56
640.111	47.12
640.301	47.2
640.49	47.46
640.68	47.47
640.87	47.6
641.059	47.42
641.249	47.55
641.438	47.29
641.628	47.24
641.817	47.12
642.007	47.21
642.196	47.59
642.386	47.51
642.575	47.43
642.764	47.61
642.954	47.17
643.143	47.09
643.333	46.43
643.522	46.87
643.711	46.76
643.901	46.52
644.09	46.02
644.279	45.79
644.469	45.71
644.658	45.85
644.847	45.93
645.036	46.05
645.226	46.5
645.415	47.6
645.604	47.59
645.793	47.53
645.982	47.73
646.171	47.86
646.361	47.86
646.55	47.88
646.739	47.57
646.928	47.69
647.117	47.53
647.306	47.21
647.495	46.49
647.684	46.05
647.873	46.09
648.062	45.94
648.251	46.05
648.44	46.28
648.629	46.5
648.818	46.23
649.007	45.92
649.196	45.83
649.384	45.97
649.573	45.85
649.762	46.12
649.951	45.78
650.14	46.05
650.328	46.38
650.517	46.32
650.706	46.01
650.895	46.36
651.083	46.53
651.272	47.2
651.461	46.87
651.65	46.79
651.838	46.76
652.027	46.94
652.216	46.72
652.404	46.51
652.593	46.66
652.781	47.22
652.97	47.07
653.158	46.99
653.347	46.66
653.535	46.94
653.724	47.06
653.912	46.96
654.101	47.37
654.289	47.51
654.478	47.63
654.666	47.36
654.855	46.96
655.043	46.93
655.231	46.75
655.42	46.72
655.608	46.71
655.796	46.31
655.985	46.83
656.173	46.77
656.361	46.31
656.55	45.87
656.738	45.48
656.926	45.65
657.114	45.82
657.302	45.95
657.491	46.16
657.679	45.92
657.867	46.12
658.055	46.05
658.243	45.82
658.431	45.97
658.619	45.97
658.807	46.31
658.996	46.35
659.184	46.46
659.372	46.52
659.56	46.61
659.748	47.13
659.936	47.35
660.124	47.1
660.311	47.25
660.499	47.48
660.687	47.76
660.875	47.97
661.063	48.18
661.251	48.29
661.439	48.74
661.627	48.61
661.814	48.42
662.002	48.74
662.19	49
662.378	48.87
662.565	49.13
662.753	49.22
662.941	49.17
663.129	48.85
663.316	48.48
663.504	48.46
663.692	48.52
663.879	48.48
664.067	48.13
664.254	48.01
664.442	47.91
664.63	47.75
664.817	47.54
665.005	47.72
665.192	47.83
665.38	47.97
665.567	47.75
665.755	47.37
665.942	46.82
666.13	46.53
666.317	46.34
666.504	46.55
666.692	46.34
666.879	45.97
667.067	45.78
667.254	45.99
667.441	46.14
667.629	45.66
667.816	46.09
668.003	46.7
668.19	46.98
668.378	47.29
668.565	47.1
668.752	47.49
668.939	47.7
669.127	48.07
669.314	47.81
669.501	47.72
669.688	48.89
669.875	48.98
670.062	48.76
670.249	48.7
670.436	48.75
670.623	49.16
670.81	49.12
670.997	49.04
671.184	48.55
671.371	48.58
671.558	48.89
671.745	48.6
671.932	48.69
672.119	48.65
672.306	48.84
672.493	48.21
672.68	48.18
672.867	48.07
673.054	48.06
673.24	48.94
673.427	49.14
673.614	48.65
673.801	48.23
673.988	47.49
674.174	47.88
674.361	47.81
674.548	48.52
674.734	48.41
674.921	49.11
675.108	49.2
675.294	48.25
675.481	47.86
675.668	48.18
675.854	48.34
676.041	48.23
676.227	48.05
676.414	47.76
676.601	47.95
676.787	47.83
676.974	46.81
677.16	46.81
677.347	47.19
677.533	47.59
677.719	47.44
677.906	47.49
678.092	48.01
678.279	47.84
678.465	47.58
678.651	47.34
678.838	47.06
679.024	47.05
679.21	47.28
679.397	47.57
679.583	47.51
679.769	47.25
679.955	46.85
680.142	47.38
680.328	47.92
680.514	48.39
680.7	48.45
680.886	48.98
681.073	49.19
681.259	49.05
681.445	48.65
681.631	48.4
681.817	48.6
682.003	48.75
682.189	48.18
682.375	47.56
682.561	47.15
682.747	47.29
682.933	46.65
683.119	46.6
683.305	47.1
683.491	46.83
683.677	46.84
683.863	46.92
684.049	46.53
684.235	46.79
684.42	47.25
684.606	47.61
684.792	47.45
684.978	47.78
685.164	47.88
685.349	47.66
685.535	47.94
685.721	47.99
685.907	47.51
686.092	48.03
686.278	47.81
686.464	47.85
686.649	47.74
686.835	47.55
687.021	47.4
687.206	47.07
687.392	47.22
687.577	47.11
687.763	46.84
687.948	47.78
688.134	47.82
688.319	48.32
688.505	48.52
688.69	48.22
688.876	47.59
689.061	47.76
689.247	48.23
689.432	48.53
689.618	49.05
689.803	49.51
689.988	49.38
690.174	49.21
690.359	48.48
690.544	48
690.73	48.58
690.915	49.39
691.1	49.46
691.285	49.23
691.471	48.61
691.656	47.65
691.841	47.7
692.026	47.03
692.211	46.88
692.396	46.68
692.582	46.8
692.767	46.14
692.952	46.2
693.137	46.11
693.322	45.85
693.507	45.91
693.692	46.68
693.877	46.69
694.062	47.43
694.247	48.21
694.432	48.88
694.617	49.27
694.802	49.95
694.987	49.64
695.172	49.36
695.357	49.36
695.541	48.93
695.726	48.8
695.911	48.24
696.096	47.52
696.281	47.03
696.466	46.83
696.65	46.85
696.835	46.86
697.02	46.71
697.204	46.98
697.389	46.71
697.574	46.41
697.759	46.21
697.943	46.67
698.128	47.31
698.312	47.34
698.497	47.35
698.682	46.82
698.866	46.45
699.051	46.68
699.235	46.58
699.42	46.62
699.604	47.16
699.789	47.13
699.973	46.79
700.158	46.59
700.342	46.68
700.527	46.97
700.711	47.28
700.895	47.56
701.08	47.53
701.264	47.88
701.448	48.25
701.633	48.71
701.817	49.4
702.001	49.84
702.186	49.8
702.37	49.97
702.554	49.86
702.738	50.06
702.923	50.37
703.107	50.11
703.291	49.81
703.475	50.61
703.659	50.65
703.843	50.25
704.027	50.23
704.212	49.34
704.396	48.83
704.58	48.99
704.764	48.24
704.948	47.58
705.132	48.04
705.316	47.99
705.5	47.33
705.684	46.67
705.868	47.74
706.052	47.67
706.235	48.99
706.419	49.2
706.603	48.73
706.787	48.63
706.971	49.12
707.155	48.82
707.339	49.07
707.522	49.08
707.706	48.51
707.89	47.05
708.074	46.85
708.257	46.11
708.441	45.72
708.625	44.72
708.808	45.71
708.992	45.94
709.176	46.19
709.359	46.2
709.543	45.46
709.727	45.95
709.91	46.86
710.094	47.31
710.277	47.66
710.461	48.14
710.644	49.04
710.828	48.69
711.011	48.24
711.195	48.71
711.378	48.22
711.562	48.55
711.745	48.9
711.928	48.32
712.112	47.8
712.295	46.77
712.478	46.86
712.662	47.04
712.845	47.25
713.028	47.55
713.212	46.73
713.395	46.69
713.578	47.49
713.761	47.26
713.945	47.6
714.128	47.96
714.311	48.52
714.494	48.12
714.677	47.79
714.86	47.35
715.043	47.11
715.227	46.92
715.41	47.96
715.593	48.03
715.776	48.46
715.959	48.27
716.142	49
716.325	49.21
716.508	49.56
716.691	49.9
716.874	49.82
717.057	49.97
717.239	51.38
717.422	50.84
717.605	49.85
717.788	49.11
717.971	48.74
718.154	48.25
718.337	48.96
718.519	48.25
718.702	48.09
718.885	48.41
719.068	48.57
719.25	47.64
719.433	47.18
719.616	47.86
719.798	47.79
719.981	48.06
720.164	47.1
720.346	46.41
720.529	47.28
720.712	46.99
720.894	47.52
721.077	48.08
721.259	47.72
721.442	47.93
721.624	47.9
721.807	47.61
721.989	48.4
722.172	49.51
722.354	49.14
722.537	48.73
722.719	49.41
722.901	49.78
723.084	49.64
723.266	49.98
723.448	49.52
723.631	49.68
723.813	50.4
723.995	49.77
724.178	49.91
724.36	50.9
724.542	50.48
724.724	49.83
724.907	48.64
725.089	47.25
725.271	47.48
725.453	47.76
725.635	47.57
725.817	46.53
725.999	46.15
726.181	45.77
726.364	45.47
726.546	46.03
726.728	46.21
726.91	47.04
727.092	48.46
727.274	48.27
727.456	48.18
727.638	47.33
727.819	47.97
728.001	49.05
728.183	49.23
728.365	49.14
728.547	49.06
728.729	49.08
728.911	48.59
729.093	48.08
729.274	47.54
729.456	47.71
729.638	47.56
729.82	48.06
730.001	47.12
730.183	46.36
730.365	46.38
730.546	46.28
730.728	45.75
730.91	45.7
731.091	45.54
731.273	46.64
731.455	47.03
731.636	47.18
731.818	46.78
731.999	47.16
732.181	47.4
732.362	47.34
732.544	47.82
732.725	48.49
732.907	48.75
733.088	48.73
733.27	48.37
733.451	48.66
733.633	49.33
733.814	50.35
733.995	49.82
734.177	49.61
734.358	50.27
734.539	49.74
734.721	49.75
734.902	49.77
735.083	50.02
735.264	49.89
735.446	50.01
735.627	49.82
735.808	49.07
735.989	48.84
736.17	48.91
736.351	47.64
736.533	47.24
736.714	47.37
736.895	47.26
737.076	47.48
737.257	47.5
737.438	46.17
737.619	45.3
737.8	45.25
737.981	45.87
738.162	45.58
738.343	45.78
738.524	45.43
738.705	46.51
738.886	46.17
739.067	45.72
739.247	46.54
739.428	47.29
739.609	48.21
739.79	47.59
739.971	48.42
740.151	48.8
740.332	48.88
740.513	49.72
740.694	47.99
740.874	49.03
741.055	49.11
741.236	47.75
741.417	47.99
741.597	48.66
741.778	49.47
741.958	49.43
742.139	49.1
742.32	48.82
742.5	48.92
742.681	50.27
742.861	49.06
743.042	48.92
743.222	48.74
743.403	48.66
743.583	48.25
743.764	47.78
743.944	47.17
744.124	47.44
744.305	46.81
744.485	46.21
744.666	45.43
744.846	45.61
745.026	46.32
745.207	45.99
745.387	46.12
745.567	45.9
745.747	46.91
745.928	47.19
746.108	47.61
746.288	49.49
746.468	49.93
746.648	50.62
746.829	51.64
747.009	51.41
747.189	51.84
747.369	52.28
747.549	52.42
747.729	50.96
747.909	50.31
748.089	49.65
748.269	49.38
748.449	49.94
748.629	49.99
748.809	49.63
748.989	49.83
749.169	49.75
749.349	49.24
749.529	48.97
749.709	49.38
749.889	48.68
750.068	48.61
750.248	48.51
750.428	48.22
750.608	46.78
750.788	46.64
750.967	45.92
751.147	45.83
751.327	43.89
751.507	44.64
751.686	45.53
751.866	46.95
752.046	47.65
752.225	47.92
752.405	48.63
752.585	49.89
752.764	49.87
752.944	49.57
753.123	49.37
753.303	50.52
753.482	50.16
753.662	49.85
753.841	49.67
754.021	49.06
754.2	47.91
754.38	47.66
754.559	46.58
754.739	46.4
754.918	46.53
755.097	46.96
755.277	47.2
755.456	47.15
755.635	45.47
755.815	44.87
755.994	45.93
756.173	47.34
756.352	47.17
756.532	46.77
756.711	47.14
756.89	47.36
757.069	49.32
757.248	49.32
757.427	49.06
757.607	51.17
757.786	51.97
757.965	51.78
758.144	50.32
758.323	49.74
758.502	50.57
758.681	50.26
758.86	50.09
759.039	48.58
759.218	49.43
759.397	50.13
759.576	50.51
759.755	50.26
759.934	49.21
760.113	49.94
760.291	51
760.47	51.19
760.649	50.02
760.828	50.24
761.007	50.06
761.186	49.83
761.364	49.03
761.543	47.93
761.722	48.23
761.901	48.53
762.079	49.34
762.258	48.68
762.437	48.2
762.615	49.04
762.794	49.07
762.972	49.59
763.151	49.4
763.33	49.2
763.508	49.13
763.687	48.35
763.865	48.24
764.044	46.86
764.222	46.33
764.401	46.82
764.579	46.71
764.758	46.51
764.936	46.22
765.114	45.86
765.293	46.66
765.471	46.84
765.65	46.98
765.828	46.94
766.006	48.26
766.184	47.64
766.363	47.54
766.541	46.77
766.719	46.36
766.898	45.58
767.076	45.41
767.254	44.83
767.432	44.76
767.61	45.49
767.788	44.54
767.967	43.4
768.145	45.41
768.323	44.16
768.501	44.5
768.679	45.03
768.857	45.68
769.035	46.29
769.213	46.76
769.391	46.44
769.569	45.46
769.747	46.76
769.925	46.1
770.103	45.44
770.281	47
770.459	48.16
770.636	49
770.814	50.03
770.992	50.29
771.17	49.87
771.348	50.86
771.525	52.32
771.703	53.16
771.881	56.72
772.059	57.13
772.236	56.48
772.414	58.17
772.592	59.08
772.769	59.8
772.947	59.63
773.125	59.12
773.302	56.54
773.48	52.71
773.657	52.3
773.835	49.27
774.013	49.18
774.19	50.9
774.368	48.86
774.545	46.19
774.723	44.33
774.9	43.51
775.077	44.21
775.255	45.89
775.432	48.53
775.61	47.95
775.787	47.65
775.964	47.96
776.142	45.41
776.319	45.65
776.496	46.26
776.674	45.51
776.851	46.27
777.028	45.67
777.205	45.96
777.382	44.2
777.56	44.31
777.737	45.01
777.914	45.24
778.091	45.15
778.268	46.23
778.445	46.79
778.622	48.81
778.8	49.07
778.977	49.74
779.154	52.21
779.331	54.04
779.508	54.58
779.685	56.22
779.862	55.47
780.038	55.23
780.215	54.07
780.392	53.86
780.569	53.55
780.746	51.71
780.923	50.8
781.1	47.41
781.277	46.51
781.453	46.52
781.63	46.58
781.807	46.45
781.984	47.66
782.16	46.76
782.337	47.86
782.514	47
782.691	48.8
782.867	47.84
783.044	47.87
783.221	49.4
783.397	49.11
783.574	46.33
783.75	45.26
783.927	44.79
784.103	45.4
784.28	44.23
784.456	45.67
784.633	43.85
784.809	43.89
784.986	45.36
785.162	46.44
785.339	47.81
785.515	50.71
785.692	53.04
785.868	52.97
786.044	55.35
786.221	53.29
786.397	52.98
786.573	52.32
786.749	52.9
786.926	51.93
787.102	51
787.278	50.25
787.454	49.24
787.631	47.96
787.807	50.18
787.983	50.11
788.159	50.92
788.335	50.21
788.511	51.68
788.687	49.93
788.863	51.68
789.039	52.02
789.216	51.57
789.392	49.53
789.568	48.34
789.744	47.25
789.919	45.71
790.095	45.16
790.271	45.93
790.447	46.99
790.623	49.64
790.799	47.24
790.975	46.02
791.151	47.76
791.327	51.05
791.502	53.18
791.678	55.65
791.854	54.32
792.03	55.86
792.205	54.46
792.381	52.7
792.557	51.2
792.733	53.77
792.908	53.89
793.084	51.48
793.259	48.51
793.435	48.25
793.611	43.32
793.786	42.52
793.962	43.05
794.137	43.63
794.313	45.8
794.488	47.18
794.664	43.38
794.839	41.71
795.015	43.31
795.19	43.15
795.366	42.58
795.541	46.17
795.716	47.76
795.892	48.91
796.067	49.36
796.242	49.33
796.418	48.48
796.593	47.04
796.768	48.83
796.944	47.49
797.119	47.43
797.294	49.1
797.469	44.99
797.644	46.07
797.82	44.76
797.995	44.02
798.17	42.96
798.345	41.88
798.52	42.96
798.695	41.24
798.87	40.07
799.045	41.53
799.22	40.53
799.395	42.48
799.57	40.78
799.745	39.48
799.92	38.11
800.095	39.27
800.27	39.41
800.445	41.66
800.62	45.2
800.795	47.55
800.97	45.14
801.145	43.33
801.319	41.68
801.494	42.62
801.669	42.7
801.844	44.29
802.018	43.23
802.193	45.14
802.368	45.25
802.543	41.49
802.717	41.02
802.892	43.82
803.067	45.45
803.241	45.99
803.416	44.78
803.59	48.12
803.765	50.96
803.94	52.14
804.114	50.34
804.289	49.96
804.463	51.68
804.638	52.34
804.812	51.58
804.986	52.21
805.161	53.63
805.335	52.43
805.51	48.54
805.684	44.99
805.858	43.26
806.033	45.74
806.207	45.81
806.381	46.42
806.556	45.67
806.73	46.33
806.904	45.27
807.078	45.42
807.253	46.73
807.427	50.06
807.601	51.4
807.775	52.76
807.949	50.13
808.123	47.82
808.298	48.87
808.472	46.23
808.646	43.63
808.82	39.41
808.994	39.8
809.168	40.88
809.342	38.43
809.516	37.55
809.69	36.42
809.864	39.51
810.038	42.34
810.212	38.11
810.385	39.41
810.559	41.8
810.733	47.09
810.907	46.23
811.081	45.29
811.255	45.2
811.428	48.12
811.602	44.74
811.776	43.15
811.95	42.79
812.123	46.11
812.297	46.16
812.471	43.54
812.644	43.09
812.818	40.42
812.992	40.74
813.165	39.55
813.339	37.73
813.512	44.01
813.686	44.45
813.86	43.82
814.033	43.84
814.207	44.81
814.38	47.53
814.554	45.22
814.727	48.6
814.9	50.87
815.074	52.44
815.247	49.4
815.421	45
815.594	43.82
815.767	43.4
815.941	40.69
816.114	39.02
816.287	41.57
816.46	44.48
816.634	43.26
816.807	41.26
816.98	39.8
817.153	42.63
817.327	42.85
817.5	44.25
817.673	46.42
817.846	43.7
818.019	43.55
818.192	38.34
818.365	32.75
818.538	35.55
818.711	32.26
818.884	33.42
819.057	34.29
819.23	34.45
819.403	35.45
819.576	34.58
819.749	35.22
819.922	38.21
820.095	40.66
820.268	47.31
820.441	43.94
820.614	46.2
820.786	46.11
820.959	45.25
821.132	47.45
821.305	46.93
821.477	46.78
821.65	47.89
821.823	47.44
821.996	47.72
822.168	46.59
822.341	47.03
822.514	46.86
822.686	46.47
822.859	46.75
823.031	46.68
823.204	46.59
823.376	46.59
823.549	46.27
823.722	46.01
823.894	45.49
824.067	45.39
824.239	45.65
824.411	45.46
824.584	46.18
824.756	45.58
824.929	44.91
825.101	44.73
825.273	44.2
825.446	44.73
825.618	44.62
825.79	45.18
825.963	46.16
826.135	45.84
826.307	46.26
826.479	44.96
826.652	45.99
826.824	45.97
826.996	45.61
827.168	46.65
827.34	46.24
827.512	46.54
827.684	44.64
827.856	43.63
828.029	42.75
828.201	42.59
828.373	43.63
828.545	43.29
828.717	43.93
828.889	45.09
829.061	44.55
829.232	46.5
829.404	47.17
829.576	49.68
829.748	50
829.92	51.52
830.092	53.22
830.264	52.12
830.436	50.06
830.607	50.77
830.779	51.12
830.951	51.62
831.123	49.43
831.294	50.47
831.466	50.51
831.638	50.24
831.809	50.05
831.981	48.61
832.153	49.95
832.324	52.06
832.496	51.99
832.667	51.48
832.839	50.89
833.011	52.73
833.182	52.1
833.354	50.11
833.525	51.17
833.697	49.63
833.868	48.88
834.039	48.96
834.211	48.07
834.382	48.67
834.554	48.37
834.725	47.61
834.896	46.59
835.068	44.43
835.239	43.68
835.41	44.1
835.581	44.11
835.753	45.44
835.924	45.41
836.095	47.11
836.266	44.76
836.438	44.05
836.609	45.56
836.78	44.37
836.951	44.63
837.122	46.52
837.293	44.18
837.464	43.19
837.635	42.98
837.806	42.63
837.977	39.89
838.148	43.12
838.319	44.64
838.49	45.47
838.661	47.28
838.832	49.71
839.003	50.5
839.174	53.5
839.345	59.14
839.516	57.02
839.687	58.26
839.857	60.05
840.028	57.59
840.199	55.54
840.37	51.66
840.54	52.17
840.711	51.31
840.882	50.33
841.053	50.02
841.223	45.28
841.394	45.95
841.564	47.2
841.735	50.28
841.906	53.66
842.076	50.84
842.247	53.35
842.417	54.24
842.588	54.64
842.758	55.95
842.929	49.64
843.099	52.57
843.27	54.58
843.44	52.08
843.611	46.37
843.781	40.44
843.951	49.42
844.122	46.28
844.292	49.84
844.462	52.83
844.633	52.75
844.803	65.79
844.973	62.93
845.144	66.16
845.314	68.46
845.484	72.44
845.654	75.05
845.824	77.74
845.995	73.49
846.165	60.09
846.335	65.33
846.505	65.55
846.675	69.66
846.845	80.39
847.015	84.24
847.185	88.31
847.355	87.73
847.525	85.07
847.695	82.02
847.865	80.06
848.035	87.51
848.205	73.47
848.375	70.93
848.545	67.14
848.715	62.26
848.884	50.45
849.054	52.44
849.224	54.1
849.394	66.31
849.564	60.12
849.733	70.45
849.903	75.6
850.073	76.68
850.243	81.78
850.412	78.33
850.582	77.79
850.752	85.68
850.921	75.38
851.091	75.17
851.26	67.24
851.43	65.68
851.599	65.55
851.769	59.01
851.939	61.85
852.108	58.51
852.278	55.86
852.447	53.88
852.616	58.15
852.786	62.05
852.955	59.07
853.125	65.03
853.294	68.94
853.463	61.17
853.633	60.38
853.802	54.61
853.971	73.79
854.141	75.65
854.31	73.06
854.479	62.06
854.648	69.34
854.818	77.02
854.987	64.32
855.156	69.94
855.325	72.49
855.494	79.77
855.663	92.57
855.832	82.83
856.001	82.66
856.171	74.92
856.34	70.61
856.509	84.32
856.678	92.78
856.847	93.54
857.016	91.34
857.185	87.57
857.353	82.99
857.522	76.84
857.691	61.08
857.86	60.99
858.029	64.94
858.198	69.07
858.367	46.21
858.535	44.6
858.704	51.48
858.873	55.3
859.042	54.6
859.21	48.62
859.379	45.5
859.548	64.3
859.717	71.84
859.885	82.15
860.054	81.71
860.222	98.35
860.391	84.61
860.56	75.09
860.728	69.02
860.897	55.15
861.065	60.74
861.234	62.58
861.402	54.48
861.571	65.88
861.739	65.88
861.908	79.69
862.076	64.99
862.244	59.13
862.413	61.04
862.581	66.14
862.749	76.47
862.918	67.1
863.086	60.02
863.254	61.42
863.423	48.44
863.591	37.88
863.759	30.35
863.927	39.42
864.096	44.59
864.264	41.21
864.432	49.69
864.6	46.94
864.768	39.08
864.936	44.64
865.104	50.15
865.272	63.37
865.44	82.14
865.608	89.32
865.776	75.17
865.944	75.94
866.112	85.19
866.28	59.66
866.448	45.34
866.616	69.22
866.784	62.42
866.952	47.87
867.12	39.76
867.288	34.57
867.455	25.8
867.623	16.72
867.791	-1.49
867.959	-36.4
868.127	20.83
868.294	42.84
868.462	28.39
868.63	51.32
868.797	70.16
868.965	80.93
869.133	62.88
869.3	65.09
869.468	71.51
869.636	55.89
869.803	57.16
869.971	57.37
870.138	63.27
870.306	61.46
870.473	58.24
870.641	59.49
870.808	47.76
870.975	62
871.143	61.99
871.31	64.45
871.478	70.39
871.645	95.37
871.812	77.57
871.98	74.64
872.147	66.5
872.314	80.2
872.482	63.65
872.649	54.85
872.816	51.6
872.983	55.59
873.15	47.01
873.318	51.12
873.485	36.57
873.652	43.39
873.819	31.65
873.986	46.7
874.153	30.85
874.32	42.68
874.487	74.39
874.654	60.31
874.821	47.71
874.988	44.55
875.155	41.07
875.322	50.73
875.489	48.29
875.656	53.11
875.823	50.52
875.99	40.59
876.157	46.01
876.324	40.59
876.49	50.67
876.657	52.36
876.824	61.24
876.991	63.98
877.157	54.65
877.324	59.34
877.491	52.35
877.658	47.92
877.824	63.27
877.991	56.98
878.157	59.06
878.324	41.82
878.491	39.18
878.657	36.68
878.824	29.74
878.99	38.58
879.157	38.96
879.323	44.19
879.49	53.82
879.656	55.24
879.823	44.37
879.989	48.35
880.156	57.59
880.322	63.37
880.488	61.94
880.655	70.29
880.821	65.04
880.987	62.74
881.154	59.48
881.32	55.42
881.486	52.9
881.652	55.33
881.819	49.97
881.985	49.55
882.151	48.97
882.317	48.15
882.483	46.23
882.649	48.48
882.816	44.1
882.982	43.97
883.148	42.6
883.314	42.47
883.48	43.88
883.646	45.37
883.812	45.36
883.978	44.57
884.144	45.91
884.31	43.29
884.476	41.68
884.642	44.43
884.807	43.36
884.973	43.26
885.139	42.9
885.305	41.02
885.471	40.93
885.637	41.51
885.802	41.77
885.968	41.55
886.134	43.87
886.3	45
886.465	44.4
886.631	47.68
886.797	49.55
886.962	50.25
887.128	49.71
887.293	51.4
887.459	44.42
887.625	45.88
887.79	42.25
887.956	39.84
888.121	38.71
888.287	35.78
888.452	33.17
888.618	30.39
888.783	25.91
